DTS Sentinel unit serial number:	SN413079Multiplexer serial number:	ORYXHardware model number:	OX4-SRSoftware version number:	ORYX F/W v4.00 Oryx Data Collector v3.7.2.0data status	okinstallation	princeton_trtdifferential loss correction	single-endedforward channel	channel 2reverse channel	N/Adate	2019/09/13time	18:23:35forward acquisition time	60.00reverse acquisition time	0.00gamma	496.2192k internal	0.2320k external	0.2320temperature offset calibration	1.0191default loss term (dB/km)	0.3790temperature slope calibration	1.0000multiplexer offset coefficient	1.0000multiplexer slope coefficient	1.0000fibre end	0.00T internal ref (°C)	33.75T ext. ref 1 (°C)	4.34T ext. ref 2 (°C)	26.68length (m)	temperature (°C)	Stokes	anti-Stokes-747.200	766.258	-0.034	0.092
-746.185	91.180	0.221	0.251
-745.171	69.185	0.235	-0.244
-744.156	-200.000	0.045	0.352
-743.142	-200.000	0.003	0.034
-742.127	52.780	-0.164	0.159
-741.112	125.926	-0.271	0.346
-740.098	-200.000	0.035	0.479
-739.083	-166.720	0.125	-0.005
-738.069	-62.083	0.204	0.086
-737.054	-95.005	-0.171	0.047
-736.039	192.258	-0.112	-0.172
-735.025	91.019	-0.177	0.201
-734.010	-166.546	-0.062	0.003
-732.996	54.023	0.090	0.088
-731.981	282.778	-0.036	-0.065
-730.966	-30.810	0.086	-0.049
-729.952	-73.178	-0.204	0.076
-728.937	-4.721	0.053	0.037
-727.923	-0.826	-0.282	-0.202
-726.908	-123.326	-0.452	-0.073
-725.894	-200.000	0.013	0.075
-724.879	156.676	-0.093	0.130
-723.864	-196.037	-0.237	-0.002
-722.850	-46.115	-0.243	0.121
-721.835	800.000	-0.072	0.287
-720.821	-200.000	-0.035	-0.208
-719.806	337.383	0.193	0.379
-718.791	2.167	-0.092	0.067
-717.777	-41.146	-0.366	0.191
-716.762	-67.792	0.109	-0.043
-715.748	63.792	-0.206	-0.209
-714.733	187.268	-0.137	0.207
-713.718	-130.139	0.035	-0.005
-712.704	-200.000	0.026	-0.135
-711.689	35.158	-0.413	-0.365
-710.675	39.263	0.080	-0.072
-709.660	800.000	-0.102	-0.355
-708.645	-163.537	0.246	-0.012
-707.631	93.029	-0.055	-0.062
-706.616	513.808	0.084	-0.197
-705.602	516.768	-0.079	0.187
-704.587	-117.932	0.094	0.017
-703.572	-200.000	-0.253	0.001
-702.558	242.572	0.099	0.167
-701.543	-142.626	0.159	0.016
-700.529	-42.836	-0.252	-0.129
-699.514	290.248	0.133	0.243
-698.499	577.088	-0.108	-0.265
-697.485	327.695	0.018	0.034
-696.470	40.282	0.123	-0.111
-695.456	-200.000	0.014	0.170
-694.441	-4.941	0.127	-0.088
-693.426	-68.126	-0.079	-0.031
-692.412	-121.732	-0.401	-0.067
-691.397	-106.010	0.156	-0.036
-690.383	-147.771	0.297	-0.025
-689.368	69.752	-0.210	-0.218
-688.354	88.073	0.153	-0.172
-687.339	798.660	-0.056	-0.156
-686.324	-166.482	0.302	0.013
-685.310	127.978	0.133	-0.171
-684.295	11.279	-0.119	0.092
-683.281	72.200	0.166	-0.174
-682.266	532.443	-0.032	-0.077
-681.251	139.937	-0.264	0.350
-680.237	800.000	-0.065	0.252
-679.222	-123.192	-0.274	-0.044
-678.208	-37.215	-0.042	0.023
-677.193	800.000	-0.050	0.167
-676.178	-118.810	0.298	-0.053
-675.164	230.428	0.260	-0.428
-674.149	-1.760	0.258	-0.183
-673.135	-200.000	0.020	-0.327
-672.120	124.306	0.102	-0.129
-671.105	800.000	0.045	0.132
-670.091	127.030	0.151	0.194
-669.076	8.686	0.113	-0.086
-668.062	-9.220	0.158	0.107
-667.047	754.112	0.142	0.387
-666.032	-89.545	-0.119	-0.035
-665.018	-96.034	-0.152	0.041
-664.003	205.712	0.153	-0.240
-662.989	209.941	0.173	0.274
-661.974	800.000	0.062	-0.213
-660.959	-3.241	0.270	0.189
-659.945	55.700	0.192	0.188
-658.930	64.640	-0.053	-0.054
-657.916	47.407	-0.081	-0.076
-656.901	346.427	-0.141	-0.280
-655.886	800.000	0.112	0.396
-654.872	244.133	0.206	0.348
-653.857	57.232	-0.170	-0.168
-652.843	30.199	0.147	0.126
-651.828	800.000	-0.031	-0.103
-650.814	108.813	-0.122	0.146
-649.799	-200.000	-0.062	0.346
-648.784	-49.864	0.224	0.107
-647.770	-8.025	-0.153	-0.104
-646.755	-157.304	0.109	0.007
-645.741	-200.000	0.003	0.031
-644.726	30.933	-0.180	0.155
-643.711	-64.003	-0.267	0.110
-642.697	-80.557	0.179	-0.060
-641.682	26.728	0.104	-0.088
-640.668	800.000	0.031	0.101
-639.653	-68.581	0.388	0.151
-638.638	-200.000	0.024	-0.150
-637.624	142.243	0.159	-0.212
-636.609	800.000	-0.066	-0.245
-635.595	-90.734	-0.336	-0.098
-634.580	39.848	0.117	-0.105
-633.565	800.000	0.009	0.037
-632.551	-200.000	-0.043	0.276
-631.536	-153.379	0.220	0.015
-630.522	-200.000	0.012	0.077
-629.507	150.284	0.325	0.445
-628.492	-28.582	0.053	0.031
-627.478	28.284	0.273	0.232
-626.463	-200.000	-0.039	-0.472
-625.449	-200.000	0.010	-0.243
-624.434	-200.000	0.029	-0.229
-623.419	-200.000	-0.021	-0.164
-622.405	-200.000	-0.032	-0.216
-621.390	-200.000	0.008	-0.060
-620.376	800.000	-0.132	0.449
-619.361	271.155	0.205	0.363
-618.346	800.000	0.122	0.486
-617.332	-200.000	-0.016	0.120
-616.317	104.290	0.149	0.177
-615.303	-104.830	-0.189	0.044
-614.288	198.697	-0.062	-0.095
-613.273	-88.554	-0.295	-0.089
-612.259	-34.244	0.021	0.012
-611.244	-142.159	0.238	0.024
-610.230	43.259	0.233	-0.214
-609.215	35.997	-0.249	0.221
-608.201	-200.000	-0.027	-0.129
-607.186	-38.310	-0.077	-0.041
-606.171	-200.000	-0.005	-0.144
-605.157	-53.262	-0.164	-0.075
-604.142	442.298	-0.047	-0.103
-603.128	144.747	0.168	-0.226
-602.113	-91.122	-0.097	0.028
-601.098	-75.228	-0.127	-0.046
-600.084	234.470	0.006	0.010
-599.069	-117.080	-0.152	-0.028
-598.055	613.203	-0.019	0.048
-597.040	176.620	-0.088	-0.129
-596.025	-81.159	-0.017	0.006
-595.011	800.000	0.054	0.196
-593.996	338.991	-0.126	0.247
-592.982	-151.110	0.187	0.014
-591.967	49.332	0.066	-0.063
-590.952	375.521	0.085	-0.174
-589.938	-200.000	-0.005	0.066
-588.923	-0.566	0.053	0.038
-587.909	175.254	-0.065	0.094
-586.894	-16.696	0.228	-0.145
-585.879	800.000	0.101	-0.380
-584.865	-157.068	0.261	0.016
-583.850	234.480	0.031	-0.052
-582.836	-96.906	-0.411	-0.108
-581.821	-200.000	0.048	0.267
-580.806	800.000	-0.101	0.282
-579.792	169.672	-0.106	-0.152
-578.777	-200.000	-0.052	0.266
-577.763	-200.000	-0.009	0.252
-576.748	62.721	-0.083	0.084
-575.733	-200.000	0.012	0.172
-574.719	-200.000	0.032	-0.160
-573.704	412.316	-0.215	-0.459
-572.690	-67.611	-0.184	0.072
-571.675	250.729	-0.092	0.157
-570.661	-110.106	0.101	0.021
-569.646	-200.000	-0.007	-0.043
-568.631	133.986	-0.161	-0.209
-567.617	-173.547	-0.205	0.006
-566.602	-200.000	-0.001	0.116
-565.588	-94.696	0.082	-0.022
-564.573	64.162	0.157	-0.158
-563.558	800.000	0.118	0.401
-562.544	25.706	-0.094	0.078
-561.529	-41.079	0.151	0.078
-560.515	-130.233	0.091	-0.012
-559.500	800.000	-0.059	-0.252
-558.485	88.337	-0.333	0.371
-557.471	-105.864	0.343	0.078
-556.456	155.816	0.197	-0.273
-555.442	800.000	0.019	0.084
-554.427	35.488	0.105	-0.092
-553.412	-48.308	0.168	0.081
-552.398	-12.810	-0.209	0.136
-551.383	800.000	-0.042	0.163
-550.369	-27.139	-0.205	0.120
-549.354	-129.825	-0.173	-0.024
-548.339	-143.711	0.309	-0.029
-547.325	65.817	0.135	-0.137
-546.310	-181.906	-0.185	0.004
-545.296	-27.227	0.159	-0.093
-544.281	-200.000	0.012	-0.276
-543.266	-200.000	0.008	0.039
-542.252	-74.952	0.384	-0.138
-541.237	-24.126	0.122	0.073
-540.223	160.230	-0.214	0.299
-539.208	272.664	0.106	0.188
-538.193	-102.966	-0.255	0.061
-537.179	358.519	-0.134	-0.269
-536.164	800.000	-0.021	-0.074
-535.150	-23.689	-0.229	-0.138
-534.135	-126.517	0.083	-0.012
-533.121	135.022	0.181	0.236
-532.106	800.000	-0.114	0.329
-531.091	-200.000	0.039	-0.371
-530.077	-93.380	-0.225	-0.063
-529.062	-71.258	-0.211	0.079
-528.048	77.115	-0.054	-0.058
-527.033	743.777	-0.037	-0.099
-526.018	115.004	-0.255	0.313
-525.004	-56.158	-0.209	-0.093
-523.989	50.469	0.066	0.063
-522.975	-130.923	-0.296	0.040
-521.960	-200.000	-0.611	-0.001
-520.945	-112.753	-0.416	-0.083
-519.931	800.000	0.076	0.224
-518.916	-30.561	0.211	0.120
-517.902	40.413	0.196	0.177
-516.887	-94.839	0.058	0.016
-515.872	-200.000	-0.016	-0.095
-514.858	68.988	0.060	0.062
-513.843	-111.114	0.147	-0.030
-512.829	-200.000	0.031	0.344
-511.814	-47.890	0.302	0.146
-510.799	-197.948	-0.132	-0.001
-509.785	-200.000	-0.001	0.077
-508.770	581.613	-0.162	-0.398
-507.756	30.256	-0.122	0.104
-506.741	-163.088	-0.189	0.009
-505.726	244.940	-0.086	-0.145
-504.712	800.000	0.081	0.255
-503.697	-200.000	0.002	0.125
-502.683	1.582	-0.287	-0.207
-501.668	-135.444	0.115	0.014
-500.653	-200.000	0.101	0.497
-499.639	-28.136	0.056	0.033
-498.624	62.151	0.058	-0.058
-497.610	800.000	-0.057	-0.182
-496.595	800.000	-0.082	-0.341
-495.581	800.000	0.059	-0.250
-494.566	-50.911	-0.315	-0.148
-493.551	-200.000	0.031	0.143
-492.537	-76.411	0.244	0.086
-491.522	800.000	-0.085	-0.252
-490.508	-58.997	-0.151	0.065
-489.493	-15.787	-0.105	-0.067
-488.478	800.000	0.082	0.312
-487.464	17.949	-0.152	0.121
-486.449	143.232	0.327	0.435
-485.435	271.099	0.101	-0.177
-484.420	356.890	0.089	0.177
-483.405	159.035	0.269	0.374
-482.391	-144.183	0.188	-0.018
-481.376	800.000	0.045	-0.181
-480.362	194.801	-0.127	-0.193
-479.347	-49.792	0.283	0.135
-478.332	111.678	0.134	0.161
-477.318	146.635	-0.052	0.069
-476.303	529.287	0.087	0.204
-475.289	-200.000	-0.003	0.408
-474.274	-125.639	0.435	-0.066
-473.259	800.000	-0.088	0.324
-472.245	-200.000	0.060	-0.326
-471.230	128.341	-0.207	-0.264
-470.216	-132.318	-0.189	0.024
-469.201	-81.208	-0.339	0.112
-468.186	-31.888	-0.161	-0.090
-467.172	-13.636	0.473	-0.306
-466.157	-200.000	0.006	0.030
-465.143	-94.393	-0.252	-0.069
-464.128	347.095	0.053	-0.105
-463.113	-48.702	0.306	-0.147
-462.099	-200.000	-0.019	0.108
-461.084	-135.519	-0.132	-0.016
-460.070	370.041	-0.156	-0.316
-459.055	-143.218	-0.377	-0.036
-458.040	372.917	-0.049	0.100
-457.026	-154.602	-0.014	-0.001
-456.011	-87.735	0.236	0.071
-454.997	39.772	0.198	-0.178
-453.982	274.760	-0.070	-0.125
-452.968	-200.000	-0.007	0.170
-451.953	-200.000	-0.020	-0.252
-450.938	76.811	0.112	-0.119
-449.924	-33.121	-0.144	-0.080
-448.909	18.160	0.216	-0.172
-447.895	20.327	0.222	0.179
-446.880	-103.237	0.299	0.071
-445.865	-87.316	0.449	0.136
-444.851	-192.997	-0.345	0.003
-443.836	226.593	-0.069	0.111
-442.822	30.719	0.147	-0.126
-441.807	-200.000	-0.016	-0.274
-440.792	-0.423	0.324	0.230
-439.778	-33.387	0.312	-0.173
-438.763	350.488	0.072	-0.142
-437.749	-200.000	-0.013	-0.150
-436.734	-198.538	-0.180	0.001
-435.719	158.677	-0.315	0.437
-434.705	-36.300	0.143	0.077
-433.690	-134.383	-0.226	0.028
-432.676	-200.000	-0.004	0.040
-431.661	-25.003	-0.383	0.227
-430.646	-133.891	-0.067	0.008
-429.632	-67.007	0.519	0.204
-428.617	509.325	0.116	-0.270
-427.603	-180.600	-0.414	-0.009
-426.588	-149.628	-0.334	-0.026
-425.573	197.990	0.100	-0.152
-424.559	3.172	0.210	-0.153
-423.544	189.927	-0.216	-0.324
-422.530	800.000	0.068	0.255
-421.515	14.629	0.186	0.146
-420.500	191.477	-0.173	0.260
-419.486	-144.578	0.406	-0.037
-418.471	-193.632	-0.246	-0.002
-417.457	204.722	0.222	0.344
-416.442	800.000	-0.027	-0.098
-415.428	252.043	0.142	0.242
-414.413	599.031	0.095	-0.236
-413.398	-73.518	0.044	-0.016
-412.384	341.549	0.012	0.023
-411.369	-101.840	0.203	-0.049
-410.355	-89.673	0.163	0.048
-409.340	472.176	0.020	-0.045
-408.325	395.776	-0.022	0.047
-407.311	-200.000	-0.036	-0.328
-406.296	270.412	-0.121	0.213
-405.282	-46.537	0.014	-0.007
-404.267	-200.000	-0.056	0.259
-403.252	13.409	0.170	0.132
-402.238	-162.589	0.254	-0.012
-401.223	31.657	-0.193	-0.166
-400.209	49.180	-0.129	-0.121
-399.194	-200.000	-0.015	-0.114
-398.179	-106.561	-0.170	0.038
-397.165	-78.688	0.236	-0.080
-396.150	800.000	0.084	-0.232
-395.136	-117.297	-0.300	-0.054
-394.121	800.000	0.032	-0.103
-393.106	-99.091	0.278	-0.070
-392.092	336.582	-0.114	-0.220
-391.077	118.297	-0.093	0.114
-390.063	-47.888	0.105	0.051
-389.048	-43.131	-0.224	-0.113
-388.033	800.000	-0.059	0.176
-387.019	-28.116	-0.209	-0.121
-386.004	-160.918	-0.167	-0.009
-384.990	-73.451	-0.173	0.063
-383.975	201.435	-0.116	-0.178
-382.960	140.195	0.131	0.172
-381.946	-120.428	-0.154	0.026
-380.931	-1.660	-0.363	-0.255
-379.917	85.803	-0.115	-0.127
-378.902	-200.000	0.010	0.085
-377.888	-109.837	0.220	-0.046
-376.873	10.454	0.363	-0.276
-375.858	699.698	-0.066	0.174
-374.844	103.662	-0.150	-0.175
-373.829	296.811	-0.092	-0.168
-372.815	-136.255	0.225	0.026
-371.800	168.595	-0.171	0.243
-370.785	-200.000	-0.014	-0.166
-369.771	-7.043	-0.195	0.132
-368.756	-79.108	-0.293	0.099
-367.742	53.855	-0.143	-0.137
-366.727	-62.674	0.425	0.176
-365.712	-185.278	-0.011	-0.000
-364.698	128.934	0.220	0.280
-363.683	-30.281	0.110	-0.062
-362.669	-128.133	-0.118	0.017
-361.654	-200.000	-0.017	-0.241
-360.639	-30.648	-0.193	-0.109
-359.625	-13.078	-0.243	-0.157
-358.610	-200.000	0.013	0.314
-357.596	259.093	0.264	0.454
-356.581	-78.489	-0.487	-0.166
-355.566	-200.000	0.056	-0.259
-354.552	443.288	-0.134	-0.293
-353.537	-88.556	0.066	-0.019
-352.523	800.000	-0.086	-0.293
-351.508	-1.257	-0.057	0.040
-350.493	-200.000	-0.007	0.073
-349.479	-66.577	-0.155	0.061
-348.464	66.732	0.089	0.091
-347.450	-200.000	0.035	0.197
-346.435	70.150	0.180	0.185
-345.420	250.988	-0.015	0.025
-344.406	-200.000	-0.012	-0.308
-343.391	-112.657	-0.430	0.085
-342.377	-4.412	-0.060	0.041
-341.362	-55.726	-0.148	-0.066
-340.348	-52.346	0.145	0.067
-339.333	800.000	0.051	0.220
-338.318	-200.000	0.017	0.119
-337.304	63.095	0.138	-0.138
-336.289	-25.427	0.152	-0.089
-335.275	800.000	-0.122	-0.459
-334.260	-200.000	-0.019	0.106
-333.245	-64.901	0.228	-0.092
-332.231	206.139	-0.143	-0.221
-331.216	-124.689	0.166	0.026
-330.202	-149.194	-0.027	0.002
-329.187	-55.730	-0.276	-0.123
-328.172	153.452	0.206	-0.281
-327.158	-117.032	0.190	0.034
-326.143	284.607	0.148	0.265
-325.129	-66.240	0.323	0.128
-324.114	305.821	0.036	-0.066
-323.099	-144.673	-0.306	0.028
-322.085	-69.416	0.316	0.121
-321.070	256.280	-0.088	-0.151
-320.056	24.601	0.050	0.041
-319.041	-152.003	-0.202	0.015
-318.026	233.676	0.126	0.207
-317.012	-16.013	0.079	-0.050
-315.997	-89.349	0.252	-0.074
-314.983	800.000	0.072	0.226
-313.968	-86.969	0.085	-0.026
-312.953	800.000	0.057	0.200
-311.939	-3.712	-0.123	0.085
-310.924	-100.001	0.198	-0.049
-309.910	-195.332	-0.367	-0.003
-308.895	-193.705	0.249	-0.002
-307.880	108.311	-0.295	-0.350
-306.866	45.556	-0.223	-0.205
-305.851	800.000	-0.121	0.363
-304.837	-101.064	-0.132	-0.032
-303.822	54.139	0.226	-0.216
-302.807	-200.000	0.022	0.288
-301.793	-59.536	0.066	-0.028
-300.778	-39.690	0.119	0.062
-299.764	143.021	-0.058	0.077
-298.749	-193.357	-0.276	-0.002
-297.735	-200.000	-0.061	0.303
-296.720	383.611	-0.181	0.370
-295.705	-200.000	-0.018	-0.159
-294.691	-200.000	-0.030	-0.173
-293.676	134.044	0.099	0.128
-292.662	-26.198	-0.135	-0.079
-291.647	-0.802	0.409	-0.288
-290.632	-112.804	0.307	-0.060
-289.618	-66.833	0.343	-0.135
-288.603	63.898	0.227	0.226
-287.589	-200.000	0.075	0.348
-286.574	-76.307	-0.025	-0.009
-285.559	800.000	-0.074	-0.219
-284.545	-133.946	-0.249	-0.031
-283.530	-200.000	-0.028	-0.221
-282.516	-200.000	0.024	0.365
-281.501	-36.234	0.113	0.061
-280.486	465.283	-0.179	-0.399
-279.472	-200.000	-0.001	-0.118
-278.457	240.294	-0.072	0.119
-277.443	201.369	-0.088	-0.134
-276.428	-41.297	0.348	-0.178
-275.413	-163.047	-0.354	-0.017
-274.399	-125.057	0.182	-0.028
-273.384	-125.144	-0.141	0.021
-272.370	-200.000	0.017	0.120
-271.355	-200.000	-0.033	-0.263
-270.340	-68.464	0.074	-0.029
-269.326	-200.000	0.057	0.300
-268.311	321.620	0.130	-0.246
-267.297	149.162	0.137	-0.184
-266.282	-105.351	0.172	-0.039
-265.267	-105.816	-0.336	0.075
-264.253	148.852	0.121	-0.162
-263.238	-42.234	-0.374	0.190
-262.224	40.417	-0.225	-0.201
-261.209	14.416	0.200	-0.155
-260.195	-120.899	-0.294	-0.049
-259.180	-8.716	0.249	-0.166
-258.165	800.000	0.025	0.093
-257.151	-200.000	-0.022	-0.110
-256.136	-200.000	0.031	0.282
-255.122	40.100	-0.140	0.125
-254.107	85.174	0.108	-0.118
-253.092	495.473	-0.085	-0.194
-252.078	76.449	-0.196	0.206
-251.063	94.191	-0.154	0.173
-250.049	113.579	0.051	0.061
-249.034	133.688	-0.156	-0.200
-248.019	443.717	0.093	0.201
-247.005	-132.403	-0.102	0.013
-245.990	521.210	0.138	-0.321
-244.976	-76.445	0.258	0.090
-243.961	-200.000	-0.015	-0.081
-242.946	-139.912	0.141	0.015
-241.932	-183.564	0.460	0.008
-240.917	227.960	-0.106	-0.171
-239.903	-200.000	-0.022	0.226
-238.888	-200.000	-0.021	0.331
-237.873	800.000	-0.090	0.372
-236.859	37.877	-0.083	0.073
-235.844	101.447	-0.264	-0.305
-234.830	-200.000	0.013	0.161
-233.815	-200.000	0.065	-0.312
-232.800	-124.647	0.248	-0.038
-231.786	-200.000	0.003	-0.449
-230.771	-50.372	0.189	-0.089
-229.757	16.118	0.114	-0.089
-228.742	-43.377	0.141	-0.070
-227.727	800.000	-0.091	-0.361
-226.713	74.326	-0.055	0.057
-225.698	-158.564	-0.323	-0.018
-224.684	52.399	-0.185	0.175
-223.669	-200.000	-0.031	-0.191
-222.655	175.999	0.154	0.221
-221.640	-92.813	0.212	0.059
-220.625	255.769	0.122	-0.207
-219.611	-32.542	0.179	-0.099
-218.596	67.990	0.181	-0.183
-217.582	4.211	-0.120	0.087
-216.567	-82.884	-0.281	-0.090
-215.552	469.426	0.038	0.084
-214.538	800.000	-0.083	-0.258
-213.523	-119.048	0.151	0.026
-212.509	-54.004	-0.353	-0.159
-211.494	50.146	0.259	0.242
-210.479	463.024	-0.028	-0.063
-209.465	-86.731	-0.228	0.069
-208.450	-127.206	0.228	0.033
-207.436	-77.715	0.255	-0.087
-206.421	-78.659	0.289	-0.098
-205.406	25.294	0.066	0.054
-204.392	-124.671	-0.345	0.053
-203.377	800.000	-0.017	-0.070
-202.363	-200.000	-0.011	0.183
-201.348	66.662	-0.061	-0.061
-200.333	187.707	-0.114	-0.168
-199.319	800.000	0.049	-0.181
-198.304	800.000	-0.063	0.204
-197.290	-200.000	0.048	-0.209
-196.275	5.596	-0.351	0.257
-195.260	357.914	-0.161	-0.317
-194.246	-72.182	-0.258	0.095
-193.231	-200.000	-0.051	0.236
-192.217	-200.000	-0.008	-0.073
-191.202	48.043	0.081	-0.075
-190.187	800.000	-0.082	0.249
-189.173	69.324	-0.225	0.229
-188.158	-178.983	0.102	-0.002
-187.144	125.365	0.084	0.105
-186.129	-65.771	0.262	-0.104
-185.114	103.796	0.087	-0.101
-184.100	-100.910	-0.052	0.013
-183.085	-180.527	-0.224	0.005
-182.071	92.591	0.216	0.241
-181.056	307.785	0.173	0.320
-180.042	-200.000	0.048	0.306
-179.027	-54.396	0.166	0.075
-178.012	39.634	-0.153	0.136
-176.998	314.496	-0.080	-0.150
-175.983	-25.015	0.162	0.095
-174.969	33.697	0.183	-0.158
-173.954	154.523	-0.138	0.188
-172.939	-183.616	0.307	-0.005
-171.925	-26.325	0.301	0.175
-170.910	394.626	0.095	0.196
-169.896	-125.775	0.058	0.009
-168.881	84.134	-0.144	-0.156
-167.866	-145.988	-0.186	0.016
-166.852	-200.000	-0.008	-0.228
-165.837	141.671	0.115	-0.151
-164.823	301.164	0.104	0.190
-163.808	-80.647	-0.429	-0.141
-162.793	381.277	-0.095	-0.193
-161.779	17.530	-0.075	0.059
-160.764	182.937	-0.097	-0.142
-159.750	-174.710	-0.242	0.007
-158.735	-200.000	0.049	-0.269
-157.720	800.000	0.039	-0.125
-156.706	773.431	0.070	0.188
-155.691	25.010	-0.377	-0.309
-154.677	-42.427	0.117	-0.059
-153.662	-123.009	0.162	-0.026
-152.647	58.381	0.233	0.225
-151.633	390.275	0.012	-0.025
-150.618	-68.290	-0.251	-0.096
-149.604	-95.923	-0.058	-0.015
-148.589	130.481	0.124	-0.157
-147.574	168.678	0.055	0.077
-146.560	134.365	-0.057	0.073
-145.545	800.000	-0.075	-0.214
-144.531	-200.000	0.022	0.268
-143.516	-85.945	0.473	0.144
-142.502	413.832	-0.045	-0.094
-141.487	800.000	0.004	-0.013
-140.472	-33.140	0.055	-0.030
-139.458	11.819	-0.410	0.311
-138.443	34.220	0.184	0.159
-137.429	-72.705	-0.140	0.051
-136.414	2.844	0.309	0.221
-135.399	800.000	0.145	0.411
-134.385	-69.919	0.430	-0.162
-133.370	-65.344	0.065	0.026
-132.356	22.663	-0.102	-0.083
-131.341	-16.382	0.325	-0.204
-130.326	-126.154	-0.225	-0.033
-129.312	77.930	-0.128	0.135
-128.297	480.545	-0.103	0.231
-127.283	53.400	0.037	-0.035
-126.268	800.000	-0.072	-0.225
-125.253	52.190	-0.119	-0.112
-124.239	438.605	0.031	0.067
-123.224	-8.921	0.233	0.154
-122.210	104.872	0.176	0.205
-121.195	800.000	0.040	-0.128
-120.180	40.678	0.223	-0.199
-119.166	-200.000	0.059	0.273
-118.151	283.269	0.080	0.141
-117.137	143.606	0.078	0.102
-116.122	-93.064	0.344	0.094
-115.107	34.435	-0.213	0.184
-114.093	241.201	0.041	0.067
-113.078	434.040	0.116	-0.249
-112.064	64.721	0.128	0.128
-111.049	451.931	0.097	0.212
-110.034	72.321	0.308	0.316
-109.020	-200.000	-0.014	0.216
-108.005	354.374	0.052	0.102
-106.991	53.420	-0.073	0.069
-105.976	-200.000	-0.019	0.090
-104.962	-200.000	0.038	0.203
-103.947	200.102	-0.182	-0.275
-102.932	45.566	-0.365	-0.333
-101.918	-137.181	0.097	-0.011
-100.903	800.000	0.054	-0.166
-99.889	800.000	0.083	-0.248
-98.874	-137.562	0.223	0.025
-97.859	158.509	-0.116	0.159
-96.845	-40.720	-0.280	-0.143
-95.830	302.934	0.172	0.314
-94.816	-100.395	0.217	0.053
-93.801	-87.038	0.229	-0.069
-92.786	-200.000	-0.012	-0.118
-91.772	647.359	0.128	-0.322
-90.757	-85.711	-0.039	0.012
-89.743	-200.000	-0.032	0.170
-88.728	272.151	0.135	-0.234
-87.713	-200.000	0.048	-0.311
-86.699	369.780	0.177	0.353
-85.684	622.486	-0.010	-0.025
-84.670	-83.913	0.302	0.095
-83.655	99.687	0.191	-0.218
-82.640	-107.110	0.099	-0.021
-81.626	21.716	-0.274	-0.220
-80.611	66.567	0.120	-0.120
-79.597	382.101	-0.107	-0.216
-78.582	-131.954	-0.164	-0.021
-77.567	129.777	0.038	0.048
-76.553	149.730	0.135	0.180
-75.538	-26.344	0.249	0.144
-74.524	-146.428	-0.207	0.018
-73.509	704.324	0.041	-0.106
-72.494	197.549	-0.197	0.297
-71.480	-200.000	0.042	0.440
-70.465	-36.974	0.143	-0.076
-69.451	-130.749	-0.206	0.027
-68.436	-50.385	0.056	0.026
-67.422	-39.631	0.088	-0.046
-66.407	-200.000	0.036	0.184
-65.392	-200.000	-0.053	-0.245
-64.378	-87.074	0.290	-0.087
-63.363	-130.697	0.092	0.012
-62.349	800.000	-0.018	0.068
-61.334	71.763	-0.628	-0.643
-60.319	91.928	0.401	0.444
-59.305	-200.000	-0.174	-0.889
-58.290	295.890	0.536	0.968
-57.276	609.701	0.590	1.452
-56.261	-200.000	95.832	572.778
-55.246	636.413	1388.799	3471.875
-54.232	193.318	2579.826	3840.933
-53.217	112.941	2282.444	2723.020
-52.203	43.110	1905.528	1711.599
-51.188	37.030	1697.327	1478.356
-50.173	34.256	1653.469	1419.455
-49.159	51.819	1699.366	1591.784
-48.144	53.415	1715.848	1619.200
-47.130	36.579	1675.812	1455.987
-46.115	33.861	1661.381	1423.064
-45.100	33.711	1656.537	1417.742
-44.086	33.555	1654.421	1414.705
-43.071	33.628	1651.233	1412.471
-42.057	33.598	1649.108	1410.376
-41.042	33.614	1647.063	1408.689
-40.027	33.738	1644.496	1407.353
-39.013	33.584	1643.033	1404.907
-37.998	33.601	1641.869	1403.979
-36.984	33.656	1640.328	1403.016
-35.969	33.668	1639.084	1401.984
-34.954	33.782	1636.669	1400.707
-33.940	33.805	1635.097	1399.474
-32.925	33.705	1633.788	1397.561
-31.911	33.647	1632.318	1395.816
-30.896	33.729	1630.178	1394.534
-29.881	33.696	1628.514	1392.818
-28.867	33.741	1626.589	1391.446
-27.852	33.793	1625.018	1390.428
-26.838	33.772	1623.749	1389.129
-25.823	33.760	1622.350	1387.793
-24.809	33.761	1621.154	1386.723
-23.794	33.730	1619.537	1385.054
-22.779	33.839	1617.591	1384.132
-21.765	33.695	1616.275	1381.899
-20.750	33.734	1614.704	1380.790
-19.736	33.843	1613.083	1380.136
-18.721	33.772	1611.857	1378.519
-17.706	33.868	1610.845	1378.296
-16.692	33.798	1608.834	1376.017
-15.677	33.841	1606.989	1374.690
-14.663	33.785	1606.540	1373.850
-13.648	33.867	1604.268	1372.446
-12.633	33.788	1603.248	1370.942
-11.619	33.846	1601.201	1369.562
-10.604	33.790	1599.884	1367.971
-9.590	33.817	1598.895	1367.267
-8.575	33.779	1597.904	1366.092
-7.560	33.744	1596.734	1364.791
-6.546	33.747	1595.405	1363.621
-5.531	33.774	1594.123	1362.665
-4.517	33.796	1592.825	1361.657
-3.502	33.779	1591.757	1360.568
-2.487	33.809	1590.753	1359.872
-1.473	33.207	1578.300	1344.894
-0.458	29.647	1556.031	1300.858
0.556	26.915	1554.639	1258.369
1.571	23.987	1576.557	1255.369
2.586	22.970	1588.703	1257.691
3.600	19.865	1535.484	1194.062
4.615	12.048	1426.612	1058.989
5.629	5.416	1364.151	971.447
6.644	4.327	1355.742	958.646
7.659	4.247	1355.172	957.666
8.673	4.343	1353.894	957.268
9.688	4.444	1352.480	956.807
10.702	4.399	1349.733	954.505
11.717	7.052	1355.157	974.611
12.731	14.843	1368.932	1032.746
13.746	21.143	1378.768	1079.153
14.761	22.042	1378.986	1084.782
15.775	21.197	1377.075	1077.972
16.790	20.197	1374.521	1069.712
17.804	19.250	1372.675	1062.345
18.819	19.025	1370.756	1059.379
19.834	18.876	1370.085	1057.847
20.848	18.703	1368.652	1055.586
21.863	18.547	1367.553	1053.688
22.877	18.430	1366.191	1051.822
23.892	18.323	1365.793	1050.769
24.907	18.409	1364.653	1050.327
25.921	18.329	1363.816	1049.100
26.936	18.308	1363.092	1048.320
27.950	18.418	1362.084	1048.128
28.965	18.561	1361.050	1048.111
29.980	18.680	1360.143	1048.049
30.994	18.696	1358.755	1046.984
32.009	18.691	1358.047	1046.314
33.023	18.681	1356.707	1045.128
34.038	18.640	1354.994	1043.465
35.053	18.532	1353.967	1041.924
36.067	18.499	1352.453	1040.469
37.082	18.548	1352.029	1040.348
38.096	18.593	1350.817	1039.593
39.111	18.618	1350.231	1039.204
40.126	18.478	1349.567	1037.755
41.140	18.284	1348.118	1035.376
42.155	18.217	1347.642	1034.510
43.169	18.045	1347.550	1033.307
44.184	18.148	1347.114	1033.503
45.199	18.189	1346.940	1033.528
46.213	18.238	1346.323	1033.258
47.228	18.494	1345.202	1033.850
48.242	18.353	1344.662	1032.499
49.257	18.483	1343.046	1031.945
50.271	18.513	1341.539	1030.876
51.286	18.507	1339.666	1029.311
52.301	18.489	1338.713	1028.383
53.315	18.361	1337.860	1026.868
54.330	18.218	1336.984	1025.245
55.344	18.198	1335.607	1023.981
56.359	18.225	1334.719	1023.368
57.374	18.241	1333.726	1022.615
58.388	18.096	1332.939	1021.055
59.403	18.022	1332.456	1020.150
60.417	18.075	1331.324	1019.511
61.432	17.996	1330.863	1018.598
62.447	17.875	1330.559	1017.554
63.461	17.720	1328.824	1015.210
64.476	17.857	1327.471	1014.902
65.490	17.927	1326.405	1014.413
66.505	18.069	1324.712	1013.875
67.520	17.917	1324.242	1012.525
68.534	17.968	1322.650	1011.520
69.549	17.942	1321.893	1010.694
70.563	17.914	1320.671	1009.508
71.578	17.834	1318.945	1007.625
72.593	17.749	1318.214	1006.477
73.607	17.774	1317.805	1006.220
74.622	17.888	1316.738	1005.992
75.636	17.861	1316.459	1005.527
76.651	17.821	1316.182	1004.992
77.666	17.843	1315.397	1004.433
78.680	17.903	1314.776	1004.227
79.695	18.047	1314.215	1004.553
80.709	18.127	1313.229	1004.178
81.724	18.270	1312.371	1004.276
82.739	18.244	1311.848	1003.633
83.753	18.381	1311.220	1003.866
84.768	18.499	1310.187	1003.677
85.782	18.616	1308.807	1003.214
86.797	18.514	1307.953	1001.877
87.812	18.352	1307.012	1000.120
88.826	18.406	1305.728	999.367
89.841	18.494	1304.224	998.641
90.855	18.550	1303.551	998.359
91.870	18.640	1302.783	998.208
92.884	18.630	1301.690	997.223
93.899	18.612	1301.243	996.687
94.914	18.627	1300.605	996.200
95.928	18.719	1299.525	995.815
96.943	18.689	1298.772	994.978
97.957	18.626	1297.411	993.486
98.972	18.581	1296.582	992.501
99.987	18.550	1295.775	991.613
101.001	18.625	1294.439	990.941
102.016	18.571	1293.978	990.183
103.030	18.553	1293.277	989.455
104.045	18.581	1291.990	988.546
105.060	18.479	1290.631	986.833
106.074	18.237	1288.758	983.919
107.089	18.058	1287.390	981.761
108.103	17.886	1286.724	980.181
109.118	17.969	1285.030	979.281
110.133	17.912	1283.913	978.016
111.147	18.015	1282.396	977.362
112.162	17.957	1281.668	976.390
113.176	18.137	1279.950	976.018
114.191	18.176	1279.299	975.661
115.206	18.133	1277.936	974.291
116.220	18.127	1276.716	973.239
117.235	18.102	1275.681	972.222
118.249	18.059	1274.903	971.300
119.264	18.013	1273.396	969.805
120.279	18.061	1272.172	969.060
121.293	17.969	1271.235	967.735
122.308	17.774	1270.518	966.001
123.322	17.834	1269.224	965.272
124.337	17.785	1268.022	963.992
125.352	17.892	1266.635	963.457
126.366	17.728	1265.995	961.964
127.381	17.817	1265.013	961.631
128.395	17.842	1263.478	960.519
129.410	17.968	1262.790	960.620
130.424	18.023	1261.909	960.177
131.439	18.098	1261.146	959.931
132.454	18.056	1260.768	959.320
133.468	18.092	1259.900	958.782
134.483	18.073	1259.008	957.910
135.497	18.214	1257.958	957.817
136.512	18.218	1256.736	956.822
137.527	18.259	1255.295	955.872
138.541	18.103	1254.333	954.182
139.556	18.129	1252.888	953.144
140.570	18.375	1252.026	953.774
141.585	18.461	1250.405	952.930
142.600	18.440	1249.733	952.221
143.614	18.647	1248.672	952.475
144.629	18.619	1248.209	951.884
145.643	18.594	1246.657	950.476
146.658	18.347	1245.339	948.023
147.673	18.336	1244.007	946.864
148.687	18.142	1242.836	944.813
149.702	18.244	1241.236	944.080
150.716	18.215	1240.110	942.976
151.731	18.235	1238.844	942.044
152.746	18.155	1238.147	940.987
153.760	18.164	1236.989	940.075
154.775	18.462	1235.325	940.362
155.789	18.376	1234.866	939.457
156.804	18.420	1233.910	938.887
157.819	18.476	1233.294	938.643
158.833	18.581	1232.466	938.505
159.848	18.611	1231.491	937.843
160.862	18.615	1230.434	936.978
161.877	18.409	1228.878	934.586
162.892	18.315	1227.205	932.719
163.906	18.204	1226.973	931.856
164.921	18.219	1226.032	931.138
165.935	18.377	1225.325	931.380
166.950	18.351	1225.041	930.938
167.964	18.353	1224.052	930.116
168.979	18.251	1223.155	928.798
169.994	18.336	1222.855	928.951
171.008	18.285	1222.089	928.008
172.023	18.485	1220.939	928.139
173.037	18.520	1220.726	928.086
174.052	18.557	1219.274	927.095
175.067	18.402	1217.764	925.033
176.081	18.307	1217.284	924.069
177.096	18.247	1216.284	922.904
178.110	18.281	1215.299	922.261
179.125	18.245	1214.225	921.173
180.140	18.470	1212.450	920.951
181.154	18.458	1211.623	920.178
182.169	18.555	1210.914	920.076
183.183	18.617	1209.754	919.450
184.198	18.656	1208.009	918.247
185.213	18.654	1207.049	917.426
186.227	18.639	1206.385	916.764
187.242	18.681	1205.692	916.376
188.256	18.822	1204.522	916.161
189.271	18.807	1203.491	915.217
190.286	18.614	1202.417	913.290
191.300	18.347	1201.032	910.739
192.315	18.175	1200.414	909.272
193.329	18.180	1200.329	909.157
194.344	18.279	1199.530	908.997
195.359	18.437	1199.023	909.369
196.373	18.532	1198.451	909.361
197.388	18.682	1197.445	909.307
198.402	18.930	1197.660	910.706
199.417	18.871	1197.108	909.894
200.432	19.035	1196.277	910.050
201.446	19.165	1195.681	910.202
202.461	19.206	1194.537	909.466
203.475	19.080	1194.202	908.466
204.490	18.937	1192.175	906.089
205.504	18.726	1191.389	904.302
206.519	18.794	1189.926	903.470
207.534	18.655	1188.847	901.840
208.548	18.818	1187.719	901.761
209.563	18.782	1187.127	901.044
210.577	18.742	1186.457	900.243
211.592	18.922	1185.502	900.382
212.607	19.004	1184.828	900.220
213.621	19.062	1183.601	899.513
214.636	19.042	1183.099	898.948
215.650	18.931	1182.595	897.904
216.665	19.150	1181.053	897.794
217.680	19.234	1180.373	897.636
218.694	19.230	1179.800	897.102
219.709	19.199	1178.836	896.129
220.723	19.210	1177.808	895.322
221.738	19.025	1177.421	893.988
222.753	19.081	1176.518	893.514
223.767	19.066	1175.612	892.672
224.782	19.346	1175.211	893.738
225.796	19.359	1174.789	893.408
226.811	19.358	1173.917	892.655
227.826	19.206	1173.087	891.162
228.840	19.141	1172.393	890.218
229.855	19.068	1172.092	889.533
230.869	19.135	1170.718	888.758
231.884	18.999	1169.933	887.383
232.899	19.038	1169.010	886.805
233.913	19.065	1168.357	886.373
234.928	19.013	1167.579	885.436
235.942	18.883	1166.829	884.119
236.957	18.973	1166.354	884.145
237.972	18.882	1165.410	882.884
238.986	18.879	1164.880	882.387
240.001	18.996	1163.938	882.195
241.015	19.033	1163.066	881.645
242.030	19.109	1162.679	881.665
243.045	19.131	1161.936	881.133
244.059	19.198	1160.717	880.475
245.074	19.214	1160.434	880.266
246.088	19.335	1159.373	880.001
247.103	19.388	1158.730	879.705
248.117	19.463	1158.082	879.517
249.132	19.666	1157.332	879.902
250.147	19.727	1157.184	880.024
251.161	19.798	1156.677	879.922
252.176	19.908	1155.646	879.620
253.190	19.934	1155.098	879.254
254.205	19.930	1154.970	879.060
255.220	19.990	1154.030	878.571
256.234	19.898	1153.495	877.618
257.249	19.988	1153.055	877.660
258.263	19.961	1152.182	876.783
259.278	20.014	1151.261	876.274
260.293	19.897	1151.137	875.508
261.307	20.088	1150.327	875.782
262.322	20.111	1149.762	875.392
263.336	20.124	1149.068	874.851
264.351	20.103	1148.387	874.146
265.366	20.116	1147.851	873.727
266.380	20.062	1147.259	872.927
267.395	20.059	1145.894	871.796
268.409	20.106	1144.965	871.251
269.424	19.980	1144.342	870.067
270.439	20.018	1143.809	869.774
271.453	19.938	1143.357	868.953
272.468	19.861	1142.458	867.806
273.482	19.745	1141.561	866.464
274.497	19.936	1140.813	866.779
275.512	19.832	1140.475	865.925
276.526	19.910	1139.496	865.494
277.541	19.962	1138.753	865.110
278.555	19.895	1138.273	864.336
279.570	20.151	1137.264	864.770
280.585	20.262	1136.892	864.965
281.599	20.287	1135.468	863.928
282.614	20.110	1134.887	862.531
283.628	19.913	1134.015	860.814
284.643	20.008	1132.893	860.358
285.657	20.104	1131.853	859.965
286.672	19.983	1131.381	858.931
287.687	20.129	1130.405	858.840
288.701	20.070	1129.684	857.924
289.716	20.104	1128.546	857.151
290.730	20.160	1128.014	856.947
291.745	20.264	1127.389	856.908
292.760	20.158	1127.250	856.206
293.774	20.330	1126.010	856.037
294.789	20.225	1125.981	855.421
295.803	20.330	1125.348	855.381
296.818	20.167	1124.472	853.839
297.833	20.122	1123.829	853.050
298.847	20.065	1123.297	852.290
299.862	20.190	1122.034	851.875
300.876	20.029	1121.844	850.863
301.891	20.199	1120.763	850.800
302.906	20.398	1120.134	851.223
303.920	20.523	1119.659	851.400
304.935	20.603	1119.045	851.249
305.949	20.719	1118.317	851.190
306.964	20.694	1117.554	850.407
307.979	20.594	1116.577	849.100
308.993	20.439	1116.399	848.135
310.008	20.490	1115.694	847.772
311.022	20.640	1114.851	847.788
312.037	20.584	1114.061	846.843
313.052	20.469	1112.969	845.373
314.066	20.345	1112.073	844.017
315.081	20.276	1110.483	842.403
316.095	20.203	1109.922	841.545
317.110	20.296	1109.262	841.424
318.125	20.304	1108.575	840.868
319.139	20.251	1108.230	840.276
320.154	20.228	1107.567	839.585
321.168	20.280	1106.653	839.069
322.183	20.464	1105.881	839.301
323.197	20.394	1105.410	838.529
324.212	20.452	1104.983	838.412
325.227	20.421	1104.656	837.940
326.241	20.484	1103.791	837.510
327.256	20.485	1103.143	836.953
328.270	20.415	1102.497	836.050
329.285	20.324	1101.170	834.533
330.300	20.372	1100.276	834.009
331.314	20.342	1099.296	833.051
332.329	20.259	1098.650	832.090
333.343	20.497	1097.055	831.947
334.358	20.403	1096.801	831.233
335.373	20.572	1096.212	831.521
336.387	20.651	1095.459	831.251
337.402	20.673	1094.726	830.726
338.416	20.679	1094.470	830.489
339.431	20.742	1093.413	829.914
340.446	20.908	1092.970	830.294
341.460	21.077	1092.531	830.695
342.475	21.040	1091.650	829.775
343.489	21.135	1090.759	829.473
344.504	21.166	1089.678	828.725
345.519	21.053	1089.110	827.683
346.533	21.195	1088.149	827.555
347.548	21.166	1087.969	827.206
348.562	21.064	1086.607	825.614
349.577	21.043	1085.982	824.969
350.592	20.945	1084.640	823.411
351.606	20.683	1084.216	821.780
352.621	20.755	1083.324	821.370
353.635	20.680	1082.665	820.447
354.650	20.816	1082.037	820.538
355.665	20.833	1081.255	819.951
356.679	20.924	1080.585	819.802
357.694	20.927	1080.402	819.602
358.708	21.037	1079.487	819.352
359.723	21.051	1079.242	819.160
360.738	21.056	1078.818	818.790
361.752	20.995	1078.136	817.913
362.767	20.945	1077.772	817.331
363.781	20.929	1076.868	816.496
364.796	21.162	1076.664	817.360
365.810	21.303	1075.939	817.398
366.825	21.501	1074.992	817.534
367.840	21.461	1074.780	817.112
368.854	21.574	1074.335	817.228
369.869	21.470	1073.661	816.158
370.883	21.458	1072.613	815.233
371.898	21.309	1071.957	813.970
372.913	21.355	1071.010	813.392
373.927	21.529	1070.728	813.915
374.942	21.463	1070.504	813.364
375.956	21.528	1069.892	813.133
376.971	21.548	1069.375	812.757
377.986	21.437	1068.932	811.833
379.000	21.596	1068.376	812.081
380.015	21.712	1067.717	812.043
381.029	21.696	1067.286	811.569
382.044	21.715	1066.306	810.838
383.059	21.727	1065.364	810.110
384.073	21.648	1064.598	809.087
385.088	21.658	1064.101	808.685
386.102	21.756	1062.980	808.213
387.117	21.566	1062.004	806.525
388.132	21.510	1060.857	805.325
389.146	21.414	1060.156	804.282
390.161	21.436	1059.421	803.752
391.175	21.499	1058.170	803.022
392.190	21.519	1058.084	802.977
393.205	21.684	1057.286	803.056
394.219	21.628	1056.337	802.009
395.234	21.596	1055.355	801.046
396.248	21.571	1054.102	799.908
397.263	21.479	1053.490	798.951
398.278	21.458	1052.596	798.107
399.292	21.357	1051.976	797.109
400.307	21.263	1051.669	796.376
401.321	21.287	1050.761	795.729
402.336	21.320	1049.965	795.205
403.350	21.366	1049.346	794.874
404.365	21.393	1048.610	794.371
405.380	21.463	1048.156	794.272
406.394	21.518	1047.420	793.896
407.409	21.667	1046.552	793.842
408.423	21.812	1045.624	793.724
409.438	21.923	1045.281	793.897
410.453	21.820	1044.788	792.984
411.467	22.023	1044.198	793.384
412.482	21.969	1043.992	792.915
413.496	22.046	1043.251	792.628
414.511	22.076	1042.621	792.214
415.526	22.312	1042.064	792.783
416.540	22.370	1041.376	792.453
417.555	22.280	1041.005	791.697
418.569	22.097	1040.580	790.479
419.584	22.115	1039.723	789.837
420.599	22.185	1039.005	789.538
421.613	155.141	1401.328	1793.826
422.628	141.943	1454.120	1793.918
