DTS Sentinel unit serial number:	SN413079Multiplexer serial number:	ORYXHardware model number:	OX4-SRSoftware version number:	ORYX F/W v4.00 Oryx Data Collector v3.7.2.0data status	okinstallation	princeton_trtdifferential loss correction	single-endedforward channel	channel 2reverse channel	N/Adate	2019/09/18time	23:35:35forward acquisition time	60.00reverse acquisition time	0.00gamma	496.2192k internal	0.2351k external	0.2351temperature offset calibration	1.0017default loss term (dB/km)	0.3790temperature slope calibration	1.0000multiplexer offset coefficient	1.0000multiplexer slope coefficient	1.0000fibre end	0.00T internal ref (°C)	23.59T ext. ref 1 (°C)	0.77T ext. ref 2 (°C)	16.48length (m)	temperature (°C)	Stokes	anti-Stokes-747.200	-118.941	0.299	0.052
-746.185	-87.552	-0.429	0.129
-745.171	121.645	0.009	-0.011
-744.156	800.000	0.073	0.278
-743.142	257.522	-0.109	-0.186
-742.127	89.796	0.171	-0.191
-741.112	185.823	-0.171	0.254
-740.098	-55.298	-0.208	0.093
-739.083	-69.005	0.152	0.059
-738.069	156.459	-0.110	-0.152
-737.054	-200.000	0.061	-0.322
-736.039	30.896	0.181	-0.155
-735.025	31.195	0.338	0.289
-734.010	-87.328	-0.163	-0.049
-732.996	-19.565	0.481	-0.297
-731.981	83.939	-0.134	-0.146
-730.966	57.568	-0.220	0.215
-729.952	-93.742	0.193	0.053
-728.937	141.963	-0.115	-0.152
-727.923	184.436	-0.145	0.215
-726.908	-92.705	0.259	-0.072
-725.894	800.000	0.065	-0.195
-724.879	-200.000	0.001	-0.046
-723.864	66.500	-0.202	-0.204
-722.850	147.372	-0.149	-0.200
-721.835	-131.393	-0.369	-0.049
-720.821	-200.000	0.023	-0.109
-719.806	800.000	-0.058	0.190
-718.791	-88.532	0.077	0.023
-717.777	-184.321	-0.163	-0.003
-716.762	630.595	0.018	-0.046
-715.748	71.177	0.264	-0.273
-714.733	-200.000	-0.034	-0.286
-713.718	800.000	0.035	-0.111
-712.704	-139.456	-0.116	-0.012
-711.689	71.834	-0.051	-0.052
-710.675	25.857	-0.023	0.019
-709.660	-138.937	0.229	0.025
-708.645	-24.533	-0.327	0.194
-707.631	-200.000	-0.016	-0.226
-706.616	514.896	-0.129	-0.299
-705.602	800.000	0.113	-0.391
-704.587	-39.751	-0.421	-0.219
-703.572	-110.542	-0.168	-0.035
-702.558	113.560	-0.222	-0.269
-701.543	-106.763	0.333	0.074
-700.529	138.371	0.183	0.239
-699.514	-87.011	0.301	-0.091
-698.499	5.312	0.214	0.157
-697.485	-28.223	0.161	-0.093
-696.470	72.663	0.132	-0.137
-695.456	471.425	0.052	0.116
-694.441	800.000	-0.090	-0.356
-693.426	263.976	0.075	0.130
-692.412	-100.415	0.203	0.050
-691.397	-137.808	-0.339	-0.038
-690.383	41.782	-0.111	-0.100
-689.368	-42.728	0.184	0.093
-688.354	-96.922	0.262	-0.068
-687.339	84.632	0.216	0.235
-686.324	131.474	-0.125	0.160
-685.310	-163.484	-0.154	0.007
-684.295	-50.224	-0.093	0.044
-683.281	-54.870	0.210	-0.094
-682.266	-40.727	-0.033	-0.017
-681.251	117.239	0.182	0.222
-680.237	68.279	-0.199	0.203
-679.222	-200.000	-0.005	-0.021
-678.208	-7.520	0.139	0.094
-677.193	800.000	-0.036	-0.152
-676.178	800.000	0.114	-0.352
-675.164	-75.559	0.088	-0.031
-674.149	-31.379	0.152	0.085
-673.135	-200.000	0.037	-0.276
-672.120	155.293	0.087	0.120
-671.105	-89.936	0.184	0.053
-670.091	94.412	0.195	0.220
-669.076	-56.637	-0.112	0.049
-668.062	19.618	-0.181	-0.145
-667.047	-200.000	0.039	-0.189
-666.032	-12.169	0.066	-0.043
-665.018	37.279	-0.208	0.183
-664.003	-200.000	0.027	-0.204
-662.989	-200.000	0.034	-0.166
-661.974	-84.637	0.164	-0.051
-660.959	-160.918	0.065	-0.003
-659.945	-146.662	-0.242	0.021
-658.930	-12.977	0.117	0.076
-657.916	304.730	-0.114	-0.210
-656.901	127.328	0.276	-0.348
-655.886	-200.000	0.041	0.291
-654.872	-85.506	-0.184	0.057
-653.857	245.670	-0.096	0.160
-652.843	267.130	-0.042	-0.072
-651.828	800.000	-0.045	-0.160
-650.814	-60.413	0.400	-0.169
-649.799	-149.837	-0.182	-0.014
-648.784	-200.000	0.006	0.043
-647.770	-14.025	-0.161	0.103
-646.755	-62.024	0.212	0.088
-645.741	-76.361	0.171	-0.060
-644.726	4.913	-0.217	0.158
-643.711	800.000	-0.061	-0.225
-642.697	-22.083	-0.158	-0.095
-641.682	-78.475	-0.035	0.012
-640.668	-2.135	0.053	-0.037
-639.653	-200.000	-0.080	0.382
-638.638	-200.000	0.193	0.000
-637.624	133.305	0.053	-0.068
-636.609	386.566	-0.076	-0.156
-635.595	20.320	-0.046	-0.037
-634.580	-48.321	-0.206	0.099
-633.565	-200.000	-0.023	0.273
-632.551	37.943	-0.390	0.345
-631.536	-86.697	-0.020	0.006
-630.522	-84.972	-0.690	0.215
-629.507	126.837	0.117	-0.148
-628.492	-86.663	0.141	0.043
-627.478	-42.007	-0.295	-0.150
-626.463	800.000	-0.061	-0.225
-625.449	38.709	0.221	0.196
-624.434	144.497	-0.135	0.179
-623.419	10.335	-0.228	-0.172
-622.405	-143.127	0.142	-0.014
-621.390	182.826	0.186	-0.273
-620.376	54.713	0.103	0.099
-619.361	119.139	-0.324	0.397
-618.346	21.608	0.149	0.120
-617.332	-107.137	-0.302	0.066
-616.317	5.960	-0.169	0.124
-615.303	-45.404	-0.154	-0.076
-614.288	-57.757	0.175	0.076
-613.273	-200.000	0.012	-0.180
-612.259	223.748	0.060	0.097
-611.244	-200.000	0.034	-0.216
-610.230	-102.157	0.171	-0.041
-609.215	-78.655	0.039	0.013
-608.201	-200.000	0.007	-0.140
-607.186	60.375	-0.107	0.105
-606.171	-34.718	0.200	-0.108
-605.157	95.400	-0.093	0.105
-604.142	-200.000	0.045	-0.344
-603.128	98.990	-0.173	0.198
-602.113	-111.506	-0.275	-0.055
-601.098	-58.720	0.158	0.068
-600.084	-145.262	-0.225	-0.020
-599.069	800.000	-0.067	-0.290
-598.055	35.615	-0.057	0.050
-597.040	800.000	-0.042	0.163
-596.025	-200.000	0.019	0.153
-595.011	406.483	0.086	0.181
-593.996	162.758	-0.167	-0.233
-592.982	91.553	-0.072	-0.080
-591.967	-119.195	0.034	0.006
-590.952	41.311	0.114	-0.102
-589.938	20.410	-0.187	0.150
-588.923	-200.000	0.009	0.227
-587.909	-200.000	0.023	0.282
-586.894	-102.397	0.205	-0.049
-585.879	68.091	-0.094	0.095
-584.865	746.852	-0.090	-0.241
-583.850	-200.000	-0.022	0.343
-582.836	-200.000	0.035	0.233
-581.821	-166.134	-0.137	-0.006
-580.806	32.772	-0.074	-0.063
-579.792	71.917	-0.182	-0.188
-578.777	-200.000	-0.013	0.062
-577.763	92.147	-0.040	-0.044
-576.748	-200.000	-0.022	0.190
-575.733	24.445	-0.281	-0.230
-574.719	-114.969	0.258	0.049
-573.704	441.422	-0.137	-0.297
-572.690	450.146	-0.151	-0.330
-571.675	-114.356	-0.311	0.059
-570.661	580.877	0.043	0.103
-569.646	109.597	-0.100	-0.119
-568.631	-52.305	0.146	-0.067
-567.617	-83.099	0.049	0.016
-566.602	-105.855	-0.353	0.079
-565.588	389.753	0.142	0.292
-564.573	191.980	0.005	0.007
-563.558	107.943	-0.299	0.352
-562.544	-200.000	-0.022	-0.145
-561.529	23.941	0.038	0.031
-560.515	-22.623	0.320	-0.192
-559.500	117.700	-0.257	-0.314
-558.485	800.000	-0.053	-0.219
-557.471	-34.447	-0.084	0.046
-556.456	47.668	0.171	0.158
-555.442	-27.390	0.140	-0.081
-554.427	-59.045	-0.145	-0.062
-553.412	14.438	-0.151	-0.117
-552.398	116.812	-0.076	0.092
-551.383	-78.574	-0.143	0.048
-550.369	-50.021	-0.116	-0.055
-549.354	-96.191	-0.222	-0.058
-548.339	-101.702	0.082	0.020
-547.325	-39.713	0.220	0.114
-546.310	198.084	0.110	-0.166
-545.296	308.447	-0.024	0.044
-544.281	800.000	-0.096	0.322
-543.266	-115.259	0.154	-0.029
-542.252	70.680	-0.033	-0.033
-541.237	-16.738	0.405	-0.253
-540.223	155.824	-0.104	-0.142
-539.208	-77.797	0.174	-0.060
-538.193	379.900	0.079	-0.160
-537.179	137.100	-0.202	-0.261
-536.164	-89.809	-0.348	-0.101
-535.150	482.569	-0.075	0.169
-534.135	800.000	-0.025	0.075
-533.121	-151.699	0.104	0.008
-532.106	436.711	-0.101	0.218
-531.091	-88.580	0.423	-0.125
-530.077	-6.760	0.169	0.114
-529.062	30.296	0.085	-0.072
-528.048	-200.000	-0.009	0.192
-527.033	-141.663	-0.194	-0.019
-526.018	43.959	0.124	-0.112
-525.004	-87.063	0.629	0.190
-523.989	800.000	-0.085	-0.294
-522.975	-151.085	-0.148	0.011
-521.960	-1.772	0.101	-0.070
-520.945	84.507	0.088	0.095
-519.931	0.834	0.096	-0.068
-518.916	65.644	0.150	0.150
-517.902	164.787	-0.044	-0.062
-516.887	-18.758	-0.132	-0.082
-515.872	274.758	-0.127	-0.222
-514.858	172.289	0.080	0.114
-513.843	82.940	0.242	0.260
-512.829	800.000	0.044	-0.162
-511.814	6.275	0.129	-0.094
-510.799	422.944	0.203	-0.431
-509.785	159.705	0.084	0.115
-508.770	-142.217	-0.429	-0.042
-507.756	-200.000	-0.043	-0.435
-506.741	-152.052	0.346	-0.025
-505.726	-177.667	-0.158	-0.004
-504.712	134.833	-0.156	-0.200
-503.697	-100.617	0.140	-0.034
-502.683	90.495	0.221	-0.245
-501.668	-13.597	0.114	0.073
-500.653	300.719	-0.037	-0.068
-499.639	4.402	-0.105	-0.076
-498.624	-200.000	0.022	0.208
-497.610	-171.231	-0.113	0.004
-496.595	77.799	0.162	-0.170
-495.581	-172.018	0.178	0.006
-494.566	-96.115	-0.213	0.056
-493.551	53.442	0.153	0.145
-492.537	-200.000	-0.011	-0.050
-491.522	-147.637	0.338	0.028
-490.508	-68.444	-0.213	-0.082
-489.493	800.000	-0.023	0.072
-488.478	-50.113	-0.179	-0.084
-487.464	193.519	-0.048	-0.072
-486.449	-176.882	0.131	0.003
-485.435	136.908	-0.123	0.158
-484.420	170.591	0.124	-0.175
-483.405	-61.053	-0.031	0.013
-482.391	82.686	-0.253	-0.271
-481.376	104.868	-0.109	0.127
-480.362	-200.000	0.031	0.237
-479.347	800.000	0.072	-0.288
-478.332	-200.000	0.030	-0.443
-477.318	-42.911	-0.278	-0.139
-476.303	-200.000	-0.019	-0.116
-475.289	-121.101	0.046	0.008
-474.274	-109.110	-0.237	-0.050
-473.259	28.660	-0.122	-0.102
-472.245	604.890	-0.147	0.361
-471.230	72.792	0.066	0.068
-470.216	800.000	-0.079	0.250
-469.201	-113.597	-0.355	0.068
-468.186	58.078	0.243	0.235
-467.172	-200.000	-0.003	-0.087
-466.157	-200.000	0.028	-0.480
-465.143	800.000	-0.034	0.103
-464.128	-200.000	-0.048	-0.540
-463.113	-200.000	0.014	-0.131
-462.099	-200.000	-0.003	0.105
-461.084	128.697	0.343	-0.431
-460.070	312.181	0.121	0.224
-459.055	-7.879	-0.306	-0.204
-458.040	-54.167	-0.283	0.127
-457.026	378.034	0.041	0.084
-456.011	800.000	0.018	-0.069
-454.997	184.445	0.107	0.156
-453.982	258.169	0.073	-0.124
-452.968	22.745	0.160	-0.129
-451.953	-174.864	0.171	0.005
-450.938	-17.331	0.134	-0.083
-449.924	800.000	0.049	-0.212
-448.909	33.068	-0.050	0.043
-447.895	267.472	-0.153	-0.264
-446.880	-117.657	-0.104	0.018
-445.865	-70.712	-0.176	0.066
-444.851	376.441	0.115	0.231
-443.836	-82.028	-0.228	-0.073
-442.822	-100.861	0.210	-0.051
-441.807	800.000	0.067	0.186
-440.792	68.307	0.144	-0.146
-439.778	800.000	-0.086	0.254
-438.763	-200.000	0.408	0.001
-437.749	-160.268	-0.095	-0.005
-436.734	-68.547	-0.164	0.063
-435.719	-200.000	0.041	0.186
-434.705	800.000	0.009	0.030
-433.690	-200.000	-0.026	-0.381
-432.676	-83.844	0.082	-0.026
-431.661	-148.888	0.263	0.021
-430.646	322.106	-0.152	-0.285
-429.632	70.405	-0.353	-0.359
-428.617	-10.263	-0.239	-0.157
-427.603	-200.000	-0.009	0.045
-426.588	800.000	-0.100	0.341
-425.573	16.648	-0.101	-0.078
-424.559	-200.000	-0.008	0.214
-423.544	312.793	-0.111	0.205
-422.530	18.865	0.209	0.165
-421.515	-132.508	0.272	-0.034
-420.500	-200.000	-0.010	0.080
-419.486	-174.739	-0.202	0.006
-418.471	-83.438	0.244	0.077
-417.457	48.385	0.136	0.126
-416.442	800.000	-0.108	-0.300
-415.428	-200.000	0.043	0.243
-414.413	-13.318	0.057	-0.037
-413.398	-200.000	0.011	-0.227
-412.384	-83.962	0.183	0.057
-411.369	116.880	0.040	0.048
-410.355	361.600	-0.129	0.254
-409.340	510.177	-0.176	0.404
-408.325	-69.423	-0.143	0.054
-407.311	-0.438	-0.113	-0.079
-406.296	-42.119	0.049	-0.025
-405.282	157.849	-0.263	-0.359
-404.267	-51.266	0.128	-0.059
-403.252	-88.373	0.173	-0.051
-402.238	800.000	-0.102	0.281
-401.223	-122.266	0.065	0.010
-400.209	229.625	0.059	0.095
-399.194	79.831	0.190	-0.201
-398.179	271.438	0.090	-0.157
-397.165	114.210	0.255	-0.305
-396.150	138.730	-0.235	0.303
-395.136	102.466	-0.140	0.161
-394.121	-200.000	-0.004	-0.094
-393.106	-191.624	-0.046	0.000
-392.092	173.651	0.125	0.177
-391.077	-23.675	0.292	0.172
-390.063	163.972	-0.038	0.053
-389.048	366.048	0.133	0.264
-388.033	-112.240	0.078	-0.015
-387.019	-90.697	0.301	0.086
-386.004	32.220	-0.222	0.188
-384.990	11.815	0.153	0.116
-383.975	342.831	0.174	-0.336
-382.960	-38.061	-0.259	0.135
-381.946	208.020	0.154	0.237
-380.931	-18.936	0.210	-0.128
-379.917	-172.152	-0.363	-0.012
-378.902	233.734	-0.158	0.256
-377.888	85.599	-0.066	0.072
-376.873	283.509	-0.213	-0.376
-375.858	-80.357	-0.129	-0.042
-374.844	-200.000	0.020	0.261
-373.829	-200.000	-0.042	-0.257
-372.815	-200.000	0.020	-0.181
-371.800	59.393	0.078	0.075
-370.785	-200.000	-0.051	0.401
-369.771	-171.694	-0.291	0.009
-368.756	800.000	-0.060	0.218
-367.742	548.837	-0.226	-0.532
-366.727	22.291	-0.275	-0.221
-365.712	-89.025	-0.266	-0.078
-364.698	9.062	-0.201	0.149
-363.683	-200.000	-0.029	0.135
-362.669	-72.090	-0.067	-0.025
-361.654	-200.000	-0.008	0.233
-360.639	-200.000	0.007	0.081
-359.625	-200.000	0.053	0.252
-358.610	22.054	-0.223	0.179
-357.596	-88.952	0.053	-0.015
-356.581	79.063	0.081	-0.085
-355.566	-35.451	-0.396	0.211
-354.552	-112.078	0.060	-0.012
-353.537	595.238	-0.099	-0.242
-352.523	137.444	-0.243	0.313
-351.508	800.000	-0.053	-0.183
-350.493	-131.021	0.233	0.031
-349.479	677.628	0.084	-0.214
-348.464	660.126	-0.090	-0.228
-347.450	96.801	0.205	0.231
-346.435	-200.000	-0.130	0.575
-345.420	-24.418	0.220	0.129
-344.406	164.335	-0.153	-0.212
-343.391	350.825	-0.117	-0.227
-342.377	-11.268	0.271	-0.175
-341.362	-17.613	0.211	-0.130
-340.348	235.298	-0.188	-0.305
-339.333	-38.300	0.136	0.071
-338.318	800.000	0.060	0.207
-337.304	-131.732	-0.115	-0.015
-336.289	-200.000	0.000	-0.121
-335.275	125.071	0.195	0.242
-334.260	-81.911	-0.210	0.068
-333.245	464.509	0.106	-0.233
-332.231	32.302	0.155	0.131
-331.216	-200.000	0.010	0.174
-330.202	324.667	-0.023	0.043
-329.187	-51.624	0.160	0.073
-328.172	800.000	-0.081	-0.224
-327.158	800.000	0.050	0.139
-326.143	30.575	0.173	-0.145
-325.129	-19.058	0.175	-0.107
-324.114	-200.000	-0.019	-0.296
-323.099	-32.315	0.325	-0.178
-322.085	-11.568	-0.230	-0.148
-321.070	-12.386	0.313	-0.200
-320.056	-67.786	-0.115	0.044
-319.041	800.000	0.063	-0.181
-318.026	268.684	-0.076	0.131
-317.012	233.283	-0.157	-0.253
-315.997	220.272	-0.084	-0.132
-314.983	-19.590	0.104	0.063
-313.968	800.000	0.028	-0.094
-312.953	-200.000	0.006	0.066
-311.939	279.423	-0.116	-0.204
-310.924	-141.927	-0.155	-0.015
-309.910	323.182	0.061	0.115
-308.895	11.161	-0.063	-0.047
-307.880	-200.000	0.020	0.296
-306.866	101.038	0.138	-0.157
-305.851	-66.864	0.191	-0.074
-304.837	173.747	0.121	-0.171
-303.822	-95.677	0.057	0.015
-302.807	55.412	-0.107	-0.101
-301.793	-47.771	-0.248	-0.118
-300.778	407.418	-0.117	0.242
-299.764	60.290	0.204	0.198
-298.749	-95.043	0.295	-0.078
-297.735	-200.000	-0.098	0.444
-296.720	53.509	0.220	-0.206
-295.705	49.980	0.127	0.117
-294.691	-58.436	0.170	0.072
-293.676	31.678	0.219	-0.185
-292.662	-174.654	-0.391	0.011
-291.647	107.287	0.277	-0.322
-290.632	-56.146	-0.085	-0.037
-289.618	-131.355	-0.195	-0.025
-288.603	47.107	-0.134	-0.122
-287.589	494.454	0.058	-0.130
-286.574	-80.555	0.163	0.053
-285.559	-101.645	-0.264	0.063
-284.545	-200.000	0.012	-0.074
-283.530	-200.000	0.026	0.246
-282.516	153.136	0.251	0.336
-281.501	62.665	-0.113	0.111
-280.486	-101.998	0.325	-0.077
-279.472	-200.000	0.016	0.145
-278.457	-123.317	0.270	0.042
-277.443	-8.040	0.229	-0.151
-276.428	800.000	0.022	0.068
-275.413	46.430	0.049	-0.045
-274.399	-77.433	0.095	-0.032
-273.384	311.434	0.138	-0.253
-272.370	-26.884	0.110	0.063
-271.355	60.569	0.176	0.170
-270.340	-20.828	-0.312	-0.187
-269.326	-1.764	0.149	0.103
-268.311	664.063	0.059	-0.148
-267.297	-3.314	0.556	-0.379
-266.282	-76.551	0.360	0.124
-265.267	800.000	0.066	0.240
-264.253	413.723	0.159	-0.331
-263.238	14.656	0.093	-0.071
-262.224	93.889	0.083	0.092
-261.209	150.358	-0.053	0.070
-260.195	383.411	0.202	0.408
-259.180	-200.000	0.092	0.397
-258.165	306.661	0.083	0.151
-257.151	-21.607	0.080	-0.047
-256.136	800.000	-0.124	-0.509
-255.122	26.735	-0.255	-0.209
-254.107	-15.660	-0.168	-0.105
-253.092	-4.897	0.339	-0.228
-252.078	-125.353	-0.137	-0.020
-251.063	52.979	0.043	-0.040
-250.049	-200.000	-0.028	-0.302
-249.034	800.000	0.098	-0.325
-248.019	-161.561	0.025	-0.001
-247.005	485.463	-0.054	0.121
-245.990	10.149	0.142	0.106
-244.976	410.258	-0.040	0.082
-243.961	-200.000	-0.056	0.244
-242.946	800.000	0.069	-0.290
-241.932	-22.072	-0.196	0.117
-240.917	-200.000	-0.025	0.408
-239.903	-200.000	-0.032	-0.210
-238.888	-200.000	0.008	0.055
-237.873	-77.011	-0.360	0.123
-236.859	-50.268	-0.265	-0.122
-235.844	-50.282	0.205	-0.095
-234.830	-200.000	-0.015	-0.109
-233.815	368.629	-0.074	0.146
-232.800	-200.000	0.038	-0.206
-231.786	71.547	0.236	-0.239
-230.771	-158.178	-0.314	0.018
-229.757	-200.000	0.046	0.241
-228.742	-200.000	-0.061	0.298
-227.727	-170.740	0.068	0.002
-226.713	-65.830	0.304	0.119
-225.698	134.967	-0.229	-0.291
-224.684	-133.791	-0.068	-0.008
-223.669	-123.232	0.433	-0.068
-222.655	81.197	0.357	-0.377
-221.640	33.567	-0.010	0.008
-220.625	-165.255	0.107	-0.005
-219.611	-6.425	-0.049	0.033
-218.596	-78.456	0.282	-0.094
-217.582	-97.497	-0.311	0.079
-216.567	-35.517	0.343	-0.182
-215.552	28.379	0.078	0.064
-214.538	69.717	-0.130	-0.131
-213.523	-7.827	0.217	0.143
-212.509	-78.847	0.247	-0.082
-211.494	-83.033	-0.156	-0.049
-210.479	800.000	0.073	0.276
-209.465	94.261	-0.226	-0.251
-208.450	-101.574	0.205	-0.049
-207.436	800.000	0.067	0.243
-206.421	-82.204	0.575	0.183
-205.406	-67.554	-0.236	-0.090
-204.392	-94.585	0.056	0.015
-203.377	-200.000	0.052	-0.229
-202.363	800.000	0.104	-0.318
-201.348	-126.741	-0.207	-0.030
-200.333	-137.275	0.152	0.017
-199.319	46.018	0.040	-0.037
-198.304	71.606	-0.125	-0.127
-197.290	17.194	-0.093	-0.072
-196.275	219.817	-0.073	-0.115
-195.260	20.799	-0.089	0.070
-194.246	303.560	0.169	-0.306
-193.231	-90.773	0.219	0.062
-192.217	-11.268	0.132	0.085
-191.202	65.097	0.090	-0.089
-190.187	-44.182	-0.441	0.216
-189.173	73.268	0.131	0.133
-188.158	800.000	0.062	0.186
-187.144	14.672	-0.077	-0.059
-186.129	622.971	0.067	0.166
-185.114	-26.839	-0.453	0.259
-184.100	800.000	-0.099	0.370
-183.085	45.693	0.099	0.089
-182.071	-200.000	0.064	0.388
-181.056	6.576	-0.145	-0.105
-180.042	52.754	-0.127	0.119
-179.027	800.000	-0.068	0.240
-178.012	6.792	0.365	0.265
-176.998	-200.000	0.019	0.214
-175.983	11.046	0.157	-0.117
-174.969	47.193	0.127	-0.115
-173.954	131.737	-0.057	0.072
-172.939	-200.000	-0.006	0.048
-171.925	-200.000	-0.022	0.106
-170.910	654.943	-0.033	-0.082
-169.896	-38.651	0.189	-0.098
-168.881	-200.000	-0.076	0.348
-167.866	-113.474	-0.251	0.048
-166.852	202.989	-0.071	0.108
-165.837	216.475	0.043	-0.067
-164.823	-200.000	-0.031	0.425
-163.808	98.566	0.159	0.179
-162.793	-200.000	0.011	0.405
-161.779	686.294	0.097	0.247
-160.764	738.526	-0.119	0.311
-159.750	-200.000	-0.016	0.077
-158.735	28.108	0.205	-0.168
-157.720	-200.000	-0.007	0.108
-156.706	-152.688	-0.119	-0.008
-155.691	-66.143	-0.265	0.103
-154.677	47.710	-0.263	0.239
-153.662	-31.206	-0.296	-0.163
-152.647	800.000	-0.043	-0.149
-151.633	-86.065	-0.092	-0.028
-150.618	-88.583	0.312	0.091
-149.604	204.684	-0.181	0.274
-148.589	53.653	0.130	0.121
-147.574	-200.000	-0.003	-0.017
-146.560	-200.000	0.019	0.300
-145.545	-44.104	0.071	0.035
-144.531	-34.631	-0.229	0.122
-143.516	41.733	0.177	0.156
-142.502	40.996	-0.087	-0.077
-141.487	-200.000	-0.007	0.087
-140.472	800.000	0.060	0.196
-139.458	-142.249	-0.108	0.010
-138.443	800.000	-0.049	-0.140
-137.429	137.238	0.005	0.007
-136.414	-200.000	-0.061	0.272
-135.399	-200.000	0.019	-0.296
-134.385	-139.627	-0.219	-0.023
-133.370	-102.638	-0.209	-0.049
-132.356	53.211	0.275	-0.257
-131.341	-200.000	-0.023	0.144
-130.326	800.000	0.033	0.110
-129.312	78.347	0.072	-0.075
-128.297	-131.444	0.197	0.025
-127.283	-19.858	-0.077	0.046
-126.268	9.396	0.245	0.181
-125.253	-5.529	0.408	-0.273
-124.239	-130.038	-0.183	-0.024
-123.224	-83.811	0.348	-0.108
-122.210	-122.684	0.210	-0.033
-121.195	-200.000	-0.017	0.196
-120.180	-200.000	-0.022	0.249
-119.166	-146.018	-0.076	-0.007
-118.151	-200.000	-0.001	-0.485
-117.137	153.576	-0.144	-0.192
-116.122	110.821	0.110	-0.129
-115.107	55.540	-0.053	0.050
-114.093	303.324	-0.137	0.246
-113.078	800.000	-0.074	-0.307
-112.064	-200.000	-0.025	-0.147
-111.049	180.360	0.242	-0.345
-110.034	800.000	-0.070	0.275
-109.020	-200.000	-0.001	-0.103
-108.005	479.690	0.085	0.187
-106.991	-26.003	-0.056	-0.032
-105.976	-200.000	0.002	-0.092
-104.962	-129.609	0.290	-0.039
-103.947	800.000	-0.073	0.221
-102.932	-200.000	-0.023	-0.223
-101.918	-186.079	-0.191	0.003
-100.903	-68.606	-0.191	-0.072
-99.889	-200.000	-0.008	-0.457
-98.874	-200.000	-0.039	0.185
-97.859	42.383	-0.021	-0.019
-96.845	-44.467	-0.321	0.156
-95.830	-90.670	0.216	-0.061
-94.816	80.152	0.143	-0.150
-93.801	800.000	0.045	0.156
-92.786	-119.974	-0.164	-0.027
-91.772	-30.793	-0.074	-0.041
-90.757	-21.895	0.104	-0.061
-89.743	800.000	0.134	-0.409
-88.728	346.125	-0.161	-0.308
-87.713	71.531	-0.168	0.170
-86.699	-47.515	0.262	-0.124
-85.684	136.806	0.149	0.189
-84.670	210.205	0.079	-0.121
-83.655	-46.142	-0.199	-0.095
-82.640	-200.000	-0.008	0.148
-81.626	738.944	-0.100	0.261
-80.611	-200.000	-0.010	-0.057
-79.597	-105.256	-0.423	-0.094
-78.582	-85.252	0.168	-0.051
-77.567	67.857	0.057	0.057
-76.553	371.804	0.064	0.127
-75.538	-69.804	0.370	0.137
-74.524	-58.638	-0.072	0.030
-73.509	-169.485	0.077	0.003
-72.494	182.553	0.252	0.362
-71.480	27.679	0.165	0.135
-70.465	618.038	-0.053	-0.131
-69.451	-59.519	-0.080	0.033
-68.436	-200.000	-0.032	-0.207
-67.422	-14.457	0.097	0.061
-66.407	106.801	-0.168	-0.193
-65.392	42.745	0.159	0.141
-64.378	-70.416	-0.238	-0.088
-63.363	4.601	-0.172	-0.122
-62.349	800.000	0.083	0.230
-61.334	22.040	-1.514	-1.200
-60.319	31.740	0.986	0.824
-59.305	-200.000	-0.272	-1.291
-58.290	593.267	0.566	1.358
-57.276	800.000	0.486	1.553
-56.261	-200.000	124.825	673.928
-55.246	436.292	1570.977	3321.550
-54.232	143.548	2735.191	3537.812
-53.217	91.814	2292.825	2504.905
-52.203	32.838	1902.056	1598.883
-51.188	26.541	1698.492	1379.882
-50.173	24.562	1659.355	1333.277
-49.159	46.849	1728.811	1560.005
-48.144	43.977	1740.477	1548.568
-47.130	26.227	1691.599	1371.680
-46.115	23.713	1676.311	1340.281
-45.100	23.581	1670.838	1334.861
-44.086	23.574	1668.882	1333.192
-43.071	23.433	1666.654	1330.301
-42.057	23.527	1663.976	1328.815
-41.042	23.538	1662.194	1327.420
-40.027	23.529	1660.159	1325.674
-39.013	23.378	1658.578	1323.230
-37.998	23.440	1656.983	1322.374
-36.984	23.487	1655.898	1321.805
-35.969	23.634	1654.409	1321.658
-34.954	23.688	1652.308	1320.327
-33.940	23.571	1651.207	1318.525
-32.925	23.593	1649.358	1317.162
-31.911	23.605	1647.714	1315.881
-30.896	23.616	1645.976	1314.526
-29.881	23.527	1644.541	1312.672
-28.867	23.631	1642.666	1311.889
-27.852	23.567	1641.693	1310.585
-26.838	23.467	1640.426	1308.782
-25.823	23.556	1638.853	1308.130
-24.809	23.611	1637.714	1307.577
-23.794	23.675	1635.523	1306.251
-22.779	23.660	1635.038	1305.698
-21.765	23.611	1632.544	1303.292
-20.750	23.560	1631.409	1301.964
-19.736	23.531	1630.687	1301.125
-18.721	23.635	1628.725	1300.264
-17.706	23.576	1627.377	1298.709
-16.692	23.588	1625.526	1297.265
-15.677	23.663	1624.434	1296.893
-14.663	23.685	1622.808	1295.702
-13.648	23.702	1621.860	1295.015
-12.633	23.759	1620.049	1293.938
-11.619	23.582	1618.824	1291.619
-10.604	23.628	1617.313	1290.696
-9.590	23.633	1616.125	1289.729
-8.575	23.610	1614.672	1288.357
-7.560	23.597	1613.399	1287.197
-6.546	23.713	1612.604	1287.349
-5.531	23.640	1610.873	1285.390
-4.517	23.679	1610.084	1284.992
-3.502	23.600	1608.952	1283.462
-2.487	23.770	1606.695	1282.840
-1.473	23.232	1595.340	1269.863
-0.458	20.085	1574.813	1231.153
0.556	15.125	1576.088	1196.521
1.571	12.760	1599.803	1197.248
2.586	12.392	1611.723	1203.362
3.600	11.507	1557.883	1156.795
4.615	6.754	1451.516	1046.284
5.629	1.790	1393.851	972.982
6.644	0.885	1387.347	962.601
7.659	0.741	1386.328	960.896
8.673	0.762	1385.501	960.369
9.688	0.682	1383.046	958.075
10.702	0.571	1379.813	955.052
11.717	3.007	1382.888	972.523
12.731	9.564	1392.712	1021.019
13.746	15.317	1401.414	1063.907
14.761	17.362	1403.221	1078.156
15.775	16.747	1401.507	1072.852
16.790	15.755	1399.319	1064.805
17.804	15.052	1396.476	1058.108
18.819	14.564	1395.342	1054.068
19.834	14.329	1394.182	1051.615
20.848	14.142	1392.554	1049.117
21.863	13.950	1391.249	1046.829
22.877	13.704	1390.241	1044.429
23.892	13.674	1389.050	1043.254
24.907	13.672	1388.575	1042.792
25.921	13.654	1387.599	1041.852
26.936	13.682	1386.421	1041.056
27.950	13.696	1385.930	1040.679
28.965	13.743	1384.675	1039.944
29.980	13.829	1383.726	1039.674
30.994	13.863	1383.028	1039.270
32.009	13.942	1381.755	1038.716
33.023	13.903	1380.467	1037.413
34.038	13.806	1379.665	1036.113
35.053	13.817	1378.129	1034.935
36.067	13.872	1376.907	1034.272
37.082	13.841	1376.711	1033.836
38.096	13.778	1375.849	1032.709
39.111	13.905	1374.254	1032.207
40.126	13.748	1373.941	1030.907
41.140	13.739	1372.630	1029.776
42.155	13.607	1372.663	1028.887
43.169	13.695	1372.278	1029.058
44.184	13.676	1372.220	1028.801
45.199	13.679	1371.636	1028.295
46.213	13.762	1370.611	1027.951
47.228	13.695	1370.134	1027.087
48.242	13.799	1368.489	1026.405
49.257	13.791	1367.517	1025.536
50.271	13.798	1365.928	1024.293
51.286	13.861	1364.347	1023.407
52.301	13.822	1363.129	1022.162
53.315	13.749	1361.940	1020.730
54.330	13.668	1361.429	1019.758
55.344	13.738	1359.781	1018.866
56.359	13.755	1358.860	1018.190
57.374	13.794	1357.765	1017.518
58.388	13.629	1357.508	1016.223
59.403	13.643	1356.738	1015.642
60.417	13.702	1355.865	1015.260
61.432	13.594	1355.081	1013.926
62.447	13.706	1354.018	1013.726
63.461	13.555	1353.252	1012.140
64.476	13.545	1351.782	1010.886
65.490	13.623	1350.514	1010.323
66.505	13.513	1349.166	1008.559
67.520	13.713	1347.580	1008.502
68.534	13.659	1346.979	1007.632
69.549	13.550	1345.890	1006.069
70.563	13.578	1344.512	1005.117
71.578	13.560	1343.625	1004.255
72.593	13.494	1342.522	1002.943
73.607	13.633	1341.632	1003.030
74.622	13.558	1341.038	1002.041
75.636	13.583	1339.885	1001.245
76.651	13.623	1339.105	1000.819
77.666	13.519	1338.719	999.809
78.680	13.576	1338.229	999.699
79.695	13.536	1337.267	998.651
80.709	13.556	1336.419	998.051
81.724	13.694	1335.176	997.865
82.739	13.693	1334.616	997.352
83.753	13.626	1334.368	996.675
84.768	13.768	1332.212	995.831
85.782	13.702	1331.723	994.977
86.797	13.685	1330.081	993.565
87.812	13.732	1328.870	992.852
88.826	13.608	1328.220	991.539
89.841	13.693	1326.660	990.789
90.855	13.837	1325.242	990.508
91.870	13.760	1324.871	989.678
92.884	13.827	1323.465	988.941
93.899	13.882	1323.012	988.846
94.914	13.770	1322.098	987.408
95.928	13.868	1321.033	987.109
96.943	13.764	1320.589	986.072
97.957	13.776	1319.392	985.157
98.972	13.831	1318.449	984.696
99.987	13.807	1317.231	983.557
101.001	13.906	1315.952	983.098
102.016	13.760	1315.144	981.547
103.030	13.914	1313.912	981.450
104.045	13.820	1313.130	980.221
105.060	13.806	1312.244	979.389
106.074	13.739	1310.836	977.862
107.089	13.659	1309.353	976.194
108.103	13.620	1308.663	975.363
109.118	13.715	1307.119	974.684
110.133	13.703	1305.720	973.489
111.147	13.653	1304.398	972.119
112.162	13.735	1303.121	971.562
113.176	13.893	1301.507	971.202
114.191	13.709	1301.020	969.673
115.206	13.829	1299.338	969.037
116.220	13.759	1298.217	967.702
117.235	13.878	1297.115	967.491
118.249	13.619	1296.741	965.618
119.264	13.793	1295.223	965.415
120.279	13.647	1294.230	963.740
121.293	13.708	1293.526	963.488
122.308	13.634	1292.927	962.525
123.322	13.669	1291.487	961.571
124.337	13.682	1290.270	960.654
125.352	13.674	1289.131	959.678
126.366	13.748	1287.586	958.868
127.381	13.718	1287.018	958.184
128.395	13.695	1285.440	956.792
129.410	13.636	1284.663	955.794
130.424	13.691	1284.013	955.538
131.439	13.738	1282.933	954.921
132.454	13.784	1281.241	953.845
133.468	13.791	1280.681	953.380
134.483	13.786	1279.814	952.625
135.497	13.746	1278.681	951.467
136.512	13.814	1277.720	951.057
137.527	13.709	1276.236	949.267
138.541	13.799	1274.818	948.643
139.556	13.709	1273.909	947.367
140.570	13.766	1272.641	946.665
141.585	13.857	1271.168	946.007
142.600	13.766	1270.317	944.768
143.614	13.840	1269.673	944.629
144.629	13.921	1268.070	943.817
145.643	13.926	1266.855	942.855
146.658	13.886	1265.847	941.791
147.673	13.874	1264.374	940.549
148.687	13.859	1262.962	939.329
149.702	13.845	1261.843	938.335
150.716	13.862	1260.836	937.599
151.731	13.894	1259.611	936.783
152.746	13.826	1258.504	935.494
153.760	13.976	1256.888	935.055
154.775	14.048	1255.835	934.595
155.789	13.965	1254.902	933.351
156.804	14.067	1253.431	932.746
157.819	14.033	1252.875	932.058
158.833	14.083	1251.963	931.580
159.848	14.065	1251.126	930.770
160.862	14.082	1249.914	929.882
161.877	14.018	1249.315	929.001
162.892	13.974	1248.411	928.000
163.906	14.083	1246.822	927.344
164.921	14.101	1246.114	926.833
165.935	14.085	1244.973	925.813
166.950	14.047	1244.578	925.230
167.964	14.092	1244.002	924.970
168.979	14.015	1243.142	923.820
169.994	13.993	1242.615	923.224
171.008	14.071	1241.266	922.571
172.023	14.129	1240.391	922.163
173.037	14.245	1239.443	922.019
174.052	14.258	1238.363	921.203
175.067	14.093	1237.624	919.661
176.081	14.108	1236.771	919.029
177.096	14.270	1235.143	918.632
178.110	14.198	1234.693	917.819
179.125	14.143	1233.170	916.304
180.140	14.266	1232.123	916.121
181.154	14.213	1230.966	914.887
182.169	14.303	1229.497	914.211
183.183	14.367	1228.319	913.603
184.198	14.365	1227.059	912.573
185.213	14.325	1226.112	911.568
186.227	14.371	1225.070	910.964
187.242	14.293	1224.365	909.933
188.256	14.415	1222.788	909.349
189.271	14.491	1221.954	909.060
190.286	14.262	1221.225	907.193
191.300	14.176	1220.643	906.212
192.315	14.214	1219.643	905.595
193.329	14.250	1218.828	905.107
194.344	14.303	1218.450	905.030
195.359	14.290	1217.873	904.456
196.373	14.335	1217.374	904.244
197.388	14.549	1216.428	904.627
198.402	14.527	1216.095	904.178
199.417	14.491	1215.443	903.416
200.432	14.493	1214.443	902.605
201.446	14.578	1213.784	902.497
202.461	14.648	1212.297	901.688
203.475	14.599	1211.138	900.480
204.490	14.515	1210.322	899.343
205.504	14.583	1209.192	898.790
206.519	14.578	1207.984	897.788
207.534	14.620	1206.798	897.052
208.548	14.601	1205.726	896.072
209.563	14.590	1205.153	895.507
210.577	14.647	1204.305	895.107
211.592	14.664	1203.384	894.431
212.607	14.644	1202.791	893.805
213.621	14.709	1201.648	893.225
214.636	14.686	1201.160	892.661
215.650	14.812	1199.651	892.133
216.665	14.776	1199.042	891.408
217.680	14.778	1198.422	890.881
218.694	14.734	1197.823	890.122
219.709	14.872	1196.339	889.675
220.723	14.880	1195.694	889.158
221.738	14.897	1194.851	888.543
222.753	14.888	1194.251	887.968
223.767	14.844	1193.601	887.173
224.782	15.030	1192.507	887.269
225.796	14.943	1192.541	886.753
226.811	14.959	1191.882	886.272
227.826	14.811	1191.317	884.989
228.840	14.827	1190.470	884.364
229.855	14.908	1189.505	884.001
230.869	14.885	1188.797	883.272
231.884	14.987	1187.741	882.946
232.899	14.918	1187.278	882.160
233.913	14.913	1186.622	881.572
234.928	14.890	1185.668	880.662
235.942	14.884	1184.641	879.788
236.957	14.995	1184.089	879.885
237.972	14.999	1183.333	879.267
238.986	14.907	1182.914	878.393
240.001	14.905	1181.968	877.606
241.015	15.044	1180.817	877.399
242.030	15.014	1180.035	876.584
243.045	15.118	1179.343	876.538
244.059	15.126	1178.553	875.917
245.074	15.165	1177.981	875.617
246.088	15.082	1177.459	874.718
247.103	15.152	1176.007	873.926
248.117	15.141	1175.496	873.410
249.132	15.173	1175.190	873.272
250.147	15.326	1174.366	873.380
251.161	15.252	1173.005	871.904
252.176	15.319	1172.818	872.040
253.190	15.483	1171.645	871.941
254.205	15.362	1171.213	870.913
255.220	15.448	1170.547	870.787
256.234	15.427	1170.270	870.399
257.249	15.355	1169.634	869.473
258.263	15.446	1169.057	869.437
259.278	15.523	1167.895	868.894
260.293	15.547	1167.456	868.617
261.307	15.626	1166.587	868.301
262.322	15.439	1166.573	867.246
263.336	15.536	1165.552	866.911
264.351	15.541	1164.966	866.425
265.366	15.616	1163.946	865.977
266.380	15.610	1163.414	865.473
267.395	15.640	1162.816	865.105
268.409	15.598	1161.897	864.129
269.424	15.574	1161.447	863.593
270.439	15.566	1161.043	863.180
271.453	15.560	1160.028	862.315
272.468	15.578	1158.733	861.372
273.482	15.718	1158.119	861.552
274.497	15.598	1158.084	860.836
275.512	15.633	1157.130	860.230
276.526	15.816	1155.847	860.136
277.541	15.779	1154.988	859.234
278.555	15.657	1155.064	858.592
279.570	15.894	1153.735	858.737
280.585	15.750	1153.004	857.383
281.599	15.909	1152.111	857.452
282.614	15.760	1151.424	856.106
283.628	15.919	1150.163	855.902
284.643	15.892	1149.040	854.853
285.657	15.737	1148.374	853.496
286.672	15.880	1147.473	853.474
287.687	15.973	1146.589	853.213
288.701	15.950	1145.756	852.399
289.716	15.840	1145.243	851.387
290.730	15.796	1144.603	850.613
291.745	15.865	1143.928	850.384
292.760	16.002	1142.430	849.889
293.774	15.977	1142.405	849.665
294.789	16.149	1141.719	849.949
295.803	16.115	1140.965	849.142
296.818	15.912	1140.790	847.914
297.833	15.922	1139.833	847.177
298.847	16.016	1139.141	847.060
299.862	15.981	1138.477	846.317
300.876	16.020	1137.848	845.971
301.891	16.135	1136.619	845.560
302.906	16.067	1135.871	844.584
303.920	16.141	1135.386	844.521
304.935	16.217	1134.679	844.300
305.949	16.250	1134.247	844.069
306.964	16.373	1133.127	843.777
307.979	16.341	1132.317	842.936
308.993	16.260	1131.672	841.980
310.008	16.175	1131.031	841.005
311.022	16.247	1130.592	840.961
312.037	16.385	1129.367	840.665
313.052	16.358	1128.204	839.590
314.066	16.285	1127.286	838.467
315.081	16.263	1126.705	837.855
316.095	16.245	1125.846	837.050
317.110	16.261	1125.221	836.591
318.125	16.184	1124.610	835.683
319.139	16.290	1124.178	835.812
320.154	16.294	1123.255	835.069
321.168	16.242	1122.772	834.381
322.183	16.212	1122.312	833.819
323.197	16.308	1121.491	833.610
324.212	16.410	1120.536	833.330
325.227	16.406	1120.290	833.050
326.241	16.379	1119.516	832.270
327.256	16.295	1118.938	831.353
328.270	16.345	1117.477	830.437
329.285	16.595	1116.363	830.765
330.300	16.407	1115.670	829.253
331.314	16.446	1114.757	828.692
332.329	16.504	1113.632	828.070
333.343	16.459	1113.067	827.355
334.358	16.467	1112.373	826.801
335.373	16.428	1111.735	826.064
336.387	16.583	1110.736	826.006
337.402	16.524	1109.900	825.026
338.416	16.565	1109.325	824.724
339.431	16.580	1108.602	824.188
340.446	16.734	1107.741	824.220
341.460	16.615	1107.468	823.368
342.475	16.653	1106.567	822.808
343.489	16.686	1105.515	822.115
344.504	16.783	1104.441	821.716
345.519	16.773	1103.759	821.085
346.533	16.835	1102.907	820.680
347.548	16.842	1102.083	820.028
348.562	16.710	1101.665	819.006
349.577	16.799	1100.594	818.566
350.592	16.745	1100.108	817.872
351.606	16.742	1099.158	817.081
352.621	16.677	1098.797	816.425
353.635	16.712	1097.926	815.874
354.650	16.709	1097.437	815.426
355.665	16.773	1096.779	815.172
356.679	16.792	1095.843	814.495
357.694	16.804	1095.186	813.993
358.708	16.941	1094.544	814.099
359.723	16.904	1093.727	813.245
360.738	16.846	1093.652	812.837
361.752	16.991	1092.686	812.742
362.767	16.849	1092.427	811.796
363.781	16.977	1091.716	811.812
364.796	17.059	1090.974	811.579
365.810	17.162	1090.315	811.507
366.825	17.101	1089.482	810.524
367.840	17.217	1089.001	810.649
368.854	17.167	1088.179	809.729
369.869	17.160	1087.602	809.195
370.883	17.091	1087.315	808.581
371.898	17.159	1086.195	807.997
372.913	17.211	1085.497	807.657
373.927	17.157	1085.308	807.186
374.942	17.215	1084.735	806.964
375.956	17.288	1084.231	806.862
376.971	17.359	1083.003	806.216
377.986	17.365	1082.359	805.695
379.000	17.398	1082.079	805.568
380.015	17.404	1081.562	805.140
381.029	17.394	1081.051	804.642
382.044	17.400	1080.310	804.047
383.059	17.410	1079.373	803.329
384.073	17.525	1078.762	803.342
385.088	17.489	1077.602	802.240
386.102	17.325	1076.888	800.863
387.117	17.459	1075.567	800.442
388.132	17.385	1075.160	799.719
389.146	17.465	1074.084	799.225
390.161	17.495	1073.467	798.834
391.175	17.396	1073.293	798.172
392.190	17.425	1072.207	797.427
393.205	17.563	1071.798	797.699
394.219	17.538	1070.601	796.623
395.234	17.576	1070.137	796.384
396.248	17.517	1068.792	795.037
397.263	17.383	1067.876	793.660
398.278	17.373	1067.941	793.591
399.292	17.478	1066.784	793.152
400.307	17.446	1065.562	792.022
401.321	17.379	1065.592	791.665
402.336	17.498	1064.796	791.553
403.350	17.480	1064.106	790.888
404.365	17.466	1063.441	790.262
405.380	17.537	1062.940	790.147
406.394	17.697	1061.801	789.970
407.409	17.619	1061.101	789.021
408.423	17.625	1060.195	788.305
409.438	17.643	1059.890	788.091
410.453	17.796	1059.264	788.261
411.467	17.885	1058.170	787.790
412.482	17.777	1057.674	786.853
413.496	17.931	1056.633	786.716
414.511	17.829	1056.407	786.012
415.526	17.903	1055.669	785.734
416.540	17.890	1055.381	785.390
417.555	17.975	1054.662	785.176
418.569	17.945	1054.168	784.601
419.584	17.928	1053.605	784.031
420.599	17.943	1053.368	783.859
421.613	109.946	1330.148	1490.437
422.628	101.358	1370.425	1490.495
