DTS Sentinel unit serial number:	SN413079Multiplexer serial number:	ORYXHardware model number:	OX4-SRSoftware version number:	ORYX F/W v4.00 Oryx Data Collector v3.7.2.0data status	okinstallation	princeton_trtdifferential loss correction	single-endedforward channel	channel 2reverse channel	N/Adate	2019/09/17time	02:15:35forward acquisition time	60.00reverse acquisition time	0.00gamma	496.2192k internal	0.2328k external	0.2328temperature offset calibration	0.9972default loss term (dB/km)	0.3790temperature slope calibration	1.0000multiplexer offset coefficient	1.0000multiplexer slope coefficient	1.0000fibre end	0.00T internal ref (°C)	29.72T ext. ref 1 (°C)	0.12T ext. ref 2 (°C)	24.66length (m)	temperature (°C)	Stokes	anti-Stokes-747.200	82.235	0.065	-0.071
-746.185	-24.854	-0.107	0.064
-745.171	27.410	-0.139	0.118
-744.156	-71.485	-0.216	0.081
-743.142	-135.141	0.369	0.045
-742.127	4.661	-0.358	0.265
-741.112	-155.273	-0.174	-0.011
-740.098	245.231	-0.117	-0.199
-739.083	-200.000	-0.009	-0.405
-738.069	-200.000	0.018	0.200
-737.054	800.000	0.063	-0.183
-736.039	800.000	-0.037	-0.111
-735.025	115.367	0.183	0.226
-734.010	-87.634	-0.239	-0.073
-732.996	-37.319	0.337	-0.181
-731.981	414.890	0.066	-0.141
-730.966	-38.525	-0.192	0.102
-729.952	800.000	0.069	-0.281
-728.937	-54.966	-0.231	0.105
-727.923	-200.000	0.015	0.314
-726.908	16.250	-0.071	0.056
-725.894	70.477	-0.172	-0.180
-724.879	125.323	-0.093	0.118
-723.864	-200.000	0.019	-0.177
-722.850	300.843	0.117	-0.217
-721.835	-161.908	0.267	-0.014
-720.821	-200.000	-0.010	0.125
-719.806	389.099	0.115	0.240
-718.791	-37.073	-0.170	-0.092
-717.777	-133.636	0.074	0.009
-716.762	-200.000	-0.070	-0.391
-715.748	-200.000	-0.010	-0.062
-714.733	-200.000	0.024	-0.224
-713.718	226.925	0.062	-0.101
-712.704	-94.073	0.229	-0.063
-711.689	24.770	-0.309	-0.258
-710.675	-200.000	-0.060	-0.295
-709.660	-61.700	0.270	0.114
-708.645	-77.463	-0.387	-0.135
-707.631	93.650	0.098	-0.111
-706.616	85.313	0.202	0.223
-705.602	27.310	0.103	0.087
-704.587	-200.000	-0.001	0.007
-703.572	-15.114	0.145	-0.093
-702.558	-34.991	0.292	0.160
-701.543	43.133	-0.208	0.191
-700.529	-11.361	-0.121	-0.080
-699.514	720.186	-0.129	-0.346
-698.499	800.000	-0.046	-0.156
-697.485	-200.000	-0.005	-0.161
-696.470	50.807	-0.086	-0.082
-695.456	421.708	0.126	-0.271
-694.441	-80.443	-0.142	-0.048
-693.426	800.000	-0.030	-0.127
-692.412	-31.066	0.305	-0.173
-691.397	30.902	-0.101	-0.087
-690.383	-85.101	-0.123	0.039
-689.368	-65.889	0.074	-0.030
-688.354	-107.769	-0.393	0.086
-687.339	-125.998	-0.116	-0.018
-686.324	-78.053	0.205	-0.071
-685.310	202.852	-0.072	0.112
-684.295	-154.095	0.179	0.012
-683.281	-37.459	0.102	0.055
-682.266	17.446	-0.073	0.058
-681.251	26.948	0.304	0.256
-680.237	-73.893	0.324	-0.118
-679.222	85.718	-0.188	-0.208
-678.208	103.919	-0.284	0.335
-677.193	-200.000	-0.013	0.290
-676.178	-63.972	0.145	-0.060
-675.164	69.147	-0.102	-0.106
-674.149	-34.309	-0.102	0.056
-673.135	21.687	0.271	0.221
-672.120	228.971	-0.167	0.273
-671.105	170.069	0.043	0.062
-670.091	800.000	-0.025	-0.108
-669.076	-129.244	-0.445	0.062
-668.062	463.539	-0.199	-0.447
-667.047	800.000	0.064	0.207
-666.032	121.181	-0.233	0.291
-665.018	-153.075	-0.127	-0.009
-664.003	273.775	-0.177	0.315
-662.989	66.083	-0.167	-0.171
-661.974	-200.000	-0.043	-0.305
-660.959	800.000	-0.036	-0.140
-659.945	201.136	-0.022	0.034
-658.930	-200.000	-0.014	-0.138
-657.916	211.065	-0.137	-0.216
-656.901	-155.851	-0.555	0.036
-655.886	-99.091	-0.112	0.029
-654.872	-200.000	0.001	-0.091
-653.857	800.000	0.037	-0.152
-652.843	-68.267	0.217	0.085
-651.828	-99.661	-0.070	-0.018
-650.814	35.858	-0.106	0.093
-649.799	-120.742	-0.231	-0.039
-648.784	60.739	0.156	-0.155
-647.770	800.000	-0.133	-0.391
-646.755	-106.180	0.320	0.072
-645.741	105.567	0.101	0.120
-644.726	-64.799	0.160	0.065
-643.711	-200.000	-0.051	-0.256
-642.697	147.640	-0.150	-0.203
-641.682	13.031	-0.279	-0.217
-640.668	246.451	-0.029	-0.049
-639.653	31.482	-0.271	-0.233
-638.638	-200.000	-0.053	-0.372
-637.624	-175.768	0.232	0.006
-636.609	480.750	-0.048	0.110
-635.595	-132.467	-0.208	0.027
-634.580	185.063	-0.091	-0.135
-633.565	3.609	0.306	0.224
-632.551	147.996	0.138	-0.187
-631.536	-200.000	0.047	0.213
-630.522	-200.000	-0.005	-0.218
-629.507	-200.000	-0.079	-0.372
-628.492	80.503	0.180	0.195
-627.478	-200.000	-0.039	-0.307
-626.463	69.430	0.028	-0.029
-625.449	-19.213	0.244	0.152
-624.434	-37.840	-0.285	-0.152
-623.419	71.233	-0.153	-0.160
-622.405	128.655	0.203	0.260
-621.390	-1.369	0.413	0.293
-620.376	-38.573	-0.122	0.064
-619.361	46.540	-0.275	-0.256
-618.346	288.033	-0.166	0.301
-617.332	30.688	-0.201	0.173
-616.317	-200.000	-0.063	-0.397
-615.303	800.000	-0.053	0.188
-614.288	-60.636	-0.208	0.088
-613.273	-147.303	-0.317	0.027
-612.259	800.000	-0.123	0.519
-611.244	800.000	-0.077	0.248
-610.230	-200.000	0.003	0.199
-609.215	108.373	-0.249	0.298
-608.201	800.000	-0.093	0.309
-607.186	800.000	-0.051	-0.145
-606.171	-115.353	0.293	-0.055
-605.157	-54.411	0.272	0.124
-604.142	133.870	0.096	0.124
-603.128	-176.882	0.287	-0.007
-602.113	-82.575	-0.228	0.074
-601.098	-85.771	0.277	0.086
-600.084	79.323	-0.205	0.220
-599.069	-61.720	-0.092	0.039
-598.055	66.248	0.102	-0.104
-597.040	749.157	0.072	0.194
-596.025	47.288	-0.091	-0.085
-595.011	-142.692	-0.219	0.021
-593.996	-112.508	-0.624	-0.125
-592.982	-74.291	0.296	-0.107
-591.967	25.692	0.065	-0.054
-590.952	-68.226	0.370	-0.144
-589.938	-65.080	-0.193	-0.078
-588.923	-28.145	0.411	-0.238
-587.909	423.022	0.060	0.129
-586.894	-115.636	-0.136	0.026
-585.879	-105.836	0.078	0.018
-584.865	-105.572	-0.264	-0.060
-583.850	19.492	-0.371	0.299
-582.836	-200.000	-0.046	-0.223
-581.821	194.254	0.153	-0.233
-580.806	-125.211	0.149	0.023
-579.792	-33.264	0.148	-0.082
-578.777	-39.008	-0.110	0.058
-577.763	84.104	0.087	0.095
-576.748	-138.131	0.272	-0.030
-575.733	-40.130	0.164	-0.086
-574.719	673.358	-0.100	-0.261
-573.704	-200.000	0.023	-0.428
-572.690	-12.045	-0.132	0.087
-571.675	-107.506	0.193	0.042
-570.661	-121.016	0.306	-0.051
-569.646	84.757	-0.123	0.135
-568.631	800.000	-0.050	-0.195
-567.617	-135.779	-0.318	-0.038
-566.602	304.342	0.098	0.181
-565.588	-143.275	0.113	0.011
-564.573	160.503	0.179	-0.250
-563.558	184.157	0.075	0.111
-562.544	-166.575	-0.231	-0.010
-561.529	-185.171	-0.130	-0.002
-560.515	-200.000	-0.012	0.133
-559.500	82.478	-0.192	0.209
-558.485	-152.409	0.081	0.006
-557.471	-92.267	0.312	0.088
-556.456	-140.032	0.321	-0.034
-555.442	-50.259	-0.175	-0.083
-554.427	729.487	0.022	-0.058
-553.412	304.537	-0.064	0.119
-552.398	-200.000	0.025	-0.109
-551.383	67.800	-0.197	-0.202
-550.369	443.816	0.061	0.133
-549.354	-124.806	0.307	-0.047
-548.339	341.000	0.137	0.267
-547.325	-88.181	0.395	-0.118
-546.310	23.116	0.022	0.018
-545.296	800.000	-0.035	-0.100
-544.281	50.002	-0.295	0.278
-543.266	-200.000	0.032	0.160
-542.252	-111.353	-0.039	0.008
-541.237	424.253	-0.104	0.223
-540.223	-200.000	0.007	0.053
-539.208	37.572	-0.277	0.246
-538.193	-52.194	0.208	0.097
-537.179	520.326	-0.098	0.230
-536.164	-113.996	-0.404	0.078
-535.150	-180.446	0.162	-0.003
-534.135	66.126	0.012	0.012
-533.121	-45.278	-0.158	0.078
-532.106	430.964	0.018	0.040
-531.091	-6.525	0.282	-0.192
-530.077	800.000	0.071	-0.227
-529.062	-167.193	-0.028	-0.001
-528.048	351.242	-0.069	0.136
-527.033	-19.783	0.272	0.168
-526.018	-30.084	0.132	-0.075
-525.004	-141.403	-0.055	-0.006
-523.989	13.187	-0.181	-0.140
-522.975	800.000	-0.074	-0.246
-521.960	-192.223	-0.438	0.004
-520.945	152.363	0.093	0.126
-519.931	1.014	0.058	-0.041
-518.916	80.289	-0.065	-0.070
-517.902	-200.000	-0.055	-0.377
-516.887	-70.434	-0.519	0.197
-515.872	307.074	-0.355	-0.661
-514.858	90.845	0.183	-0.204
-513.843	163.139	0.242	-0.340
-512.829	340.855	0.062	0.120
-511.814	800.000	0.076	0.231
-510.799	13.729	0.099	-0.077
-509.785	-200.000	-0.071	-0.333
-508.770	-83.990	-0.375	-0.119
-507.756	57.894	0.084	0.082
-506.741	-43.653	-0.227	-0.114
-505.726	-200.000	-0.004	0.647
-504.712	-200.000	0.069	0.459
-503.697	-78.327	-0.153	-0.052
-502.683	174.875	0.160	-0.231
-501.668	-200.000	-0.012	0.112
-500.653	118.577	0.148	-0.182
-499.639	232.203	0.121	-0.199
-498.624	17.145	0.128	0.101
-497.610	-6.199	0.178	-0.121
-496.595	800.000	-0.030	-0.122
-495.581	178.140	-0.192	-0.279
-494.566	-12.827	0.176	0.114
-493.551	-69.826	0.105	-0.040
-492.537	-113.390	0.338	0.066
-491.522	701.311	-0.085	0.224
-490.508	800.000	0.064	-0.208
-489.493	167.082	-0.052	0.073
-488.478	-51.917	0.364	-0.169
-487.464	-144.510	-0.330	-0.030
-486.449	-22.151	-0.328	-0.198
-485.435	10.919	-0.089	0.068
-484.420	-100.159	-0.128	-0.032
-483.405	155.508	-0.064	-0.088
-482.391	15.657	0.174	-0.136
-481.376	-200.000	-0.015	-0.148
-480.362	-163.466	-0.168	-0.008
-479.347	-49.879	0.275	-0.130
-478.332	-72.347	0.241	0.089
-477.318	765.830	-0.077	0.208
-476.303	-54.228	-0.203	-0.092
-475.289	-194.798	0.286	-0.002
-474.274	-46.117	0.040	0.020
-473.259	-122.615	0.209	0.034
-472.245	270.796	0.132	-0.232
-471.230	-2.384	-0.339	-0.237
-470.216	45.743	-0.306	0.282
-469.201	297.694	0.214	-0.393
-468.186	-146.154	0.201	-0.018
-467.172	800.000	-0.040	-0.137
-466.157	73.728	-0.314	-0.329
-465.143	175.319	-0.069	-0.100
-464.128	-92.831	0.317	-0.088
-463.113	-200.000	-0.016	0.340
-462.099	-165.807	0.313	0.013
-461.084	28.474	0.302	0.255
-460.070	-33.154	0.182	-0.101
-459.055	-134.147	-0.162	0.020
-458.040	-44.605	-0.145	0.072
-457.026	800.000	0.054	-0.150
-456.011	-200.000	-0.025	0.173
-454.997	800.000	-0.139	0.417
-453.982	-200.000	0.037	-0.224
-452.968	66.572	-0.200	0.203
-451.953	-200.000	0.021	0.214
-450.938	102.884	-0.192	0.224
-449.924	-72.116	-0.308	-0.114
-448.909	-200.000	0.005	0.144
-447.895	482.058	-0.096	0.216
-446.880	800.000	-0.042	0.177
-445.865	800.000	0.106	-0.321
-444.851	-77.775	-0.059	0.020
-443.836	74.546	0.053	0.055
-442.822	-2.375	0.176	0.123
-441.807	-35.650	-0.257	0.139
-440.792	1.726	-0.134	-0.096
-439.778	20.007	0.205	-0.165
-438.763	459.722	-0.065	-0.144
-437.749	-200.000	0.021	0.166
-436.734	-85.954	-0.145	0.045
-435.719	275.419	-0.041	-0.072
-434.705	145.813	-0.080	-0.107
-433.690	-200.000	0.053	-0.267
-432.676	482.781	-0.204	0.461
-431.661	-200.000	-0.023	0.228
-430.646	-88.069	0.416	0.124
-429.632	-63.344	-0.105	0.043
-428.617	21.384	-0.163	-0.132
-427.603	-107.783	-0.164	0.036
-426.588	258.881	0.056	0.097
-425.573	-200.000	-0.014	-0.067
-424.559	-198.267	0.384	-0.002
-423.544	-73.488	-0.295	-0.107
-422.530	-200.000	-0.001	0.205
-421.515	47.174	-0.220	-0.204
-420.500	-23.249	0.024	-0.014
-419.486	676.692	0.129	0.333
-418.471	-47.120	-0.096	0.047
-417.457	-144.298	-0.110	0.010
-416.442	-200.000	0.027	-0.204
-415.428	156.512	-0.107	-0.147
-414.413	-48.256	-0.297	-0.143
-413.398	172.903	0.065	0.093
-412.384	21.130	-0.359	0.290
-411.369	-200.000	0.006	0.046
-410.355	800.000	-0.074	0.308
-409.340	10.131	-0.137	-0.104
-408.325	-43.311	-0.088	-0.044
-407.311	72.686	0.177	-0.183
-406.296	-99.212	0.383	0.096
-405.282	181.212	-0.113	-0.165
-404.267	-130.310	-0.261	0.035
-403.252	66.922	-0.228	0.231
-402.238	10.426	0.101	-0.076
-401.223	-66.752	0.216	0.085
-400.209	158.792	-0.019	-0.026
-399.194	-179.366	0.329	-0.007
-398.179	2.277	-0.197	-0.142
-397.165	-93.216	-0.450	0.124
-396.150	-97.074	-0.215	-0.056
-395.136	-20.261	-0.036	0.022
-394.121	-34.073	-0.234	-0.128
-393.106	201.001	0.249	0.381
-392.092	-17.803	0.086	-0.053
-391.077	69.180	-0.161	-0.164
-390.063	-200.000	0.041	-0.309
-389.048	553.387	0.130	-0.310
-388.033	-56.819	0.231	0.102
-387.019	-151.650	-0.236	-0.017
-386.004	81.823	0.209	0.225
-384.990	-88.904	-0.269	0.079
-383.975	-200.000	-0.009	-0.124
-382.960	-121.368	0.171	0.028
-381.946	15.791	-0.248	-0.194
-380.931	44.167	0.286	-0.261
-379.917	58.454	-0.095	0.093
-378.902	-152.220	-0.362	0.026
-377.888	508.887	0.131	-0.303
-376.873	-90.753	0.109	0.031
-375.858	98.018	0.170	-0.194
-374.844	-17.125	0.109	-0.068
-373.829	480.312	0.095	-0.213
-372.815	800.000	-0.118	0.338
-371.800	496.846	0.051	-0.116
-370.785	-17.317	-0.088	-0.055
-369.771	34.988	-0.359	-0.312
-368.756	-163.373	-0.233	0.011
-367.742	-167.627	0.064	-0.003
-366.727	106.942	-0.256	0.302
-365.712	800.000	-0.080	0.327
-364.698	-200.000	-0.018	-0.151
-363.683	-200.000	-0.051	0.345
-362.669	-29.868	-0.277	-0.157
-361.654	800.000	-0.069	-0.208
-360.639	385.330	0.121	-0.247
-359.625	-72.287	-0.240	0.088
-358.610	605.074	0.085	0.209
-357.596	800.000	0.020	-0.072
-356.581	800.000	0.045	-0.133
-355.566	-49.195	-0.213	-0.101
-354.552	64.524	0.249	0.249
-353.537	-102.463	-0.312	-0.074
-352.523	309.414	0.016	-0.029
-351.508	452.434	-0.072	0.157
-350.493	590.718	0.105	-0.258
-349.479	800.000	-0.028	-0.113
-348.464	-200.000	0.022	-0.186
-347.450	28.998	0.139	-0.117
-346.435	-200.000	-0.064	0.295
-345.420	-113.550	0.199	0.039
-344.406	-15.712	0.272	-0.172
-343.391	88.053	-0.093	0.102
-342.377	-24.709	-0.386	0.228
-341.362	269.872	-0.161	0.281
-340.348	800.000	-0.047	-0.142
-339.333	-1.350	0.220	-0.154
-338.318	-82.242	-0.414	-0.134
-337.304	189.732	0.157	0.234
-336.289	17.062	0.067	0.052
-335.275	-200.000	-0.021	-0.238
-334.260	98.101	-0.131	-0.149
-333.245	264.811	0.146	0.251
-332.231	-200.000	0.001	0.150
-331.216	-53.767	0.438	0.198
-330.202	-200.000	-0.012	-0.187
-329.187	15.214	-0.167	-0.130
-328.172	38.010	0.178	-0.157
-327.158	-99.778	0.134	-0.033
-326.143	-70.845	0.186	0.070
-325.129	-38.563	0.270	0.142
-324.114	-110.147	-0.142	0.029
-323.099	20.731	0.139	-0.111
-322.085	800.000	-0.072	-0.259
-321.070	164.833	-0.105	0.146
-320.056	-40.706	0.427	-0.219
-319.041	-142.548	-0.202	-0.020
-318.026	-29.260	0.236	-0.134
-317.012	800.000	0.070	0.255
-315.997	420.164	-0.055	0.116
-314.983	800.000	0.038	-0.129
-313.968	-41.496	0.134	-0.068
-312.953	-85.619	-0.410	0.126
-311.939	30.651	0.187	0.158
-310.924	-77.707	-0.330	0.113
-309.910	689.786	0.006	-0.017
-308.895	-79.597	0.182	-0.061
-307.880	-200.000	-0.005	-0.067
-306.866	-80.121	0.181	0.060
-305.851	135.368	0.247	-0.318
-304.837	37.245	0.086	0.075
-303.822	-200.000	0.048	-0.347
-302.807	372.042	-0.037	0.074
-301.793	800.000	-0.095	0.294
-300.778	169.626	-0.154	-0.219
-299.764	206.201	0.086	-0.132
-298.749	174.904	0.149	0.214
-297.735	-102.158	0.365	0.087
-296.720	24.378	0.149	-0.122
-295.705	149.727	-0.144	0.193
-294.691	45.189	0.266	0.243
-293.676	-166.827	-0.086	-0.004
-292.662	316.115	0.176	-0.329
-291.647	-119.999	-0.241	0.041
-290.632	-200.000	0.025	0.147
-289.618	216.804	0.160	-0.252
-288.603	-128.231	0.339	-0.048
-287.589	287.755	-0.064	0.114
-286.574	6.357	-0.163	0.120
-285.559	-71.474	0.537	0.199
-284.545	30.373	-0.052	-0.044
-283.530	-7.042	0.185	-0.124
-282.516	-50.606	0.255	-0.119
-281.501	-127.124	0.296	0.043
-280.486	-125.023	-0.261	0.040
-279.472	-22.959	-0.179	-0.107
-278.457	127.255	0.081	0.101
-277.443	800.000	0.031	0.087
-276.428	4.041	0.192	0.139
-275.413	-53.237	0.422	0.191
-274.399	-158.213	-0.316	-0.018
-273.384	-187.053	-0.222	0.003
-272.370	800.000	-0.039	0.118
-271.355	135.263	0.246	0.317
-270.340	-67.445	-0.238	-0.093
-269.326	-200.000	-0.043	0.199
-268.311	47.813	0.208	0.192
-267.297	-147.328	-0.212	-0.018
-266.282	-194.004	-0.306	-0.003
-265.267	-165.687	0.435	0.019
-264.253	-84.545	-0.147	-0.046
-263.238	800.000	-0.020	0.084
-262.224	52.974	-0.067	0.063
-261.209	61.179	-0.263	0.258
-260.195	-63.603	-0.364	0.148
-259.180	-60.269	0.172	0.073
-258.165	-200.000	0.012	0.264
-257.151	287.891	-0.227	-0.405
-256.136	114.680	-0.239	0.288
-255.122	-200.000	-0.004	-0.117
-254.107	379.827	0.142	-0.287
-253.092	45.342	-0.049	0.045
-252.078	-38.946	0.245	0.128
-251.063	600.499	0.075	0.183
-250.049	0.880	-0.125	0.088
-249.034	231.818	0.039	0.064
-248.019	-111.855	0.077	0.015
-247.005	-140.354	0.180	0.019
-245.990	264.453	0.054	0.092
-244.976	-143.886	0.393	0.037
-243.961	142.219	0.171	-0.225
-242.946	306.140	0.038	0.070
-241.932	31.557	0.031	0.027
-240.917	34.308	-0.292	-0.252
-239.903	-185.247	-0.271	-0.004
-238.888	-33.133	-0.341	0.187
-237.873	-109.898	-0.180	-0.037
-236.859	111.205	-0.200	0.238
-235.844	-200.000	-0.001	0.166
-234.830	-1.894	0.130	0.090
-233.815	-52.101	-0.270	-0.124
-232.800	-9.267	-0.087	-0.057
-231.786	108.545	0.208	0.245
-230.771	-86.888	-0.354	-0.107
-229.757	-149.049	0.486	-0.039
-228.742	-149.383	0.235	0.018
-227.727	36.764	0.160	0.139
-226.713	-61.649	-0.122	-0.051
-225.698	-132.436	0.201	0.026
-224.684	297.202	-0.092	-0.166
-223.669	-83.089	0.274	-0.087
-222.655	-19.684	0.048	0.029
-221.640	-120.700	0.151	-0.025
-220.625	274.921	0.056	-0.099
-219.611	-127.687	0.364	0.052
-218.596	800.000	0.003	-0.008
-217.582	24.226	-0.129	-0.105
-216.567	625.708	0.044	0.110
-215.552	-76.069	-0.213	-0.074
-214.538	-200.000	-0.027	0.324
-213.523	6.797	0.094	-0.069
-212.509	150.399	-0.152	-0.204
-211.494	-200.000	0.104	-0.453
-210.479	205.789	-0.229	0.351
-209.465	-53.319	-0.035	-0.016
-208.450	-10.689	0.349	0.228
-207.436	146.384	0.193	-0.255
-206.421	63.619	0.062	-0.061
-205.406	149.891	0.126	-0.169
-204.392	-93.634	-0.049	0.013
-203.377	81.900	-0.095	-0.101
-202.363	-35.748	-0.044	-0.024
-201.348	-133.366	0.173	-0.022
-200.333	11.315	-0.092	0.070
-199.319	116.278	0.165	0.199
-198.304	240.173	-0.006	-0.011
-197.290	-200.000	-0.019	-0.352
-196.275	-138.505	-0.132	0.014
-195.260	-200.000	-0.020	0.146
-194.246	-200.000	-0.012	-0.088
-193.231	800.000	0.150	0.493
-192.217	-200.000	-0.039	0.263
-191.202	-200.000	-0.018	0.292
-190.187	-98.455	0.205	-0.052
-189.173	-55.151	-0.364	0.161
-188.158	49.271	-0.212	-0.197
-187.144	-200.000	0.233	-0.001
-186.129	-153.426	-0.186	-0.013
-185.114	800.000	0.059	-0.200
-184.100	-200.000	-0.017	-0.372
-183.085	525.628	0.075	0.174
-182.071	-17.389	-0.026	0.016
-181.056	-141.150	-0.547	0.055
-180.042	-113.835	-0.301	-0.058
-179.027	-148.714	0.367	0.029
-178.012	-28.043	-0.168	0.096
-176.998	229.125	-0.163	0.262
-175.983	4.298	0.228	0.165
-174.969	32.617	-0.101	-0.086
-173.954	-50.668	0.145	0.067
-172.939	-98.310	0.555	-0.140
-171.925	290.269	0.118	-0.210
-170.910	-200.000	-0.028	-0.153
-169.896	-74.251	0.290	0.103
-168.881	-200.000	0.008	-0.430
-167.866	-67.382	-0.081	-0.031
-166.852	-1.713	0.259	0.179
-165.837	2.059	0.150	-0.107
-164.823	800.000	0.030	0.118
-163.808	-159.337	0.298	-0.016
-162.793	19.073	-0.129	-0.102
-161.779	800.000	0.133	0.405
-160.764	372.083	0.029	-0.058
-159.750	-200.000	-0.005	0.339
-158.735	2.053	-0.197	0.140
-157.720	32.020	-0.060	-0.051
-156.706	-39.370	-0.217	-0.112
-155.691	-66.139	-0.040	-0.016
-154.677	-102.425	0.247	0.058
-153.662	-200.000	0.005	0.154
-152.647	34.361	-0.306	-0.263
-151.633	-200.000	-0.067	-0.528
-150.618	-118.473	0.195	0.034
-149.604	89.536	-0.234	-0.257
-148.589	69.076	0.086	-0.087
-147.574	2.294	-0.207	-0.147
-146.560	-200.000	-0.016	-0.112
-145.545	800.000	0.063	0.193
-144.531	-200.000	-0.045	-0.258
-143.516	56.525	0.206	-0.197
-142.502	224.676	-0.135	0.216
-141.487	-34.624	-0.067	-0.036
-140.472	-37.391	-0.147	-0.077
-139.458	99.633	0.130	-0.148
-138.443	-116.373	-0.152	0.028
-137.429	-65.074	0.194	0.077
-136.414	-200.000	-0.058	0.318
-135.399	-34.648	-0.215	0.116
-134.385	-114.742	0.430	-0.081
-133.370	573.256	-0.079	0.189
-132.356	-68.313	0.057	0.022
-131.341	253.505	-0.044	0.073
-130.326	345.106	-0.079	0.153
-129.312	51.578	-0.383	-0.359
-128.297	-38.480	0.034	0.018
-127.283	-37.292	-0.084	0.044
-126.268	361.161	0.061	0.121
-125.253	141.020	0.073	0.094
-124.239	-109.833	0.144	-0.030
-123.224	-28.452	0.253	0.143
-122.210	-200.000	-0.007	-0.272
-121.195	-45.505	-0.151	0.074
-120.180	-83.667	0.262	0.082
-119.166	-25.482	-0.336	0.195
-118.151	195.914	-0.061	0.092
-117.137	-178.551	0.427	0.010
-116.122	-155.816	0.142	-0.009
-115.107	20.049	0.146	-0.115
-114.093	754.329	-0.077	-0.205
-113.078	529.529	0.078	0.182
-112.064	86.453	0.161	0.175
-111.049	-94.933	0.237	-0.063
-110.034	436.465	-0.149	-0.320
-109.020	15.067	0.091	-0.070
-108.005	-60.886	-0.261	-0.108
-106.991	-200.000	-0.034	-0.271
-105.976	-7.894	0.137	-0.091
-104.962	206.024	-0.113	-0.173
-103.947	223.633	0.071	-0.112
-102.932	94.557	0.037	-0.041
-101.918	-51.729	0.551	0.252
-100.903	-136.291	-0.227	-0.026
-99.889	-75.120	0.173	0.061
-98.874	-200.000	-0.026	0.329
-97.859	800.000	0.079	0.283
-96.845	-21.677	-0.193	-0.116
-95.830	-30.737	0.324	0.180
-94.816	145.111	-0.191	0.251
-93.801	-172.858	0.393	-0.012
-92.786	-107.655	0.357	-0.077
-91.772	712.607	-0.032	-0.084
-90.757	800.000	-0.070	0.281
-89.743	184.413	-0.213	0.310
-88.728	50.302	0.341	-0.317
-87.713	444.558	0.160	-0.345
-86.699	392.580	0.065	0.132
-85.684	49.913	-0.291	-0.269
-84.670	237.143	-0.077	-0.126
-83.655	-67.201	0.126	-0.049
-82.640	211.136	0.072	0.112
-81.626	-200.000	-0.018	0.264
-80.611	800.000	-0.110	0.411
-79.597	-92.299	0.246	0.068
-78.582	67.123	-0.121	0.121
-77.567	390.294	-0.100	-0.204
-76.553	-200.000	-0.033	0.180
-75.538	800.000	-0.048	-0.192
-74.524	800.000	-0.026	0.098
-73.509	35.990	0.137	0.119
-72.494	-200.000	-0.054	-0.328
-71.480	172.402	-0.053	-0.075
-70.465	800.000	-0.052	-0.148
-69.451	-24.413	-0.137	0.080
-68.436	-54.010	-0.335	0.150
-67.422	-50.197	0.224	-0.104
-66.407	10.884	-0.101	-0.076
-65.392	-90.256	0.421	-0.120
-64.378	-25.390	-0.243	-0.141
-63.363	-92.554	-0.335	-0.092
-62.349	319.233	0.218	0.406
-61.334	9.080	-0.996	-0.738
-60.319	-20.992	0.381	0.229
-59.305	717.247	-0.511	-1.331
-58.290	407.266	0.658	1.365
-57.276	617.186	0.572	1.409
-56.261	-200.000	107.173	583.210
-55.246	453.007	1466.780	3183.815
-54.232	147.824	2659.030	3516.759
-53.217	100.026	2290.485	2604.720
-52.203	38.694	1902.861	1665.889
-51.188	32.917	1691.232	1436.746
-50.173	30.286	1647.971	1380.401
-49.159	48.721	1700.800	1564.472
-48.144	49.282	1716.027	1582.661
-47.130	32.574	1673.292	1418.702
-46.115	29.807	1659.459	1386.214
-45.100	29.641	1654.909	1381.114
-44.086	29.534	1652.464	1378.224
-43.071	29.493	1649.663	1375.529
-42.057	29.589	1646.711	1373.726
-41.042	29.571	1645.303	1372.362
-40.027	29.666	1642.878	1370.991
-39.013	29.522	1641.260	1368.517
-37.998	29.684	1639.181	1367.929
-36.984	29.605	1638.130	1366.413
-35.969	29.736	1636.653	1366.096
-34.954	29.748	1635.140	1364.866
-33.940	29.781	1633.488	1363.674
-32.925	29.748	1631.999	1362.139
-31.911	29.699	1630.028	1360.079
-30.896	29.694	1628.143	1358.415
-29.881	29.664	1626.558	1356.817
-28.867	29.730	1624.683	1355.682
-27.852	29.647	1623.568	1354.088
-26.838	29.687	1622.464	1353.412
-25.823	29.709	1620.921	1352.226
-24.809	29.811	1619.244	1351.523
-23.794	29.735	1618.127	1349.980
-22.779	29.715	1616.239	1348.205
-21.765	29.698	1614.698	1346.739
-20.750	29.694	1613.201	1345.414
-19.736	29.716	1611.734	1344.295
-18.721	29.683	1610.749	1343.182
-17.706	29.760	1608.417	1341.744
-16.692	29.769	1607.401	1340.904
-15.677	29.722	1606.034	1339.373
-14.663	29.752	1604.707	1338.430
-13.648	29.794	1603.140	1337.375
-12.633	29.718	1602.129	1335.925
-11.619	29.748	1599.828	1334.169
-10.604	29.823	1598.759	1333.763
-9.590	29.788	1597.830	1332.689
-8.575	29.824	1595.924	1331.304
-7.560	29.749	1595.505	1330.359
-6.546	29.820	1593.767	1329.367
-5.531	29.703	1593.336	1328.118
-4.517	29.698	1592.323	1327.185
-3.502	29.700	1591.034	1326.074
-2.487	29.868	1588.764	1325.334
-1.473	29.504	1577.298	1313.124
-0.458	26.831	1558.313	1278.455
0.556	21.699	1560.049	1248.964
1.571	19.544	1584.513	1252.811
2.586	19.261	1597.747	1261.095
3.600	17.783	1544.995	1208.881
4.615	9.897	1435.034	1070.642
5.629	1.789	1369.750	970.354
6.644	0.288	1360.846	954.461
7.659	0.094	1359.796	952.410
8.673	0.076	1358.614	951.387
9.688	0.012	1356.852	949.661
10.702	-0.142	1354.143	946.711
11.717	3.566	1360.375	974.428
12.731	12.224	1374.311	1039.361
13.746	17.434	1380.463	1076.983
14.761	17.246	1378.447	1074.127
15.775	16.216	1376.098	1065.700
16.790	15.111	1373.449	1056.581
17.804	14.368	1371.405	1050.234
18.819	14.032	1369.837	1046.827
19.834	13.700	1368.495	1043.619
20.848	13.437	1367.164	1040.857
21.863	13.362	1365.243	1038.833
22.877	13.196	1364.531	1037.159
23.892	13.076	1363.999	1035.907
24.907	13.061	1363.170	1035.094
25.921	12.979	1362.570	1034.029
26.936	13.068	1361.275	1033.511
27.950	13.091	1360.348	1032.864
28.965	13.218	1359.404	1032.848
29.980	13.258	1358.238	1032.123
30.994	13.301	1358.013	1032.129
32.009	13.411	1356.462	1031.544
33.023	13.309	1355.895	1030.384
34.038	13.296	1354.435	1029.100
35.053	13.232	1353.228	1027.696
36.067	13.365	1351.819	1027.362
37.082	13.327	1351.058	1026.454
38.096	13.296	1350.401	1025.672
39.111	13.263	1349.358	1024.584
40.126	13.285	1348.372	1023.885
41.140	13.123	1348.033	1022.535
42.155	13.051	1347.546	1021.630
43.169	13.031	1347.624	1021.474
44.184	13.122	1346.481	1021.078
45.199	13.169	1346.225	1021.084
46.213	13.220	1345.534	1020.786
47.228	13.218	1344.851	1020.164
48.242	13.264	1343.215	1019.113
49.257	13.083	1342.584	1017.435
50.271	13.191	1341.066	1016.854
51.286	13.303	1339.552	1016.309
52.301	13.274	1337.992	1014.856
53.315	13.181	1337.320	1013.682
54.330	13.151	1336.170	1012.540
55.344	13.154	1334.857	1011.475
56.359	13.139	1334.001	1010.646
57.374	13.073	1333.244	1009.575
58.388	12.978	1332.840	1008.600
59.403	13.044	1331.991	1008.275
60.417	13.051	1331.260	1007.675
61.432	13.008	1330.322	1006.614
62.447	13.114	1328.897	1006.087
63.461	12.978	1327.889	1004.411
64.476	12.950	1327.551	1003.897
65.490	13.028	1325.573	1002.785
66.505	13.009	1324.244	1001.573
67.520	13.070	1322.702	1000.692
68.534	13.114	1321.918	1000.277
69.549	13.003	1320.900	998.745
70.563	12.888	1320.336	997.537
71.578	12.944	1318.806	996.631
72.593	12.844	1317.964	995.298
73.607	12.880	1317.112	994.783
74.622	12.923	1316.054	994.158
75.636	12.960	1315.323	993.738
76.651	12.984	1314.663	993.298
77.666	12.997	1313.912	992.719
78.680	12.983	1313.505	992.243
79.695	13.019	1312.564	991.659
80.709	12.912	1312.384	990.794
81.724	13.080	1310.939	990.625
82.739	13.143	1309.847	990.085
83.753	13.110	1309.306	989.392
84.768	13.174	1307.928	988.646
85.782	13.239	1306.642	987.976
86.797	13.138	1305.894	986.718
87.812	13.139	1304.527	985.605
88.826	13.167	1303.337	984.785
89.841	13.223	1302.085	984.085
90.855	13.199	1301.227	983.208
91.870	13.204	1300.655	982.720
92.884	13.226	1300.134	982.371
93.899	13.283	1298.930	981.710
94.914	13.279	1297.992	980.892
95.928	13.297	1297.311	980.396
96.943	13.320	1296.145	979.562
97.957	13.234	1295.777	978.689
98.972	13.296	1294.469	977.983
99.987	13.316	1292.984	976.893
101.001	13.257	1292.493	976.084
102.016	13.227	1291.247	974.880
103.030	13.300	1290.239	974.465
104.045	13.258	1289.365	973.469
105.060	13.308	1288.140	972.757
106.074	13.226	1287.052	971.364
107.089	13.088	1286.063	969.724
108.103	13.070	1284.861	968.623
109.118	13.066	1283.408	967.421
110.133	13.096	1282.209	966.608
111.147	13.151	1280.796	965.776
112.162	13.094	1279.452	964.347
113.176	13.046	1278.925	963.586
114.191	13.172	1278.180	963.668
115.206	13.133	1276.745	962.274
116.220	13.211	1275.206	961.484
117.235	13.147	1274.260	960.317
118.249	13.182	1273.396	959.783
119.264	13.095	1272.512	958.523
120.279	13.149	1271.098	957.689
121.293	13.041	1270.317	956.389
122.308	13.061	1268.808	955.286
123.322	13.058	1268.148	954.686
124.337	13.080	1266.997	953.866
125.352	13.058	1266.000	952.902
126.366	13.025	1264.758	951.693
127.381	13.047	1263.925	951.109
128.395	13.052	1262.867	950.256
129.410	13.092	1261.418	949.309
130.424	13.181	1260.880	949.332
131.439	13.069	1260.251	948.134
132.454	13.199	1258.701	947.627
133.468	13.192	1257.977	946.961
134.483	13.374	1256.974	947.161
135.497	13.259	1256.324	945.930
136.512	13.258	1254.909	944.775
137.527	13.078	1253.961	942.954
138.541	13.238	1251.906	942.235
139.556	13.190	1250.895	941.117
140.570	13.275	1249.985	940.833
141.585	13.287	1248.830	939.950
142.600	13.278	1247.323	938.679
143.614	13.322	1246.702	938.378
144.629	13.407	1245.672	938.003
145.643	13.357	1244.710	936.910
146.658	13.354	1243.483	935.889
147.673	13.362	1241.889	934.652
148.687	13.339	1240.547	933.429
149.702	13.293	1239.647	932.410
150.716	13.284	1238.059	931.084
151.731	13.206	1236.927	929.711
152.746	13.247	1236.389	929.455
153.760	13.197	1235.333	928.297
154.775	13.346	1233.817	927.912
155.789	13.290	1232.893	926.822
156.804	13.393	1231.770	926.471
157.819	13.488	1230.461	925.937
158.833	13.448	1230.151	925.399
159.848	13.430	1229.155	924.468
160.862	13.546	1227.615	923.873
161.877	13.457	1226.462	922.427
162.892	13.420	1225.676	921.547
163.906	13.386	1224.979	920.754
164.921	13.417	1224.100	920.184
165.935	13.405	1223.290	919.427
166.950	13.473	1222.271	918.960
167.964	13.433	1221.478	918.059
168.979	13.478	1220.467	917.466
169.994	13.509	1220.214	917.369
171.008	13.524	1219.090	916.523
172.023	13.628	1218.621	916.664
173.037	13.592	1217.600	915.617
174.052	13.543	1216.965	914.790
175.067	13.451	1215.956	913.440
176.081	13.491	1214.694	912.634
177.096	13.447	1214.375	912.069
178.110	13.605	1212.241	911.256
179.125	13.535	1211.824	910.476
180.140	13.596	1210.452	909.700
181.154	13.644	1208.722	908.582
182.169	13.591	1207.892	907.589
183.183	13.677	1206.542	906.963
184.198	13.688	1205.830	906.410
185.213	13.737	1204.486	905.584
186.227	13.696	1203.495	904.534
187.242	13.655	1202.847	903.745
188.256	13.657	1202.019	903.054
189.271	13.729	1200.855	902.493
190.286	13.649	1199.619	901.049
191.300	13.452	1199.092	899.500
192.315	13.538	1198.142	899.180
193.329	13.550	1197.295	898.528
194.344	13.695	1196.641	898.743
195.359	13.688	1196.094	898.215
196.373	13.740	1195.589	898.037
197.388	13.765	1195.099	897.723
198.402	13.877	1194.278	897.635
199.417	13.920	1193.438	897.157
200.432	13.987	1192.443	896.692
201.446	13.943	1192.017	896.055
202.461	14.059	1191.343	896.091
203.475	14.046	1189.963	894.904
204.490	13.989	1189.029	893.818
205.504	13.908	1188.263	892.729
206.519	13.945	1186.500	891.523
207.534	13.878	1185.943	890.664
208.548	13.886	1184.438	889.497
209.563	13.962	1183.802	889.348
210.577	13.845	1183.411	888.350
211.592	13.999	1182.492	888.406
212.607	13.920	1181.858	887.430
213.621	14.114	1180.379	887.277
214.636	14.132	1179.178	886.392
215.650	14.054	1178.513	885.397
216.665	14.038	1177.897	884.770
217.680	14.105	1177.245	884.560
218.694	14.233	1175.905	884.155
219.709	14.162	1175.538	883.420
220.723	14.193	1174.654	882.842
221.738	14.197	1173.925	882.239
222.753	14.218	1173.018	881.591
223.767	14.100	1172.752	880.689
224.782	14.304	1172.102	881.201
225.796	14.297	1171.589	880.698
226.811	14.381	1170.500	880.247
227.826	14.313	1169.642	879.168
228.840	14.327	1169.225	878.847
229.855	14.287	1168.232	877.813
230.869	14.324	1166.986	876.993
231.884	14.195	1166.995	876.246
232.899	14.256	1166.055	875.779
233.913	14.323	1165.141	875.371
234.928	14.393	1163.955	874.768
235.942	14.219	1163.730	873.607
236.957	14.238	1162.998	873.083
237.972	14.286	1162.519	872.898
238.986	14.378	1161.419	872.475
240.001	14.360	1160.530	871.635
241.015	14.340	1159.914	870.991
242.030	14.416	1159.200	870.775
243.045	14.444	1158.264	870.139
244.059	14.488	1157.396	869.644
245.074	14.396	1156.940	868.745
246.088	14.475	1155.772	868.202
247.103	14.537	1155.054	867.908
248.117	14.567	1154.430	867.517
249.132	14.596	1153.903	867.196
250.147	14.700	1152.904	866.906
251.161	14.680	1152.373	866.326
252.176	14.794	1151.669	866.310
253.190	14.711	1151.263	865.502
254.205	14.805	1150.430	865.285
255.220	14.886	1149.503	864.927
256.234	14.812	1149.056	864.136
257.249	14.812	1148.348	863.525
258.263	14.774	1148.069	863.044
259.278	14.836	1147.263	862.681
260.293	14.845	1146.519	862.091
261.307	14.877	1145.940	861.745
262.322	14.909	1145.529	861.526
263.336	14.962	1144.522	860.965
264.351	15.018	1144.165	860.907
265.366	15.001	1143.311	860.101
266.380	15.073	1142.435	859.733
267.395	14.938	1141.972	858.618
268.409	14.992	1140.998	858.085
269.424	14.923	1140.806	857.514
270.439	14.987	1139.949	857.121
271.453	14.904	1139.377	856.191
272.468	15.036	1138.355	856.021
273.482	14.908	1137.869	854.926
274.497	14.979	1137.197	854.708
275.512	14.823	1136.626	853.404
276.526	15.071	1135.564	853.800
277.541	15.045	1134.875	853.074
278.555	14.974	1134.309	852.207
279.570	15.054	1133.686	852.072
280.585	15.270	1132.512	852.216
281.599	15.082	1131.750	850.610
282.614	15.143	1130.869	850.183
283.628	15.021	1129.958	848.803
284.643	15.188	1128.759	848.675
285.657	15.161	1128.095	847.960
286.672	15.257	1127.057	847.590
287.687	15.234	1126.172	846.736
288.701	15.236	1125.362	846.061
289.716	15.259	1124.948	845.790
290.730	15.221	1124.385	845.104
291.745	15.357	1123.618	845.137
292.760	15.266	1122.388	843.680
293.774	15.358	1122.457	844.119
294.789	15.398	1122.069	843.950
295.803	15.435	1121.312	843.496
296.818	15.313	1120.755	842.390
297.833	15.334	1119.644	841.585
298.847	15.329	1119.113	841.086
299.862	15.409	1118.104	840.655
300.876	15.358	1117.188	839.635
301.891	15.501	1116.802	839.984
302.906	15.512	1115.921	839.306
303.920	15.426	1115.659	838.604
304.935	15.593	1114.657	838.611
305.949	15.502	1114.233	837.760
306.964	15.568	1113.851	837.730
307.979	15.617	1112.625	836.977
308.993	15.508	1111.663	835.638
310.008	15.623	1110.912	835.570
311.022	15.546	1110.557	834.847
312.037	15.703	1109.082	834.444
313.052	15.662	1108.370	833.631
314.066	15.601	1107.894	832.898
315.081	15.602	1106.925	832.100
316.095	15.595	1106.121	831.387
317.110	15.670	1105.079	830.902
318.125	15.614	1104.833	830.366
319.139	15.642	1103.947	829.763
320.154	15.515	1103.650	828.841
321.168	15.529	1102.948	828.309
322.183	15.617	1102.183	828.094
323.197	15.713	1101.662	828.106
324.212	15.727	1101.411	827.910
325.227	15.644	1100.767	826.946
326.241	15.754	1099.871	826.741
327.256	15.688	1098.885	825.601
328.270	15.619	1098.209	824.684
329.285	15.685	1096.938	823.975
330.300	15.599	1096.549	823.190
331.314	15.735	1095.447	822.958
332.329	15.676	1094.570	821.935
333.343	15.706	1093.777	821.414
334.358	15.762	1093.108	821.114
335.373	15.849	1092.616	821.095
336.387	15.813	1091.682	820.147
337.402	15.921	1091.018	820.101
338.416	15.901	1090.764	819.740
339.431	15.891	1089.438	818.622
340.446	16.059	1089.189	819.178
341.460	16.019	1087.832	817.891
342.475	15.986	1087.536	817.437
343.489	16.102	1086.587	817.211
344.504	16.102	1085.372	816.226
345.519	16.153	1084.494	815.739
346.533	16.307	1083.480	815.649
347.548	16.233	1083.137	814.962
348.562	16.211	1082.360	814.198
349.577	16.166	1081.959	813.606
350.592	16.036	1081.289	812.408
351.606	15.988	1080.693	811.654
352.621	16.055	1080.304	811.614
353.635	16.091	1079.076	810.794
354.650	16.126	1078.489	810.450
355.665	16.189	1077.435	809.887
356.679	16.148	1076.975	809.272
357.694	16.255	1076.101	809.056
358.708	16.088	1075.718	807.899
359.723	16.208	1075.048	807.897
360.738	16.264	1074.201	807.456
361.752	16.317	1074.108	807.567
362.767	16.263	1073.165	806.530
363.781	16.269	1073.185	806.503
364.796	16.292	1072.352	805.918
365.810	16.440	1071.386	805.826
366.825	16.438	1070.842	805.333
367.840	16.471	1070.236	804.966
368.854	16.555	1069.762	804.936
369.869	16.576	1068.835	804.267
370.883	16.491	1068.118	803.255
371.898	16.491	1067.824	802.961
372.913	16.636	1066.813	802.818
373.927	16.439	1066.606	801.656
374.942	16.615	1066.239	802.145
375.956	16.535	1065.721	801.304
376.971	16.587	1064.951	800.901
377.986	16.605	1064.356	800.466
379.000	16.736	1063.669	800.497
380.015	16.547	1063.355	799.297
381.029	16.699	1062.453	799.269
382.044	16.793	1061.474	798.904
383.059	16.846	1060.973	798.706
384.073	16.755	1060.223	797.644
385.088	16.745	1059.600	797.056
386.102	16.694	1058.858	796.189
387.117	16.748	1057.668	795.476
388.132	16.747	1056.362	794.416
389.146	16.795	1055.861	794.194
390.161	16.669	1055.162	793.010
391.175	16.735	1054.375	792.658
392.190	16.773	1053.779	792.315
393.205	16.988	1052.654	792.404
394.219	16.942	1052.064	791.675
395.234	16.859	1051.236	790.595
396.248	16.836	1050.132	789.588
397.263	16.844	1049.321	788.947
398.278	16.789	1048.996	788.375
399.292	16.769	1048.366	787.738
400.307	16.829	1047.397	787.221
401.321	16.762	1046.990	786.535
402.336	16.882	1046.151	786.391
403.350	16.848	1045.360	785.569
404.365	16.918	1044.635	785.281
405.380	16.970	1043.906	784.903
406.394	16.989	1043.309	784.472
407.409	17.018	1042.667	784.055
408.423	17.062	1041.807	783.539
409.438	17.045	1041.195	782.934
410.453	17.010	1040.633	782.279
411.467	17.099	1039.762	781.966
412.482	17.063	1039.313	781.393
413.496	17.056	1039.076	781.113
414.511	17.318	1037.854	781.329
415.526	17.029	1037.843	779.924
416.540	17.320	1037.115	780.645
417.555	17.227	1036.732	779.861
418.569	17.066	1036.429	778.825
419.584	17.188	1035.729	778.790
420.599	17.296	1035.108	778.748
421.613	102.997	1322.960	1468.831
422.628	94.360	1364.851	1468.948
