DTS Sentinel unit serial number:	SN413079Multiplexer serial number:	ORYXHardware model number:	OX4-SRSoftware version number:	ORYX F/W v4.00 Oryx Data Collector v3.7.2.0data status	okinstallation	princeton_trtdifferential loss correction	single-endedforward channel	channel 2reverse channel	N/Adate	2019/09/16time	10:47:34forward acquisition time	60.00reverse acquisition time	0.00gamma	496.2192k internal	0.2316k external	0.2316temperature offset calibration	0.9956default loss term (dB/km)	0.3790temperature slope calibration	1.0000multiplexer offset coefficient	1.0000multiplexer slope coefficient	1.0000fibre end	0.00T internal ref (°C)	36.20T ext. ref 1 (°C)	12.69T ext. ref 2 (°C)	34.49length (m)	temperature (°C)	Stokes	anti-Stokes-747.200	75.973	-0.175	-0.188
-746.185	65.054	-0.230	0.236
-745.171	-200.000	0.035	0.195
-744.156	0.445	-0.189	-0.137
-743.142	-132.895	0.196	0.025
-742.127	-200.000	0.071	0.452
-741.112	17.899	0.039	-0.031
-740.098	-200.000	0.020	0.524
-739.083	-200.000	0.006	-0.302
-738.069	800.000	-0.037	0.128
-737.054	-81.175	-0.261	0.087
-736.039	800.000	-0.096	0.332
-735.025	15.544	0.234	0.186
-734.010	-90.217	0.133	0.039
-732.996	-16.555	-0.466	-0.299
-731.981	-149.256	-0.188	-0.015
-730.966	-200.000	-0.006	0.178
-729.952	254.887	-0.093	-0.161
-728.937	-157.509	0.151	0.009
-727.923	-118.746	-0.376	0.067
-726.908	-200.000	0.044	-0.325
-725.894	-6.605	-0.172	-0.118
-724.879	-14.365	-0.077	-0.050
-723.864	-200.000	0.006	0.097
-722.850	-26.535	0.350	0.207
-721.835	800.000	0.030	-0.122
-720.821	-200.000	-0.036	-0.233
-719.806	-200.000	-0.006	-0.496
-718.791	-81.736	-0.174	-0.058
-717.777	526.679	0.130	0.310
-716.762	-71.313	0.152	-0.058
-715.748	800.000	0.213	0.644
-714.733	180.098	-0.143	-0.213
-713.718	49.288	0.207	-0.197
-712.704	128.666	-0.118	0.152
-711.689	-200.000	0.011	-0.076
-710.675	468.389	-0.145	-0.329
-709.660	-200.000	0.308	0.001
-708.645	-66.492	0.300	-0.120
-707.631	56.399	0.335	-0.330
-706.616	39.475	-0.093	0.085
-705.602	6.559	-0.121	-0.091
-704.587	26.317	-0.089	0.075
-703.572	-145.993	0.264	0.024
-702.558	53.137	0.132	0.128
-701.543	154.815	0.023	0.032
-700.529	-200.000	-0.025	-0.356
-699.514	-130.763	-0.190	-0.026
-698.499	191.566	-0.115	-0.176
-697.485	-58.056	0.146	0.064
-696.470	-126.916	0.179	-0.027
-695.456	-76.265	0.162	-0.058
-694.441	800.000	-0.017	-0.050
-693.426	-77.449	-0.268	0.094
-692.412	359.965	0.086	-0.174
-691.397	800.000	-0.074	0.215
-690.383	-108.080	-0.447	0.098
-689.368	53.276	-0.102	-0.098
-688.354	-200.000	-0.005	0.042
-687.339	196.908	-0.032	-0.049
-686.324	82.883	-0.136	-0.149
-685.310	27.344	0.084	0.071
-684.295	212.873	-0.098	-0.156
-683.281	732.946	0.154	-0.416
-682.266	-109.591	-0.220	-0.047
-681.251	129.172	0.195	-0.251
-680.237	800.000	-0.058	-0.170
-679.222	132.969	-0.136	-0.177
-678.208	6.444	0.267	-0.201
-677.193	-139.087	0.306	0.033
-676.178	-200.000	-0.018	0.378
-675.164	800.000	0.063	0.276
-674.149	-182.189	0.140	0.003
-673.135	373.433	0.150	0.308
-672.120	-122.414	-0.254	-0.042
-671.105	-200.000	-0.055	-0.385
-670.091	800.000	-0.043	0.135
-669.076	562.119	0.080	-0.195
-668.062	-40.737	0.360	-0.188
-667.047	-118.980	-0.180	0.032
-666.032	-79.452	0.278	0.095
-665.018	94.927	-0.264	-0.304
-664.003	28.898	-0.066	-0.056
-662.989	-200.000	0.002	0.101
-661.974	7.272	0.151	-0.114
-660.959	-175.135	0.083	-0.002
-659.945	-161.753	-0.087	-0.004
-658.930	13.160	-0.097	0.076
-657.916	-136.650	-0.159	0.019
-656.901	-6.275	-0.337	0.232
-655.886	61.351	0.097	-0.098
-654.872	-200.000	-0.011	0.312
-653.857	151.109	-0.074	0.102
-652.843	-175.155	0.263	-0.007
-651.828	-115.767	0.070	-0.013
-650.814	210.186	-0.073	0.116
-649.799	337.595	0.200	0.393
-648.784	-160.770	-0.179	0.010
-647.770	800.000	-0.076	-0.287
-646.755	-77.029	0.036	0.013
-645.741	-200.000	0.077	-0.484
-644.726	647.365	0.053	-0.138
-643.711	800.000	0.089	0.262
-642.697	-96.949	0.066	0.018
-641.682	-56.678	-0.236	0.106
-640.668	-6.418	0.221	-0.152
-639.653	216.224	0.129	-0.207
-638.638	232.746	0.178	-0.295
-637.624	320.651	0.122	-0.234
-636.609	-200.000	0.059	-0.269
-635.595	2.902	-0.047	0.035
-634.580	315.782	-0.125	0.238
-633.565	-200.000	-0.002	0.017
-632.551	-28.959	-0.127	-0.074
-631.536	51.006	0.274	0.262
-630.522	-117.700	-0.262	0.048
-629.507	800.000	-0.053	0.154
-628.492	-200.000	0.047	0.396
-627.478	42.895	0.143	-0.131
-626.463	25.018	-0.131	0.110
-625.449	58.552	-0.039	-0.039
-624.434	88.322	-0.132	-0.148
-623.419	16.035	-0.081	-0.064
-622.405	-24.157	0.144	-0.087
-621.390	71.848	0.207	-0.217
-620.376	-200.000	0.048	-0.283
-619.361	-200.000	-0.017	-0.123
-618.346	61.040	-0.058	0.058
-617.332	800.000	0.046	0.151
-616.317	4.365	0.286	0.211
-615.303	640.956	0.047	-0.122
-614.288	-118.086	-0.488	-0.088
-613.273	-126.513	0.237	0.035
-612.259	-65.900	-0.205	-0.083
-611.244	413.038	-0.118	-0.253
-610.230	-156.111	0.130	-0.008
-609.215	800.000	-0.015	0.058
-608.201	-200.000	-0.021	-0.158
-607.186	97.316	-0.229	0.265
-606.171	89.344	-0.246	-0.276
-605.157	-38.761	-0.392	-0.208
-604.142	-99.370	-0.304	-0.077
-603.128	800.000	-0.051	-0.189
-602.113	103.298	-0.053	0.062
-601.098	18.019	-0.204	-0.164
-600.084	-73.711	-0.181	0.067
-599.069	800.000	0.033	0.107
-598.055	225.820	-0.174	0.284
-597.040	153.614	-0.034	0.047
-596.025	188.832	-0.179	-0.270
-595.011	123.100	-0.123	-0.155
-593.996	-58.587	-0.336	-0.147
-592.982	305.353	-0.050	-0.094
-591.967	-97.966	0.209	-0.054
-590.952	-200.000	-0.003	0.042
-589.938	-57.455	0.194	-0.086
-588.923	442.956	-0.097	-0.215
-587.909	-64.723	0.163	-0.067
-586.894	-83.048	-0.171	-0.055
-585.879	567.139	-0.061	-0.148
-584.865	-143.590	0.095	-0.009
-583.850	88.979	0.108	0.121
-582.836	-46.228	0.255	-0.126
-581.821	-89.648	-0.258	0.076
-580.806	-200.000	-0.081	-0.399
-579.792	-66.640	0.014	-0.006
-578.777	-102.879	-0.102	0.024
-577.763	-22.219	-0.139	-0.085
-576.748	-45.597	0.330	-0.164
-575.733	-185.940	0.135	-0.002
-574.719	-156.495	0.310	0.019
-573.704	58.216	-0.039	-0.039
-572.690	-53.450	-0.076	0.035
-571.675	-90.458	-0.171	-0.050
-570.661	-178.468	-0.209	0.005
-569.646	800.000	0.045	0.192
-568.631	800.000	-0.151	0.489
-567.617	75.684	-0.161	0.172
-566.602	-50.092	-0.240	0.115
-565.588	160.732	0.110	-0.155
-564.573	-88.736	0.107	0.032
-563.558	-95.785	-0.131	0.035
-562.544	800.000	0.087	0.329
-561.529	800.000	-0.106	-0.349
-560.515	-200.000	-0.009	-0.287
-559.500	50.936	0.174	0.166
-558.485	50.019	0.159	-0.151
-557.471	-132.781	0.129	-0.017
-556.456	800.000	0.105	-0.324
-555.442	401.550	0.017	-0.037
-554.427	-89.461	0.108	0.032
-553.412	-76.722	-0.187	-0.066
-552.398	492.010	-0.141	-0.325
-551.383	125.472	-0.117	-0.148
-550.369	-121.599	-0.322	-0.054
-549.354	-200.000	0.010	-0.406
-548.339	800.000	0.062	0.228
-547.325	-43.614	0.154	-0.078
-546.310	158.698	0.084	0.117
-545.296	-25.967	0.147	0.087
-544.281	146.160	0.142	-0.192
-543.266	145.377	-0.227	0.305
-542.252	-3.413	-0.045	0.031
-541.237	-200.000	-0.011	-0.373
-540.223	175.476	-0.204	0.297
-539.208	120.312	-0.064	0.079
-538.193	-82.847	-0.367	-0.119
-537.179	73.378	-0.310	0.325
-536.164	-110.232	0.314	-0.066
-535.150	80.310	0.255	0.276
-534.135	163.172	0.246	-0.348
-533.121	-200.000	0.023	-0.159
-532.106	163.306	0.129	-0.182
-531.091	-200.000	0.000	0.067
-530.077	-51.080	0.063	0.029
-529.062	-54.761	0.319	-0.145
-528.048	800.000	0.077	-0.292
-527.033	-200.000	0.046	0.216
-526.018	705.163	-0.128	0.339
-525.004	107.084	-0.187	0.223
-523.989	-115.068	0.080	-0.015
-522.975	-17.369	-0.314	-0.199
-521.960	86.808	-0.086	0.095
-520.945	337.039	0.127	0.247
-519.931	547.302	-0.073	-0.175
-518.916	-137.226	0.284	0.032
-517.902	-166.011	-0.292	-0.012
-516.887	800.000	-0.043	0.181
-515.872	-136.700	0.117	-0.014
-514.858	-200.000	0.006	-0.148
-513.843	12.600	0.123	-0.095
-512.829	164.815	0.188	-0.266
-511.814	-84.529	-0.114	-0.036
-510.799	514.813	-0.055	0.130
-509.785	-111.895	-0.203	0.041
-508.770	91.335	0.066	-0.075
-507.756	180.803	-0.126	-0.185
-506.741	-200.000	0.025	-0.153
-505.726	323.402	-0.077	-0.147
-504.712	56.345	-0.118	0.115
-503.697	61.320	0.169	0.168
-502.683	150.919	-0.063	0.086
-501.668	63.088	-0.068	-0.068
-500.653	-71.052	-0.257	-0.097
-499.639	-58.489	0.273	0.119
-498.624	-200.000	-0.046	0.309
-497.610	800.000	-0.081	0.270
-496.595	532.512	-0.040	-0.095
-495.581	1.659	0.141	0.102
-494.566	13.657	0.062	0.048
-493.551	131.595	0.146	-0.188
-492.537	-80.018	-0.100	-0.034
-491.522	-76.026	-0.190	0.067
-490.508	-136.339	-0.171	0.020
-489.493	-200.000	0.030	-0.168
-488.478	519.282	0.045	0.105
-487.464	-162.926	-0.234	0.011
-486.449	-9.819	0.276	-0.184
-485.435	43.762	0.308	-0.283
-484.420	-100.679	0.153	0.038
-483.405	22.070	0.329	-0.269
-482.391	643.771	0.024	0.061
-481.376	-18.692	0.240	-0.150
-480.362	4.707	-0.221	0.162
-479.347	800.000	0.072	0.222
-478.332	-81.000	-0.200	-0.066
-477.318	120.892	0.185	0.230
-476.303	-121.034	-0.400	0.067
-475.289	800.000	-0.132	-0.371
-474.274	188.008	-0.077	0.115
-473.259	-200.000	0.035	0.527
-472.245	-163.590	-0.143	-0.007
-471.230	291.226	-0.022	-0.039
-470.216	-105.918	0.055	0.013
-469.201	-85.216	0.340	-0.106
-468.186	42.020	0.413	0.375
-467.172	800.000	0.035	0.119
-466.157	19.544	-0.047	0.038
-465.143	52.927	-0.224	-0.214
-464.128	376.261	-0.030	-0.062
-463.113	-68.810	-0.291	-0.112
-462.099	800.000	0.144	-0.468
-461.084	108.667	0.116	-0.138
-460.070	63.625	0.049	-0.049
-459.055	-88.695	0.236	-0.070
-458.040	800.000	0.033	0.127
-457.026	70.717	0.334	-0.346
-456.011	373.656	-0.099	-0.202
-454.997	-200.000	-0.013	-0.266
-453.982	496.168	-0.101	-0.233
-452.968	277.292	-0.064	0.114
-451.953	-173.068	0.223	0.007
-450.938	-87.871	-0.182	0.055
-449.924	800.000	-0.027	0.080
-448.909	800.000	0.126	0.404
-447.895	-198.236	-0.138	0.001
-446.880	-19.956	0.226	0.140
-445.865	-173.323	0.266	-0.008
-444.851	-75.812	-0.079	0.028
-443.836	-40.916	0.073	-0.038
-442.822	-200.000	-0.028	0.196
-441.807	-37.736	-0.078	0.042
-440.792	-200.000	-0.045	-0.326
-439.778	-179.049	-0.393	-0.009
-438.763	-176.313	-0.035	-0.001
-437.749	-6.982	0.151	0.103
-436.734	-200.000	-0.009	0.352
-435.719	-200.000	0.009	0.180
-434.705	-200.000	0.026	-0.408
-433.690	-10.097	0.172	-0.114
-432.676	-39.317	0.273	-0.143
-431.661	404.666	-0.144	0.303
-430.646	77.232	0.128	0.136
-429.632	-34.992	-0.469	-0.256
-428.617	-200.000	-0.015	-0.073
-427.603	-197.510	0.273	0.002
-426.588	425.881	-0.059	-0.126
-425.573	492.756	0.027	-0.063
-424.559	-87.477	0.358	0.108
-423.544	25.273	-0.039	-0.033
-422.530	82.931	0.131	-0.142
-421.515	-14.623	-0.212	0.136
-420.500	-200.000	-0.039	-0.212
-419.486	800.000	0.113	-0.394
-418.471	286.194	-0.115	-0.208
-417.457	-59.356	-0.191	0.082
-416.442	-13.096	0.141	0.092
-415.428	800.000	0.070	0.301
-414.413	261.512	-0.170	0.294
-413.398	-200.000	0.006	0.306
-412.384	131.264	-0.177	-0.227
-411.369	-66.197	-0.269	-0.107
-410.355	503.711	-0.198	0.458
-409.340	-200.000	0.018	-0.078
-408.325	800.000	-0.018	0.056
-407.311	-90.134	0.317	0.092
-406.296	-135.808	-0.260	0.031
-405.282	399.691	0.016	-0.033
-404.267	-114.298	-0.375	-0.072
-403.252	-200.000	-0.021	0.488
-402.238	-200.000	-0.002	0.191
-401.223	392.707	0.175	-0.363
-400.209	-14.762	0.232	-0.149
-399.194	-28.235	-0.149	-0.086
-398.179	-56.730	-0.204	-0.090
-397.165	112.608	0.385	0.466
-396.150	-200.000	0.032	-0.142
-395.136	194.630	-0.058	0.088
-394.121	-44.811	0.279	-0.139
-393.106	138.403	-0.165	0.216
-392.092	19.616	0.136	0.109
-391.077	800.000	0.108	-0.361
-390.063	392.356	-0.079	0.165
-389.048	-57.754	-0.292	0.128
-388.033	-101.199	0.127	0.031
-387.019	-59.042	0.065	0.028
-386.004	-146.779	0.281	-0.024
-384.990	-142.617	-0.194	-0.019
-383.975	800.000	-0.065	0.201
-382.960	722.090	-0.065	0.172
-381.946	256.193	0.150	-0.257
-380.931	185.644	-0.124	-0.184
-379.917	93.463	-0.246	-0.279
-378.902	-200.000	0.058	-0.325
-377.888	118.627	0.144	0.177
-376.873	-96.010	0.147	0.039
-375.858	-115.966	0.146	-0.027
-374.844	-200.000	0.027	0.344
-373.829	296.247	-0.134	-0.245
-372.815	311.418	-0.167	-0.313
-371.800	-95.830	-0.339	-0.090
-370.785	-77.454	-0.076	0.026
-369.771	-48.533	-0.421	-0.202
-368.756	-200.000	0.067	0.552
-367.742	95.428	-0.236	0.268
-366.727	-21.669	0.139	0.084
-365.712	113.996	-0.221	0.268
-364.698	800.000	0.063	-0.267
-363.683	-126.220	0.404	-0.060
-362.669	370.634	0.066	-0.133
-361.654	-27.455	-0.182	0.106
-360.639	-200.000	0.091	0.420
-359.625	-189.369	-0.162	0.002
-358.610	-55.120	-0.103	-0.046
-357.596	374.963	-0.074	-0.150
-356.581	-20.539	0.123	0.075
-355.566	-200.000	0.020	0.417
-354.552	-200.000	-0.075	0.342
-353.537	-200.000	0.059	0.260
-352.523	-200.000	0.039	0.268
-351.508	-133.497	0.364	0.046
-350.493	-183.142	0.214	0.004
-349.479	800.000	-0.095	0.280
-348.464	-96.566	-0.151	-0.040
-347.450	92.810	0.163	-0.183
-346.435	-45.177	0.193	-0.096
-345.420	-162.941	0.381	-0.018
-344.406	-61.417	-0.114	0.048
-343.391	4.125	-0.333	0.243
-342.377	-200.000	-0.001	0.014
-341.362	220.678	-0.193	-0.309
-340.348	89.124	-0.218	0.242
-339.333	-142.471	-0.227	0.022
-338.318	-67.830	0.311	-0.121
-337.304	99.381	0.079	0.092
-336.289	-200.000	0.018	-0.132
-335.275	-53.699	-0.130	0.059
-334.260	-200.000	-0.050	0.318
-333.245	43.641	-0.190	0.174
-332.231	693.111	-0.107	0.279
-331.216	30.255	-0.039	-0.033
-330.202	220.430	0.051	0.082
-329.187	490.124	-0.137	0.312
-328.172	-200.000	0.023	0.169
-327.158	215.572	-0.108	0.171
-326.143	-79.039	-0.202	0.068
-325.129	-93.659	-0.240	-0.066
-324.114	72.454	-0.024	0.025
-323.099	-34.256	0.285	-0.156
-322.085	-163.925	-0.516	0.024
-321.070	-60.633	-0.061	0.026
-320.056	-91.176	0.187	-0.053
-319.041	-24.705	0.224	-0.133
-318.026	-200.000	0.065	-0.399
-317.012	38.682	-0.060	0.054
-315.997	800.000	-0.046	-0.160
-314.983	20.411	0.269	0.217
-313.968	175.004	0.068	0.099
-312.953	-200.000	0.022	0.271
-311.939	-184.571	0.319	-0.005
-310.924	-110.344	0.403	0.084
-309.910	429.795	0.106	-0.229
-308.895	355.258	-0.139	0.276
-307.880	671.704	0.073	0.189
-306.866	316.889	0.054	-0.101
-305.851	211.521	-0.129	-0.202
-304.837	46.024	0.170	-0.157
-303.822	-200.000	0.063	0.000
-302.807	109.377	-0.104	-0.124
-301.793	200.441	-0.131	-0.200
-300.778	-200.000	-0.021	0.152
-299.764	67.481	0.052	0.053
-298.749	465.799	-0.059	-0.132
-297.735	800.000	-0.046	-0.154
-296.720	-83.916	-0.521	0.165
-295.705	800.000	0.087	-0.264
-294.691	-14.995	0.211	0.134
-293.676	800.000	0.094	0.400
-292.662	159.873	0.106	-0.147
-291.647	204.935	0.011	0.017
-290.632	-62.738	-0.186	0.077
-289.618	-55.877	-0.118	-0.053
-288.603	44.544	-0.295	0.269
-287.589	-115.371	0.333	0.063
-286.574	-48.232	-0.064	0.031
-285.559	124.277	-0.245	-0.307
-284.545	-21.454	0.174	-0.106
-283.530	-128.250	0.522	0.074
-282.516	-200.000	-0.034	0.439
-281.501	-200.000	0.001	-0.224
-280.486	350.076	-0.026	0.052
-279.472	3.557	-0.159	-0.115
-278.457	237.106	0.091	-0.150
-277.443	-182.646	-0.225	0.004
-276.428	137.355	0.026	0.033
-275.413	75.795	-0.108	0.114
-274.399	711.036	-0.061	0.160
-273.384	-143.744	0.352	-0.033
-272.370	22.361	0.023	-0.019
-271.355	800.000	0.104	-0.404
-270.340	3.065	-0.167	-0.121
-269.326	-122.403	0.118	-0.019
-268.311	-23.446	-0.254	-0.152
-267.297	591.019	0.053	0.131
-266.282	800.000	0.072	0.246
-265.267	-200.000	0.058	0.403
-264.253	800.000	0.062	0.213
-263.238	0.062	0.088	0.062
-262.224	-146.349	-0.230	0.020
-261.209	301.983	0.245	-0.450
-260.195	51.190	-0.115	0.108
-259.180	168.627	0.255	0.361
-258.165	12.704	0.240	-0.184
-257.151	6.143	-0.124	-0.091
-256.136	1.746	0.380	-0.272
-255.122	-156.560	0.124	-0.008
-254.107	-200.000	-0.032	0.255
-253.092	-200.000	0.015	-0.255
-252.078	166.754	0.117	-0.165
-251.063	185.931	0.013	-0.019
-250.049	141.691	-0.101	-0.133
-249.034	61.520	0.167	0.165
-248.019	-180.518	0.078	0.002
-247.005	-117.504	0.276	0.050
-245.990	800.000	0.034	-0.123
-244.976	-200.000	0.063	0.510
-243.961	-200.000	0.002	0.024
-242.946	166.772	-0.028	-0.040
-241.932	-200.000	-0.022	-0.135
-240.917	800.000	0.048	0.157
-239.903	103.435	0.217	0.253
-238.888	-17.822	-0.161	-0.100
-237.873	3.839	-0.087	-0.063
-236.859	-64.335	-0.212	-0.086
-235.844	640.310	-0.032	-0.081
-234.830	-41.249	0.255	0.131
-233.815	16.553	0.090	0.071
-232.800	800.000	-0.029	-0.113
-231.786	-123.205	-0.080	-0.013
-230.771	-8.110	0.119	-0.079
-229.757	197.202	0.064	0.097
-228.742	-169.126	-0.252	-0.009
-227.727	-114.389	-0.128	-0.025
-226.713	73.219	0.175	-0.182
-225.698	-126.029	-0.233	0.035
-224.684	168.778	0.168	0.238
-223.669	223.242	-0.182	-0.291
-222.655	-108.654	0.209	-0.045
-221.640	800.000	0.087	0.291
-220.625	800.000	0.011	-0.043
-219.611	-200.000	-0.024	0.184
-218.596	82.583	0.080	-0.086
-217.582	530.526	0.045	-0.105
-216.567	-200.000	-0.001	0.220
-215.552	-141.742	-0.281	0.028
-214.538	-55.416	-0.227	-0.101
-213.523	318.764	-0.110	0.206
-212.509	800.000	0.046	0.138
-211.494	25.728	-0.062	0.051
-210.479	-121.483	0.128	-0.021
-209.465	-200.000	-0.006	0.103
-208.450	-200.000	-0.054	-0.345
-207.436	163.651	0.123	-0.172
-206.421	196.995	0.082	0.124
-205.406	800.000	-0.122	0.385
-204.392	26.890	0.194	0.161
-203.377	13.458	0.212	0.163
-202.363	401.201	0.058	-0.122
-201.348	190.228	-0.304	-0.453
-200.333	-176.485	-0.374	-0.010
-199.319	-100.521	0.258	-0.063
-198.304	-146.987	-0.334	0.028
-197.290	18.762	0.216	-0.171
-196.275	-200.000	0.013	0.102
-195.260	-4.115	-0.221	-0.152
-194.246	-200.000	0.038	0.291
-193.231	124.206	0.076	-0.094
-192.217	155.327	-0.278	-0.379
-191.202	105.606	0.187	0.220
-190.187	-200.000	-0.040	-0.182
-189.173	-200.000	0.036	0.232
-188.158	-200.000	0.085	-0.414
-187.144	-200.000	-0.002	0.029
-186.129	-200.000	-0.012	0.355
-185.114	-72.878	-0.123	0.045
-184.100	518.907	0.082	-0.190
-183.085	-2.111	0.106	-0.074
-182.071	-155.053	0.252	-0.016
-181.056	-41.551	-0.278	-0.142
-180.042	-200.000	0.014	0.066
-179.027	409.343	-0.111	-0.233
-178.012	10.616	0.304	-0.229
-176.998	-62.972	-0.205	0.084
-175.983	-171.644	0.233	0.008
-174.969	-200.000	-0.046	0.242
-173.954	-139.607	0.276	0.029
-172.939	-40.956	0.225	0.115
-171.925	66.784	-0.169	0.170
-170.910	69.922	0.184	0.188
-169.896	103.195	0.139	-0.162
-168.881	-25.640	0.300	0.175
-167.866	109.413	0.302	-0.359
-166.852	342.879	-0.121	0.235
-165.837	36.881	-0.160	-0.140
-164.823	-111.332	0.112	-0.023
-163.808	-27.168	0.185	0.107
-162.793	741.150	-0.036	0.096
-161.779	-55.166	-0.083	-0.037
-160.764	187.189	-0.137	0.202
-159.750	435.899	-0.058	0.124
-158.735	189.693	0.143	-0.213
-157.720	51.324	-0.120	0.113
-156.706	588.592	0.053	-0.129
-155.691	-200.000	0.014	-0.118
-154.677	152.587	-0.050	-0.067
-153.662	-7.023	-0.137	0.092
-152.647	800.000	0.027	0.098
-151.633	-31.529	-0.211	0.117
-150.618	782.182	0.059	-0.160
-149.604	137.815	-0.319	-0.413
-148.589	-32.057	0.141	0.078
-147.574	537.047	0.108	0.254
-146.560	-63.643	-0.162	-0.066
-145.545	-200.000	0.000	0.021
-144.531	444.417	0.020	-0.043
-143.516	800.000	-0.017	-0.065
-142.502	15.591	-0.201	-0.156
-141.487	152.487	0.135	-0.182
-140.472	238.612	0.156	0.257
-139.458	-19.072	0.082	0.051
-138.443	800.000	0.049	-0.187
-137.429	123.717	-0.038	-0.047
-136.414	199.439	0.051	-0.077
-135.399	-200.000	0.050	-0.333
-134.385	-200.000	-0.024	-0.382
-133.370	69.197	0.130	-0.132
-132.356	800.000	-0.165	-0.541
-131.341	-115.978	0.310	-0.057
-130.326	-200.000	-0.045	-0.231
-129.312	-18.477	0.280	-0.173
-128.297	637.237	-0.100	0.251
-127.283	-27.590	0.106	0.061
-126.268	-118.341	0.166	-0.029
-125.253	-65.064	-0.286	0.114
-124.239	800.000	-0.073	0.231
-123.224	645.402	0.032	0.081
-122.210	13.557	-0.190	0.146
-121.195	31.521	0.135	0.114
-120.180	-76.063	-0.176	0.061
-119.166	800.000	-0.069	-0.213
-118.151	461.029	0.157	-0.346
-117.137	800.000	-0.056	-0.231
-116.122	-120.676	-0.408	0.068
-115.107	800.000	0.043	0.126
-114.093	-165.976	-0.312	0.013
-113.078	-22.712	-0.046	0.027
-112.064	377.460	0.116	-0.235
-111.049	-104.146	0.175	-0.040
-110.034	-103.461	0.237	0.055
-109.020	-117.323	0.202	0.036
-108.005	-200.000	0.419	0.000
-106.991	-57.046	-0.208	0.091
-105.976	-200.000	0.029	0.266
-104.962	-15.344	0.094	-0.059
-103.947	-14.171	-0.172	-0.110
-102.932	32.963	0.075	0.064
-101.918	-84.918	-0.092	-0.029
-100.903	800.000	0.098	0.383
-99.889	800.000	-0.032	0.120
-98.874	-114.250	-0.211	0.040
-97.859	574.574	-0.103	0.248
-96.845	800.000	-0.044	0.180
-95.830	308.313	0.114	0.209
-94.816	406.212	-0.025	0.051
-93.801	-200.000	-0.030	-0.191
-92.786	163.726	0.145	0.202
-91.772	-69.907	0.418	0.157
-90.757	109.633	-0.029	-0.035
-89.743	-139.375	0.164	-0.017
-88.728	8.179	-0.160	-0.118
-87.713	176.468	0.229	0.329
-86.699	-200.000	0.002	0.153
-85.684	60.400	-0.108	-0.106
-84.670	-192.615	0.218	0.002
-83.655	-36.105	0.238	-0.127
-82.640	94.178	0.170	0.191
-81.626	784.846	-0.099	-0.266
-80.611	-200.000	-0.013	-0.110
-79.597	800.000	-0.020	0.059
-78.582	-200.000	0.012	0.109
-77.567	140.468	0.064	-0.083
-76.553	96.098	0.180	-0.203
-75.538	-20.612	-0.225	0.136
-74.524	541.914	-0.031	0.072
-73.509	83.922	0.088	0.095
-72.494	-55.385	-0.137	0.060
-71.480	-47.979	0.144	0.069
-70.465	577.673	0.029	0.071
-69.451	-12.754	0.333	0.214
-68.436	346.483	-0.105	0.203
-67.422	131.700	0.072	-0.092
-66.407	34.908	0.083	0.071
-65.392	-10.222	0.040	0.026
-64.378	604.967	0.090	-0.221
-63.363	729.892	-0.107	0.283
-62.349	70.643	0.144	0.147
-61.334	266.674	-0.530	-0.912
-60.319	-92.603	0.401	0.111
-59.305	800.000	-0.326	-0.932
-58.290	238.183	0.483	0.790
-57.276	-200.000	0.358	1.614
-56.261	-200.000	89.009	502.686
-55.246	439.491	1429.752	3078.329
-54.232	142.980	2650.106	3473.952
-53.217	103.978	2370.012	2746.226
-52.203	45.191	1972.008	1792.059
-51.188	39.283	1756.373	1549.673
-50.173	36.624	1711.504	1489.579
-49.159	51.805	1754.865	1645.937
-48.144	54.903	1773.724	1687.720
-47.130	39.293	1731.979	1527.986
-46.115	36.261	1717.043	1491.358
-45.100	36.116	1712.244	1486.016
-44.086	36.112	1709.599	1483.632
-43.071	36.078	1706.844	1480.921
-42.057	36.013	1704.773	1478.566
-41.042	36.045	1702.735	1476.981
-40.027	36.038	1700.990	1475.354
-39.013	36.088	1698.398	1473.430
-37.998	36.048	1697.009	1471.860
-36.984	36.049	1696.206	1471.115
-35.969	36.131	1694.731	1470.407
-34.954	36.252	1692.848	1469.635
-33.940	36.181	1691.115	1467.527
-32.925	36.189	1689.542	1466.170
-31.911	36.233	1687.627	1464.782
-30.896	36.174	1685.571	1462.491
-29.881	36.226	1683.402	1460.944
-28.867	36.282	1682.036	1460.127
-27.852	36.129	1681.256	1458.235
-26.838	36.195	1679.362	1457.031
-25.823	36.243	1677.765	1455.955
-24.809	36.289	1676.204	1454.885
-23.794	36.164	1674.946	1452.791
-22.779	36.239	1673.325	1451.893
-21.765	36.221	1671.721	1450.310
-20.750	36.192	1669.671	1448.254
-19.736	36.173	1668.426	1446.980
-18.721	36.308	1666.930	1446.632
-17.706	36.245	1665.250	1444.644
-16.692	36.210	1663.780	1443.048
-15.677	36.183	1662.642	1441.809
-14.663	36.326	1660.823	1441.238
-13.648	36.168	1660.185	1439.452
-12.633	36.345	1658.041	1438.852
-11.619	36.310	1656.392	1437.107
-10.604	36.236	1655.073	1435.354
-9.590	36.308	1653.543	1434.502
-8.575	36.238	1652.374	1432.909
-7.560	36.186	1651.231	1431.477
-6.546	36.216	1650.236	1430.781
-5.531	36.179	1648.898	1429.290
-4.517	36.229	1647.559	1428.445
-3.502	36.208	1646.956	1427.711
-2.487	36.302	1645.212	1426.834
-1.473	36.373	1633.794	1417.398
-0.458	34.384	1614.713	1386.336
0.556	29.018	1615.579	1355.934
1.571	26.698	1640.812	1359.608
2.586	25.910	1654.997	1365.270
3.600	23.959	1603.361	1308.227
4.615	18.625	1496.682	1184.354
5.629	13.853	1432.363	1101.758
6.644	12.827	1424.146	1088.568
7.659	12.634	1423.554	1086.743
8.673	12.729	1421.386	1085.618
9.688	12.561	1419.751	1083.167
10.702	12.469	1416.923	1080.313
11.717	14.744	1421.739	1098.873
12.731	19.234	1429.274	1134.220
13.746	19.862	1428.227	1137.423
14.761	17.769	1423.395	1119.749
15.775	16.576	1420.419	1109.489
16.790	15.464	1417.419	1099.767
17.804	14.597	1415.187	1092.260
18.819	14.108	1413.954	1088.015
19.834	13.805	1412.160	1084.560
20.848	13.488	1411.113	1081.587
21.863	13.340	1409.553	1079.331
22.877	13.114	1408.271	1076.778
23.892	12.993	1407.446	1075.267
24.907	13.057	1406.731	1075.040
25.921	13.008	1406.014	1074.083
26.936	13.176	1404.418	1073.860
27.950	13.143	1403.601	1072.927
28.965	13.283	1402.434	1072.842
29.980	13.323	1401.030	1071.934
30.994	13.362	1400.204	1071.458
32.009	13.383	1398.949	1070.540
33.023	13.400	1397.703	1069.601
34.038	13.304	1396.548	1068.003
35.053	13.226	1394.994	1066.220
36.067	13.176	1394.162	1065.164
37.082	13.157	1393.126	1064.161
38.096	13.274	1392.141	1064.067
39.111	13.326	1391.167	1063.559
40.126	13.205	1390.465	1062.152
41.140	13.140	1389.495	1060.898
42.155	13.085	1388.568	1059.748
43.169	13.003	1388.992	1059.449
44.184	13.017	1388.760	1059.270
45.199	13.111	1387.556	1058.861
46.213	13.049	1387.376	1058.227
47.228	13.148	1386.051	1057.761
48.242	13.150	1385.043	1056.908
49.257	13.187	1383.667	1056.001
50.271	13.294	1382.006	1055.321
51.286	13.171	1380.981	1053.665
52.301	13.091	1379.754	1052.124
53.315	13.046	1378.602	1050.867
54.330	13.118	1377.556	1050.435
55.344	13.002	1376.524	1048.816
56.359	13.079	1375.108	1048.135
57.374	12.998	1373.992	1046.680
58.388	13.048	1373.728	1046.698
59.403	12.935	1373.066	1045.384
60.417	12.898	1372.523	1044.650
61.432	12.898	1371.363	1043.671
62.447	12.933	1370.283	1042.976
63.461	12.843	1369.601	1041.799
64.476	12.942	1367.912	1041.048
65.490	12.908	1367.056	1040.087
66.505	12.941	1364.986	1038.627
67.520	12.872	1364.161	1037.474
68.534	13.062	1362.684	1037.452
69.549	13.055	1361.649	1036.533
70.563	12.990	1360.404	1035.085
71.578	12.893	1359.578	1033.754
72.593	12.883	1358.894	1033.081
73.607	12.868	1357.911	1032.148
74.622	12.845	1356.995	1031.218
75.636	12.902	1356.018	1030.741
76.651	12.923	1355.410	1030.316
77.666	12.889	1354.906	1029.630
78.680	12.803	1354.738	1028.876
79.695	12.982	1353.496	1028.956
80.709	12.927	1352.575	1027.820
81.724	13.034	1351.835	1027.836
82.739	13.027	1351.115	1027.155
83.753	13.126	1350.150	1026.944
84.768	13.115	1349.493	1026.284
85.782	13.181	1348.007	1025.475
86.797	13.100	1346.641	1023.845
87.812	13.105	1345.141	1022.642
88.826	13.083	1344.576	1021.989
89.841	13.163	1342.977	1021.176
90.855	13.158	1341.873	1020.219
91.870	13.189	1341.108	1019.737
92.884	13.128	1340.481	1018.789
93.899	13.310	1339.563	1019.127
94.914	13.279	1338.913	1018.351
95.928	13.288	1338.075	1017.679
96.943	13.309	1336.897	1016.820
97.957	13.155	1336.152	1015.220
98.972	13.287	1334.803	1014.915
99.987	13.279	1333.869	1014.062
101.001	13.189	1332.668	1012.512
102.016	13.124	1331.853	1011.405
103.030	13.220	1330.367	1010.771
104.045	13.194	1329.759	1010.060
105.060	13.139	1328.670	1008.809
106.074	13.134	1327.136	1007.525
107.089	13.102	1325.396	1005.918
108.103	13.064	1324.870	1005.199
109.118	12.978	1323.563	1003.598
110.133	12.999	1322.020	1002.467
111.147	13.003	1320.577	1001.305
112.162	13.040	1318.901	1000.173
113.176	13.038	1317.993	999.384
114.191	13.119	1317.029	999.052
115.206	13.117	1316.307	998.403
116.220	13.119	1314.860	997.231
117.235	12.996	1313.976	995.729
118.249	13.056	1312.692	995.033
119.264	12.968	1311.621	993.600
120.279	13.087	1310.320	993.244
121.293	12.984	1309.481	991.902
122.308	12.913	1308.801	990.873
123.322	12.944	1307.547	990.022
124.337	12.940	1305.934	988.689
125.352	13.008	1304.821	988.166
126.366	13.014	1303.563	987.162
127.381	12.988	1302.439	986.067
128.395	13.072	1301.571	985.821
129.410	13.040	1300.726	984.905
130.424	12.983	1299.951	983.890
131.439	13.108	1298.953	983.792
132.454	13.120	1297.748	982.867
133.468	13.107	1297.157	982.257
134.483	13.015	1296.383	981.033
135.497	13.124	1295.097	980.622
136.512	13.106	1293.970	979.575
137.527	13.122	1292.509	978.475
138.541	13.134	1290.848	977.203
139.556	13.215	1289.562	976.619
140.570	13.244	1288.730	976.079
141.585	13.263	1287.545	975.205
142.600	13.298	1286.620	974.628
143.614	13.419	1285.655	974.520
144.629	13.393	1284.380	973.314
145.643	13.402	1283.185	972.375
146.658	13.335	1282.002	970.998
147.673	13.143	1280.757	968.846
148.687	13.175	1279.299	967.843
149.702	13.101	1278.173	966.473
150.716	13.096	1276.761	965.294
151.731	13.103	1275.468	964.270
152.746	13.232	1274.129	963.926
153.760	13.252	1273.045	963.138
154.775	13.226	1271.932	962.058
155.789	13.303	1271.031	961.738
156.804	13.236	1269.686	960.247
157.819	13.272	1269.180	959.984
158.833	13.332	1267.790	959.200
159.848	13.330	1266.847	958.388
160.862	13.343	1265.789	957.579
161.877	13.360	1264.326	956.483
162.892	13.255	1263.650	955.282
163.906	13.221	1262.764	954.333
164.921	13.292	1261.564	953.751
165.935	13.287	1260.795	953.058
166.950	13.356	1260.095	952.842
167.964	13.485	1259.052	952.710
168.979	13.406	1258.413	951.687
169.994	13.357	1257.831	950.884
171.008	13.357	1257.103	950.249
172.023	13.471	1255.804	949.837
173.037	13.449	1255.036	949.046
174.052	13.501	1253.987	948.462
175.067	13.419	1253.257	947.360
176.081	13.375	1252.072	946.125
177.096	13.428	1251.332	945.789
178.110	13.346	1250.337	944.483
179.125	13.414	1248.878	943.685
180.140	13.407	1247.671	942.651
181.154	13.419	1246.402	941.677
182.169	13.471	1245.113	940.913
183.183	13.498	1244.407	940.451
184.198	13.543	1242.571	939.234
185.213	13.666	1241.431	938.989
186.227	13.615	1240.578	937.972
187.242	13.765	1239.447	937.883
188.256	13.730	1238.692	937.030
189.271	13.689	1237.841	936.070
190.286	13.581	1236.433	934.313
191.300	13.480	1235.702	933.110
192.315	13.371	1234.509	931.510
193.329	13.489	1234.469	932.062
194.344	13.452	1233.996	931.416
195.359	13.601	1233.023	931.437
196.373	13.620	1232.702	931.217
197.388	13.742	1232.092	931.364
198.402	13.764	1231.491	930.948
199.417	13.814	1230.591	930.465
200.432	13.811	1229.991	929.912
201.446	13.900	1228.890	929.495
202.461	13.907	1228.097	928.855
203.475	13.907	1226.973	927.924
204.490	13.926	1225.182	926.591
205.504	13.839	1224.276	925.338
206.519	13.807	1223.451	924.454
207.534	13.734	1221.893	922.790
208.548	13.839	1221.173	922.749
209.563	13.825	1220.528	922.103
210.577	13.893	1219.525	921.641
211.592	13.842	1218.693	920.645
212.607	13.932	1217.911	920.476
213.621	13.964	1216.949	919.843
214.636	13.796	1216.442	918.445
215.650	14.020	1214.707	918.294
216.665	14.099	1214.005	918.120
217.680	14.039	1213.147	917.057
218.694	14.113	1212.143	916.626
219.709	14.076	1211.346	915.738
220.723	14.030	1210.772	914.969
221.738	14.111	1209.994	914.748
222.753	14.090	1209.058	913.840
223.767	14.101	1208.457	913.369
224.782	14.180	1208.105	913.454
225.796	14.209	1207.617	913.164
226.811	14.222	1206.729	912.483
227.826	14.203	1205.678	911.504
228.840	14.204	1205.243	911.099
229.855	14.176	1204.056	909.968
230.869	14.070	1203.617	908.976
231.884	14.161	1202.413	908.484
232.899	14.134	1201.902	907.867
233.913	14.085	1201.375	907.124
234.928	14.106	1199.998	906.117
235.942	14.073	1199.612	905.567
236.957	14.060	1198.888	904.870
237.972	14.101	1198.171	904.474
238.986	14.087	1197.541	903.839
240.001	14.247	1196.274	903.673
241.015	14.204	1195.453	902.735
242.030	14.242	1194.545	902.178
243.045	14.227	1194.089	901.675
244.059	14.265	1192.815	900.838
245.074	14.340	1192.538	900.956
246.088	14.271	1191.772	899.922
247.103	14.330	1190.658	899.322
248.117	14.387	1190.170	899.182
249.132	14.438	1189.627	898.966
250.147	14.531	1188.303	898.388
251.161	14.561	1187.830	898.113
252.176	14.660	1187.492	898.309
253.190	14.666	1186.836	897.765
254.205	14.624	1186.106	896.908
255.220	14.728	1185.260	896.748
256.234	14.768	1184.585	896.371
257.249	14.615	1184.338	895.285
258.263	14.770	1183.458	895.370
259.278	14.685	1182.925	894.431
260.293	14.673	1182.286	893.804
261.307	14.745	1181.855	893.787
262.322	14.798	1180.880	893.251
263.336	14.802	1180.593	892.977
264.351	14.806	1179.476	892.077
265.366	14.818	1178.702	891.476
266.380	14.808	1178.130	890.912
267.395	14.772	1177.231	889.960
268.409	14.734	1176.796	889.349
269.424	14.755	1176.354	889.048
270.439	14.928	1175.290	889.086
271.453	14.818	1174.605	887.907
272.468	14.779	1173.493	886.779
273.482	14.850	1172.738	886.509
274.497	14.847	1172.320	886.097
275.512	14.826	1171.655	885.403
276.526	14.849	1170.785	884.791
277.541	14.901	1169.782	884.229
278.555	14.933	1169.563	884.153
279.570	14.920	1168.897	883.505
280.585	15.131	1168.022	883.877
281.599	15.038	1166.847	882.420
282.614	15.023	1165.654	881.362
283.628	15.044	1164.612	880.606
284.643	15.138	1163.740	880.364
285.657	14.973	1163.074	878.914
286.672	15.022	1162.029	878.303
287.687	15.087	1161.068	877.838
288.701	15.126	1160.291	877.379
289.716	15.131	1159.432	876.678
290.730	15.078	1158.922	875.937
291.745	15.084	1158.209	875.353
292.760	15.158	1157.246	874.937
293.774	15.117	1156.943	874.413
294.789	15.234	1156.160	874.353
295.803	15.305	1155.486	874.137
296.818	15.258	1154.671	873.199
297.833	15.220	1154.011	872.426
298.847	15.271	1153.229	872.022
299.862	15.229	1152.654	871.293
300.876	15.263	1151.555	870.563
301.891	15.269	1151.278	870.306
302.906	15.414	1150.650	870.505
303.920	15.321	1149.919	869.396
304.935	15.535	1148.792	869.571
305.949	15.522	1148.296	869.055
306.964	15.501	1147.705	868.419
307.979	15.506	1146.399	867.379
308.993	15.429	1146.007	866.608
310.008	15.500	1145.663	866.640
311.022	15.538	1144.796	866.106
312.037	15.575	1143.532	865.259
313.052	15.453	1142.997	864.150
314.066	15.287	1142.019	862.483
315.081	15.318	1141.099	861.869
316.095	15.391	1140.255	861.530
317.110	15.327	1139.912	860.866
318.125	15.378	1138.854	860.254
319.139	15.457	1138.231	860.114
320.154	15.354	1137.595	859.029
321.168	15.446	1136.987	858.961
322.183	15.542	1135.782	858.467
323.197	15.436	1135.701	857.786
324.212	15.553	1134.988	857.771
325.227	15.444	1134.575	856.827
326.241	15.561	1133.848	856.801
327.256	15.619	1132.517	856.012
328.270	15.539	1132.101	855.215
329.285	15.589	1130.624	854.280
330.300	15.514	1129.880	853.261
331.314	15.519	1128.987	852.535
332.329	15.505	1128.243	851.825
333.343	15.620	1126.881	851.308
334.358	15.712	1125.906	850.959
335.373	15.646	1125.629	850.340
336.387	15.783	1124.765	850.308
337.402	15.647	1124.584	849.406
338.416	15.688	1123.747	848.904
339.431	15.973	1122.441	849.282
340.446	15.734	1122.822	848.287
341.460	15.973	1121.299	848.267
342.475	15.809	1120.880	847.049
343.489	15.871	1120.103	846.700
344.504	15.892	1119.046	845.931
345.519	15.916	1118.207	845.343
346.533	16.041	1117.055	845.022
347.548	16.125	1116.703	845.102
348.562	15.997	1116.057	843.898
349.577	15.930	1115.041	842.722
350.592	15.893	1114.276	841.882
351.606	15.892	1113.468	841.194
352.621	15.942	1112.990	841.005
353.635	15.963	1111.924	840.234
354.650	15.850	1111.513	839.281
355.665	15.945	1110.854	839.185
356.679	15.941	1110.264	838.645
357.694	15.939	1109.528	838.002
358.708	16.117	1108.528	838.059
359.723	16.029	1108.071	837.205
360.738	16.183	1107.576	837.519
361.752	16.176	1106.521	836.613
362.767	16.152	1106.037	836.053
363.781	16.090	1105.801	835.494
364.796	16.047	1105.433	834.929
365.810	16.202	1104.477	834.899
366.825	16.295	1103.886	834.840
367.840	16.353	1103.420	834.699
368.854	16.347	1102.859	834.171
369.869	16.447	1102.079	834.003
370.883	16.264	1101.290	832.430
371.898	16.255	1100.254	831.527
372.913	16.327	1099.556	831.280
373.927	16.334	1098.880	830.730
374.942	16.424	1098.592	830.882
375.956	16.335	1098.248	830.110
376.971	16.472	1097.516	830.155
377.986	16.467	1096.674	829.423
379.000	16.485	1096.321	829.169
380.015	16.430	1095.750	828.397
381.029	16.491	1095.092	828.122
382.044	16.555	1094.243	827.723
383.059	16.585	1093.630	827.333
384.073	16.556	1092.607	826.341
385.088	16.603	1091.816	825.903
386.102	16.649	1090.636	825.158
387.117	16.529	1090.164	824.144
388.132	16.557	1088.833	823.202
389.146	16.599	1087.926	822.646
390.161	16.438	1087.722	821.636
391.175	16.433	1087.053	821.036
392.190	16.524	1086.230	820.781
393.205	16.633	1085.219	820.473
394.219	16.658	1084.558	820.023
395.234	16.643	1083.732	819.255
396.248	16.674	1082.418	818.340
397.263	16.521	1081.352	816.718
398.278	16.574	1080.640	816.364
399.292	16.574	1079.950	815.771
400.307	16.633	1079.411	815.579
401.321	16.569	1078.933	814.838
402.336	16.616	1078.280	814.499
403.350	16.544	1077.331	813.360
404.365	16.601	1076.686	813.077
405.380	16.605	1076.089	812.571
406.394	16.716	1075.220	812.378
407.409	16.822	1073.930	811.840
408.423	16.776	1073.860	811.492
409.438	16.873	1073.003	811.241
410.453	16.881	1072.458	810.795
411.467	16.939	1071.725	810.443
412.482	17.010	1070.801	810.012
413.496	17.030	1070.259	809.628
414.511	17.010	1069.646	808.995
415.526	16.936	1069.637	808.563
416.540	17.031	1069.121	808.555
417.555	17.118	1067.951	808.016
418.569	17.074	1067.698	807.542
419.584	17.124	1067.288	807.399
420.599	17.182	1066.570	807.060
421.613	94.849	1313.886	1425.912
422.628	87.657	1349.927	1426.048
