DTS Sentinel unit serial number:	SN413079Multiplexer serial number:	ORYXHardware model number:	OX4-SRSoftware version number:	ORYX F/W v4.00 Oryx Data Collector v3.7.2.0data status	okinstallation	princeton_trtdifferential loss correction	single-endedforward channel	channel 2reverse channel	N/Adate	2019/09/12time	21:47:34forward acquisition time	60.00reverse acquisition time	0.00gamma	496.2192k internal	0.2329k external	0.2329temperature offset calibration	1.0173default loss term (dB/km)	0.3790temperature slope calibration	1.0000multiplexer offset coefficient	1.0000multiplexer slope coefficient	1.0000fibre end	0.00T internal ref (°C)	30.25T ext. ref 1 (°C)	3.72T ext. ref 2 (°C)	24.84length (m)	temperature (°C)	Stokes	anti-Stokes-747.200	-83.965	0.120	-0.038
-746.185	-66.381	-0.110	0.044
-745.171	633.492	0.036	0.092
-744.156	-98.820	-0.266	0.068
-743.142	60.371	-0.084	0.084
-742.127	-130.082	0.362	-0.050
-741.112	433.703	0.171	-0.374
-740.098	-26.918	-0.174	0.102
-739.083	-174.064	-0.267	0.008
-738.069	-200.000	-0.086	0.396
-737.054	-200.000	-0.009	0.078
-736.039	-195.425	-0.236	-0.002
-735.025	-71.314	0.341	0.129
-734.010	-151.020	-0.094	-0.007
-732.996	-109.373	0.143	0.030
-731.981	800.000	0.071	0.296
-730.966	85.498	0.015	0.017
-729.952	-4.104	-0.160	-0.111
-728.937	-106.370	-0.582	-0.131
-727.923	630.464	-0.019	-0.048
-726.908	34.134	-0.227	0.199
-725.894	51.620	0.141	0.135
-724.879	-200.000	-0.036	0.227
-723.864	-140.303	-0.258	0.027
-722.850	-173.423	0.225	0.007
-721.835	-24.489	0.070	0.042
-720.821	800.000	-0.021	0.078
-719.806	-135.950	-0.199	-0.024
-718.791	107.222	-0.107	-0.128
-717.777	800.000	0.058	-0.165
-716.762	142.312	-0.149	-0.200
-715.748	390.230	-0.130	0.272
-714.733	83.851	0.036	-0.040
-713.718	145.469	-0.155	-0.209
-712.704	364.058	0.075	-0.152
-711.689	78.615	0.042	0.045
-710.675	100.406	0.078	0.091
-709.660	212.795	-0.131	0.208
-708.645	87.205	-0.173	-0.193
-707.631	-59.630	-0.211	0.091
-706.616	-92.949	-0.077	0.022
-705.602	24.312	-0.318	0.264
-704.587	560.561	0.048	0.116
-703.572	-200.000	0.042	0.264
-702.558	-115.837	0.174	-0.033
-701.543	800.000	-0.024	0.083
-700.529	-141.239	0.067	0.007
-699.514	132.037	-0.224	-0.290
-698.499	800.000	0.113	0.321
-697.485	5.852	-0.101	0.075
-696.470	-13.030	0.162	0.106
-695.456	-200.000	-0.035	-0.240
-694.441	-114.958	0.358	-0.068
-693.426	800.000	-0.136	-0.420
-692.412	68.020	0.140	0.144
-691.397	684.174	-0.040	-0.104
-690.383	-160.252	-0.292	-0.016
-689.368	173.441	-0.135	-0.195
-688.354	-78.121	0.213	-0.074
-687.339	162.275	-0.262	-0.369
-686.324	-154.007	0.076	0.005
-685.310	126.912	0.083	-0.106
-684.295	-179.644	-0.150	0.003
-683.281	-22.020	-0.360	0.219
-682.266	-43.687	0.127	0.065
-681.251	228.419	-0.174	0.285
-680.237	-4.383	-0.118	-0.082
-679.222	-200.000	-0.017	-0.336
-678.208	-96.253	-0.197	-0.052
-677.193	477.654	0.057	0.130
-676.178	760.842	-0.138	-0.377
-675.164	-114.278	-0.067	0.013
-674.149	-200.000	0.008	0.341
-673.135	-125.713	-0.079	-0.012
-672.120	319.006	-0.195	0.372
-671.105	-90.589	0.147	0.043
-670.091	-90.549	-0.149	-0.043
-669.076	49.230	-0.193	0.182
-668.062	132.808	-0.142	-0.184
-667.047	-200.000	-0.009	-0.067
-666.032	373.422	0.192	0.393
-665.018	-53.082	0.387	-0.179
-664.003	-105.788	0.216	0.049
-662.989	-200.000	0.005	-0.276
-661.974	1.442	-0.014	0.010
-660.959	9.076	0.107	0.081
-659.945	277.076	0.032	0.058
-658.930	309.012	-0.129	-0.242
-657.916	347.430	0.111	0.219
-656.901	-103.938	0.185	0.043
-655.886	-50.172	0.269	-0.128
-654.872	138.567	-0.170	0.223
-653.857	-160.699	0.203	0.011
-652.843	261.714	0.127	0.220
-651.828	4.891	-0.447	0.330
-650.814	-110.929	0.221	0.046
-649.799	-74.719	0.074	0.027
-648.784	3.102	0.284	-0.207
-647.770	-102.536	-0.148	-0.035
-646.755	58.734	0.218	0.214
-645.741	87.432	0.040	0.045
-644.726	800.000	-0.073	0.225
-643.711	16.250	0.275	-0.218
-642.697	800.000	-0.093	-0.272
-641.682	138.963	0.119	-0.157
-640.668	-5.585	0.092	-0.063
-639.653	-71.594	-0.353	0.132
-638.638	286.602	0.133	0.242
-637.624	539.778	0.022	0.052
-636.609	-11.783	0.232	-0.153
-635.595	800.000	-0.079	-0.245
-634.580	-145.362	0.169	0.015
-633.565	-67.433	0.407	-0.160
-632.551	-200.000	0.016	-0.226
-631.536	-68.670	0.062	0.024
-630.522	-138.445	0.278	0.031
-629.507	237.309	0.087	0.144
-628.492	800.000	0.060	0.216
-627.478	-89.388	-0.101	0.030
-626.463	-200.000	0.016	-0.165
-625.449	505.660	0.056	-0.131
-624.434	63.550	-0.434	0.437
-623.419	-86.810	-0.190	0.058
-622.405	-200.000	-0.013	-0.069
-621.390	-200.000	0.009	-0.197
-620.376	-78.290	0.218	-0.075
-619.361	-131.579	0.118	-0.016
-618.346	-26.834	-0.289	-0.169
-617.332	-200.000	-0.036	0.266
-616.317	162.947	0.005	-0.007
-615.303	45.492	-0.131	-0.121
-614.288	-107.354	0.230	0.051
-613.273	46.184	0.164	-0.152
-612.259	-200.000	-0.032	-0.200
-611.244	391.366	0.066	-0.137
-610.230	-200.000	0.006	0.073
-609.215	800.000	-0.098	-0.283
-608.201	37.816	0.132	-0.118
-607.186	-21.317	-0.248	-0.152
-606.171	-152.235	-0.049	0.004
-605.157	-200.000	0.018	-0.085
-604.142	-87.611	-0.144	0.044
-603.128	-200.000	-0.001	0.059
-602.113	535.654	0.039	0.094
-601.098	-155.968	-0.117	0.007
-600.084	704.352	-0.117	0.309
-599.069	-93.467	-0.207	-0.058
-598.055	6.785	-0.086	-0.064
-597.040	45.540	0.265	-0.245
-596.025	-200.000	0.044	-0.284
-595.011	-45.889	-0.299	-0.148
-593.996	163.396	0.063	0.088
-592.982	-101.902	-0.123	0.030
-591.967	70.485	0.092	-0.095
-590.952	51.589	-0.169	-0.161
-589.938	-151.206	-0.224	0.017
-588.923	-126.631	0.056	0.008
-587.909	-87.748	-0.402	0.121
-586.894	-200.000	-0.054	-0.320
-585.879	414.109	0.118	-0.251
-584.865	-138.770	-0.422	0.046
-583.850	-70.408	0.283	0.107
-582.836	-29.135	-0.226	-0.129
-581.821	206.623	0.076	-0.119
-580.806	-50.281	-0.212	0.100
-579.792	-164.615	0.431	-0.020
-578.777	800.000	0.070	-0.211
-577.763	-51.359	-0.188	-0.088
-576.748	800.000	0.039	-0.146
-575.733	-53.938	-0.161	0.073
-574.719	800.000	0.057	-0.210
-573.704	-124.988	0.082	0.013
-572.690	-47.930	-0.116	0.056
-571.675	-200.000	-0.008	0.077
-570.661	-200.000	-0.048	0.260
-569.646	82.689	0.169	0.184
-568.631	125.130	-0.115	-0.145
-567.617	229.310	-0.135	-0.221
-566.602	-102.223	-0.047	-0.011
-565.588	-75.990	-0.243	0.086
-564.573	-104.221	-0.206	-0.048
-563.558	66.730	-0.124	-0.127
-562.544	-193.997	0.320	-0.003
-561.529	-108.312	0.241	-0.052
-560.515	-200.000	0.013	0.089
-559.500	344.910	-0.037	-0.072
-558.485	425.343	-0.016	-0.034
-557.471	-98.429	0.289	-0.074
-556.456	-62.840	0.152	0.063
-555.442	-2.506	0.264	-0.185
-554.427	587.567	0.117	0.289
-553.412	-3.724	-0.125	0.087
-552.398	79.663	0.056	-0.060
-551.383	-154.629	-0.087	-0.006
-550.369	-57.223	0.247	-0.109
-549.354	-52.889	0.165	-0.076
-548.339	-34.391	-0.456	-0.250
-547.325	-187.567	-0.091	0.001
-546.310	242.948	-0.082	0.137
-545.296	212.665	-0.172	-0.272
-544.281	-133.633	-0.067	0.008
-543.266	-113.493	-0.339	0.066
-542.252	118.588	0.143	0.177
-541.237	-200.000	-0.060	-0.270
-540.223	52.376	0.159	0.152
-539.208	55.682	0.144	0.139
-538.193	69.130	0.104	0.106
-537.179	-200.000	-0.030	-0.269
-536.164	253.735	0.143	-0.244
-535.150	-200.000	0.026	0.510
-534.135	-115.936	-0.195	0.036
-533.121	51.588	-0.241	0.229
-532.106	-62.808	-0.080	0.033
-531.091	761.740	0.147	0.397
-530.077	-124.955	0.065	-0.010
-529.062	-9.588	-0.181	0.121
-528.048	114.781	-0.038	0.047
-527.033	-174.109	0.107	0.003
-526.018	503.920	0.071	-0.165
-525.004	-62.521	-0.214	-0.089
-523.989	85.096	-0.073	-0.080
-522.975	29.090	-0.130	0.110
-521.960	-44.420	-0.296	0.148
-520.945	494.140	0.022	-0.050
-519.931	-82.717	-0.049	-0.016
-518.916	-172.165	0.262	-0.008
-517.902	-74.205	0.143	0.051
-516.887	800.000	0.094	0.350
-515.872	252.487	0.063	0.108
-514.858	-112.128	-0.276	-0.055
-513.843	122.385	-0.175	0.218
-512.829	-59.929	-0.069	0.029
-511.814	-31.853	0.277	0.155
-510.799	-200.000	-0.014	0.066
-509.785	104.314	-0.110	-0.130
-508.770	-200.000	0.020	-0.098
-507.756	-200.000	-0.004	-0.174
-506.741	169.100	0.018	-0.025
-505.726	288.199	-0.085	-0.153
-504.712	-200.000	0.001	-0.137
-503.697	-200.000	0.001	-0.326
-502.683	-0.930	0.179	0.126
-501.668	-101.283	-0.025	-0.006
-500.653	624.586	0.089	0.223
-499.639	-200.000	0.023	0.149
-498.624	-83.855	-0.132	-0.042
-497.610	35.896	0.252	0.221
-496.595	-200.000	-0.053	0.345
-495.581	358.861	-0.174	-0.347
-494.566	-200.000	-0.012	0.239
-493.551	37.769	0.008	-0.007
-492.537	-95.946	0.280	0.074
-491.522	219.298	0.078	0.124
-490.508	-23.343	-0.260	-0.156
-489.493	694.036	-0.035	-0.091
-488.478	246.280	-0.131	-0.220
-487.464	-200.000	0.070	-0.362
-486.449	-39.628	-0.130	0.068
-485.435	-46.417	0.224	-0.110
-484.420	-177.168	-0.208	-0.005
-483.405	-76.645	-0.136	-0.047
-482.391	182.768	0.080	-0.118
-481.376	83.291	-0.106	-0.115
-480.362	-102.599	-0.057	0.014
-479.347	-6.370	0.276	0.188
-478.332	47.863	0.240	0.224
-477.318	18.847	-0.308	-0.246
-476.303	4.976	-0.106	-0.078
-475.289	-88.026	-0.121	0.036
-474.274	202.357	-0.112	0.172
-473.259	-3.199	0.099	0.069
-472.245	160.971	-0.160	-0.223
-471.230	-200.000	0.009	-0.231
-470.216	-24.827	-0.234	-0.138
-469.201	-156.903	-0.191	-0.012
-468.186	-30.123	0.115	-0.065
-467.172	-200.000	0.013	0.122
-466.157	242.803	-0.112	0.187
-465.143	257.579	0.160	0.275
-464.128	800.000	-0.036	0.127
-463.113	538.336	-0.065	0.154
-462.099	224.712	0.173	0.279
-461.084	61.146	0.182	-0.180
-460.070	62.909	-0.054	-0.054
-459.055	-51.084	-0.058	0.027
-458.040	178.821	-0.172	0.251
-457.026	-131.647	-0.228	-0.030
-456.011	268.247	-0.063	0.110
-454.997	-113.547	0.375	0.073
-453.982	-200.000	0.005	-0.180
-452.968	-200.000	-0.007	-0.418
-451.953	-200.000	0.023	0.131
-450.938	-33.690	-0.176	0.097
-449.924	-42.472	0.124	-0.063
-448.909	31.504	0.191	-0.164
-447.895	-200.000	0.061	-0.294
-446.880	33.884	0.224	-0.194
-445.865	800.000	0.071	-0.255
-444.851	215.210	0.062	-0.099
-443.836	-13.069	-0.204	-0.132
-442.822	422.829	-0.050	-0.106
-441.807	800.000	0.026	0.105
-440.792	-162.690	0.182	-0.009
-439.778	-200.000	-0.001	0.160
-438.763	-126.542	-0.062	-0.009
-437.749	-43.414	-0.210	0.105
-436.734	-59.007	-0.159	-0.068
-435.719	515.306	-0.132	0.308
-434.705	-200.000	-0.011	-0.185
-433.690	85.740	-0.274	-0.300
-432.676	533.277	-0.061	-0.143
-431.661	-200.000	0.015	0.080
-430.646	51.144	0.246	0.232
-429.632	800.000	0.082	-0.313
-428.617	-61.678	-0.198	-0.083
-427.603	184.909	-0.071	0.105
-426.588	11.530	0.094	-0.072
-425.573	242.735	-0.292	-0.487
-424.559	-200.000	0.017	-0.217
-423.544	-132.089	0.423	-0.055
-422.530	-200.000	-0.063	-0.289
-421.515	-30.439	-0.377	0.213
-420.500	-200.000	0.012	0.238
-419.486	10.378	0.247	0.187
-418.471	-44.996	-0.177	0.088
-417.457	-153.780	-0.263	-0.018
-416.442	-6.998	-0.048	0.033
-415.428	-101.617	0.150	-0.036
-414.413	-31.291	0.105	-0.059
-413.398	-159.599	-0.275	0.015
-412.384	92.481	-0.048	0.054
-411.369	-83.557	-0.069	-0.022
-410.355	13.260	-0.374	0.288
-409.340	-200.000	0.005	0.194
-408.325	-184.710	0.448	0.007
-407.311	117.703	-0.157	-0.192
-406.296	-42.697	0.158	0.080
-405.282	-200.000	0.009	-0.112
-404.267	-200.000	0.017	-0.291
-403.252	800.000	0.011	-0.036
-402.238	-77.626	-0.113	-0.039
-401.223	-200.000	-0.034	-0.276
-400.209	2.469	-0.349	-0.251
-399.194	148.103	0.078	-0.104
-398.179	399.736	-0.035	0.072
-397.165	800.000	-0.017	-0.050
-396.150	392.594	0.155	0.320
-395.136	103.296	-0.153	-0.178
-394.121	-101.536	-0.177	-0.043
-393.106	294.351	0.087	-0.158
-392.092	800.000	-0.042	0.161
-391.077	-24.958	0.274	0.162
-390.063	-200.000	-0.099	0.544
-389.048	224.859	-0.105	-0.168
-388.033	69.632	0.172	0.176
-387.019	-44.701	-0.130	-0.064
-386.004	8.729	-0.056	0.042
-384.990	-5.133	0.064	0.043
-383.975	-80.222	0.298	0.099
-382.960	67.985	0.177	0.180
-381.946	-200.000	-0.001	0.237
-380.931	-200.000	0.002	-0.355
-379.917	-71.776	-0.236	-0.087
-378.902	-119.273	0.305	-0.053
-377.888	-27.517	0.062	0.036
-376.873	-65.119	0.158	0.063
-375.858	170.327	0.025	0.036
-374.844	-5.669	-0.203	-0.138
-373.829	-126.183	-0.236	-0.035
-372.815	330.614	0.032	-0.062
-371.800	800.000	-0.054	-0.155
-370.785	103.756	0.071	0.082
-369.771	290.795	-0.059	0.106
-368.756	-54.682	-0.372	-0.167
-367.742	-158.589	0.241	0.014
-366.727	159.153	-0.020	0.027
-365.712	-23.371	0.305	0.182
-364.698	75.946	-0.131	-0.138
-363.683	-62.296	0.155	-0.064
-362.669	-153.106	0.023	-0.002
-361.654	-106.477	-0.078	-0.017
-360.639	-129.239	0.208	-0.029
-359.625	57.610	-0.265	-0.257
-358.610	-200.000	-0.035	-0.266
-357.596	6.121	0.078	0.058
-356.581	736.226	0.040	-0.108
-355.566	-112.496	-0.067	0.013
-354.552	-200.000	0.012	0.139
-353.537	-160.831	-0.093	-0.005
-352.523	204.799	-0.114	-0.175
-351.508	-200.000	0.011	0.225
-350.493	-80.585	-0.105	-0.035
-349.479	650.293	0.069	-0.175
-348.464	-9.664	-0.091	0.060
-347.450	-53.294	-0.243	-0.110
-346.435	-155.206	-0.305	-0.020
-345.420	-0.063	-0.118	0.084
-344.406	-85.948	-0.309	-0.095
-343.391	-28.502	0.181	0.104
-342.377	-200.000	0.005	0.201
-341.362	122.318	-0.132	-0.163
-340.348	800.000	0.048	-0.192
-339.333	411.512	0.183	0.385
-338.318	452.009	-0.078	0.172
-337.304	424.480	-0.053	0.113
-336.289	-83.809	0.144	0.046
-335.275	-200.000	-0.044	0.238
-334.260	208.579	-0.280	0.434
-333.245	-33.048	0.174	0.096
-332.231	-109.810	0.187	-0.039
-331.216	616.485	-0.093	0.230
-330.202	-68.311	-0.097	0.037
-329.187	-52.326	0.293	-0.135
-328.172	295.347	0.056	-0.101
-327.158	86.129	0.083	0.091
-326.143	26.716	-0.107	0.089
-325.129	800.000	0.116	-0.322
-324.114	-25.322	0.075	-0.044
-323.099	-200.000	0.037	0.241
-322.085	-200.000	0.006	0.158
-321.070	800.000	-0.071	0.230
-320.056	-123.863	-0.461	0.072
-319.041	73.994	0.063	-0.066
-318.026	-200.000	0.048	0.248
-317.012	800.000	0.034	0.116
-315.997	-37.728	-0.203	-0.107
-314.983	-154.254	-0.175	-0.012
-313.968	-9.823	0.158	0.104
-312.953	-167.933	-0.179	-0.007
-311.939	-8.605	0.105	0.070
-310.924	-80.020	0.017	-0.006
-309.910	-108.540	0.145	-0.031
-308.895	114.388	-0.178	0.215
-307.880	-26.240	0.112	-0.065
-306.866	-200.000	-0.002	0.046
-305.851	168.379	0.149	-0.210
-304.837	11.777	0.382	-0.290
-303.822	-200.000	0.060	-0.293
-302.807	151.551	0.106	-0.143
-301.793	-27.260	-0.021	0.012
-300.778	-145.643	-0.181	-0.016
-299.764	265.912	-0.075	0.130
-298.749	800.000	-0.050	0.170
-297.735	-200.000	0.064	-0.304
-296.720	-34.326	-0.217	-0.118
-295.705	-47.757	0.367	-0.176
-294.691	121.372	-0.082	0.101
-293.676	-150.230	-0.110	-0.008
-292.662	-200.000	-0.004	0.050
-291.647	800.000	0.024	0.088
-290.632	88.399	-0.152	0.167
-289.618	800.000	0.087	-0.298
-288.603	-28.328	-0.172	0.098
-287.589	705.716	0.101	0.265
-286.574	-20.444	0.279	0.170
-285.559	-50.732	-0.222	0.103
-284.545	-80.015	0.141	0.047
-283.530	394.600	0.067	-0.138
-282.516	129.725	-0.175	0.222
-281.501	-200.000	-0.025	0.132
-280.486	-200.000	0.048	0.258
-279.472	-26.188	0.190	0.111
-278.457	-91.860	-0.284	0.080
-277.443	-40.914	-0.079	0.040
-276.428	293.695	0.151	-0.273
-275.413	-29.829	-0.144	-0.081
-274.399	800.000	-0.047	0.145
-273.384	-14.318	0.192	-0.123
-272.370	365.311	-0.052	-0.103
-271.355	-101.591	0.229	-0.055
-270.340	12.466	0.093	0.071
-269.326	291.650	0.145	-0.261
-268.311	-200.000	0.046	-0.259
-267.297	103.966	-0.231	-0.269
-266.282	-60.551	0.292	-0.123
-265.267	132.883	-0.112	0.143
-264.253	194.107	-0.173	0.258
-263.238	-38.357	-0.184	-0.096
-262.224	-132.356	0.117	0.015
-261.209	272.576	-0.016	-0.028
-260.195	-111.803	-0.206	0.041
-259.180	-14.943	0.310	0.197
-258.165	414.607	-0.012	0.025
-257.151	-200.000	0.004	0.054
-256.136	137.724	-0.362	-0.468
-255.122	-22.566	0.185	-0.111
-254.107	62.337	0.253	-0.250
-253.092	-180.040	-0.282	-0.006
-252.078	800.000	-0.066	0.196
-251.063	9.635	-0.211	0.158
-250.049	-96.464	-0.207	0.054
-249.034	-72.120	0.233	-0.086
-248.019	18.408	0.071	0.056
-247.005	-200.000	0.008	0.193
-245.990	-46.666	0.283	-0.137
-244.976	-11.174	-0.135	-0.088
-243.961	74.297	0.201	0.209
-242.946	-55.508	0.426	-0.188
-241.932	-200.000	-0.018	0.110
-240.917	64.793	0.169	0.168
-239.903	125.915	-0.173	-0.216
-238.888	800.000	0.042	-0.126
-237.873	673.251	-0.038	-0.097
-236.859	271.218	0.035	0.061
-235.844	56.627	0.227	0.218
-234.830	-55.528	0.309	0.137
-233.815	51.054	-0.123	-0.115
-232.800	164.006	-0.188	-0.261
-231.786	344.403	0.099	0.191
-230.771	-33.110	0.060	0.033
-229.757	-95.406	0.108	0.029
-228.742	-200.000	-0.024	0.115
-227.727	-200.000	-0.008	-0.148
-226.713	-20.099	-0.230	0.140
-225.698	-200.000	-0.012	0.061
-224.684	-200.000	0.031	0.176
-223.669	-34.805	0.025	0.013
-222.655	86.922	-0.033	0.036
-221.640	26.041	0.141	0.116
-220.625	292.503	0.174	0.313
-219.611	286.389	0.148	0.264
-218.596	-150.378	-0.172	-0.013
-217.582	-200.000	-0.003	-0.034
-216.567	-200.000	-0.006	0.146
-215.552	291.795	-0.119	0.214
-214.538	-99.711	0.048	-0.012
-213.523	453.921	-0.020	-0.044
-212.509	-58.871	-0.084	-0.036
-211.494	227.102	-0.182	0.291
-210.479	-68.251	-0.356	0.137
-209.465	-66.960	0.188	-0.073
-208.450	800.000	0.068	0.191
-207.436	800.000	0.057	-0.244
-206.421	-48.853	0.427	0.202
-205.406	-200.000	0.086	0.399
-204.392	522.383	0.038	-0.088
-203.377	-96.348	0.150	-0.039
-202.363	-101.972	-0.323	-0.077
-201.348	-33.465	0.112	-0.061
-200.333	-200.000	-0.032	-0.261
-199.319	-78.488	0.060	0.020
-198.304	-61.394	0.306	-0.127
-197.290	-146.719	0.320	-0.027
-196.275	-200.000	-0.022	-0.233
-195.260	-135.371	0.372	-0.044
-194.246	-69.207	-0.255	-0.097
-193.231	-170.716	-0.253	-0.009
-192.217	201.953	0.085	-0.129
-191.202	-200.000	-0.022	-0.130
-190.187	-200.000	0.001	-0.120
-189.173	-117.118	0.060	-0.011
-188.158	-28.548	0.096	-0.054
-187.144	800.000	-0.074	0.283
-186.129	255.396	0.185	0.312
-185.114	116.524	-0.127	-0.153
-184.100	16.795	-0.181	0.141
-183.085	-56.706	0.189	-0.083
-182.071	629.816	0.049	-0.123
-181.056	108.629	-0.165	0.195
-180.042	-99.066	0.049	-0.012
-179.027	-137.317	0.061	0.007
-178.012	515.599	-0.038	0.086
-176.998	-63.393	-0.167	0.068
-175.983	-200.000	-0.016	0.255
-174.969	47.102	-0.142	0.130
-173.954	443.298	-0.038	-0.082
-172.939	-200.000	0.058	-0.351
-171.925	-200.000	0.061	0.305
-170.910	-85.343	0.089	0.027
-169.896	-89.593	-0.133	0.039
-168.881	708.449	0.078	0.202
-167.866	175.031	0.218	0.311
-166.852	-66.343	0.510	-0.200
-165.837	87.124	-0.080	-0.087
-164.823	30.709	-0.044	-0.037
-163.808	-89.084	0.175	0.051
-162.793	-200.000	-0.037	0.216
-161.779	-75.358	0.172	-0.060
-160.764	380.707	-0.114	-0.231
-159.750	-110.238	0.396	-0.081
-158.735	-118.255	-0.022	0.004
-157.720	607.733	0.056	-0.137
-156.706	-40.166	0.083	0.042
-155.691	83.112	0.015	0.016
-154.677	-200.000	-0.045	0.307
-153.662	-57.894	0.192	0.082
-152.647	800.000	-0.089	0.278
-151.633	-200.000	0.030	0.244
-150.618	-96.584	-0.158	0.041
-149.604	61.388	0.336	-0.329
-148.589	99.926	0.140	-0.160
-147.574	-7.722	0.307	-0.204
-146.560	-111.179	-0.244	-0.049
-145.545	-200.000	0.005	-0.305
-144.531	-109.771	0.050	-0.010
-143.516	-60.065	-0.145	-0.061
-142.502	-140.009	-0.442	-0.046
-141.487	11.245	-0.070	-0.052
-140.472	800.000	-0.024	-0.070
-139.458	-200.000	-0.002	0.177
-138.443	35.245	-0.147	0.127
-137.429	28.057	0.273	-0.226
-136.414	800.000	-0.088	-0.313
-135.399	191.889	-0.181	0.269
-134.385	-39.662	0.187	-0.096
-133.370	414.387	-0.041	-0.086
-132.356	-62.220	0.169	-0.069
-131.341	-200.000	-0.009	0.063
-130.326	-126.139	-0.143	-0.021
-129.312	4.545	-0.088	-0.063
-128.297	-200.000	-0.019	-0.176
-127.283	-120.182	-0.174	0.029
-126.268	-55.684	0.191	0.084
-125.253	107.787	0.123	-0.144
-124.239	199.817	-0.115	0.174
-123.224	-120.888	0.135	0.022
-122.210	-85.099	0.099	-0.031
-121.195	125.107	-0.139	0.172
-120.180	-41.435	-0.111	-0.056
-119.166	38.539	0.214	-0.187
-118.151	493.557	0.195	0.440
-117.137	800.000	-0.098	0.313
-116.122	18.657	-0.232	0.182
-115.107	35.651	0.136	0.117
-114.093	-34.479	0.106	0.057
-113.078	-200.000	0.026	0.282
-112.064	-12.918	0.257	0.164
-111.049	61.590	-0.252	0.246
-110.034	-170.980	-0.342	0.011
-109.020	800.000	-0.012	-0.038
-108.005	800.000	-0.090	0.281
-106.991	800.000	0.053	-0.204
-105.976	-176.205	-0.241	-0.006
-104.962	800.000	-0.061	0.218
-103.947	-180.649	0.051	-0.001
-102.932	-200.000	0.049	0.557
-101.918	-200.000	0.067	-0.000
-100.903	-139.256	-0.323	0.034
-99.889	657.441	0.071	0.179
-98.874	711.072	-0.081	0.210
-97.859	-155.060	0.276	-0.018
-96.845	27.695	0.123	0.102
-95.830	-170.687	-0.250	0.008
-94.816	72.676	0.252	-0.258
-93.801	143.396	-0.093	-0.121
-92.786	68.971	0.053	0.053
-91.772	202.801	-0.202	0.307
-90.757	99.987	0.086	-0.098
-89.743	-200.000	0.025	0.440
-88.728	-87.206	-0.136	0.041
-87.713	-18.880	0.339	0.207
-86.699	-200.000	-0.047	0.319
-85.684	32.527	0.185	0.157
-84.670	613.973	0.073	0.178
-83.655	453.579	-0.121	0.264
-82.640	-200.000	-0.019	0.253
-81.626	-86.302	0.027	-0.008
-80.611	-96.565	-0.345	-0.089
-79.597	199.056	0.106	0.159
-78.582	-79.796	0.237	0.078
-77.567	-200.000	0.005	-0.054
-76.553	-86.147	-0.343	0.104
-75.538	6.722	0.382	0.279
-74.524	800.000	0.036	-0.106
-73.509	280.232	-0.176	-0.309
-72.494	-148.215	0.260	0.021
-71.480	800.000	-0.021	-0.069
-70.465	800.000	-0.077	0.259
-69.451	-151.054	0.219	-0.016
-68.436	507.576	0.253	0.577
-67.422	245.460	0.116	0.192
-66.407	270.470	0.156	0.269
-65.392	-46.013	0.326	-0.157
-64.378	800.000	0.022	0.087
-63.363	54.024	-0.057	0.054
-62.349	-200.000	-0.003	-0.296
-61.334	155.606	-0.667	-0.900
-60.319	718.883	0.320	0.835
-59.305	313.623	-0.515	-0.949
-58.290	473.872	0.564	1.247
-57.276	364.759	0.720	1.420
-56.261	-200.000	104.300	590.292
-55.246	551.194	1447.175	3405.276
-54.232	185.537	2639.997	3844.257
-53.217	108.937	2272.572	2663.909
-52.203	39.432	1890.367	1660.033
-51.188	33.492	1680.169	1430.706
-50.173	30.750	1637.414	1374.032
-49.159	49.822	1689.117	1560.831
-48.144	50.213	1704.929	1578.311
-47.130	33.059	1663.366	1412.939
-46.115	30.326	1648.813	1380.229
-45.100	30.170	1644.685	1375.561
-44.086	30.189	1641.575	1373.046
-43.071	30.118	1638.930	1370.250
-42.057	30.075	1636.141	1367.554
-41.042	30.253	1633.887	1366.927
-40.027	30.124	1632.715	1364.939
-39.013	30.122	1630.566	1363.076
-37.998	30.109	1629.243	1361.815
-36.984	30.213	1627.575	1361.136
-35.969	30.266	1626.356	1360.449
-34.954	30.279	1624.639	1359.054
-33.940	30.274	1622.907	1357.511
-32.925	30.277	1621.119	1355.988
-31.911	30.306	1619.305	1354.630
-30.896	30.226	1618.080	1352.964
-29.881	30.143	1616.704	1351.157
-28.867	30.328	1614.215	1350.369
-27.852	30.264	1612.593	1348.490
-26.838	30.285	1611.295	1347.503
-25.823	30.241	1610.334	1346.333
-24.809	30.244	1609.364	1345.485
-23.794	30.250	1607.531	1343.942
-22.779	30.239	1606.405	1342.870
-21.765	30.209	1604.530	1341.031
-20.750	30.223	1603.114	1339.900
-19.736	30.219	1601.904	1338.807
-18.721	30.275	1600.783	1338.219
-17.706	30.250	1598.669	1336.214
-16.692	30.361	1597.010	1335.579
-15.677	30.190	1596.210	1333.623
-14.663	30.303	1594.559	1333.006
-13.648	30.352	1592.759	1331.800
-12.633	30.266	1591.538	1330.106
-11.619	30.288	1589.803	1328.762
-10.604	30.373	1587.975	1327.791
-9.590	30.303	1587.257	1326.639
-8.575	30.297	1586.391	1325.816
-7.560	30.261	1585.061	1324.399
-6.546	30.220	1584.352	1323.457
-5.531	30.293	1582.850	1322.668
-4.517	30.280	1581.612	1321.492
-3.502	30.176	1580.901	1320.102
-2.487	30.375	1578.612	1319.558
-1.473	29.970	1567.649	1307.478
-0.458	26.944	1548.325	1270.171
0.556	25.081	1548.870	1238.012
1.571	22.491	1572.591	1238.674
2.586	21.868	1585.846	1244.579
3.600	19.710	1531.460	1186.989
4.615	12.017	1424.581	1054.724
5.629	4.961	1362.621	965.196
6.644	3.734	1354.723	951.955
7.659	3.598	1353.942	950.486
8.673	3.747	1352.682	950.435
9.688	3.792	1350.209	948.890
10.702	3.546	1347.925	945.691
11.717	6.855	1353.652	969.969
12.731	15.303	1369.284	1033.345
13.746	22.512	1380.924	1086.679
14.761	24.153	1383.128	1098.443
15.775	23.808	1381.685	1095.073
16.790	23.223	1379.066	1089.302
17.804	22.605	1377.464	1084.141
18.819	22.441	1376.879	1082.577
19.834	22.529	1375.917	1082.266
20.848	22.408	1375.098	1080.782
21.863	22.421	1374.236	1080.089
22.877	22.315	1373.200	1078.532
23.892	22.289	1372.433	1077.676
24.907	22.117	1371.852	1076.066
25.921	22.206	1370.492	1075.451
26.936	22.275	1369.555	1075.042
27.950	22.308	1368.410	1074.247
28.965	22.245	1368.167	1073.581
29.980	22.419	1366.549	1073.278
30.994	22.633	1365.754	1073.859
32.009	22.576	1365.217	1072.995
33.023	22.599	1363.335	1071.559
34.038	22.472	1362.351	1069.919
35.053	22.439	1360.893	1068.481
36.067	22.369	1360.268	1067.472
37.082	22.321	1359.260	1066.294
38.096	22.344	1358.570	1065.801
39.111	22.409	1357.695	1065.413
40.126	22.271	1356.678	1063.684
41.140	21.991	1355.342	1060.853
42.155	21.807	1355.275	1059.592
43.169	21.766	1354.608	1058.731
44.184	21.816	1354.478	1058.838
45.199	22.059	1354.037	1059.868
46.213	22.103	1353.981	1059.993
47.228	22.273	1353.606	1060.630
48.242	22.374	1352.219	1060.060
49.257	22.321	1350.900	1058.611
50.271	22.282	1349.644	1057.299
51.286	22.310	1347.854	1055.971
52.301	22.172	1347.020	1054.399
53.315	22.142	1345.787	1053.159
54.330	21.999	1344.609	1051.289
55.344	21.964	1343.039	1049.759
56.359	21.841	1342.843	1048.776
57.374	21.886	1341.387	1047.812
58.388	21.735	1341.154	1046.639
59.403	21.774	1340.455	1046.231
60.417	21.528	1339.867	1044.214
61.432	21.629	1338.633	1043.760
62.447	21.570	1337.700	1042.592
63.461	21.577	1336.382	1041.515
64.476	21.456	1335.898	1040.322
65.490	21.443	1334.277	1038.890
66.505	21.479	1332.614	1037.721
67.520	21.460	1332.158	1037.160
68.534	21.533	1330.566	1036.261
69.549	21.343	1329.547	1034.252
70.563	21.252	1328.794	1033.034
71.578	21.243	1327.592	1031.955
72.593	21.168	1326.868	1030.862
73.607	21.254	1325.303	1030.060
74.622	21.324	1324.865	1030.043
75.636	21.218	1324.921	1029.367
76.651	21.391	1324.024	1029.597
77.666	21.417	1323.279	1029.083
78.680	21.464	1323.200	1029.205
79.695	21.499	1322.685	1028.918
80.709	21.679	1322.220	1029.526
81.724	21.758	1320.993	1028.946
82.739	21.881	1320.401	1029.114
83.753	22.231	1319.691	1030.522
84.768	22.441	1319.332	1031.378
85.782	22.503	1318.353	1030.881
86.797	22.521	1317.196	1029.996
87.812	22.514	1315.706	1028.697
88.826	22.380	1314.777	1027.096
89.841	22.421	1313.900	1026.560
90.855	22.494	1313.054	1026.233
91.870	22.557	1312.358	1025.964
92.884	22.588	1312.040	1025.807
93.899	22.596	1311.093	1025.025
94.914	22.667	1310.422	1024.822
95.928	22.628	1309.420	1023.721
96.943	22.646	1307.905	1022.551
97.957	22.547	1307.467	1021.539
98.972	22.599	1306.353	1020.881
99.987	22.497	1305.518	1019.546
101.001	22.444	1304.223	1018.138
102.016	22.601	1303.169	1018.134
103.030	22.544	1302.438	1017.144
104.045	22.456	1302.031	1016.227
105.060	22.301	1300.028	1013.680
106.074	21.938	1298.864	1010.593
107.089	21.675	1297.516	1007.946
108.103	21.546	1295.857	1005.825
109.118	21.446	1294.529	1004.129
110.133	21.472	1292.831	1002.875
111.147	21.400	1292.147	1001.840
112.162	21.534	1290.943	1001.589
113.176	21.761	1289.638	1001.784
114.191	21.694	1289.054	1000.860
115.206	21.633	1288.264	999.810
116.220	21.677	1286.978	998.971
117.235	21.607	1286.104	997.805
118.249	21.592	1284.628	996.486
119.264	21.426	1283.364	994.476
120.279	21.477	1282.113	993.710
121.293	21.389	1280.825	992.122
122.308	21.238	1279.889	990.455
123.322	21.093	1279.357	989.131
124.337	21.169	1278.027	988.448
125.352	21.125	1276.928	987.262
126.366	21.149	1276.028	986.614
127.381	21.173	1274.654	985.599
128.395	21.020	1273.923	984.083
129.410	20.979	1272.968	983.027
130.424	21.051	1272.986	983.358
131.439	21.321	1271.838	983.906
132.454	21.561	1271.590	984.980
133.468	21.624	1270.789	984.624
134.483	21.642	1270.165	984.155
135.497	21.659	1269.092	983.334
136.512	21.620	1268.382	982.479
137.527	21.593	1267.341	981.434
138.541	21.592	1266.211	980.464
139.556	21.721	1264.604	979.857
140.570	21.890	1263.934	980.196
141.585	22.090	1262.794	980.342
142.600	22.248	1262.278	980.734
143.614	22.417	1261.543	981.015
144.629	22.467	1260.482	980.384
145.643	22.480	1259.261	979.420
146.658	22.238	1258.347	977.278
147.673	22.043	1256.631	974.775
148.687	21.945	1255.423	973.208
149.702	21.709	1254.563	971.146
150.716	21.578	1252.399	968.662
151.731	21.511	1251.110	967.206
152.746	21.702	1250.035	967.346
153.760	21.729	1249.545	967.032
154.775	21.943	1248.542	967.347
155.789	21.926	1248.236	966.935
156.804	22.026	1246.646	966.165
157.819	22.100	1246.033	966.013
158.833	22.180	1245.389	965.866
159.848	22.308	1244.504	965.800
160.862	22.214	1243.805	964.655
161.877	21.886	1242.465	961.731
162.892	21.625	1240.756	958.896
163.906	21.431	1240.048	957.203
164.921	21.431	1238.835	956.182
165.935	21.711	1238.451	957.329
166.950	21.861	1237.736	957.509
167.964	21.808	1237.436	956.904
168.979	21.686	1236.800	955.663
169.994	21.657	1235.561	954.465
171.008	21.669	1235.069	954.061
172.023	21.858	1234.409	954.498
173.037	22.109	1234.626	955.949
174.052	22.122	1233.399	954.982
175.067	21.781	1231.410	951.511
176.081	21.504	1230.766	949.423
177.096	21.437	1229.816	948.242
178.110	21.547	1228.927	948.069
179.125	21.614	1228.014	947.644
180.140	21.948	1226.315	948.057
181.154	22.101	1226.134	948.654
182.169	22.132	1225.059	947.907
183.183	22.148	1224.105	947.173
184.198	22.248	1223.221	946.941
185.213	22.238	1222.146	945.973
186.227	22.271	1221.089	945.247
187.242	22.367	1219.657	944.574
188.256	22.422	1219.728	944.840
189.271	22.452	1218.553	944.006
190.286	22.299	1217.566	942.338
191.300	21.906	1216.153	939.056
192.315	21.731	1215.367	937.434
193.329	21.773	1215.041	937.320
194.344	21.764	1214.045	936.420
195.359	21.719	1213.243	935.482
196.373	21.725	1213.080	935.304
197.388	21.942	1212.305	935.781
198.402	22.182	1213.319	937.764
199.417	22.444	1212.795	938.671
200.432	22.598	1212.358	939.068
201.446	22.705	1211.628	938.991
202.461	22.708	1210.909	938.369
203.475	22.709	1209.773	937.412
204.490	22.459	1208.148	934.739
205.504	22.111	1206.727	931.713
206.519	21.991	1205.506	930.049
207.534	21.883	1204.197	928.386
208.548	21.864	1203.547	927.707
209.563	21.976	1202.851	927.678
210.577	21.984	1201.669	926.728
211.592	22.047	1201.397	926.769
212.607	22.340	1200.868	927.821
213.621	22.379	1200.183	927.417
214.636	22.284	1199.433	926.255
215.650	22.363	1198.476	925.850
216.665	22.467	1197.562	925.609
217.680	22.631	1197.324	926.202
218.694	22.738	1196.042	925.689
219.709	22.610	1195.351	924.401
220.723	22.583	1194.619	923.614
221.738	22.592	1193.499	922.715
222.753	22.337	1192.992	920.905
223.767	22.423	1192.158	920.631
224.782	22.546	1192.195	921.220
225.796	22.654	1192.164	921.679
226.811	22.730	1190.928	921.040
227.826	22.559	1189.478	918.942
228.840	22.285	1189.387	917.362
229.855	22.217	1188.285	916.079
230.869	22.265	1187.233	915.439
231.884	22.171	1186.141	914.027
232.899	21.847	1185.600	911.842
233.913	21.908	1184.575	911.291
234.928	21.930	1183.729	910.671
235.942	21.946	1182.601	909.810
236.957	21.855	1181.811	908.647
237.972	21.729	1181.585	907.740
238.986	21.748	1180.982	907.299
240.001	21.793	1180.206	906.852
241.015	21.768	1179.517	906.113
242.030	22.028	1178.669	906.727
243.045	22.288	1177.660	907.210
244.059	22.279	1177.205	906.733
245.074	22.344	1176.736	906.627
246.088	22.413	1176.020	906.351
247.103	22.574	1175.605	906.776
248.117	22.711	1175.093	907.006
249.132	22.876	1174.642	907.428
250.147	23.316	1174.195	909.258
251.161	23.449	1173.713	909.486
252.176	23.463	1172.909	908.859
253.190	23.498	1172.641	908.747
254.205	23.591	1172.425	908.978
255.220	23.726	1171.401	908.791
256.234	23.670	1170.987	908.107
257.249	23.632	1170.163	907.193
258.263	23.426	1169.839	905.807
259.278	23.533	1168.469	905.212
260.293	23.563	1168.170	905.051
261.307	23.594	1167.789	904.839
262.322	23.620	1167.020	904.292
263.336	23.708	1166.270	904.077
264.351	23.719	1164.963	903.045
265.366	23.556	1165.393	902.468
266.380	23.670	1164.319	902.135
267.395	23.519	1163.765	900.859
268.409	23.354	1162.945	899.304
269.424	23.358	1161.852	898.402
270.439	23.267	1161.661	897.716
271.453	23.133	1160.802	896.293
272.468	23.063	1159.454	894.819
273.482	22.907	1158.615	893.302
274.497	23.026	1157.878	893.257
275.512	23.007	1157.392	892.709
276.526	22.935	1156.792	891.798
277.541	23.018	1156.024	891.550
278.555	23.253	1155.499	892.252
279.570	23.448	1154.750	892.574
280.585	23.567	1154.676	893.037
281.599	23.541	1153.656	892.040
282.614	23.271	1152.238	889.504
283.628	23.209	1150.757	887.975
284.643	23.140	1150.200	887.121
285.657	23.142	1149.408	886.437
286.672	23.174	1148.075	885.494
287.687	23.229	1147.632	885.347
288.701	23.128	1147.165	884.407
289.716	23.132	1146.195	883.597
290.730	23.015	1145.919	882.724
291.745	23.168	1144.953	882.662
292.760	23.223	1144.552	882.554
293.774	23.356	1144.346	882.978
294.789	23.465	1143.890	883.091
295.803	23.475	1142.838	882.251
296.818	23.230	1141.769	880.129
297.833	23.185	1140.972	879.213
298.847	23.124	1140.737	878.651
299.862	23.141	1140.149	878.203
300.876	23.184	1139.079	877.516
301.891	23.325	1138.823	877.941
302.906	23.604	1138.218	878.777
303.920	23.670	1137.911	878.788
304.935	23.863	1137.418	879.287
305.949	23.980	1136.779	879.291
306.964	23.987	1135.750	878.453
307.979	23.645	1134.862	876.000
308.993	23.585	1134.188	875.108
310.008	23.668	1133.896	875.216
311.022	23.776	1132.919	874.917
312.037	23.890	1132.077	874.749
313.052	23.564	1130.661	871.973
314.066	23.316	1129.477	869.769
315.081	22.969	1128.747	867.423
316.095	22.964	1127.845	866.628
317.110	22.961	1127.135	865.991
318.125	22.956	1126.580	865.465
319.139	23.112	1125.393	865.242
320.154	23.066	1125.204	864.792
321.168	23.025	1124.331	863.846
322.183	23.140	1123.782	863.909
323.197	23.095	1123.602	863.475
324.212	23.141	1123.098	863.236
325.227	23.255	1122.609	863.336
326.241	23.303	1121.900	862.948
327.256	23.223	1120.664	861.535
328.270	23.114	1119.815	860.274
329.285	23.149	1119.043	859.775
330.300	23.073	1118.687	859.057
331.314	23.178	1117.269	858.403
332.329	23.048	1116.606	857.188
333.343	23.192	1115.628	857.057
334.358	23.316	1115.184	857.240
335.373	23.526	1114.693	857.805
336.387	23.631	1114.289	857.926
337.402	23.644	1113.762	857.506
338.416	23.730	1113.090	857.327
339.431	23.858	1112.370	857.313
340.446	24.105	1111.832	858.016
341.460	24.205	1111.517	858.175
342.475	24.277	1110.760	857.864
343.489	24.327	1110.206	857.597
344.504	24.370	1109.344	857.061
345.519	24.373	1108.358	856.239
346.533	24.486	1107.438	855.993
347.548	24.603	1106.967	856.115
348.562	24.409	1105.953	854.330
349.577	24.067	1104.609	851.579
350.592	23.713	1103.620	849.049
351.606	23.489	1102.885	847.337
352.621	23.542	1101.976	846.819
353.635	23.467	1100.877	845.543
354.650	23.473	1100.201	844.974
355.665	23.438	1100.346	844.844
356.679	23.742	1099.546	845.601
357.694	23.764	1099.212	845.377
358.708	23.812	1098.719	845.149
359.723	23.939	1097.791	844.966
360.738	24.001	1096.806	844.429
361.752	23.860	1096.645	843.558
362.767	23.885	1096.141	843.213
363.781	23.987	1095.380	843.037
364.796	24.107	1095.449	843.587
365.810	24.243	1095.285	844.029
366.825	24.554	1094.586	844.887
367.840	24.723	1094.073	845.214
368.854	24.797	1093.828	845.301
369.869	24.655	1092.864	843.809
370.883	24.613	1091.626	842.582
371.898	24.344	1091.035	840.785
372.913	24.287	1090.484	840.016
373.927	24.386	1089.985	840.024
374.942	24.653	1089.493	840.826
375.956	24.430	1089.106	839.405
376.971	24.427	1088.102	838.541
377.986	24.457	1088.028	838.552
379.000	24.709	1087.800	839.485
380.015	24.699	1087.000	838.744
381.029	24.841	1086.376	838.855
382.044	24.786	1086.076	838.293
383.059	24.753	1085.314	837.473
384.073	24.621	1084.217	835.935
385.088	24.856	1083.211	836.185
386.102	24.703	1082.424	834.791
387.117	24.334	1081.123	831.992
388.132	24.144	1080.229	830.347
389.146	24.146	1079.357	829.613
390.161	24.090	1078.482	828.606
391.175	24.176	1077.926	828.505
392.190	24.341	1077.315	828.726
393.205	24.603	1076.989	829.619
394.219	24.566	1076.264	828.817
395.234	24.262	1075.143	826.469
396.248	24.158	1073.807	824.890
397.263	24.171	1072.720	824.042
398.278	24.103	1072.020	823.116
399.292	24.073	1071.512	822.514
400.307	24.049	1070.917	821.875
401.321	24.003	1069.870	820.786
402.336	23.866	1068.879	819.321
403.350	23.810	1068.422	818.639
404.365	24.119	1068.021	819.685
405.380	24.049	1067.663	819.016
406.394	24.163	1066.834	818.830
407.409	24.433	1066.654	819.859
408.423	24.789	1065.942	820.873
409.438	24.833	1065.489	820.653
410.453	24.762	1065.341	820.140
411.467	24.839	1064.591	819.845
412.482	25.014	1063.640	819.842
413.496	25.020	1063.254	819.501
414.511	25.087	1062.823	819.399
415.526	25.273	1062.315	819.785
416.540	25.317	1061.993	819.664
417.555	25.147	1061.579	818.496
418.569	25.018	1060.458	816.971
419.584	24.970	1059.875	816.230
420.599	25.005	1059.569	816.085
421.613	156.009	1404.179	1797.331
422.628	143.410	1454.337	1797.401
