DTS Sentinel unit serial number:	SN413079Multiplexer serial number:	ORYXHardware model number:	OX4-SRSoftware version number:	ORYX F/W v4.00 Oryx Data Collector v3.7.2.0data status	okinstallation	princeton_trtdifferential loss correction	single-endedforward channel	channel 2reverse channel	N/Adate	2019/09/12time	13:29:11forward acquisition time	60.00reverse acquisition time	0.00gamma	496.2192k internal	0.2297k external	0.2297temperature offset calibration	1.0081default loss term (dB/km)	0.3790temperature slope calibration	1.0000multiplexer offset coefficient	1.0000multiplexer slope coefficient	1.0000fibre end	0.00T internal ref (°C)	41.09T ext. ref 1 (°C)	2.13T ext. ref 2 (°C)	36.45length (m)	temperature (°C)	Stokes	anti-Stokes-747.200	248.373	0.077	0.134
-746.185	211.034	0.107	0.171
-745.171	224.335	-0.214	0.354
-744.156	-200.000	-0.030	0.469
-743.142	46.753	-0.256	0.242
-742.127	-42.595	0.087	0.045
-741.112	194.571	0.120	0.186
-740.098	-116.582	0.244	-0.046
-739.083	-30.596	0.182	0.105
-738.069	670.614	0.149	0.394
-737.054	92.096	-0.205	-0.235
-736.039	36.486	-0.009	0.008
-735.025	-111.318	0.258	0.054
-734.010	-200.000	-0.009	0.129
-732.996	-20.163	-0.111	0.070
-731.981	-74.400	-0.365	0.135
-730.966	-86.812	0.340	-0.106
-729.952	-124.771	0.325	0.051
-728.937	-96.582	-0.349	0.094
-727.923	-200.000	-0.036	-0.279
-726.908	-115.407	-0.231	0.045
-725.894	-200.000	-0.002	-0.024
-724.879	-32.298	0.093	-0.053
-723.864	-200.000	0.088	-0.602
-722.850	99.581	-0.394	0.465
-721.835	-55.573	-0.220	0.100
-720.821	261.556	-0.050	-0.088
-719.806	800.000	0.036	-0.105
-718.791	42.580	0.063	-0.058
-717.777	-117.483	-0.304	0.056
-716.762	-99.461	-0.286	0.073
-715.748	-168.207	-0.204	-0.008
-714.733	-111.595	-0.233	-0.048
-713.718	-72.642	0.332	-0.125
-712.704	-101.163	-0.147	0.037
-711.689	369.971	0.117	-0.242
-710.675	183.488	0.064	-0.097
-709.660	-200.000	-0.013	-0.187
-708.645	-107.228	-0.382	0.086
-707.631	37.125	0.247	0.223
-706.616	-86.697	-0.559	0.175
-705.602	89.248	-0.088	0.100
-704.587	-148.302	0.063	0.005
-703.572	-57.232	0.174	-0.078
-702.558	146.412	-0.175	-0.240
-701.543	-79.105	0.159	-0.055
-700.529	293.763	0.043	-0.080
-699.514	10.248	0.128	-0.099
-698.499	34.793	-0.187	-0.167
-697.485	-95.064	0.145	-0.040
-696.470	-85.993	0.249	0.078
-695.456	114.038	0.127	-0.158
-694.441	19.897	-0.124	-0.102
-693.426	-200.000	0.080	0.393
-692.412	-62.559	0.220	-0.093
-691.397	212.745	-0.183	-0.294
-690.383	-200.000	-0.000	0.106
-689.368	800.000	0.064	0.247
-688.354	220.104	-0.086	-0.141
-687.339	-200.000	0.031	-0.152
-686.324	-76.461	-0.055	-0.020
-685.310	101.274	0.145	-0.172
-684.295	-157.223	-0.085	-0.005
-683.281	-200.000	0.002	0.088
-682.266	-200.000	0.002	-0.169
-681.251	-200.000	-0.010	0.423
-680.237	-81.769	0.020	0.007
-679.222	162.832	0.117	0.168
-678.208	69.460	-0.083	0.087
-677.193	12.567	-0.137	-0.108
-676.178	62.259	0.122	-0.124
-675.164	12.415	-0.170	0.133
-674.149	-200.000	-0.017	0.078
-673.135	-141.657	0.209	0.021
-672.120	-102.326	-0.259	0.063
-671.105	55.749	-0.128	0.126
-670.091	-71.751	-0.413	0.157
-669.076	-73.084	-0.305	0.114
-668.062	448.491	0.069	0.155
-667.047	800.000	0.103	0.305
-666.032	186.513	0.029	0.044
-665.018	138.967	0.246	0.329
-664.003	4.803	-0.097	-0.073
-662.989	-200.000	-0.026	-0.314
-661.974	-200.000	0.018	0.137
-660.959	2.992	-0.223	0.165
-659.945	-126.497	0.107	-0.016
-658.930	-135.437	0.368	0.045
-657.916	-71.691	-0.235	0.089
-656.901	-200.000	0.043	0.221
-655.886	118.852	-0.104	0.131
-654.872	11.237	-0.239	-0.186
-653.857	-72.094	0.266	-0.101
-652.843	-200.000	-0.067	-0.319
-651.828	150.211	0.122	-0.168
-650.814	-200.000	0.000	0.230
-649.799	800.000	-0.083	-0.263
-648.784	-200.000	-0.074	-0.450
-647.770	800.000	-0.078	-0.255
-646.755	-125.074	0.166	-0.026
-645.741	-200.000	0.007	-0.226
-644.726	-88.086	0.045	0.014
-643.711	-53.979	0.083	-0.038
-642.697	56.247	-0.153	0.151
-641.682	755.112	0.085	0.235
-640.668	-2.290	0.189	-0.135
-639.653	-200.000	-0.007	-0.064
-638.638	-76.944	-0.324	0.115
-637.624	-27.791	0.437	0.258
-636.609	365.707	-0.044	0.091
-635.595	37.424	0.407	0.367
-634.580	293.503	0.111	-0.206
-633.565	800.000	0.037	0.110
-632.551	-150.859	0.023	0.002
-631.536	800.000	-0.060	-0.178
-630.522	21.091	0.082	0.068
-629.507	-80.900	0.170	0.057
-628.492	10.901	0.287	0.222
-627.478	-111.514	-0.127	0.026
-626.463	-27.444	0.323	-0.191
-625.449	-77.236	0.160	0.057
-624.434	-110.937	-0.225	0.047
-623.419	7.515	-0.266	-0.202
-622.405	164.262	-0.267	-0.383
-621.390	-200.000	0.074	0.591
-620.376	-97.304	-0.126	0.033
-619.361	-11.278	0.169	0.113
-618.346	77.195	-0.110	0.119
-617.332	-18.055	-0.191	0.122
-616.317	-88.355	-0.145	-0.044
-615.303	69.801	-0.219	0.229
-614.288	-125.831	-0.320	0.049
-613.273	-105.393	-0.281	-0.065
-612.259	424.102	-0.048	-0.104
-611.244	-73.001	0.051	-0.019
-610.230	-115.967	0.332	0.063
-609.215	308.094	0.030	-0.057
-608.201	-146.850	-0.252	0.022
-607.186	11.824	-0.291	-0.227
-606.171	103.804	0.099	0.119
-605.157	784.031	0.092	0.256
-604.142	198.312	-0.037	-0.058
-603.128	153.521	-0.061	0.085
-602.113	-77.672	-0.117	0.041
-601.098	-200.000	0.020	0.131
-600.084	-200.000	-0.010	0.142
-599.069	-34.260	0.265	0.148
-598.055	-80.939	0.407	-0.137
-597.040	-31.859	-0.358	0.204
-596.025	42.331	0.305	-0.282
-595.011	800.000	-0.066	-0.221
-593.996	73.920	0.049	0.053
-592.982	800.000	-0.030	0.108
-591.967	19.693	0.091	-0.074
-590.952	20.348	0.070	-0.058
-589.938	-130.855	-0.279	-0.038
-588.923	800.000	0.076	-0.230
-587.909	37.687	-0.268	-0.241
-586.894	31.275	0.085	0.074
-585.879	-200.000	0.006	0.342
-584.865	-200.000	0.045	-0.269
-583.850	64.312	-0.120	0.122
-582.836	68.197	-0.066	0.068
-581.821	-37.896	0.108	-0.058
-580.806	800.000	-0.086	-0.259
-579.792	-79.465	-0.195	0.067
-578.777	800.000	-0.104	0.306
-577.763	17.075	0.356	-0.287
-576.748	-62.917	-0.270	0.113
-575.733	-74.863	0.343	0.125
-574.719	-200.000	-0.052	-0.240
-573.704	380.598	-0.143	0.297
-572.690	-106.645	-0.120	-0.027
-571.675	-50.875	0.231	-0.110
-570.661	271.752	-0.010	0.019
-569.646	114.736	-0.151	0.187
-568.631	-134.191	0.221	-0.028
-567.617	-160.500	-0.233	-0.013
-566.602	-47.137	-0.172	-0.085
-565.588	800.000	0.039	-0.117
-564.573	-83.692	-0.213	-0.069
-563.558	-21.355	0.209	0.129
-562.544	-200.000	0.053	0.300
-561.529	139.838	-0.142	-0.190
-560.515	-162.446	-0.120	0.006
-559.500	-78.860	-0.293	0.101
-558.485	-47.188	-0.148	-0.073
-557.471	85.780	0.139	0.155
-556.456	-200.000	-0.023	0.349
-555.442	-130.488	-0.253	0.035
-554.427	-135.933	0.192	-0.023
-553.412	182.905	0.108	-0.162
-552.398	69.154	-0.078	-0.081
-551.383	-36.262	-0.272	-0.149
-550.369	-3.182	0.059	-0.042
-549.354	-89.452	0.145	0.043
-548.339	800.000	0.037	-0.116
-547.325	-200.000	0.006	0.089
-546.310	-113.895	-0.243	-0.048
-545.296	26.328	0.142	-0.120
-544.281	88.792	0.082	-0.093
-543.266	-58.866	-0.174	-0.076
-542.252	390.910	0.054	0.113
-541.237	410.829	0.052	0.112
-540.223	476.305	-0.082	0.189
-539.208	-120.212	-0.079	0.014
-538.193	97.457	-0.070	-0.081
-537.179	800.000	-0.072	0.276
-536.164	-200.000	-0.015	0.116
-535.150	-116.121	0.178	0.034
-534.135	348.111	-0.100	-0.200
-533.121	713.047	0.031	-0.084
-532.106	165.798	0.179	0.256
-531.091	34.925	0.059	0.052
-530.077	-64.130	0.044	-0.018
-529.062	-200.000	-0.007	0.034
-528.048	75.677	-0.149	0.160
-527.033	-38.439	-0.067	0.036
-526.018	-200.000	-0.002	0.032
-525.004	313.658	0.105	0.199
-523.989	186.853	0.202	0.305
-522.975	-33.002	0.144	0.081
-521.960	-200.000	-0.032	0.222
-520.945	156.509	0.150	0.209
-519.931	-200.000	-0.256	0.000
-518.916	15.521	0.256	-0.204
-517.902	-34.681	0.092	0.051
-516.887	44.960	-0.092	0.086
-515.872	-139.344	-0.214	-0.023
-514.858	-44.988	0.235	0.118
-513.843	-200.000	-0.092	0.510
-512.829	-179.410	-0.122	-0.003
-511.814	416.750	0.045	-0.098
-510.799	800.000	0.066	-0.257
-509.785	-19.519	-0.050	0.032
-508.770	-200.000	-0.041	-0.206
-507.756	800.000	0.067	-0.246
-506.741	-91.215	-0.255	-0.074
-505.726	119.999	0.093	0.117
-504.712	14.060	0.221	0.174
-503.697	-115.324	0.203	-0.039
-502.683	-200.000	0.015	-0.127
-501.668	302.726	0.202	-0.379
-500.653	800.000	0.083	-0.242
-499.639	697.128	-0.089	-0.238
-498.624	-119.389	-0.260	0.046
-497.610	-49.096	0.282	0.137
-496.595	106.359	-0.167	-0.200
-495.581	142.104	0.074	-0.099
-494.566	406.048	0.048	0.103
-493.551	-200.000	0.011	-0.138
-492.537	-200.000	-0.227	0.000
-491.522	70.401	0.078	0.082
-490.508	-10.396	-0.175	-0.117
-489.493	687.919	0.055	-0.146
-488.478	-200.000	-0.005	-0.130
-487.464	136.109	0.034	-0.045
-486.449	-29.906	0.337	-0.194
-485.435	172.869	0.148	-0.215
-484.420	226.052	0.140	-0.229
-483.405	184.052	0.172	0.257
-482.391	-30.364	-0.364	-0.209
-481.376	-17.551	-0.379	-0.241
-480.362	114.683	-0.067	-0.083
-479.347	-75.660	0.130	-0.047
-478.332	173.309	-0.173	0.252
-477.318	800.000	0.014	0.062
-476.303	7.551	-0.369	0.279
-475.289	-70.755	0.144	0.055
-474.274	-200.000	0.097	-0.587
-473.259	294.995	-0.210	-0.388
-472.245	-200.000	-0.034	-0.243
-471.230	-1.313	-0.122	0.087
-470.216	-75.124	0.212	-0.076
-469.201	-152.844	-0.255	-0.018
-468.186	163.931	-0.153	-0.218
-467.172	-94.547	0.057	0.016
-466.157	-68.375	-0.175	0.069
-465.143	518.808	-0.034	-0.080
-464.128	248.537	0.155	-0.264
-463.113	-7.215	0.226	0.155
-462.099	-200.000	0.029	0.171
-461.084	-83.728	0.142	-0.046
-460.070	-24.448	-0.263	-0.158
-459.055	-45.611	0.171	0.086
-458.040	-125.816	0.361	-0.055
-457.026	-73.816	-0.207	0.076
-456.011	255.460	0.163	0.282
-454.997	800.000	0.122	-0.347
-453.982	-9.834	-0.128	-0.086
-452.968	-186.607	0.152	0.002
-451.953	-92.413	-0.063	-0.018
-450.938	87.387	0.035	0.040
-449.924	-165.583	0.148	0.006
-448.909	-50.277	0.165	0.079
-447.895	-60.035	-0.129	0.056
-446.880	2.540	-0.206	-0.150
-445.865	292.310	0.114	-0.210
-444.851	59.479	0.128	-0.127
-443.836	-151.934	0.109	-0.008
-442.822	-200.000	-0.045	0.212
-441.807	-65.679	-0.235	-0.095
-440.792	14.953	-0.197	0.156
-439.778	-91.403	-0.156	0.045
-438.763	-48.621	0.248	-0.120
-437.749	274.810	-0.034	0.060
-436.734	-200.000	-0.080	-0.374
-435.719	-200.000	-0.009	-0.116
-434.705	199.660	-0.144	-0.223
-433.690	515.177	0.123	0.290
-432.676	-75.546	-0.218	0.078
-431.661	-200.000	-0.027	-0.125
-430.646	-68.511	-0.108	0.042
-429.632	-59.510	0.200	0.087
-428.617	-17.611	0.253	0.160
-427.603	243.627	0.199	-0.337
-426.588	166.914	0.156	0.223
-425.573	-79.476	-0.105	0.036
-424.559	414.610	0.037	-0.079
-423.544	-27.060	0.077	0.046
-422.530	16.323	-0.124	-0.099
-421.515	-61.721	-0.115	0.048
-420.500	-73.856	0.075	0.028
-419.486	21.021	-0.109	0.089
-418.471	98.424	-0.142	0.165
-417.457	-200.000	-0.023	0.177
-416.442	-56.030	0.081	-0.036
-415.428	-21.958	-0.125	0.077
-414.413	-99.193	0.326	0.083
-413.398	-160.523	-0.131	0.007
-412.384	439.484	-0.061	0.134
-411.369	49.403	0.232	-0.220
-410.355	-32.503	-0.168	-0.095
-409.340	-200.000	-0.006	0.223
-408.325	-200.000	0.009	0.110
-407.311	27.675	0.138	0.117
-406.296	-117.531	-0.359	-0.065
-405.282	-200.000	0.006	-0.205
-404.267	-200.000	0.007	-0.087
-403.252	-119.963	0.237	0.041
-402.238	-140.756	0.216	-0.022
-401.223	-127.766	0.115	-0.017
-400.209	800.000	-0.035	-0.120
-399.194	446.520	-0.087	0.192
-398.179	-193.291	0.023	-0.000
-397.165	-200.000	0.002	0.023
-396.150	69.863	-0.188	0.195
-395.136	54.774	-0.104	-0.101
-394.121	-200.000	0.537	0.002
-393.106	159.717	-0.076	-0.106
-392.092	800.000	0.020	-0.072
-391.077	-87.346	-0.071	-0.022
-390.063	-98.125	-0.188	0.049
-389.048	220.170	-0.129	-0.208
-388.033	533.172	-0.058	-0.138
-387.019	-200.000	-0.066	-0.459
-386.004	-68.467	0.117	-0.046
-384.990	21.259	-0.179	-0.146
-383.975	148.520	-0.173	-0.236
-382.960	-35.783	0.191	0.104
-381.946	-187.067	-0.189	0.003
-380.931	497.294	-0.148	0.342
-379.917	93.825	-0.181	-0.206
-378.902	-200.000	-0.066	-0.366
-377.888	-167.814	-0.133	0.005
-376.873	-66.484	-0.144	0.057
-375.858	-198.803	-0.541	-0.003
-374.844	198.106	-0.198	-0.304
-373.829	18.206	-0.164	-0.132
-372.815	-64.028	0.199	-0.082
-371.800	315.784	-0.084	-0.159
-370.785	114.046	-0.083	0.102
-369.771	306.555	-0.168	-0.314
-368.756	-200.000	0.016	0.298
-367.742	-51.031	0.411	-0.194
-366.727	26.970	-0.214	0.180
-365.712	800.000	0.077	0.315
-364.698	-95.822	-0.170	-0.046
-363.683	-108.186	-0.181	-0.039
-362.669	-13.083	0.280	-0.183
-361.654	-20.589	0.295	0.182
-360.639	-60.121	0.277	0.119
-359.625	-150.533	0.083	-0.006
-358.610	-40.227	-0.184	0.096
-357.596	800.000	0.034	0.131
-356.581	89.719	-0.116	0.130
-355.566	-130.106	-0.151	0.021
-354.552	800.000	0.096	-0.280
-353.537	800.000	-0.098	-0.374
-352.523	194.686	-0.080	-0.122
-351.508	545.208	0.030	-0.073
-350.493	86.073	-0.169	-0.187
-349.479	800.000	0.060	-0.180
-348.464	295.463	-0.129	0.237
-347.450	239.021	-0.060	0.100
-346.435	-14.900	-0.209	0.135
-345.420	11.442	0.290	-0.223
-344.406	128.153	-0.120	0.154
-343.391	-178.949	0.276	-0.006
-342.377	792.932	-0.075	-0.207
-341.362	182.573	0.051	0.075
-340.348	800.000	0.063	-0.184
-339.333	-200.000	-0.001	-0.153
-338.318	-103.687	-0.342	-0.080
-337.304	54.151	0.130	0.126
-336.289	376.284	0.103	0.212
-335.275	77.724	0.050	-0.053
-334.260	-26.839	-0.204	0.120
-333.245	-109.632	0.387	0.082
-332.231	566.376	0.139	0.338
-331.216	72.060	-0.149	-0.156
-330.202	800.000	0.148	0.411
-329.187	-200.000	0.035	0.189
-328.172	456.141	-0.092	0.204
-327.158	249.735	0.043	-0.073
-326.143	-200.000	-0.017	0.086
-325.129	52.122	-0.055	-0.053
-324.114	23.969	0.211	0.175
-323.099	-200.000	0.062	0.460
-322.085	-81.117	-0.260	-0.086
-321.070	221.262	0.098	-0.159
-320.056	-16.928	0.188	-0.119
-319.041	-144.751	-0.211	-0.019
-318.026	-200.000	0.027	0.310
-317.012	-136.925	-0.275	0.032
-315.997	-45.563	-0.091	-0.045
-314.983	199.593	-0.096	0.148
-313.968	93.189	-0.218	-0.247
-312.953	-200.000	0.018	0.091
-311.939	-158.628	0.157	-0.009
-310.924	-102.589	0.277	0.066
-309.910	64.976	0.219	0.222
-308.895	121.022	0.058	-0.072
-307.880	370.468	0.096	0.196
-306.866	-200.000	-0.021	-0.172
-305.851	800.000	-0.045	-0.136
-304.837	-200.000	-0.009	0.118
-303.822	-92.371	-0.259	0.073
-302.807	1.559	0.127	-0.092
-301.793	161.226	-0.154	-0.216
-300.778	149.098	-0.026	0.035
-299.764	37.808	-0.287	0.256
-298.749	800.000	0.108	0.305
-297.735	800.000	-0.005	-0.020
-296.720	-55.711	0.034	0.015
-295.705	298.417	-0.044	0.082
-294.691	800.000	0.093	-0.266
-293.676	8.901	-0.139	0.105
-292.662	-54.652	0.094	-0.043
-291.647	-57.381	-0.222	0.098
-290.632	-4.023	0.256	0.178
-289.618	-80.321	-0.222	-0.075
-288.603	-114.445	-0.381	-0.074
-287.589	-80.452	-0.141	-0.047
-286.574	-200.000	0.007	0.261
-285.559	-167.931	0.321	-0.013
-284.545	16.293	-0.221	0.175
-283.530	800.000	0.073	0.316
-282.516	-200.000	-0.002	0.628
-281.501	271.468	0.091	0.161
-280.486	282.058	-0.064	-0.115
-279.472	-107.087	0.268	0.059
-278.457	-78.254	-0.683	0.235
-277.443	-14.031	-0.212	0.137
-276.428	-96.168	0.112	-0.030
-275.413	800.000	-0.044	-0.151
-274.399	169.011	-0.021	-0.031
-273.384	-26.914	0.161	-0.095
-272.370	-124.788	-0.175	-0.027
-271.355	740.323	0.049	-0.133
-270.340	-200.000	0.002	0.182
-269.326	-180.745	-0.198	-0.004
-268.311	-60.503	-0.072	0.031
-267.297	-200.000	0.001	-0.059
-266.282	49.526	0.321	0.302
-265.267	113.976	-0.069	0.084
-264.253	-69.503	0.164	0.063
-263.238	-110.321	0.106	-0.022
-262.224	51.934	0.084	0.081
-261.209	-200.000	-0.009	0.056
-260.195	8.976	0.119	-0.090
-259.180	16.682	0.227	-0.180
-258.165	145.425	0.072	-0.096
-257.151	-13.465	-0.113	-0.073
-256.136	-200.000	0.038	-0.345
-255.122	-118.575	-0.109	0.019
-254.107	-19.494	0.101	-0.063
-253.092	205.983	-0.117	-0.182
-252.078	-200.000	0.000	-0.089
-251.063	-200.000	0.020	0.108
-250.049	-20.393	-0.044	-0.027
-249.034	-46.553	0.141	0.069
-248.019	50.391	0.357	-0.338
-247.005	-121.420	-0.129	0.022
-245.990	800.000	0.036	-0.105
-244.976	66.224	0.085	0.086
-243.961	-67.450	0.238	-0.094
-242.946	800.000	0.086	0.346
-241.932	-123.252	-0.225	0.036
-240.917	-19.104	-0.080	0.050
-239.903	434.515	-0.072	-0.157
-238.888	166.991	0.334	0.474
-237.873	101.417	-0.077	0.090
-236.859	94.670	0.145	-0.165
-235.844	24.692	-0.082	-0.068
-234.830	-53.075	0.129	0.060
-233.815	604.142	-0.092	-0.230
-232.800	-114.322	-0.143	0.028
-231.786	-58.223	0.215	-0.094
-230.771	298.083	0.187	-0.343
-229.757	308.988	0.050	0.093
-228.742	135.667	0.281	0.366
-227.727	-170.824	0.033	0.001
-226.713	-200.000	0.020	-0.216
-225.698	-200.000	-0.005	-0.080
-224.684	358.077	-0.170	-0.340
-223.669	-200.000	-0.058	-0.377
-222.655	-124.288	0.549	-0.086
-221.640	25.822	0.169	0.141
-220.625	-165.457	-0.243	0.011
-219.611	-196.136	0.162	0.001
-218.596	44.954	-0.119	0.110
-217.582	-200.000	0.016	-0.109
-216.567	-140.146	0.110	-0.012
-215.552	-200.000	-0.028	-0.258
-214.538	100.762	-0.033	0.038
-213.523	-190.542	-0.362	-0.004
-212.509	72.087	-0.140	0.145
-211.494	-200.000	-0.038	0.313
-210.479	800.000	0.072	0.235
-209.465	115.787	-0.014	-0.017
-208.450	734.802	-0.111	-0.298
-207.436	-29.352	-0.140	0.080
-206.421	-41.116	0.198	-0.102
-205.406	661.218	0.096	-0.248
-204.392	800.000	0.034	-0.096
-203.377	-85.435	-0.137	0.043
-202.363	-128.378	0.202	-0.029
-201.348	40.375	0.117	-0.106
-200.333	133.788	0.134	-0.173
-199.319	-93.037	-0.376	0.105
-198.304	-27.287	0.163	-0.095
-197.290	11.435	-0.092	0.071
-196.275	27.475	-0.225	0.189
-195.260	-72.659	0.101	0.037
-194.246	-29.777	-0.154	0.088
-193.231	28.570	-0.050	-0.042
-192.217	-101.693	0.344	-0.083
-191.202	216.704	0.126	-0.201
-190.187	-179.853	-0.260	0.006
-189.173	212.510	-0.132	0.208
-188.158	202.689	-0.066	-0.102
-187.144	-51.331	-0.245	-0.115
-186.129	39.594	0.220	-0.197
-185.114	-29.195	0.166	-0.095
-184.100	-66.083	0.197	0.078
-183.085	-200.000	0.023	0.160
-182.071	-173.705	0.305	-0.009
-181.056	-200.000	0.051	0.246
-180.042	-200.000	-0.036	0.364
-179.027	26.742	0.359	-0.300
-178.012	137.853	-0.144	-0.188
-176.998	167.821	-0.144	0.204
-175.983	-64.585	0.079	-0.032
-174.969	-22.296	-0.077	-0.047
-173.954	-200.000	0.000	0.212
-172.939	-200.000	0.002	0.213
-171.925	-200.000	-0.064	0.284
-170.910	9.307	0.039	0.029
-169.896	-57.540	0.253	-0.111
-168.881	-177.149	0.135	0.003
-167.866	-94.294	-0.210	-0.057
-166.852	-111.819	-0.309	0.062
-165.837	-81.515	-0.200	-0.066
-164.823	-119.860	-0.056	0.010
-163.808	44.567	0.451	0.414
-162.793	209.144	0.127	-0.198
-161.779	-200.000	0.049	-0.328
-160.764	-200.000	0.026	-0.214
-159.750	-200.000	-0.013	0.275
-158.735	592.234	-0.184	0.453
-157.720	-22.848	-0.086	0.052
-156.706	-175.855	0.148	0.004
-155.691	-139.025	0.341	-0.037
-154.677	69.148	0.157	-0.161
-153.662	-121.261	0.258	0.043
-152.647	800.000	0.050	0.199
-151.633	18.812	0.112	0.090
-150.618	327.905	0.132	-0.254
-149.604	-121.840	-0.103	0.017
-148.589	-96.817	-0.270	0.071
-147.574	1.598	-0.163	-0.117
-146.560	-200.000	0.030	0.222
-145.545	-55.094	0.212	0.095
-144.531	-160.360	-0.128	-0.007
-143.516	28.005	-0.099	-0.083
-142.502	-138.942	0.367	0.040
-141.487	800.000	-0.127	0.481
-140.472	209.953	-0.156	-0.243
-139.458	-200.000	0.005	0.206
-138.443	54.163	0.217	-0.209
-137.429	800.000	-0.116	-0.433
-136.414	149.892	0.268	-0.363
-135.399	-85.476	-0.096	-0.030
-134.385	-23.518	-0.251	-0.150
-133.370	-103.095	0.275	0.065
-132.356	115.753	-0.140	-0.171
-131.341	-54.451	0.104	-0.047
-130.326	-119.764	-0.140	-0.024
-129.312	35.546	-0.139	0.122
-128.297	380.023	-0.057	-0.117
-127.283	38.826	-0.227	0.202
-126.268	-39.210	0.144	-0.075
-125.253	-130.536	-0.059	0.008
-124.239	-200.000	-0.000	-0.440
-123.224	697.464	0.178	-0.466
-122.210	-78.329	-0.368	0.126
-121.195	-200.000	-0.018	0.201
-120.180	1.697	-0.059	0.042
-119.166	-94.612	-0.327	0.089
-118.151	19.548	-0.086	0.069
-117.137	-200.000	0.049	-0.220
-116.122	52.190	-0.160	-0.152
-115.107	125.487	-0.145	0.183
-114.093	74.217	-0.173	-0.181
-113.078	800.000	-0.033	0.126
-112.064	-148.699	0.084	0.007
-111.049	-7.454	0.096	0.065
-110.034	800.000	-0.115	-0.333
-109.020	-0.705	0.215	0.152
-108.005	-58.114	0.068	0.030
-106.991	-34.154	-0.156	-0.085
-105.976	338.558	0.082	0.160
-104.962	300.252	0.305	-0.560
-103.947	-170.428	0.376	-0.013
-102.932	-124.698	0.136	-0.021
-101.918	45.826	0.076	-0.070
-100.903	-111.381	0.437	-0.089
-99.889	34.876	-0.419	0.365
-98.874	-200.000	-0.026	-0.116
-97.859	800.000	-0.055	0.187
-96.845	-200.000	-0.067	0.435
-95.830	800.000	0.033	0.137
-94.816	327.291	-0.153	0.293
-93.801	-141.372	0.188	-0.019
-92.786	800.000	0.087	0.325
-91.772	654.547	0.117	-0.300
-90.757	-32.008	0.135	0.075
-89.743	-28.875	0.163	0.093
-88.728	-200.000	-0.011	0.241
-87.713	800.000	0.030	0.109
-86.699	-162.911	0.203	-0.010
-85.684	264.957	0.161	-0.278
-84.670	89.134	0.289	0.321
-83.655	-175.785	0.054	0.001
-82.640	27.614	0.118	0.099
-81.626	-67.496	-0.311	-0.121
-80.611	-200.000	0.014	-0.212
-79.597	-68.257	0.106	-0.041
-78.582	-200.000	-0.002	0.217
-77.567	396.415	0.060	0.124
-76.553	-10.657	-0.105	0.069
-75.538	-70.559	-0.215	0.081
-74.524	-109.591	-0.259	-0.054
-73.509	51.084	0.191	0.181
-72.494	87.733	0.143	0.158
-71.480	-127.807	0.182	0.026
-70.465	68.994	0.166	0.170
-69.451	124.961	0.141	-0.177
-68.436	-98.788	-0.204	-0.052
-67.422	32.869	0.113	-0.098
-66.407	-200.000	-0.087	-0.406
-65.392	800.000	-0.096	0.371
-64.378	-93.255	-0.281	0.078
-63.363	108.795	-0.286	-0.340
-62.349	-45.190	0.385	0.190
-61.334	74.762	-0.650	-0.680
-60.319	-63.158	0.421	0.173
-59.305	-200.000	0.068	-0.738
-58.290	284.686	0.297	0.531
-57.276	800.000	0.456	1.732
-56.261	-200.000	75.692	511.181
-55.246	529.269	1325.761	3111.407
-54.232	146.245	2562.372	3418.518
-53.217	111.737	2348.160	2817.319
-52.203	50.348	1962.857	1843.849
-51.188	44.400	1752.872	1599.902
-50.173	41.558	1707.388	1536.482
-49.159	55.873	1741.665	1678.562
-48.144	61.296	1759.897	1738.052
-47.130	44.386	1723.869	1573.069
-46.115	41.148	1710.182	1535.596
-45.100	40.930	1705.852	1529.970
-44.086	40.947	1703.160	1527.620
-43.071	41.003	1700.121	1525.270
-42.057	40.986	1697.871	1523.058
-41.042	41.038	1695.737	1521.477
-40.027	41.081	1693.834	1520.039
-39.013	40.914	1692.044	1517.099
-37.998	40.888	1690.944	1515.855
-36.984	40.968	1689.117	1514.765
-35.969	41.091	1687.989	1514.630
-34.954	41.168	1685.236	1512.683
-33.940	41.151	1683.793	1511.204
-32.925	41.188	1682.137	1509.936
-31.911	41.123	1680.719	1508.110
-30.896	41.087	1678.668	1505.935
-29.881	41.103	1676.892	1504.402
-28.867	41.104	1674.810	1502.484
-27.852	41.084	1673.801	1501.368
-26.838	41.124	1672.367	1500.327
-25.823	41.165	1670.709	1499.090
-24.809	41.125	1670.091	1498.169
-23.794	41.195	1668.075	1496.833
-22.779	41.256	1666.106	1495.460
-21.765	41.066	1664.923	1492.913
-20.750	41.095	1663.232	1491.555
-19.736	41.153	1661.496	1490.377
-18.721	41.110	1660.707	1489.288
-17.706	41.089	1659.099	1487.629
-16.692	41.123	1657.567	1486.452
-15.677	41.078	1655.710	1484.392
-14.663	41.143	1654.334	1483.578
-13.648	41.185	1652.735	1482.403
-12.633	41.062	1651.738	1480.536
-11.619	41.070	1650.121	1479.086
-10.604	41.090	1648.566	1477.782
-9.590	41.044	1647.334	1476.277
-8.575	41.116	1646.006	1475.560
-7.560	41.090	1644.589	1474.042
-6.546	41.057	1643.418	1472.689
-5.531	41.139	1642.286	1472.223
-4.517	41.146	1640.913	1470.983
-3.502	41.063	1640.086	1469.570
-2.487	41.082	1638.676	1468.388
-1.473	41.032	1626.837	1457.358
-0.458	38.419	1606.652	1420.277
0.556	34.565	1604.935	1381.652
1.571	31.527	1628.123	1379.134
2.586	30.405	1642.372	1382.730
3.600	26.390	1586.702	1306.797
4.615	14.652	1466.121	1128.496
5.629	4.132	1391.777	1003.350
6.644	2.256	1382.042	984.176
7.659	2.251	1380.085	982.661
8.673	2.039	1379.015	980.453
9.688	1.994	1377.480	978.984
10.702	1.846	1374.370	975.739
11.717	5.468	1382.435	1004.673
12.731	16.630	1403.771	1092.524
13.746	25.284	1418.976	1160.477
14.761	26.851	1420.396	1171.665
15.775	26.935	1419.904	1171.700
16.790	27.108	1419.365	1172.265
17.804	27.037	1418.842	1171.271
18.819	27.303	1418.699	1172.771
19.834	27.435	1417.859	1172.823
20.848	27.370	1417.467	1171.972
21.863	27.394	1415.847	1170.686
22.877	27.349	1415.057	1169.638
23.892	27.349	1414.449	1169.032
24.907	27.382	1413.795	1168.597
25.921	27.437	1412.368	1167.668
26.936	27.433	1411.338	1166.692
27.950	27.333	1411.051	1165.707
28.965	27.385	1409.409	1164.579
29.980	27.443	1407.846	1163.559
30.994	27.380	1406.581	1162.008
32.009	27.447	1405.490	1161.430
33.023	27.386	1404.655	1160.251
34.038	27.379	1403.191	1158.893
35.053	27.439	1402.521	1158.617
36.067	27.407	1401.468	1157.443
37.082	27.410	1400.344	1156.430
38.096	27.386	1399.230	1155.259
39.111	27.351	1398.834	1154.604
40.126	27.398	1398.030	1154.138
41.140	27.376	1397.164	1153.182
42.155	27.289	1397.117	1152.488
43.169	27.379	1397.291	1153.101
44.184	27.344	1396.530	1152.152
45.199	27.291	1396.256	1151.484
46.213	27.318	1396.037	1151.375
47.228	27.389	1394.685	1150.606
48.242	27.393	1393.234	1149.335
49.257	27.422	1391.476	1147.965
50.271	27.303	1390.613	1146.402
51.286	27.252	1389.217	1144.826
52.301	27.406	1387.401	1144.194
53.315	27.245	1387.322	1143.019
54.330	27.284	1386.288	1142.307
55.344	27.321	1384.784	1141.202
56.359	27.349	1383.897	1140.549
57.374	27.377	1382.788	1139.706
58.388	27.405	1382.585	1139.613
59.403	27.284	1382.501	1138.684
60.417	27.361	1381.472	1138.218
61.432	27.391	1380.939	1137.865
62.447	27.303	1379.627	1136.136
63.461	27.305	1378.975	1135.508
64.476	27.361	1377.779	1134.777
65.490	27.411	1376.802	1134.183
66.505	27.404	1375.289	1132.792
67.520	27.309	1374.058	1131.085
68.534	27.363	1372.813	1130.293
69.549	27.481	1371.652	1129.971
70.563	27.413	1371.015	1128.929
71.578	27.406	1369.749	1127.740
72.593	27.469	1369.128	1127.520
73.607	27.310	1368.650	1126.041
74.622	27.420	1367.531	1125.698
75.636	27.357	1367.066	1124.832
76.651	27.445	1366.065	1124.451
77.666	27.332	1366.085	1123.668
78.680	27.441	1365.548	1123.798
79.695	27.301	1364.748	1122.179
80.709	27.315	1363.946	1121.508
81.724	27.377	1362.625	1120.700
82.739	27.349	1362.200	1120.080
83.753	27.305	1361.133	1118.832
84.768	27.432	1359.595	1118.250
85.782	27.476	1358.420	1117.457
86.797	27.364	1357.464	1115.887
87.812	27.383	1356.620	1115.205
88.826	27.379	1355.627	1114.269
89.841	27.444	1354.687	1113.795
90.855	27.370	1353.496	1112.264
91.870	27.402	1352.710	1111.718
92.884	27.447	1351.948	1111.267
93.899	27.444	1350.886	1110.280
94.914	27.404	1350.478	1109.599
95.928	27.476	1349.291	1108.963
96.943	27.476	1348.757	1108.425
97.957	27.498	1348.069	1107.895
98.972	27.419	1347.191	1106.595
99.987	27.430	1346.171	1105.729
101.001	27.354	1345.616	1104.714
102.016	27.326	1344.381	1103.432
103.030	27.380	1343.550	1102.978
104.045	27.441	1342.769	1102.610
105.060	27.385	1341.917	1101.475
106.074	27.443	1340.607	1100.651
107.089	27.463	1339.836	1100.044
108.103	27.470	1338.684	1099.043
109.118	27.565	1337.143	1098.250
110.133	27.523	1336.630	1097.480
111.147	27.481	1335.501	1096.204
112.162	27.493	1334.121	1095.045
113.176	27.439	1333.258	1093.917
114.191	27.450	1332.426	1093.200
115.206	27.541	1331.350	1092.772
116.220	27.531	1330.086	1091.578
117.235	27.497	1329.232	1090.574
118.249	27.553	1328.024	1089.819
119.264	27.489	1327.630	1089.017
120.279	27.539	1326.995	1088.699
121.293	27.527	1326.171	1087.855
122.308	27.521	1325.352	1087.054
123.322	27.499	1324.478	1086.110
124.337	27.515	1323.621	1085.406
125.352	27.415	1323.012	1084.215
126.366	27.597	1321.814	1084.222
127.381	27.680	1320.639	1083.654
128.395	27.539	1320.067	1082.253
129.410	27.447	1319.438	1081.093
130.424	27.485	1318.683	1080.607
131.439	27.527	1317.910	1080.127
132.454	27.446	1317.145	1078.924
133.468	27.601	1316.131	1078.911
134.483	27.669	1315.873	1079.010
135.497	27.645	1314.455	1077.607
136.512	27.531	1314.085	1076.538
137.527	27.695	1312.471	1076.085
138.541	27.518	1311.620	1074.253
139.556	27.664	1310.318	1073.948
140.570	27.566	1308.959	1072.162
141.585	27.605	1307.898	1071.425
142.600	27.553	1307.167	1070.430
143.614	27.557	1306.258	1069.616
144.629	27.599	1305.020	1068.749
145.643	27.564	1304.272	1067.842
146.658	27.487	1303.341	1066.534
147.673	27.534	1301.916	1065.548
148.687	27.496	1301.231	1064.670
149.702	27.415	1299.780	1062.916
150.716	27.428	1298.851	1062.134
151.731	27.577	1297.770	1062.026
152.746	27.489	1296.999	1060.788
153.760	27.589	1295.465	1060.022
154.775	27.618	1294.532	1059.333
155.789	27.473	1293.801	1057.802
156.804	27.473	1293.039	1057.086
157.819	27.469	1292.271	1056.342
158.833	27.378	1291.795	1055.326
159.848	27.510	1290.859	1055.235
160.862	27.668	1290.013	1055.367
161.877	27.546	1289.044	1053.771
162.892	27.597	1288.190	1053.278
163.906	27.542	1287.852	1052.589
164.921	27.591	1286.721	1051.858
165.935	27.679	1286.188	1051.831
166.950	27.632	1285.539	1050.940
167.964	27.633	1285.060	1050.459
168.979	27.672	1284.626	1050.238
169.994	27.670	1283.730	1049.401
171.008	27.622	1282.980	1048.416
172.023	27.593	1282.145	1047.478
173.037	27.699	1281.868	1047.764
174.052	27.521	1281.563	1046.399
175.067	27.582	1280.377	1045.690
176.081	27.641	1279.800	1045.466
177.096	27.615	1278.493	1044.156
178.110	27.614	1277.591	1043.323
179.125	27.657	1276.830	1042.855
180.140	27.806	1275.424	1042.462
181.154	27.702	1274.233	1040.803
182.169	27.672	1273.206	1039.701
183.183	27.620	1272.565	1038.792
184.198	27.676	1271.565	1038.200
185.213	27.747	1270.265	1037.454
186.227	27.636	1270.064	1036.566
187.242	27.653	1268.999	1035.698
188.256	27.716	1268.031	1035.177
189.271	27.709	1267.240	1034.402
190.286	27.771	1266.228	1033.835
191.300	27.686	1265.648	1032.787
192.315	27.657	1265.105	1032.090
193.329	27.674	1264.670	1031.738
194.344	27.782	1264.276	1031.936
195.359	27.751	1263.892	1031.355
196.373	27.684	1263.345	1030.441
197.388	27.572	1263.210	1029.605
198.402	27.651	1262.514	1029.395
199.417	27.639	1262.300	1029.059
200.432	27.748	1261.631	1029.036
201.446	27.805	1260.932	1028.697
202.461	27.716	1260.006	1027.349
203.475	27.738	1259.160	1026.694
204.490	27.783	1258.237	1026.104
205.504	27.801	1257.187	1025.257
206.519	27.828	1256.166	1024.486
207.534	27.853	1255.249	1023.788
208.548	27.846	1254.068	1022.692
209.563	27.801	1253.539	1021.923
210.577	27.835	1252.995	1021.578
211.592	27.991	1252.018	1021.562
212.607	27.812	1251.466	1020.025
213.621	27.804	1250.746	1019.301
214.636	27.926	1249.701	1019.036
215.650	27.902	1249.121	1018.340
216.665	27.824	1247.821	1016.756
217.680	27.867	1246.989	1016.229
218.694	27.972	1246.087	1015.988
219.709	27.915	1245.436	1015.053
220.723	27.903	1245.167	1014.672
221.738	27.859	1244.226	1013.573
222.753	27.783	1243.727	1012.657
223.767	27.823	1242.958	1012.159
224.782	27.902	1242.847	1012.421
225.796	27.918	1241.826	1011.586
226.811	27.982	1241.005	1011.185
227.826	27.942	1240.861	1010.752
228.840	27.966	1239.994	1010.093
229.855	27.926	1239.387	1009.285
230.869	27.958	1238.319	1008.504
231.884	28.040	1237.784	1008.431
232.899	27.952	1237.387	1007.532
233.913	27.989	1236.599	1007.007
234.928	28.079	1235.749	1006.720
235.942	28.118	1235.190	1006.389
236.957	28.119	1234.277	1005.562
237.972	28.079	1233.883	1004.937
238.986	28.039	1233.323	1004.168
240.001	28.054	1232.805	1003.741
241.015	28.081	1232.006	1003.152
242.030	28.054	1231.301	1002.337
243.045	28.093	1230.241	1001.601
244.059	28.032	1229.832	1000.847
245.074	28.117	1228.570	1000.194
246.088	28.129	1227.837	999.577
247.103	28.090	1227.282	998.819
248.117	28.118	1226.514	998.263
249.132	28.077	1225.347	997.002
250.147	28.100	1225.249	996.958
251.161	28.158	1224.337	996.445
252.176	28.192	1223.370	995.753
253.190	28.123	1223.058	995.036
254.205	28.212	1222.539	995.008
255.220	28.170	1221.529	993.873
256.234	28.092	1221.424	993.273
257.249	28.228	1220.328	993.033
258.263	28.204	1219.722	992.321
259.278	28.304	1219.400	992.511
260.293	28.283	1218.641	991.692
261.307	28.339	1218.224	991.568
262.322	28.258	1217.559	990.502
263.336	28.329	1217.027	990.367
264.351	28.332	1216.196	989.618
265.366	28.289	1215.382	988.639
266.380	28.252	1215.035	988.067
267.395	28.219	1214.067	987.017
268.409	28.129	1213.994	986.380
269.424	28.249	1213.259	986.343
270.439	28.232	1213.045	985.993
271.453	28.243	1212.166	985.247
272.468	28.252	1211.066	984.315
273.482	28.285	1210.604	984.032
274.497	28.257	1210.285	983.533
275.512	28.417	1209.599	983.748
276.526	28.378	1208.748	982.758
277.541	28.350	1207.926	981.855
278.555	28.353	1207.394	981.352
279.570	28.393	1206.353	980.633
280.585	28.397	1205.909	980.206
281.599	28.303	1204.932	978.822
282.614	28.360	1203.940	978.236
283.628	28.384	1202.949	977.473
284.643	28.448	1202.428	977.305
285.657	28.423	1201.377	976.229
286.672	28.489	1200.156	975.502
287.687	28.436	1199.727	974.785
288.701	28.463	1199.171	974.390
289.716	28.583	1198.161	974.120
290.730	28.521	1197.828	973.432
291.745	28.579	1197.208	973.153
292.760	28.578	1196.492	972.481
293.774	28.581	1196.005	972.015
294.789	28.544	1195.571	971.380
295.803	28.637	1194.643	971.029
296.818	28.458	1194.348	969.760
297.833	28.612	1193.215	969.564
298.847	28.586	1192.894	969.083
299.862	28.617	1191.908	968.361
300.876	28.596	1191.486	967.820
301.891	28.498	1190.944	966.776
302.906	28.628	1190.023	966.631
303.920	28.613	1189.706	966.207
304.935	28.676	1188.947	965.834
305.949	28.654	1188.093	964.942
306.964	28.719	1187.238	964.502
307.979	28.691	1187.043	964.110
308.993	28.686	1186.651	963.683
310.008	28.610	1185.607	962.353
311.022	28.748	1184.657	962.216
312.037	28.740	1183.931	961.501
313.052	28.738	1183.031	960.676
314.066	28.590	1182.195	959.138
315.081	28.707	1181.554	959.144
316.095	28.691	1181.249	958.728
317.110	28.692	1180.451	957.997
318.125	28.763	1179.655	957.638
319.139	28.838	1178.923	957.349
320.154	28.747	1178.922	956.790
321.168	28.696	1178.370	955.993
322.183	28.856	1177.597	956.115
323.197	28.891	1176.528	955.344
324.212	28.722	1176.135	954.059
325.227	28.753	1175.567	953.679
326.241	28.800	1175.168	953.511
327.256	28.875	1174.541	953.309
328.270	28.777	1173.806	952.121
329.285	28.777	1173.083	951.449
330.300	28.814	1172.165	950.812
331.314	28.835	1171.072	949.947
332.329	28.936	1170.262	949.728
333.343	28.912	1169.560	948.950
334.358	28.874	1168.873	948.115
335.373	28.946	1168.051	947.736
336.387	28.963	1167.636	947.401
337.402	28.921	1166.793	946.417
338.416	28.978	1166.463	946.362
339.431	29.011	1165.436	945.614
340.446	29.014	1164.479	944.769
341.460	28.973	1164.206	944.255
342.475	29.051	1163.538	944.029
343.489	28.988	1162.437	942.725
344.504	29.090	1161.515	942.418
345.519	29.115	1160.556	941.688
346.533	29.123	1160.025	941.211
347.548	29.112	1159.663	940.777
348.562	29.182	1158.643	940.228
349.577	29.067	1158.009	939.043
350.592	29.043	1156.969	937.992
351.606	29.072	1156.664	937.811
352.621	29.212	1155.868	937.796
353.635	29.104	1155.507	936.867
354.650	29.067	1155.067	936.240
355.665	29.188	1154.194	936.067
356.679	29.275	1153.204	935.622
357.694	29.244	1152.849	935.094
358.708	29.276	1152.152	934.607
359.723	29.141	1151.272	933.128
360.738	29.138	1150.386	932.311
361.752	29.075	1150.452	931.965
362.767	29.196	1149.902	932.049
363.781	29.157	1149.401	931.361
364.796	29.350	1148.576	931.585
365.810	29.241	1147.917	930.421
366.825	29.352	1147.460	930.527
367.840	29.366	1146.908	930.066
368.854	29.434	1146.113	929.682
369.869	29.463	1145.418	929.182
370.883	29.393	1144.729	928.187
371.898	29.461	1144.026	927.880
372.913	29.431	1143.441	927.172
373.927	29.464	1142.935	926.844
374.942	29.406	1142.516	926.130
375.956	29.415	1141.887	925.584
376.971	29.412	1141.680	925.320
377.986	29.496	1140.897	925.026
379.000	29.573	1140.082	924.667
380.015	29.635	1139.454	924.388
381.029	29.556	1138.988	923.530
382.044	29.594	1138.493	923.240
383.059	29.550	1138.099	922.615
384.073	29.545	1136.992	921.615
385.088	29.479	1135.854	920.279
386.102	29.485	1135.621	920.041
387.117	29.506	1134.257	918.960
388.132	29.551	1133.353	918.370
389.146	29.564	1132.559	917.709
390.161	29.575	1132.683	917.782
391.175	29.623	1131.953	917.346
392.190	29.644	1130.781	916.422
393.205	29.548	1130.047	915.269
394.219	29.628	1129.275	914.959
395.234	29.613	1128.657	914.301
396.248	29.582	1127.737	913.322
397.263	29.702	1126.928	913.180
398.278	29.789	1126.631	913.291
399.292	29.657	1126.228	912.228
400.307	29.661	1125.934	911.932
401.321	29.828	1124.556	911.555
402.336	29.661	1124.016	910.216
403.350	29.728	1123.620	910.146
404.365	29.675	1122.869	909.193
405.380	29.808	1122.250	909.268
406.394	29.866	1121.403	908.786
407.409	29.837	1120.688	907.985
408.423	29.875	1119.674	907.266
409.438	29.870	1119.148	906.735
410.453	29.773	1118.891	905.973
411.467	29.781	1118.066	905.264
412.482	29.930	1117.234	905.238
413.496	29.935	1116.453	904.551
414.511	29.859	1115.880	903.632
415.526	29.823	1115.716	903.244
416.540	29.901	1115.143	903.082
417.555	29.979	1114.383	902.766
418.569	29.918	1114.198	902.241
419.584	29.969	1113.574	901.906
420.599	30.056	1112.936	901.730
421.613	88.048	1300.698	1370.442
422.628	82.701	1328.068	1370.568
