DTS Sentinel unit serial number:	SN413079Multiplexer serial number:	ORYXHardware model number:	OX4-SRSoftware version number:	ORYX F/W v4.00 Oryx Data Collector v3.7.2.0data status	okinstallation	princeton_trtdifferential loss correction	single-endedforward channel	channel 2reverse channel	N/Adate	2019/09/15time	16:59:35forward acquisition time	60.00reverse acquisition time	0.00gamma	496.2192k internal	0.2285k external	0.2285temperature offset calibration	0.9931default loss term (dB/km)	0.3790temperature slope calibration	1.0000multiplexer offset coefficient	1.0000multiplexer slope coefficient	1.0000fibre end	0.00T internal ref (°C)	44.48T ext. ref 1 (°C)	5.85T ext. ref 2 (°C)	40.49length (m)	temperature (°C)	Stokes	anti-Stokes-747.200	-200.000	-0.005	0.040
-746.185	36.924	0.127	-0.115
-745.171	204.098	0.088	0.140
-744.156	6.812	-0.217	0.166
-743.142	-155.275	-0.237	-0.016
-742.127	-134.847	-0.167	0.021
-741.112	-81.000	0.286	-0.097
-740.098	-200.000	-0.056	0.257
-739.083	-200.000	0.042	0.249
-738.069	-200.000	-0.035	-0.218
-737.054	179.345	0.123	-0.185
-736.039	104.502	0.137	0.166
-735.025	-27.375	0.179	-0.107
-734.010	-4.883	0.153	-0.109
-732.996	-102.148	-0.267	0.066
-731.981	-200.000	-0.007	-0.079
-730.966	800.000	0.016	0.067
-729.952	-160.340	0.051	-0.003
-728.937	192.309	-0.109	0.168
-727.923	800.000	-0.095	-0.270
-726.908	800.000	-0.056	-0.236
-725.894	-138.316	-0.141	-0.016
-724.879	-133.504	-0.265	-0.034
-723.864	800.000	-0.070	-0.231
-722.850	800.000	-0.027	-0.113
-721.835	88.258	0.164	-0.187
-720.821	-147.608	-0.087	-0.008
-719.806	428.552	-0.107	0.237
-718.791	-35.393	-0.018	-0.010
-717.777	-95.317	-0.347	-0.096
-716.762	-78.924	-0.159	0.055
-715.748	413.768	-0.044	-0.097
-714.733	-78.165	0.122	-0.043
-713.718	800.000	-0.127	-0.563
-712.704	2.299	0.140	0.104
-711.689	171.803	0.151	0.223
-710.675	2.317	0.163	0.121
-709.660	-200.000	0.078	-0.489
-708.645	-200.000	-0.036	-0.253
-707.631	209.635	0.046	-0.075
-706.616	618.549	-0.037	-0.095
-705.602	644.570	-0.091	0.239
-704.587	368.073	-0.080	-0.166
-703.572	-200.000	0.001	0.102
-702.558	75.187	-0.090	0.097
-701.543	-101.260	-0.243	-0.061
-700.529	-45.903	-0.370	0.187
-699.514	-183.843	0.282	-0.005
-698.499	800.000	-0.048	0.153
-697.485	-200.000	-0.030	-0.156
-696.470	-84.228	-0.126	-0.041
-695.456	-105.890	-0.373	-0.086
-694.441	627.499	0.063	-0.162
-693.426	708.391	-0.103	-0.279
-692.412	-58.378	0.234	0.104
-691.397	-20.768	-0.434	0.273
-690.383	-200.000	-0.005	0.176
-689.368	-138.483	-0.665	-0.075
-688.354	-97.235	-0.050	0.013
-687.339	-54.926	0.274	0.127
-686.324	-82.851	-0.097	-0.032
-685.310	-84.108	-0.238	-0.078
-684.295	348.698	0.050	0.101
-683.281	-125.610	-0.003	-0.000
-682.266	-200.000	-0.024	0.134
-681.251	2.704	0.129	-0.096
-680.237	-49.517	0.302	0.147
-679.222	-70.296	0.079	0.031
-678.208	-104.625	-0.316	0.075
-677.193	122.674	-0.090	-0.116
-676.178	800.000	-0.084	0.336
-675.164	556.029	0.052	-0.128
-674.149	800.000	-0.040	-0.154
-673.135	-173.888	-0.231	0.007
-672.120	-28.509	-0.254	-0.150
-671.105	-64.033	-0.260	-0.109
-670.091	65.647	0.095	-0.099
-669.076	-43.734	-0.089	-0.046
-668.062	103.043	-0.084	-0.100
-667.047	-10.928	0.224	0.152
-666.032	35.793	-0.073	-0.065
-665.018	156.652	-0.113	-0.160
-664.003	-126.329	0.087	0.013
-662.989	800.000	-0.026	0.092
-661.974	-52.489	0.288	-0.136
-660.959	-121.533	-0.185	-0.031
-659.945	-200.000	-0.008	0.094
-658.930	111.816	0.057	0.070
-657.916	800.000	0.015	0.054
-656.901	24.007	-0.147	0.124
-655.886	-146.192	-0.184	-0.017
-654.872	99.753	-0.104	-0.123
-653.857	32.705	0.159	-0.141
-652.843	-16.850	-0.187	-0.121
-651.828	-135.784	-0.100	0.012
-650.814	7.987	-0.284	-0.218
-649.799	-200.000	-0.018	-0.241
-648.784	-99.262	-0.251	0.065
-647.770	-200.000	-0.001	0.142
-646.755	-10.140	-0.247	0.168
-645.741	211.056	0.122	-0.197
-644.726	233.672	-0.172	0.290
-643.711	-105.525	-0.211	0.049
-642.697	-74.487	-0.199	0.074
-641.682	347.361	-0.060	0.122
-640.668	-29.202	-0.055	-0.032
-639.653	62.616	-0.161	-0.165
-638.638	-200.000	-0.006	-0.258
-637.624	-76.297	0.290	0.104
-636.609	202.712	-0.209	0.331
-635.595	56.919	-0.157	0.157
-634.580	-200.000	-0.023	-0.166
-633.565	64.901	0.105	-0.108
-632.551	17.150	0.205	-0.166
-631.536	800.000	0.106	-0.457
-630.522	-200.000	0.016	0.345
-629.507	-129.192	0.231	0.033
-628.492	-110.420	-0.096	0.020
-627.478	131.184	-0.026	-0.034
-626.463	0.507	0.103	-0.075
-625.449	166.609	0.219	-0.317
-624.434	306.364	-0.115	-0.219
-623.419	-4.035	-0.202	0.143
-622.405	-132.559	-0.208	-0.027
-621.390	50.237	-0.235	-0.227
-620.376	-115.165	0.284	0.055
-619.361	800.000	-0.079	-0.346
-618.346	73.897	-0.131	-0.140
-617.332	-124.987	-0.117	0.018
-616.317	-6.279	-0.166	-0.116
-615.303	76.383	0.169	0.183
-614.288	35.120	-0.064	-0.057
-613.273	-76.518	-0.266	-0.095
-612.259	235.152	-0.116	0.196
-611.244	-134.785	0.100	-0.012
-610.230	88.381	-0.165	-0.187
-609.215	-200.000	0.038	-0.224
-608.201	601.622	-0.082	0.209
-607.186	69.745	0.059	-0.062
-606.171	800.000	-0.092	-0.361
-605.157	-200.000	-0.026	-0.376
-604.142	800.000	-0.168	-0.520
-603.128	226.641	0.079	-0.131
-602.113	3.766	-0.099	-0.074
-601.098	647.855	0.066	-0.173
-600.084	458.281	-0.094	0.213
-599.069	-18.981	0.227	0.144
-598.055	-65.710	0.163	0.067
-597.040	-28.077	-0.109	-0.064
-596.025	-19.909	-0.253	0.160
-595.011	395.140	0.034	0.071
-593.996	800.000	0.104	0.401
-592.982	-99.295	-0.071	0.018
-591.967	-200.000	-0.004	0.127
-590.952	272.140	0.187	0.336
-589.938	9.877	-0.254	0.197
-588.923	-39.356	-0.345	-0.185
-587.909	-112.200	-0.265	-0.054
-586.894	800.000	0.086	0.253
-585.879	800.000	0.062	-0.183
-584.865	509.208	0.066	-0.157
-583.850	650.418	-0.038	0.098
-582.836	800.000	-0.013	-0.049
-581.821	800.000	0.071	0.244
-580.806	-91.802	0.125	0.036
-579.792	-109.226	-0.201	-0.044
-578.777	115.213	0.103	0.128
-577.763	-122.979	0.294	-0.048
-576.748	800.000	0.117	0.517
-575.733	-168.418	-0.220	-0.009
-574.719	-124.345	-0.098	0.016
-573.704	-60.268	-0.080	0.035
-572.690	-200.000	-0.030	-0.335
-571.675	82.733	-0.130	-0.144
-570.661	34.228	-0.248	-0.221
-569.646	-75.244	0.263	0.096
-568.631	-2.288	-0.069	0.049
-567.617	348.016	-0.136	-0.274
-566.602	-20.816	-0.180	0.112
-565.588	701.941	0.046	-0.123
-564.573	-127.638	-0.203	-0.030
-563.558	88.756	-0.132	-0.150
-562.544	-161.146	-0.281	-0.015
-561.529	-67.822	0.540	0.215
-560.515	-200.000	0.005	0.224
-559.500	-200.000	-0.022	-0.331
-558.485	542.438	-0.104	0.253
-557.471	59.182	0.120	0.120
-556.456	-33.847	-0.231	0.130
-555.442	-31.958	0.144	-0.082
-554.427	-8.658	-0.164	-0.112
-553.412	-200.000	0.016	-0.083
-552.398	596.560	-0.115	-0.290
-551.383	-200.000	0.037	-0.219
-550.369	710.490	0.028	0.076
-549.354	-81.711	0.052	0.017
-548.339	-77.434	-0.158	-0.056
-547.325	-200.000	0.046	-0.333
-546.310	-200.000	0.026	0.386
-545.296	-200.000	-0.017	0.225
-544.281	-152.304	-0.304	0.022
-543.266	-35.700	0.339	-0.187
-542.252	-73.541	0.252	-0.094
-541.237	105.293	-0.048	-0.058
-540.223	566.215	0.090	0.222
-539.208	800.000	0.061	-0.172
-538.193	-170.555	0.048	-0.002
-537.179	60.581	0.094	-0.094
-536.164	151.292	-0.095	-0.132
-535.150	-200.000	-0.017	0.115
-534.135	152.081	-0.049	-0.068
-533.121	-93.799	-0.136	-0.038
-532.106	-200.000	0.013	0.086
-531.091	800.000	-0.066	-0.228
-530.077	-41.955	0.138	0.072
-529.062	-200.000	0.021	0.266
-528.048	-200.000	0.022	-0.204
-527.033	-84.079	0.040	0.013
-526.018	112.864	-0.055	-0.068
-525.004	-44.142	0.045	-0.023
-523.989	158.484	-0.058	-0.082
-522.975	-169.373	-0.155	-0.006
-521.960	-200.000	0.018	-0.087
-520.945	-129.235	-0.356	-0.050
-519.931	-112.029	-0.053	0.011
-518.916	800.000	-0.005	0.019
-517.902	303.332	-0.103	0.194
-516.887	-52.908	0.196	0.092
-515.872	-115.404	-0.131	-0.025
-514.858	503.382	-0.095	-0.225
-513.843	-124.352	-0.143	-0.023
-512.829	40.617	-0.161	0.147
-511.814	112.091	0.090	-0.111
-510.799	-120.322	0.364	0.063
-509.785	-200.000	-0.016	-0.294
-508.770	-200.000	-0.039	-0.181
-507.756	-27.823	0.173	-0.102
-506.741	-61.364	-0.229	0.098
-505.726	-200.000	-0.047	0.370
-504.712	693.637	0.071	-0.191
-503.697	289.031	-0.101	0.186
-502.683	-117.321	-0.260	-0.048
-501.668	-200.000	-0.024	-0.328
-500.653	17.440	0.214	-0.173
-499.639	214.123	-0.098	-0.158
-498.624	-200.000	0.026	0.155
-497.610	-80.402	-0.128	0.043
-496.595	-107.250	0.211	-0.047
-495.581	-70.643	0.209	0.080
-494.566	-38.612	-0.313	0.168
-493.551	681.700	0.067	-0.178
-492.537	-200.000	0.020	0.157
-491.522	9.691	0.110	0.085
-490.508	-131.451	0.266	-0.036
-489.493	-78.930	0.119	-0.041
-488.478	-150.804	0.187	0.014
-487.464	800.000	0.036	0.145
-486.449	484.026	0.059	0.137
-485.435	-50.865	0.200	-0.095
-484.420	396.271	0.166	0.352
-483.405	150.466	-0.192	0.266
-482.391	672.606	0.037	0.098
-481.376	-113.467	0.136	-0.027
-480.362	-146.234	-0.278	0.025
-479.347	67.987	0.096	-0.100
-478.332	-127.760	-0.220	-0.032
-477.318	-200.000	0.062	0.514
-476.303	-45.527	0.081	-0.041
-475.289	-200.000	0.010	0.074
-474.274	-200.000	0.005	-0.058
-473.259	-200.000	0.030	0.292
-472.245	800.000	0.056	-0.238
-471.230	-81.230	-0.188	0.063
-470.216	306.524	-0.059	0.112
-469.201	476.837	-0.039	-0.089
-468.186	431.927	-0.086	-0.188
-467.172	-147.984	0.247	-0.021
-466.157	-200.000	0.007	-0.328
-465.143	163.031	0.208	0.297
-464.128	-3.881	-0.344	-0.242
-463.113	-200.000	-0.015	0.224
-462.099	-183.337	0.284	-0.005
-461.084	-200.000	0.020	0.355
-460.070	-10.450	0.191	-0.128
-459.055	-200.000	0.011	-0.135
-458.040	800.000	-0.034	0.100
-457.026	73.980	-0.153	-0.163
-456.011	-40.625	0.094	-0.049
-454.997	197.311	0.122	-0.188
-453.982	18.209	-0.278	-0.226
-452.968	27.804	-0.180	-0.154
-451.953	800.000	-0.031	-0.128
-450.938	539.763	0.140	0.338
-449.924	-200.000	0.003	0.120
-448.909	142.629	-0.030	0.040
-447.895	-200.000	-0.013	-0.136
-446.880	428.321	0.111	-0.244
-445.865	-129.854	0.255	-0.035
-444.851	86.573	0.215	0.240
-443.836	157.011	0.298	0.419
-442.822	800.000	0.071	-0.283
-441.807	-200.000	-0.044	0.467
-440.792	-86.092	0.084	-0.026
-439.778	800.000	-0.047	0.173
-438.763	-105.883	0.084	0.019
-437.749	-200.000	-0.039	0.218
-436.734	800.000	-0.037	-0.148
-435.719	-163.497	0.188	-0.009
-434.705	800.000	-0.036	0.109
-433.690	-200.000	-0.025	0.151
-432.676	-95.688	-0.311	-0.084
-431.661	156.471	0.163	-0.228
-430.646	-77.133	-0.164	0.058
-429.632	-41.959	0.195	-0.102
-428.617	800.000	0.075	0.237
-427.603	-125.467	0.036	0.006
-426.588	-101.352	0.135	-0.033
-425.573	-109.160	0.151	0.033
-424.559	3.152	-0.258	-0.191
-423.544	6.927	0.051	0.039
-422.530	499.488	-0.116	0.271
-421.515	61.038	0.175	-0.176
-420.500	91.978	0.146	-0.166
-419.486	-93.040	-0.135	0.038
-418.471	677.997	-0.037	0.096
-417.457	-200.000	0.001	0.045
-416.442	-12.043	-0.195	-0.130
-415.428	-99.546	0.204	-0.052
-414.413	-49.686	0.573	0.276
-413.398	-82.910	0.116	-0.038
-412.384	800.000	-0.087	-0.314
-411.369	-74.219	-0.263	0.096
-410.355	85.111	0.165	0.183
-409.340	-139.580	-0.470	0.051
-408.325	800.000	0.012	0.047
-407.311	-200.000	-0.023	-0.148
-406.296	-46.327	0.384	0.191
-405.282	-73.956	-0.327	-0.120
-404.267	-78.995	0.200	-0.069
-403.252	195.955	0.222	0.342
-402.238	-100.098	0.101	-0.025
-401.223	96.000	0.085	0.098
-400.209	-200.000	-0.006	0.237
-399.194	6.341	0.139	0.105
-398.179	800.000	0.039	-0.168
-397.165	1.136	-0.159	0.115
-396.150	800.000	-0.105	0.338
-395.136	-200.000	0.028	-0.242
-394.121	-146.185	0.178	-0.016
-393.106	124.818	-0.163	0.208
-392.092	-9.959	-0.336	0.226
-391.077	-50.839	0.235	-0.112
-390.063	-27.480	0.200	0.118
-389.048	-200.000	0.001	0.011
-388.033	-111.068	0.173	-0.036
-387.019	-185.158	-0.208	0.003
-386.004	240.850	0.176	0.298
-384.990	-200.000	-0.030	0.200
-383.975	-76.201	-0.223	-0.080
-382.960	57.405	0.281	-0.278
-381.946	-103.563	0.426	0.101
-380.931	115.108	0.229	0.283
-379.917	-200.000	0.018	-0.132
-378.902	-200.000	-0.019	-0.206
-377.888	-200.000	0.003	0.206
-376.873	800.000	-0.073	0.230
-375.858	-101.456	-0.130	0.032
-374.844	-200.000	0.041	0.273
-373.829	339.672	0.150	0.296
-372.815	-120.466	-0.294	-0.050
-371.800	800.000	0.073	0.217
-370.785	324.692	0.133	0.256
-369.771	129.421	0.084	-0.109
-368.756	-200.000	0.036	0.281
-367.742	87.163	-0.103	-0.115
-366.727	48.474	0.128	0.122
-365.712	28.112	-0.125	-0.107
-364.698	-87.244	-0.400	0.123
-363.683	226.045	0.043	-0.071
-362.669	31.008	-0.092	-0.079
-361.654	-60.188	0.239	0.103
-360.639	-62.581	0.289	0.121
-359.625	467.494	0.121	-0.274
-358.610	-121.213	0.414	0.070
-357.596	83.604	-0.114	0.126
-356.581	160.294	-0.211	-0.298
-355.566	-120.638	-0.302	0.052
-354.552	-53.972	-0.210	0.097
-353.537	278.889	0.061	-0.110
-352.523	128.719	-0.105	-0.136
-351.508	-158.505	-0.098	-0.006
-350.493	263.906	-0.162	-0.284
-349.479	-74.981	-0.444	-0.161
-348.464	800.000	-0.053	0.179
-347.450	524.623	-0.039	-0.092
-346.435	-3.250	-0.172	0.121
-345.420	-200.000	0.028	-0.154
-344.406	205.777	0.055	-0.086
-343.391	33.635	0.107	0.094
-342.377	15.742	-0.075	-0.059
-341.362	800.000	0.067	0.189
-340.348	14.276	0.229	-0.180
-339.333	800.000	0.043	0.138
-338.318	148.786	-0.138	-0.188
-337.304	-200.000	-0.011	0.193
-336.289	572.982	0.124	-0.307
-335.275	-7.173	0.119	0.081
-334.260	-53.669	-0.215	-0.099
-333.245	55.836	0.133	-0.131
-332.231	203.693	-0.197	-0.308
-331.216	800.000	0.132	0.529
-330.202	231.697	0.157	-0.260
-329.187	187.610	-0.122	-0.183
-328.172	-75.522	-0.152	0.055
-327.158	800.000	-0.036	-0.155
-326.143	-178.892	-0.117	0.003
-325.129	-200.000	0.040	0.265
-324.114	-200.000	0.023	-0.149
-323.099	-114.827	-0.157	-0.030
-322.085	-78.213	0.135	-0.047
-321.070	52.576	0.366	-0.353
-320.056	346.153	0.237	0.472
-319.041	800.000	0.052	-0.150
-318.026	-74.266	0.116	-0.042
-317.012	-4.236	-0.217	0.151
-315.997	-33.016	0.102	0.057
-314.983	-91.684	-0.335	0.096
-313.968	399.049	-0.045	0.094
-312.953	316.389	0.169	0.322
-311.939	98.044	-0.163	0.190
-310.924	-200.000	0.019	-0.269
-309.910	-200.000	0.008	-0.064
-308.895	-200.000	-0.016	-0.180
-307.880	-51.088	0.158	-0.075
-306.866	45.282	0.063	0.059
-305.851	-9.896	-0.103	-0.069
-304.837	58.208	0.239	0.237
-303.822	-88.748	-0.109	0.033
-302.807	-200.000	-0.014	0.155
-301.793	143.197	-0.148	-0.199
-300.778	-18.083	0.103	-0.065
-299.764	162.185	-0.163	-0.230
-298.749	-200.000	-0.016	-0.079
-297.735	204.319	0.020	-0.031
-296.720	15.667	-0.161	-0.127
-295.705	-200.000	-0.037	0.178
-294.691	687.384	-0.039	0.103
-293.676	-176.820	-0.220	-0.006
-292.662	53.843	-0.091	-0.088
-291.647	800.000	0.023	-0.076
-290.632	333.372	0.072	-0.140
-289.618	-128.460	0.184	-0.026
-288.603	-167.462	-0.259	0.010
-287.589	151.277	-0.090	0.124
-286.574	-109.335	0.162	-0.035
-285.559	-106.618	-0.133	-0.030
-284.545	-150.772	-0.125	0.010
-283.530	-146.241	0.156	-0.014
-282.516	774.785	-0.210	0.578
-281.501	-105.110	0.242	-0.056
-280.486	-200.000	0.026	-0.141
-279.472	-131.862	0.319	-0.042
-278.457	-200.000	0.001	0.207
-277.443	-160.482	0.432	0.023
-276.428	516.106	0.148	-0.349
-275.413	-33.776	0.215	-0.120
-274.399	800.000	-0.062	0.197
-273.384	114.207	-0.249	0.305
-272.370	-88.772	0.183	-0.055
-271.355	270.762	0.204	-0.362
-270.340	195.684	0.104	-0.160
-269.326	236.348	0.100	0.166
-268.311	72.498	-0.064	0.068
-267.297	173.927	0.253	0.369
-266.282	800.000	0.078	-0.286
-265.267	308.833	0.129	0.244
-264.253	566.705	-0.072	-0.176
-263.238	87.698	-0.227	-0.254
-262.224	222.369	0.090	0.146
-261.209	-68.222	-0.281	0.110
-260.195	-200.000	0.031	0.329
-259.180	-200.000	0.000	0.015
-258.165	-4.701	-0.355	-0.247
-257.151	800.000	-0.113	-0.333
-256.136	102.468	0.088	-0.104
-255.122	-11.634	0.309	-0.204
-254.107	-16.941	0.140	-0.089
-253.092	631.526	0.038	-0.097
-252.078	-85.552	-0.042	0.013
-251.063	207.935	-0.163	0.256
-250.049	-200.000	0.038	0.188
-249.034	322.459	0.159	-0.305
-248.019	-132.213	-0.406	0.053
-247.005	121.360	-0.128	0.161
-245.990	38.660	0.100	0.090
-244.976	-1.130	0.077	0.055
-243.961	-14.222	-0.190	0.124
-242.946	-17.706	-0.169	-0.107
-241.932	-200.000	-0.029	-0.175
-240.917	-200.000	-0.019	-0.108
-239.903	-200.000	0.081	0.363
-238.888	62.465	-0.243	0.244
-237.873	-48.935	0.362	0.175
-236.859	125.336	0.203	-0.258
-235.844	-99.019	0.181	-0.046
-234.830	21.261	0.175	-0.143
-233.815	186.947	-0.161	-0.241
-232.800	-200.000	0.109	-0.000
-231.786	270.361	-0.091	-0.161
-230.771	-5.923	-0.184	0.127
-229.757	-108.613	0.207	-0.045
-228.742	800.000	0.111	-0.331
-227.727	800.000	-0.085	-0.290
-226.713	-85.548	0.183	0.057
-225.698	-200.000	-0.004	0.038
-224.684	-75.579	0.173	-0.062
-223.669	-33.477	-0.214	-0.119
-222.655	111.019	0.064	0.078
-221.640	281.820	0.094	0.170
-220.625	362.912	-0.134	0.271
-219.611	43.718	0.115	-0.106
-218.596	14.520	0.161	-0.127
-217.582	20.611	-0.328	-0.267
-216.567	-97.518	0.326	-0.085
-215.552	-144.163	-0.427	0.040
-214.538	-200.000	-0.037	0.235
-213.523	-91.691	-0.197	0.056
-212.509	-109.127	0.015	0.003
-211.494	-57.934	0.249	0.110
-210.479	-102.623	0.054	-0.013
-209.465	209.810	0.033	0.051
-208.450	800.000	0.011	-0.046
-207.436	499.617	0.182	-0.422
-206.421	-70.659	0.183	0.069
-205.406	-200.000	-0.003	0.032
-204.392	349.683	-0.177	-0.352
-203.377	51.328	0.180	-0.172
-202.363	-165.163	0.394	-0.018
-201.348	-67.095	0.359	0.142
-200.333	129.242	0.207	0.266
-199.319	281.818	0.079	-0.142
-198.304	-25.277	0.071	-0.042
-197.290	17.889	-0.054	0.043
-196.275	-90.993	-0.111	-0.032
-195.260	-181.395	-0.131	0.003
-194.246	-200.000	0.064	0.402
-193.231	599.818	0.058	0.145
-192.217	-27.094	0.286	0.168
-191.202	-200.000	0.013	-0.449
-190.187	34.829	-0.202	0.178
-189.173	-146.355	-0.138	-0.012
-188.158	-125.057	0.148	0.023
-187.144	109.141	-0.090	-0.109
-186.129	800.000	-0.038	0.149
-185.114	-49.116	-0.150	0.072
-184.100	-200.000	0.025	-0.278
-183.085	531.625	-0.130	-0.310
-182.071	-133.371	0.170	-0.022
-181.056	17.895	-0.303	0.242
-180.042	-200.000	-0.007	-0.045
-179.027	188.809	0.265	-0.399
-178.012	338.941	0.067	-0.130
-176.998	-200.000	0.013	0.117
-175.983	800.000	-0.136	0.403
-174.969	800.000	-0.054	-0.215
-173.954	351.499	-0.145	0.289
-172.939	-200.000	-0.049	0.416
-171.925	436.009	-0.060	-0.130
-170.910	80.297	-0.083	-0.090
-169.896	-200.000	-0.014	-0.232
-168.881	-60.679	0.276	-0.118
-167.866	168.180	0.164	-0.235
-166.852	-200.000	0.018	0.126
-165.837	-32.131	0.150	-0.084
-164.823	-122.447	-0.195	0.032
-163.808	-79.086	-0.413	0.141
-162.793	-59.183	0.295	0.128
-161.779	800.000	-0.057	0.219
-160.764	-189.811	-0.305	0.003
-159.750	-2.536	-0.239	0.168
-158.735	278.791	-0.055	-0.099
-157.720	-129.046	-0.409	0.057
-156.706	-157.681	0.056	-0.003
-155.691	64.861	-0.141	0.143
-154.677	253.225	0.101	-0.173
-153.662	224.885	-0.021	-0.034
-152.647	-200.000	-0.028	-0.142
-151.633	-57.194	0.161	0.071
-150.618	135.402	-0.202	0.264
-149.604	-60.178	-0.099	-0.042
-148.589	9.968	-0.095	-0.072
-147.574	-141.574	-0.279	-0.028
-146.560	101.616	0.108	0.126
-145.545	84.533	0.141	0.155
-144.531	-200.000	0.021	-0.215
-143.516	-200.000	0.008	0.164
-142.502	800.000	0.034	-0.116
-141.487	134.071	-0.220	-0.286
-140.472	-86.627	-0.119	-0.037
-139.458	-53.182	-0.133	0.061
-138.443	800.000	-0.085	0.371
-137.429	149.055	-0.191	-0.259
-136.414	-115.779	-0.026	0.005
-135.399	-37.500	0.353	0.189
-134.385	-104.524	-0.161	0.037
-133.370	-200.000	0.010	-0.067
-132.356	287.255	-0.142	-0.258
-131.341	-200.000	0.024	-0.303
-130.326	124.468	0.099	-0.125
-129.312	-119.348	0.174	0.030
-128.297	103.768	-0.155	0.182
-127.283	-141.016	-0.235	-0.024
-126.268	-65.514	-0.060	-0.024
-125.253	-61.323	0.168	0.071
-124.239	-50.540	-0.221	0.104
-123.224	279.156	-0.108	0.192
-122.210	69.386	0.032	-0.033
-121.195	-116.273	0.120	-0.022
-120.180	129.375	-0.105	0.134
-119.166	95.738	-0.231	-0.265
-118.151	50.049	-0.081	-0.077
-117.137	796.628	0.112	-0.310
-116.122	9.136	0.134	-0.101
-115.107	6.758	0.138	-0.103
-114.093	-114.366	0.212	-0.041
-113.078	-132.603	-0.446	-0.057
-112.064	-68.427	0.318	-0.124
-111.049	-200.000	0.006	-0.249
-110.034	-60.074	0.069	-0.030
-109.020	800.000	-0.032	-0.109
-108.005	-66.889	-0.201	-0.079
-106.991	324.371	0.084	0.161
-105.976	-61.949	0.245	-0.102
-104.962	24.270	-0.102	0.085
-103.947	-111.685	0.146	-0.030
-102.932	-120.977	0.095	-0.016
-101.918	58.679	0.200	-0.197
-100.903	-61.036	-0.060	-0.025
-99.889	800.000	0.043	-0.165
-98.874	800.000	-0.033	0.128
-97.859	-200.000	0.009	0.234
-96.845	405.758	-0.043	0.091
-95.830	710.088	-0.094	-0.250
-94.816	703.757	-0.207	0.545
-93.801	61.237	-0.104	-0.103
-92.786	-200.000	0.367	0.001
-91.772	-118.433	0.144	0.026
-90.757	684.484	0.035	0.092
-89.743	-200.000	0.046	-0.250
-88.728	-140.574	0.169	-0.018
-87.713	-52.432	-0.173	-0.080
-86.699	132.903	-0.177	0.229
-85.684	800.000	-0.044	-0.175
-84.670	-38.477	0.307	0.163
-83.655	-176.315	0.111	-0.003
-82.640	86.951	-0.116	0.128
-81.626	-121.536	0.215	-0.036
-80.611	4.253	0.280	0.205
-79.597	535.929	0.168	0.399
-78.582	-200.000	-0.050	0.230
-77.567	-58.663	0.327	-0.142
-76.553	185.932	0.237	0.352
-75.538	473.174	-0.041	0.093
-74.524	-153.999	-0.152	-0.010
-73.509	44.954	-0.148	0.137
-72.494	179.622	0.100	0.147
-71.480	800.000	0.096	-0.412
-70.465	800.000	0.121	0.438
-69.451	-169.522	0.299	0.011
-68.436	66.352	0.091	0.093
-67.422	10.262	0.121	-0.092
-66.407	-6.550	-0.094	0.064
-65.392	-84.467	-0.133	0.042
-64.378	-200.000	-0.137	0.000
-63.363	-57.596	0.246	-0.108
-62.349	-80.276	-0.069	0.023
-61.334	-4.423	-0.851	-0.588
-60.319	-200.000	-0.029	0.429
-59.305	647.777	0.159	-0.407
-58.290	800.000	0.181	0.551
-57.276	478.040	0.646	1.462
-56.261	-200.000	69.994	519.027
-55.246	574.823	1265.108	3086.372
-54.232	137.926	2528.353	3311.584
-53.217	112.143	2368.409	2861.251
-52.203	54.251	1986.897	1911.413
-51.188	47.994	1772.924	1655.875
-50.173	44.991	1725.419	1588.110
-49.159	58.129	1754.806	1718.159
-48.144	64.984	1774.162	1790.599
-47.130	47.841	1739.270	1622.992
-46.115	44.555	1725.394	1584.439
-45.100	44.273	1720.872	1578.034
-44.086	44.344	1717.898	1575.795
-43.071	44.303	1715.260	1572.994
-42.057	44.292	1713.051	1570.824
-41.042	44.360	1710.866	1569.283
-40.027	44.299	1709.028	1567.063
-39.013	44.400	1706.856	1565.792
-37.998	44.301	1705.046	1563.302
-36.984	44.476	1703.593	1563.257
-35.969	44.471	1701.832	1561.540
-34.954	44.570	1700.323	1560.849
-33.940	44.537	1698.534	1558.897
-32.925	44.589	1696.463	1557.334
-31.911	44.580	1694.821	1555.695
-30.896	44.542	1692.935	1553.612
-29.881	44.538	1691.200	1551.923
-28.867	44.416	1689.669	1549.531
-27.852	44.451	1688.132	1548.327
-26.838	44.474	1686.413	1546.859
-25.823	44.492	1685.236	1545.859
-24.809	44.580	1683.585	1544.951
-23.794	44.444	1682.440	1542.806
-22.779	44.563	1680.363	1541.743
-21.765	44.455	1679.658	1540.218
-20.750	44.505	1677.383	1538.444
-19.736	44.488	1675.661	1536.675
-18.721	44.543	1674.494	1535.965
-17.706	44.493	1672.683	1533.861
-16.692	44.410	1671.232	1531.843
-15.677	44.511	1669.201	1530.687
-14.663	44.498	1668.312	1529.714
-13.648	44.449	1666.494	1527.614
-12.633	44.499	1664.925	1526.493
-11.619	44.475	1663.452	1524.899
-10.604	44.476	1662.392	1523.872
-9.590	44.551	1660.229	1522.392
-8.575	44.523	1658.968	1520.964
-7.560	44.477	1658.257	1519.907
-6.546	44.512	1656.670	1518.659
-5.531	44.442	1655.636	1517.130
-4.517	44.437	1654.634	1516.110
-3.502	44.422	1653.830	1515.203
-2.487	44.627	1651.589	1514.611
-1.473	44.581	1640.804	1504.326
-0.458	42.202	1620.420	1468.180
0.556	34.932	1616.474	1423.222
1.571	30.988	1637.765	1412.036
2.586	29.389	1651.204	1411.275
3.600	25.782	1597.802	1338.751
4.615	16.212	1482.483	1175.671
5.629	7.904	1410.248	1063.012
6.644	6.021	1399.785	1042.546
7.659	5.838	1398.404	1040.207
8.673	5.823	1396.895	1038.896
9.688	5.718	1395.560	1037.114
10.702	5.518	1392.669	1033.552
11.717	9.054	1400.292	1062.568
12.731	16.583	1414.373	1123.326
13.746	19.439	1417.100	1144.364
14.761	17.530	1412.868	1128.209
15.775	16.115	1409.588	1116.130
16.790	15.000	1406.155	1105.952
17.804	14.136	1403.802	1098.296
18.819	13.727	1402.853	1094.761
19.834	13.434	1401.551	1091.713
20.848	13.255	1399.932	1089.180
21.863	12.962	1398.604	1086.122
22.877	12.873	1397.230	1084.369
23.892	12.775	1396.511	1083.074
24.907	12.735	1395.927	1082.259
25.921	12.854	1394.929	1082.170
26.936	12.813	1394.252	1081.286
27.950	12.750	1392.932	1079.753
28.965	12.871	1391.895	1079.647
29.980	13.056	1390.082	1079.354
30.994	13.031	1388.948	1078.214
32.009	13.116	1388.228	1078.115
33.023	13.077	1386.852	1076.694
34.038	13.047	1385.380	1075.258
35.053	12.873	1384.288	1073.185
36.067	12.951	1383.039	1072.631
37.082	12.913	1382.109	1071.567
38.096	13.051	1381.065	1071.560
39.111	12.966	1380.391	1070.386
40.126	12.906	1379.238	1069.009
41.140	12.718	1378.935	1067.466
42.155	12.751	1378.083	1066.921
43.169	12.748	1377.847	1066.630
44.184	12.706	1377.374	1065.894
45.199	12.714	1377.050	1065.600
46.213	12.758	1376.321	1065.229
47.228	12.933	1375.313	1065.486
48.242	12.850	1374.311	1064.078
49.257	12.939	1372.830	1063.409
50.271	12.832	1371.261	1061.413
51.286	12.950	1369.351	1060.598
52.301	12.973	1368.561	1060.039
53.315	12.792	1367.422	1057.903
54.330	12.779	1366.343	1056.890
55.344	12.855	1364.856	1056.133
56.359	12.832	1363.921	1055.170
57.374	12.711	1363.348	1053.856
58.388	12.699	1362.427	1052.975
59.403	12.636	1361.758	1051.963
60.417	12.754	1360.648	1051.767
61.432	12.663	1359.893	1050.511
62.447	12.691	1358.733	1049.702
63.461	12.513	1357.715	1047.687
64.476	12.646	1356.298	1047.348
65.490	12.584	1355.396	1046.165
66.505	12.665	1353.784	1045.339
67.520	12.675	1352.729	1044.499
68.534	12.692	1351.694	1043.710
69.549	12.580	1351.229	1042.554
70.563	12.655	1350.075	1042.044
71.578	12.586	1348.583	1040.363
72.593	12.437	1347.882	1038.787
73.607	12.455	1347.043	1038.164
74.622	12.556	1346.403	1038.216
75.636	12.560	1345.601	1037.533
76.651	12.606	1344.675	1037.018
77.666	12.490	1344.267	1035.880
78.680	12.500	1343.799	1035.490
79.695	12.566	1342.948	1035.158
80.709	12.608	1342.041	1034.628
81.724	12.757	1341.350	1034.940
82.739	12.704	1340.301	1033.707
83.753	12.769	1339.555	1033.447
84.768	12.814	1338.781	1033.042
85.782	13.023	1337.201	1033.038
86.797	13.022	1335.915	1031.949
87.812	12.825	1335.186	1030.063
88.826	12.853	1333.799	1029.075
89.841	12.850	1332.864	1028.244
90.855	12.961	1331.689	1027.940
91.870	12.906	1330.804	1026.827
92.884	12.980	1330.380	1026.866
93.899	12.894	1329.483	1025.547
94.914	13.060	1328.652	1025.850
95.928	13.168	1327.156	1025.274
96.943	12.965	1326.662	1023.541
97.957	12.939	1325.884	1022.691
98.972	12.927	1324.864	1021.740
99.987	12.935	1323.507	1020.651
101.001	12.837	1322.616	1019.269
102.016	12.888	1321.641	1018.742
103.030	12.916	1320.826	1018.198
104.045	12.952	1319.435	1017.253
105.060	12.909	1318.505	1016.182
106.074	12.796	1317.041	1014.270
107.089	12.676	1315.761	1012.457
108.103	12.687	1314.567	1011.516
109.118	12.714	1313.045	1010.420
110.133	12.757	1311.681	1009.545
111.147	12.585	1310.737	1007.674
112.162	12.680	1309.434	1007.163
113.176	12.811	1307.800	1006.622
114.191	12.706	1307.421	1005.597
115.206	12.826	1305.902	1005.071
116.220	12.749	1304.455	1003.399
117.235	12.744	1303.659	1002.667
118.249	12.789	1302.544	1001.994
119.264	12.676	1302.137	1000.910
120.279	12.751	1300.777	1000.229
121.293	12.722	1299.523	998.999
122.308	12.659	1298.453	997.711
123.322	12.627	1297.278	996.522
124.337	12.697	1296.004	995.878
125.352	12.629	1295.021	994.626
126.366	12.739	1293.975	994.397
127.381	12.713	1292.790	993.244
128.395	12.690	1291.668	992.155
129.410	12.750	1290.438	991.484
130.424	12.747	1290.115	991.130
131.439	12.869	1288.989	990.910
132.454	12.831	1288.148	989.948
133.468	12.833	1287.086	989.053
134.483	12.821	1286.398	988.366
135.497	12.827	1285.684	987.765
136.512	12.829	1284.323	986.648
137.527	12.908	1282.760	985.833
138.541	12.872	1281.705	984.717
139.556	12.827	1279.997	983.053
140.570	13.023	1278.962	983.335
141.585	13.042	1277.959	982.589
142.600	13.032	1276.607	981.404
143.614	13.094	1275.639	980.941
144.629	13.036	1274.867	979.920
145.643	13.145	1273.345	979.308
146.658	13.053	1272.234	977.820
147.673	13.040	1270.909	976.638
148.687	12.956	1269.596	975.046
149.702	12.973	1268.314	974.078
150.716	12.924	1267.019	972.705
151.731	12.891	1265.950	971.606
152.746	12.848	1264.762	970.354
153.760	13.040	1262.958	970.012
154.775	12.994	1262.391	969.224
155.789	12.995	1261.452	968.424
156.804	13.031	1260.217	967.599
157.819	13.070	1259.543	967.226
158.833	13.067	1258.592	966.389
159.848	13.067	1257.692	965.616
160.862	13.184	1255.951	964.878
161.877	13.022	1254.929	963.062
162.892	12.970	1253.767	961.781
163.906	12.953	1252.616	960.715
164.921	12.966	1251.795	960.076
165.935	13.056	1250.899	959.823
166.950	12.963	1250.878	959.185
167.964	13.012	1249.316	958.188
168.979	13.084	1248.511	957.902
169.994	13.039	1248.025	957.182
171.008	13.095	1247.067	956.689
172.023	13.128	1246.185	956.117
173.037	13.164	1245.484	955.703
174.052	13.205	1244.489	955.095
175.067	13.134	1243.425	953.783
176.081	13.001	1242.607	952.299
177.096	13.057	1241.455	951.660
178.110	13.121	1240.563	951.257
179.125	13.105	1239.085	949.950
180.140	13.201	1237.763	949.405
181.154	13.199	1236.510	948.349
182.169	13.185	1235.911	947.722
183.183	13.321	1233.963	946.922
184.198	13.239	1233.529	946.038
185.213	13.344	1232.032	945.408
186.227	13.351	1230.824	944.435
187.242	13.334	1229.582	943.303
188.256	13.431	1228.891	943.241
189.271	13.405	1227.998	942.324
190.286	13.332	1226.956	941.027
191.300	13.127	1225.895	938.961
192.315	13.107	1225.206	938.237
193.329	13.098	1224.314	937.419
194.344	13.174	1223.760	937.343
195.359	13.302	1223.331	937.658
196.373	13.344	1222.913	937.494
197.388	13.411	1222.333	937.348
198.402	13.474	1221.843	937.245
199.417	13.524	1221.320	937.042
200.432	13.653	1220.282	936.893
201.446	13.538	1219.898	935.866
202.461	13.532	1219.226	935.231
203.475	13.601	1218.113	934.685
204.490	13.561	1216.710	933.304
205.504	13.520	1215.274	931.887
206.519	13.604	1213.757	931.115
207.534	13.475	1212.905	929.650
208.548	13.444	1212.217	928.871
209.563	13.541	1211.231	928.577
210.577	13.633	1210.191	928.213
211.592	13.644	1209.447	927.622
212.607	13.637	1208.943	927.114
213.621	13.696	1207.965	926.611
214.636	13.768	1206.604	925.886
215.650	13.676	1205.669	924.576
216.665	13.803	1204.878	924.592
217.680	13.788	1204.167	923.882
218.694	13.779	1203.418	923.176
219.709	13.826	1202.685	922.791
220.723	13.670	1202.015	921.329
221.738	13.770	1200.853	920.913
222.753	13.773	1199.977	920.177
223.767	13.923	1199.314	920.416
224.782	13.953	1198.742	920.063
225.796	13.898	1197.978	919.092
226.811	13.973	1197.238	918.859
227.826	13.779	1196.763	917.341
228.840	13.925	1195.495	917.090
229.855	13.855	1195.211	916.408
230.869	13.792	1194.602	915.509
231.884	13.827	1193.429	914.723
232.899	13.804	1192.863	914.085
233.913	13.758	1192.269	913.294
234.928	13.641	1191.411	911.913
235.942	13.763	1190.444	911.762
236.957	13.694	1189.569	910.632
237.972	13.765	1188.752	910.317
238.986	13.726	1188.257	909.639
240.001	13.859	1187.429	909.656
241.015	13.834	1186.473	908.704
242.030	13.944	1185.606	908.565
243.045	13.889	1185.250	907.908
244.059	13.976	1184.356	907.619
245.074	13.930	1183.412	906.564
246.088	13.973	1182.478	906.005
247.103	14.116	1181.762	906.154
248.117	14.087	1181.009	905.338
249.132	14.142	1180.313	905.026
250.147	14.240	1179.835	905.112
251.161	14.305	1178.874	904.647
252.176	14.372	1178.147	904.372
253.190	14.415	1177.756	904.225
254.205	14.495	1177.265	904.202
255.220	14.413	1176.714	903.252
256.234	14.357	1175.966	902.300
257.249	14.523	1175.151	902.491
258.263	14.344	1174.626	901.042
259.278	14.463	1173.719	900.905
260.293	14.453	1173.521	900.622
261.307	14.562	1172.600	900.422
262.322	14.541	1172.148	899.884
263.336	14.636	1171.397	899.740
264.351	14.602	1170.959	899.142
265.366	14.601	1170.140	898.428
266.380	14.515	1169.601	897.468
267.395	14.652	1168.251	897.089
268.409	14.550	1167.765	896.089
269.424	14.453	1167.250	895.096
270.439	14.636	1166.467	895.399
271.453	14.583	1165.558	894.337
272.468	14.481	1164.694	893.049
273.482	14.474	1163.696	892.168
274.497	14.561	1163.242	892.203
275.512	14.597	1162.318	891.607
276.526	14.523	1162.120	890.983
277.541	14.558	1161.261	890.433
278.555	14.655	1160.422	890.225
279.570	14.635	1159.519	889.349
280.585	14.779	1158.992	889.635
281.599	14.780	1157.595	888.488
282.614	14.755	1156.694	887.586
283.628	14.800	1155.813	887.071
284.643	14.697	1154.972	885.799
285.657	14.699	1154.134	885.088
286.672	14.811	1153.025	884.750
287.687	14.720	1152.538	883.818
288.701	14.677	1151.596	882.790
289.716	14.764	1150.653	882.447
290.730	14.877	1149.762	882.285
291.745	14.763	1149.377	881.311
292.760	14.878	1148.618	881.254
293.774	14.910	1147.690	880.635
294.789	14.808	1148.039	880.285
295.803	14.885	1146.904	879.743
296.818	14.879	1146.204	879.098
297.833	14.874	1145.483	878.439
298.847	14.962	1144.239	877.868
299.862	14.904	1143.264	876.742
300.876	14.962	1142.756	876.579
301.891	15.055	1142.098	876.484
302.906	15.009	1141.538	875.735
303.920	15.109	1140.727	875.558
304.935	15.212	1139.877	875.366
305.949	15.043	1139.533	874.144
306.964	15.200	1138.944	874.430
307.979	15.105	1138.312	873.375
308.993	15.266	1137.043	873.160
310.008	15.191	1136.324	872.143
311.022	15.254	1135.465	871.734
312.037	15.206	1134.741	870.851
313.052	15.200	1133.551	869.828
314.066	15.165	1132.415	868.698
315.081	15.079	1131.924	867.800
316.095	15.053	1131.001	866.879
317.110	15.099	1130.562	866.706
318.125	15.111	1129.555	865.917
319.139	15.072	1129.006	865.222
320.154	15.093	1128.322	864.725
321.168	15.157	1128.029	864.756
322.183	15.144	1126.989	863.815
323.197	15.136	1126.584	863.387
324.212	15.225	1125.980	863.308
325.227	15.127	1125.345	862.239
326.241	15.248	1124.728	862.310
327.256	15.240	1123.737	861.435
328.270	15.301	1122.651	860.839
329.285	15.280	1121.656	859.896
330.300	15.228	1121.146	859.158
331.314	15.199	1120.357	858.332
332.329	15.333	1118.896	857.823
333.343	15.333	1118.375	857.343
334.358	15.297	1117.469	856.391
335.373	15.399	1116.852	856.364
336.387	15.346	1116.533	855.774
337.402	15.363	1115.497	854.990
338.416	15.351	1115.049	854.510
339.431	15.433	1114.207	854.204
340.446	15.471	1113.655	853.902
341.460	15.589	1112.939	853.878
342.475	15.679	1111.831	853.408
343.489	15.694	1110.921	852.706
344.504	15.640	1110.491	852.030
345.519	15.635	1109.399	851.090
346.533	15.710	1109.100	851.168
347.548	15.782	1107.758	850.423
348.562	15.655	1107.133	849.226
349.577	15.568	1106.434	848.177
350.592	15.539	1105.574	847.298
351.606	15.609	1104.818	846.993
352.621	15.532	1104.419	846.226
353.635	15.620	1103.062	845.554
354.650	15.549	1102.584	844.755
355.665	15.688	1101.659	844.674
356.679	15.645	1101.061	843.922
357.694	15.590	1101.011	843.532
358.708	15.829	1099.820	843.744
359.723	15.757	1099.009	842.684
360.738	15.731	1098.414	842.025
361.752	15.786	1097.714	841.692
362.767	15.658	1097.806	841.045
363.781	15.774	1096.887	840.849
364.796	15.767	1096.511	840.448
365.810	15.924	1095.836	840.639
366.825	16.018	1095.135	840.497
367.840	15.985	1094.504	839.777
368.854	16.090	1093.761	839.653
369.869	16.097	1093.212	839.194
370.883	15.972	1092.678	838.085
371.898	16.026	1091.559	837.422
372.913	15.950	1091.373	836.830
373.927	16.078	1090.757	836.919
374.942	16.071	1089.908	836.157
375.956	16.161	1088.977	835.816
376.971	16.033	1088.718	834.906
377.986	16.099	1088.278	834.822
379.000	16.261	1087.523	834.971
380.015	16.164	1087.391	834.319
381.029	16.195	1086.466	833.688
382.044	16.316	1085.725	833.639
383.059	16.383	1084.761	833.159
384.073	16.197	1084.249	831.774
385.088	16.262	1083.144	831.174
386.102	16.330	1082.110	830.642
387.117	16.219	1081.302	829.403
388.132	16.067	1080.495	827.960
389.146	16.161	1079.439	827.543
390.161	16.218	1078.794	827.252
391.175	16.135	1078.351	826.433
392.190	16.285	1077.465	826.413
393.205	16.312	1076.896	826.035
394.219	16.393	1075.755	825.486
395.234	16.271	1075.298	824.468
396.248	16.232	1074.211	823.370
397.263	16.256	1072.765	822.307
398.278	16.244	1072.168	821.718
399.292	16.267	1071.411	821.176
400.307	16.310	1070.605	820.692
401.321	16.324	1069.915	820.161
402.336	16.325	1069.244	819.581
403.350	16.325	1068.532	818.961
404.365	16.394	1068.011	818.824
405.380	16.424	1067.241	818.305
406.394	16.389	1066.925	817.822
407.409	16.451	1065.834	817.211
408.423	16.520	1065.183	816.973
409.438	16.537	1064.933	816.794
410.453	16.552	1063.889	815.989
411.467	16.574	1062.749	815.150
412.482	16.638	1062.375	815.101
413.496	16.673	1062.051	814.945
414.511	16.703	1061.252	814.407
415.526	16.702	1060.724	813.926
416.540	16.725	1060.538	813.819
417.555	16.779	1059.524	813.230
418.569	16.687	1059.224	812.488
419.584	16.797	1058.915	812.703
420.599	16.808	1058.077	812.044
421.613	69.055	1267.868	1263.486
422.628	63.568	1298.452	1263.637
