DTS Sentinel unit serial number:	SN413079Multiplexer serial number:	ORYXHardware model number:	OX4-SRSoftware version number:	ORYX F/W v4.00 Oryx Data Collector v3.7.2.0data status	okinstallation	princeton_trtdifferential loss correction	single-endedforward channel	channel 2reverse channel	N/Adate	2019/09/13time	12:31:35forward acquisition time	60.00reverse acquisition time	0.00gamma	496.2192k internal	0.2315k external	0.2315temperature offset calibration	1.0213default loss term (dB/km)	0.3790temperature slope calibration	1.0000multiplexer offset coefficient	1.0000multiplexer slope coefficient	1.0000fibre end	0.00T internal ref (°C)	34.44T ext. ref 1 (°C)	4.62T ext. ref 2 (°C)	31.80length (m)	temperature (°C)	Stokes	anti-Stokes-747.200	-97.282	-0.273	-0.072
-746.185	-167.615	-0.118	0.005
-745.171	-114.522	0.305	-0.059
-744.156	-200.000	-0.029	0.318
-743.142	-25.429	0.181	-0.109
-742.127	-69.384	0.383	0.149
-741.112	759.108	0.146	-0.401
-740.098	-200.000	0.075	0.448
-739.083	-55.231	0.356	0.162
-738.069	800.000	0.035	0.106
-737.054	-24.634	-0.146	0.088
-736.039	-200.000	0.051	0.246
-735.025	-200.000	0.007	0.044
-734.010	-16.277	-0.261	0.168
-732.996	485.879	-0.117	0.269
-731.981	-96.949	-0.219	0.058
-730.966	-71.444	0.249	-0.094
-729.952	649.350	-0.060	-0.157
-728.937	240.204	0.107	0.180
-727.923	-200.000	0.034	-0.337
-726.908	215.390	-0.267	-0.428
-725.894	574.359	-0.040	0.100
-724.879	2.100	-0.276	-0.202
-723.864	511.833	0.166	-0.391
-722.850	800.000	-0.099	-0.334
-721.835	-79.503	-0.249	-0.085
-720.821	-37.069	-0.212	0.115
-719.806	308.410	-0.088	0.165
-718.791	-200.000	0.034	0.184
-717.777	208.639	0.029	0.046
-716.762	291.757	0.258	-0.476
-715.748	-94.547	-0.140	0.039
-714.733	-59.673	-0.050	0.022
-713.718	-200.000	-0.002	-0.257
-712.704	203.946	0.130	-0.203
-711.689	-132.446	0.212	-0.028
-710.675	273.159	-0.110	0.197
-709.660	412.484	-0.061	0.132
-708.645	1.118	-0.339	-0.246
-707.631	800.000	0.044	-0.158
-706.616	800.000	-0.147	-0.605
-705.602	12.029	0.091	0.071
-704.587	748.936	-0.195	-0.532
-703.572	18.434	-0.221	0.178
-702.558	-124.938	0.305	0.047
-701.543	244.889	0.020	0.034
-700.529	-200.000	-0.005	-0.230
-699.514	-85.649	-0.137	-0.043
-698.499	-200.000	-0.010	0.163
-697.485	-31.292	0.214	-0.122
-696.470	167.198	-0.103	0.148
-695.456	-7.876	-0.152	0.104
-694.441	800.000	-0.093	-0.290
-693.426	3.109	-0.209	0.154
-692.412	-165.427	-0.282	-0.012
-691.397	-200.000	0.037	0.197
-690.383	544.136	0.111	-0.269
-689.368	-77.773	-0.146	0.051
-688.354	-200.000	0.009	0.045
-687.339	-200.000	-0.035	-0.312
-686.324	1.346	0.215	-0.156
-685.310	731.909	0.062	-0.169
-684.295	81.590	-0.049	0.053
-683.281	800.000	-0.064	-0.283
-682.266	157.656	-0.053	-0.075
-681.251	-146.738	0.316	-0.028
-680.237	433.850	-0.155	-0.341
-679.222	-200.000	-0.038	-0.275
-678.208	103.203	-0.171	-0.203
-677.193	-36.224	0.175	-0.095
-676.178	-26.158	-0.079	0.047
-675.164	-56.887	-0.200	0.089
-674.149	800.000	0.080	-0.299
-673.135	24.159	0.208	0.173
-672.120	98.545	-0.064	0.075
-671.105	43.146	-0.215	0.198
-670.091	-174.585	-0.339	0.010
-669.076	-90.756	-0.305	-0.089
-668.062	221.349	-0.075	0.122
-667.047	53.716	-0.357	-0.346
-666.032	800.000	-0.063	0.269
-665.018	-76.781	0.327	-0.116
-664.003	164.036	0.083	0.118
-662.989	-68.081	0.267	0.105
-661.974	-47.499	-0.146	-0.072
-660.959	13.525	0.220	0.173
-659.945	-58.994	0.141	-0.061
-658.930	-42.068	-0.371	0.192
-657.916	-27.212	-0.249	0.146
-656.901	-157.682	0.348	-0.021
-655.886	-200.000	-0.024	0.116
-654.872	240.277	-0.096	-0.162
-653.857	-106.676	0.093	-0.021
-652.843	-200.000	0.006	0.094
-651.828	256.263	-0.255	-0.442
-650.814	614.009	-0.074	-0.186
-649.799	51.695	0.150	-0.144
-648.784	-200.000	0.051	0.271
-647.770	-62.447	-0.369	-0.155
-646.755	107.304	-0.117	-0.140
-645.741	-62.827	-0.238	0.099
-644.726	137.140	-0.034	0.045
-643.711	-9.139	0.117	-0.079
-642.697	-37.297	0.220	-0.119
-641.682	531.305	0.113	-0.269
-640.668	472.319	0.147	0.334
-639.653	44.489	0.114	-0.106
-638.638	31.772	-0.131	-0.114
-637.624	134.231	0.109	0.143
-636.609	-63.520	-0.349	-0.145
-635.595	175.098	-0.219	-0.321
-634.580	-19.611	-0.073	0.045
-633.565	-160.131	0.068	-0.004
-632.551	-83.985	0.189	0.061
-631.536	39.773	-0.118	0.107
-630.522	-64.069	-0.300	0.123
-629.507	-30.582	0.116	-0.067
-628.492	-73.151	0.117	-0.043
-627.478	58.748	-0.066	-0.066
-626.463	-200.000	0.034	-0.170
-625.449	43.013	-0.221	-0.203
-624.434	-200.000	0.012	0.150
-623.419	-200.000	0.000	-0.129
-622.405	800.000	0.068	0.279
-621.390	215.511	0.166	-0.266
-620.376	171.276	-0.153	-0.222
-619.361	800.000	-0.015	-0.051
-618.346	-200.000	-0.027	-0.132
-617.332	21.603	0.108	0.088
-616.317	-200.000	0.001	-0.013
-615.303	337.970	-0.156	-0.305
-614.288	626.424	0.067	-0.170
-613.273	421.865	-0.124	-0.269
-612.259	-14.496	-0.068	0.044
-611.244	-200.000	-0.014	0.119
-610.230	-19.214	0.247	0.155
-609.215	-200.000	-0.015	-0.144
-608.201	-200.000	-0.006	0.058
-607.186	120.077	-0.026	-0.032
-606.171	-14.008	0.033	-0.022
-605.157	181.670	0.083	0.122
-604.142	-44.117	-0.202	-0.102
-603.128	133.547	0.283	-0.368
-602.113	42.898	-0.094	-0.086
-601.098	-112.781	-0.052	0.010
-600.084	800.000	0.063	0.248
-599.069	-114.712	-0.296	0.057
-598.055	107.854	-0.073	-0.088
-597.040	-200.000	0.018	-0.114
-596.025	-35.414	0.227	0.124
-595.011	-200.000	-0.016	-0.454
-593.996	635.168	-0.119	-0.304
-592.982	206.770	0.188	0.294
-591.967	-200.000	-0.023	-0.157
-590.952	102.286	0.124	0.146
-589.938	196.065	-0.092	0.141
-588.923	-3.858	0.363	0.254
-587.909	-71.218	0.134	0.051
-586.894	8.001	0.036	0.027
-585.879	-147.381	-0.229	-0.020
-584.865	75.435	0.139	-0.148
-583.850	6.065	-0.188	-0.140
-582.836	69.496	0.085	-0.088
-581.821	-20.026	-0.156	-0.097
-580.806	345.367	0.102	-0.201
-579.792	-152.840	0.266	0.019
-578.777	9.949	-0.123	-0.094
-577.763	324.306	-0.144	0.277
-576.748	26.658	-0.244	0.206
-575.733	102.583	-0.290	-0.342
-574.719	723.946	0.101	-0.270
-573.704	-59.675	-0.302	-0.130
-572.690	-130.472	-0.386	0.053
-571.675	534.807	0.030	-0.071
-570.661	295.286	0.147	0.271
-569.646	-107.155	0.314	-0.070
-568.631	164.342	0.163	0.231
-567.617	268.825	0.223	-0.393
-566.602	800.000	-0.067	-0.195
-565.588	32.950	0.177	-0.154
-564.573	-200.000	-0.008	0.494
-563.558	-83.416	0.381	-0.123
-562.544	-200.000	-0.030	-0.146
-561.529	136.076	0.242	0.317
-560.515	-39.886	-0.197	0.104
-559.500	-58.670	0.244	-0.106
-558.485	234.184	-0.277	-0.459
-557.471	-198.026	0.126	0.001
-556.456	421.541	-0.125	0.269
-555.442	415.507	-0.128	0.274
-554.427	-33.794	-0.207	-0.115
-553.412	-9.295	-0.321	-0.216
-552.398	494.704	0.140	0.323
-551.383	-98.797	-0.211	0.054
-550.369	81.524	0.022	-0.024
-549.354	131.760	-0.036	-0.047
-548.339	-90.275	-0.143	-0.042
-547.325	98.795	0.081	0.094
-546.310	-200.000	-0.016	0.162
-545.296	476.958	0.079	0.180
-544.281	-57.095	0.062	-0.028
-543.266	-33.438	-0.168	-0.093
-542.252	-38.056	-0.249	0.133
-541.237	-54.525	-0.221	0.101
-540.223	675.893	0.026	0.069
-539.208	-60.947	-0.185	0.079
-538.193	107.107	0.124	-0.149
-537.179	-33.633	-0.325	0.181
-536.164	-200.000	0.013	-0.079
-535.150	-200.000	-0.014	0.239
-534.135	468.364	-0.089	0.201
-533.121	-68.754	-0.229	0.089
-532.106	-73.827	-0.067	-0.025
-531.091	-29.778	0.044	0.025
-530.077	-90.052	-0.171	0.050
-529.062	-95.869	0.364	-0.098
-528.048	-158.410	-0.090	-0.005
-527.033	800.000	0.103	0.308
-526.018	272.886	0.141	-0.250
-525.004	-76.553	-0.037	-0.013
-523.989	-200.000	-0.064	-0.314
-522.975	211.058	0.238	0.377
-521.960	-105.514	0.147	-0.033
-520.945	-4.608	-0.271	0.188
-519.931	228.506	0.066	-0.108
-518.916	-24.774	0.185	-0.111
-517.902	49.260	-0.179	-0.169
-516.887	224.145	0.122	0.198
-515.872	7.633	-0.311	0.234
-514.858	56.837	0.087	0.085
-513.843	139.109	0.211	0.279
-512.829	133.956	-0.108	0.141
-511.814	-35.915	-0.077	-0.042
-510.799	-21.565	0.173	-0.106
-509.785	-139.621	0.136	0.015
-508.770	-135.123	0.205	0.025
-507.756	618.732	0.044	-0.111
-506.741	145.395	-0.078	0.105
-505.726	-81.795	0.247	0.081
-504.712	-144.308	0.329	0.031
-503.697	-13.044	-0.154	0.100
-502.683	-122.855	0.186	-0.030
-501.668	-121.490	-0.216	-0.036
-500.653	678.438	-0.079	0.206
-499.639	66.378	0.221	0.225
-498.624	-76.704	0.122	0.043
-497.610	234.217	0.029	-0.048
-496.595	-145.700	0.156	0.014
-495.581	190.800	0.070	0.106
-494.566	800.000	-0.098	0.397
-493.551	21.228	-0.267	0.217
-492.537	294.676	-0.031	0.057
-491.522	-200.000	0.009	0.156
-490.508	-200.000	-0.023	0.161
-489.493	359.030	0.031	-0.063
-488.478	-165.911	0.293	-0.013
-487.464	136.886	0.190	0.250
-486.449	-111.404	-0.336	-0.069
-485.435	257.682	-0.180	-0.311
-484.420	800.000	0.070	0.216
-483.405	92.633	-0.128	0.145
-482.391	-145.867	-0.305	0.027
-481.376	217.574	0.102	-0.163
-480.362	-200.000	0.026	-0.242
-479.347	-111.466	-0.201	-0.041
-478.332	182.971	0.132	-0.196
-477.318	200.215	-0.100	0.154
-476.303	-200.000	-0.030	-0.268
-475.289	-100.378	-0.267	0.066
-474.274	-124.024	-0.143	0.023
-473.259	-190.964	0.196	0.002
-472.245	27.428	-0.080	-0.067
-471.230	-131.496	0.106	0.014
-470.216	-128.666	-0.375	-0.053
-469.201	121.464	0.099	0.123
-468.186	203.049	0.112	0.174
-467.172	-200.000	0.010	0.277
-466.157	162.715	0.065	0.092
-465.143	-200.000	-0.010	-0.349
-464.128	570.339	0.148	0.361
-463.113	170.839	-0.057	-0.082
-462.099	229.759	-0.161	0.263
-461.084	800.000	-0.045	0.159
-460.070	-29.291	-0.227	-0.130
-459.055	-31.338	-0.071	-0.040
-458.040	-68.255	0.232	-0.091
-457.026	-180.230	0.354	-0.007
-456.011	800.000	-0.065	-0.264
-454.997	-89.140	0.264	-0.078
-453.982	-34.612	-0.079	0.044
-452.968	149.081	0.136	0.185
-451.953	241.803	0.062	-0.104
-450.938	198.164	-0.091	-0.139
-449.924	800.000	0.035	-0.134
-448.909	-113.409	0.168	0.033
-447.895	-118.635	-0.440	0.078
-446.880	-107.432	-0.282	0.062
-445.865	228.538	-0.058	-0.095
-444.851	-30.071	-0.222	0.127
-443.836	285.755	-0.039	-0.070
-442.822	87.059	0.251	0.278
-441.807	59.938	0.219	0.216
-440.792	35.946	-0.113	0.099
-439.778	726.200	0.068	0.181
-438.763	-30.374	-0.161	-0.091
-437.749	265.029	-0.085	-0.148
-436.734	-200.000	0.001	-0.426
-435.719	-27.252	-0.124	0.072
-434.705	-200.000	-0.002	0.126
-433.690	-40.601	0.352	-0.183
-432.676	-50.413	0.211	0.100
-431.661	733.335	-0.077	0.207
-430.646	753.202	-0.072	0.195
-429.632	91.929	-0.284	0.320
-428.617	321.828	0.066	0.126
-427.603	294.451	0.087	0.159
-426.588	-117.247	0.257	0.047
-425.573	-117.532	0.592	0.107
-424.559	-200.000	-0.018	0.198
-423.544	-61.038	0.071	0.030
-422.530	800.000	-0.043	0.159
-421.515	496.470	0.049	0.112
-420.500	341.379	-0.135	0.264
-419.486	-105.832	-0.417	0.094
-418.471	178.309	0.205	0.300
-417.457	346.335	0.085	0.168
-416.442	-200.000	0.006	-0.028
-415.428	249.797	0.204	-0.347
-414.413	46.177	-0.023	0.021
-413.398	-136.693	-0.177	0.020
-412.384	136.641	0.119	-0.155
-411.369	-107.709	-0.134	0.029
-410.355	69.018	0.303	-0.311
-409.340	800.000	-0.010	0.041
-408.325	559.810	0.031	0.075
-407.311	-1.631	-0.153	-0.108
-406.296	-60.237	-0.115	-0.049
-405.282	93.601	0.104	0.118
-404.267	-200.000	0.015	0.076
-403.252	200.647	-0.122	0.188
-402.238	-200.000	-0.007	-0.056
-401.223	301.835	-0.041	0.076
-400.209	-96.936	0.236	-0.062
-399.194	366.630	-0.121	-0.244
-398.179	-104.885	-0.217	-0.050
-397.165	800.000	-0.044	-0.133
-396.150	-152.813	0.162	-0.011
-395.136	800.000	-0.058	0.211
-394.121	-30.059	0.301	-0.171
-393.106	225.186	-0.235	-0.380
-392.092	-164.393	-0.441	0.020
-391.077	-22.821	0.249	-0.150
-390.063	-200.000	0.004	0.226
-389.048	800.000	0.065	-0.214
-388.033	-156.546	-0.112	0.007
-387.019	-200.000	0.021	-0.287
-386.004	-2.904	0.094	0.065
-384.990	-180.219	0.099	0.002
-383.975	-80.810	0.117	-0.039
-382.960	-51.640	0.183	-0.086
-381.946	800.000	0.079	-0.233
-380.931	41.228	-0.153	-0.138
-379.917	-144.632	0.277	0.026
-378.902	-200.000	-0.016	0.173
-377.888	-200.000	-0.054	-0.394
-376.873	9.235	0.224	-0.169
-375.858	46.384	0.257	0.238
-374.844	-200.000	-0.005	0.205
-373.829	2.171	0.321	-0.232
-372.815	95.606	-0.143	-0.163
-371.800	-200.000	-0.028	-0.315
-370.785	-72.379	-0.078	-0.029
-369.771	-70.560	-0.224	-0.085
-368.756	124.977	-0.015	0.019
-367.742	-38.649	0.468	0.247
-366.727	70.015	-0.071	0.074
-365.712	800.000	0.070	0.217
-364.698	-111.697	0.449	0.091
-363.683	-200.000	0.077	-0.344
-362.669	-200.000	-0.014	-0.138
-361.654	-91.660	-0.234	-0.067
-360.639	-171.892	-0.355	-0.012
-359.625	-39.528	-0.127	-0.066
-358.610	-153.259	0.098	0.007
-357.596	800.000	-0.053	-0.153
-356.581	121.157	0.161	-0.200
-355.566	-15.891	-0.250	-0.159
-354.552	800.000	0.074	0.204
-353.537	338.325	0.067	-0.130
-352.523	-200.000	0.015	-0.200
-351.508	-200.000	-0.000	-0.263
-350.493	-200.000	-0.009	-0.244
-349.479	800.000	0.033	0.115
-348.464	68.810	0.098	-0.101
-347.450	-115.128	-0.130	-0.025
-346.435	76.749	-0.143	0.151
-345.420	-105.996	0.407	-0.091
-344.406	85.922	0.175	0.192
-343.391	-82.455	-0.248	-0.080
-342.377	204.287	0.144	-0.223
-341.362	-112.143	-0.235	0.047
-340.348	-200.000	-0.025	-0.219
-339.333	-200.000	-0.001	-0.012
-338.318	-200.000	0.019	0.094
-337.304	-45.141	-0.134	0.067
-336.289	-200.000	-0.015	0.080
-335.275	189.865	0.035	-0.053
-334.260	-200.000	0.035	-0.206
-333.245	-200.000	0.016	-0.411
-332.231	-24.403	-0.250	-0.149
-331.216	-28.561	-0.237	-0.136
-330.202	35.029	0.180	-0.157
-329.187	101.917	0.256	0.298
-328.172	-93.775	0.237	-0.065
-327.158	-200.000	-0.004	0.069
-326.143	800.000	-0.094	-0.323
-325.129	226.440	-0.075	0.122
-324.114	92.086	-0.049	0.055
-323.099	-9.680	0.159	0.106
-322.085	-149.761	-0.203	0.016
-321.070	59.414	-0.202	-0.198
-320.056	337.827	0.149	0.289
-319.041	800.000	0.013	-0.055
-318.026	-200.000	-0.029	0.150
-317.012	800.000	0.017	-0.063
-315.997	-36.533	-0.275	0.148
-314.983	-60.212	0.290	0.123
-313.968	-13.754	-0.271	-0.175
-312.953	-200.000	-0.049	0.436
-311.939	-112.538	-0.172	0.034
-310.924	800.000	0.018	0.074
-309.910	188.421	-0.145	-0.216
-308.895	-200.000	0.067	-0.404
-307.880	-99.387	-0.131	0.033
-306.866	-116.490	0.331	-0.061
-305.851	44.744	0.021	0.019
-304.837	800.000	0.040	0.127
-303.822	175.422	0.184	0.266
-302.807	122.414	-0.299	-0.373
-301.793	271.744	-0.030	0.053
-300.778	-200.000	-0.085	0.575
-299.764	-200.000	-0.011	0.178
-298.749	-200.000	0.053	0.368
-297.735	-162.543	0.272	-0.013
-296.720	227.904	-0.067	-0.109
-295.705	354.127	0.216	-0.428
-294.691	77.264	-0.083	-0.088
-293.676	604.869	-0.069	-0.172
-292.662	-152.786	0.185	-0.013
-291.647	-142.808	-0.162	0.016
-290.632	62.413	-0.139	0.138
-289.618	160.802	-0.025	-0.034
-288.603	15.137	-0.110	0.085
-287.589	140.109	-0.345	-0.453
-286.574	-23.576	-0.167	0.100
-285.559	-144.722	-0.258	0.024
-284.545	64.871	-0.144	0.145
-283.530	-81.085	0.110	-0.036
-282.516	-43.755	0.173	-0.087
-281.501	-200.000	-0.000	-0.086
-280.486	737.693	0.168	-0.448
-279.472	187.354	0.160	-0.238
-278.457	62.199	-0.168	-0.167
-277.443	11.741	-0.229	-0.175
-276.428	800.000	-0.092	0.363
-275.413	25.841	-0.204	0.169
-274.399	-83.259	0.045	-0.014
-273.384	-165.486	0.191	-0.008
-272.370	-53.549	-0.254	0.115
-271.355	-89.982	0.197	0.057
-270.340	-83.041	0.191	-0.061
-269.326	-54.818	-0.214	-0.096
-268.311	-148.867	0.319	0.026
-267.297	131.895	-0.203	0.260
-266.282	34.657	-0.156	0.136
-265.267	144.342	-0.103	0.137
-264.253	602.093	0.092	0.228
-263.238	-148.588	0.044	0.004
-262.224	62.045	0.284	-0.282
-261.209	-200.000	-0.031	0.269
-260.195	38.757	-0.060	0.053
-259.180	-200.000	-0.014	0.188
-258.165	1.339	0.249	0.178
-257.151	505.648	-0.061	-0.140
-256.136	544.810	0.115	-0.273
-255.122	-200.000	0.002	-0.246
-254.107	39.687	-0.144	-0.128
-253.092	19.300	0.135	-0.108
-252.078	128.407	-0.017	0.021
-251.063	42.297	0.133	0.120
-250.049	12.046	-0.231	0.177
-249.034	-200.000	-0.010	-0.161
-248.019	-42.955	0.290	0.146
-247.005	-84.289	-0.148	-0.047
-245.990	25.538	0.240	0.198
-244.976	100.890	-0.052	-0.060
-243.961	-200.000	-0.003	0.099
-242.946	-56.110	0.358	0.158
-241.932	161.281	0.049	-0.068
-240.917	26.476	-0.074	0.062
-239.903	-200.000	0.079	-0.389
-238.888	436.622	0.089	0.193
-237.873	-67.093	0.225	-0.088
-236.859	-200.000	-0.051	-0.235
-235.844	-113.537	-0.060	-0.012
-234.830	670.564	0.122	0.315
-233.815	-85.277	-0.308	0.096
-232.800	-44.556	0.145	0.072
-231.786	14.841	0.235	0.182
-230.771	-43.192	-0.188	0.094
-229.757	-155.109	-0.020	0.001
-228.742	-28.263	-0.073	0.042
-227.727	144.114	0.183	0.243
-226.713	201.777	-0.160	-0.246
-225.698	-68.088	0.151	0.058
-224.684	-200.000	0.046	-0.280
-223.669	-167.029	-0.318	0.013
-222.655	-29.241	0.157	0.089
-221.640	-14.736	-0.371	0.237
-220.625	800.000	-0.031	0.099
-219.611	169.202	-0.120	0.169
-218.596	-200.000	-0.030	-0.244
-217.582	139.119	0.244	-0.319
-216.567	-200.000	0.041	-0.182
-215.552	100.515	-0.126	-0.146
-214.538	-36.925	0.084	0.045
-213.523	-117.753	-0.181	-0.032
-212.509	442.984	-0.101	0.220
-211.494	-167.153	0.121	0.005
-210.479	800.000	0.053	0.170
-209.465	-200.000	-0.036	0.164
-208.450	261.303	0.072	0.124
-207.436	-55.313	-0.259	0.115
-206.421	-200.000	0.014	-0.233
-205.406	104.434	0.156	-0.182
-204.392	-82.378	-0.213	0.069
-203.377	183.288	0.091	-0.134
-202.363	224.943	0.093	-0.149
-201.348	43.179	-0.153	-0.138
-200.333	175.500	-0.185	0.266
-199.319	223.327	-0.131	0.209
-198.304	128.653	-0.301	-0.381
-197.290	99.631	0.312	-0.359
-196.275	-25.561	0.112	-0.065
-195.260	-103.534	-0.148	-0.035
-194.246	-18.702	0.027	-0.017
-193.231	127.663	-0.120	0.151
-192.217	94.204	0.059	0.067
-191.202	-2.669	0.177	0.123
-190.187	-77.381	0.168	-0.058
-189.173	-31.564	-0.160	-0.089
-188.158	-191.159	0.188	-0.002
-187.144	-200.000	0.058	0.361
-186.129	-126.638	0.265	-0.039
-185.114	460.578	-0.056	0.123
-184.100	-156.995	0.093	-0.006
-183.085	-200.000	-0.003	0.163
-182.071	-49.688	0.093	-0.044
-181.056	-146.543	-0.208	0.018
-180.042	0.725	-0.189	-0.134
-179.027	800.000	-0.045	0.153
-178.012	-26.770	0.195	-0.113
-176.998	462.855	-0.126	0.278
-175.983	-98.623	0.151	-0.038
-174.969	-200.000	-0.025	-0.111
-173.954	-0.046	0.294	0.208
-172.939	800.000	-0.059	-0.181
-171.925	471.279	-0.020	0.045
-170.910	-30.735	0.081	-0.045
-169.896	346.464	0.030	0.059
-168.881	34.527	-0.173	-0.150
-167.866	309.753	0.164	0.305
-166.852	74.651	-0.048	0.050
-165.837	-200.000	0.018	0.288
-164.823	294.077	-0.055	0.099
-163.808	-114.737	-0.081	0.015
-162.793	752.388	0.163	-0.435
-161.779	-200.000	-0.011	0.149
-160.764	800.000	-0.052	0.171
-159.750	-98.924	0.145	-0.036
-158.735	-89.273	0.076	0.022
-157.720	-88.620	-0.023	-0.007
-156.706	47.886	0.189	0.175
-155.691	143.730	0.125	-0.165
-154.677	75.106	0.116	-0.121
-153.662	185.831	-0.176	-0.260
-152.647	15.375	-0.362	0.281
-151.633	98.360	0.059	0.068
-150.618	-102.593	0.131	0.031
-149.604	-111.808	-0.319	-0.064
-148.589	601.778	0.106	0.262
-147.574	-114.861	-0.362	0.068
-146.560	-138.079	0.338	0.037
-145.545	-69.655	-0.302	0.114
-144.531	-105.902	0.217	-0.048
-143.516	144.248	0.130	-0.172
-142.502	-13.168	0.218	-0.140
-141.487	60.327	0.274	-0.268
-140.472	130.579	-0.075	-0.095
-139.458	242.054	0.211	-0.349
-138.443	-182.284	-0.146	-0.003
-137.429	734.061	-0.061	0.162
-136.414	-200.000	0.113	0.554
-135.399	-36.740	0.195	-0.104
-134.385	27.333	-0.105	0.087
-133.370	54.089	-0.158	0.151
-132.356	-37.008	-0.175	-0.093
-131.341	-81.725	0.098	0.032
-130.326	-126.580	0.151	-0.022
-129.312	-102.727	-0.295	0.070
-128.297	60.143	-0.117	0.115
-127.283	-12.159	0.287	-0.186
-126.268	-18.014	-0.221	0.137
-125.253	281.955	-0.034	-0.060
-124.239	800.000	0.082	0.267
-123.224	-200.000	0.040	0.181
-122.210	11.778	-0.113	0.086
-121.195	-157.470	-0.210	-0.012
-120.180	39.209	0.212	0.188
-119.166	-200.000	0.032	0.300
-118.151	-151.509	0.231	-0.017
-117.137	-121.269	0.186	0.031
-116.122	-200.000	0.023	0.398
-115.107	800.000	-0.026	0.095
-114.093	-200.000	-0.030	-0.315
-113.078	-4.920	-0.267	-0.182
-112.064	24.965	0.123	0.101
-111.049	-140.649	0.136	0.014
-110.034	-72.967	0.208	-0.075
-109.020	770.849	0.029	-0.078
-108.005	274.328	-0.055	0.097
-106.991	-23.359	-0.106	0.063
-105.976	259.965	-0.017	-0.029
-104.962	226.724	-0.266	0.427
-103.947	-85.734	0.246	-0.076
-102.932	-30.380	-0.336	-0.188
-101.918	800.000	0.129	-0.411
-100.903	-200.000	-0.026	0.248
-99.889	212.681	0.097	0.151
-98.874	231.409	0.031	-0.050
-97.859	-200.000	0.006	-0.298
-96.845	-164.254	0.147	-0.007
-95.830	-200.000	-0.023	-0.149
-94.816	-140.004	-0.611	0.064
-93.801	800.000	0.065	0.251
-92.786	22.828	-0.214	0.173
-91.772	105.176	-0.018	-0.021
-90.757	-87.938	-0.375	0.112
-89.743	109.161	-0.235	0.278
-88.728	-200.000	-0.009	-0.262
-87.713	800.000	-0.044	-0.136
-86.699	-200.000	0.017	0.143
-85.684	-30.296	0.218	-0.123
-84.670	-105.210	-0.161	-0.036
-83.655	-179.762	0.152	0.003
-82.640	-40.430	-0.400	0.205
-81.626	-200.000	-0.038	-0.282
-80.611	800.000	-0.084	0.281
-79.597	612.607	0.027	-0.067
-78.582	-60.414	-0.127	-0.053
-77.567	92.997	-0.263	0.293
-76.553	591.685	0.099	-0.242
-75.538	34.861	0.144	0.125
-74.524	800.000	-0.047	0.134
-73.509	-41.338	-0.219	0.111
-72.494	-105.156	0.232	-0.052
-71.480	1.328	0.180	0.128
-70.465	-24.247	-0.171	-0.101
-69.451	800.000	0.062	-0.200
-68.436	470.850	-0.037	-0.081
-67.422	148.434	-0.096	-0.128
-66.407	96.845	0.281	0.318
-65.392	325.721	0.124	0.234
-64.378	-113.634	-0.072	-0.014
-63.363	306.412	-0.038	-0.070
-62.349	-200.000	0.005	-0.163
-61.334	142.629	-0.773	-1.014
-60.319	72.181	0.293	0.301
-59.305	800.000	-0.188	-0.788
-58.290	435.157	0.447	0.959
-57.276	373.225	0.896	1.797
-56.261	-200.000	95.468	555.895
-55.246	626.657	1388.382	3457.858
-54.232	184.711	2624.470	3838.362
-53.217	114.797	2326.771	2799.091
-52.203	44.098	1936.106	1751.387
-51.188	37.760	1721.019	1507.897
-50.173	34.848	1676.261	1446.634
-49.159	51.844	1723.596	1618.181
-48.144	55.033	1741.238	1659.110
-47.130	37.372	1697.979	1484.516
-46.115	34.456	1683.112	1449.333
-45.100	34.319	1677.938	1443.787
-44.086	34.239	1675.290	1440.844
-43.071	34.301	1672.690	1439.020
-42.057	34.245	1670.420	1436.584
-41.042	34.275	1668.118	1434.775
-40.027	34.348	1666.080	1433.515
-39.013	34.261	1664.397	1431.354
-37.998	34.307	1662.240	1429.791
-36.984	34.305	1661.255	1428.868
-35.969	34.398	1659.710	1428.179
-34.954	34.518	1658.175	1427.702
-33.940	34.458	1656.173	1425.477
-32.925	34.434	1653.973	1423.348
-31.911	34.386	1652.672	1421.813
-30.896	34.423	1650.784	1420.404
-29.881	34.394	1649.432	1418.971
-28.867	34.446	1647.524	1417.656
-27.852	34.442	1646.080	1416.331
-26.838	34.488	1644.601	1415.342
-25.823	34.435	1643.105	1413.604
-24.809	34.385	1641.910	1412.153
-23.794	34.474	1640.375	1411.437
-22.779	34.573	1638.488	1410.485
-21.765	34.428	1637.551	1408.555
-20.750	34.521	1635.267	1407.214
-19.736	34.514	1634.112	1406.118
-18.721	34.544	1632.646	1405.021
-17.706	34.465	1630.770	1402.766
-16.692	34.357	1629.950	1401.212
-15.677	34.427	1628.196	1400.161
-14.663	34.480	1626.563	1399.093
-13.648	34.524	1625.039	1398.051
-12.633	34.437	1623.753	1396.247
-11.619	34.474	1622.028	1394.979
-10.604	34.474	1620.287	1393.428
-9.590	34.492	1619.536	1392.861
-8.575	34.573	1617.849	1391.944
-7.560	34.429	1616.982	1390.095
-6.546	34.355	1615.542	1388.260
-5.531	34.496	1613.988	1387.901
-4.517	34.436	1613.177	1386.706
-3.502	34.475	1612.171	1386.075
-2.487	34.559	1610.637	1385.310
-1.473	34.451	1599.616	1374.994
-0.458	31.935	1580.490	1340.549
0.556	30.682	1579.465	1304.947
1.571	27.724	1603.090	1303.251
2.586	26.241	1615.015	1302.148
3.600	22.812	1559.504	1233.365
4.615	13.836	1448.179	1086.713
5.629	6.060	1382.388	988.490
6.644	4.618	1373.887	973.298
7.659	4.652	1372.056	972.127
8.673	4.577	1371.035	970.854
9.688	4.644	1369.611	970.175
10.702	4.633	1366.720	967.972
11.717	8.276	1374.243	995.984
12.731	17.056	1389.965	1062.484
13.746	22.491	1398.471	1103.022
14.761	22.769	1398.128	1104.391
15.775	21.979	1396.012	1097.687
16.790	20.995	1393.049	1089.118
17.804	20.324	1390.562	1082.893
18.819	19.887	1389.783	1079.461
19.834	19.764	1388.280	1077.432
20.848	19.687	1387.324	1076.120
21.863	19.553	1386.082	1074.225
22.877	19.349	1384.911	1071.954
23.892	19.321	1384.270	1071.192
24.907	19.358	1383.098	1070.415
25.921	19.330	1382.259	1069.496
26.936	19.286	1381.259	1068.358
27.950	19.332	1380.342	1067.840
28.965	19.508	1379.669	1068.311
29.980	19.520	1378.623	1067.482
30.994	19.605	1377.363	1066.936
32.009	19.726	1375.961	1066.505
33.023	19.686	1374.895	1065.335
34.038	19.505	1373.779	1063.262
35.053	19.461	1371.978	1061.506
36.067	19.447	1371.047	1060.605
37.082	19.481	1370.406	1060.221
38.096	19.548	1369.051	1059.493
39.111	19.605	1368.630	1059.420
40.126	19.430	1367.435	1057.331
41.140	19.285	1365.764	1055.059
42.155	19.055	1365.712	1053.517
43.169	19.061	1365.187	1053.054
44.184	18.994	1364.626	1052.120
45.199	19.037	1364.831	1052.448
46.213	19.129	1364.263	1052.477
47.228	19.363	1363.754	1053.423
48.242	19.389	1362.590	1052.588
49.257	19.381	1360.881	1051.125
50.271	19.378	1359.221	1049.734
51.286	19.447	1357.789	1048.952
52.301	19.372	1357.033	1047.821
53.315	19.269	1355.765	1046.123
54.330	19.107	1354.930	1044.407
55.344	19.114	1353.699	1043.408
56.359	19.144	1352.485	1042.560
57.374	19.070	1351.331	1041.131
58.388	18.975	1350.911	1040.143
59.403	19.007	1350.258	1039.739
60.417	18.929	1349.776	1038.804
61.432	18.815	1348.788	1037.264
62.447	18.742	1347.523	1035.760
63.461	18.845	1345.796	1034.959
64.476	18.733	1344.804	1033.430
65.490	18.728	1343.791	1032.529
66.505	18.799	1341.980	1031.477
67.520	18.910	1341.042	1031.328
68.534	18.944	1339.980	1030.627
69.549	18.849	1339.053	1029.252
70.563	18.784	1338.024	1027.980
71.578	18.756	1336.796	1026.777
72.593	18.540	1336.135	1024.889
73.607	18.553	1335.136	1024.111
74.622	18.637	1334.498	1024.032
75.636	18.639	1333.789	1023.407
76.651	18.618	1332.906	1022.517
77.666	18.709	1332.605	1022.736
78.680	18.816	1332.219	1022.985
79.695	18.955	1331.623	1023.266
80.709	19.042	1330.863	1023.111
81.724	19.071	1330.493	1022.906
82.739	19.213	1329.499	1022.897
83.753	19.287	1328.848	1022.744
84.768	19.474	1327.686	1022.866
85.782	19.574	1326.591	1022.523
86.797	19.624	1325.051	1021.542
87.812	19.427	1324.388	1019.776
88.826	19.463	1322.826	1018.694
89.841	19.464	1322.052	1018.016
90.855	19.535	1321.335	1017.793
91.870	19.551	1320.502	1017.155
92.884	19.571	1319.657	1016.534
93.899	19.474	1319.241	1015.551
94.914	19.695	1318.254	1015.999
95.928	19.612	1317.503	1014.844
96.943	19.616	1316.248	1013.809
97.957	19.503	1315.679	1012.620
98.972	19.607	1314.338	1012.106
99.987	19.486	1313.675	1010.797
101.001	19.612	1312.248	1010.351
102.016	19.496	1311.273	1008.831
103.030	19.610	1310.181	1008.565
104.045	19.572	1309.530	1007.755
105.060	19.485	1307.901	1005.907
106.074	19.138	1306.485	1002.708
107.089	18.920	1304.869	1000.110
108.103	18.879	1303.678	998.870
109.118	18.907	1302.661	998.166
110.133	18.922	1301.349	997.159
111.147	18.934	1300.077	996.164
112.162	18.945	1298.660	995.054
113.176	18.959	1298.139	994.651
114.191	19.015	1297.219	994.178
115.206	19.111	1295.538	993.359
116.220	19.062	1294.388	992.107
117.235	19.003	1293.723	991.169
118.249	18.925	1292.487	989.685
119.264	18.867	1291.146	988.234
120.279	18.872	1289.826	987.166
121.293	18.829	1289.176	986.333
122.308	18.711	1287.881	984.578
123.322	18.606	1287.383	983.512
124.337	18.632	1285.834	982.387
125.352	18.526	1284.960	981.029
126.366	18.604	1283.485	980.258
127.381	18.596	1282.197	979.148
128.395	18.604	1281.219	978.357
129.410	18.664	1280.583	978.125
130.424	18.762	1279.727	977.942
131.439	18.943	1278.821	978.193
132.454	18.933	1278.142	977.535
133.468	18.910	1277.884	977.119
134.483	18.997	1276.446	976.425
135.497	19.097	1275.354	976.074
136.512	19.069	1274.602	975.250
137.527	19.135	1272.491	973.921
138.541	19.070	1271.653	972.828
139.556	19.226	1270.264	972.562
140.570	19.262	1269.055	971.751
141.585	19.457	1267.986	971.948
142.600	19.373	1267.310	970.871
143.614	19.534	1266.429	971.012
144.629	19.508	1265.785	970.289
145.643	19.492	1264.509	969.136
146.658	19.350	1262.778	966.927
147.673	19.198	1261.521	965.026
148.687	19.177	1260.373	963.945
149.702	19.057	1259.041	962.172
150.716	19.116	1257.219	961.022
151.731	18.918	1256.121	958.994
152.746	19.135	1254.820	959.120
153.760	19.187	1254.117	958.788
154.775	19.376	1252.629	958.617
155.789	19.252	1251.844	957.244
156.804	19.275	1251.080	956.704
157.819	19.299	1250.383	956.219
158.833	19.425	1249.373	956.060
159.848	19.542	1248.650	956.071
160.862	19.533	1247.860	955.330
161.877	19.252	1246.149	952.383
162.892	19.001	1245.100	950.110
163.906	19.024	1244.408	949.624
164.921	19.115	1243.156	949.087
165.935	19.194	1242.147	948.668
166.950	19.337	1241.156	948.614
167.964	19.315	1240.652	948.026
168.979	19.189	1240.777	947.343
169.994	19.255	1239.458	946.616
171.008	19.268	1238.899	946.179
172.023	19.345	1238.059	945.873
173.037	19.390	1237.354	945.499
174.052	19.379	1236.725	944.876
175.067	19.190	1235.405	942.749
176.081	19.184	1233.370	941.080
177.096	19.022	1233.079	939.886
178.110	19.162	1231.832	939.617
179.125	19.162	1230.868	938.800
180.140	19.293	1229.191	938.149
181.154	19.314	1228.628	937.753
182.169	19.533	1227.075	937.675
183.183	19.605	1226.226	937.332
184.198	19.623	1225.325	936.659
185.213	19.618	1223.922	935.477
186.227	19.486	1223.562	934.405
187.242	19.612	1222.168	933.937
188.256	19.762	1221.344	934.034
189.271	19.823	1220.165	933.378
190.286	19.543	1219.256	931.093
191.300	19.208	1217.768	928.070
192.315	19.073	1217.339	926.934
193.329	19.050	1217.213	926.633
194.344	19.216	1216.383	926.810
195.359	19.208	1216.183	926.533
196.373	19.374	1215.510	926.833
197.388	19.451	1215.347	927.036
198.402	19.706	1214.701	927.832
199.417	19.960	1213.876	928.484
200.432	20.013	1213.330	928.265
201.446	20.078	1212.766	928.102
202.461	20.063	1212.293	927.579
203.475	20.064	1210.710	926.290
204.490	19.890	1209.604	924.434
205.504	19.697	1208.056	922.139
206.519	19.702	1207.056	921.320
207.534	19.579	1205.864	919.674
208.548	19.715	1204.837	919.532
209.563	19.740	1204.062	918.993
210.577	19.633	1203.468	917.888
211.592	19.732	1202.718	917.762
212.607	19.925	1201.931	918.104
213.621	19.881	1200.964	917.050
214.636	19.879	1200.123	916.314
215.650	19.945	1198.717	915.512
216.665	20.048	1198.167	915.552
217.680	20.152	1197.235	915.309
218.694	20.211	1196.461	914.949
219.709	20.063	1196.141	913.840
220.723	20.109	1195.132	913.231
221.738	20.101	1194.151	912.362
222.753	20.113	1193.545	911.876
223.767	20.052	1192.847	910.943
224.782	20.197	1192.233	911.158
225.796	20.226	1192.187	911.192
226.811	20.217	1191.097	910.231
227.826	20.079	1190.002	908.591
228.840	20.136	1189.072	908.099
229.855	19.979	1188.643	906.869
230.869	20.109	1187.579	906.659
231.884	20.003	1186.535	905.225
232.899	19.859	1185.872	903.887
233.913	19.756	1185.201	902.759
234.928	19.750	1184.592	902.186
235.942	19.708	1183.495	901.052
236.957	19.788	1182.607	900.711
237.972	19.690	1182.061	899.704
238.986	19.841	1181.016	899.617
240.001	19.876	1180.614	899.413
241.015	19.893	1180.107	899.032
242.030	19.960	1179.188	898.603
243.045	20.001	1178.266	898.032
244.059	20.067	1177.461	897.683
245.074	20.105	1176.956	897.415
246.088	20.200	1176.229	897.272
247.103	20.272	1175.388	896.920
248.117	20.287	1175.224	896.794
249.132	20.459	1174.270	896.874
250.147	20.688	1173.842	897.651
251.161	20.888	1173.337	898.216
252.176	20.854	1172.595	897.395
253.190	20.960	1171.761	897.222
254.205	20.898	1171.739	896.809
255.220	21.021	1170.818	896.658
256.234	20.888	1169.994	895.262
257.249	20.941	1169.443	895.032
258.263	20.994	1168.578	894.565
259.278	20.783	1168.478	893.324
260.293	20.955	1167.554	893.420
261.307	21.159	1167.150	894.078
262.322	20.987	1166.624	892.715
263.336	21.128	1165.563	892.549
264.351	21.144	1165.017	892.133
265.366	21.131	1164.356	891.479
266.380	21.127	1163.569	890.777
267.395	21.032	1162.709	889.554
268.409	20.920	1162.363	888.643
269.424	20.898	1161.166	887.538
270.439	20.868	1160.823	887.043
271.453	20.902	1159.799	886.352
272.468	20.680	1159.112	884.622
273.482	20.720	1158.039	883.927
274.497	20.779	1157.424	883.678
275.512	20.656	1157.034	882.683
276.526	20.669	1156.178	882.013
277.541	20.726	1155.219	881.495
278.555	20.914	1154.502	881.817
279.570	20.968	1154.288	881.850
280.585	21.099	1153.688	881.979
281.599	21.171	1152.145	881.086
282.614	21.113	1151.047	879.872
283.628	20.827	1150.070	877.607
284.643	20.848	1149.246	877.007
285.657	21.011	1148.124	876.894
286.672	20.922	1147.632	875.993
287.687	20.886	1146.852	875.139
288.701	20.954	1146.116	874.840
289.716	20.945	1145.376	874.153
290.730	20.945	1144.560	873.455
291.745	21.044	1143.615	873.150
292.760	21.007	1143.508	872.806
293.774	21.092	1142.966	872.739
294.789	21.332	1142.243	873.311
295.803	21.205	1141.722	872.202
296.818	21.023	1140.335	870.157
297.833	21.103	1139.767	870.046
298.847	20.981	1138.836	868.648
299.862	20.999	1138.606	868.486
300.876	21.077	1137.728	868.127
301.891	21.191	1136.658	867.802
302.906	21.391	1136.322	868.461
303.920	21.379	1135.759	867.894
304.935	21.414	1135.342	867.673
305.949	21.616	1134.601	868.030
306.964	21.574	1133.732	867.083
307.979	21.339	1133.035	865.308
308.993	21.303	1132.450	864.606
310.008	21.465	1131.706	864.763
311.022	21.654	1130.906	865.008
312.037	21.461	1130.239	863.468
313.052	21.393	1128.881	862.023
314.066	21.172	1128.177	860.319
315.081	21.086	1127.151	859.037
316.095	21.054	1126.041	857.956
317.110	20.983	1125.833	857.371
318.125	20.991	1125.014	856.714
319.139	20.987	1124.354	856.114
320.154	21.051	1123.471	855.682
321.168	20.981	1123.169	855.030
322.183	21.121	1122.359	855.026
323.197	21.187	1122.186	855.139
324.212	21.182	1121.253	854.328
325.227	21.167	1120.859	853.883
326.241	21.186	1120.420	853.564
327.256	21.121	1119.151	852.205
328.270	21.204	1117.860	851.549
329.285	21.133	1117.291	850.695
330.300	21.097	1116.162	849.585
331.314	21.183	1115.303	849.276
332.329	21.244	1114.325	848.751
333.343	21.220	1113.996	848.308
334.358	21.431	1112.854	848.389
335.373	21.431	1112.632	848.144
336.387	21.404	1112.176	847.588
337.402	21.548	1110.653	847.050
338.416	21.504	1110.571	846.701
339.431	21.589	1109.942	846.556
340.446	21.661	1109.351	846.382
341.460	21.951	1108.723	847.228
342.475	21.960	1108.091	846.711
343.489	21.922	1107.095	845.694
344.504	22.034	1105.987	845.310
345.519	22.049	1105.641	845.046
346.533	22.167	1104.950	845.006
347.548	22.098	1104.300	844.106
348.562	21.998	1103.732	843.115
349.577	21.863	1102.300	841.302
350.592	21.758	1101.014	839.739
351.606	21.635	1100.303	838.537
352.621	21.534	1099.739	837.550
353.635	21.536	1099.182	837.057
354.650	21.596	1098.246	836.557
355.665	21.755	1097.420	836.618
356.679	21.796	1096.674	836.170
357.694	21.665	1096.932	835.665
358.708	21.881	1095.856	835.801
359.723	21.837	1095.396	835.165
360.738	21.871	1094.943	834.910
361.752	22.012	1093.609	834.487
362.767	21.898	1093.497	833.789
363.781	22.049	1092.619	833.763
364.796	22.144	1092.672	834.181
365.810	22.151	1092.558	834.051
366.825	22.238	1091.945	833.921
367.840	22.364	1090.968	833.697
368.854	22.471	1090.441	833.731
369.869	22.397	1089.857	832.859
370.883	22.297	1088.899	831.582
371.898	22.256	1087.935	830.576
372.913	22.233	1087.301	829.913
373.927	22.162	1086.813	829.132
374.942	22.389	1086.568	829.942
375.956	22.325	1086.100	829.206
376.971	22.255	1085.006	827.970
377.986	22.421	1084.396	828.214
379.000	22.599	1083.816	828.534
380.015	22.543	1083.939	828.292
381.029	22.616	1083.142	827.948
382.044	22.647	1082.288	827.367
383.059	22.626	1081.395	826.515
384.073	22.553	1080.458	825.381
385.088	22.607	1079.766	825.035
386.102	22.742	1079.070	825.060
387.117	22.565	1077.308	822.813
388.132	22.261	1076.381	820.618
389.146	22.314	1075.779	820.331
390.161	22.240	1075.689	819.844
391.175	22.345	1074.623	819.449
392.190	22.421	1074.125	819.349
393.205	22.590	1072.858	819.096
394.219	22.510	1072.307	818.233
395.234	22.361	1071.529	816.876
396.248	22.355	1070.468	815.967
397.263	22.290	1069.514	814.867
398.278	22.213	1068.604	813.742
399.292	22.110	1067.799	812.581
400.307	22.062	1066.879	811.589
401.321	22.169	1066.382	811.633
402.336	22.191	1065.631	811.089
403.350	22.100	1065.231	810.294
404.365	22.185	1064.560	810.102
405.380	22.392	1063.413	810.115
406.394	22.286	1063.325	809.487
407.409	22.489	1062.558	809.764
408.423	22.703	1061.797	810.096
409.438	22.858	1060.808	809.981
410.453	22.767	1060.664	809.383
411.467	22.757	1060.008	808.763
412.482	22.945	1059.061	808.828
413.496	22.969	1058.501	808.441
414.511	22.956	1058.449	808.270
415.526	23.157	1057.923	808.717
416.540	23.082	1057.420	807.917
417.555	23.107	1056.591	807.326
418.569	22.833	1056.048	805.589
419.584	22.986	1055.285	805.633
420.599	23.026	1055.039	805.556
421.613	154.800	1400.234	1790.768
422.628	142.216	1450.516	1790.882
