DTS Sentinel unit serial number:	SN413079Multiplexer serial number:	ORYXHardware model number:	OX4-SRSoftware version number:	ORYX F/W v4.00 Oryx Data Collector v3.7.2.0data status	okinstallation	princeton_trtdifferential loss correction	single-endedforward channel	channel 2reverse channel	N/Adate	2019/09/12time	02:49:11forward acquisition time	60.00reverse acquisition time	0.00gamma	496.2192k internal	0.2326k external	0.2326temperature offset calibration	1.0091default loss term (dB/km)	0.3790temperature slope calibration	1.0000multiplexer offset coefficient	1.0000multiplexer slope coefficient	1.0000fibre end	0.00T internal ref (°C)	32.36T ext. ref 1 (°C)	2.11T ext. ref 2 (°C)	26.89length (m)	temperature (°C)	Stokes	anti-Stokes-747.200	-146.994	0.139	-0.012
-746.185	-109.774	0.403	-0.085
-745.171	109.023	-0.125	0.150
-744.156	-46.301	-0.205	0.102
-743.142	68.986	-0.309	0.320
-742.127	-120.877	-0.377	0.064
-741.112	800.000	0.022	0.089
-740.098	800.000	-0.085	0.330
-739.083	99.378	0.187	0.218
-738.069	800.000	0.094	0.301
-737.054	-53.809	-0.118	0.054
-736.039	-117.057	-0.313	-0.057
-735.025	10.563	-0.238	0.183
-734.010	-141.851	-0.299	-0.030
-732.996	-59.540	-0.281	0.122
-731.981	242.836	0.170	0.287
-730.966	530.962	0.051	-0.121
-729.952	112.444	-0.186	-0.227
-728.937	-200.000	-0.030	-0.186
-727.923	-200.000	0.002	-0.154
-726.908	-43.536	0.101	-0.051
-725.894	-18.058	0.086	0.054
-724.879	-52.056	-0.076	0.036
-723.864	266.331	-0.241	0.425
-722.850	59.060	-0.169	0.168
-721.835	70.039	-0.142	-0.148
-720.821	126.541	-0.142	-0.181
-719.806	-55.112	-0.353	-0.160
-718.791	-64.913	-0.090	-0.037
-717.777	-197.607	0.089	0.001
-716.762	121.046	0.301	-0.378
-715.748	91.160	-0.224	-0.254
-714.733	-200.000	0.007	-0.124
-713.718	750.234	0.101	-0.274
-712.704	68.409	0.219	0.226
-711.689	-105.397	0.102	0.023
-710.675	-132.002	-0.291	-0.038
-709.660	-63.221	-0.181	-0.075
-708.645	-8.995	-0.054	-0.037
-707.631	-158.121	0.184	-0.011
-706.616	800.000	0.063	-0.175
-705.602	62.535	0.331	0.333
-704.587	-200.000	0.009	-0.222
-703.572	45.765	0.109	-0.101
-702.558	-200.000	0.007	-0.208
-701.543	23.831	-0.113	-0.094
-700.529	-200.000	0.043	0.315
-699.514	127.569	-0.208	0.266
-698.499	-133.998	0.132	0.016
-697.485	-31.832	0.115	0.065
-696.470	250.083	0.109	-0.186
-695.456	-14.335	-0.109	-0.071
-694.441	-82.182	-0.347	0.114
-693.426	800.000	0.088	-0.316
-692.412	-70.224	-0.325	-0.124
-691.397	-157.877	-0.200	-0.012
-690.383	-123.647	0.105	0.017
-689.368	789.131	0.041	0.113
-688.354	-79.640	0.260	-0.088
-687.339	-105.268	0.271	0.062
-686.324	-54.405	0.049	-0.023
-685.310	175.228	0.074	-0.108
-684.295	180.093	0.091	-0.134
-683.281	412.080	-0.115	0.245
-682.266	-102.100	-0.129	-0.031
-681.251	0.848	0.134	-0.096
-680.237	432.897	-0.087	-0.190
-679.222	100.138	0.185	-0.216
-678.208	351.478	0.164	-0.326
-677.193	800.000	0.038	-0.143
-676.178	-0.932	-0.281	-0.200
-675.164	-38.145	0.079	0.042
-674.149	800.000	0.091	0.255
-673.135	-110.343	-0.089	-0.019
-672.120	-56.685	0.050	-0.022
-671.105	-171.986	-0.724	-0.024
-670.091	67.200	-0.224	0.229
-669.076	-200.000	-0.020	-0.365
-668.062	-200.000	0.014	-0.349
-667.047	-149.374	0.148	0.012
-666.032	-200.000	0.020	0.289
-665.018	188.201	-0.095	0.143
-664.003	-143.033	-0.227	0.022
-662.989	163.024	-0.077	0.109
-661.974	-61.965	-0.077	0.032
-660.959	-200.000	-0.044	0.367
-659.945	406.162	-0.167	-0.354
-658.930	-154.470	-0.252	-0.017
-657.916	-25.326	0.219	0.130
-656.901	184.647	-0.119	0.178
-655.886	-26.949	-0.212	0.125
-654.872	532.123	-0.136	-0.324
-653.857	120.801	-0.229	-0.286
-652.843	-63.813	-0.219	-0.090
-651.828	123.298	0.012	-0.015
-650.814	-146.231	-0.061	-0.005
-649.799	11.341	0.094	0.072
-648.784	-200.000	0.030	0.354
-647.770	-200.000	-0.015	0.245
-646.755	57.745	0.049	-0.048
-645.741	-26.934	-0.339	-0.199
-644.726	-183.494	-0.305	0.005
-643.711	-200.000	0.066	0.343
-642.697	173.245	-0.111	0.161
-641.682	-47.882	-0.140	0.068
-640.668	800.000	0.042	0.150
-639.653	12.786	-0.042	0.033
-638.638	-77.911	-0.282	0.098
-637.624	-200.000	-0.051	-0.353
-636.609	800.000	0.092	0.375
-635.595	-200.000	0.002	-0.014
-634.580	424.328	0.061	0.132
-633.565	513.950	-0.096	-0.226
-632.551	-200.000	-0.080	0.545
-631.536	-131.630	0.272	-0.036
-630.522	26.392	0.144	-0.121
-629.507	800.000	-0.035	-0.129
-628.492	35.229	-0.233	0.205
-627.478	-200.000	-0.038	0.222
-626.463	-17.864	0.356	-0.224
-625.449	-200.000	0.034	0.268
-624.434	-103.668	-0.233	-0.055
-623.419	-200.000	0.025	-0.117
-622.405	800.000	-0.036	0.104
-621.390	-200.000	0.021	0.114
-620.376	800.000	-0.059	0.196
-619.361	420.951	-0.148	0.317
-618.346	-150.392	0.180	0.014
-617.332	800.000	-0.114	-0.417
-616.317	-57.633	-0.163	0.072
-615.303	90.704	-0.321	-0.360
-614.288	-200.000	-0.035	-0.326
-613.273	573.365	0.041	0.101
-612.259	-1.793	-0.263	0.186
-611.244	77.083	0.207	-0.220
-610.230	800.000	0.173	-0.505
-609.215	586.926	0.024	-0.058
-608.201	1.688	0.244	0.176
-607.186	5.490	0.317	0.235
-606.171	159.854	-0.127	-0.177
-605.157	-15.055	0.038	-0.024
-604.142	7.207	-0.344	-0.258
-603.128	293.892	0.126	0.232
-602.113	-113.582	-0.230	-0.045
-601.098	-102.901	0.171	0.041
-600.084	34.989	0.218	0.191
-599.069	-63.520	0.250	-0.103
-598.055	800.000	0.028	0.083
-597.040	47.348	-0.148	-0.138
-596.025	-200.000	-0.016	-0.176
-595.011	-12.231	-0.264	0.173
-593.996	-200.000	0.008	0.115
-592.982	-200.000	-0.008	0.264
-591.967	-85.210	-0.271	-0.085
-590.952	607.309	0.030	-0.075
-589.938	-86.905	-0.292	0.089
-588.923	492.484	-0.045	0.103
-587.909	92.898	0.332	-0.375
-586.894	-129.239	0.041	-0.006
-585.879	-200.000	0.014	0.133
-584.865	119.898	0.224	0.278
-583.850	-18.606	-0.109	0.068
-582.836	-41.812	0.120	-0.062
-581.821	-51.953	0.110	-0.051
-580.806	-164.988	-0.372	-0.017
-579.792	-200.000	-0.002	-0.047
-578.777	-149.188	0.404	-0.032
-577.763	634.145	0.094	-0.239
-576.748	-52.065	-0.337	-0.157
-575.733	103.717	0.132	-0.156
-574.719	-200.000	0.018	-0.417
-573.704	800.000	-0.109	-0.402
-572.690	-200.000	-0.032	-0.258
-571.675	-200.000	0.019	0.196
-570.661	-166.968	-0.156	0.006
-569.646	-162.337	-0.118	0.006
-568.631	-88.022	0.219	0.066
-567.617	-200.000	-0.017	-0.080
-566.602	-144.153	-0.239	-0.022
-565.588	-13.221	0.092	-0.060
-564.573	-64.819	-0.380	0.154
-563.558	-42.774	-0.445	-0.227
-562.544	56.585	0.243	0.237
-561.529	107.450	0.119	0.141
-560.515	111.151	0.109	-0.132
-559.500	153.285	0.125	0.171
-558.485	298.269	-0.037	-0.068
-557.471	17.255	-0.210	0.167
-556.456	-106.740	-0.146	0.033
-555.442	60.561	-0.216	0.215
-554.427	-200.000	0.105	0.653
-553.412	-48.036	0.178	0.086
-552.398	106.128	0.142	0.169
-551.383	-156.729	-0.034	-0.002
-550.369	-54.091	-0.156	0.071
-549.354	284.682	0.084	-0.151
-548.339	-106.419	-0.174	-0.039
-547.325	15.114	-0.042	-0.033
-546.310	-75.277	-0.061	0.022
-545.296	800.000	-0.050	-0.198
-544.281	-53.559	0.205	0.094
-543.266	-200.000	-0.036	-0.232
-542.252	153.510	0.282	0.387
-541.237	-55.805	0.100	-0.045
-540.223	523.434	0.095	-0.224
-539.208	108.003	0.169	0.201
-538.193	-200.000	0.001	-0.372
-537.179	-125.903	-0.105	-0.016
-536.164	-48.383	-0.081	0.039
-535.150	240.206	-0.077	-0.128
-534.135	-123.912	-0.565	-0.089
-533.121	-105.637	0.097	0.022
-532.106	1.832	0.463	0.334
-531.091	279.108	-0.170	-0.303
-530.077	25.340	0.296	-0.246
-529.062	24.447	-0.197	-0.163
-528.048	169.300	0.134	-0.191
-527.033	95.122	0.145	-0.165
-526.018	89.496	-0.174	0.194
-525.004	-70.004	0.365	0.139
-523.989	800.000	0.049	-0.144
-522.975	24.196	0.287	-0.237
-521.960	140.264	0.131	-0.172
-520.945	28.291	0.161	0.136
-519.931	800.000	-0.035	-0.101
-518.916	45.012	-0.498	-0.458
-517.902	234.164	0.033	0.054
-516.887	61.351	-0.086	-0.086
-515.872	312.476	-0.049	0.092
-514.858	-146.372	-0.347	-0.030
-513.843	-4.232	0.147	-0.101
-512.829	-119.438	0.413	-0.072
-511.814	-34.011	-0.228	0.126
-510.799	11.812	0.206	-0.158
-509.785	165.209	-0.311	0.439
-508.770	-200.000	0.004	0.028
-507.756	-200.000	-0.020	0.176
-506.741	653.322	-0.056	-0.144
-505.726	-160.931	0.200	-0.011
-504.712	417.819	-0.104	-0.221
-503.697	499.644	0.157	0.362
-502.683	52.886	0.251	0.240
-501.668	-63.149	-0.321	-0.132
-500.653	717.146	-0.141	0.374
-499.639	256.398	0.078	0.134
-498.624	214.215	-0.065	0.103
-497.610	-198.610	0.290	0.002
-496.595	213.802	-0.095	0.151
-495.581	-159.669	-0.091	0.005
-494.566	-62.293	-0.176	0.073
-493.551	-62.334	-0.276	-0.115
-492.537	-93.558	-0.256	-0.071
-491.522	-200.000	-0.018	-0.186
-490.508	800.000	0.010	-0.039
-489.493	-160.382	-0.185	-0.010
-488.478	276.151	-0.137	0.242
-487.464	387.591	0.027	-0.055
-486.449	-0.119	0.293	-0.208
-485.435	152.812	0.075	0.102
-484.420	-15.253	0.260	-0.166
-483.405	50.976	0.114	-0.108
-482.391	800.000	0.043	-0.123
-481.376	-17.121	0.170	-0.107
-480.362	498.108	-0.078	-0.180
-479.347	39.219	-0.190	-0.170
-478.332	-139.462	-0.246	-0.026
-477.318	138.609	0.062	-0.081
-476.303	-200.000	-0.012	0.250
-475.289	-153.672	-0.112	0.008
-474.274	-200.000	-0.007	-0.171
-473.259	208.841	0.203	-0.316
-472.245	800.000	-0.108	0.343
-471.230	25.191	-0.124	0.103
-470.216	-40.247	-0.368	0.191
-469.201	60.480	-0.254	0.251
-468.186	744.467	0.063	0.168
-467.172	84.791	0.192	0.209
-466.157	-150.104	0.054	-0.004
-465.143	96.225	0.072	-0.082
-464.128	-66.286	0.180	0.072
-463.113	-87.598	-0.331	-0.100
-462.099	-16.965	0.103	-0.065
-461.084	25.904	-0.150	0.125
-460.070	118.334	-0.183	0.225
-459.055	44.234	0.212	-0.194
-458.040	481.028	-0.195	-0.442
-457.026	192.563	0.167	0.251
-456.011	163.465	-0.162	0.227
-454.997	-200.000	0.014	0.153
-453.982	-200.000	-0.045	-0.348
-452.968	-200.000	0.003	-0.099
-451.953	23.430	-0.047	0.039
-450.938	-43.655	0.272	0.137
-449.924	-64.859	0.271	-0.109
-448.909	694.347	0.039	0.103
-447.895	348.626	0.246	-0.484
-446.880	-160.396	0.230	-0.012
-445.865	-200.000	-0.014	0.361
-444.851	-118.292	-0.040	0.007
-443.836	-102.832	0.112	-0.026
-442.822	23.101	0.264	-0.216
-441.807	-200.000	0.022	-0.182
-440.792	320.483	-0.241	-0.455
-439.778	0.949	0.089	0.064
-438.763	182.790	-0.079	-0.116
-437.749	-29.389	0.151	0.086
-436.734	48.214	-0.170	-0.159
-435.719	158.569	-0.066	0.092
-434.705	-65.303	0.326	-0.131
-433.690	-200.000	-0.067	-0.323
-432.676	63.694	0.217	0.217
-431.661	-185.932	0.128	0.002
-430.646	720.551	-0.111	-0.295
-429.632	25.559	-0.167	0.138
-428.617	214.407	-0.115	0.181
-427.603	185.948	0.075	-0.111
-426.588	182.492	0.080	-0.117
-425.573	625.968	0.027	-0.067
-424.559	37.679	0.231	-0.204
-423.544	800.000	0.068	0.207
-422.530	-158.834	-0.136	0.008
-421.515	-56.786	0.179	0.079
-420.500	-69.153	-0.206	0.079
-419.486	182.715	-0.074	0.108
-418.471	-25.185	-0.262	-0.155
-417.457	2.269	0.305	0.219
-416.442	-32.945	-0.257	0.142
-415.428	156.364	-0.112	-0.153
-414.413	77.189	-0.148	0.157
-413.398	-128.967	0.105	0.015
-412.384	-167.813	0.435	-0.017
-411.369	-200.000	0.009	0.203
-410.355	179.079	-0.155	-0.226
-409.340	-200.000	0.061	0.427
-408.325	157.759	-0.046	-0.063
-407.311	97.665	-0.167	0.191
-406.296	-200.000	0.023	-0.315
-405.282	-150.241	-0.311	-0.024
-404.267	-175.501	0.225	0.006
-403.252	-144.648	-0.067	-0.006
-402.238	800.000	0.065	-0.245
-401.223	246.562	0.268	-0.450
-400.209	125.753	0.033	-0.042
-399.194	29.003	0.305	0.257
-398.179	800.000	0.096	0.265
-397.165	-168.059	0.296	-0.011
-396.150	-200.000	-0.005	0.072
-395.136	-200.000	0.016	-0.079
-394.121	-200.000	0.046	-0.263
-393.106	-78.703	-0.204	0.069
-392.092	240.472	-0.068	0.112
-391.077	-67.774	-0.275	0.107
-390.063	-166.016	-0.098	-0.004
-389.048	800.000	-0.062	-0.184
-388.033	-200.000	0.015	-0.150
-387.019	126.331	-0.210	-0.265
-386.004	17.985	0.158	0.125
-384.990	-179.023	0.124	0.003
-383.975	-31.071	-0.100	0.056
-382.960	116.362	0.184	0.224
-381.946	-14.111	0.046	-0.030
-380.931	3.896	-0.098	-0.071
-379.917	105.532	-0.076	-0.089
-378.902	-14.917	-0.126	-0.081
-377.888	22.671	-0.407	-0.331
-376.873	800.000	0.046	-0.168
-375.858	-74.280	-0.065	-0.023
-374.844	800.000	0.016	-0.046
-373.829	-104.469	0.229	-0.053
-372.815	23.592	-0.189	0.154
-371.800	69.194	-0.196	0.201
-370.785	215.211	0.120	0.189
-369.771	435.710	0.021	0.045
-368.756	383.332	-0.047	-0.096
-367.742	-86.367	-0.148	0.045
-366.727	800.000	0.026	0.088
-365.712	-170.529	-0.112	-0.004
-364.698	12.409	-0.244	0.187
-363.683	-76.813	0.085	0.030
-362.669	-165.303	0.159	0.007
-361.654	-126.795	0.144	-0.021
-360.639	188.693	0.002	-0.003
-359.625	-90.621	0.216	-0.062
-358.610	-164.201	-0.267	-0.012
-357.596	-196.076	0.299	0.002
-356.581	-14.261	0.188	0.120
-355.566	-84.035	0.098	0.031
-354.552	-38.093	-0.223	0.118
-353.537	-97.632	0.280	-0.072
-352.523	464.749	0.067	-0.148
-351.508	-82.479	-0.519	0.167
-350.493	-130.211	0.241	-0.033
-349.479	6.516	0.094	0.069
-348.464	-63.745	0.245	0.100
-347.450	568.858	-0.050	-0.120
-346.435	-124.216	0.469	0.073
-345.420	61.116	0.181	-0.178
-344.406	-200.000	-0.047	-0.415
-343.391	-7.737	0.179	0.120
-342.377	413.291	0.157	-0.331
-341.362	264.140	0.130	-0.224
-340.348	-71.409	-0.115	0.043
-339.333	507.473	-0.016	0.037
-338.318	-17.448	-0.046	-0.029
-337.304	-200.000	0.081	0.469
-336.289	-28.146	0.142	-0.082
-335.275	343.953	-0.150	0.292
-334.260	96.031	0.057	-0.064
-333.245	-66.242	0.303	0.120
-332.231	315.963	0.198	-0.371
-331.216	554.819	0.077	-0.183
-330.202	-184.375	-0.085	-0.001
-329.187	-200.000	0.006	0.168
-328.172	70.429	-0.296	-0.304
-327.158	161.953	-0.120	-0.167
-326.143	-26.484	0.081	0.047
-325.129	-200.000	-0.007	0.132
-324.114	15.568	0.234	-0.182
-323.099	-127.194	0.131	-0.019
-322.085	-200.000	-0.038	0.200
-321.070	-118.728	-0.280	0.049
-320.056	757.310	0.122	0.327
-319.041	800.000	0.085	0.316
-318.026	-17.904	0.071	-0.044
-317.012	105.463	0.090	0.105
-315.997	-109.468	0.134	-0.028
-314.983	-74.489	-0.335	-0.120
-313.968	480.272	-0.006	-0.014
-312.953	-33.108	-0.172	-0.094
-311.939	800.000	-0.033	-0.112
-310.924	-63.933	0.113	0.046
-309.910	-12.903	0.216	0.139
-308.895	-200.000	-0.037	0.212
-307.880	-200.000	-0.033	-0.209
-306.866	150.300	-0.127	-0.171
-305.851	-137.140	0.348	-0.039
-304.837	-168.982	-0.364	-0.014
-303.822	-160.468	0.390	0.021
-302.807	81.662	0.249	0.267
-301.793	-116.032	-0.024	-0.004
-300.778	800.000	-0.063	0.272
-299.764	30.793	-0.148	-0.125
-298.749	458.623	0.063	-0.139
-297.735	-98.854	0.440	0.111
-296.720	-88.934	0.116	-0.034
-295.705	-22.342	0.127	0.076
-294.691	30.506	-0.138	0.117
-293.676	273.065	0.143	0.251
-292.662	1.642	0.212	-0.151
-291.647	-148.377	-0.256	-0.021
-290.632	-200.000	-0.065	-0.424
-289.618	17.946	0.182	-0.144
-288.603	-14.847	-0.033	0.021
-287.589	-137.350	-0.164	-0.018
-286.574	-200.000	0.088	-0.431
-285.559	725.244	0.051	-0.134
-284.545	-200.000	0.001	-0.238
-283.530	-59.168	0.076	0.032
-282.516	-200.000	-0.010	-0.175
-281.501	108.250	0.127	0.150
-280.486	-200.000	-0.054	0.259
-279.472	-76.842	-0.264	-0.091
-278.457	-200.000	-0.003	-0.067
-277.443	-19.055	-0.248	0.152
-276.428	-48.245	-0.192	-0.092
-275.413	31.059	-0.249	0.211
-274.399	104.471	0.306	0.357
-273.384	264.137	0.087	-0.149
-272.370	400.120	0.136	-0.283
-271.355	-28.738	0.214	0.122
-270.340	-190.420	-0.096	-0.001
-269.326	37.405	0.185	0.162
-268.311	-191.148	-0.189	-0.002
-267.297	800.000	-0.058	0.234
-266.282	-104.653	-0.288	-0.066
-265.267	-183.048	-0.166	0.003
-264.253	759.271	-0.094	-0.252
-263.238	180.873	-0.155	0.225
-262.224	-200.000	-0.029	-0.323
-261.209	712.969	-0.032	0.084
-260.195	-47.036	0.189	0.091
-259.180	800.000	-0.073	0.227
-258.165	209.609	-0.213	0.330
-257.151	-155.274	0.233	-0.015
-256.136	-64.343	0.185	0.075
-255.122	146.400	0.162	-0.215
-254.107	-105.623	0.157	-0.035
-253.092	-43.566	-0.045	-0.023
-252.078	108.994	0.232	-0.274
-251.063	104.150	-0.074	-0.086
-250.049	-42.604	-0.387	-0.195
-249.034	83.634	-0.133	0.144
-248.019	-151.105	0.194	-0.014
-247.005	13.394	-0.306	-0.235
-245.990	121.454	-0.235	0.289
-244.976	-200.000	0.011	0.128
-243.961	-118.000	-0.145	0.026
-242.946	193.766	-0.118	0.176
-241.932	195.785	-0.069	0.104
-240.917	800.000	-0.061	-0.217
-239.903	-50.316	-0.420	-0.196
-238.888	-130.840	0.444	0.059
-237.873	-34.698	-0.383	-0.207
-236.859	800.000	0.072	-0.280
-235.844	800.000	0.043	-0.136
-234.830	477.849	0.106	0.238
-233.815	-152.052	-0.105	-0.008
-232.800	359.208	0.201	0.396
-231.786	-157.966	-0.211	-0.012
-230.771	73.042	-0.030	0.031
-229.757	800.000	-0.038	0.129
-228.742	-139.144	-0.290	-0.031
-227.727	-30.728	0.213	0.119
-226.713	2.825	-0.087	0.063
-225.698	231.995	0.044	-0.071
-224.684	-27.456	-0.086	-0.049
-223.669	-7.598	-0.488	-0.326
-222.655	-49.720	0.112	-0.052
-221.640	-200.000	-0.027	0.248
-220.625	83.174	0.168	-0.180
-219.611	355.544	0.098	0.193
-218.596	-200.000	-0.041	0.218
-217.582	264.583	0.173	-0.297
-216.567	-200.000	0.040	-0.225
-215.552	-200.000	-0.024	-0.307
-214.538	119.313	0.229	-0.280
-213.523	96.551	0.075	0.084
-212.509	-40.402	-0.187	0.096
-211.494	-137.780	0.097	-0.011
-210.479	-99.813	-0.260	-0.064
-209.465	-125.605	-0.198	-0.030
-208.450	-26.014	0.382	-0.222
-207.436	361.034	0.079	0.157
-206.421	32.276	-0.153	0.130
-205.406	153.584	0.073	0.098
-204.392	129.569	-0.168	0.212
-203.377	28.775	0.177	-0.148
-202.363	-25.500	0.264	-0.154
-201.348	66.041	0.070	0.070
-200.333	84.132	-0.039	0.042
-199.319	86.206	-0.186	0.202
-198.304	-200.000	-0.017	0.174
-197.290	606.864	0.059	0.145
-196.275	-71.677	-0.056	-0.021
-195.260	-200.000	-0.039	0.193
-194.246	800.000	0.035	-0.115
-193.231	466.104	-0.082	0.182
-192.217	93.239	0.055	0.061
-191.202	-49.189	0.042	-0.020
-190.187	-120.287	-0.251	-0.042
-189.173	680.367	0.215	0.553
-188.158	666.936	0.051	-0.130
-187.144	-45.188	-0.044	-0.022
-186.129	-50.501	-0.429	-0.200
-185.114	-68.669	0.239	0.091
-184.100	343.215	-0.115	0.223
-183.085	-200.000	0.049	0.327
-182.071	9.691	-0.156	-0.117
-181.056	800.000	-0.069	-0.240
-180.042	-33.697	0.281	0.153
-179.027	-50.131	-0.081	-0.038
-178.012	-200.000	0.023	0.114
-176.998	128.705	0.223	-0.280
-175.983	-200.000	0.001	-0.048
-174.969	-200.000	-0.051	0.316
-173.954	381.781	0.132	0.267
-172.939	52.287	-0.159	0.150
-171.925	142.140	-0.152	-0.199
-170.910	47.688	0.352	0.324
-169.896	19.946	-0.083	0.066
-168.881	800.000	0.052	-0.209
-167.866	-59.158	-0.097	0.041
-166.852	-200.000	-0.001	-0.281
-165.837	272.142	0.230	0.400
-164.823	-168.785	0.195	-0.007
-163.808	5.408	-0.055	0.040
-162.793	-138.028	0.015	0.002
-161.779	471.863	0.034	0.076
-160.764	351.129	0.101	-0.196
-159.750	140.426	0.156	-0.204
-158.735	-106.432	0.131	0.029
-157.720	51.434	-0.286	-0.268
-156.706	27.594	0.212	0.176
-155.691	800.000	0.006	-0.022
-154.677	-53.559	-0.302	-0.136
-153.662	132.853	-0.098	0.124
-152.647	-200.000	0.030	0.144
-151.633	-70.154	-0.119	0.044
-150.618	-84.628	-0.169	0.052
-149.604	800.000	0.131	0.362
-148.589	118.168	-0.162	0.197
-147.574	-200.000	-0.030	-0.144
-146.560	-70.397	-0.211	0.079
-145.545	-133.551	0.214	0.026
-144.531	78.838	0.115	0.121
-143.516	41.748	0.212	0.189
-142.502	106.711	-0.164	-0.191
-141.487	138.536	-0.148	-0.191
-140.472	-123.490	0.266	0.042
-139.458	25.541	0.370	0.303
-138.443	800.000	-0.056	0.168
-137.429	-124.333	0.350	-0.054
-136.414	283.483	-0.123	-0.218
-135.399	302.981	0.088	-0.160
-134.385	-110.364	-0.236	-0.048
-133.370	800.000	0.078	-0.258
-132.356	-75.955	0.387	0.135
-131.341	800.000	-0.042	-0.153
-130.326	290.368	0.162	0.290
-129.312	521.947	-0.102	0.237
-128.297	-104.802	-0.163	0.037
-127.283	800.000	0.057	0.199
-126.268	744.013	0.050	-0.131
-125.253	163.517	0.227	0.314
-124.239	-133.883	-0.121	-0.015
-123.224	446.695	0.059	-0.128
-122.210	57.235	-0.337	-0.323
-121.195	-200.000	-0.079	0.560
-120.180	-89.291	0.162	0.047
-119.166	-200.000	-0.027	-0.136
-118.151	-74.539	-0.080	0.028
-117.137	-200.000	-0.003	0.049
-116.122	52.393	-0.216	0.203
-115.107	-119.611	0.290	-0.049
-114.093	-200.000	-0.023	0.188
-113.078	-65.006	0.277	0.110
-112.064	56.260	-0.362	-0.346
-111.049	-36.841	0.347	0.183
-110.034	-57.931	-0.376	0.161
-109.020	55.361	-0.069	0.065
-108.005	-79.208	0.119	0.040
-106.991	53.261	0.269	0.253
-105.976	800.000	0.130	0.378
-104.962	-200.000	0.037	0.261
-103.947	-30.590	-0.198	0.110
-102.932	232.975	0.064	0.103
-101.918	11.861	-0.204	0.155
-100.903	425.348	0.051	-0.108
-99.889	-200.000	0.028	0.193
-98.874	-200.000	0.024	-0.252
-97.859	-127.921	-0.142	0.020
-96.845	-93.166	0.283	0.077
-95.830	-83.063	-0.240	0.076
-94.816	-200.000	-0.001	-0.169
-93.801	133.639	-0.169	0.215
-92.786	-200.000	-0.015	0.142
-91.772	680.608	-0.142	0.363
-90.757	127.200	0.128	0.160
-89.743	-75.529	-0.400	-0.140
-88.728	-141.284	0.122	-0.012
-87.713	-61.371	0.272	0.113
-86.699	-200.000	0.009	-0.328
-85.684	126.275	0.116	-0.145
-84.670	-112.165	0.262	-0.052
-83.655	800.000	0.045	-0.183
-82.640	211.413	-0.034	0.053
-81.626	508.208	0.099	0.226
-80.611	-90.086	-0.109	0.031
-79.597	428.451	0.190	0.403
-78.582	-200.000	-0.006	-0.036
-77.567	-195.182	-0.461	-0.003
-76.553	306.311	0.129	-0.235
-75.538	800.000	0.030	-0.122
-74.524	-123.202	0.094	0.015
-73.509	800.000	0.093	0.371
-72.494	-200.000	0.070	0.351
-71.480	223.860	-0.173	-0.275
-70.465	94.270	-0.198	0.221
-69.451	2.526	-0.183	-0.130
-68.436	394.382	-0.143	0.292
-67.422	314.249	-0.040	-0.074
-66.407	7.874	-0.085	-0.063
-65.392	414.027	-0.088	-0.184
-64.378	-122.135	-0.068	0.011
-63.363	-126.824	0.135	0.020
-62.349	-136.870	0.275	-0.031
-61.334	83.105	-0.752	-0.804
-60.319	0.784	0.397	0.279
-59.305	800.000	-0.250	-1.053
-58.290	381.358	0.619	1.248
-57.276	800.000	0.443	1.564
-56.261	-200.000	95.633	590.013
-55.246	569.269	1366.713	3261.817
-54.232	162.233	2548.341	3506.397
-53.217	107.398	2262.306	2641.273
-52.203	41.810	1890.910	1682.624
-51.188	35.656	1681.173	1449.695
-50.173	32.939	1637.027	1391.577
-49.159	50.311	1683.341	1561.064
-48.144	51.833	1700.082	1587.889
-47.130	35.233	1660.970	1428.892
-46.115	32.471	1646.584	1396.011
-45.100	32.292	1641.642	1390.446
-44.086	32.383	1638.513	1388.407
-43.071	32.255	1636.197	1385.449
-42.057	32.290	1633.836	1383.651
-41.042	32.268	1632.029	1381.906
-40.027	32.249	1630.417	1380.346
-39.013	32.231	1628.344	1378.401
-37.998	32.194	1626.791	1376.762
-36.984	32.345	1625.416	1376.648
-35.969	32.314	1624.215	1375.352
-34.954	32.428	1622.233	1374.453
-33.940	32.309	1620.584	1372.131
-32.925	32.354	1618.677	1370.790
-31.911	32.362	1616.645	1369.077
-30.896	32.304	1615.570	1367.684
-29.881	32.320	1613.612	1366.090
-28.867	32.333	1612.200	1364.938
-27.852	32.265	1610.536	1362.981
-26.838	32.281	1609.603	1362.250
-25.823	32.335	1607.535	1360.837
-24.809	32.352	1606.161	1359.747
-23.794	32.349	1604.904	1358.605
-22.779	32.385	1603.241	1357.401
-21.765	32.360	1602.077	1356.187
-20.750	32.316	1600.650	1354.604
-19.736	32.347	1598.665	1353.091
-18.721	32.441	1597.310	1352.568
-17.706	32.386	1596.341	1351.298
-16.692	32.404	1594.372	1349.709
-15.677	32.387	1593.031	1348.398
-14.663	32.449	1591.821	1347.766
-13.648	32.456	1590.626	1346.752
-12.633	32.439	1588.649	1344.897
-11.619	32.456	1586.967	1343.543
-10.604	32.457	1585.506	1342.261
-9.590	32.356	1584.875	1340.957
-8.575	32.478	1583.282	1340.425
-7.560	32.423	1581.575	1338.535
-6.546	32.451	1580.818	1338.041
-5.531	32.407	1580.093	1337.061
-4.517	32.370	1578.427	1335.332
-3.502	32.442	1577.259	1334.803
-2.487	32.530	1575.187	1333.623
-1.473	32.146	1564.381	1321.717
-0.458	29.402	1545.104	1286.278
0.556	26.521	1545.303	1256.836
1.571	24.104	1569.761	1259.538
2.586	23.580	1583.170	1266.450
3.600	21.018	1530.147	1206.226
4.615	11.954	1420.384	1061.138
5.629	3.682	1355.069	960.955
6.644	2.240	1346.144	945.628
7.659	2.203	1344.908	944.446
8.673	1.985	1344.397	942.658
9.688	2.002	1342.225	941.153
10.702	1.725	1339.075	937.156
11.717	5.322	1346.442	964.459
12.731	15.470	1365.022	1040.897
13.746	23.961	1379.314	1104.665
14.761	26.091	1382.763	1120.578
15.775	26.551	1382.167	1122.845
16.790	26.584	1381.716	1122.585
17.804	26.675	1381.033	1122.493
18.819	26.924	1381.471	1124.295
19.834	27.092	1379.948	1123.996
20.848	27.010	1379.926	1123.370
21.863	27.074	1378.683	1122.656
22.877	27.055	1378.061	1121.935
23.892	27.130	1376.640	1121.138
24.907	27.063	1376.278	1120.332
25.921	27.039	1375.216	1119.219
26.936	26.990	1374.821	1118.498
27.950	27.065	1373.231	1117.567
28.965	27.074	1371.967	1116.496
29.980	26.968	1370.812	1114.807
30.994	26.993	1369.775	1114.016
32.009	27.035	1368.168	1112.869
33.023	27.051	1366.942	1111.868
34.038	27.185	1365.900	1111.743
35.053	27.017	1365.362	1110.183
36.067	27.099	1364.159	1109.607
37.082	27.055	1363.494	1108.696
38.096	27.060	1362.517	1107.836
39.111	27.056	1361.630	1106.991
40.126	27.120	1360.479	1106.350
41.140	27.071	1359.961	1105.528
42.155	27.090	1360.057	1105.628
43.169	27.076	1360.171	1105.536
44.184	27.040	1359.747	1104.875
45.199	26.990	1359.301	1104.108
46.213	27.022	1359.204	1104.126
47.228	27.058	1357.856	1103.154
48.242	26.964	1357.180	1101.937
49.257	27.016	1355.299	1100.627
50.271	27.022	1353.941	1099.462
51.286	26.960	1352.849	1098.101
52.301	27.110	1351.109	1097.503
53.315	27.037	1350.083	1096.131
54.330	27.041	1349.802	1095.831
55.344	27.095	1348.436	1094.950
56.359	27.122	1347.754	1094.460
57.374	26.964	1346.795	1092.635
58.388	27.015	1346.376	1092.502
59.403	27.088	1346.369	1092.840
60.417	27.089	1345.181	1091.784
61.432	27.137	1344.085	1091.089
62.447	27.146	1342.993	1090.161
63.461	27.007	1342.769	1089.046
64.476	27.015	1341.768	1088.183
65.490	27.120	1340.416	1087.621
66.505	27.053	1338.972	1085.954
67.520	27.124	1337.672	1085.225
68.534	27.021	1336.510	1083.574
69.549	27.035	1336.297	1083.388
70.563	27.024	1335.000	1082.178
71.578	27.088	1333.584	1081.313
72.593	27.127	1332.552	1080.614
73.607	27.086	1332.353	1080.114
74.622	27.006	1331.793	1079.087
75.636	27.132	1330.728	1078.879
76.651	27.070	1330.267	1078.038
77.666	27.133	1329.799	1077.937
78.680	27.006	1329.558	1076.893
79.695	27.059	1328.877	1076.559
80.709	27.105	1327.569	1075.678
81.724	27.065	1326.984	1074.876
82.739	27.072	1325.981	1074.009
83.753	27.063	1325.152	1073.185
84.768	27.037	1323.981	1071.994
85.782	27.054	1322.852	1071.084
86.797	27.022	1321.959	1070.074
87.812	27.055	1320.831	1069.264
88.826	27.058	1319.963	1068.484
89.841	27.059	1318.568	1067.267
90.855	27.059	1317.698	1066.468
91.870	27.121	1317.025	1066.189
92.884	27.163	1316.066	1065.565
93.899	27.128	1315.452	1064.773
94.914	27.119	1314.504	1063.857
95.928	27.132	1313.940	1063.382
96.943	27.142	1312.972	1062.563
97.957	27.134	1311.971	1061.611
98.972	27.144	1311.484	1061.183
99.987	27.090	1310.740	1060.171
101.001	27.047	1309.762	1059.034
102.016	26.983	1308.590	1057.620
103.030	27.125	1307.781	1057.699
104.045	27.114	1307.157	1057.038
105.060	27.102	1305.929	1055.883
106.074	27.114	1305.387	1055.418
107.089	27.201	1304.067	1054.765
108.103	27.090	1303.410	1053.495
109.118	27.171	1301.990	1052.725
110.133	27.165	1301.238	1051.988
111.147	27.265	1299.643	1051.185
112.162	27.186	1298.689	1049.865
113.176	27.193	1297.814	1049.102
114.191	27.208	1296.673	1048.177
115.206	27.160	1295.976	1047.242
116.220	27.058	1294.996	1045.767
117.235	27.257	1293.373	1045.512
118.249	27.073	1293.580	1044.528
119.264	27.109	1291.908	1043.293
120.279	27.212	1291.473	1043.437
121.293	27.257	1290.986	1043.212
122.308	27.266	1290.160	1042.503
123.322	27.236	1289.323	1041.562
124.337	27.289	1288.153	1040.831
125.352	27.269	1287.344	1039.970
126.366	27.343	1286.508	1039.624
127.381	27.245	1285.729	1038.344
128.395	27.217	1284.936	1037.452
129.410	27.209	1284.095	1036.636
130.424	27.150	1283.381	1035.630
131.439	27.228	1282.578	1035.337
132.454	27.165	1281.818	1034.268
133.468	27.197	1281.015	1033.716
134.483	27.186	1280.902	1033.470
135.497	27.296	1279.752	1033.076
136.512	27.274	1279.083	1032.317
137.527	27.300	1277.683	1031.246
138.541	27.421	1275.880	1030.381
139.556	27.282	1274.997	1028.789
140.570	27.178	1274.571	1027.769
141.585	27.154	1273.665	1026.812
142.600	27.272	1272.478	1026.430
143.614	27.175	1271.445	1024.958
144.629	27.215	1270.294	1024.167
145.643	27.116	1269.714	1023.051
146.658	27.173	1268.406	1022.226
147.673	27.122	1267.659	1021.248
148.687	27.147	1266.702	1020.525
149.702	27.180	1265.944	1020.012
150.716	27.134	1264.848	1018.779
151.731	27.263	1263.294	1018.159
152.746	27.160	1262.748	1017.052
153.760	27.303	1261.009	1016.364
154.775	27.260	1260.563	1015.670
155.789	27.273	1259.358	1014.684
156.804	27.214	1258.799	1013.817
157.819	27.229	1257.974	1013.146
158.833	27.195	1257.643	1012.596
159.848	27.271	1256.641	1012.126
160.862	27.383	1255.721	1011.917
161.877	27.318	1254.906	1010.812
162.892	27.298	1254.110	1009.966
163.906	27.309	1253.746	1009.647
164.921	27.262	1253.126	1008.798
165.935	27.289	1251.896	1007.868
166.950	27.378	1251.405	1007.876
167.964	27.304	1250.861	1006.936
168.979	27.445	1250.293	1007.175
169.994	27.345	1250.232	1006.481
171.008	27.353	1249.034	1005.472
172.023	27.405	1248.245	1005.035
173.037	27.453	1247.380	1004.515
174.052	27.366	1246.922	1003.577
175.067	27.350	1246.147	1002.775
176.081	27.442	1245.141	1002.384
177.096	27.336	1244.496	1001.192
178.110	27.462	1243.216	1000.769
179.125	27.522	1242.261	1000.241
180.140	27.456	1241.235	998.962
181.154	27.378	1240.670	997.993
182.169	27.367	1239.547	996.941
183.183	27.340	1238.777	996.086
184.198	27.372	1237.462	995.116
185.213	27.469	1236.609	994.873
186.227	27.489	1235.840	994.270
187.242	27.545	1234.882	993.719
188.256	27.483	1233.723	992.363
189.271	27.433	1233.208	991.585
190.286	27.547	1232.525	991.570
191.300	27.424	1232.310	990.643
192.315	27.362	1231.716	989.740
193.329	27.470	1231.203	989.825
194.344	27.516	1230.811	989.670
195.359	27.462	1230.188	988.792
196.373	27.384	1229.590	987.801
197.388	27.420	1229.114	987.526
198.402	27.416	1229.172	987.462
199.417	27.372	1228.649	986.715
200.432	27.518	1227.890	986.810
201.446	27.590	1227.520	986.818
202.461	27.486	1226.546	985.384
203.475	27.533	1225.681	984.853
204.490	27.493	1224.392	983.514
205.504	27.437	1223.819	982.667
206.519	27.454	1222.916	981.948
207.534	27.549	1221.610	981.320
208.548	27.503	1220.873	980.397
209.563	27.488	1220.537	979.957
210.577	27.523	1219.391	979.137
211.592	27.496	1218.870	978.487
212.607	27.579	1217.907	978.077
213.621	27.718	1216.704	977.770
214.636	27.689	1216.132	977.065
215.650	27.598	1215.607	976.072
216.665	27.627	1214.778	975.473
217.680	27.580	1213.816	974.366
218.694	27.628	1213.142	973.992
219.709	27.604	1212.616	973.356
220.723	27.612	1211.993	972.810
221.738	27.515	1211.097	971.492
222.753	27.508	1210.136	970.594
223.767	27.527	1209.914	970.433
224.782	27.632	1209.230	970.357
225.796	27.716	1208.407	970.060
226.811	27.660	1208.131	969.451
227.826	27.735	1207.548	969.297
228.840	27.667	1207.020	968.425
229.855	27.705	1206.593	968.200
230.869	27.660	1205.533	967.028
231.884	27.664	1204.789	966.366
232.899	27.753	1203.802	965.960
233.913	27.669	1203.605	965.270
234.928	27.811	1203.207	965.619
235.942	27.750	1202.693	964.795
236.957	27.696	1201.689	963.620
237.972	27.711	1201.024	963.079
238.986	27.726	1200.576	962.714
240.001	27.812	1200.003	962.626
241.015	27.874	1199.137	962.174
242.030	27.908	1197.982	961.340
243.045	27.900	1197.749	961.023
244.059	27.880	1196.707	959.996
245.074	27.957	1195.987	959.740
246.088	27.881	1195.099	958.544
247.103	27.885	1194.343	957.875
248.117	27.791	1193.934	956.968
249.132	27.805	1193.138	956.320
250.147	27.914	1192.643	956.409
251.161	27.895	1191.823	955.564
252.176	27.933	1191.057	955.065
253.190	27.893	1190.694	954.483
254.205	28.052	1189.800	954.513
255.220	28.058	1189.112	953.904
256.234	27.935	1188.786	952.917
257.249	27.907	1188.275	952.278
258.263	27.970	1187.765	952.114
259.278	28.037	1186.798	951.606
260.293	27.951	1186.588	950.903
261.307	28.029	1185.761	950.563
262.322	28.031	1185.290	950.112
263.336	28.020	1184.316	949.186
264.351	27.935	1184.137	948.519
265.366	27.953	1183.624	948.118
266.380	27.925	1183.099	947.471
267.395	28.003	1181.991	946.900
268.409	27.888	1181.812	946.077
269.424	27.848	1181.437	945.485
270.439	27.941	1180.881	945.441
271.453	28.060	1179.852	945.146
272.468	27.995	1178.848	943.926
273.482	28.069	1178.186	943.693
274.497	28.062	1178.256	943.627
275.512	28.127	1177.170	943.012
276.526	28.014	1176.542	941.840
277.541	28.220	1175.469	941.959
278.555	28.162	1175.170	941.341
279.570	28.047	1174.561	940.177
280.585	28.152	1173.762	939.992
281.599	28.079	1172.963	938.893
282.614	28.146	1172.009	938.390
283.628	28.058	1171.266	937.263
284.643	28.223	1170.244	937.207
285.657	28.133	1169.497	936.063
286.672	28.143	1168.782	935.463
287.687	28.157	1167.666	934.558
288.701	28.302	1167.139	934.791
289.716	28.224	1166.413	933.732
290.730	28.342	1165.664	933.652
291.745	28.268	1165.052	932.700
292.760	28.192	1164.929	932.134
293.774	28.226	1164.509	931.889
294.789	28.259	1163.881	931.472
295.803	28.259	1163.313	930.932
296.818	28.263	1162.741	930.415
297.833	28.227	1162.018	929.571
298.847	28.415	1160.938	929.578
299.862	28.262	1160.635	928.474
300.876	28.388	1159.885	928.434
301.891	28.442	1159.207	928.081
302.906	28.450	1158.444	927.429
303.920	28.490	1157.531	926.816
304.935	28.489	1157.037	926.333
305.949	28.374	1156.541	925.278
306.964	28.487	1155.887	925.240
307.979	28.462	1155.491	924.717
308.993	28.366	1154.925	923.695
310.008	28.483	1154.004	923.470
311.022	28.487	1153.231	922.786
312.037	28.539	1152.728	922.565
313.052	28.439	1151.854	921.283
314.066	28.482	1150.894	920.649
315.081	28.403	1150.614	919.945
316.095	28.514	1149.391	919.441
317.110	28.440	1148.922	918.615
318.125	28.494	1148.549	918.507
319.139	28.476	1148.215	918.069
320.154	28.422	1147.421	917.081
321.168	28.531	1146.624	916.907
322.183	28.563	1145.769	916.306
323.197	28.546	1145.501	915.924
324.212	28.506	1145.127	915.341
325.227	28.557	1144.487	915.004
326.241	28.679	1143.696	914.900
327.256	28.680	1142.871	914.164
328.270	28.553	1142.304	912.997
329.285	28.631	1141.187	912.410
330.300	28.603	1140.900	911.964
331.314	28.573	1139.551	910.654
332.329	28.521	1139.162	910.003
333.343	28.777	1138.169	910.400
334.358	28.686	1137.877	909.635
335.373	28.704	1137.187	909.091
336.387	28.791	1136.285	908.720
337.402	28.743	1135.595	907.852
338.416	28.778	1134.907	907.396
339.431	28.696	1134.444	906.538
340.446	28.824	1133.663	906.468
341.460	28.747	1133.378	905.778
342.475	28.832	1132.591	905.490
343.489	28.848	1131.714	904.786
344.504	28.740	1130.911	903.532
345.519	28.828	1129.846	903.035
346.533	28.721	1129.591	902.222
347.548	28.833	1128.771	902.041
348.562	28.844	1127.778	901.221
349.577	28.774	1127.256	900.379
350.592	28.848	1126.066	899.713
351.606	28.836	1125.453	899.084
352.621	28.933	1125.374	899.417
353.635	28.901	1124.905	898.803
354.650	28.912	1123.851	897.938
355.665	28.897	1123.457	897.472
356.679	28.932	1122.595	896.871
357.694	28.974	1122.389	896.834
358.708	28.850	1121.494	895.434
359.723	28.938	1120.607	895.077
360.738	29.038	1119.940	894.951
361.752	29.014	1119.233	894.190
362.767	29.001	1119.005	893.865
363.781	29.067	1118.416	893.635
364.796	28.995	1118.129	892.979
365.810	29.132	1116.969	892.636
366.825	29.092	1116.727	892.168
367.840	29.100	1116.287	891.780
368.854	29.216	1115.657	891.757
369.869	29.044	1114.976	890.304
370.883	29.184	1114.224	890.297
371.898	29.188	1113.248	889.460
372.913	29.104	1112.957	888.742
373.927	29.095	1112.419	888.192
374.942	29.150	1111.975	888.021
375.956	29.090	1111.990	887.669
376.971	29.052	1111.020	886.631
377.986	29.231	1110.458	886.966
379.000	29.182	1110.439	886.639
380.015	29.345	1109.302	886.433
381.029	29.225	1109.032	885.565
382.044	29.249	1107.892	884.691
383.059	29.202	1107.286	883.904
384.073	29.391	1106.677	884.245
385.088	29.242	1105.831	882.777
386.102	29.342	1105.025	882.536
387.117	29.179	1104.299	881.098
388.132	29.206	1103.481	880.494
389.146	29.243	1102.922	880.145
390.161	29.350	1102.391	880.154
391.175	29.418	1101.574	879.748
392.190	29.197	1101.284	878.389
393.205	29.337	1100.150	878.071
394.219	29.375	1099.549	877.697
395.234	29.479	1098.828	877.536
396.248	29.490	1097.682	876.598
397.263	29.491	1096.970	875.955
398.278	29.633	1096.415	876.108
399.292	29.634	1095.816	875.559
400.307	29.439	1095.101	873.986
401.321	29.450	1094.863	873.771
402.336	29.306	1094.494	872.716
403.350	29.343	1093.827	872.281
404.365	29.447	1092.906	871.962
405.380	29.548	1092.009	871.646
406.394	29.438	1091.569	870.696
407.409	29.565	1090.903	870.687
408.423	29.608	1089.988	870.084
409.438	29.666	1089.260	869.697
410.453	29.668	1088.590	869.094
411.467	29.675	1088.072	868.639
412.482	29.552	1087.311	867.376
413.496	29.607	1086.826	867.171
414.511	29.678	1085.951	866.727
415.526	29.615	1085.856	866.280
416.540	29.676	1085.526	866.228
417.555	29.732	1084.912	865.920
418.569	29.672	1084.549	865.278
419.584	29.787	1083.687	865.047
420.599	29.724	1083.396	864.444
421.613	104.555	1321.302	1458.423
422.628	97.302	1355.951	1458.532
