DTS Sentinel unit serial number:	SN413079Multiplexer serial number:	ORYXHardware model number:	OX4-SRSoftware version number:	ORYX F/W v4.00 Oryx Data Collector v3.7.2.0data status	okinstallation	princeton_trtdifferential loss correction	single-endedforward channel	channel 2reverse channel	N/Adate	2019/09/12time	18:37:48forward acquisition time	15.00reverse acquisition time	0.00gamma	496.2192k internal	0.2324k external	0.2324temperature offset calibration	1.0139default loss term (dB/km)	0.3790temperature slope calibration	1.0000multiplexer offset coefficient	1.0000multiplexer slope coefficient	1.0000fibre end	0.00T internal ref (°C)	33.12T ext. ref 1 (°C)	2.99T ext. ref 2 (°C)	27.69length (m)	temperature (°C)	Stokes	anti-Stokes-747.200	-132.060	-0.172	0.023
-746.185	131.533	0.410	-0.533
-745.171	-55.792	-0.643	-0.290
-744.156	283.836	0.104	-0.189
-743.142	-149.262	0.663	-0.053
-742.127	-200.000	-0.005	0.321
-741.112	-28.768	0.320	-0.186
-740.098	223.326	-0.088	0.143
-739.083	-50.619	0.132	-0.063
-738.069	800.000	0.116	-0.467
-737.054	-134.448	-0.674	-0.083
-736.039	-200.000	0.056	-0.671
-735.025	30.659	0.546	0.472
-734.010	198.729	0.319	-0.492
-732.996	-200.000	0.134	-0.863
-731.981	-200.000	-0.158	-1.021
-730.966	-127.924	-0.676	-0.098
-729.952	-7.010	0.036	-0.025
-728.937	-9.341	-1.289	0.869
-727.923	4.921	0.719	-0.533
-726.908	-107.277	0.610	-0.135
-725.894	141.273	-0.371	0.496
-724.879	-123.461	-0.715	-0.115
-723.864	-200.000	-0.022	0.532
-722.850	505.411	-0.112	0.263
-721.835	20.141	0.380	-0.309
-720.821	265.572	-0.730	-1.284
-719.806	-200.000	0.081	0.409
-718.791	67.421	-0.059	-0.061
-717.777	37.029	-0.240	-0.214
-716.762	188.010	0.594	-0.895
-715.748	-81.445	-0.495	-0.164
-714.733	-125.074	0.509	0.079
-713.718	126.745	0.174	0.223
-712.704	-167.622	0.598	-0.024
-711.689	-63.105	-0.686	-0.285
-710.675	-200.000	-0.147	0.879
-709.660	547.417	-0.313	-0.754
-708.645	27.385	-0.453	0.384
-707.631	123.085	0.122	0.154
-706.616	-128.427	0.367	0.053
-705.602	-200.000	-0.004	0.370
-704.587	72.450	-0.388	-0.408
-703.572	800.000	-0.067	-0.214
-702.558	-77.791	-0.390	0.136
-701.543	-200.000	0.028	0.265
-700.529	358.436	-0.282	-0.568
-699.514	-152.879	-0.458	-0.033
-698.499	800.000	0.196	0.669
-697.485	189.250	-0.267	-0.404
-696.470	-193.491	-0.125	0.001
-695.456	184.814	0.302	0.451
-694.441	17.327	-0.466	-0.373
-693.426	-104.664	0.180	0.042
-692.412	-86.741	0.621	-0.191
-691.397	800.000	0.114	-0.430
-690.383	-128.803	-0.551	-0.078
-689.368	-200.000	0.065	0.294
-688.354	192.778	-0.304	-0.463
-687.339	708.694	-0.224	0.597
-686.324	-200.000	-0.030	-0.646
-685.310	-75.746	-0.702	-0.251
-684.295	-63.378	-0.582	-0.241
-683.281	32.593	0.515	-0.449
-682.266	611.653	0.082	-0.207
-681.251	88.181	-0.529	-0.591
-680.237	514.103	-0.256	-0.601
-679.222	139.193	0.677	-0.897
-678.208	22.598	-0.441	-0.364
-677.193	-28.936	0.178	0.103
-676.178	-200.000	0.025	0.160
-675.164	-68.301	-0.244	0.095
-674.149	-95.853	-0.988	0.265
-673.135	71.061	0.157	0.164
-672.120	-127.552	-0.657	-0.096
-671.105	-200.000	0.035	-0.177
-670.091	-86.733	0.288	0.089
-669.076	54.930	0.593	0.577
-668.062	-200.000	0.014	0.682
-667.047	-62.907	0.539	-0.225
-666.032	231.237	0.442	-0.730
-665.018	-200.000	0.099	-0.659
-664.003	800.000	-0.298	0.958
-662.989	77.244	0.225	-0.241
-661.974	520.414	-0.096	0.226
-660.959	275.574	-0.147	-0.262
-659.945	800.000	-0.189	-0.747
-658.930	-200.000	0.103	-0.909
-657.916	-132.549	0.546	-0.071
-656.901	-54.220	0.690	0.316
-655.886	-126.042	-0.424	0.064
-654.872	-90.632	-0.392	0.114
-653.857	-58.338	0.398	0.174
-652.843	-10.477	0.781	-0.521
-651.828	-91.267	0.521	0.150
-650.814	-200.000	0.060	-0.696
-649.799	140.019	0.650	0.863
-648.784	96.632	0.178	0.205
-647.770	-200.000	-0.110	0.552
-646.755	-65.368	0.667	0.270
-645.741	-57.872	0.222	0.098
-644.726	-200.000	0.014	0.281
-643.711	146.279	-0.594	0.802
-642.697	-65.191	0.504	-0.204
-641.682	-200.000	-0.107	-1.126
-640.668	-200.000	0.059	0.387
-639.653	-200.000	0.049	0.380
-638.638	165.023	-0.279	-0.397
-637.624	26.718	-0.532	-0.448
-636.609	-147.929	0.313	-0.026
-635.595	-200.000	0.050	-0.672
-634.580	800.000	0.118	-0.428
-633.565	-35.678	-0.293	-0.160
-632.551	-102.189	-0.677	-0.164
-631.536	-200.000	-0.057	-0.516
-630.522	165.260	0.430	-0.611
-629.507	-134.561	0.524	-0.064
-628.492	-200.000	0.015	-1.284
-627.478	3.021	-0.942	-0.688
-626.463	-167.344	-0.409	-0.017
-625.449	457.304	-0.424	0.947
-624.434	-200.000	0.064	0.475
-623.419	367.732	0.305	0.619
-622.405	-21.171	-0.444	-0.273
-621.390	-25.682	-0.311	0.184
-620.376	-200.000	-0.038	0.449
-619.361	-200.000	-0.044	0.583
-618.346	-166.160	-0.226	-0.010
-617.332	800.000	0.171	-0.511
-616.317	-83.738	0.418	-0.134
-615.303	-2.070	0.523	-0.369
-614.288	650.590	0.265	-0.680
-613.273	-115.853	0.522	-0.098
-612.259	800.000	0.156	-0.450
-611.244	771.309	0.112	0.307
-610.230	-65.421	0.737	0.298
-609.215	414.983	-0.082	-0.176
-608.201	-52.305	-0.618	-0.287
-607.186	116.520	0.563	0.694
-606.171	800.000	0.022	0.087
-605.157	-134.243	1.568	0.194
-604.142	48.741	-0.333	-0.314
-603.128	49.775	-0.607	-0.574
-602.113	-34.386	-0.155	-0.085
-601.098	800.000	-0.098	0.329
-600.084	-37.585	-0.515	0.276
-599.069	217.535	-0.457	0.731
-598.055	66.521	-0.374	0.381
-597.040	120.555	-0.061	-0.076
-596.025	13.905	0.291	0.227
-595.011	800.000	0.308	-0.924
-593.996	-200.000	-0.009	0.108
-592.982	-200.000	-0.044	0.868
-591.967	16.627	0.160	0.127
-590.952	-53.030	0.417	0.193
-589.938	-128.445	-0.252	0.036
-588.923	140.826	-0.705	-0.935
-587.909	174.866	0.230	-0.334
-586.894	198.931	0.248	-0.382
-585.879	515.404	0.250	-0.587
-584.865	800.000	0.191	-0.782
-583.850	-101.596	0.286	-0.070
-582.836	402.333	-0.523	-1.103
-581.821	800.000	-0.120	-0.369
-580.806	-200.000	-0.008	0.087
-579.792	-105.909	0.745	-0.169
-578.777	800.000	0.088	-0.295
-577.763	-117.640	-0.400	0.072
-576.748	-200.000	0.010	0.252
-575.733	-200.000	-0.006	0.434
-574.719	25.479	0.163	-0.136
-573.704	-72.343	0.442	-0.164
-572.690	92.528	0.387	0.438
-571.675	591.936	0.191	0.473
-570.661	176.439	-0.106	-0.154
-569.646	-142.380	-1.249	0.123
-568.631	481.801	0.138	0.314
-567.617	-200.000	-0.026	-0.311
-566.602	-74.705	-0.132	-0.047
-565.588	-14.412	-0.282	0.182
-564.573	-191.417	0.722	0.007
-563.558	-130.358	0.405	0.055
-562.544	-128.487	-0.356	-0.051
-561.529	440.245	-0.085	0.185
-560.515	-63.053	-0.876	0.362
-559.500	-30.039	0.199	0.114
-558.485	-89.841	0.297	-0.087
-557.471	-121.691	-0.716	-0.119
-556.456	196.733	0.331	0.506
-555.442	-0.708	-0.532	-0.378
-554.427	-136.040	-0.308	-0.036
-553.412	-58.543	1.347	-0.586
-552.398	51.260	-0.283	-0.269
-551.383	-200.000	0.088	1.259
-550.369	84.368	-0.448	0.490
-549.354	-36.568	-0.152	0.082
-548.339	98.793	0.420	0.486
-547.325	3.819	0.508	-0.372
-546.310	-143.488	0.857	0.082
-545.296	490.605	0.572	1.310
-544.281	182.941	0.363	0.537
-543.266	-6.443	-0.928	-0.634
-542.252	432.050	0.041	-0.088
-541.237	800.000	0.149	-0.531
-540.223	44.096	-0.479	-0.440
-539.208	94.238	-0.400	-0.455
-538.193	-41.468	-0.770	-0.397
-537.179	-200.000	-0.041	0.385
-536.164	-200.000	-0.047	0.657
-535.150	45.584	0.527	-0.487
-534.135	49.451	0.199	-0.188
-533.121	-200.000	-0.070	-0.600
-532.106	-200.000	-0.128	-0.880
-531.091	154.236	0.201	0.277
-530.077	223.696	0.084	0.135
-529.062	-21.723	0.181	0.110
-528.048	-62.082	0.654	-0.273
-527.033	350.096	-0.558	1.104
-526.018	-177.102	-0.361	-0.009
-525.004	-48.789	0.384	-0.184
-523.989	244.035	0.320	-0.537
-522.975	402.956	0.284	-0.599
-521.960	-77.832	-0.677	-0.234
-520.945	25.869	0.351	0.293
-519.931	800.000	0.315	-1.051
-518.916	-78.088	-0.305	-0.105
-517.902	800.000	0.099	-0.340
-516.887	800.000	-0.162	-0.477
-515.872	-200.000	0.117	0.638
-514.858	-200.000	0.119	-0.691
-513.843	36.772	0.359	0.317
-512.829	456.029	-0.195	-0.433
-511.814	-27.472	0.782	0.455
-510.799	-200.000	0.039	0.779
-509.785	-47.900	0.038	-0.019
-508.770	-200.000	0.070	0.502
-507.756	800.000	0.310	1.142
-506.741	-200.000	0.057	0.491
-505.726	33.451	-0.094	-0.081
-504.712	-154.845	-0.661	-0.044
-503.697	-64.243	-0.571	0.233
-502.683	-129.203	0.264	0.037
-501.668	-26.798	0.623	-0.364
-500.653	-74.952	0.373	-0.134
-499.639	-200.000	0.029	-0.719
-498.624	-142.002	0.309	-0.031
-497.610	-200.000	0.095	1.035
-496.595	-167.754	0.150	0.006
-495.581	-33.685	-0.280	0.155
-494.566	78.534	0.791	0.845
-493.551	-82.801	-0.513	-0.166
-492.537	-97.909	-0.835	0.216
-491.522	-31.176	-0.467	-0.263
-490.508	-7.425	0.285	-0.193
-489.493	-118.758	-0.168	-0.030
-488.478	-111.205	-0.666	0.136
-487.464	800.000	-0.177	0.632
-486.449	-200.000	-0.068	1.004
-485.435	800.000	0.102	0.416
-484.420	-127.553	-0.672	-0.097
-483.405	-127.414	-0.335	-0.049
-482.391	43.613	0.191	0.175
-481.376	182.235	-0.585	-0.861
-480.362	800.000	0.312	0.982
-479.347	-58.230	0.837	0.364
-478.332	233.130	0.231	0.380
-477.318	-68.190	-0.729	-0.283
-476.303	-83.573	0.315	0.101
-475.289	31.517	-0.077	-0.066
-474.274	132.040	0.843	1.084
-473.259	800.000	-0.372	-1.057
-472.245	75.842	0.281	0.297
-471.230	800.000	-0.097	-0.380
-470.216	-111.617	0.700	0.142
-469.201	-159.957	0.469	-0.026
-468.186	-35.518	-0.666	-0.361
-467.172	800.000	-0.130	0.408
-466.157	303.216	-0.228	0.421
-465.143	324.398	0.179	0.341
-464.128	-29.523	-0.239	0.136
-463.113	174.160	0.419	-0.604
-462.099	-28.641	0.311	-0.179
-461.084	6.142	-0.259	-0.192
-460.070	194.801	0.327	-0.495
-459.055	-200.000	-0.107	-0.730
-458.040	-200.000	-0.061	-0.477
-457.026	-200.000	-0.021	0.440
-456.011	48.884	-0.273	0.256
-454.997	-165.205	0.676	0.030
-453.982	-46.966	-0.231	0.112
-452.968	417.439	-0.173	-0.368
-451.953	-70.464	-1.141	-0.431
-450.938	436.777	0.151	-0.329
-449.924	0.466	-0.208	0.149
-448.909	-58.366	0.537	0.233
-447.895	-200.000	0.071	0.494
-446.880	-133.574	0.407	-0.051
-445.865	385.658	0.380	0.782
-444.851	-132.239	-0.654	0.084
-443.836	797.579	0.264	0.726
-442.822	75.923	-0.450	0.475
-441.807	-56.008	0.437	-0.194
-440.792	800.000	0.065	0.249
-439.778	89.335	-0.474	0.527
-438.763	19.603	-0.258	-0.207
-437.749	161.716	0.131	-0.183
-436.734	-5.686	0.261	0.178
-435.719	126.125	0.183	-0.230
-434.705	-97.478	0.490	-0.127
-433.690	-200.000	0.071	0.645
-432.676	691.878	-0.227	0.592
-431.661	-200.000	0.031	0.199
-430.646	221.070	-0.304	-0.487
-429.632	47.401	0.328	-0.305
-428.617	4.940	-0.675	-0.496
-427.603	-200.000	-0.018	0.366
-426.588	112.567	0.532	-0.642
-425.573	-57.650	-0.282	-0.123
-424.559	533.251	-0.262	0.620
-423.544	42.124	-0.774	-0.701
-422.530	-200.000	0.040	0.333
-421.515	-200.000	0.138	-0.748
-420.500	-126.664	-0.667	0.098
-419.486	60.417	-0.637	-0.628
-418.471	-37.122	0.219	-0.117
-417.457	-125.199	0.595	-0.091
-416.442	191.987	-0.227	0.341
-415.428	-71.485	-0.337	0.126
-414.413	582.075	0.129	0.315
-413.398	57.039	-0.584	0.567
-412.384	680.726	0.399	1.035
-411.369	-62.518	0.388	-0.161
-410.355	314.834	-0.229	-0.430
-409.340	-110.398	0.487	0.101
-408.325	-19.093	-0.447	0.277
-407.311	-200.000	0.024	-0.572
-406.296	-200.000	0.012	-0.125
-405.282	-115.190	-0.336	0.063
-404.267	748.764	0.257	0.690
-403.252	800.000	0.092	-0.280
-402.238	-200.000	-0.013	0.363
-401.223	228.527	-0.303	0.493
-400.209	48.738	-0.207	-0.193
-399.194	-200.000	0.019	-1.051
-398.179	-116.829	0.340	0.062
-397.165	154.672	0.227	0.311
-396.150	-200.000	-0.026	-0.512
-395.136	-102.623	-0.403	0.096
-394.121	-68.237	0.216	-0.084
-393.106	120.154	-0.138	0.171
-392.092	800.000	-0.126	0.550
-391.077	30.287	0.436	0.371
-390.063	-70.078	-0.383	0.145
-389.048	-69.157	1.054	-0.404
-388.033	-36.161	0.361	-0.194
-387.019	99.290	-0.112	-0.128
-386.004	137.327	-0.202	0.263
-384.990	386.721	-0.387	0.796
-383.975	-200.000	-0.019	0.546
-382.960	-109.331	0.056	0.012
-381.946	-105.916	-0.448	0.101
-380.931	-34.497	-0.220	-0.120
-379.917	-21.549	0.692	0.420
-378.902	800.000	0.167	0.634
-377.888	-30.293	-0.357	-0.202
-376.873	-72.989	-0.737	-0.270
-375.858	-200.000	-0.015	0.110
-374.844	-107.536	-0.557	-0.121
-373.829	616.483	0.220	0.549
-372.815	227.796	0.299	-0.484
-371.800	142.465	0.007	0.009
-370.785	15.353	0.098	0.077
-369.771	112.801	-0.412	-0.497
-368.756	-87.665	0.927	0.279
-367.742	-139.107	-0.540	0.058
-366.727	298.531	-0.039	0.072
-365.712	215.969	-0.476	-0.752
-364.698	-33.457	-0.633	-0.348
-363.683	-200.000	0.046	0.544
-362.669	74.270	-0.337	-0.352
-361.654	-85.068	-0.694	-0.216
-360.639	800.000	0.264	-0.986
-359.625	182.022	-0.131	-0.191
-358.610	59.628	-0.378	-0.371
-357.596	-200.000	0.116	-0.754
-356.581	-6.657	-0.134	0.090
-355.566	281.778	-0.697	-1.242
-354.552	624.163	-0.270	0.677
-353.537	-0.080	-0.176	0.125
-352.523	-97.468	0.804	0.208
-351.508	13.701	0.155	-0.120
-350.493	-11.507	-0.567	-0.371
-349.479	-82.111	0.509	0.165
-348.464	58.758	-0.113	-0.110
-347.450	57.864	-0.351	0.342
-346.435	-200.000	-0.059	0.687
-345.420	-63.544	0.210	-0.086
-344.406	-200.000	0.133	0.839
-343.391	75.224	0.844	0.884
-342.377	-75.700	-0.155	-0.055
-341.362	136.820	0.064	0.084
-340.348	676.264	0.201	-0.519
-339.333	2.199	0.339	-0.243
-338.318	102.462	-0.464	-0.539
-337.304	800.000	-0.059	-0.248
-336.289	605.617	-0.184	-0.456
-335.275	-200.000	-0.080	0.384
-334.260	729.432	-0.195	0.517
-333.245	-42.162	-0.383	-0.194
-332.231	800.000	0.135	0.391
-331.216	-114.004	0.543	0.105
-330.202	-46.016	0.960	0.470
-329.187	-137.142	0.793	0.090
-328.172	74.360	-0.093	-0.097
-327.158	-200.000	-0.001	0.289
-326.143	560.480	-0.168	-0.404
-325.129	-13.349	-0.736	0.474
-324.114	156.246	0.433	0.593
-323.099	94.973	-0.391	-0.442
-322.085	171.506	-0.103	-0.146
-321.070	-60.484	0.100	0.042
-320.056	-200.000	-0.104	-0.627
-319.041	-200.000	-0.208	1.224
-318.026	73.706	0.477	-0.497
-317.012	-74.559	0.433	0.155
-315.997	800.000	-0.159	-0.503
-314.983	-44.352	-0.577	0.287
-313.968	-200.000	0.000	-0.131
-312.953	77.253	0.291	-0.307
-311.939	374.371	-0.027	0.054
-310.924	800.000	0.200	-0.734
-309.910	-42.412	-0.263	-0.133
-308.895	-116.571	-0.258	0.047
-307.880	323.729	0.278	-0.526
-306.866	605.253	-0.043	-0.106
-305.851	-200.000	-0.007	0.122
-304.837	-40.532	0.715	0.368
-303.822	800.000	0.107	-0.407
-302.807	-76.153	0.659	0.231
-301.793	55.685	-0.244	-0.235
-300.778	-103.703	0.489	0.114
-299.764	-200.000	0.001	0.656
-298.749	-13.866	-0.228	0.146
-297.735	377.866	0.147	0.299
-296.720	800.000	-0.221	-0.768
-295.705	-88.303	-0.733	0.218
-294.691	-200.000	-0.019	0.424
-293.676	-97.214	0.596	0.154
-292.662	-76.479	-0.375	0.131
-291.647	51.953	0.304	-0.287
-290.632	244.020	-0.336	0.560
-289.618	324.419	-0.463	0.877
-288.603	-1.350	-0.369	0.259
-287.589	-3.334	0.360	-0.249
-286.574	169.668	0.804	1.139
-285.559	-110.769	0.810	0.166
-284.545	-186.338	-0.823	0.012
-283.530	-32.174	-0.327	-0.181
-282.516	-35.056	-0.494	-0.267
-281.501	-118.824	-1.080	-0.188
-280.486	-200.000	0.017	-0.227
-279.472	800.000	0.134	0.420
-278.457	-200.000	0.002	-0.511
-277.443	800.000	-0.100	0.326
-276.428	-95.035	0.322	-0.086
-275.413	91.573	0.208	-0.232
-274.399	800.000	-0.256	-0.889
-273.384	-200.000	0.035	1.239
-272.370	-87.117	0.492	0.148
-271.355	60.139	0.488	0.479
-270.340	106.862	0.587	-0.691
-269.326	800.000	0.237	-0.788
-268.311	800.000	0.073	-0.287
-267.297	-64.961	-0.680	0.272
-266.282	39.443	0.376	0.334
-265.267	89.024	0.244	-0.269
-264.253	546.547	0.085	0.201
-263.238	288.616	-0.147	-0.265
-262.224	800.000	0.027	-0.108
-261.209	6.437	0.451	-0.332
-260.195	156.168	-0.206	0.281
-259.180	-28.473	-0.453	0.259
-258.165	499.235	-0.115	0.263
-257.151	-107.644	-0.335	0.073
-256.136	-162.650	0.085	-0.004
-255.122	36.726	0.497	-0.435
-254.107	-94.173	0.288	0.078
-253.092	37.481	-0.920	0.808
-252.078	338.071	0.209	0.402
-251.063	-90.543	0.405	-0.116
-250.049	-200.000	0.022	0.175
-249.034	800.000	0.236	-0.671
-248.019	-149.666	-0.311	-0.024
-247.005	-165.462	-0.781	-0.034
-245.990	-39.733	0.790	0.409
-244.976	-200.000	-0.061	-0.536
-243.961	-174.968	0.441	0.012
-242.946	60.051	-0.256	0.251
-241.932	157.495	-0.208	-0.284
-240.917	-86.086	-0.562	0.172
-239.903	-200.000	-0.088	-0.558
-238.888	10.766	0.979	0.739
-237.873	800.000	0.158	-0.503
-236.859	-158.177	0.758	0.044
-235.844	-4.593	0.307	-0.210
-234.830	-27.441	-0.451	-0.260
-233.815	154.386	-0.229	0.312
-232.800	403.602	0.437	0.911
-231.786	-113.669	-0.436	0.084
-230.771	800.000	-0.169	-0.549
-229.757	-200.000	0.015	-0.520
-228.742	-73.412	-0.156	0.056
-227.727	-125.055	-0.758	0.115
-226.713	50.079	0.341	0.318
-225.698	-73.215	-0.870	-0.315
-224.684	-122.187	0.345	-0.056
-223.669	269.317	-0.509	-0.885
-222.655	-46.226	0.735	-0.358
-221.640	247.983	-0.452	0.756
-220.625	-200.000	-0.039	0.423
-219.611	-25.722	-0.718	0.419
-218.596	-68.961	-1.116	-0.426
-217.582	58.806	-0.101	-0.098
-216.567	-60.459	0.548	0.230
-215.552	257.285	0.568	0.966
-214.538	206.994	0.190	-0.292
-213.523	51.748	-0.148	0.139
-212.509	584.362	-0.116	-0.282
-211.494	507.464	0.270	-0.619
-210.479	484.444	-0.291	-0.654
-209.465	445.996	0.195	0.424
-208.450	-11.398	-0.244	0.159
-207.436	-146.659	0.434	-0.037
-206.421	-200.000	0.108	-0.566
-205.406	194.237	-0.284	-0.426
-204.392	-42.232	0.255	-0.129
-203.377	-90.672	-1.028	-0.293
-202.363	562.414	0.145	-0.346
-201.348	20.031	0.252	0.201
-200.333	-92.790	-0.427	0.118
-199.319	-200.000	0.023	-0.131
-198.304	35.283	-0.163	-0.141
-197.290	-140.853	0.134	0.014
-196.275	-55.657	-1.049	0.464
-195.260	594.669	-0.376	-0.919
-194.246	-200.000	-0.050	-0.593
-193.231	-131.925	0.641	0.083
-192.217	-19.201	0.364	0.224
-191.202	-120.213	-0.184	-0.031
-190.187	-107.789	0.176	0.038
-189.173	-152.051	0.200	-0.014
-188.158	-75.675	-0.172	0.060
-187.144	-81.002	-0.415	-0.136
-186.129	-200.000	0.057	-0.285
-185.114	95.260	0.482	-0.543
-184.100	315.409	-0.316	-0.588
-183.085	44.886	0.120	-0.109
-182.071	-56.246	-0.184	-0.081
-181.056	779.067	0.282	0.763
-180.042	-200.000	-0.045	-0.598
-179.027	49.680	-0.270	0.251
-178.012	83.291	-0.402	-0.432
-176.998	-119.862	0.455	-0.077
-175.983	-200.000	-0.014	0.667
-174.969	216.256	-0.399	-0.626
-173.954	95.446	0.389	0.438
-172.939	-20.468	-0.853	0.518
-171.925	800.000	0.031	-0.111
-170.910	-69.608	0.459	0.173
-169.896	800.000	-0.065	0.208
-168.881	-178.888	0.543	-0.012
-167.866	-40.907	0.132	0.067
-166.852	-47.517	0.567	0.272
-165.837	-159.966	0.818	0.044
-164.823	59.431	0.848	-0.825
-163.808	561.189	-0.084	-0.200
-162.793	-43.371	0.305	-0.152
-161.779	-173.908	0.823	0.024
-160.764	-42.291	-0.420	0.212
-159.750	-63.344	-0.660	0.268
-158.735	-28.738	0.409	-0.232
-157.720	-32.008	-0.367	-0.203
-156.706	-127.965	-0.612	0.087
-155.691	29.988	0.295	0.248
-154.677	130.186	0.506	-0.639
-153.662	487.120	-0.207	-0.465
-152.647	4.360	0.064	0.046
-151.633	-149.451	-0.308	-0.024
-150.618	189.035	-0.538	-0.794
-149.604	175.330	-0.041	0.058
-148.589	-200.000	-0.096	0.474
-147.574	-200.000	0.025	0.496
-146.560	-87.654	-0.300	-0.089
-145.545	-113.097	0.651	0.127
-144.531	-44.589	-0.914	0.450
-143.516	-5.852	-0.639	0.431
-142.502	97.913	0.224	-0.254
-141.487	56.138	-0.718	0.687
-140.472	-7.520	0.475	0.317
-139.458	800.000	-0.018	-0.073
-138.443	250.173	0.351	0.587
-137.429	9.698	0.285	-0.213
-136.414	-138.293	0.649	0.071
-135.399	-138.478	0.305	-0.033
-134.385	504.020	-0.317	-0.723
-133.370	-146.953	0.745	0.063
-132.356	-200.000	0.085	-0.462
-131.341	-104.290	-0.458	0.105
-130.326	313.018	-0.124	-0.229
-129.312	274.262	0.334	0.582
-128.297	-12.911	-0.202	-0.129
-127.283	-200.000	-0.134	-0.736
-126.268	-32.769	1.031	-0.565
-125.253	-200.000	-0.002	0.311
-124.239	-200.000	-0.001	-0.221
-123.224	45.281	-0.491	-0.447
-122.210	161.628	0.394	0.543
-121.195	-200.000	-0.028	-0.167
-120.180	-74.154	-0.264	-0.094
-119.166	282.002	0.285	0.504
-118.151	266.611	0.229	-0.394
-117.137	483.555	-0.137	0.308
-116.122	14.828	0.445	0.343
-115.107	397.556	0.317	-0.653
-114.093	-200.000	0.064	-0.470
-113.078	-52.677	0.200	0.091
-112.064	32.618	0.597	-0.508
-111.049	800.000	-0.171	0.673
-110.034	546.467	0.209	-0.493
-109.020	-93.068	-0.455	-0.125
-108.005	-200.000	-0.067	-0.314
-106.991	-3.047	0.297	0.204
-105.976	-63.855	-0.796	0.321
-104.962	800.000	0.211	0.603
-103.947	-200.000	-0.004	-0.388
-102.932	121.718	0.121	0.149
-101.918	260.370	0.193	-0.329
-100.903	-98.214	0.598	-0.151
-99.889	800.000	-0.047	-0.161
-98.874	157.539	0.197	0.269
-97.859	539.996	-0.134	-0.315
-96.845	800.000	0.239	-0.744
-95.830	27.959	0.652	0.541
-94.816	311.628	-0.245	0.452
-93.801	-200.000	-0.116	-0.662
-92.786	59.942	-0.227	0.221
-91.772	800.000	0.101	0.372
-90.757	413.140	-0.200	0.418
-89.743	800.000	0.102	-0.434
-88.728	-62.158	0.488	0.201
-87.713	-13.967	0.258	0.164
-86.699	115.678	0.202	0.243
-85.684	250.713	0.216	-0.361
-84.670	-88.344	-0.332	0.098
-83.655	-200.000	-0.004	0.624
-82.640	35.604	0.187	0.162
-81.626	-145.866	-0.745	0.065
-80.611	170.437	-0.045	-0.063
-79.597	-80.185	0.418	-0.138
-78.582	-181.351	-0.186	0.004
-77.567	12.752	-0.193	-0.147
-76.553	371.319	-0.347	0.693
-75.538	406.606	-0.331	0.687
-74.524	-167.544	0.733	-0.029
-73.509	-200.000	-0.121	0.540
-72.494	-107.315	0.520	0.112
-71.480	-21.370	-0.215	0.129
-70.465	-199.221	0.753	0.004
-69.451	800.000	0.167	0.623
-68.436	-70.155	0.120	0.045
-67.422	-159.547	-0.689	-0.038
-66.407	-135.359	-0.082	0.010
-65.392	505.412	-0.137	-0.311
-64.378	704.900	0.089	0.231
-63.363	-131.057	0.871	-0.114
-62.349	534.808	-0.419	0.976
-61.334	27.864	-0.932	-0.772
-60.319	-94.566	1.335	0.357
-59.305	-200.000	-0.186	-1.018
-58.290	386.980	0.695	1.411
-57.276	-200.000	-0.038	1.815
-56.261	-200.000	94.531	565.871
-55.246	644.384	1364.536	3421.378
-54.232	200.598	2541.813	3839.921
-53.217	111.844	2253.323	2673.721
-52.203	42.401	1883.177	1682.600
-51.188	36.388	1675.888	1452.282
-50.173	33.616	1631.902	1393.768
-49.159	51.711	1679.278	1569.397
-48.144	52.504	1695.912	1590.785
-47.130	35.965	1655.910	1431.599
-46.115	33.152	1640.331	1397.319
-45.100	32.942	1637.599	1393.389
-44.086	33.115	1633.163	1390.828
-43.071	32.778	1632.531	1387.754
-42.057	32.961	1628.755	1385.833
-41.042	33.017	1625.722	1383.613
-40.027	32.883	1625.101	1382.045
-39.013	32.879	1623.460	1380.564
-37.998	32.965	1621.156	1379.180
-36.984	33.133	1619.449	1378.897
-35.969	33.211	1618.248	1378.393
-34.954	33.022	1616.844	1375.763
-33.940	33.096	1614.698	1374.422
-32.925	33.340	1612.545	1374.302
-31.911	33.189	1612.156	1372.822
-30.896	32.873	1610.698	1369.232
-29.881	33.241	1607.851	1369.428
-28.867	33.115	1606.089	1366.961
-27.852	33.085	1605.357	1366.064
-26.838	33.176	1602.953	1364.623
-25.823	33.151	1601.804	1363.410
-24.809	33.069	1600.231	1361.426
-23.794	32.993	1600.014	1360.637
-22.779	33.291	1597.694	1360.752
-21.765	32.940	1596.924	1357.524
-20.750	33.117	1594.523	1356.699
-19.736	33.125	1592.969	1355.380
-18.721	33.048	1591.230	1353.294
-17.706	33.172	1590.199	1353.248
-16.692	33.204	1588.263	1351.779
-15.677	33.297	1586.611	1350.983
-14.663	33.303	1586.293	1350.705
-13.648	33.225	1584.440	1348.516
-12.633	33.125	1583.720	1347.133
-11.619	33.055	1580.976	1344.248
-10.604	33.087	1580.796	1344.271
-9.590	33.003	1579.334	1342.379
-8.575	33.288	1577.351	1342.661
-7.560	33.415	1575.705	1342.105
-6.546	33.264	1573.723	1339.298
-5.531	33.011	1573.958	1337.650
-4.517	33.012	1572.293	1336.192
-3.502	33.264	1570.962	1336.786
-2.487	33.278	1569.466	1335.557
-1.473	32.990	1557.519	1323.322
-0.458	29.893	1539.982	1286.880
0.556	27.483	1538.405	1253.326
1.571	25.255	1559.664	1254.970
2.586	24.234	1573.918	1259.118
3.600	21.486	1520.979	1197.870
4.615	12.656	1412.198	1055.711
5.629	4.427	1347.781	956.924
6.644	2.913	1340.121	942.117
7.659	3.052	1338.345	941.640
8.673	3.020	1337.444	940.723
9.688	2.976	1335.366	938.911
10.702	2.746	1332.126	935.150
11.717	6.306	1338.683	961.449
12.731	15.843	1357.033	1033.351
13.746	23.133	1370.065	1088.203
14.761	25.214	1371.714	1102.217
15.775	25.700	1369.979	1103.706
16.790	25.579	1370.408	1103.208
17.804	25.626	1369.980	1103.056
18.819	26.068	1369.687	1105.433
19.834	26.209	1369.089	1105.717
20.848	25.884	1368.455	1103.113
21.863	26.184	1367.343	1103.956
22.877	25.963	1366.614	1101.918
23.892	25.892	1365.926	1100.833
24.907	26.044	1364.766	1100.728
25.921	26.156	1363.722	1100.471
26.936	25.878	1363.136	1098.209
27.950	26.159	1360.448	1097.655
28.965	25.958	1360.486	1096.367
29.980	25.970	1358.919	1095.078
30.994	26.385	1358.409	1097.088
32.009	26.117	1357.879	1094.937
33.023	25.834	1356.794	1092.252
34.038	26.093	1355.358	1092.565
35.053	26.013	1354.764	1091.504
36.067	26.180	1353.015	1091.012
37.082	26.029	1352.230	1089.369
38.096	26.069	1352.092	1089.401
39.111	25.944	1351.972	1088.452
40.126	26.051	1350.596	1087.893
41.140	26.146	1349.873	1087.788
42.155	26.128	1349.952	1087.650
43.169	26.430	1348.884	1088.508
44.184	26.182	1349.142	1087.128
45.199	26.049	1349.230	1086.300
46.213	26.329	1348.797	1087.541
47.228	26.083	1348.191	1085.478
48.242	26.086	1346.497	1084.035
49.257	26.141	1345.546	1083.504
50.271	26.113	1344.428	1082.343
51.286	25.890	1343.691	1080.315
52.301	26.062	1340.781	1078.909
53.315	26.008	1341.247	1078.867
54.330	26.033	1339.788	1077.745
55.344	25.893	1338.841	1076.052
56.359	26.398	1337.018	1077.503
57.374	26.153	1336.945	1075.890
58.388	25.931	1336.534	1074.142
59.403	26.204	1335.228	1074.618
60.417	26.341	1335.221	1075.336
61.432	26.021	1334.233	1072.540
62.447	26.005	1333.901	1072.087
63.461	25.855	1333.852	1071.058
64.476	26.015	1331.746	1070.220
65.490	25.895	1330.455	1068.377
66.505	26.369	1328.903	1069.841
67.520	25.985	1328.012	1066.760
68.534	25.958	1328.460	1066.867
69.549	26.148	1325.879	1065.817
70.563	26.211	1325.361	1065.684
71.578	25.956	1324.583	1063.457
72.593	25.980	1324.382	1063.341
73.607	26.038	1322.981	1062.468
74.622	26.236	1322.021	1062.770
75.636	26.270	1320.792	1061.883
76.651	25.977	1320.940	1060.186
77.666	26.243	1320.643	1061.416
78.680	26.433	1319.482	1061.509
79.695	26.084	1319.308	1059.224
80.709	26.162	1318.363	1058.827
81.724	25.976	1317.810	1057.202
82.739	26.207	1316.222	1057.185
83.753	26.133	1315.818	1056.334
84.768	26.393	1314.081	1056.364
85.782	26.414	1312.820	1055.383
86.797	26.118	1312.074	1052.964
87.812	26.153	1311.237	1052.401
88.826	26.401	1310.007	1052.766
89.841	26.378	1309.022	1051.745
90.855	26.343	1307.509	1050.236
91.870	26.156	1307.563	1049.100
92.884	26.464	1305.531	1049.160
93.899	26.460	1305.261	1048.830
94.914	26.474	1305.016	1048.619
95.928	26.459	1303.110	1046.911
96.943	26.382	1303.021	1046.296
97.957	26.307	1302.297	1045.194
98.972	26.275	1301.644	1044.389
99.987	26.213	1300.487	1043.012
101.001	26.166	1300.253	1042.459
102.016	26.179	1298.862	1041.327
103.030	26.124	1298.007	1040.232
104.045	26.530	1297.018	1041.683
105.060	26.391	1296.399	1040.295
106.074	26.345	1295.100	1038.896
107.089	26.101	1293.942	1036.476
108.103	26.508	1292.913	1037.895
109.118	26.476	1291.798	1036.726
110.133	26.488	1290.283	1035.487
111.147	26.331	1288.870	1033.360
112.162	26.308	1288.333	1032.709
113.176	26.426	1287.205	1032.389
114.191	26.314	1286.360	1030.979
115.206	26.288	1285.583	1030.115
116.220	26.318	1284.742	1029.520
117.235	26.334	1282.815	1027.981
118.249	26.250	1281.880	1026.659
119.264	26.610	1280.472	1027.484
120.279	26.530	1280.263	1026.772
121.293	26.524	1278.396	1025.151
122.308	26.319	1279.082	1024.451
123.322	26.366	1278.697	1024.317
124.337	26.432	1277.277	1023.461
125.352	26.423	1275.592	1021.967
126.366	26.835	1274.679	1023.473
127.381	26.477	1274.591	1021.293
128.395	26.116	1274.385	1018.996
129.410	26.511	1272.016	1019.240
130.424	26.412	1271.558	1018.226
131.439	26.071	1272.722	1017.145
132.454	26.364	1270.048	1016.566
133.468	26.440	1269.798	1016.700
134.483	26.551	1268.243	1015.989
135.497	26.490	1267.718	1015.136
136.512	26.406	1267.527	1014.422
137.527	26.654	1265.439	1014.053
138.541	26.593	1264.108	1012.552
139.556	26.515	1262.964	1011.113
140.570	26.403	1262.349	1009.905
141.585	26.473	1260.479	1008.711
142.600	26.473	1260.755	1008.843
143.614	26.459	1259.700	1007.828
144.629	26.404	1257.594	1005.748
145.643	26.442	1256.869	1005.293
146.658	26.360	1256.157	1004.182
147.673	26.412	1255.525	1003.874
148.687	26.144	1255.669	1002.413
149.702	26.188	1254.568	1001.689
150.716	26.526	1252.636	1001.929
151.731	26.428	1252.794	1001.425
152.746	26.597	1250.528	1000.458
153.760	26.443	1249.209	998.464
154.775	26.789	1247.453	998.877
155.789	26.686	1247.144	997.974
156.804	26.480	1247.195	996.796
157.819	26.465	1245.584	995.335
158.833	26.521	1244.737	994.879
159.848	26.434	1244.215	993.897
160.862	26.524	1243.291	993.565
161.877	26.761	1241.954	993.707
162.892	26.686	1241.378	992.747
163.906	26.526	1241.431	991.825
164.921	26.536	1239.398	990.170
165.935	26.747	1238.468	990.488
166.950	26.473	1239.661	989.855
167.964	26.633	1238.008	989.325
168.979	26.519	1237.772	988.423
169.994	26.626	1237.566	988.758
171.008	26.501	1236.919	987.469
172.023	26.702	1235.450	987.305
173.037	26.597	1234.716	986.058
174.052	26.478	1233.948	984.711
175.067	26.503	1232.866	983.897
176.081	26.403	1232.420	982.910
177.096	26.653	1231.847	983.727
178.110	26.744	1230.489	983.046
179.125	26.636	1229.826	981.847
180.140	26.677	1228.494	980.917
181.154	26.759	1226.601	979.764
182.169	26.639	1226.541	978.981
183.183	26.698	1225.215	978.155
184.198	26.755	1225.136	978.309
185.213	26.716	1223.607	976.794
186.227	26.389	1222.968	974.436
187.242	26.814	1221.739	975.654
188.256	26.668	1221.521	974.610
189.271	26.567	1220.560	973.217
190.286	26.686	1218.963	972.492
191.300	26.800	1218.388	972.558
192.315	26.716	1219.016	972.524
193.329	26.716	1217.887	971.541
194.344	26.862	1217.543	971.961
195.359	26.538	1217.455	970.069
196.373	26.552	1216.788	969.526
197.388	26.393	1216.693	968.511
198.402	26.723	1215.899	969.562
199.417	26.590	1215.730	968.627
200.432	26.611	1214.748	967.873
201.446	26.803	1214.327	968.479
202.461	26.758	1213.262	967.303
203.475	26.622	1211.762	965.297
204.490	26.848	1211.343	966.078
205.504	26.838	1210.234	965.056
206.519	26.648	1209.875	963.674
207.534	26.822	1208.651	963.540
208.548	26.857	1207.539	962.753
209.563	26.663	1207.171	961.345
210.577	26.729	1206.340	960.950
211.592	26.742	1206.398	960.981
212.607	26.760	1204.602	959.555
213.621	26.808	1204.224	959.426
214.636	26.794	1203.393	958.605
215.650	26.746	1202.240	957.350
216.665	26.718	1201.691	956.677
217.680	26.851	1200.419	956.280
218.694	26.867	1199.154	955.274
219.709	26.955	1198.035	954.763
220.723	26.665	1199.217	954.093
221.738	26.952	1197.550	954.189
222.753	26.800	1196.116	952.164
223.767	26.730	1195.866	951.513
224.782	26.861	1196.416	952.556
225.796	26.888	1195.346	951.760
226.811	26.779	1194.445	950.387
227.826	26.774	1194.246	950.119
228.840	26.781	1193.407	949.406
229.855	26.436	1194.097	948.059
230.869	26.890	1191.605	948.373
231.884	26.634	1191.515	946.876
232.899	26.803	1190.806	947.114
233.913	26.824	1190.175	946.641
234.928	26.936	1189.615	946.692
235.942	26.775	1189.373	945.579
236.957	26.808	1188.784	945.196
237.972	26.923	1187.174	944.435
238.986	26.946	1186.874	944.229
240.001	27.082	1185.795	943.997
241.015	26.929	1184.618	942.182
242.030	26.788	1184.839	941.540
243.045	26.876	1183.364	940.742
244.059	26.990	1183.159	941.085
245.074	26.858	1181.474	938.981
246.088	26.652	1182.748	938.843
247.103	26.915	1180.272	938.152
248.117	27.057	1180.100	938.667
249.132	26.835	1179.556	937.006
250.147	26.820	1179.387	936.711
251.161	26.938	1178.198	936.292
252.176	26.933	1176.936	935.177
253.190	27.040	1175.621	934.602
254.205	27.184	1174.471	934.347
255.220	26.731	1175.648	932.869
256.234	27.092	1175.044	934.161
257.249	27.049	1174.636	933.537
258.263	27.170	1173.281	932.995
259.278	27.147	1172.340	932.048
260.293	26.938	1172.692	931.172
261.307	26.895	1171.912	930.252
262.322	27.285	1170.748	931.243
263.336	26.944	1171.158	929.739
264.351	26.847	1170.336	928.505
265.366	27.156	1169.247	929.141
266.380	26.920	1168.360	927.150
267.395	26.976	1168.219	927.242
268.409	27.022	1167.511	926.832
269.424	26.920	1167.476	926.200
270.439	26.982	1165.959	925.232
271.453	27.048	1165.780	925.344
272.468	27.092	1164.071	924.130
273.482	26.668	1165.038	922.657
274.497	26.858	1164.039	922.752
275.512	27.080	1163.579	923.435
276.526	27.002	1162.130	921.807
277.541	27.085	1161.692	921.796
278.555	27.081	1160.737	920.939
279.570	26.973	1161.006	920.520
280.585	27.103	1158.791	919.340
281.599	27.144	1158.476	919.217
282.614	26.953	1158.081	917.860
283.628	27.147	1156.464	917.476
284.643	26.911	1156.921	916.562
285.657	26.995	1155.515	915.794
286.672	26.939	1154.715	914.798
287.687	27.125	1153.725	914.865
288.701	27.051	1153.297	914.072
289.716	27.016	1152.829	913.448
290.730	27.011	1151.549	912.324
291.745	27.165	1150.719	912.363
292.760	27.165	1150.059	911.758
293.774	27.084	1150.372	911.517
294.789	27.376	1148.623	911.515
295.803	27.214	1148.312	910.373
296.818	27.463	1147.864	911.187
297.833	27.270	1146.778	909.279
298.847	27.325	1145.823	908.713
299.862	27.256	1145.488	908.026
300.876	27.037	1145.142	906.575
301.891	27.086	1144.544	906.270
302.906	27.180	1143.017	905.448
303.920	27.319	1142.748	905.848
304.935	27.582	1142.567	906.933
305.949	27.105	1142.743	904.615
306.964	27.064	1141.676	903.488
307.979	27.192	1140.405	903.039
308.993	27.347	1140.389	903.714
310.008	27.183	1138.872	901.617
311.022	27.153	1138.670	901.232
312.037	27.156	1137.159	899.968
313.052	27.038	1137.100	899.260
314.066	27.291	1135.508	899.174
315.081	27.155	1135.203	898.180
316.095	26.878	1135.770	897.180
317.110	27.165	1134.791	897.743
318.125	27.203	1133.078	896.495
319.139	27.120	1132.653	895.668
320.154	27.023	1132.131	894.700
321.168	27.027	1131.428	894.084
322.183	27.155	1129.985	893.497
323.197	27.300	1130.785	894.760
324.212	27.349	1129.094	893.585
325.227	27.401	1128.799	893.529
326.241	27.247	1128.740	892.645
327.256	26.777	1128.137	889.783
328.270	27.022	1127.908	890.728
329.285	27.311	1126.162	890.683
330.300	27.076	1125.341	888.805
331.314	27.464	1124.453	889.923
332.329	27.106	1123.912	887.668
333.343	27.231	1123.115	887.568
334.358	27.467	1121.935	887.709
335.373	27.664	1121.191	888.001
336.387	27.015	1120.886	884.519
337.402	27.065	1121.054	884.821
338.416	26.905	1121.042	883.950
339.431	27.224	1120.214	884.773
340.446	27.311	1117.959	883.337
341.460	27.307	1118.502	883.670
342.475	27.464	1117.387	883.472
343.489	27.143	1116.696	881.291
344.504	27.145	1115.346	880.156
345.519	27.272	1114.508	880.031
346.533	27.243	1113.895	879.327
347.548	27.188	1112.512	877.895
348.562	27.281	1111.600	877.543
349.577	27.130	1111.709	876.826
350.592	27.114	1110.649	875.832
351.606	27.418	1109.947	876.665
352.621	27.161	1110.126	875.492
353.635	26.951	1109.716	874.081
354.650	27.151	1108.856	874.287
355.665	27.294	1107.448	873.790
356.679	27.101	1106.934	872.381
357.694	27.120	1106.758	872.252
358.708	27.365	1105.149	872.084
359.723	27.343	1104.561	871.435
360.738	27.261	1104.560	870.967
361.752	27.111	1103.976	869.709
362.767	27.121	1103.758	869.512
363.781	27.441	1102.198	869.733
364.796	27.321	1102.478	869.302
365.810	27.338	1101.210	868.309
366.825	27.532	1100.835	868.859
367.840	27.386	1101.037	868.244
368.854	27.237	1100.830	867.293
369.869	27.542	1099.349	867.505
370.883	27.301	1099.234	866.191
371.898	27.496	1097.823	865.927
372.913	27.283	1097.343	864.460
373.927	27.421	1097.143	864.882
374.942	27.308	1096.409	863.693
375.956	27.114	1095.913	862.303
376.971	27.246	1095.479	862.510
377.986	27.158	1094.439	861.199
379.000	27.212	1093.777	860.856
380.015	27.330	1092.377	860.236
381.029	27.023	1092.737	858.995
382.044	26.993	1092.177	858.333
383.059	27.505	1089.950	858.923
384.073	27.226	1089.843	857.450
385.088	27.511	1088.618	857.750
386.102	27.314	1088.476	856.637
387.117	26.847	1087.991	853.981
388.132	27.231	1085.900	854.067
389.146	27.414	1085.131	854.245
390.161	27.291	1085.653	854.003
391.175	27.193	1085.501	853.349
392.190	27.058	1085.333	852.506
393.205	27.249	1083.833	852.146
394.219	27.167	1083.913	851.750
395.234	27.113	1082.294	850.152
396.248	27.242	1080.543	849.304
397.263	27.054	1080.356	848.202
398.278	27.405	1079.682	849.237
399.292	27.064	1079.240	847.222
400.307	26.899	1079.739	846.768
401.321	27.135	1078.024	846.450
402.336	27.302	1076.785	846.179
403.350	27.266	1075.930	845.267
404.365	27.232	1075.326	844.559
405.380	27.302	1074.207	843.929
406.394	27.117	1074.951	843.578
407.409	27.327	1073.252	843.147
408.423	27.581	1072.842	843.925
409.438	26.938	1072.993	840.991
410.453	27.203	1071.787	841.198
411.467	27.493	1070.487	841.442
412.482	27.342	1069.975	840.269
413.496	27.437	1068.939	839.817
414.511	27.309	1068.463	838.778
415.526	27.197	1068.838	838.484
416.540	27.304	1068.227	838.425
417.555	27.627	1066.929	838.818
418.569	27.007	1067.397	836.255
419.584	27.152	1066.539	836.177
420.599	26.950	1066.693	835.296
421.613	152.891	1405.249	1793.880
422.628	140.682	1454.598	1793.996
