DTS Sentinel unit serial number:	SN413079Multiplexer serial number:	ORYXHardware model number:	OX4-SRSoftware version number:	ORYX F/W v4.00 Oryx Data Collector v3.7.2.0data status	okinstallation	princeton_trtdifferential loss correction	single-endedforward channel	channel 2reverse channel	N/Adate	2019/09/19time	00:23:34forward acquisition time	60.00reverse acquisition time	0.00gamma	496.2192k internal	0.2352k external	0.2352temperature offset calibration	1.0016default loss term (dB/km)	0.3790temperature slope calibration	1.0000multiplexer offset coefficient	1.0000multiplexer slope coefficient	1.0000fibre end	0.00T internal ref (°C)	22.62T ext. ref 1 (°C)	0.74T ext. ref 2 (°C)	15.61length (m)	temperature (°C)	Stokes	anti-Stokes-747.200	800.000	0.103	0.324
-746.185	-49.409	-0.100	-0.047
-745.171	-14.782	-0.063	-0.040
-744.156	-191.719	-0.304	-0.003
-743.142	-86.903	-0.058	-0.018
-742.127	-140.569	-0.280	0.029
-741.112	151.336	0.056	0.076
-740.098	159.318	-0.176	0.244
-739.083	-50.694	0.266	0.125
-738.069	-167.893	-0.239	-0.009
-737.054	-91.184	0.169	0.048
-736.039	-87.089	-0.424	0.129
-735.025	800.000	0.141	0.390
-734.010	82.314	-0.095	-0.102
-732.996	229.884	-0.236	-0.384
-731.981	-122.527	-0.142	-0.023
-730.966	250.690	0.135	-0.229
-729.952	-200.000	-0.016	-0.196
-728.937	59.539	0.087	-0.086
-727.923	191.677	-0.207	-0.311
-726.908	-79.093	-0.196	-0.066
-725.894	-127.570	-0.379	-0.055
-724.879	333.224	-0.118	-0.228
-723.864	-200.000	-0.036	-0.184
-722.850	-54.978	-0.120	-0.054
-721.835	-152.058	-0.127	-0.009
-720.821	800.000	-0.047	0.145
-719.806	20.299	-0.124	0.100
-718.791	-58.166	-0.244	0.106
-717.777	308.947	0.071	0.131
-716.762	-66.074	-0.431	0.171
-715.748	82.278	0.094	0.101
-714.733	-200.000	-0.039	-0.192
-713.718	-102.107	-0.177	0.042
-712.704	-35.634	-0.354	-0.191
-711.689	388.726	0.067	0.138
-710.675	-96.812	0.186	0.049
-709.660	41.067	0.002	0.001
-708.645	-51.994	0.083	-0.038
-707.631	-200.000	-0.032	-0.298
-706.616	-41.583	-0.053	0.027
-705.602	-200.000	-0.076	0.346
-704.587	41.663	0.373	-0.337
-703.572	5.971	0.094	-0.069
-702.558	-200.000	-0.010	0.124
-701.543	-118.002	-0.076	-0.014
-700.529	-186.961	-0.112	-0.002
-699.514	800.000	0.029	-0.107
-698.499	8.926	-0.278	0.209
-697.485	-39.530	0.137	-0.071
-696.470	-148.955	-0.245	0.020
-695.456	19.203	0.127	-0.101
-694.441	94.049	0.267	-0.302
-693.426	-28.924	-0.268	0.153
-692.412	196.686	0.151	0.230
-691.397	800.000	-0.030	-0.091
-690.383	36.943	-0.201	-0.177
-689.368	-200.000	0.036	-0.244
-688.354	-1.442	0.207	0.145
-687.339	10.925	-0.133	0.101
-686.324	101.310	0.238	0.276
-685.310	-6.398	-0.295	-0.200
-684.295	-150.508	0.197	0.015
-683.281	-200.000	-0.014	0.135
-682.266	-200.000	0.011	0.197
-681.251	338.176	0.006	-0.011
-680.237	-23.517	-0.450	-0.269
-679.222	-12.375	-0.256	-0.166
-678.208	-105.751	0.262	0.059
-677.193	-18.672	-0.315	-0.196
-676.178	-200.000	0.011	-0.114
-675.164	16.892	-0.194	0.153
-674.149	-200.000	-0.009	0.107
-673.135	19.707	0.174	-0.139
-672.120	-116.645	0.252	-0.046
-671.105	-118.433	-0.170	0.030
-670.091	800.000	-0.109	0.315
-669.076	-31.226	0.124	-0.069
-668.062	-117.048	-0.200	-0.036
-667.047	206.478	-0.078	-0.121
-666.032	800.000	-0.060	-0.239
-665.018	-198.115	0.400	0.002
-664.003	-73.029	-0.331	0.121
-662.989	-26.754	-0.116	0.067
-661.974	-200.000	-0.024	-0.157
-660.959	351.734	-0.074	0.146
-659.945	-44.263	0.065	0.033
-658.930	107.372	0.208	0.246
-657.916	-100.708	-0.314	-0.077
-656.901	-38.731	0.105	0.055
-655.886	-44.201	0.127	0.063
-654.872	80.367	-0.263	-0.281
-653.857	800.000	-0.077	-0.318
-652.843	144.313	0.103	0.137
-651.828	1.207	0.210	0.150
-650.814	227.057	0.153	0.247
-649.799	-200.000	0.019	-0.112
-648.784	-51.320	-0.285	-0.132
-647.770	-89.159	0.103	0.030
-646.755	-172.475	-0.046	0.001
-645.741	553.013	0.056	-0.134
-644.726	68.654	0.033	-0.034
-643.711	-200.000	0.030	-0.187
-642.697	175.943	0.089	-0.129
-641.682	168.757	-0.169	-0.240
-640.668	-142.208	0.306	0.030
-639.653	490.243	-0.040	-0.090
-638.638	-113.318	-0.216	0.042
-637.624	-200.000	0.011	-0.094
-636.609	-174.191	-0.114	-0.003
-635.595	-200.000	0.017	0.401
-634.580	64.623	-0.064	0.064
-633.565	44.758	-0.139	-0.127
-632.551	173.298	-0.160	0.229
-631.536	202.111	0.151	0.232
-630.522	800.000	0.025	-0.109
-629.507	271.160	-0.057	-0.099
-628.492	504.439	-0.014	0.031
-627.478	351.966	0.038	0.075
-626.463	-200.000	-0.020	-0.128
-625.449	-200.000	0.020	0.114
-624.434	800.000	0.046	0.161
-623.419	216.827	-0.110	-0.174
-622.405	800.000	-0.078	-0.281
-621.390	134.214	0.232	-0.298
-620.376	15.713	-0.049	-0.038
-619.361	-94.628	-0.290	0.078
-618.346	-5.015	0.256	0.175
-617.332	-2.856	-0.027	0.019
-616.317	-129.932	-0.262	-0.036
-615.303	209.663	-0.084	-0.131
-614.288	33.629	0.205	0.177
-613.273	-45.201	-0.089	0.044
-612.259	66.856	0.034	-0.035
-611.244	-90.200	-0.065	0.019
-610.230	220.852	0.190	0.302
-609.215	-186.872	-0.338	-0.005
-608.201	13.464	-0.225	-0.173
-607.186	330.318	-0.077	0.146
-606.171	20.186	0.227	-0.182
-605.157	49.791	-0.050	0.047
-604.142	-107.752	0.236	0.051
-603.128	-39.352	-0.147	0.077
-602.113	800.000	0.049	-0.201
-601.098	248.388	-0.073	0.123
-600.084	-109.653	0.290	-0.061
-599.069	627.342	-0.176	0.440
-598.055	800.000	-0.061	-0.195
-597.040	254.095	-0.124	0.211
-596.025	770.881	0.227	0.614
-595.011	-200.000	0.073	-0.408
-593.996	-200.000	-0.017	0.216
-592.982	-79.299	-0.099	0.033
-591.967	310.478	-0.094	-0.175
-590.952	439.140	0.155	0.337
-589.938	800.000	-0.086	0.252
-588.923	409.641	0.036	-0.076
-587.909	-119.040	-0.173	-0.030
-586.894	-61.078	0.233	-0.098
-585.879	-99.300	-0.213	0.053
-584.865	50.612	0.132	-0.123
-583.850	-200.000	0.064	0.313
-582.836	26.911	0.107	0.089
-581.821	-200.000	-0.037	0.183
-580.806	508.922	0.138	-0.318
-579.792	214.632	0.105	-0.164
-578.777	293.932	-0.027	-0.049
-577.763	-200.000	0.002	0.033
-576.748	-155.650	0.060	0.004
-575.733	19.131	0.231	0.184
-574.719	157.522	-0.231	0.316
-573.704	800.000	0.070	-0.257
-572.690	1.088	0.267	-0.190
-571.675	-43.890	0.250	-0.125
-570.661	-200.000	0.021	0.326
-569.646	-86.542	-0.303	0.092
-568.631	-107.714	0.083	0.018
-567.617	55.723	-0.162	-0.156
-566.602	-200.000	-0.046	-0.265
-565.588	-200.000	-0.044	0.199
-564.573	-93.869	0.106	-0.029
-563.558	56.782	0.098	-0.095
-562.544	132.493	-0.137	-0.175
-561.529	326.851	0.189	-0.359
-560.515	335.735	0.136	-0.261
-559.500	458.866	-0.102	-0.224
-558.485	54.669	0.194	0.185
-557.471	147.452	0.155	-0.207
-556.456	205.421	0.206	-0.317
-555.442	37.611	-0.157	0.138
-554.427	-69.980	0.118	-0.045
-553.412	-95.982	0.296	0.078
-552.398	-81.652	-0.113	-0.037
-551.383	16.123	-0.086	-0.067
-550.369	51.621	-0.242	-0.228
-549.354	41.926	0.193	-0.173
-548.339	763.411	-0.040	-0.108
-547.325	36.977	0.074	0.065
-546.310	-2.574	0.099	0.069
-545.296	-58.944	0.342	0.146
-544.281	-200.000	0.067	-0.324
-543.266	480.284	-0.124	-0.279
-542.252	-68.955	0.227	0.087
-541.237	-158.999	-0.217	-0.012
-540.223	25.099	0.093	0.076
-539.208	209.919	-0.179	-0.279
-538.193	62.863	0.030	0.029
-537.179	75.100	-0.070	-0.073
-536.164	-57.567	0.157	0.068
-535.150	-8.935	-0.120	-0.079
-534.135	-76.666	0.110	0.038
-533.121	44.624	0.169	0.153
-532.106	800.000	0.017	0.065
-531.091	7.236	-0.359	0.265
-530.077	-181.032	-0.184	0.004
-529.062	-71.548	-0.413	0.153
-528.048	-108.449	-0.091	-0.019
-527.033	-200.000	0.022	-0.222
-526.018	278.141	-0.095	-0.167
-525.004	800.000	-0.052	0.152
-523.989	136.260	0.212	0.274
-522.975	-200.000	-0.047	0.234
-521.960	-200.000	0.014	0.307
-520.945	-84.179	-0.256	-0.080
-519.931	12.372	0.148	0.112
-518.916	640.718	-0.135	-0.339
-517.902	32.208	0.118	0.101
-516.887	800.000	0.081	-0.249
-515.872	-200.000	0.033	-0.280
-514.858	333.986	0.149	-0.284
-513.843	-179.432	-0.228	-0.005
-512.829	-42.973	0.412	0.207
-511.814	800.000	-0.106	0.331
-510.799	362.310	-0.094	0.187
-509.785	-3.633	-0.237	-0.163
-508.770	56.595	0.205	0.197
-507.756	800.000	-0.146	-0.412
-506.741	38.471	0.070	0.062
-505.726	239.655	-0.013	0.022
-504.712	4.414	-0.056	-0.041
-503.697	-56.273	0.179	-0.079
-502.683	-200.000	-0.002	-0.340
-501.668	-161.977	0.150	-0.007
-500.653	40.620	-0.215	0.192
-499.639	170.017	0.103	-0.146
-498.624	198.080	0.117	0.176
-497.610	-106.945	-0.069	0.015
-496.595	63.353	-0.046	-0.045
-495.581	327.421	-0.098	-0.185
-494.566	-41.768	0.451	0.228
-493.551	-43.448	-0.098	0.049
-492.537	228.391	-0.032	0.052
-491.522	-32.990	-0.289	-0.158
-490.508	11.179	-0.090	-0.068
-489.493	-200.000	0.103	-0.468
-488.478	74.898	-0.145	-0.151
-487.464	-96.844	-0.121	-0.031
-486.449	800.000	0.051	0.164
-485.435	355.097	0.097	-0.190
-484.420	17.594	-0.284	0.223
-483.405	-200.000	0.008	0.220
-482.391	369.110	-0.159	0.319
-481.376	559.085	-0.074	0.177
-480.362	133.626	-0.054	-0.068
-479.347	-27.875	0.193	-0.110
-478.332	34.358	0.051	0.044
-477.318	-200.000	0.051	0.223
-476.303	-200.000	-0.043	-0.229
-475.289	119.107	-0.089	0.109
-474.274	-16.853	0.310	0.193
-473.259	-105.290	-0.400	0.090
-472.245	39.181	-0.113	-0.099
-471.230	-122.933	-0.121	-0.019
-470.216	438.289	-0.093	0.200
-469.201	800.000	0.067	0.198
-468.186	-180.562	0.228	-0.005
-467.172	-89.736	-0.247	0.071
-466.157	2.171	0.198	-0.141
-465.143	-144.684	0.094	-0.009
-464.128	-43.833	-0.166	-0.082
-463.113	-119.497	0.413	0.071
-462.099	800.000	0.086	-0.326
-461.084	-18.375	0.138	0.085
-460.070	-120.685	0.313	0.052
-459.055	-1.558	0.263	-0.183
-458.040	160.538	-0.017	-0.024
-457.026	-200.000	-0.014	-0.362
-456.011	-105.352	0.109	-0.025
-454.997	0.255	-0.106	-0.075
-453.982	130.927	0.198	-0.251
-452.968	183.143	0.130	0.189
-451.953	-200.000	0.039	-0.335
-450.938	244.031	0.159	0.263
-449.924	26.369	-0.335	-0.276
-448.909	17.115	0.109	0.086
-447.895	-86.998	0.375	-0.113
-446.880	535.090	0.042	0.099
-445.865	30.418	0.139	0.117
-444.851	-192.457	-0.152	-0.001
-443.836	800.000	-0.056	-0.196
-442.822	-9.710	-0.051	0.033
-441.807	-115.595	0.176	0.033
-440.792	104.640	-0.143	-0.167
-439.778	-200.000	0.010	0.164
-438.763	370.894	0.052	0.104
-437.749	-200.000	-0.027	0.295
-436.734	576.451	0.067	-0.162
-435.719	-200.000	-0.027	-0.378
-434.705	670.680	0.131	0.335
-433.690	-37.904	-0.428	-0.224
-432.676	-76.810	-0.155	0.054
-431.661	-200.000	-0.004	0.062
-430.646	22.407	0.148	-0.119
-429.632	48.007	-0.116	-0.107
-428.617	106.032	-0.168	-0.196
-427.603	-181.166	-0.130	-0.003
-426.588	-75.595	-0.183	0.064
-425.573	31.841	0.170	-0.144
-424.559	-200.000	-0.177	-0.001
-423.544	-145.102	-0.204	-0.018
-422.530	15.964	-0.215	-0.167
-421.515	198.528	0.166	-0.251
-420.500	-58.658	0.550	-0.235
-419.486	-51.776	-0.179	0.082
-418.471	40.929	-0.320	0.285
-417.457	-200.000	0.022	0.109
-416.442	-99.891	-0.250	0.061
-415.428	-137.479	0.181	0.020
-414.413	-40.151	-0.181	-0.093
-413.398	800.000	-0.045	0.127
-412.384	182.030	0.107	-0.155
-411.369	16.436	0.246	-0.191
-410.355	-200.000	-0.063	0.408
-409.340	105.755	-0.119	0.138
-408.325	800.000	0.056	-0.175
-407.311	-200.000	-0.033	-0.164
-406.296	-43.282	0.061	-0.030
-405.282	-200.000	0.001	0.023
-404.267	283.717	-0.114	-0.202
-403.252	132.390	0.063	0.080
-402.238	800.000	0.064	-0.226
-401.223	-177.258	-0.275	-0.007
-400.209	800.000	-0.056	-0.221
-399.194	57.272	0.148	-0.142
-398.179	-97.335	-0.374	-0.096
-397.165	-7.746	0.101	-0.067
-396.150	182.077	-0.112	0.162
-395.136	400.181	0.128	-0.264
-394.121	-27.265	-0.125	0.071
-393.106	-79.776	-0.136	0.045
-392.092	-161.798	0.182	-0.009
-391.077	648.357	0.077	-0.193
-390.063	-52.992	-0.360	-0.163
-389.048	210.075	0.118	0.181
-388.033	-96.645	-0.218	0.057
-387.019	321.263	-0.102	-0.190
-386.004	800.000	0.113	0.370
-384.990	152.901	-0.214	0.288
-383.975	-21.766	-0.293	-0.175
-382.960	800.000	0.057	0.210
-381.946	-200.000	-0.013	-0.100
-380.931	-200.000	-0.019	-0.159
-379.917	39.653	-0.379	0.334
-378.902	-67.728	0.381	-0.147
-377.888	-54.846	-0.250	0.111
-376.873	111.182	-0.073	0.086
-375.858	44.526	0.270	0.244
-374.844	800.000	-0.047	0.175
-373.829	6.733	0.246	0.180
-372.815	-84.118	-0.351	-0.109
-371.800	-200.000	-0.119	-0.000
-370.785	-72.118	-0.192	-0.070
-369.771	45.417	-0.196	0.178
-368.756	-56.927	0.133	0.058
-367.742	167.448	-0.236	-0.329
-366.727	71.155	-0.157	-0.160
-365.712	-109.748	0.068	0.014
-364.698	800.000	-0.042	0.116
-363.683	-200.000	-0.004	-0.118
-362.669	-15.877	-0.141	0.088
-361.654	134.709	0.255	-0.325
-360.639	-154.760	-0.227	0.015
-359.625	800.000	0.122	0.441
-358.610	558.181	0.037	0.087
-357.596	-106.245	0.208	-0.046
-356.581	-124.917	-0.257	-0.039
-355.566	-173.740	0.291	-0.009
-354.552	64.448	-0.173	-0.171
-353.537	133.850	-0.225	-0.286
-352.523	-21.650	-0.157	0.094
-351.508	-4.855	-0.070	0.048
-350.493	128.340	0.069	0.086
-349.479	-153.482	0.019	0.001
-348.464	501.511	0.068	0.153
-347.450	-200.000	0.040	-0.221
-346.435	-52.169	0.259	-0.118
-345.420	-47.832	-0.236	-0.112
-344.406	800.000	-0.048	-0.191
-343.391	-120.246	0.177	0.030
-342.377	-77.145	-0.132	-0.045
-341.362	174.001	-0.157	-0.223
-340.348	-200.000	-0.030	0.208
-339.333	-69.739	-0.145	0.054
-338.318	-47.431	0.132	-0.063
-337.304	343.557	0.079	0.152
-336.289	800.000	0.043	-0.122
-335.275	800.000	-0.097	0.289
-334.260	-51.607	0.121	-0.055
-333.245	127.374	-0.112	-0.140
-332.231	-200.000	0.005	0.022
-331.216	-27.515	0.246	0.140
-330.202	640.742	0.086	-0.214
-329.187	612.234	-0.038	0.094
-328.172	133.057	-0.120	0.152
-327.158	-200.000	0.025	-0.295
-326.143	-200.000	0.003	-0.108
-325.129	-32.877	-0.216	-0.118
-324.114	-186.325	0.065	-0.001
-323.099	306.959	-0.187	0.342
-322.085	376.696	0.191	0.382
-321.070	378.213	0.098	-0.197
-320.056	103.292	0.064	-0.074
-319.041	476.986	0.027	-0.059
-318.026	-174.555	-0.155	-0.004
-317.012	1.082	0.047	-0.033
-315.997	-81.240	0.247	0.080
-314.983	-200.000	-0.000	0.098
-313.968	-91.562	-0.040	-0.011
-312.953	93.680	-0.091	0.101
-311.939	16.188	0.111	0.086
-310.924	772.132	0.083	0.221
-309.910	228.288	-0.003	0.005
-308.895	-143.227	0.290	-0.027
-307.880	450.411	-0.088	-0.190
-306.866	-103.282	-0.272	0.063
-305.851	-112.169	-0.360	-0.071
-304.837	609.180	-0.075	-0.183
-303.822	-109.210	0.178	-0.037
-302.807	-78.169	-0.170	-0.057
-301.793	34.890	-0.088	-0.075
-300.778	113.521	0.093	0.110
-299.764	-68.580	0.395	-0.150
-298.749	-83.360	-0.279	0.088
-297.735	4.620	0.225	-0.162
-296.720	-142.196	-0.108	0.010
-295.705	-22.861	0.215	-0.127
-294.691	-36.785	-0.109	-0.057
-293.676	524.459	-0.094	0.216
-292.662	151.321	0.287	0.383
-291.647	-186.410	-0.266	-0.004
-290.632	392.464	-0.130	0.265
-289.618	-200.000	0.068	0.391
-288.603	194.466	0.080	0.119
-287.589	-62.779	0.118	0.048
-286.574	-200.000	0.028	0.179
-285.559	-200.000	-0.059	0.310
-284.545	-200.000	-0.030	0.174
-283.530	-73.579	0.336	-0.120
-282.516	-129.238	-0.069	0.009
-281.501	161.181	0.168	-0.231
-280.486	193.727	-0.100	-0.149
-279.472	-142.776	-0.255	-0.024
-278.457	-46.700	0.225	-0.108
-277.443	800.000	0.033	0.112
-276.428	77.671	0.183	0.191
-275.413	800.000	-0.013	-0.039
-274.399	-200.000	-0.007	0.055
-273.384	185.648	0.112	-0.162
-272.370	-155.551	0.255	0.016
-271.355	276.163	-0.176	0.306
-270.340	-200.000	0.094	0.431
-269.326	-66.143	-0.392	0.153
-268.311	-151.214	-0.272	-0.020
-267.297	762.335	0.070	0.185
-266.282	-129.275	0.202	-0.028
-265.267	-96.406	-0.334	0.087
-264.253	-99.484	0.157	-0.039
-263.238	23.930	-0.086	-0.069
-262.224	-200.000	-0.017	0.275
-261.209	157.899	0.166	0.225
-260.195	-200.000	0.003	0.154
-259.180	-66.761	0.086	0.033
-258.165	-200.000	-0.001	-0.184
-257.151	322.839	0.111	-0.208
-256.136	105.896	-0.076	0.088
-255.122	-106.646	0.508	-0.111
-254.107	-36.288	0.286	0.151
-253.092	-20.161	-0.223	-0.135
-252.078	-16.213	-0.104	0.065
-251.063	-190.505	-0.081	0.001
-250.049	185.695	-0.135	-0.196
-249.034	-54.942	-0.236	0.104
-248.019	-200.000	-0.013	-0.154
-247.005	690.471	-0.101	0.258
-245.990	-200.000	0.050	-0.243
-244.976	365.706	0.082	0.161
-243.961	-114.151	-0.037	0.007
-242.946	-33.217	0.159	0.086
-241.932	20.332	-0.214	-0.169
-240.917	800.000	-0.085	0.230
-239.903	-200.000	0.021	-0.313
-238.888	-77.975	-0.383	0.129
-237.873	800.000	0.071	-0.232
-236.859	15.175	0.211	-0.162
-235.844	-87.453	0.012	0.003
-234.830	-68.212	-0.213	-0.081
-233.815	-82.137	0.052	-0.017
-232.800	133.758	0.021	-0.026
-231.786	148.338	0.211	-0.278
-230.771	-97.541	-0.104	-0.026
-229.757	195.713	0.237	0.353
-228.742	52.651	0.337	0.314
-227.727	-22.291	-0.211	0.125
-226.713	93.024	-0.094	-0.104
-225.698	-200.000	0.024	0.321
-224.684	-200.000	-0.049	0.231
-223.669	-200.000	0.019	0.238
-222.655	-141.238	-0.246	-0.025
-221.640	441.979	-0.095	-0.204
-220.625	-200.000	0.029	-0.184
-219.611	674.439	-0.026	0.066
-218.596	-15.591	0.220	-0.137
-217.582	171.626	0.107	-0.150
-216.567	-153.675	-0.188	-0.013
-215.552	256.141	0.204	0.341
-214.538	92.196	0.122	0.134
-213.523	-19.292	0.136	0.082
-212.509	-200.000	0.057	0.279
-211.494	-31.759	0.098	0.054
-210.479	-66.619	-0.162	0.063
-209.465	672.928	0.072	-0.184
-208.450	-12.004	-0.128	0.082
-207.436	172.126	-0.161	0.226
-206.421	139.991	-0.052	-0.066
-205.406	19.402	-0.147	-0.115
-204.392	284.418	0.057	0.100
-203.377	-194.084	0.286	0.002
-202.363	15.980	-0.141	-0.109
-201.348	56.233	0.115	-0.109
-200.333	-2.945	-0.085	0.058
-199.319	214.283	-0.107	0.165
-198.304	-18.225	-0.170	-0.104
-197.290	-96.420	0.079	-0.020
-196.275	229.097	-0.016	-0.026
-195.260	-194.719	-0.243	0.002
-194.246	91.493	0.070	0.077
-193.231	-44.011	-0.309	-0.152
-192.217	13.358	-0.211	-0.160
-191.202	-200.000	0.035	0.480
-190.187	800.000	0.027	-0.107
-189.173	-200.000	0.040	-0.271
-188.158	-17.643	0.147	-0.090
-187.144	78.033	0.200	0.208
-186.129	800.000	-0.018	0.077
-185.114	73.820	0.180	0.184
-184.100	800.000	-0.090	0.375
-183.085	-21.403	0.173	0.103
-182.071	294.932	-0.071	0.127
-181.056	596.792	0.059	-0.141
-180.042	125.895	-0.085	0.105
-179.027	24.987	0.081	-0.065
-178.012	605.551	0.081	-0.196
-176.998	-68.144	-0.182	0.069
-175.983	-200.000	0.016	0.187
-174.969	800.000	-0.097	-0.348
-173.954	-129.106	0.436	0.059
-172.939	206.165	0.153	0.232
-171.925	-24.161	-0.251	0.146
-170.910	-11.174	0.340	0.219
-169.896	800.000	0.088	0.272
-168.881	800.000	-0.129	-0.515
-167.866	-62.670	-0.113	-0.046
-166.852	57.433	0.047	-0.045
-165.837	-96.890	0.146	-0.037
-164.823	800.000	-0.026	-0.092
-163.808	-81.390	0.141	0.045
-162.793	34.137	0.079	0.067
-161.779	-154.654	0.368	0.024
-160.764	97.898	-0.126	0.141
-159.750	-0.080	-0.084	-0.058
-158.735	-24.948	0.309	-0.179
-157.720	318.681	0.177	-0.326
-156.706	-34.829	0.100	0.053
-155.691	-80.473	0.087	0.028
-154.677	79.969	0.373	-0.391
-153.662	800.000	0.099	-0.387
-152.647	800.000	0.027	-0.088
-151.633	-92.268	-0.363	0.100
-150.618	-23.968	-0.341	-0.199
-149.604	800.000	-0.118	0.321
-148.589	460.084	0.078	-0.169
-147.574	28.994	0.258	-0.213
-146.560	-200.000	0.008	-0.048
-145.545	-36.093	0.027	0.014
-144.531	36.945	-0.267	-0.230
-143.516	-103.154	0.278	0.064
-142.502	-200.000	0.033	0.212
-141.487	-200.000	-0.027	0.329
-140.472	38.519	0.052	-0.045
-139.458	-181.768	0.054	0.001
-138.443	12.118	-0.309	0.232
-137.429	-162.245	0.248	-0.012
-136.414	800.000	0.084	0.319
-135.399	492.201	0.085	0.190
-134.385	-200.000	0.012	0.245
-133.370	-200.000	0.150	-0.000
-132.356	800.000	0.136	0.387
-131.341	356.818	-0.122	0.236
-130.326	-200.000	0.039	-0.464
-129.312	800.000	0.073	0.216
-128.297	108.906	-0.095	0.111
-127.283	-122.206	0.113	-0.018
-126.268	138.764	0.157	-0.201
-125.253	-101.202	-0.261	0.062
-124.239	-200.000	0.013	0.182
-123.224	-200.000	-0.004	0.181
-122.210	-191.079	-0.330	-0.003
-121.195	-200.000	-0.005	-0.138
-120.180	47.691	-0.110	-0.100
-119.166	-45.221	-0.030	0.014
-118.151	-117.830	0.097	0.017
-117.137	133.428	-0.231	-0.291
-116.122	486.326	-0.056	-0.124
-115.107	-200.000	0.011	0.311
-114.093	-200.000	-0.026	0.261
-113.078	394.282	-0.172	0.348
-112.064	800.000	0.025	-0.075
-111.049	25.464	0.149	0.121
-110.034	-7.060	0.101	-0.067
-109.020	66.998	0.044	-0.044
-108.005	485.729	0.059	-0.131
-106.991	-124.058	0.303	0.046
-105.976	-52.135	0.068	0.031
-104.962	277.575	-0.082	0.143
-103.947	-52.278	-0.249	-0.112
-102.932	-200.000	0.030	0.325
-101.918	9.310	-0.143	-0.105
-100.903	27.310	-0.079	-0.064
-99.889	-169.468	0.369	0.013
-98.874	-200.000	-0.022	0.414
-97.859	-200.000	0.016	0.268
-96.845	800.000	-0.051	0.198
-95.830	800.000	-0.075	-0.311
-94.816	-104.622	-0.347	0.078
-93.801	140.108	0.098	0.126
-92.786	586.745	0.122	0.291
-91.772	-41.148	0.139	-0.070
-90.757	-117.790	-0.238	-0.042
-89.743	-169.929	0.181	0.006
-88.728	-40.991	-0.132	0.066
-87.713	75.979	0.236	-0.243
-86.699	-161.618	-0.062	0.003
-85.684	270.817	-0.054	-0.092
-84.670	44.044	-0.422	0.376
-83.655	800.000	-0.047	-0.130
-82.640	-71.363	0.160	-0.058
-81.626	-35.165	-0.591	0.313
-80.611	-200.000	0.066	0.321
-79.597	601.861	-0.077	0.186
-78.582	-200.000	0.000	-0.096
-77.567	-200.000	0.007	-0.042
-76.553	800.000	-0.035	0.097
-75.538	-200.000	0.036	-0.187
-74.524	-95.072	0.222	0.058
-73.509	800.000	0.025	-0.078
-72.494	800.000	-0.017	-0.055
-71.480	-7.319	0.174	-0.115
-70.465	-39.662	0.195	0.099
-69.451	259.909	-0.169	0.283
-68.436	-7.455	0.327	0.215
-67.422	-29.429	-0.142	0.079
-66.407	-200.000	0.030	-0.280
-65.392	-200.000	0.034	-0.216
-64.378	-69.757	-0.124	-0.046
-63.363	-92.379	-0.032	-0.009
-62.349	117.005	0.240	0.286
-61.334	82.693	-1.150	-1.213
-60.319	-12.777	0.804	0.509
-59.305	-200.000	-0.100	-1.400
-58.290	132.697	0.939	1.176
-57.276	474.341	0.668	1.463
-56.261	-200.000	131.020	703.674
-55.246	385.435	1648.012	3300.183
-54.232	135.160	2804.665	3538.898
-53.217	89.536	2303.292	2494.163
-52.203	31.926	1899.221	1588.277
-51.188	25.703	1693.980	1369.408
-50.173	23.551	1655.583	1322.293
-49.159	46.523	1725.787	1554.334
-48.144	43.155	1737.279	1538.970
-47.130	25.313	1687.794	1361.237
-46.115	22.697	1672.341	1329.039
-45.100	22.531	1667.133	1323.599
-44.086	22.516	1664.593	1321.421
-43.071	22.500	1662.046	1319.222
-42.057	22.495	1660.344	1317.780
-41.042	22.493	1658.205	1316.019
-40.027	22.549	1656.775	1315.246
-39.013	22.469	1654.671	1312.931
-37.998	22.567	1652.725	1312.061
-36.984	22.561	1651.502	1310.999
-35.969	22.606	1650.155	1310.211
-34.954	22.685	1648.276	1309.251
-33.940	22.548	1646.537	1306.800
-32.925	22.555	1644.591	1305.258
-31.911	22.616	1643.442	1304.743
-30.896	22.595	1641.999	1303.395
-29.881	22.563	1640.442	1301.866
-28.867	22.626	1638.831	1301.005
-27.852	22.603	1637.352	1299.609
-26.838	22.619	1635.570	1298.263
-25.823	22.644	1634.445	1297.501
-24.809	22.678	1633.130	1296.652
-23.794	22.610	1631.819	1295.060
-22.779	22.657	1630.272	1294.126
-21.765	22.565	1628.942	1292.346
-20.750	22.640	1627.147	1291.422
-19.736	22.647	1625.793	1290.342
-18.721	22.718	1624.513	1289.800
-17.706	22.765	1622.736	1288.682
-16.692	22.600	1621.502	1286.445
-15.677	22.632	1620.214	1285.606
-14.663	22.602	1619.455	1284.732
-13.648	22.812	1617.456	1284.620
-12.633	22.668	1616.365	1282.661
-11.619	22.610	1614.264	1280.519
-10.604	22.650	1612.612	1279.445
-9.590	22.688	1611.834	1279.055
-8.575	22.679	1610.721	1278.054
-7.560	22.732	1609.237	1277.212
-6.546	22.608	1608.426	1275.623
-5.531	22.670	1607.129	1274.992
-4.517	22.648	1605.822	1273.741
-3.502	22.614	1605.338	1273.066
-2.487	22.711	1603.353	1272.137
-1.473	22.172	1590.889	1258.339
-0.458	19.002	1570.944	1220.069
0.556	14.208	1572.663	1187.177
1.571	11.816	1596.178	1187.488
2.586	11.513	1607.882	1193.873
3.600	10.830	1554.348	1149.193
4.615	6.211	1450.044	1041.452
5.629	1.646	1393.429	971.606
6.644	0.835	1386.644	961.633
7.659	0.724	1385.857	960.297
8.673	0.690	1384.859	959.309
9.688	0.691	1382.499	957.595
10.702	0.531	1379.086	954.133
11.717	2.879	1381.553	970.611
12.731	9.089	1391.291	1016.802
13.746	15.071	1400.605	1061.555
14.761	17.179	1403.045	1076.686
15.775	16.719	1401.315	1072.349
16.790	15.730	1398.296	1063.689
17.804	15.021	1396.034	1057.399
18.819	14.627	1394.444	1053.615
19.834	14.406	1393.605	1051.489
20.848	14.049	1392.423	1048.254
21.863	13.882	1390.878	1045.947
22.877	13.777	1389.540	1044.191
23.892	13.753	1388.433	1043.112
24.907	13.660	1387.836	1041.987
25.921	13.673	1386.993	1041.343
26.936	13.742	1385.869	1040.841
27.950	13.773	1384.946	1040.252
28.965	13.744	1384.181	1039.400
29.980	13.879	1383.017	1039.283
30.994	13.954	1382.048	1038.929
32.009	13.834	1381.571	1037.733
33.023	13.791	1380.531	1036.588
34.038	13.805	1379.621	1035.900
35.053	13.903	1377.865	1035.104
36.067	13.768	1377.247	1033.705
37.082	13.804	1376.350	1033.164
38.096	13.835	1375.467	1032.604
39.111	13.847	1374.315	1031.719
40.126	13.796	1373.235	1030.503
41.140	13.622	1373.200	1029.304
42.155	13.646	1372.140	1028.570
43.169	13.743	1372.343	1029.228
44.184	13.675	1372.226	1028.632
45.199	13.756	1371.654	1028.612
46.213	13.731	1370.758	1027.697
47.228	13.722	1369.996	1026.977
48.242	13.784	1368.520	1026.163
49.257	13.744	1367.735	1025.237
50.271	13.649	1366.012	1023.266
51.286	13.766	1364.331	1022.639
52.301	13.762	1363.249	1021.715
53.315	13.714	1362.266	1020.589
54.330	13.712	1361.392	1019.834
55.344	13.732	1359.548	1018.482
56.359	13.674	1358.388	1017.167
57.374	13.708	1357.684	1016.760
58.388	13.600	1357.348	1015.756
59.403	13.629	1356.120	1014.926
60.417	13.660	1356.072	1014.987
61.432	13.538	1355.131	1013.449
62.447	13.613	1353.613	1012.685
63.461	13.630	1352.454	1011.829
64.476	13.649	1351.510	1011.150
65.490	13.644	1350.498	1010.272
66.505	13.505	1348.699	1007.989
67.520	13.615	1347.609	1007.754
68.534	13.657	1346.480	1007.079
69.549	13.619	1345.432	1005.975
70.563	13.694	1343.737	1005.071
71.578	13.600	1343.104	1003.940
72.593	13.676	1341.887	1003.405
73.607	13.548	1341.362	1002.147
74.622	13.538	1341.082	1001.791
75.636	13.591	1339.839	1001.092
76.651	13.607	1339.250	1000.662
77.666	13.512	1338.707	999.592
78.680	13.563	1338.421	999.596
79.695	13.605	1336.966	998.678
80.709	13.595	1336.409	998.108
81.724	13.669	1335.325	997.658
82.739	13.646	1334.151	996.555
83.753	13.706	1333.875	996.624
84.768	13.820	1332.532	996.212
85.782	13.764	1330.999	994.644
86.797	13.770	1329.586	993.536
87.812	13.822	1328.423	992.888
88.826	13.677	1327.503	991.247
89.841	13.801	1325.908	990.711
90.855	13.813	1325.230	990.186
91.870	13.869	1324.402	989.812
92.884	13.754	1323.925	988.687
93.899	13.875	1323.133	988.730
94.914	13.894	1322.371	988.182
95.928	13.888	1321.092	987.106
96.943	13.917	1320.279	986.584
97.957	13.851	1319.792	985.741
98.972	13.806	1318.735	984.594
99.987	13.834	1317.337	983.630
101.001	13.861	1316.205	982.859
102.016	13.880	1315.310	982.214
103.030	13.883	1314.577	981.598
104.045	13.886	1313.334	980.603
105.060	13.835	1312.295	979.435
106.074	13.761	1311.343	978.204
107.089	13.649	1309.841	976.335
108.103	13.668	1308.427	975.310
109.118	13.748	1306.758	974.450
110.133	13.712	1306.059	973.631
111.147	13.728	1304.373	972.378
112.162	13.716	1303.478	971.554
113.176	13.742	1302.089	970.586
114.191	13.711	1301.481	969.869
115.206	13.791	1300.275	969.349
116.220	13.769	1298.829	968.056
117.235	13.841	1297.686	967.541
118.249	13.819	1296.797	966.664
119.264	13.739	1295.804	965.370
120.279	13.734	1294.871	964.562
121.293	13.741	1293.667	963.619
122.308	13.751	1292.581	962.784
123.322	13.725	1291.198	961.522
124.337	13.789	1290.538	961.313
125.352	13.682	1289.922	960.151
126.366	13.795	1288.067	959.336
127.381	13.699	1287.526	958.297
128.395	13.755	1286.048	957.436
129.410	13.793	1285.210	956.943
130.424	13.716	1284.621	955.976
131.439	13.841	1283.377	955.688
132.454	13.774	1282.561	954.611
133.468	13.785	1281.386	953.712
134.483	13.864	1280.454	953.388
135.497	13.748	1279.812	952.160
136.512	13.828	1278.519	951.571
137.527	13.676	1277.229	949.655
138.541	13.840	1275.621	949.313
139.556	13.941	1273.967	948.576
140.570	13.835	1273.632	947.641
141.585	13.894	1272.211	946.832
142.600	14.059	1270.780	946.627
143.614	13.909	1270.487	945.471
144.629	13.935	1269.214	944.589
145.643	13.979	1268.047	943.887
146.658	13.906	1266.778	942.440
147.673	14.114	1264.983	942.200
148.687	13.908	1264.560	940.638
149.702	13.958	1262.891	939.597
150.716	13.906	1261.932	938.503
151.731	13.952	1260.422	937.559
152.746	13.944	1259.436	936.696
153.760	13.887	1258.406	935.524
154.775	14.055	1257.259	935.535
155.789	14.029	1256.041	934.400
156.804	14.045	1255.144	933.744
157.819	14.137	1253.808	933.183
158.833	14.091	1253.203	932.393
159.848	14.166	1252.334	932.080
160.862	14.110	1251.441	931.024
161.877	14.140	1250.278	930.241
162.892	14.150	1248.898	929.189
163.906	14.031	1248.454	928.110
164.921	14.107	1247.375	927.653
165.935	14.151	1246.280	927.002
166.950	14.198	1245.418	926.539
167.964	14.166	1244.395	925.518
168.979	14.117	1244.150	924.978
169.994	14.152	1243.048	924.274
171.008	14.162	1242.494	923.835
172.023	14.102	1241.990	923.048
173.037	14.288	1240.562	922.935
174.052	14.261	1239.769	922.113
175.067	14.182	1238.621	920.738
176.081	14.147	1237.812	919.862
177.096	14.143	1236.842	919.040
178.110	14.218	1235.601	918.448
179.125	14.151	1234.209	916.963
180.140	14.140	1233.373	916.203
181.154	14.200	1232.509	915.807
182.169	14.436	1230.379	915.440
183.183	14.429	1229.577	914.727
184.198	14.391	1228.296	913.482
185.213	14.375	1227.446	912.684
186.227	14.420	1226.222	911.939
187.242	14.396	1225.090	910.885
188.256	14.557	1224.133	910.974
189.271	14.434	1223.775	909.955
190.286	14.327	1222.480	908.329
191.300	14.263	1221.715	907.327
192.315	14.264	1221.224	906.889
193.329	14.189	1220.558	905.907
194.344	14.338	1219.839	906.103
195.359	14.356	1219.028	905.521
196.373	14.480	1218.416	905.658
197.388	14.429	1218.089	905.056
198.402	14.446	1217.412	904.569
199.417	14.599	1216.386	904.553
200.432	14.622	1215.368	903.838
201.446	14.662	1214.566	903.378
202.461	14.613	1213.713	902.400
203.475	14.701	1212.665	902.017
204.490	14.660	1211.173	900.608
205.504	14.651	1210.175	899.736
206.519	14.500	1209.524	898.362
207.534	14.559	1208.463	897.811
208.548	14.548	1207.073	896.638
209.563	14.574	1206.683	896.409
210.577	14.663	1205.602	896.003
211.592	14.739	1204.679	895.645
212.607	14.777	1203.826	895.139
213.621	14.786	1202.722	894.287
214.636	14.683	1202.238	893.294
215.650	14.768	1201.331	892.998
216.665	14.834	1200.019	892.293
217.680	14.840	1198.918	891.430
218.694	14.885	1198.315	891.141
219.709	14.937	1197.543	890.765
220.723	14.878	1197.074	890.025
221.738	14.773	1196.308	888.817
222.753	14.855	1195.590	888.643
223.767	14.971	1194.798	888.589
224.782	14.921	1193.996	887.652
225.796	14.956	1193.415	887.322
226.811	14.998	1192.243	886.599
227.826	14.885	1192.197	885.885
228.840	15.053	1191.144	885.913
229.855	14.917	1190.787	884.850
230.869	14.982	1189.757	884.352
231.884	15.031	1188.601	883.674
232.899	14.994	1188.381	883.237
233.913	15.001	1187.967	882.884
234.928	15.059	1186.949	882.357
235.942	15.001	1186.480	881.624
236.957	14.933	1185.314	880.320
237.972	14.884	1184.855	879.645
238.986	15.022	1183.906	879.591
240.001	15.027	1183.383	879.149
241.015	15.140	1182.068	878.687
242.030	15.116	1181.223	877.854
243.045	15.037	1180.842	877.078
244.059	15.157	1179.627	876.727
245.074	15.141	1178.854	875.994
246.088	15.106	1178.412	875.403
247.103	15.204	1177.010	874.797
248.117	15.234	1176.500	874.498
249.132	15.360	1175.591	874.398
250.147	15.339	1175.049	873.810
251.161	15.379	1174.400	873.456
252.176	15.412	1173.636	872.986
253.190	15.421	1173.310	872.713
254.205	15.357	1172.704	871.852
255.220	15.506	1171.935	871.978
256.234	15.430	1171.324	871.048
257.249	15.494	1170.804	870.919
258.263	15.549	1169.721	870.321
259.278	15.519	1169.279	869.758
260.293	15.565	1168.600	869.415
261.307	15.571	1167.688	868.691
262.322	15.730	1166.919	868.863
263.336	15.648	1166.703	868.204
264.351	15.521	1166.212	867.105
265.366	15.685	1165.431	867.295
266.380	15.694	1164.192	866.341
267.395	15.564	1163.476	865.061
268.409	15.706	1162.836	865.239
269.424	15.508	1162.751	864.079
270.439	15.681	1161.853	864.227
271.453	15.685	1160.973	863.517
272.468	15.691	1160.053	862.784
273.482	15.635	1159.511	862.019
274.497	15.618	1158.757	861.295
275.512	15.730	1158.408	861.535
276.526	15.573	1157.612	860.062
277.541	15.641	1156.828	859.754
278.555	15.794	1156.492	860.208
279.570	15.763	1154.862	858.762
280.585	15.766	1154.438	858.388
281.599	15.960	1152.982	858.218
282.614	15.828	1152.339	856.989
283.628	15.775	1151.170	855.772
284.643	15.901	1150.483	855.825
285.657	15.915	1149.519	855.109
286.672	15.925	1148.589	854.388
287.687	15.994	1147.380	853.762
288.701	15.972	1146.751	853.109
289.716	15.895	1146.105	852.161
290.730	15.949	1145.369	851.814
291.745	15.912	1145.083	851.338
292.760	15.990	1144.250	851.038
293.774	16.072	1143.336	850.696
294.789	16.049	1143.015	850.264
295.803	16.131	1142.148	849.958
296.818	16.109	1141.759	849.482
297.833	16.054	1140.708	848.351
298.847	16.140	1139.929	848.126
299.862	16.133	1139.035	847.354
300.876	16.126	1138.377	846.752
301.891	16.208	1137.740	846.617
302.906	16.128	1137.245	845.770
303.920	16.199	1136.258	845.319
304.935	16.268	1135.716	845.187
305.949	16.340	1135.076	844.996
306.964	16.350	1134.186	844.307
307.979	16.212	1133.574	843.087
308.993	16.281	1133.068	842.982
310.008	16.308	1131.979	842.230
311.022	16.411	1131.276	842.150
312.037	16.276	1131.103	841.270
313.052	16.262	1129.752	840.121
314.066	16.289	1128.881	839.535
315.081	16.308	1127.940	838.858
316.095	16.279	1127.348	838.196
317.110	16.258	1126.873	837.664
318.125	16.199	1125.891	836.569
319.139	16.258	1125.091	836.191
320.154	16.361	1124.442	836.144
321.168	16.268	1124.045	835.317
322.183	16.413	1123.279	835.390
323.197	16.457	1122.378	834.864
324.212	16.312	1122.119	833.883
325.227	16.439	1121.496	833.970
326.241	16.382	1120.995	833.244
327.256	16.372	1119.917	832.319
328.270	16.413	1118.941	831.721
329.285	16.539	1118.007	831.576
330.300	16.420	1116.902	830.096
331.314	16.496	1116.084	829.785
332.329	16.395	1115.358	828.676
333.343	16.404	1114.753	828.199
334.358	16.504	1113.688	827.824
335.373	16.577	1112.803	827.451
336.387	16.710	1112.390	827.719
337.402	16.545	1111.536	826.203
338.416	16.593	1110.833	825.845
339.431	16.700	1110.117	825.761
340.446	16.647	1109.736	825.148
341.460	16.713	1108.828	824.716
342.475	16.831	1107.593	824.299
343.489	16.745	1107.091	823.434
344.504	16.795	1106.152	822.909
345.519	16.927	1105.024	822.637
346.533	16.893	1104.335	821.885
347.548	16.796	1103.775	820.928
348.562	16.838	1103.553	820.893
349.577	16.903	1102.530	820.374
350.592	16.887	1101.418	819.396
351.606	16.811	1100.739	818.452
352.621	16.818	1099.847	817.750
353.635	16.944	1099.367	817.927
354.650	16.722	1098.933	816.464
355.665	16.855	1097.867	816.239
356.679	16.879	1097.449	815.969
357.694	16.922	1096.594	815.467
358.708	16.921	1095.949	814.912
359.723	16.977	1095.407	814.707
360.738	16.997	1094.994	814.422
361.752	17.064	1094.131	814.030
362.767	17.105	1093.408	813.617
363.781	17.010	1093.058	812.831
364.796	17.049	1092.515	812.539
365.810	17.180	1091.832	812.588
366.825	17.185	1091.197	812.066
367.840	17.139	1090.803	811.484
368.854	17.197	1089.840	810.970
369.869	17.208	1089.003	810.331
370.883	17.276	1088.181	809.971
371.898	17.282	1087.689	809.560
372.913	17.192	1087.174	808.677
373.927	17.257	1086.655	808.530
374.942	17.324	1086.065	808.337
375.956	17.284	1085.366	807.553
376.971	17.337	1084.454	807.054
377.986	17.280	1084.235	806.554
379.000	17.212	1084.020	805.999
380.015	17.438	1083.039	806.268
381.029	17.424	1082.621	805.820
382.044	17.414	1082.119	805.325
383.059	17.437	1081.068	804.580
384.073	17.542	1080.236	804.389
385.088	17.370	1079.291	802.800
386.102	17.486	1078.392	802.609
387.117	17.486	1077.385	801.787
388.132	17.429	1076.640	800.892
389.146	17.466	1075.896	800.442
390.161	17.452	1075.155	799.758
391.175	17.497	1074.241	799.215
392.190	17.473	1073.647	798.592
393.205	17.549	1073.065	798.446
394.219	17.552	1072.128	797.691
395.234	17.591	1071.420	797.273
396.248	17.685	1069.934	796.537
397.263	17.496	1069.458	795.230
398.278	17.586	1068.817	795.104
399.292	17.473	1068.261	794.092
400.307	17.597	1067.442	793.993
401.321	17.563	1066.834	793.310
402.336	17.673	1066.001	793.133
403.350	17.630	1065.035	792.146
404.365	17.588	1064.609	791.561
405.380	17.700	1063.857	791.453
406.394	17.681	1063.287	790.872
407.409	17.818	1062.428	790.799
408.423	17.774	1062.024	790.222
409.438	17.891	1060.760	789.755
410.453	17.803	1060.209	788.868
411.467	17.937	1059.595	788.959
412.482	17.943	1059.152	788.589
413.496	17.869	1058.234	787.493
414.511	17.972	1057.730	787.524
415.526	17.975	1057.505	787.298
416.540	17.992	1056.974	786.912
417.555	17.922	1056.645	786.277
418.569	18.012	1055.845	786.027
419.584	18.069	1055.372	785.867
420.599	18.047	1054.638	785.146
421.613	110.005	1331.008	1491.448
422.628	101.439	1371.218	1491.535
