DTS Sentinel unit serial number:	SN413079Multiplexer serial number:	ORYXHardware model number:	OX4-SRSoftware version number:	ORYX F/W v4.00 Oryx Data Collector v3.7.2.0data status	okinstallation	princeton_trtdifferential loss correction	single-endedforward channel	channel 2reverse channel	N/Adate	2019/09/17time	01:43:35forward acquisition time	60.00reverse acquisition time	0.00gamma	496.2192k internal	0.2328k external	0.2328temperature offset calibration	0.9978default loss term (dB/km)	0.3790temperature slope calibration	1.0000multiplexer offset coefficient	1.0000multiplexer slope coefficient	1.0000fibre end	0.00T internal ref (°C)	29.56T ext. ref 1 (°C)	0.12T ext. ref 2 (°C)	24.55length (m)	temperature (°C)	Stokes	anti-Stokes-747.200	218.095	-0.164	0.264
-746.185	-200.000	0.018	0.090
-745.171	-200.000	0.034	-0.224
-744.156	58.866	0.043	-0.042
-743.142	-78.871	0.130	-0.045
-742.127	348.090	-0.111	0.220
-741.112	-200.000	-0.050	0.259
-740.098	-74.806	-0.240	-0.087
-739.083	-200.000	-0.102	-0.516
-738.069	-200.000	0.043	0.277
-737.054	56.480	0.251	0.246
-736.039	-83.822	-0.249	-0.080
-735.025	-16.844	-0.308	0.196
-734.010	-145.753	-0.237	0.021
-732.996	800.000	-0.068	-0.197
-731.981	-92.686	-0.044	0.013
-730.966	-141.857	-0.169	-0.017
-729.952	-200.000	-0.002	-0.411
-728.937	-200.000	0.048	0.274
-727.923	142.061	-0.115	-0.154
-726.908	800.000	-0.031	0.116
-725.894	800.000	-0.039	0.162
-724.879	452.569	0.209	0.466
-723.864	380.833	0.023	-0.048
-722.850	-14.165	0.098	-0.064
-721.835	109.932	0.052	0.063
-720.821	800.000	-0.125	-0.403
-719.806	-200.000	-0.005	-0.214
-718.791	41.769	-0.114	0.104
-717.777	800.000	-0.068	-0.254
-716.762	-47.052	-0.202	-0.099
-715.748	-200.000	0.048	-0.238
-714.733	-188.900	0.145	-0.002
-713.718	712.723	-0.119	-0.317
-712.704	-31.473	-0.209	-0.118
-711.689	651.395	-0.177	-0.457
-710.675	142.298	0.167	-0.223
-709.660	-18.876	-0.137	0.086
-708.645	-11.691	-0.113	-0.075
-707.631	581.966	0.063	0.155
-706.616	39.873	0.042	-0.038
-705.602	-73.044	0.026	0.010
-704.587	-154.352	0.327	-0.022
-703.572	256.953	-0.131	0.227
-702.558	800.000	0.072	-0.236
-701.543	535.173	-0.077	-0.183
-700.529	800.000	-0.062	0.196
-699.514	-29.433	-0.121	-0.069
-698.499	800.000	-0.045	-0.141
-697.485	-200.000	0.032	-0.332
-696.470	-90.216	-0.292	0.085
-695.456	437.885	0.063	0.137
-694.441	90.721	-0.119	-0.134
-693.426	-200.000	-0.005	0.116
-692.412	800.000	0.068	-0.210
-691.397	-62.585	0.207	0.087
-690.383	92.166	0.123	0.140
-689.368	55.713	-0.247	-0.241
-688.354	-7.084	0.270	0.184
-687.339	577.837	-0.109	0.269
-686.324	12.802	0.147	0.114
-685.310	681.037	0.020	-0.053
-684.295	-8.399	0.571	0.386
-683.281	-200.000	-0.054	0.331
-682.266	-138.953	-0.243	0.027
-681.251	-200.000	0.043	-0.377
-680.237	516.431	0.044	-0.103
-679.222	26.348	0.061	0.051
-678.208	800.000	-0.024	0.088
-677.193	138.157	0.219	-0.289
-676.178	319.818	0.102	-0.195
-675.164	-64.086	0.406	-0.166
-674.149	10.615	-0.087	0.066
-673.135	-200.000	0.008	0.200
-672.120	-200.000	-0.030	-0.435
-671.105	158.493	0.107	0.149
-670.091	-38.549	0.211	-0.112
-669.076	270.805	0.194	0.343
-668.062	659.490	0.085	0.220
-667.047	335.552	0.031	-0.060
-666.032	-54.352	-0.261	-0.119
-665.018	-67.458	-0.368	0.145
-664.003	-62.300	0.290	-0.121
-662.989	58.962	-0.142	-0.140
-661.974	263.573	-0.092	-0.160
-660.959	-125.424	-0.462	0.071
-659.945	-81.857	-0.311	0.102
-658.930	-37.180	-0.206	-0.111
-657.916	-110.454	0.286	-0.060
-656.901	-121.223	-0.327	-0.055
-655.886	-134.886	0.140	0.017
-654.872	-83.346	0.416	0.134
-653.857	-112.296	0.044	0.009
-652.843	167.116	-0.033	-0.047
-651.828	-9.196	0.044	0.030
-650.814	62.342	-0.026	-0.026
-649.799	800.000	-0.205	0.608
-648.784	134.673	-0.192	0.250
-647.770	109.445	0.140	-0.168
-646.755	5.970	-0.081	-0.060
-645.741	401.878	-0.103	-0.218
-644.726	-155.974	-0.151	0.010
-643.711	115.684	0.135	-0.166
-642.697	674.674	0.032	-0.083
-641.682	269.615	0.063	0.111
-640.668	62.695	-0.101	-0.101
-639.653	616.068	0.078	0.195
-638.638	-200.000	-0.019	-0.098
-637.624	-139.428	-0.244	0.026
-636.609	-29.847	0.188	-0.108
-635.595	-19.105	0.248	0.155
-634.580	659.774	-0.075	0.193
-633.565	800.000	0.036	-0.132
-632.551	-200.000	0.011	-0.168
-631.536	-18.579	0.097	-0.061
-630.522	-75.943	-0.123	0.044
-629.507	-67.826	-0.369	0.145
-628.492	-112.789	-0.160	0.032
-627.478	172.576	0.033	-0.047
-626.463	-99.661	-0.217	0.055
-625.449	-98.161	0.466	-0.120
-624.434	227.371	0.097	-0.158
-623.419	800.000	-0.119	0.341
-622.405	-200.000	-0.023	0.241
-621.390	-53.544	0.107	0.049
-620.376	-200.000	-0.038	0.246
-619.361	59.577	-0.249	-0.246
-618.346	-66.336	0.153	0.061
-617.332	119.210	-0.160	0.198
-616.317	-92.283	-0.317	-0.090
-615.303	800.000	0.039	-0.170
-614.288	-102.174	0.133	-0.032
-613.273	-30.935	-0.232	0.132
-612.259	-16.924	0.125	-0.079
-611.244	67.220	-0.269	-0.275
-610.230	702.777	0.076	0.202
-609.215	-54.343	-0.148	0.067
-608.201	5.147	0.092	0.068
-607.186	-71.606	0.401	-0.150
-606.171	-80.111	0.150	0.050
-605.157	15.502	-0.358	0.282
-604.142	800.000	0.075	0.213
-603.128	-200.000	-0.034	0.213
-602.113	10.105	-0.177	-0.135
-601.098	383.737	0.118	0.243
-600.084	-200.000	0.011	0.133
-599.069	-200.000	-0.004	0.039
-598.055	-38.318	0.159	-0.084
-597.040	-147.613	-0.210	0.018
-596.025	138.916	-0.144	-0.190
-595.011	44.488	-0.150	0.138
-593.996	-41.940	0.465	0.239
-592.982	-29.863	0.207	0.118
-591.967	-50.844	0.293	0.138
-590.952	74.782	-0.162	-0.171
-589.938	-200.000	-0.009	-0.110
-588.923	82.484	0.111	0.121
-587.909	-95.062	-0.299	0.081
-586.894	29.384	-0.166	-0.141
-585.879	168.899	-0.253	-0.361
-584.865	800.000	-0.033	-0.100
-583.850	-58.306	-0.047	0.020
-582.836	-200.000	-0.028	-0.236
-581.821	-119.453	-0.176	0.031
-580.806	42.062	-0.048	-0.044
-579.792	-32.553	-0.187	-0.104
-578.777	-47.016	-0.501	0.245
-577.763	-1.150	-0.162	0.114
-576.748	345.107	0.135	0.265
-575.733	508.214	-0.125	0.291
-574.719	-133.286	-0.103	0.013
-573.704	800.000	0.053	0.152
-572.690	279.315	0.090	0.161
-571.675	194.731	0.044	0.067
-570.661	-200.000	0.015	0.132
-569.646	-200.000	-0.003	0.161
-568.631	463.841	0.110	-0.247
-567.617	21.611	-0.030	0.024
-566.602	-200.000	-0.046	0.326
-565.588	-200.000	0.040	0.299
-564.573	-200.000	0.020	-0.477
-563.558	34.643	-0.027	-0.023
-562.544	-28.090	0.137	0.079
-561.529	161.574	0.132	-0.185
-560.515	49.575	-0.124	-0.117
-559.500	-143.631	-0.307	0.029
-558.485	-3.698	-0.275	-0.191
-557.471	71.605	0.239	-0.249
-556.456	10.162	0.228	0.173
-555.442	11.277	0.093	0.071
-554.427	508.450	0.141	-0.329
-553.412	82.952	-0.137	-0.150
-552.398	33.957	-0.110	-0.096
-551.383	153.559	0.200	-0.274
-550.369	-200.000	0.018	0.181
-549.354	17.517	-0.017	-0.014
-548.339	39.459	0.111	-0.099
-547.325	-64.074	0.094	0.039
-546.310	38.247	0.040	0.035
-545.296	-146.214	-0.226	0.020
-544.281	-165.408	-0.126	0.005
-543.266	-200.000	-0.003	0.052
-542.252	-200.000	-0.009	0.373
-541.237	520.444	-0.153	0.360
-540.223	-116.441	-0.468	0.086
-539.208	207.283	-0.183	0.286
-538.193	-45.784	-0.154	-0.076
-537.179	-5.791	0.174	-0.119
-536.164	101.012	-0.137	-0.159
-535.150	-200.000	0.013	-0.339
-534.135	571.914	0.144	0.351
-533.121	-182.403	-0.324	-0.006
-532.106	257.198	0.064	0.110
-531.091	-200.000	0.014	0.064
-530.077	-16.297	-0.141	-0.089
-529.062	-26.177	0.307	0.180
-528.048	145.734	-0.231	0.310
-527.033	339.570	-0.095	0.184
-526.018	-90.626	0.114	0.033
-525.004	800.000	0.048	0.160
-523.989	-200.000	0.005	-0.063
-522.975	-200.000	0.027	-0.126
-521.960	-84.663	0.206	-0.065
-520.945	349.618	0.052	0.103
-519.931	749.655	-0.100	0.270
-518.916	-4.139	-0.028	0.019
-517.902	-61.453	0.100	0.042
-516.887	800.000	-0.053	-0.227
-515.872	-115.368	0.299	0.056
-514.858	-129.565	-0.407	-0.056
-513.843	-200.000	0.067	-0.550
-512.829	-95.960	0.252	-0.067
-511.814	96.402	-0.103	0.117
-510.799	-66.552	-0.305	-0.121
-509.785	99.507	-0.174	0.201
-508.770	-200.000	-0.003	-0.202
-507.756	-200.000	0.016	0.219
-506.741	570.115	-0.071	0.173
-505.726	-200.000	0.047	0.332
-504.712	-200.000	0.014	0.102
-503.697	136.206	0.233	-0.304
-502.683	-32.005	0.108	-0.060
-501.668	-22.218	0.254	-0.154
-500.653	163.544	0.171	0.241
-499.639	-200.000	-0.004	-0.053
-498.624	92.406	-0.077	-0.087
-497.610	416.765	-0.047	-0.099
-496.595	6.818	-0.376	-0.280
-495.581	-200.000	0.033	-0.315
-494.566	59.410	0.120	0.118
-493.551	-200.000	-0.017	-0.118
-492.537	-95.851	-0.407	0.108
-491.522	-54.968	0.117	0.053
-490.508	800.000	0.072	-0.229
-489.493	145.483	0.047	-0.063
-488.478	-200.000	0.000	-0.182
-487.464	510.261	-0.074	-0.172
-486.449	625.558	0.042	-0.106
-485.435	-69.741	0.081	-0.031
-484.420	-200.000	0.047	0.243
-483.405	761.243	-0.051	-0.138
-482.391	211.063	0.151	-0.237
-481.376	-77.139	-0.463	-0.161
-480.362	211.252	-0.118	-0.185
-479.347	800.000	-0.090	0.284
-478.332	-13.247	0.021	-0.014
-477.318	800.000	-0.082	-0.280
-476.303	255.649	0.141	-0.242
-475.289	-89.723	0.403	0.118
-474.274	-113.254	0.288	-0.057
-473.259	99.517	0.052	-0.059
-472.245	-200.000	-0.033	0.283
-471.230	-135.494	0.236	0.028
-470.216	-28.816	-0.200	0.115
-469.201	-200.000	0.020	-0.227
-468.186	-200.000	-0.062	-0.350
-467.172	26.692	-0.177	0.148
-466.157	11.371	-0.268	-0.204
-465.143	-77.479	-0.112	-0.039
-464.128	-200.000	0.045	0.209
-463.113	245.888	0.021	-0.036
-462.099	46.164	0.198	-0.183
-461.084	-200.000	-0.045	-0.475
-460.070	361.646	0.042	0.085
-459.055	220.158	-0.175	-0.279
-458.040	-39.021	-0.227	-0.119
-457.026	-56.941	0.292	0.128
-456.011	-42.092	0.191	0.097
-454.997	-184.849	0.159	-0.003
-453.982	6.821	0.157	0.117
-452.968	800.000	0.123	-0.410
-451.953	-200.000	0.012	0.142
-450.938	800.000	0.053	-0.218
-449.924	-114.679	0.097	0.018
-448.909	-91.458	-0.101	-0.029
-447.895	800.000	0.055	0.155
-446.880	-76.006	0.259	0.091
-445.865	-28.665	-0.290	0.167
-444.851	-200.000	0.015	0.377
-443.836	-102.627	0.310	-0.074
-442.822	-100.268	-0.291	-0.072
-441.807	36.921	0.042	0.037
-440.792	-194.370	0.168	0.001
-439.778	-48.093	-0.146	-0.070
-438.763	68.403	0.192	0.196
-437.749	-6.806	-0.100	-0.068
-436.734	800.000	0.081	0.314
-435.719	6.604	0.155	0.115
-434.705	97.044	0.149	0.170
-433.690	35.080	-0.121	0.105
-432.676	-200.000	-0.005	0.186
-431.661	214.553	-0.106	-0.167
-430.646	-127.358	0.233	-0.034
-429.632	-170.621	-0.100	-0.003
-428.617	800.000	-0.095	-0.262
-427.603	-200.000	-0.016	0.080
-426.588	91.074	-0.194	0.217
-425.573	140.836	-0.128	0.168
-424.559	-200.000	-0.021	0.131
-423.544	-97.064	0.275	-0.072
-422.530	-6.172	0.096	0.065
-421.515	-200.000	0.042	0.265
-420.500	506.589	-0.014	-0.033
-419.486	20.351	0.178	-0.143
-418.471	67.197	-0.260	-0.264
-417.457	594.531	0.048	-0.119
-416.442	-161.692	-0.082	0.004
-415.428	-84.626	-0.090	-0.028
-414.413	2.789	-0.176	0.127
-413.398	374.124	-0.070	0.142
-412.384	-162.920	0.304	0.015
-411.369	800.000	0.044	0.124
-410.355	-3.883	-0.098	-0.068
-409.340	-55.905	0.159	-0.071
-408.325	-92.873	0.093	-0.026
-407.311	-200.000	0.014	-0.062
-406.296	-200.000	0.026	-0.185
-405.282	129.973	-0.086	0.109
-404.267	-200.000	-0.030	-0.210
-403.252	-6.540	0.174	0.118
-402.238	-90.240	0.258	-0.074
-401.223	220.365	0.119	0.190
-400.209	-200.000	0.048	-0.374
-399.194	800.000	0.060	0.231
-398.179	101.331	0.189	0.219
-397.165	800.000	0.050	0.178
-396.150	-102.067	0.145	-0.035
-395.136	-56.273	0.221	0.098
-394.121	100.036	-0.163	0.188
-393.106	-101.978	0.311	-0.075
-392.092	800.000	-0.055	0.181
-391.077	-200.000	0.057	0.409
-390.063	230.657	-0.057	-0.093
-389.048	-200.000	0.048	-0.306
-388.033	128.606	-0.077	0.098
-387.019	-55.688	0.107	0.047
-386.004	3.853	0.182	-0.132
-384.990	-22.645	0.148	0.089
-383.975	243.849	0.167	-0.279
-382.960	78.416	-0.188	0.199
-381.946	0.557	-0.161	0.114
-380.931	121.305	0.213	-0.263
-379.917	-19.924	0.117	0.072
-378.902	-101.876	-0.108	-0.026
-377.888	-180.130	0.162	-0.003
-376.873	372.768	-0.027	-0.055
-375.858	-200.000	0.016	-0.261
-374.844	-0.917	0.042	-0.029
-373.829	-200.000	0.017	0.407
-372.815	-60.225	-0.333	0.141
-371.800	323.272	0.148	-0.280
-370.785	67.581	0.263	-0.266
-369.771	-200.000	-0.021	-0.197
-368.756	81.140	-0.084	0.090
-367.742	-48.550	0.121	-0.058
-366.727	56.045	0.093	-0.089
-365.712	455.693	-0.056	-0.124
-364.698	-70.672	-0.186	0.070
-363.683	-90.905	-0.216	-0.062
-362.669	334.924	-0.030	0.057
-361.654	75.997	-0.339	-0.356
-360.639	595.610	0.074	0.182
-359.625	237.720	0.092	0.152
-358.610	-200.000	-0.012	-0.359
-357.596	-133.028	0.055	0.007
-356.581	-200.000	-0.021	-0.165
-355.566	137.624	0.099	0.128
-354.552	92.586	0.157	0.176
-353.537	-200.000	-0.071	0.335
-352.523	-129.100	0.096	0.013
-351.508	800.000	0.071	0.306
-350.493	-161.843	-0.122	-0.006
-349.479	-200.000	0.004	-0.147
-348.464	602.939	0.075	-0.184
-347.450	-106.133	-0.360	0.080
-346.435	800.000	0.079	-0.240
-345.420	-106.792	0.166	-0.037
-344.406	800.000	0.088	-0.306
-343.391	-151.240	-0.346	-0.026
-342.377	47.254	0.031	-0.028
-341.362	-200.000	-0.029	0.355
-340.348	-71.821	-0.332	-0.123
-339.333	8.761	0.120	-0.089
-338.318	-200.000	0.003	0.257
-337.304	-45.363	0.071	-0.035
-336.289	-20.939	-0.012	-0.007
-335.275	336.140	-0.143	0.276
-334.260	-153.493	0.202	0.014
-333.245	-130.827	-0.311	-0.041
-332.231	267.875	-0.058	-0.100
-331.216	-121.843	-0.088	0.014
-330.202	-166.750	0.095	-0.004
-329.187	-95.560	0.189	-0.050
-328.172	-29.083	-0.145	0.082
-327.158	206.584	-0.110	-0.170
-326.143	-30.779	0.102	-0.057
-325.129	486.366	0.087	0.197
-324.114	-200.000	0.012	-0.096
-323.099	800.000	0.070	-0.292
-322.085	186.938	-0.186	0.275
-321.070	35.206	-0.238	-0.207
-320.056	339.012	-0.185	-0.358
-319.041	-200.000	0.003	-0.065
-318.026	-44.188	0.388	0.193
-317.012	118.886	-0.259	0.317
-315.997	39.089	0.358	-0.317
-314.983	800.000	-0.042	-0.126
-313.968	-59.673	0.088	0.037
-312.953	-140.668	-0.590	-0.061
-311.939	102.481	0.011	0.013
-310.924	-177.483	0.067	-0.002
-309.910	645.341	0.145	0.367
-308.895	-200.000	-0.046	-0.286
-307.880	263.402	-0.129	-0.222
-306.866	1.129	-0.126	0.090
-305.851	-200.000	0.018	-0.129
-304.837	-189.175	0.341	0.004
-303.822	800.000	0.021	0.071
-302.807	800.000	-0.102	0.368
-301.793	-200.000	-0.003	0.029
-300.778	-13.578	0.267	0.171
-299.764	-61.614	-0.316	-0.131
-298.749	-46.719	0.356	0.173
-297.735	261.075	0.143	-0.245
-296.720	-136.002	0.294	-0.034
-295.705	-94.163	-0.490	0.133
-294.691	-85.827	-0.169	-0.052
-293.676	-200.000	-0.002	0.147
-292.662	-2.005	0.076	-0.053
-291.647	-200.000	0.074	-0.344
-290.632	-200.000	-0.011	-0.225
-289.618	130.047	0.285	0.361
-288.603	57.941	0.084	0.081
-287.589	-37.515	-0.271	0.143
-286.574	-29.361	-0.184	0.104
-285.559	427.162	0.116	-0.249
-284.545	-121.323	-0.049	0.008
-283.530	145.897	0.080	-0.106
-282.516	-200.000	-0.009	0.175
-281.501	800.000	0.087	0.309
-280.486	251.955	0.083	-0.139
-279.472	-82.507	-0.287	-0.092
-278.457	-131.766	0.242	-0.031
-277.443	66.740	-0.229	0.231
-276.428	-200.000	0.020	0.296
-275.413	-200.000	0.023	-0.109
-274.399	-100.127	-0.409	-0.101
-273.384	-79.686	0.366	-0.122
-272.370	800.000	0.098	-0.314
-271.355	291.522	0.046	-0.083
-270.340	736.714	0.066	0.174
-269.326	-24.763	-0.184	-0.108
-268.311	-93.328	-0.411	0.113
-267.297	54.160	-0.207	-0.197
-266.282	-38.386	0.314	-0.164
-265.267	36.301	0.136	0.118
-264.253	-115.897	0.103	0.019
-263.238	61.182	0.073	-0.072
-262.224	-148.580	0.213	0.017
-261.209	800.000	0.028	0.080
-260.195	221.540	0.047	-0.075
-259.180	85.980	0.265	0.289
-258.165	761.883	0.086	0.230
-257.151	800.000	-0.054	-0.148
-256.136	800.000	-0.082	0.235
-255.122	-45.054	-0.298	0.147
-254.107	800.000	-0.030	-0.099
-253.092	-34.579	0.255	-0.138
-252.078	3.227	-0.288	-0.207
-251.063	800.000	-0.023	0.080
-250.049	800.000	-0.162	0.487
-249.034	-161.393	-0.338	-0.017
-248.019	800.000	0.011	0.041
-247.005	800.000	0.035	-0.107
-245.990	-112.828	-0.240	0.047
-244.976	345.701	0.088	0.171
-243.961	800.000	-0.007	-0.023
-242.946	456.799	-0.155	-0.340
-241.932	800.000	0.050	-0.209
-240.917	98.438	-0.101	-0.115
-239.903	-200.000	-0.008	0.123
-238.888	-26.271	-0.156	-0.091
-237.873	23.389	0.075	-0.061
-236.859	-28.147	-0.092	0.053
-235.844	-128.561	-0.245	-0.034
-234.830	-200.000	-0.006	-0.204
-233.815	100.958	0.402	0.462
-232.800	-200.000	-0.015	0.137
-231.786	-40.406	0.164	-0.084
-230.771	-44.808	-0.212	-0.104
-229.757	121.593	0.063	-0.077
-228.742	-17.243	0.327	0.203
-227.727	-200.000	-0.022	0.384
-226.713	-200.000	-0.080	0.348
-225.698	-42.326	-0.372	0.187
-224.684	-133.947	0.324	-0.040
-223.669	-101.149	-0.212	-0.051
-222.655	606.989	-0.093	-0.230
-221.640	-169.417	-0.283	0.010
-220.625	-200.000	-0.019	0.189
-219.611	-200.000	0.015	0.213
-218.596	113.277	0.126	-0.151
-217.582	-16.399	-0.083	0.052
-216.567	-200.000	-0.046	-0.423
-215.552	7.089	0.178	0.131
-214.538	163.634	-0.152	0.211
-213.523	-0.027	-0.097	0.068
-212.509	-42.416	-0.288	0.145
-211.494	-200.000	0.003	0.137
-210.479	263.734	-0.193	0.331
-209.465	228.365	-0.112	-0.180
-208.450	183.546	0.186	-0.272
-207.436	-200.000	-0.061	-0.326
-206.421	377.815	0.081	0.164
-205.406	-200.000	-0.032	-0.168
-204.392	113.713	-0.108	0.129
-203.377	-14.938	0.278	0.176
-202.363	800.000	-0.113	0.312
-201.348	155.740	0.208	-0.283
-200.333	124.516	-0.171	0.213
-199.319	-60.620	0.308	0.129
-198.304	-111.497	-0.264	0.053
-197.290	-200.000	-0.054	-0.358
-196.275	-88.580	0.179	-0.053
-195.260	-169.400	0.278	-0.010
-194.246	-200.000	0.041	0.231
-193.231	-45.281	-0.160	0.078
-192.217	-200.000	-0.004	-0.138
-191.202	800.000	-0.069	-0.266
-190.187	0.948	0.182	0.129
-189.173	0.738	0.231	0.163
-188.158	302.641	0.073	-0.133
-187.144	192.897	0.063	-0.093
-186.129	68.903	-0.149	0.151
-185.114	14.801	-0.281	-0.217
-184.100	-13.553	0.191	-0.122
-183.085	-30.599	-0.134	0.075
-182.071	-87.789	0.538	-0.160
-181.056	-200.000	0.033	-0.340
-180.042	-61.460	0.184	0.076
-179.027	800.000	-0.076	0.247
-178.012	-200.000	0.017	-0.155
-176.998	34.522	0.165	0.142
-175.983	-200.000	-0.078	0.401
-174.969	-7.877	-0.168	-0.112
-173.954	213.571	-0.095	-0.148
-172.939	-76.059	0.509	-0.177
-171.925	53.179	0.118	-0.111
-170.910	6.873	0.215	0.158
-169.896	329.793	-0.079	-0.150
-168.881	-34.393	0.265	0.143
-167.866	800.000	-0.064	-0.211
-166.852	-200.000	0.032	-0.165
-165.837	71.545	0.252	-0.257
-164.823	-100.520	-0.256	-0.062
-163.808	-200.000	-0.066	-0.371
-162.793	209.582	-0.035	0.054
-161.779	716.077	-0.033	0.086
-160.764	-200.000	0.023	-0.199
-159.750	2.087	-0.245	-0.174
-158.735	192.571	0.254	-0.377
-157.720	258.660	0.083	-0.141
-156.706	6.638	-0.143	-0.105
-155.691	114.801	0.155	-0.187
-154.677	44.510	0.244	-0.221
-153.662	800.000	0.068	0.211
-152.647	-56.184	0.209	0.092
-151.633	-139.110	0.148	-0.016
-150.618	-20.697	0.158	0.095
-149.604	-134.533	-0.074	0.009
-148.589	97.450	-0.084	-0.096
-147.574	-200.000	0.043	0.208
-146.560	-200.000	0.013	-0.081
-145.545	-100.885	0.031	-0.007
-144.531	-98.975	-0.324	0.081
-143.516	-4.444	0.403	-0.274
-142.502	-64.156	-0.217	0.087
-141.487	-142.538	0.226	-0.022
-140.472	41.153	0.362	0.322
-139.458	-61.777	-0.135	-0.056
-138.443	-200.000	-0.041	-0.402
-137.429	496.631	0.067	-0.152
-136.414	-19.601	-0.511	0.311
-135.399	432.134	0.140	-0.299
-134.385	235.491	-0.141	-0.228
-133.370	31.003	-0.092	-0.077
-132.356	288.822	0.221	-0.393
-131.341	800.000	-0.023	-0.073
-130.326	-78.197	0.044	-0.015
-129.312	156.827	0.072	0.097
-128.297	620.515	0.107	-0.264
-127.283	193.785	0.075	0.112
-126.268	800.000	-0.020	-0.068
-125.253	-152.004	-0.233	0.017
-124.239	-200.000	-0.018	-0.163
-123.224	-200.000	0.030	-0.187
-122.210	-132.701	0.270	0.034
-121.195	379.648	-0.206	0.415
-120.180	129.139	-0.050	0.062
-119.166	-100.151	0.130	0.032
-118.151	800.000	-0.032	0.100
-117.137	198.412	0.079	-0.118
-116.122	190.909	0.211	0.313
-115.107	-44.811	0.210	-0.103
-114.093	724.237	0.126	0.331
-113.078	246.272	0.173	0.287
-112.064	-200.000	0.070	-0.411
-111.049	692.552	0.034	0.087
-110.034	-102.700	-0.192	0.045
-109.020	243.262	0.074	0.122
-108.005	800.000	0.126	-0.346
-106.991	-43.158	0.224	-0.112
-105.976	-22.747	0.097	-0.058
-104.962	177.085	0.125	0.178
-103.947	-56.491	0.057	-0.025
-102.932	615.744	-0.114	0.281
-101.918	86.990	0.077	0.084
-100.903	-56.279	-0.362	-0.158
-99.889	800.000	0.098	-0.317
-98.874	-200.000	0.017	-0.289
-97.859	-57.854	0.107	-0.046
-96.845	800.000	-0.090	0.302
-95.830	-13.832	0.278	0.177
-94.816	-200.000	0.034	0.266
-93.801	-200.000	0.031	0.152
-92.786	800.000	0.093	-0.305
-91.772	800.000	0.027	-0.090
-90.757	4.285	0.128	-0.092
-89.743	178.520	0.110	0.158
-88.728	-118.566	0.391	0.068
-87.713	226.918	-0.073	-0.116
-86.699	98.106	-0.080	-0.090
-85.684	-75.256	0.226	0.079
-84.670	519.310	0.142	0.328
-83.655	3.533	0.232	0.166
-82.640	-200.000	0.031	0.187
-81.626	-148.783	-0.365	-0.029
-80.611	82.780	-0.244	-0.260
-79.597	304.254	0.059	-0.108
-78.582	-104.163	-0.335	-0.076
-77.567	-200.000	0.003	0.301
-76.553	-157.928	0.135	0.008
-75.538	1.058	0.303	-0.213
-74.524	90.868	0.181	-0.199
-73.509	-27.615	-0.156	-0.089
-72.494	493.920	0.145	-0.326
-71.480	800.000	0.052	0.171
-70.465	800.000	-0.037	-0.119
-69.451	-158.355	0.234	-0.013
-68.436	88.537	-0.186	-0.203
-67.422	259.670	-0.024	-0.040
-66.407	-194.615	0.395	0.003
-65.392	-8.164	-0.175	-0.116
-64.378	-124.621	-0.376	-0.057
-63.363	6.643	0.112	0.082
-62.349	-200.000	0.015	-0.344
-61.334	46.723	-0.986	-0.898
-60.319	31.432	0.391	0.330
-59.305	657.071	-0.387	-0.975
-58.290	398.837	0.495	1.016
-57.276	800.000	0.379	1.473
-56.261	-200.000	107.922	583.720
-55.246	445.157	1476.363	3180.136
-54.232	146.747	2666.946	3515.884
-53.217	99.342	2289.354	2596.563
-52.203	38.412	1901.164	1661.676
-51.188	32.760	1689.546	1433.839
-50.173	30.158	1646.523	1377.959
-49.159	48.843	1699.350	1563.742
-48.144	49.140	1715.180	1580.485
-47.130	32.273	1673.073	1415.965
-46.115	29.588	1658.541	1383.527
-45.100	29.452	1653.553	1378.298
-44.086	29.434	1650.777	1375.797
-43.071	29.463	1647.871	1373.534
-42.057	29.398	1645.664	1371.157
-41.042	29.436	1643.903	1369.919
-40.027	29.455	1641.774	1368.232
-39.013	29.436	1639.899	1366.474
-37.998	29.336	1638.595	1364.594
-36.984	29.481	1637.237	1364.478
-35.969	29.574	1635.586	1363.731
-34.954	29.572	1634.057	1362.388
-33.940	29.560	1632.415	1360.880
-32.925	29.567	1630.565	1359.335
-31.911	29.586	1628.724	1357.885
-30.896	29.556	1627.226	1356.362
-29.881	29.508	1625.554	1354.565
-28.867	29.505	1624.077	1353.253
-27.852	29.520	1622.464	1351.966
-26.838	29.723	1620.268	1351.572
-25.823	29.539	1619.481	1349.514
-24.809	29.618	1618.518	1349.235
-23.794	29.539	1616.987	1347.326
-22.779	29.518	1615.690	1346.039
-21.765	29.591	1613.316	1344.539
-20.750	29.621	1612.026	1343.629
-19.736	29.611	1610.252	1342.026
-18.721	29.645	1608.896	1341.093
-17.706	29.710	1607.495	1340.343
-16.692	29.601	1606.155	1338.377
-15.677	29.551	1605.105	1337.093
-14.663	29.508	1603.806	1335.642
-13.648	29.678	1601.812	1335.159
-12.633	29.593	1600.496	1333.396
-11.619	29.628	1599.037	1332.381
-10.604	29.539	1598.290	1331.065
-9.590	29.552	1596.403	1329.529
-8.575	29.678	1595.238	1329.414
-7.560	29.613	1594.246	1328.068
-6.546	29.560	1593.179	1326.745
-5.531	29.541	1592.014	1325.583
-4.517	29.562	1590.861	1324.722
-3.502	29.566	1589.537	1323.598
-2.487	29.578	1587.972	1322.331
-1.473	29.335	1575.655	1310.294
-0.458	26.679	1557.223	1276.236
0.556	21.739	1558.393	1246.916
1.571	19.535	1582.164	1249.883
2.586	19.231	1594.979	1257.680
3.600	17.654	1542.420	1204.983
4.615	9.882	1432.107	1067.495
5.629	1.922	1366.921	968.417
6.644	0.179	1358.383	951.275
7.659	0.202	1357.055	950.405
8.673	0.041	1356.448	948.878
9.688	0.059	1354.443	947.509
10.702	-0.147	1351.615	944.150
11.717	3.650	1357.324	971.990
12.731	12.345	1371.129	1036.884
13.746	17.509	1377.762	1074.481
14.761	17.347	1375.621	1071.697
15.775	16.375	1373.370	1063.733
16.790	15.191	1370.763	1054.169
17.804	14.428	1368.126	1047.258
18.819	14.150	1366.619	1044.268
19.834	13.873	1365.957	1041.929
20.848	13.594	1364.249	1038.788
21.863	13.316	1363.084	1036.067
22.877	13.188	1362.063	1034.398
23.892	13.187	1361.065	1033.543
24.907	13.198	1359.997	1032.707
25.921	13.166	1359.005	1031.665
26.936	13.218	1358.332	1031.388
27.950	13.352	1357.154	1031.232
28.965	13.257	1356.378	1029.964
29.980	13.297	1356.092	1029.905
30.994	13.446	1354.471	1029.505
32.009	13.496	1353.941	1029.325
33.023	13.419	1352.951	1028.003
34.038	13.350	1351.846	1026.641
35.053	13.366	1350.570	1025.680
36.067	13.347	1349.286	1024.500
37.082	13.399	1348.472	1024.115
38.096	13.313	1347.707	1022.909
39.111	13.398	1346.988	1022.800
40.126	13.352	1346.331	1021.922
41.140	13.327	1345.377	1020.952
42.155	13.189	1345.010	1019.736
43.169	13.140	1344.901	1019.259
44.184	13.073	1344.819	1018.695
45.199	13.187	1344.388	1018.983
46.213	13.189	1343.822	1018.472
47.228	13.326	1342.531	1018.246
48.242	13.318	1341.162	1017.070
49.257	13.331	1339.499	1015.798
50.271	13.306	1338.176	1014.555
51.286	13.200	1337.230	1013.095
52.301	13.368	1335.443	1012.685
53.315	13.273	1334.508	1011.304
54.330	13.191	1334.194	1010.471
55.344	13.201	1332.560	1009.205
56.359	13.320	1331.386	1008.955
57.374	13.231	1331.250	1008.218
58.388	13.223	1329.706	1006.914
59.403	13.177	1329.577	1006.446
60.417	13.140	1328.696	1005.462
61.432	13.114	1327.579	1004.369
62.447	13.131	1326.685	1003.710
63.461	13.066	1325.490	1002.323
64.476	12.994	1324.827	1001.298
65.490	13.102	1323.585	1000.924
66.505	13.110	1321.696	999.456
67.520	13.203	1320.290	998.863
68.534	13.255	1319.019	998.129
69.549	13.229	1318.476	997.470
70.563	13.123	1317.646	996.120
71.578	13.087	1316.380	994.854
72.593	13.022	1315.513	993.718
73.607	12.983	1314.705	992.789
74.622	12.971	1314.168	992.222
75.636	13.058	1313.279	991.984
76.651	13.015	1312.221	990.839
77.666	13.022	1311.545	990.284
78.680	13.064	1311.405	990.340
79.695	13.095	1309.962	989.352
80.709	13.025	1309.397	988.418
81.724	13.148	1308.716	988.551
82.739	13.174	1307.684	987.843
83.753	13.283	1306.744	987.695
84.768	13.234	1305.809	986.607
85.782	13.349	1304.524	986.236
86.797	13.298	1303.506	985.077
87.812	13.321	1301.630	983.709
88.826	13.196	1301.409	982.710
89.841	13.201	1300.508	981.970
90.855	13.298	1298.898	981.247
91.870	13.451	1298.084	981.452
92.884	13.342	1297.258	980.096
93.899	13.309	1296.539	979.266
94.914	13.341	1296.125	979.057
95.928	13.360	1295.132	978.337
96.943	13.436	1294.036	977.869
97.957	13.424	1293.193	977.075
98.972	13.303	1292.470	975.729
99.987	13.308	1291.117	974.648
101.001	13.414	1289.978	974.328
102.016	13.302	1289.313	973.083
103.030	13.437	1288.645	973.284
104.045	13.347	1287.267	971.626
105.060	13.301	1286.053	970.353
106.074	13.217	1285.056	969.023
107.089	13.252	1283.162	967.717
108.103	13.174	1282.174	966.429
109.118	13.141	1280.811	965.124
110.133	13.209	1279.706	964.600
111.147	13.187	1278.491	963.471
112.162	13.159	1277.154	962.218
113.176	13.264	1276.158	961.990
114.191	13.122	1275.575	960.644
115.206	13.292	1273.812	960.220
116.220	13.276	1272.796	959.275
117.235	13.215	1271.880	958.144
118.249	13.218	1271.030	957.440
119.264	13.196	1269.675	956.203
120.279	13.281	1268.670	955.853
121.293	13.147	1267.724	954.281
122.308	13.121	1266.736	953.306
123.322	13.198	1265.713	952.892
124.337	13.164	1264.393	951.621
125.352	13.141	1263.165	950.481
126.366	13.218	1261.767	949.788
127.381	13.288	1260.545	949.182
128.395	13.209	1259.730	948.033
129.410	13.125	1259.324	947.162
130.424	13.199	1258.182	946.641
131.439	13.279	1257.316	946.364
132.454	13.200	1256.632	945.314
133.468	13.259	1255.593	944.788
134.483	13.193	1254.724	943.672
135.497	13.155	1253.970	942.805
136.512	13.262	1252.495	942.221
137.527	13.295	1251.060	941.248
138.541	13.255	1249.480	939.749
139.556	13.182	1248.789	938.730
140.570	13.333	1247.349	938.424
141.585	13.406	1246.639	938.221
142.600	13.393	1244.750	936.643
143.614	13.412	1244.307	936.329
144.629	13.466	1243.548	935.984
145.643	13.475	1241.972	934.767
146.658	13.475	1240.632	933.672
147.673	13.360	1239.323	931.959
148.687	13.378	1237.941	930.936
149.702	13.353	1236.857	929.902
150.716	13.285	1235.904	928.717
151.731	13.288	1234.424	927.541
152.746	13.337	1233.319	926.903
153.760	13.418	1232.417	926.600
154.775	13.441	1230.834	925.455
155.789	13.407	1230.277	924.761
156.804	13.463	1228.820	923.899
157.819	13.428	1228.172	923.135
158.833	13.486	1227.258	922.688
159.848	13.650	1225.799	922.422
160.862	13.514	1225.246	921.172
161.877	13.445	1223.915	919.703
162.892	13.461	1222.989	919.014
163.906	13.453	1222.088	918.214
164.921	13.526	1221.432	918.042
165.935	13.524	1220.349	917.136
166.950	13.529	1219.677	916.577
167.964	13.470	1219.431	915.984
168.979	13.577	1218.063	915.467
169.994	13.556	1217.242	914.653
171.008	13.673	1216.191	914.430
172.023	13.646	1215.803	913.906
173.037	13.678	1215.105	913.481
174.052	13.661	1213.722	912.262
175.067	13.652	1213.061	911.637
176.081	13.579	1211.857	910.251
177.096	13.597	1210.958	909.595
178.110	13.579	1210.330	908.946
179.125	13.569	1209.220	907.973
180.140	13.701	1207.406	907.255
181.154	13.612	1206.554	906.045
182.169	13.604	1205.354	905.020
183.183	13.718	1203.843	904.429
184.198	13.751	1202.709	903.675
185.213	13.878	1201.578	903.441
186.227	13.774	1200.791	902.202
187.242	13.734	1200.065	901.357
188.256	13.855	1198.595	900.833
189.271	13.942	1197.200	900.175
190.286	13.828	1196.445	898.910
191.300	13.756	1195.897	898.030
192.315	13.698	1195.424	897.280
193.329	13.730	1194.697	896.830
194.344	13.713	1193.766	895.956
195.359	13.700	1193.231	895.407
196.373	13.853	1192.282	895.442
197.388	13.825	1192.057	895.043
198.402	13.894	1192.106	895.372
199.417	13.981	1191.221	895.095
200.432	14.054	1190.092	894.564
201.446	14.000	1189.327	893.619
202.461	14.099	1188.234	893.249
203.475	14.059	1187.479	892.390
204.490	14.154	1185.692	891.476
205.504	13.988	1184.917	889.922
206.519	13.954	1183.685	888.737
207.534	13.901	1183.048	887.899
208.548	13.999	1181.758	887.375
209.563	14.043	1181.222	887.130
210.577	14.096	1180.134	886.515
211.592	14.119	1178.769	885.537
212.607	14.165	1178.506	885.504
213.621	14.146	1177.764	884.768
214.636	14.136	1176.760	883.880
215.650	14.284	1175.480	883.627
216.665	14.228	1174.741	882.696
217.680	14.256	1173.783	882.048
218.694	14.328	1172.783	881.598
219.709	14.246	1172.288	880.714
220.723	14.221	1171.357	879.805
221.738	14.261	1171.096	879.744
222.753	14.323	1169.773	878.999
223.767	14.322	1169.618	878.796
224.782	14.312	1168.891	878.123
225.796	14.416	1168.069	877.972
226.811	14.380	1167.181	877.041
227.826	14.379	1166.899	876.743
228.840	14.417	1165.877	876.097
229.855	14.341	1165.309	875.196
230.869	14.236	1164.662	874.081
231.884	14.431	1163.611	874.240
232.899	14.342	1162.642	872.965
233.913	14.209	1162.753	872.274
234.928	14.197	1161.685	871.334
235.942	14.359	1160.493	871.210
236.957	14.316	1159.298	870.012
237.972	14.377	1159.296	870.251
238.986	14.369	1158.405	869.465
240.001	14.377	1157.811	868.982
241.015	14.349	1156.809	868.008
242.030	14.430	1156.226	867.913
243.045	14.442	1155.710	867.512
244.059	14.536	1154.303	866.867
245.074	14.546	1153.618	866.328
246.088	14.576	1152.554	865.611
247.103	14.540	1152.104	865.007
248.117	14.681	1151.172	864.963
249.132	14.722	1150.672	864.721
250.147	14.759	1150.291	864.551
251.161	14.751	1149.334	863.713
252.176	14.874	1148.466	863.623
253.190	14.835	1148.143	863.101
254.205	14.908	1147.537	862.946
255.220	14.930	1147.024	862.597
256.234	14.995	1146.317	862.325
257.249	14.866	1145.678	861.102
258.263	14.958	1144.879	860.897
259.278	14.956	1144.109	860.235
260.293	14.985	1143.806	860.077
261.307	15.072	1142.990	859.837
262.322	15.022	1142.279	858.970
263.336	15.098	1141.777	858.904
264.351	15.130	1141.105	858.488
265.366	15.045	1140.688	857.662
266.380	15.076	1139.702	857.003
267.395	15.014	1139.051	856.122
268.409	15.063	1138.169	855.630
269.424	14.992	1137.759	854.887
270.439	14.985	1137.118	854.294
271.453	15.106	1136.371	854.273
272.468	15.060	1135.559	853.351
273.482	14.963	1134.719	852.154
274.497	15.057	1134.388	852.305
275.512	15.117	1133.349	851.756
276.526	15.158	1132.710	851.407
277.541	15.115	1132.165	850.704
278.555	15.117	1131.355	850.033
279.570	15.126	1130.698	849.508
280.585	15.214	1129.804	849.208
281.599	15.252	1128.647	848.457
282.614	15.182	1127.768	847.367
283.628	15.240	1126.569	846.680
284.643	15.215	1125.927	845.998
285.657	15.329	1125.078	845.859
286.672	15.291	1124.049	844.820
287.687	15.291	1123.641	844.439
288.701	15.307	1122.840	843.844
289.716	15.247	1122.104	842.914
290.730	15.430	1121.034	842.953
291.745	15.294	1121.106	842.250
292.760	15.395	1119.969	841.831
293.774	15.527	1119.084	841.753
294.789	15.500	1118.977	841.463
295.803	15.341	1118.570	840.283
296.818	15.515	1117.282	840.114
297.833	15.540	1116.475	839.558
298.847	15.440	1115.693	838.392
299.862	15.500	1115.077	838.157
300.876	15.499	1114.827	837.891
301.891	15.521	1113.790	837.147
302.906	15.665	1112.874	837.101
303.920	15.563	1112.523	836.257
304.935	15.666	1112.079	836.361
305.949	15.666	1110.965	835.450
306.964	15.696	1110.894	835.467
307.979	15.577	1110.092	834.200
308.993	15.655	1109.110	833.778
310.008	15.859	1108.137	833.983
311.022	15.761	1107.404	832.872
312.037	15.727	1106.634	832.049
313.052	15.786	1105.170	831.168
314.066	15.739	1104.764	830.558
315.081	15.662	1103.962	829.499
316.095	15.674	1103.329	829.010
317.110	15.611	1102.691	828.145
318.125	15.670	1102.002	827.846
319.139	15.607	1101.323	826.952
320.154	15.745	1100.142	826.671
321.168	15.652	1099.933	825.984
322.183	15.782	1099.097	825.922
323.197	15.672	1098.921	825.175
324.212	15.633	1098.401	824.522
325.227	15.665	1097.825	824.174
326.241	15.797	1096.825	823.996
327.256	15.739	1096.040	823.049
328.270	15.781	1095.315	822.639
329.285	15.841	1094.151	821.984
330.300	15.921	1093.182	821.573
331.314	15.861	1092.358	820.589
332.329	15.852	1091.364	819.724
333.343	15.925	1090.562	819.406
334.358	15.956	1089.832	818.938
335.373	15.983	1089.245	818.552
336.387	16.022	1088.794	818.333
337.402	15.964	1087.811	817.239
338.416	15.983	1087.039	816.680
339.431	15.997	1086.138	815.997
340.446	16.057	1085.949	816.075
341.460	16.106	1085.335	815.775
342.475	16.020	1084.286	814.500
343.489	16.111	1083.307	814.133
344.504	16.264	1082.572	814.247
345.519	16.323	1081.497	813.652
346.533	16.313	1080.595	812.855
347.548	16.287	1080.305	812.435
348.562	16.192	1079.908	811.612
349.577	16.287	1078.532	810.959
350.592	16.187	1077.856	809.898
351.606	16.260	1077.318	809.775
352.621	16.237	1076.696	809.124
353.635	16.117	1076.145	808.063
354.650	16.190	1075.199	807.632
355.665	16.198	1074.443	807.031
356.679	16.310	1073.624	806.881
357.694	16.357	1073.431	806.886
358.708	16.244	1073.109	806.035
359.723	16.340	1071.816	805.448
360.738	16.423	1071.456	805.504
361.752	16.201	1070.915	803.966
362.767	16.299	1070.310	803.910
363.781	16.443	1069.558	803.956
364.796	16.370	1069.015	803.131
365.810	16.494	1068.369	803.166
366.825	16.622	1067.758	803.240
367.840	16.528	1067.122	802.246
368.854	16.600	1066.999	802.423
369.869	16.544	1066.533	801.737
370.883	16.663	1065.114	801.164
371.898	16.618	1064.477	800.398
372.913	16.567	1063.899	799.654
373.927	16.603	1063.696	799.599
374.942	16.632	1062.999	799.142
375.956	16.678	1062.085	798.600
376.971	16.607	1061.802	797.982
377.986	16.610	1061.401	797.628
379.000	16.832	1060.595	797.995
380.015	16.695	1060.022	796.848
381.029	16.820	1059.394	796.893
382.044	16.871	1058.778	796.599
383.059	16.779	1057.901	795.437
384.073	16.839	1057.218	795.136
385.088	16.833	1056.208	794.277
386.102	16.827	1055.388	793.562
387.117	16.759	1054.634	792.604
388.132	16.907	1053.434	792.328
389.146	16.869	1052.376	791.283
390.161	16.726	1052.197	790.413
391.175	16.767	1051.603	790.087
392.190	16.965	1050.612	790.192
393.205	16.963	1050.173	789.784
394.219	16.794	1049.397	788.346
395.234	16.904	1048.808	788.344
396.248	16.880	1047.465	787.154
397.263	16.866	1046.587	786.357
398.278	16.988	1045.696	786.184
399.292	16.827	1044.735	784.646
400.307	16.929	1044.383	784.789
401.321	16.959	1043.704	784.345
402.336	16.817	1043.335	783.342
403.350	16.885	1042.486	782.951
404.365	17.011	1041.395	782.642
405.380	17.019	1040.725	782.105
406.394	17.042	1040.437	781.928
407.409	17.208	1039.051	781.580
408.423	17.095	1038.921	780.891
409.438	17.153	1038.101	780.476
410.453	17.206	1037.317	780.061
411.467	17.187	1036.563	779.336
412.482	17.168	1036.353	779.020
413.496	17.189	1035.563	778.453
414.511	17.289	1034.987	778.413
415.526	17.357	1034.718	778.452
416.540	17.251	1034.356	777.626
417.555	17.301	1033.576	777.200
418.569	17.273	1033.303	776.796
419.584	17.311	1032.649	776.407
420.599	17.407	1032.166	776.414
421.613	103.212	1322.321	1468.045
422.628	94.486	1364.568	1468.139
