DTS Sentinel unit serial number:	SN413079Multiplexer serial number:	ORYXHardware model number:	OX4-SRSoftware version number:	ORYX F/W v4.00 Oryx Data Collector v3.7.2.0data status	okinstallation	princeton_trtdifferential loss correction	single-endedforward channel	channel 2reverse channel	N/Adate	2019/09/12time	19:26:48forward acquisition time	15.00reverse acquisition time	0.00gamma	496.2192k internal	0.2326k external	0.2326temperature offset calibration	1.0146default loss term (dB/km)	0.3790temperature slope calibration	1.0000multiplexer offset coefficient	1.0000multiplexer slope coefficient	1.0000fibre end	0.00T internal ref (°C)	32.31T ext. ref 1 (°C)	3.32T ext. ref 2 (°C)	26.93length (m)	temperature (°C)	Stokes	anti-Stokes-747.200	-103.678	0.695	-0.164
-746.185	-65.414	-1.025	-0.416
-745.171	-200.000	0.056	-0.858
-744.156	85.678	-0.072	-0.080
-743.142	-200.000	-0.079	0.497
-742.127	-55.936	-0.391	-0.176
-741.112	-200.000	0.001	-0.296
-740.098	155.433	-0.167	0.231
-739.083	400.619	0.149	0.314
-738.069	-200.000	0.066	0.474
-737.054	541.066	0.121	0.290
-736.039	-200.000	-0.085	-1.168
-735.025	-137.617	0.915	-0.104
-734.010	-200.000	-0.128	-0.647
-732.996	800.000	0.050	0.159
-731.981	-200.000	0.137	1.222
-730.966	-200.000	0.008	-0.562
-729.952	161.370	-0.721	-1.016
-728.937	-200.000	-0.041	-0.501
-727.923	800.000	0.264	0.958
-726.908	800.000	0.123	-0.448
-725.894	358.895	0.486	-0.979
-724.879	-93.293	0.563	-0.158
-723.864	-47.526	-0.258	0.126
-722.850	118.657	-0.266	-0.330
-721.835	-2.738	0.415	0.292
-720.821	-137.057	-0.190	0.022
-719.806	306.978	-0.282	0.529
-718.791	505.331	-0.285	0.665
-717.777	-200.000	0.018	0.578
-716.762	800.000	0.450	-1.684
-715.748	800.000	-0.172	0.735
-714.733	-10.121	-0.543	0.364
-713.718	800.000	0.029	0.123
-712.704	-19.696	0.528	0.329
-711.689	643.973	-0.138	-0.354
-710.675	-200.000	-0.058	-0.382
-709.660	-115.158	0.143	-0.027
-708.645	-200.000	-0.074	-0.352
-707.631	800.000	-0.131	0.458
-706.616	263.318	0.073	0.128
-705.602	-187.100	-0.174	-0.002
-704.587	-9.353	-0.035	-0.024
-703.572	452.576	0.218	-0.486
-702.558	259.386	0.128	0.223
-701.543	106.867	-0.161	-0.192
-700.529	121.353	0.503	-0.630
-699.514	800.000	0.183	0.805
-698.499	-53.102	0.605	-0.280
-697.485	-156.313	-0.105	0.007
-696.470	235.556	0.210	-0.349
-695.456	-200.000	0.076	0.354
-694.441	-5.218	0.296	0.205
-693.426	-7.411	-0.646	0.441
-692.412	-17.731	0.275	-0.174
-691.397	274.407	0.238	-0.425
-690.383	-76.043	-0.241	0.086
-689.368	-27.070	-0.290	-0.170
-688.354	-200.000	-0.040	-0.309
-687.339	534.998	-0.238	0.567
-686.324	91.825	0.355	-0.402
-685.310	-200.000	0.054	-0.286
-684.295	170.163	0.200	-0.288
-683.281	-102.057	-0.991	0.240
-682.266	323.783	-0.213	-0.409
-681.251	304.815	-0.101	-0.188
-680.237	-47.701	-0.500	0.244
-679.222	-162.443	0.251	0.013
-678.208	52.342	-0.400	-0.384
-677.193	-200.000	0.017	0.406
-676.178	800.000	-0.170	0.596
-675.164	20.642	0.604	-0.492
-674.149	-76.585	-0.842	0.297
-673.135	-148.308	-0.573	0.047
-672.120	-200.000	-0.003	0.047
-671.105	800.000	-0.256	-1.103
-670.091	270.626	0.376	-0.665
-669.076	-10.561	0.197	0.131
-668.062	467.186	0.212	-0.478
-667.047	-19.398	-0.417	0.260
-666.032	-200.000	-0.124	0.625
-665.018	82.398	0.221	0.241
-664.003	-11.531	0.629	-0.416
-662.989	3.076	-0.197	0.144
-661.974	135.535	0.132	0.173
-660.959	-200.000	0.060	0.520
-659.945	-132.648	1.323	0.170
-658.930	23.413	0.321	-0.265
-657.916	348.216	-0.235	-0.465
-656.901	-88.017	0.663	-0.200
-655.886	188.954	0.287	-0.432
-654.872	-200.000	-0.020	0.473
-653.857	-179.836	0.164	0.004
-652.843	-200.000	0.277	-1.231
-651.828	-200.000	-0.002	-0.586
-650.814	-114.125	0.633	0.123
-649.799	-26.628	0.837	-0.492
-648.784	-52.476	0.138	0.064
-647.770	-68.477	-0.826	0.322
-646.755	80.750	-0.173	0.187
-645.741	-109.818	1.013	-0.214
-644.726	258.666	-0.595	1.030
-643.711	4.559	-0.208	-0.153
-642.697	-94.401	0.707	-0.194
-641.682	800.000	-0.098	0.388
-640.668	-1.881	0.185	0.130
-639.653	800.000	0.067	-0.286
-638.638	-137.650	-0.121	-0.014
-637.624	-10.428	0.363	0.241
-636.609	41.463	-0.124	0.113
-635.595	-35.015	-0.079	-0.043
-634.580	34.667	0.255	0.224
-633.565	-134.661	-0.347	0.042
-632.551	-157.939	-0.097	-0.006
-631.536	-200.000	-0.019	1.020
-630.522	-50.894	0.348	0.164
-629.507	-143.930	0.723	0.068
-628.492	-62.748	0.481	-0.200
-627.478	-58.512	-0.480	0.209
-626.463	-58.715	0.372	-0.162
-625.449	30.097	-0.146	-0.125
-624.434	217.951	0.360	-0.577
-623.419	113.984	-0.553	-0.675
-622.405	-158.454	-0.847	0.049
-621.390	-200.000	-0.035	-0.257
-620.376	70.963	-0.499	-0.519
-619.361	-200.000	-0.105	-0.500
-618.346	800.000	0.492	-1.404
-617.332	-64.583	0.966	-0.393
-616.317	-133.459	-0.335	0.042
-615.303	129.122	0.314	0.402
-614.288	-165.179	0.967	0.043
-613.273	-200.000	-0.183	-1.471
-612.259	-200.000	-0.156	-1.078
-611.244	-200.000	-0.102	0.000
-610.230	-200.000	0.065	-0.506
-609.215	161.051	0.414	-0.580
-608.201	455.230	0.011	-0.024
-607.186	-200.000	-0.078	0.375
-606.171	-168.223	-0.515	-0.020
-605.157	-20.045	0.782	-0.484
-604.142	-72.748	-0.405	0.150
-603.128	75.830	0.297	0.315
-602.113	-109.793	-0.589	0.124
-601.098	-102.551	-0.557	0.133
-600.084	-157.825	0.420	0.025
-599.069	162.913	-0.078	0.109
-598.055	-200.000	0.036	-0.237
-597.040	-45.439	0.864	0.429
-596.025	-29.437	-0.480	-0.275
-595.011	584.346	0.234	-0.575
-593.996	-32.269	0.476	0.267
-592.982	-200.000	0.220	0.001
-591.967	4.201	0.163	0.120
-590.952	-75.737	-0.904	-0.321
-589.938	-130.791	0.319	-0.043
-588.923	100.731	0.360	-0.419
-587.909	-92.010	-0.549	-0.156
-586.894	-17.335	0.109	0.069
-585.879	132.787	-0.266	-0.344
-584.865	-83.729	0.107	0.034
-583.850	-157.854	0.429	-0.025
-582.836	-183.341	0.259	0.005
-581.821	-144.460	0.427	-0.040
-580.806	-200.000	-0.019	-0.693
-579.792	127.906	-0.611	-0.778
-578.777	-36.627	-0.851	-0.458
-577.763	800.000	0.172	0.500
-576.748	-13.513	0.227	-0.147
-575.733	363.065	0.273	0.550
-574.719	-200.000	-0.118	0.615
-573.704	-95.067	-0.281	0.076
-572.690	-79.932	-0.067	0.023
-571.675	63.713	-0.516	-0.520
-570.661	125.803	-0.576	-0.728
-569.646	-182.230	-0.396	-0.007
-568.631	452.776	0.463	1.025
-567.617	58.642	0.406	0.399
-566.602	147.992	-0.323	-0.437
-565.588	-200.000	0.129	0.665
-564.573	-41.576	-0.315	-0.162
-563.558	263.361	0.454	0.789
-562.544	-130.069	-0.191	-0.026
-561.529	6.018	0.963	0.714
-560.515	-143.636	0.643	-0.061
-559.500	-200.000	-0.025	0.421
-558.485	-102.235	-0.352	0.085
-557.471	-106.895	-0.539	-0.120
-556.456	16.385	0.612	-0.484
-555.442	-105.486	-0.177	-0.040
-554.427	-200.000	-0.119	1.023
-553.412	-200.000	-0.049	-0.736
-552.398	64.830	0.440	0.445
-551.383	-200.000	0.029	-0.232
-550.369	95.128	-0.490	0.558
-549.354	-64.477	-0.455	0.185
-548.339	-62.206	0.440	0.184
-547.325	800.000	0.136	0.398
-546.310	339.630	-0.270	-0.526
-545.296	631.129	-0.305	0.773
-544.281	-40.242	-0.582	0.303
-543.266	-43.012	0.608	0.309
-542.252	-200.000	-0.030	-0.585
-541.237	6.825	-0.319	-0.238
-540.223	-98.278	-0.700	-0.180
-539.208	-105.766	-0.493	-0.111
-538.193	158.362	0.731	1.014
-537.179	118.161	0.231	0.285
-536.164	156.400	-0.402	0.555
-535.150	800.000	0.264	1.123
-534.135	-200.000	0.067	-0.415
-533.121	26.308	0.428	0.357
-532.106	-93.755	-0.446	0.123
-531.091	299.769	-0.125	0.230
-530.077	119.877	0.253	0.313
-529.062	-200.000	-0.089	-0.752
-528.048	-200.000	0.039	-0.217
-527.033	-200.000	0.063	0.277
-526.018	-164.839	0.900	0.040
-525.004	-117.083	0.760	0.139
-523.989	-32.081	0.446	0.250
-522.975	522.546	-0.067	0.157
-521.960	96.470	0.275	0.315
-520.945	-200.000	-0.046	0.272
-519.931	186.240	-0.157	0.233
-518.916	-141.207	0.222	-0.023
-517.902	-76.838	-1.025	0.358
-516.887	75.956	-0.316	0.334
-515.872	10.835	0.707	-0.539
-514.858	739.673	-0.457	-1.225
-513.843	-130.565	0.140	-0.019
-512.829	290.101	-0.210	-0.381
-511.814	269.223	0.320	0.561
-510.799	-48.580	0.459	0.220
-509.785	-96.333	-0.541	0.143
-508.770	-116.155	-0.283	0.053
-507.756	800.000	0.203	0.818
-506.741	-200.000	0.109	0.553
-505.726	-91.370	0.722	-0.206
-504.712	-47.144	-0.545	0.265
-503.697	-29.114	0.289	0.166
-502.683	-124.157	-0.359	0.056
-501.668	-82.312	0.300	0.097
-500.653	800.000	0.140	0.455
-499.639	7.384	1.207	0.901
-498.624	-104.651	-0.521	0.120
-497.610	-75.935	-1.127	-0.398
-496.595	318.247	-0.458	-0.866
-495.581	-200.000	-0.014	0.100
-494.566	-82.101	-0.244	0.079
-493.551	-38.553	-0.217	0.114
-492.537	800.000	-0.238	0.941
-491.522	-76.041	1.023	0.361
-490.508	40.086	0.371	0.333
-489.493	-94.211	-0.282	-0.077
-488.478	14.478	-0.383	-0.298
-487.464	70.330	0.365	-0.377
-486.449	202.985	-0.469	-0.724
-485.435	-30.772	-0.531	-0.300
-484.420	-17.009	0.237	0.150
-483.405	-200.000	0.071	-0.496
-482.391	-200.000	0.023	-0.483
-481.376	384.860	-0.289	-0.595
-480.362	10.760	0.580	-0.441
-479.347	775.351	-0.216	0.587
-478.332	42.252	-0.506	0.459
-477.318	-98.018	0.308	-0.079
-476.303	-16.652	0.194	-0.123
-475.289	-189.290	-0.887	0.010
-474.274	-200.000	-0.036	0.343
-473.259	-116.088	0.681	0.126
-472.245	-67.928	-0.912	-0.355
-471.230	-49.138	-1.183	-0.564
-470.216	800.000	0.067	-0.290
-469.201	92.730	0.158	-0.178
-468.186	-114.892	0.032	0.006
-467.172	-200.000	-0.126	0.838
-466.157	-140.452	1.180	-0.123
-465.143	388.342	0.192	0.396
-464.128	-139.426	0.613	-0.066
-463.113	206.476	-0.441	0.685
-462.099	-51.566	-0.840	-0.391
-461.084	-161.488	0.713	0.037
-460.070	-125.059	0.502	0.077
-459.055	254.348	0.300	0.512
-458.040	108.303	-0.340	-0.405
-457.026	-200.000	0.033	-0.198
-456.011	800.000	-0.167	-0.598
-454.997	-93.582	-0.155	-0.043
-453.982	415.661	-0.163	-0.346
-452.968	-200.000	-0.051	-0.343
-451.953	43.587	-0.518	-0.472
-450.938	-200.000	-0.026	0.115
-449.924	-135.617	0.544	0.064
-448.909	132.606	-0.236	0.304
-447.895	30.970	0.213	0.182
-446.880	-94.306	-0.782	0.213
-445.865	-36.981	-0.422	0.225
-444.851	-136.360	-0.387	0.045
-443.836	230.436	0.065	0.105
-442.822	-95.722	0.233	-0.062
-441.807	344.872	0.303	-0.592
-440.792	136.207	-0.329	0.427
-439.778	-141.594	0.268	0.027
-438.763	221.016	0.668	-1.068
-437.749	-29.712	-0.645	0.367
-436.734	345.522	0.307	-0.600
-435.719	-19.105	-0.458	0.284
-434.705	409.708	-0.312	0.659
-433.690	138.857	-0.433	-0.566
-432.676	753.983	-0.007	-0.020
-431.661	17.482	-0.171	-0.136
-430.646	-200.000	-0.098	-0.440
-429.632	-109.554	0.394	0.083
-428.617	-167.600	0.834	-0.033
-427.603	-103.942	-0.563	0.131
-426.588	-200.000	-0.011	-0.247
-425.573	68.279	0.352	-0.359
-424.559	53.913	0.195	-0.187
-423.544	244.147	0.390	0.652
-422.530	-200.000	-0.018	0.640
-421.515	467.861	-0.274	-0.613
-420.500	-120.060	0.111	-0.019
-419.486	-26.637	-0.495	0.288
-418.471	-128.118	-0.229	0.033
-417.457	-29.701	0.373	0.212
-416.442	-100.137	-0.989	-0.245
-415.428	625.204	0.176	-0.441
-414.413	426.704	-0.068	0.146
-413.398	106.314	-0.157	-0.186
-412.384	-200.000	0.009	0.297
-411.369	-200.000	0.140	-0.808
-410.355	-200.000	0.107	0.574
-409.340	630.441	0.113	-0.285
-408.325	-200.000	-0.015	0.819
-407.311	800.000	0.189	-0.546
-406.296	-181.888	-0.365	-0.007
-405.282	800.000	0.259	0.848
-404.267	-89.369	-0.360	0.105
-403.252	-117.614	-0.639	0.115
-402.238	-135.236	0.158	0.019
-401.223	-61.810	0.093	0.039
-400.209	800.000	-0.111	-0.410
-399.194	295.976	-0.147	-0.269
-398.179	-200.000	0.077	-0.445
-397.165	-200.000	0.065	0.357
-396.150	-107.013	0.073	0.016
-395.136	329.479	0.023	0.043
-394.121	800.000	-0.211	0.648
-393.106	145.631	0.336	0.448
-392.092	135.199	0.227	0.293
-391.077	-155.086	-0.150	-0.010
-390.063	41.582	-0.679	0.611
-389.048	294.280	-0.322	0.585
-388.033	-200.000	0.028	-0.190
-387.019	73.944	-0.297	-0.310
-386.004	26.422	0.489	-0.407
-384.990	-84.563	-0.560	0.176
-383.975	340.442	-0.381	-0.739
-382.960	-165.128	0.287	0.013
-381.946	-50.838	-0.120	0.056
-380.931	-148.975	0.605	-0.048
-379.917	309.552	-0.224	0.416
-378.902	-28.139	0.808	0.464
-377.888	42.811	0.349	-0.316
-376.873	-43.105	0.271	-0.137
-375.858	-21.133	-0.231	0.141
-374.844	32.014	-0.975	-0.836
-373.829	-200.000	-0.042	0.219
-372.815	-200.000	0.035	-0.330
-371.800	313.124	0.100	0.188
-370.785	-91.639	0.665	0.188
-369.771	18.737	-0.354	0.281
-368.756	-200.000	-0.088	0.412
-367.742	-2.201	0.630	-0.439
-366.727	-98.569	-0.562	0.143
-365.712	21.638	0.232	-0.188
-364.698	359.716	-0.084	-0.166
-363.683	-23.565	0.218	0.130
-362.669	-115.228	-0.345	-0.065
-361.654	-44.059	0.389	-0.194
-360.639	126.798	0.140	0.176
-359.625	-38.353	0.707	0.372
-358.610	-200.000	0.027	-0.285
-357.596	-108.614	0.564	0.120
-356.581	103.269	0.461	0.537
-355.566	246.820	-0.395	0.661
-354.552	800.000	0.085	0.336
-353.537	94.928	-0.599	0.677
-352.523	-200.000	0.001	-0.384
-351.508	-200.000	0.120	0.773
-350.493	-168.408	1.102	0.042
-349.479	-200.000	0.167	-1.081
-348.464	-66.994	0.330	-0.129
-347.450	-12.609	0.526	-0.341
-346.435	24.546	-0.115	0.095
-345.420	228.111	-0.501	0.810
-344.406	537.393	0.128	0.301
-343.391	2.663	0.576	-0.414
-342.377	-27.767	0.367	-0.211
-341.362	-55.457	0.709	-0.316
-340.348	-200.000	0.012	0.548
-339.333	-200.000	1.369	0.002
-338.318	139.659	0.952	-1.244
-337.304	-95.321	-1.085	0.290
-336.289	-185.652	0.182	0.003
-335.275	454.066	0.365	-0.803
-334.260	-84.396	-0.449	-0.141
-333.245	285.540	0.128	-0.229
-332.231	33.830	0.443	0.382
-331.216	11.548	0.861	-0.655
-330.202	-99.744	-0.681	0.169
-329.187	-135.709	-0.563	0.066
-328.172	162.659	0.261	-0.363
-327.158	-200.000	-0.044	-0.557
-326.143	-125.225	0.305	-0.046
-325.129	-200.000	-0.030	-1.036
-324.114	248.068	0.426	0.714
-323.099	82.020	-0.415	0.446
-322.085	-200.000	0.010	-0.372
-321.070	-16.634	-0.463	-0.291
-320.056	-25.837	0.947	-0.553
-319.041	70.404	-0.444	0.455
-318.026	118.336	0.218	0.266
-317.012	-90.788	-0.425	-0.122
-315.997	-79.154	-0.203	0.068
-314.983	377.376	-0.422	-0.856
-313.968	133.464	-0.103	-0.132
-312.953	-0.297	0.452	-0.318
-311.939	-200.000	0.272	1.402
-310.924	-200.000	-0.040	0.361
-309.910	-143.167	0.738	-0.071
-308.895	800.000	0.070	-0.236
-307.880	-129.695	1.009	0.138
-306.866	590.819	-0.452	-1.106
-305.851	27.245	0.423	-0.352
-304.837	-200.000	-0.043	-0.391
-303.822	75.348	-0.314	0.328
-302.807	-52.822	0.858	0.392
-301.793	231.620	0.175	0.284
-300.778	138.572	-0.292	0.380
-299.764	769.172	0.346	0.933
-298.749	-162.507	-0.481	0.024
-297.735	-79.074	0.608	0.205
-296.720	-158.039	-0.182	-0.011
-295.705	-128.675	-1.105	-0.155
-294.691	140.819	-0.516	0.676
-293.676	-49.180	0.467	-0.221
-292.662	-200.000	0.040	0.329
-291.647	545.990	-0.212	0.502
-290.632	-85.725	-0.850	0.261
-289.618	62.964	0.365	-0.362
-288.603	800.000	0.198	0.693
-287.589	-30.908	0.401	0.224
-286.574	85.276	-0.644	-0.700
-285.559	12.795	-0.220	-0.168
-284.545	-116.348	-0.782	0.143
-283.530	-36.010	-0.821	0.439
-282.516	-200.000	-0.098	0.541
-281.501	800.000	-0.081	-0.251
-280.486	73.336	-0.414	-0.429
-279.472	108.773	0.424	-0.501
-278.457	800.000	-0.249	0.985
-277.443	-27.770	-0.286	-0.164
-276.428	-153.735	-0.828	-0.056
-275.413	-200.000	-0.061	-0.277
-274.399	-102.362	-0.414	0.098
-273.384	-93.925	0.180	0.049
-272.370	178.125	0.446	0.645
-271.355	-200.000	0.304	-1.346
-270.340	-200.000	0.006	-0.760
-269.326	800.000	0.083	-0.266
-268.311	321.935	0.204	-0.384
-267.297	-148.891	-0.571	0.046
-266.282	-100.850	0.894	0.218
-265.267	69.286	-0.356	-0.362
-264.253	131.496	0.278	-0.353
-263.238	-189.126	-0.420	-0.005
-262.224	-180.805	0.200	-0.004
-261.209	-200.000	-0.111	0.966
-260.195	5.138	0.322	0.235
-259.180	800.000	0.249	-0.821
-258.165	-200.000	-0.166	-0.794
-257.151	645.421	-0.120	-0.304
-256.136	800.000	-0.203	-0.871
-255.122	20.372	0.178	-0.142
-254.107	166.941	-0.348	-0.488
-253.092	81.858	-0.495	0.530
-252.078	-200.000	0.001	0.675
-251.063	73.833	-0.444	0.460
-250.049	-116.652	-0.361	-0.066
-249.034	508.851	-0.100	-0.231
-248.019	205.918	-0.228	-0.351
-247.005	800.000	-0.056	-0.240
-245.990	-39.598	-0.584	-0.302
-244.976	2.876	-0.325	0.234
-243.961	-200.000	0.171	-0.816
-242.946	-200.000	-0.047	0.335
-241.932	251.270	0.396	0.665
-240.917	13.309	0.124	0.095
-239.903	569.600	0.130	-0.312
-238.888	316.605	0.260	0.486
-237.873	19.715	-0.642	0.511
-236.859	-119.631	-0.980	-0.167
-235.844	-21.322	-0.535	0.323
-234.830	43.497	0.626	0.566
-233.815	157.666	0.301	0.413
-232.800	-150.018	-1.337	0.103
-231.786	-55.988	0.396	0.175
-230.771	-200.000	0.025	-0.605
-229.757	-200.000	0.154	-0.773
-228.742	-200.000	-0.092	0.419
-227.727	-15.711	-0.704	-0.444
-226.713	-111.197	-0.573	-0.116
-225.698	800.000	-0.119	-0.514
-224.684	800.000	-0.339	-1.049
-223.669	-54.474	0.862	-0.386
-222.655	-106.824	0.222	0.049
-221.640	-122.564	0.554	-0.089
-220.625	251.126	0.090	0.151
-219.611	14.073	-0.517	0.397
-218.596	-20.420	0.237	0.144
-217.582	-89.174	-0.279	0.081
-216.567	50.858	-0.505	-0.472
-215.552	93.114	0.307	0.342
-214.538	-200.000	0.011	0.132
-213.523	608.887	-0.304	0.750
-212.509	800.000	-0.027	-0.099
-211.494	-55.546	-0.515	0.228
-210.479	50.398	-0.379	0.354
-209.465	466.597	-0.313	-0.693
-208.450	-99.908	-0.523	-0.129
-207.436	366.323	0.269	-0.536
-206.421	132.141	0.637	-0.810
-205.406	-200.000	0.052	0.504
-204.392	4.666	-0.373	0.270
-203.377	276.644	-0.069	-0.122
-202.363	350.299	0.172	-0.336
-201.348	-113.693	0.352	-0.068
-200.333	-66.550	-0.232	0.091
-199.319	-67.493	-0.613	0.237
-198.304	-200.000	-0.016	0.162
-197.290	403.415	-0.238	-0.495
-196.275	-66.488	0.894	0.350
-195.260	375.981	0.318	0.641
-194.246	197.282	0.231	0.348
-193.231	-26.871	0.211	0.122
-192.217	-157.902	-0.304	-0.018
-191.202	39.475	-0.689	-0.609
-190.187	106.383	0.230	-0.269
-189.173	348.993	-0.155	0.302
-188.158	-200.000	-0.060	-0.663
-187.144	-28.615	0.342	0.194
-186.129	-88.836	-0.195	-0.057
-185.114	2.218	-0.144	0.103
-184.100	11.994	-0.081	-0.061
-183.085	800.000	0.091	-0.297
-182.071	-110.134	-0.476	-0.098
-181.056	-92.802	0.234	-0.065
-180.042	280.243	-0.384	0.676
-179.027	162.519	0.077	-0.106
-178.012	-107.485	-0.520	-0.112
-176.998	800.000	-0.068	0.246
-175.983	-200.000	0.098	0.531
-174.969	50.890	0.227	0.212
-173.954	11.453	0.623	0.471
-172.939	-200.000	-0.033	-0.147
-171.925	-72.198	0.587	-0.215
-170.910	-200.000	0.074	0.378
-169.896	-200.000	-0.042	-0.580
-168.881	-200.000	0.133	0.749
-167.866	-200.000	-0.046	-0.258
-166.852	-27.061	0.756	-0.435
-165.837	62.714	-0.118	0.116
-164.823	-59.294	0.294	-0.125
-163.808	-43.384	0.481	0.240
-162.793	64.806	-0.124	0.123
-161.779	233.444	-0.230	0.372
-160.764	335.275	0.133	0.255
-159.750	-41.636	0.142	0.072
-158.735	21.929	0.302	0.243
-157.720	124.105	0.578	0.715
-156.706	797.802	-0.125	-0.339
-155.691	168.588	-0.341	-0.479
-154.677	-102.799	0.599	-0.140
-153.662	-133.891	-0.500	0.061
-152.647	345.130	-0.199	-0.384
-151.633	356.357	0.218	0.427
-150.618	-102.506	0.938	-0.221
-149.604	-200.000	0.022	0.699
-148.589	-19.826	0.917	-0.558
-147.574	-39.475	0.408	-0.211
-146.560	271.668	0.338	-0.586
-145.545	-142.958	0.285	-0.027
-144.531	86.164	0.374	-0.406
-143.516	800.000	0.069	-0.227
-142.502	56.124	0.568	-0.543
-141.487	-200.000	0.094	-0.716
-140.472	-200.000	-0.010	-0.410
-139.458	-144.739	1.677	-0.152
-138.443	-107.402	1.150	0.249
-137.429	-200.000	0.092	0.494
-136.414	-89.065	0.808	0.235
-135.399	800.000	0.195	-0.787
-134.385	-147.362	-1.279	-0.107
-133.370	194.722	-0.428	0.640
-132.356	451.502	0.132	0.287
-131.341	-73.963	-0.287	-0.103
-130.326	-14.480	-0.710	0.450
-129.312	800.000	0.092	-0.352
-128.297	40.629	0.347	0.308
-127.283	203.268	0.307	0.467
-126.268	-90.459	0.847	0.242
-125.253	-188.960	0.613	0.007
-124.239	186.253	-0.260	0.380
-123.224	-8.835	-0.282	-0.186
-122.210	-137.242	1.015	-0.114
-121.195	-85.315	0.206	-0.063
-120.180	-155.888	-0.344	0.022
-119.166	13.919	0.448	0.343
-118.151	-104.286	0.601	-0.137
-117.137	74.563	-0.505	0.523
-116.122	194.240	0.176	0.262
-115.107	99.031	-0.299	-0.340
-114.093	-82.678	0.604	0.193
-113.078	-137.216	-1.016	0.114
-112.064	-107.261	0.741	-0.161
-111.049	20.241	-0.265	0.210
-110.034	793.830	-0.087	0.235
-109.020	-200.000	-0.113	0.607
-108.005	-141.426	-0.703	0.070
-106.991	-106.915	-0.540	0.118
-105.976	-24.529	0.165	0.097
-104.962	-200.000	-0.059	0.860
-103.947	800.000	0.294	0.938
-102.932	-33.569	-0.223	-0.121
-101.918	149.708	-0.050	0.067
-100.903	-99.725	-0.855	-0.211
-99.889	-66.959	0.696	0.270
-98.874	240.776	0.545	0.894
-97.859	-75.481	-0.285	-0.100
-96.845	54.835	0.449	0.426
-95.830	98.461	0.342	-0.388
-94.816	-1.567	0.059	0.041
-93.801	-122.222	0.530	0.085
-92.786	800.000	0.124	-0.483
-91.772	77.092	0.332	-0.347
-90.757	-200.000	0.012	-0.350
-89.743	-107.639	-0.323	0.069
-88.728	-134.047	0.581	-0.071
-87.713	-200.000	-0.110	0.617
-86.699	119.740	0.190	-0.231
-85.684	800.000	-0.088	-0.285
-84.670	22.860	-0.267	0.215
-83.655	800.000	0.136	-0.420
-82.640	-91.123	-0.770	0.217
-81.626	-200.000	0.087	0.382
-80.611	-137.473	0.624	0.069
-79.597	243.329	0.165	-0.272
-78.582	-124.842	-0.431	0.065
-77.567	37.451	-0.215	-0.187
-76.553	86.685	-0.404	0.438
-75.538	-86.508	-0.641	0.193
-74.524	209.517	0.148	0.227
-73.509	-16.305	-0.338	-0.211
-72.494	37.745	0.152	-0.132
-71.480	29.423	-0.181	0.151
-70.465	-46.156	-1.014	-0.490
-69.451	-167.191	0.630	-0.025
-68.436	83.283	0.523	0.560
-67.422	244.958	0.320	0.528
-66.407	800.000	-0.303	0.975
-65.392	-24.532	0.566	0.331
-64.378	-110.443	-0.886	0.181
-63.363	-100.442	-0.378	-0.092
-62.349	214.543	-0.560	0.871
-61.334	-105.462	-1.613	-0.360
-60.319	-24.416	0.412	-0.241
-59.305	800.000	0.344	-1.275
-58.290	127.843	0.675	0.843
-57.276	7.284	1.451	1.063
-56.261	-200.000	95.779	597.705
-55.246	685.823	1349.033	3458.460
-54.232	204.288	2524.007	3839.547
-53.217	115.084	2247.352	2692.349
-52.203	41.897	1882.541	1675.851
-51.188	35.617	1673.956	1443.135
-50.173	33.028	1629.787	1386.037
-49.159	51.130	1678.012	1562.106
-48.144	52.160	1694.927	1585.458
-47.130	35.013	1656.253	1423.154
-46.115	32.459	1642.236	1392.191
-45.100	32.214	1637.706	1386.486
-44.086	32.307	1633.376	1383.450
-43.071	32.343	1631.185	1381.807
-42.057	32.040	1628.783	1377.491
-41.042	32.199	1627.822	1377.789
-40.027	32.353	1624.772	1376.281
-39.013	32.337	1622.418	1374.115
-37.998	31.954	1622.484	1371.321
-36.984	32.345	1619.668	1371.741
-35.969	32.574	1617.576	1371.581
-34.954	32.201	1617.591	1368.823
-33.940	32.365	1614.482	1367.328
-32.925	32.318	1613.258	1365.895
-31.911	32.456	1610.701	1364.677
-30.896	32.379	1610.243	1363.673
-29.881	32.268	1608.742	1361.550
-28.867	32.292	1607.262	1360.412
-27.852	32.415	1605.233	1359.531
-26.838	32.225	1603.770	1356.866
-25.823	32.124	1602.778	1355.246
-24.809	32.479	1600.297	1355.648
-23.794	32.343	1599.984	1354.352
-22.779	32.267	1598.463	1352.467
-21.765	32.285	1596.905	1351.221
-20.750	32.220	1595.911	1349.862
-19.736	32.182	1594.552	1348.386
-18.721	32.283	1592.485	1347.309
-17.706	32.485	1589.929	1346.537
-16.692	32.275	1589.719	1344.805
-15.677	32.107	1588.889	1342.843
-14.663	32.349	1587.940	1343.722
-13.648	32.465	1585.716	1342.616
-12.633	32.290	1583.867	1339.750
-11.619	32.490	1582.074	1339.603
-10.604	32.453	1581.104	1338.462
-9.590	32.233	1580.314	1336.176
-8.575	32.341	1579.009	1335.788
-7.560	32.211	1577.507	1333.542
-6.546	32.381	1575.495	1332.993
-5.531	32.466	1574.981	1333.110
-4.517	32.670	1572.929	1332.763
-3.502	32.337	1572.782	1330.227
-2.487	32.295	1571.056	1328.419
-1.473	31.883	1560.464	1316.518
-0.458	29.025	1539.828	1279.223
0.556	26.740	1539.464	1246.714
1.571	24.386	1562.836	1249.072
2.586	23.626	1574.658	1253.050
3.600	20.761	1522.732	1192.032
4.615	12.421	1414.239	1053.746
5.629	4.826	1350.265	959.346
6.644	3.422	1342.028	944.803
7.659	3.282	1341.486	943.480
8.673	3.456	1338.964	942.690
9.688	3.121	1339.197	940.723
10.702	2.970	1335.198	936.910
11.717	6.347	1341.580	961.964
12.731	15.885	1358.605	1032.859
13.746	23.184	1371.480	1087.588
14.761	24.921	1371.973	1098.550
15.775	24.911	1371.024	1097.635
16.790	24.198	1370.532	1092.772
17.804	24.344	1369.241	1092.538
18.819	24.318	1368.587	1091.764
19.834	24.329	1368.116	1091.355
20.848	24.578	1367.715	1092.464
21.863	24.425	1366.831	1090.724
22.877	24.657	1364.638	1090.294
23.892	24.344	1365.012	1088.588
24.907	24.611	1362.921	1088.450
25.921	24.304	1362.566	1086.200
26.936	24.348	1362.456	1086.282
27.950	24.464	1360.455	1085.294
28.965	24.494	1359.804	1084.866
29.980	24.533	1359.694	1084.916
30.994	24.509	1358.515	1083.736
32.009	24.768	1356.335	1083.471
33.023	24.453	1356.169	1081.333
34.038	24.468	1355.140	1080.509
35.053	24.498	1353.944	1079.638
36.067	24.453	1351.895	1077.641
37.082	24.135	1352.034	1075.737
38.096	24.437	1351.258	1076.842
39.111	24.499	1351.082	1076.982
40.126	24.608	1349.144	1076.001
41.140	24.203	1348.887	1073.260
42.155	23.904	1349.611	1071.938
43.169	23.839	1347.686	1069.926
44.184	24.025	1347.701	1070.959
45.199	23.774	1348.124	1069.690
46.213	23.993	1347.445	1070.376
47.228	24.223	1346.737	1071.099
48.242	24.606	1345.223	1072.100
49.257	24.412	1344.141	1069.980
50.271	24.398	1342.347	1068.375
51.286	24.430	1341.657	1067.920
52.301	24.432	1340.327	1066.780
53.315	24.459	1339.177	1065.930
54.330	24.316	1338.840	1064.715
55.344	24.298	1338.107	1063.929
56.359	24.342	1335.560	1062.073
57.374	24.169	1335.370	1060.796
58.388	24.202	1334.650	1060.327
59.403	24.042	1334.840	1059.435
60.417	23.957	1333.452	1057.733
61.432	24.172	1333.308	1058.801
62.447	24.084	1332.150	1057.268
63.461	24.226	1329.965	1056.280
64.476	24.037	1329.238	1054.488
65.490	23.922	1328.396	1053.049
66.505	23.902	1327.551	1052.169
67.520	23.998	1325.934	1051.362
68.534	23.775	1326.480	1050.384
69.549	23.772	1325.112	1049.190
70.563	23.683	1322.941	1046.851
71.578	23.773	1323.069	1047.392
72.593	23.749	1322.046	1046.347
73.607	23.831	1320.366	1045.404
74.622	24.106	1319.624	1046.343
75.636	23.929	1319.164	1044.846
76.651	24.022	1317.848	1044.254
77.666	23.931	1317.859	1043.639
78.680	23.948	1317.895	1043.675
79.695	23.837	1317.037	1042.251
80.709	23.903	1316.882	1042.427
81.724	24.113	1316.313	1043.110
82.739	24.202	1315.603	1042.978
83.753	24.509	1314.118	1043.500
84.768	24.761	1313.361	1044.278
85.782	24.812	1312.273	1043.622
86.797	24.863	1311.088	1042.881
87.812	24.743	1310.040	1041.259
88.826	24.446	1309.795	1039.244
89.841	24.336	1308.606	1037.570
90.855	24.589	1307.152	1037.793
91.870	24.475	1307.846	1037.587
92.884	24.643	1306.736	1037.590
93.899	24.620	1304.648	1035.708
94.914	24.515	1305.488	1035.677
95.928	24.726	1303.500	1035.228
96.943	24.453	1304.211	1034.118
97.957	24.535	1302.299	1032.985
98.972	24.684	1300.625	1032.428
99.987	24.702	1299.618	1031.640
101.001	24.683	1299.050	1030.992
102.016	24.837	1297.574	1030.615
103.030	24.748	1297.955	1030.311
104.045	24.711	1295.945	1028.416
105.060	24.377	1295.960	1026.412
106.074	24.163	1294.052	1023.582
107.089	24.082	1292.583	1021.862
108.103	24.129	1291.115	1020.881
109.118	23.893	1291.028	1019.372
110.133	23.591	1289.575	1016.403
111.147	24.023	1287.943	1017.498
112.162	23.951	1286.690	1016.010
113.176	23.915	1287.296	1016.190
114.191	23.893	1285.437	1014.504
115.206	24.007	1284.912	1014.655
116.220	24.105	1284.283	1014.627
117.235	24.098	1282.721	1013.261
118.249	23.814	1280.671	1009.937
119.264	23.748	1280.496	1009.339
120.279	24.120	1278.575	1009.844
121.293	23.940	1278.353	1008.555
122.308	23.971	1277.075	1007.638
123.322	23.744	1276.188	1005.559
124.337	23.638	1275.313	1004.183
125.352	23.621	1275.108	1003.840
126.366	23.652	1274.074	1003.109
127.381	23.612	1273.210	1002.116
128.395	23.479	1272.071	1000.380
129.410	23.631	1270.499	999.911
130.424	23.471	1270.505	998.924
131.439	23.732	1269.588	999.583
132.454	23.830	1269.707	1000.143
133.468	24.283	1268.657	1001.772
134.483	24.061	1269.001	1000.708
135.497	24.160	1267.001	999.597
136.512	23.960	1266.430	997.938
137.527	24.056	1264.938	997.213
138.541	23.922	1263.915	995.565
139.556	24.091	1263.551	996.138
140.570	24.180	1262.096	995.397
141.585	24.348	1261.219	995.557
142.600	24.342	1260.715	995.035
143.614	24.498	1260.479	995.633
144.629	24.451	1259.823	994.763
145.643	24.492	1258.236	993.655
146.658	24.353	1256.458	991.389
147.673	24.364	1255.531	990.629
148.687	24.503	1253.501	989.713
149.702	24.328	1253.424	988.594
150.716	23.698	1252.035	983.921
151.731	23.736	1250.490	982.828
152.746	23.889	1248.735	982.209
153.760	23.929	1249.549	982.984
154.775	24.568	1247.080	984.474
155.789	24.519	1246.461	983.629
156.804	24.252	1245.412	981.245
157.819	24.277	1245.595	981.441
158.833	24.558	1243.881	981.550
159.848	24.596	1243.364	981.260
160.862	24.341	1243.081	979.550
161.877	24.208	1242.226	978.063
162.892	23.790	1240.614	974.417
163.906	23.966	1239.250	974.221
164.921	23.588	1239.968	972.629
165.935	24.107	1238.131	973.939
166.950	24.194	1237.529	973.856
167.964	24.119	1237.873	973.629
168.979	24.391	1236.334	973.818
169.994	24.130	1234.947	971.219
171.008	23.967	1234.720	970.064
172.023	24.173	1234.396	970.846
173.037	24.415	1233.617	971.464
174.052	24.559	1231.583	970.558
175.067	24.246	1230.908	968.243
176.081	24.250	1230.416	967.792
177.096	23.879	1230.673	965.894
178.110	24.283	1228.820	966.544
179.125	24.062	1227.686	964.367
180.140	24.043	1227.530	964.057
181.154	24.473	1225.643	964.818
182.169	24.556	1224.143	963.998
183.183	24.517	1223.577	963.254
184.198	24.341	1223.023	961.787
185.213	24.394	1222.432	961.522
186.227	24.406	1221.371	960.669
187.242	24.681	1220.004	960.984
188.256	24.400	1219.354	958.880
189.271	24.577	1217.766	958.493
190.286	24.438	1217.932	957.795
191.300	24.100	1216.776	954.990
192.315	24.188	1216.458	955.123
193.329	24.376	1215.009	954.911
194.344	24.204	1214.685	953.650
195.359	24.217	1214.639	953.599
196.373	23.686	1213.862	950.066
197.388	23.609	1213.899	949.598
198.402	24.055	1214.155	952.100
199.417	24.723	1212.951	954.639
200.432	24.784	1212.229	954.311
201.446	24.612	1212.313	953.376
202.461	24.500	1212.054	952.491
203.475	24.635	1210.500	951.902
204.490	24.228	1209.199	948.630
205.504	24.211	1207.270	946.942
206.519	23.857	1207.917	945.484
207.534	23.822	1205.478	943.308
208.548	24.251	1203.318	943.805
209.563	23.817	1203.315	941.418
210.577	23.732	1202.327	940.112
211.592	24.206	1201.937	942.232
212.607	24.683	1202.653	945.233
213.621	24.435	1202.324	943.577
214.636	23.947	1201.983	940.647
215.650	24.265	1199.944	940.648
216.665	24.442	1198.265	940.182
217.680	24.393	1198.314	939.877
218.694	24.447	1197.727	939.622
219.709	24.495	1195.963	938.403
220.723	24.470	1195.580	937.891
221.738	24.308	1195.719	937.067
222.753	24.291	1193.820	935.404
223.767	24.136	1192.671	933.607
224.782	24.482	1193.407	935.914
225.796	24.702	1193.339	936.934
226.811	24.494	1192.123	934.806
227.826	24.491	1190.710	933.600
228.840	24.102	1190.976	931.693
229.855	24.360	1189.554	931.845
230.869	24.159	1189.068	930.332
231.884	24.249	1187.290	929.326
232.899	23.896	1186.728	926.964
233.913	24.100	1185.004	926.600
234.928	24.064	1185.270	926.539
235.942	23.847	1184.677	924.863
236.957	23.619	1184.344	923.337
237.972	23.800	1182.533	922.784
238.986	24.028	1181.886	923.380
240.001	23.951	1181.301	922.441
241.015	24.029	1180.276	921.963
242.030	23.847	1181.494	921.890
243.045	24.120	1180.862	922.729
244.059	24.528	1179.147	923.415
245.074	24.172	1179.683	921.915
246.088	24.389	1177.720	921.416
247.103	24.470	1177.715	921.749
248.117	24.507	1176.902	921.226
249.132	24.624	1176.316	921.286
250.147	24.877	1175.804	922.106
251.161	25.088	1175.320	922.732
252.176	25.094	1174.927	922.374
253.190	25.186	1174.181	922.181
254.205	25.186	1174.241	922.144
255.220	25.490	1172.572	922.313
256.234	25.554	1172.061	922.156
257.249	25.069	1171.989	919.533
258.263	25.285	1170.414	919.322
259.278	25.373	1170.619	919.850
260.293	25.230	1169.595	918.236
261.307	25.326	1169.885	918.873
262.322	25.139	1169.169	917.272
263.336	25.359	1167.874	917.298
264.351	25.160	1167.898	916.220
265.366	25.178	1167.696	916.072
266.380	25.325	1165.988	915.400
267.395	25.572	1164.840	915.677
268.409	25.074	1164.402	912.715
269.424	25.276	1163.000	912.565
270.439	25.293	1163.200	912.728
271.453	25.019	1163.015	911.109
272.468	24.819	1162.224	909.390
273.482	24.735	1160.890	907.840
274.497	24.783	1160.531	907.723
275.512	24.556	1160.635	906.569
276.526	24.850	1158.815	906.561
277.541	25.024	1158.404	907.038
278.555	25.114	1157.354	906.590
279.570	25.045	1158.008	906.673
280.585	25.268	1156.910	906.859
281.599	25.470	1155.506	906.700
282.614	25.082	1154.352	903.757
283.628	24.801	1153.785	901.818
284.643	24.559	1153.076	899.964
285.657	24.959	1152.379	901.353
286.672	25.100	1150.358	900.402
287.687	24.861	1149.727	898.627
288.701	25.001	1149.554	899.114
289.716	24.952	1148.107	897.657
290.730	25.043	1147.810	897.803
291.745	25.037	1147.217	897.228
292.760	24.818	1148.042	896.698
293.774	25.100	1146.489	896.815
294.789	25.213	1146.388	897.225
295.803	25.296	1145.561	896.913
296.818	24.949	1144.696	894.425
297.833	24.907	1145.114	894.459
298.847	24.982	1143.074	893.160
299.862	24.881	1141.686	891.495
300.876	24.604	1142.487	890.662
301.891	24.930	1141.435	891.384
302.906	25.607	1140.223	893.725
303.920	25.369	1140.701	892.835
304.935	25.417	1140.739	893.029
305.949	25.229	1139.053	890.695
306.964	25.425	1138.227	890.942
307.979	25.133	1138.479	889.611
308.993	25.004	1137.481	888.115
310.008	25.659	1135.042	889.368
311.022	25.470	1135.386	888.626
312.037	25.368	1134.887	887.654
313.052	25.162	1133.742	885.661
314.066	24.796	1133.075	883.255
315.081	24.764	1131.196	881.554
316.095	24.733	1130.204	880.550
317.110	24.776	1129.008	879.755
318.125	24.784	1129.724	880.274
319.139	24.864	1128.646	879.746
320.154	24.763	1129.034	879.476
321.168	24.571	1128.191	877.796
322.183	24.872	1126.641	877.991
323.197	24.779	1126.299	877.190
324.212	24.662	1125.488	875.910
325.227	25.059	1124.622	877.099
326.241	24.902	1124.603	876.240
327.256	24.936	1123.766	875.676
328.270	25.045	1122.708	875.305
329.285	24.641	1122.803	873.331
330.300	24.981	1121.213	873.676
331.314	25.139	1120.478	873.795
332.329	24.759	1119.913	871.426
333.343	24.962	1119.274	871.840
334.358	24.937	1118.727	871.214
335.373	25.357	1117.491	872.216
336.387	25.287	1116.859	871.306
337.402	25.281	1116.866	871.203
338.416	25.265	1116.131	870.477
339.431	25.364	1114.570	869.661
340.446	25.332	1115.233	869.946
341.460	25.642	1114.169	870.540
342.475	25.734	1114.126	870.875
343.489	25.663	1113.179	869.716
344.504	25.657	1113.089	869.539
345.519	25.964	1111.515	869.713
346.533	26.021	1109.759	868.534
347.548	26.201	1109.161	868.857
348.562	25.980	1108.028	866.830
349.577	25.253	1108.303	863.471
350.592	25.133	1107.283	862.023
351.606	25.347	1105.955	861.943
352.621	25.221	1105.600	860.982
353.635	25.261	1104.211	860.015
354.650	25.113	1102.977	858.270
355.665	25.102	1103.301	858.395
356.679	25.366	1102.577	859.017
357.694	25.414	1102.422	859.051
358.708	25.734	1101.910	860.108
359.723	25.643	1101.144	858.997
360.738	25.733	1100.957	859.204
361.752	25.322	1100.295	856.651
362.767	25.336	1099.276	855.849
363.781	25.446	1098.261	855.505
364.796	25.577	1099.278	856.848
365.810	25.746	1098.662	857.099
366.825	25.926	1098.416	857.685
367.840	26.267	1097.064	858.172
368.854	26.063	1096.331	856.554
369.869	26.115	1095.454	856.040
370.883	25.861	1095.435	854.746
371.898	26.041	1093.826	854.270
372.913	25.866	1093.187	852.866
373.927	25.898	1093.018	852.807
374.942	25.999	1093.270	853.408
375.956	26.268	1091.791	853.449
376.971	25.924	1091.958	851.878
377.986	25.888	1091.500	851.277
379.000	26.190	1090.759	852.049
380.015	26.163	1090.276	851.466
381.029	26.229	1089.437	851.047
382.044	26.013	1088.806	849.461
383.059	26.235	1087.480	849.396
384.073	26.114	1086.851	848.262
385.088	26.406	1085.717	848.675
386.102	26.449	1084.372	847.746
387.117	25.793	1084.101	844.388
388.132	25.521	1083.274	842.394
389.146	25.836	1082.498	843.188
390.161	25.236	1082.263	840.122
391.175	25.522	1081.064	840.455
392.190	25.951	1080.368	841.843
393.205	26.293	1079.696	842.843
394.219	26.209	1078.879	841.737
395.234	25.825	1078.809	839.820
396.248	25.873	1077.072	838.617
397.263	25.599	1076.000	836.434
398.278	25.740	1076.274	837.226
399.292	26.072	1074.712	837.480
400.307	25.914	1074.050	836.155
401.321	25.748	1073.615	834.973
402.336	25.314	1073.017	832.423
403.350	24.959	1073.384	830.987
404.365	25.916	1071.366	833.781
405.380	25.778	1071.931	833.506
406.394	25.800	1070.891	832.728
407.409	25.724	1070.810	832.241
408.423	25.864	1070.553	832.612
409.438	26.118	1069.618	832.985
410.453	26.397	1067.468	832.521
411.467	26.438	1067.401	832.584
412.482	26.327	1066.924	831.626
413.496	26.152	1066.766	830.628
414.511	26.343	1065.429	830.387
415.526	26.520	1065.916	831.506
416.540	26.878	1065.165	832.494
417.555	26.591	1064.521	830.597
418.569	26.319	1063.998	828.871
419.584	26.301	1063.360	828.217
420.599	26.042	1063.044	826.712
421.613	153.545	1404.457	1792.696
422.628	141.217	1454.110	1792.793
