DTS Sentinel unit serial number:	SN413079Multiplexer serial number:	ORYXHardware model number:	OX4-SRSoftware version number:	ORYX F/W v4.00 Oryx Data Collector v3.7.2.0data status	okinstallation	princeton_trtdifferential loss correction	single-endedforward channel	channel 2reverse channel	N/Adate	2019/09/18time	16:03:35forward acquisition time	60.00reverse acquisition time	0.00gamma	496.2192k internal	0.2304k external	0.2304temperature offset calibration	1.0004default loss term (dB/km)	0.3790temperature slope calibration	1.0000multiplexer offset coefficient	1.0000multiplexer slope coefficient	1.0000fibre end	0.00T internal ref (°C)	37.53T ext. ref 1 (°C)	0.81T ext. ref 2 (°C)	36.98length (m)	temperature (°C)	Stokes	anti-Stokes-747.200	-143.312	0.212	-0.021
-746.185	-74.181	0.229	-0.084
-745.171	-200.000	-0.001	-0.186
-744.156	-62.992	-0.242	-0.102
-743.142	-113.023	-0.236	-0.047
-742.127	-200.000	0.064	0.324
-741.112	361.325	0.063	-0.129
-740.098	-10.362	-0.218	0.147
-739.083	108.362	0.131	-0.159
-738.069	24.258	-0.124	0.104
-737.054	710.348	0.059	-0.159
-736.039	52.249	-0.250	0.243
-735.025	-81.834	0.178	-0.059
-734.010	276.853	0.070	-0.127
-732.996	-148.472	-0.158	-0.013
-731.981	99.725	-0.153	-0.180
-730.966	256.989	-0.153	0.268
-729.952	331.731	-0.136	-0.267
-728.937	-99.013	-0.469	-0.121
-727.923	-173.715	-0.073	0.002
-726.908	120.834	0.154	-0.195
-725.894	-146.301	-0.218	-0.019
-724.879	612.605	-0.047	-0.118
-723.864	369.378	-0.055	0.112
-722.850	-71.655	-0.324	-0.123
-721.835	533.067	-0.080	-0.193
-720.821	80.397	0.032	0.036
-719.806	800.000	0.018	0.052
-718.791	200.942	-0.174	0.272
-717.777	81.646	0.145	-0.159
-716.762	800.000	0.032	-0.140
-715.748	103.950	0.067	-0.080
-714.733	593.804	0.095	-0.238
-713.718	-190.707	0.176	0.002
-712.704	42.761	-0.173	0.160
-711.689	521.330	-0.022	0.053
-710.675	-112.744	-0.272	-0.055
-709.660	698.712	0.060	-0.159
-708.645	800.000	-0.085	-0.291
-707.631	11.398	-0.113	-0.088
-706.616	530.930	0.091	-0.220
-705.602	329.010	-0.091	0.177
-704.587	-200.000	-0.064	-0.294
-703.572	25.738	-0.322	-0.273
-702.558	-136.494	0.489	0.058
-701.543	47.309	0.060	0.057
-700.529	301.931	0.082	-0.154
-699.514	601.049	0.022	-0.056
-698.499	29.880	-0.106	0.092
-697.485	-200.000	-0.195	0.000
-696.470	-105.854	-0.128	-0.029
-695.456	-200.000	-0.033	-0.341
-694.441	800.000	-0.076	-0.253
-693.426	38.178	-0.061	-0.055
-692.412	-200.000	-0.020	-0.330
-691.397	-86.461	-0.277	-0.086
-690.383	17.375	-0.081	-0.066
-689.368	539.357	-0.027	0.065
-688.354	439.233	0.036	0.080
-687.339	800.000	-0.079	0.242
-686.324	-43.449	0.098	-0.050
-685.310	35.076	-0.197	0.176
-684.295	-27.602	-0.276	-0.163
-683.281	798.336	-0.129	-0.362
-682.266	-200.000	-0.013	0.088
-681.251	800.000	0.067	-0.221
-680.237	-82.723	0.096	0.031
-679.222	-200.000	0.049	0.233
-678.208	-58.392	-0.470	-0.208
-677.193	800.000	-0.038	-0.142
-676.178	482.950	0.172	-0.397
-675.164	-84.761	0.142	-0.045
-674.149	-101.845	0.258	0.063
-673.135	-133.012	-0.110	0.014
-672.120	800.000	-0.084	-0.277
-671.105	97.853	-0.096	-0.112
-670.091	-37.374	-0.054	-0.029
-669.076	279.700	-0.160	0.289
-668.062	128.057	0.107	-0.138
-667.047	441.654	-0.170	-0.379
-666.032	-113.190	-0.244	-0.049
-665.018	483.615	-0.013	-0.031
-664.003	-133.624	0.178	-0.023
-662.989	-20.569	0.374	0.233
-661.974	405.706	0.077	-0.165
-660.959	133.139	0.089	-0.116
-659.945	-125.997	-0.217	0.033
-658.930	-53.350	-0.362	-0.168
-657.916	-200.000	-0.005	-0.197
-656.901	720.404	-0.068	-0.183
-655.886	458.967	0.114	-0.258
-654.872	-134.962	-0.264	0.032
-653.857	199.270	-0.161	0.251
-652.843	-112.314	0.398	0.081
-651.828	-16.709	0.158	0.101
-650.814	-200.000	-0.014	-0.158
-649.799	102.043	0.135	0.159
-648.784	-21.941	-0.252	-0.156
-647.770	-73.088	0.244	0.091
-646.755	-200.000	0.028	0.237
-645.741	-50.183	-0.223	-0.107
-644.726	43.464	-0.323	0.299
-643.711	-29.568	0.272	-0.157
-642.697	463.020	0.122	-0.275
-641.682	-167.290	0.180	0.007
-640.668	432.998	0.031	-0.069
-639.653	661.247	0.043	0.112
-638.638	-200.000	0.034	0.223
-637.624	-124.794	-0.060	0.009
-636.609	464.277	0.167	-0.379
-635.595	-200.000	0.026	0.281
-634.580	800.000	0.025	-0.070
-633.565	386.727	0.086	0.179
-632.551	-104.372	0.280	0.066
-631.536	-96.386	-0.344	0.092
-630.522	-100.352	0.354	0.089
-629.507	-5.389	-0.201	-0.140
-628.492	-200.000	-0.001	-0.031
-627.478	46.199	0.107	0.101
-626.463	800.000	0.020	-0.062
-625.449	462.711	-0.096	-0.216
-624.434	-200.000	-0.008	0.129
-623.419	-200.000	-0.035	0.322
-622.405	-200.000	0.005	-0.230
-621.390	-200.000	-0.005	0.162
-620.376	71.005	-0.153	0.161
-619.361	-21.723	0.305	-0.188
-618.346	-130.006	-0.455	0.063
-617.332	-110.951	0.287	0.060
-616.317	-128.725	0.298	0.043
-615.303	-19.992	0.109	-0.068
-614.288	-200.000	0.008	-0.327
-613.273	-191.958	-0.098	0.001
-612.259	611.946	-0.090	-0.228
-611.244	170.957	-0.117	0.170
-610.230	29.382	0.234	0.201
-609.215	43.911	0.148	0.138
-608.201	311.887	-0.075	0.142
-607.186	246.922	0.143	0.245
-606.171	78.328	0.239	0.258
-605.157	-15.233	-0.100	0.065
-604.142	-14.413	0.105	-0.068
-603.128	-200.000	-0.003	0.155
-602.113	-20.292	-0.187	0.116
-601.098	-132.020	0.039	0.005
-600.084	577.395	0.069	0.171
-599.069	-200.000	0.010	-0.173
-598.055	-125.751	-0.172	0.026
-597.040	216.281	-0.089	-0.142
-596.025	800.000	-0.027	0.093
-595.011	-33.124	0.224	0.126
-593.996	517.083	-0.139	0.328
-592.982	-47.181	0.242	0.119
-591.967	-178.824	-0.181	-0.004
-590.952	800.000	-0.067	0.206
-589.938	162.462	0.118	0.168
-588.923	-128.578	-0.435	-0.062
-587.909	374.607	-0.180	-0.372
-586.894	800.000	0.041	-0.153
-585.879	-109.043	-0.101	-0.022
-584.865	-169.508	-0.187	-0.007
-583.850	135.010	-0.265	-0.348
-582.836	37.625	0.037	-0.033
-581.821	237.738	0.180	0.303
-580.806	-200.000	0.108	-0.522
-579.792	-200.000	-0.002	0.152
-578.777	237.386	0.132	0.222
-577.763	264.070	-0.152	0.267
-576.748	-132.262	-0.065	-0.009
-575.733	-151.077	0.119	0.009
-574.719	50.459	-0.179	0.171
-573.704	-200.000	-0.035	0.170
-572.690	800.000	0.028	-0.125
-571.675	-200.000	-0.021	0.114
-570.661	551.922	-0.105	0.254
-569.646	-68.323	-0.175	0.069
-568.631	-18.262	-0.258	-0.163
-567.617	-200.000	-0.037	0.242
-566.602	-99.306	-0.157	0.040
-565.588	800.000	-0.099	-0.374
-564.573	-200.000	0.001	0.114
-563.558	462.194	0.079	-0.177
-562.544	-6.190	0.050	-0.035
-561.529	99.341	0.184	-0.215
-560.515	157.832	0.128	-0.180
-559.500	-64.246	0.095	0.039
-558.485	-14.660	-0.144	0.093
-557.471	-88.997	-0.143	-0.043
-556.456	503.453	-0.130	-0.305
-555.442	-117.838	0.463	-0.084
-554.427	-200.000	-0.029	0.217
-553.412	-12.323	0.196	0.130
-552.398	-178.388	-0.236	0.006
-551.383	271.723	0.135	0.240
-550.369	-200.000	0.021	-0.100
-549.354	-68.488	-0.407	0.159
-548.339	-116.934	0.228	-0.042
-547.325	31.121	-0.071	-0.061
-546.310	800.000	-0.076	-0.272
-545.296	-200.000	0.023	-0.232
-544.281	373.616	-0.067	-0.138
-543.266	23.049	-0.179	-0.148
-542.252	-116.317	-0.073	-0.014
-541.237	800.000	-0.046	0.160
-540.223	-200.000	0.028	-0.265
-539.208	-200.000	0.015	-0.134
-538.193	-200.000	-0.017	-0.076
-537.179	333.899	0.121	-0.237
-536.164	-200.000	0.042	-0.221
-535.150	-200.000	0.099	0.469
-534.135	315.107	-0.071	0.135
-533.121	-49.982	-0.493	0.236
-532.106	166.442	-0.093	0.133
-531.091	0.884	-0.281	0.203
-530.077	12.779	-0.186	0.145
-529.062	800.000	-0.032	0.127
-528.048	-200.000	0.296	0.000
-527.033	-200.000	-0.050	-0.241
-526.018	-200.000	-0.073	0.325
-525.004	21.361	-0.134	0.110
-523.989	-200.000	-0.017	-0.155
-522.975	-179.107	0.053	-0.001
-521.960	-27.444	-0.066	-0.039
-520.945	-42.615	0.093	0.048
-519.931	289.403	-0.122	-0.223
-518.916	228.398	0.206	-0.339
-517.902	800.000	-0.022	0.068
-516.887	-54.016	-0.367	-0.169
-515.872	129.258	0.096	0.123
-514.858	800.000	0.048	0.205
-513.843	76.344	0.064	-0.069
-512.829	80.180	-0.208	-0.226
-511.814	-83.636	-0.166	0.053
-510.799	-175.707	0.098	0.003
-509.785	-122.581	-0.096	0.016
-508.770	740.869	-0.076	-0.206
-507.756	-200.000	0.009	-0.259
-506.741	-9.934	0.243	-0.163
-505.726	-200.000	0.016	0.076
-504.712	393.638	0.093	0.194
-503.697	-200.000	-0.010	-0.061
-502.683	-12.555	-0.214	-0.141
-501.668	-47.990	0.270	-0.132
-500.653	800.000	-0.054	-0.183
-499.639	423.991	-0.139	-0.302
-498.624	-159.492	-0.270	-0.015
-497.610	115.414	0.013	-0.016
-496.595	-156.254	0.028	-0.002
-495.581	800.000	0.039	-0.154
-494.566	68.692	0.098	-0.101
-493.551	-124.572	-0.248	-0.039
-492.537	-34.475	0.102	-0.056
-491.522	-66.803	-0.220	-0.088
-490.508	800.000	-0.064	0.192
-489.493	-79.512	-0.201	-0.069
-488.478	-200.000	-0.064	0.308
-487.464	-105.702	0.133	0.030
-486.449	454.480	-0.189	-0.423
-485.435	-91.524	-0.151	0.043
-484.420	96.168	-0.178	-0.205
-483.405	800.000	-0.153	0.432
-482.391	-200.000	-0.034	0.304
-481.376	290.224	-0.100	-0.184
-480.362	262.033	-0.042	0.074
-479.347	296.448	0.025	0.047
-478.332	110.599	0.060	-0.073
-477.318	356.700	-0.036	-0.073
-476.303	165.043	-0.084	-0.119
-475.289	-200.000	0.032	0.249
-474.274	50.899	0.152	0.145
-473.259	-176.550	-0.169	0.004
-472.245	-154.290	-0.153	0.010
-471.230	-120.794	0.070	0.012
-470.216	-60.110	0.237	-0.102
-469.201	23.137	0.208	-0.172
-468.186	-200.000	-0.010	-0.232
-467.172	229.639	-0.083	0.137
-466.157	-100.004	-0.306	0.077
-465.143	-114.032	0.372	-0.073
-464.128	-42.114	0.201	-0.104
-463.113	800.000	-0.064	-0.263
-462.099	156.140	-0.044	0.061
-461.084	-200.000	0.019	-0.175
-460.070	-8.371	0.051	0.035
-459.055	34.855	0.257	-0.226
-458.040	-200.000	0.005	0.132
-457.026	-110.227	0.015	0.003
-456.011	-187.969	0.386	0.005
-454.997	-109.990	0.255	0.054
-453.982	-95.578	0.362	-0.098
-452.968	800.000	0.118	0.341
-451.953	-200.000	0.001	0.082
-450.938	-48.303	0.084	-0.041
-449.924	-123.859	-0.081	-0.013
-448.909	145.973	0.142	0.192
-447.895	38.882	-0.137	-0.123
-446.880	-200.000	0.004	0.117
-445.865	43.582	-0.126	0.116
-444.851	627.883	-0.033	0.084
-443.836	-200.000	-0.027	-0.295
-442.822	-133.308	0.277	0.035
-441.807	599.510	0.046	0.115
-440.792	800.000	0.164	0.552
-439.778	-200.000	-0.024	0.227
-438.763	-43.020	-0.310	0.158
-437.749	4.589	0.050	-0.037
-436.734	-200.000	0.024	-0.602
-435.719	-200.000	0.039	-0.192
-434.705	-200.000	0.046	-0.307
-433.690	521.729	-0.090	0.213
-432.676	-5.034	0.039	0.027
-431.661	-135.737	-0.362	0.043
-430.646	800.000	0.022	0.078
-429.632	-39.655	0.234	0.123
-428.617	-134.649	-0.172	0.021
-427.603	428.279	-0.008	0.016
-426.588	392.090	-0.152	0.318
-425.573	182.696	0.080	-0.118
-424.559	476.326	-0.150	0.341
-423.544	800.000	-0.132	-0.416
-422.530	263.211	-0.166	0.290
-421.515	185.436	0.092	-0.137
-420.500	7.609	-0.361	-0.272
-419.486	209.135	0.247	-0.390
-418.471	-91.810	0.063	0.018
-417.457	589.119	-0.051	-0.126
-416.442	-200.000	0.074	0.444
-415.428	380.819	-0.062	0.127
-414.413	158.540	0.110	-0.153
-413.398	-94.178	-0.010	0.003
-412.384	61.513	0.067	-0.067
-411.369	1.130	0.240	-0.173
-410.355	9.128	-0.394	0.299
-409.340	58.292	0.175	0.173
-408.325	800.000	0.079	0.232
-407.311	46.868	-0.196	-0.183
-406.296	720.906	-0.055	-0.147
-405.282	-200.000	-0.018	-0.244
-404.267	101.282	0.149	-0.174
-403.252	283.275	-0.127	-0.229
-402.238	-96.661	-0.173	0.046
-401.223	236.055	0.066	-0.110
-400.209	338.227	0.081	0.159
-399.194	125.396	0.051	-0.065
-398.179	-79.151	-0.249	0.085
-397.165	167.668	-0.089	0.128
-396.150	201.942	-0.034	0.052
-395.136	380.104	-0.033	-0.067
-394.121	-170.851	0.192	0.007
-393.106	-200.000	0.005	-0.182
-392.092	-114.363	-0.159	0.031
-391.077	-132.494	-0.156	-0.020
-390.063	171.483	-0.195	-0.282
-389.048	-200.000	0.015	-0.162
-388.033	-84.050	0.376	-0.120
-387.019	-105.451	0.236	0.054
-386.004	-200.000	0.034	-0.248
-384.990	136.931	0.262	-0.343
-383.975	-200.000	0.023	-0.245
-382.960	-49.317	0.346	-0.166
-381.946	-81.382	-0.129	-0.043
-380.931	15.173	-0.314	0.247
-379.917	199.260	0.081	0.125
-378.902	-31.994	0.324	-0.182
-377.888	649.554	-0.231	0.592
-376.873	-29.516	-0.122	-0.070
-375.858	100.516	0.203	-0.237
-374.844	126.359	0.174	-0.221
-373.829	160.821	-0.081	-0.114
-372.815	5.167	-0.201	-0.148
-371.800	-22.040	-0.215	-0.131
-370.785	120.604	0.094	-0.118
-369.771	385.164	0.050	0.103
-368.756	-168.049	0.202	-0.008
-367.742	-81.525	0.205	-0.068
-366.727	-177.804	0.179	-0.004
-365.712	-122.759	-0.118	0.019
-364.698	-76.800	0.039	-0.014
-363.683	-13.930	-0.096	-0.062
-362.669	-30.557	0.281	0.160
-361.654	-49.062	0.225	-0.108
-360.639	240.940	-0.024	-0.040
-359.625	-200.000	0.038	0.175
-358.610	800.000	0.062	-0.219
-357.596	-200.000	0.002	0.011
-356.581	-200.000	-0.063	-0.297
-355.566	-66.900	0.249	-0.099
-354.552	-118.320	0.217	0.039
-353.537	-200.000	0.007	-0.405
-352.523	-32.651	0.139	0.077
-351.508	-79.724	0.200	-0.068
-350.493	78.131	-0.200	-0.213
-349.479	-165.741	-0.160	0.007
-348.464	-200.000	-0.006	-0.352
-347.450	-200.000	0.017	-0.262
-346.435	-134.299	0.096	0.012
-345.420	800.000	0.067	-0.221
-344.406	-93.943	-0.092	-0.025
-343.391	800.000	0.055	-0.169
-342.377	569.607	-0.062	-0.152
-341.362	73.870	0.029	0.030
-340.348	477.978	0.033	-0.075
-339.333	-200.000	0.002	0.303
-338.318	-200.000	0.068	0.318
-337.304	131.166	0.158	-0.204
-336.289	242.884	-0.187	0.314
-335.275	211.583	-0.284	0.448
-334.260	49.261	-0.286	0.269
-333.245	-200.000	0.002	-0.099
-332.231	95.614	-0.081	-0.092
-331.216	-200.000	-0.029	-0.229
-330.202	-200.000	0.013	-0.161
-329.187	-77.290	-0.192	-0.067
-328.172	133.194	0.085	0.109
-327.158	320.004	-0.134	-0.254
-326.143	-110.169	-0.072	0.015
-325.129	-137.937	-0.123	0.014
-324.114	-50.621	0.073	0.034
-323.099	453.393	0.124	0.274
-322.085	-200.000	0.088	0.443
-321.070	57.364	0.220	0.216
-320.056	-101.697	0.221	0.054
-319.041	-168.180	0.174	0.007
-318.026	-84.428	0.324	0.102
-317.012	-200.000	-0.071	-0.338
-315.997	-200.000	-0.012	0.128
-314.983	28.068	0.113	0.095
-313.968	800.000	0.026	-0.075
-312.953	-40.998	0.203	0.105
-311.939	-106.163	0.354	0.080
-310.924	52.371	-0.128	0.122
-309.910	164.633	-0.114	0.162
-308.895	-200.000	-0.016	0.156
-307.880	-200.000	-0.016	0.248
-306.866	-32.661	-0.274	0.153
-305.851	102.208	-0.218	-0.254
-304.837	8.513	-0.074	0.056
-303.822	8.721	0.273	-0.206
-302.807	49.582	0.165	-0.155
-301.793	-32.715	-0.201	-0.112
-300.778	800.000	0.091	0.298
-299.764	111.979	-0.111	-0.134
-298.749	-200.000	0.063	-0.290
-297.735	-200.000	-0.022	0.169
-296.720	-200.000	0.005	0.095
-295.705	-146.787	-0.330	-0.029
-294.691	155.155	-0.230	-0.317
-293.676	-200.000	0.011	0.113
-292.662	-200.000	0.039	0.210
-291.647	156.392	-0.209	0.288
-290.632	125.385	0.049	0.062
-289.618	79.908	-0.055	-0.059
-288.603	-57.944	0.205	-0.090
-287.589	-26.169	0.054	-0.032
-286.574	18.835	-0.291	-0.233
-285.559	33.536	0.143	-0.124
-284.545	-33.226	0.256	-0.142
-283.530	30.711	0.085	-0.072
-282.516	-200.000	0.010	-0.154
-281.501	-200.000	-0.012	-0.257
-280.486	173.871	-0.025	-0.036
-279.472	-84.362	0.347	-0.110
-278.457	800.000	0.071	0.241
-277.443	-86.892	-0.216	0.066
-276.428	-76.979	-0.275	-0.096
-275.413	126.425	0.083	-0.105
-274.399	-136.222	0.406	0.047
-273.384	145.777	0.127	0.170
-272.370	-200.000	0.025	-0.209
-271.355	-29.780	0.260	-0.148
-270.340	355.420	0.037	-0.073
-269.326	-200.000	-0.018	0.212
-268.311	-200.000	-0.001	0.381
-267.297	127.620	0.068	-0.087
-266.282	29.331	-0.279	0.237
-265.267	378.504	-0.117	-0.239
-264.253	187.867	-0.223	-0.333
-263.238	155.121	0.051	0.070
-262.224	-200.000	-0.029	0.251
-261.209	-120.745	0.064	-0.011
-260.195	-36.745	0.102	0.055
-259.180	489.311	-0.045	-0.103
-258.165	-5.266	0.075	0.051
-257.151	327.972	0.132	0.253
-256.136	-50.876	0.320	-0.150
-255.122	53.950	-0.307	0.294
-254.107	303.314	-0.174	0.321
-253.092	326.511	-0.101	-0.192
-252.078	-108.277	0.203	-0.044
-251.063	-26.311	0.219	0.129
-250.049	-200.000	-0.009	-0.250
-249.034	334.790	0.122	0.235
-248.019	23.201	0.141	0.116
-247.005	-83.468	0.170	0.054
-245.990	180.337	0.237	0.347
-244.976	-188.763	-0.232	-0.003
-243.961	-200.000	-0.007	-0.181
-242.946	-172.054	0.401	-0.013
-241.932	-158.210	-0.266	0.016
-240.917	436.165	0.065	0.140
-239.903	250.730	0.054	0.091
-238.888	800.000	-0.039	-0.137
-237.873	-78.761	-0.070	0.024
-236.859	-14.536	0.077	-0.049
-235.844	-73.966	-0.050	0.018
-234.830	357.330	0.230	0.457
-233.815	-200.000	-0.007	-0.395
-232.800	773.865	-0.132	0.360
-231.786	94.501	-0.214	0.243
-230.771	192.399	-0.044	-0.067
-229.757	9.398	0.178	-0.135
-228.742	-109.531	-0.143	-0.030
-227.727	-200.000	0.063	0.318
-226.713	800.000	0.086	0.274
-225.698	-141.058	-0.110	0.011
-224.684	-15.947	-0.117	-0.074
-223.669	9.290	-0.130	0.098
-222.655	800.000	-0.099	0.346
-221.640	-29.880	-0.201	-0.114
-220.625	-84.988	-0.195	0.061
-219.611	-48.772	0.256	-0.123
-218.596	103.287	-0.179	0.209
-217.582	-200.000	0.032	0.179
-216.567	-57.732	0.076	-0.033
-215.552	-20.956	0.144	-0.088
-214.538	800.000	-0.039	0.153
-213.523	-200.000	-0.034	0.225
-212.509	-52.748	-0.370	-0.170
-211.494	-23.362	-0.209	0.125
-210.479	-38.962	0.196	-0.103
-209.465	-200.000	-0.071	-0.416
-208.450	-121.562	0.175	-0.029
-207.436	380.970	0.134	-0.274
-206.421	-200.000	0.094	-0.439
-205.406	553.460	0.063	0.150
-204.392	-36.774	-0.357	0.191
-203.377	-56.929	0.329	0.145
-202.363	83.557	0.013	0.014
-201.348	-101.470	0.044	0.011
-200.333	-3.351	-0.217	-0.151
-199.319	183.553	0.150	-0.221
-198.304	-50.199	-0.095	-0.045
-197.290	58.075	0.380	0.370
-196.275	23.586	-0.031	0.026
-195.260	396.818	-0.076	-0.159
-194.246	-200.000	-0.051	0.267
-193.231	297.665	0.076	-0.139
-192.217	446.931	0.098	0.214
-191.202	-198.919	0.041	-0.000
-190.187	-126.989	0.154	0.023
-189.173	-200.000	0.036	0.160
-188.158	-25.571	0.114	-0.067
-187.144	-200.000	0.028	0.192
-186.129	-60.533	-0.048	0.020
-185.114	37.722	0.193	-0.171
-184.100	172.866	-0.021	-0.030
-183.085	-200.000	-0.023	-0.206
-182.071	90.694	0.097	0.108
-181.056	-200.000	0.075	0.338
-180.042	34.750	0.152	-0.132
-179.027	800.000	-0.106	-0.322
-178.012	-117.897	-0.155	-0.028
-176.998	-69.956	0.262	-0.099
-175.983	94.211	0.104	-0.117
-174.969	-150.234	-0.190	0.015
-173.954	-136.149	-0.209	-0.024
-172.939	-59.972	-0.394	-0.168
-171.925	82.678	-0.177	0.192
-170.910	-103.839	0.173	-0.040
-169.896	23.952	-0.156	0.128
-168.881	-29.882	0.193	-0.109
-167.866	-22.332	0.384	0.232
-166.852	-136.223	-0.193	-0.023
-165.837	-64.593	-0.262	0.106
-164.823	115.804	-0.120	0.146
-163.808	50.746	-0.107	-0.101
-162.793	-52.850	-0.277	-0.127
-161.779	-200.000	0.008	-0.073
-160.764	800.000	-0.019	-0.056
-159.750	-200.000	0.009	0.252
-158.735	-186.145	-0.261	-0.004
-157.720	3.271	-0.184	0.133
-156.706	-79.601	-0.191	0.064
-155.691	12.785	0.198	0.152
-154.677	-82.647	0.210	-0.068
-153.662	-11.147	-0.151	-0.099
-152.647	800.000	-0.045	0.129
-151.633	-16.111	0.094	-0.060
-150.618	-170.908	0.142	0.005
-149.604	65.872	0.274	0.277
-148.589	-4.721	-0.129	0.089
-147.574	-200.000	-0.003	0.216
-146.560	-32.586	-0.040	0.022
-145.545	-9.801	-0.084	-0.056
-144.531	81.835	-0.360	0.388
-143.516	62.993	0.219	0.218
-142.502	-63.344	0.061	0.025
-141.487	96.827	0.131	-0.149
-140.472	-58.506	0.100	-0.043
-139.458	-141.556	-0.228	0.023
-138.443	14.856	0.206	0.160
-137.429	-200.000	0.027	0.223
-136.414	18.945	-0.185	0.147
-135.399	339.640	-0.056	0.108
-134.385	114.800	0.096	0.117
-133.370	-110.051	0.331	-0.069
-132.356	157.011	0.135	-0.185
-131.341	800.000	0.120	-0.345
-130.326	308.861	-0.107	-0.198
-129.312	-29.937	0.113	0.064
-128.297	-115.395	-0.120	-0.023
-127.283	582.926	-0.112	0.273
-126.268	415.556	-0.092	0.194
-125.253	489.649	-0.063	-0.144
-124.239	647.702	-0.079	-0.200
-123.224	-76.913	-0.349	0.121
-122.210	122.398	0.136	0.168
-121.195	-108.763	-0.188	0.040
-120.180	-25.768	-0.260	-0.152
-119.166	48.137	-0.110	0.102
-118.151	51.593	-0.224	0.211
-117.137	224.440	0.228	0.366
-116.122	54.858	-0.187	0.179
-115.107	86.876	-0.140	-0.154
-114.093	800.000	0.062	-0.235
-113.078	-200.000	0.008	0.046
-112.064	182.176	0.156	0.229
-111.049	-200.000	-0.006	-0.033
-110.034	-175.912	0.345	-0.009
-109.020	10.649	-0.070	-0.053
-108.005	293.135	-0.129	-0.234
-106.991	-200.000	0.024	-0.174
-105.976	-200.000	0.045	-0.249
-104.962	33.809	-0.057	-0.049
-103.947	220.462	-0.107	0.170
-102.932	-3.344	-0.368	-0.254
-101.918	-200.000	-0.057	-0.335
-100.903	-95.277	-0.222	0.059
-99.889	-3.300	0.261	0.180
-98.874	-36.181	0.022	-0.012
-97.859	-8.570	-0.210	-0.140
-96.845	-118.212	0.050	-0.009
-95.830	190.658	0.120	-0.179
-94.816	-200.000	-0.070	0.358
-93.801	-87.239	0.115	-0.035
-92.786	-100.489	0.192	-0.047
-91.772	-3.147	0.328	-0.227
-90.757	-95.406	0.190	0.051
-89.743	95.809	-0.081	0.091
-88.728	-53.621	-0.161	0.073
-87.713	-56.435	0.236	-0.104
-86.699	473.948	-0.068	-0.152
-85.684	-200.000	0.012	-0.210
-84.670	94.748	-0.140	-0.157
-83.655	44.969	-0.177	0.161
-82.640	125.752	0.187	0.234
-81.626	-15.786	0.153	0.097
-80.611	7.494	0.200	0.148
-79.597	-107.843	0.304	-0.066
-78.582	148.841	0.118	0.158
-77.567	40.228	-0.121	0.108
-76.553	-200.000	-0.025	0.162
-75.538	800.000	0.097	-0.399
-74.524	138.632	-0.140	-0.182
-73.509	-179.165	0.124	0.003
-72.494	-97.276	0.242	-0.063
-71.480	-90.530	0.281	-0.081
-70.465	-200.000	-0.035	-0.308
-69.451	129.899	-0.308	0.391
-68.436	609.346	-0.222	0.548
-67.422	2.930	-0.109	-0.078
-66.407	318.303	-0.160	-0.300
-65.392	-4.046	0.213	-0.147
-64.378	-177.873	-0.201	-0.005
-63.363	14.208	0.218	-0.168
-62.349	-9.657	0.295	0.195
-61.334	86.870	-0.566	-0.620
-60.319	-9.711	0.528	0.349
-59.305	-200.000	-0.081	-0.900
-58.290	112.617	0.657	0.788
-57.276	176.524	0.919	1.324
-56.261	-200.000	82.713	494.225
-55.246	456.433	1388.378	3053.623
-54.232	142.317	2632.566	3462.142
-53.217	102.776	2386.494	2767.893
-52.203	46.081	1991.790	1827.280
-51.188	40.538	1775.968	1585.072
-50.173	38.010	1729.670	1523.984
-49.159	52.311	1770.618	1673.231
-48.144	55.937	1789.695	1719.842
-47.130	40.562	1750.187	1562.008
-46.115	37.557	1735.422	1525.258
-45.100	37.431	1730.437	1519.829
-44.086	37.322	1728.345	1517.075
-43.071	37.407	1725.204	1514.928
-42.057	37.351	1722.283	1511.860
-41.042	37.396	1720.083	1510.221
-40.027	37.437	1718.209	1508.838
-39.013	37.428	1716.471	1507.177
-37.998	37.389	1714.683	1505.247
-36.984	37.452	1713.547	1504.676
-35.969	37.561	1711.722	1503.861
-34.954	37.622	1710.108	1502.855
-33.940	37.583	1708.149	1500.770
-32.925	37.494	1706.518	1498.588
-31.911	37.522	1704.760	1497.203
-30.896	37.551	1702.869	1495.706
-29.881	37.561	1701.274	1494.323
-28.867	37.528	1699.867	1492.774
-27.852	37.536	1698.186	1491.301
-26.838	37.554	1696.898	1490.251
-25.823	37.500	1695.555	1488.593
-24.809	37.564	1693.773	1487.464
-23.794	37.563	1692.684	1486.436
-22.779	37.595	1690.511	1484.716
-21.765	37.578	1689.020	1483.218
-20.750	37.390	1688.353	1481.139
-19.736	37.592	1686.286	1480.806
-18.721	37.545	1684.680	1478.976
-17.706	37.565	1683.011	1477.607
-16.692	37.570	1681.566	1476.322
-15.677	37.497	1680.346	1474.631
-14.663	37.580	1679.114	1474.127
-13.648	37.535	1677.919	1472.676
-12.633	37.607	1676.159	1471.619
-11.619	37.595	1674.297	1469.834
-10.604	37.496	1672.964	1467.855
-9.590	37.582	1671.214	1466.914
-8.575	37.622	1669.981	1466.073
-7.560	37.547	1668.665	1464.293
-6.546	37.488	1668.170	1463.355
-5.531	37.522	1666.558	1462.141
-4.517	37.476	1665.457	1460.773
-3.502	37.532	1664.440	1460.242
-2.487	37.694	1662.456	1459.662
-1.473	37.953	1652.251	1452.572
-0.458	36.457	1635.031	1426.341
0.556	31.725	1633.400	1391.371
1.571	28.054	1656.100	1382.881
2.586	26.255	1667.136	1378.264
3.600	22.501	1611.462	1304.373
4.615	12.477	1491.820	1138.357
5.629	2.983	1418.943	1019.878
6.644	0.991	1409.018	999.520
7.659	0.772	1407.452	996.873
8.673	0.795	1406.381	996.180
9.688	0.682	1404.811	994.238
10.702	0.454	1402.274	990.858
11.717	4.184	1408.139	1019.476
12.731	12.944	1422.731	1087.950
13.746	17.856	1428.715	1124.888
14.761	17.618	1426.383	1121.383
15.775	16.622	1424.411	1113.186
16.790	15.706	1421.584	1104.865
17.804	14.827	1419.331	1097.245
18.819	14.490	1417.557	1093.568
19.834	14.163	1415.962	1090.096
20.848	13.861	1415.291	1087.506
21.863	13.594	1414.005	1084.673
22.877	13.393	1412.671	1082.240
23.892	13.391	1411.411	1081.167
24.907	13.387	1410.819	1080.589
25.921	13.382	1409.888	1079.750
26.936	13.457	1409.291	1079.684
27.950	13.564	1407.885	1079.210
28.965	13.590	1406.482	1078.207
29.980	13.580	1405.921	1077.621
30.994	13.677	1404.561	1077.108
32.009	13.693	1403.783	1076.521
33.023	13.646	1402.986	1075.514
34.038	13.701	1401.674	1074.764
35.053	13.573	1400.396	1072.862
36.067	13.620	1399.337	1072.263
37.082	13.694	1398.542	1072.036
38.096	13.579	1397.661	1070.522
39.111	13.613	1396.583	1069.819
40.126	13.552	1395.857	1068.778
41.140	13.433	1395.182	1067.397
42.155	13.414	1394.602	1066.735
43.169	13.372	1394.727	1066.470
44.184	13.383	1394.189	1066.031
45.199	13.470	1393.524	1065.989
46.213	13.541	1392.525	1065.587
47.228	13.515	1391.753	1064.734
48.242	13.529	1390.538	1063.802
49.257	13.594	1388.706	1062.722
50.271	13.635	1387.299	1061.817
51.286	13.545	1386.309	1060.386
52.301	13.550	1385.055	1059.367
53.315	13.510	1384.055	1058.253
54.330	13.501	1383.499	1057.677
55.344	13.500	1381.667	1056.173
56.359	13.554	1380.368	1055.434
57.374	13.376	1380.274	1054.135
58.388	13.481	1379.378	1054.023
59.403	13.385	1378.931	1052.980
60.417	13.450	1378.172	1052.720
61.432	13.409	1377.076	1051.528
62.447	13.344	1376.704	1050.741
63.461	13.402	1374.593	1049.405
64.476	13.396	1373.852	1048.706
65.490	13.328	1372.404	1047.078
66.505	13.478	1370.720	1046.648
67.520	13.446	1369.277	1045.252
68.534	13.388	1368.858	1044.474
69.549	13.421	1367.310	1043.409
70.563	13.404	1366.120	1042.298
71.578	13.347	1365.286	1041.215
72.593	13.356	1364.221	1040.363
73.607	13.253	1364.070	1039.511
74.622	13.260	1362.832	1038.523
75.636	13.279	1362.201	1038.068
76.651	13.383	1361.340	1037.971
77.666	13.271	1360.635	1036.636
78.680	13.261	1360.473	1036.362
79.695	13.437	1358.967	1036.226
80.709	13.404	1358.615	1035.661
81.724	13.484	1357.112	1034.920
82.739	13.369	1356.841	1033.904
83.753	13.518	1355.596	1033.796
84.768	13.590	1354.365	1033.213
85.782	13.673	1352.571	1032.272
86.797	13.636	1351.651	1031.245
87.812	13.507	1350.343	1029.356
88.826	13.383	1349.888	1028.144
89.841	13.424	1349.106	1027.717
90.855	13.564	1347.435	1027.221
91.870	13.637	1346.458	1026.834
92.884	13.598	1345.651	1025.890
93.899	13.670	1344.949	1025.706
94.914	13.663	1344.424	1025.173
95.928	13.624	1343.156	1023.875
96.943	13.632	1341.962	1022.924
97.957	13.636	1341.596	1022.575
98.972	13.568	1340.719	1021.399
99.987	13.594	1339.526	1020.558
101.001	13.571	1338.205	1019.320
102.016	13.616	1337.247	1018.781
103.030	13.584	1336.183	1017.685
104.045	13.597	1335.852	1017.419
105.060	13.551	1334.620	1016.109
106.074	13.564	1333.401	1015.173
107.089	13.515	1331.881	1013.622
108.103	13.546	1330.371	1012.574
109.118	13.415	1329.395	1010.939
110.133	13.390	1328.213	1009.801
111.147	13.443	1326.199	1008.504
112.162	13.454	1325.041	1007.597
113.176	13.530	1324.119	1007.273
114.191	13.592	1323.104	1006.790
115.206	13.586	1321.723	1005.609
116.220	13.540	1320.616	1004.399
117.235	13.568	1319.248	1003.441
118.249	13.466	1318.507	1002.170
119.264	13.505	1317.222	1001.341
120.279	13.520	1316.190	1000.559
121.293	13.557	1314.824	999.655
122.308	13.508	1314.185	998.784
123.322	13.363	1313.600	997.378
124.337	13.416	1312.693	996.919
125.352	13.479	1311.181	996.066
126.366	13.595	1309.382	995.304
127.381	13.533	1308.641	994.285
128.395	13.433	1307.908	993.040
129.410	13.498	1306.821	992.515
130.424	13.436	1305.826	991.299
131.439	13.557	1304.959	991.278
132.454	13.668	1303.305	990.600
133.468	13.627	1302.466	989.626
134.483	13.652	1302.098	989.408
135.497	13.547	1301.098	987.934
136.512	13.663	1299.648	987.436
137.527	13.531	1298.601	985.772
138.541	13.538	1296.825	984.375
139.556	13.662	1295.367	983.916
140.570	13.664	1294.183	982.943
141.585	13.668	1293.297	982.208
142.600	13.599	1292.188	980.871
143.614	13.720	1290.791	980.440
144.629	13.749	1290.123	980.018
145.643	13.747	1288.875	978.970
146.658	13.704	1287.040	977.234
147.673	13.661	1286.333	976.358
148.687	13.672	1284.608	975.026
149.702	13.670	1283.251	973.897
150.716	13.650	1281.620	972.456
151.731	13.629	1280.830	971.648
152.746	13.631	1279.506	970.573
153.760	13.580	1278.303	969.275
154.775	13.753	1276.943	969.169
155.789	13.723	1276.278	968.404
156.804	13.818	1275.280	968.114
157.819	13.849	1273.655	966.974
158.833	13.821	1273.017	966.245
159.848	13.808	1271.968	965.287
160.862	13.901	1270.763	964.827
161.877	13.733	1270.313	963.425
162.892	13.743	1269.004	962.403
163.906	13.730	1268.259	961.677
164.921	13.722	1267.132	960.690
165.935	13.867	1265.734	960.384
166.950	13.769	1265.622	959.649
167.964	13.739	1264.585	958.606
168.979	13.817	1264.015	958.537
169.994	13.738	1263.472	957.587
171.008	13.883	1262.304	957.449
172.023	13.833	1261.636	956.571
173.037	13.866	1260.519	955.829
174.052	13.875	1259.548	955.058
175.067	13.857	1258.679	954.213
176.081	13.860	1257.568	953.305
177.096	13.787	1257.055	952.415
178.110	13.878	1255.690	951.815
179.125	13.968	1254.077	951.026
180.140	13.880	1252.804	949.474
181.154	14.032	1251.673	949.396
182.169	13.964	1250.905	948.345
183.183	14.000	1249.315	947.262
184.198	14.119	1247.774	946.684
185.213	14.033	1246.888	945.439
186.227	14.057	1246.070	944.871
187.242	14.203	1244.661	944.550
188.256	14.151	1243.750	943.478
189.271	14.171	1242.788	942.777
190.286	14.076	1241.752	941.373
191.300	13.874	1241.343	939.835
192.315	13.861	1240.628	939.135
193.329	13.865	1240.182	938.741
194.344	14.006	1238.832	938.430
195.359	14.018	1238.727	938.334
196.373	13.999	1237.800	937.442
197.388	14.176	1237.352	938.020
198.402	14.169	1236.992	937.624
199.417	14.312	1235.890	937.511
200.432	14.322	1235.301	937.040
201.446	14.294	1234.139	935.918
202.461	14.339	1233.279	935.434
203.475	14.321	1232.335	934.532
204.490	14.297	1231.279	933.515
205.504	14.428	1229.680	932.955
206.519	14.267	1228.853	931.345
207.534	14.342	1227.492	930.646
208.548	14.290	1226.501	929.524
209.563	14.265	1225.768	928.746
210.577	14.245	1224.968	927.950
211.592	14.286	1224.072	927.415
212.607	14.329	1223.013	926.768
213.621	14.422	1222.239	926.618
214.636	14.344	1221.153	925.280
215.650	14.449	1220.239	925.087
216.665	14.461	1219.181	924.269
217.680	14.507	1218.194	923.698
218.694	14.499	1217.379	922.950
219.709	14.539	1216.605	922.505
220.723	14.550	1215.612	921.730
221.738	14.475	1215.242	920.954
222.753	14.525	1214.483	920.575
223.767	14.538	1213.805	920.051
224.782	14.522	1213.438	919.604
225.796	14.610	1212.475	919.276
226.811	14.619	1211.872	918.786
227.826	14.561	1210.839	917.602
228.840	14.509	1210.386	916.891
229.855	14.635	1209.311	916.690
230.869	14.637	1208.593	916.076
231.884	14.620	1207.736	915.250
232.899	14.572	1207.102	914.425
233.913	14.661	1206.314	914.238
234.928	14.593	1205.519	913.183
235.942	14.648	1204.928	912.951
236.957	14.626	1204.144	912.157
237.972	14.563	1203.208	911.025
238.986	14.633	1202.236	910.592
240.001	14.685	1201.687	910.378
241.015	14.703	1200.539	909.527
242.030	14.710	1199.958	909.040
243.045	14.774	1199.044	908.616
244.059	14.713	1198.128	907.510
245.074	14.777	1197.458	907.269
246.088	14.771	1197.122	906.906
247.103	14.904	1195.688	906.460
248.117	14.831	1195.248	905.648
249.132	14.952	1194.187	905.421
250.147	14.939	1193.743	904.931
251.161	14.911	1193.157	904.257
252.176	15.040	1192.333	904.247
253.190	14.996	1191.712	903.460
254.205	15.098	1190.902	903.315
255.220	15.131	1190.474	903.091
256.234	15.146	1189.785	902.566
257.249	15.118	1189.054	901.781
258.263	15.152	1188.457	901.434
259.278	15.129	1187.629	900.602
260.293	15.214	1186.929	900.450
261.307	15.265	1186.280	900.153
262.322	15.251	1185.883	899.694
263.336	15.231	1184.835	898.713
264.351	15.248	1184.500	898.472
265.366	15.221	1183.812	897.726
266.380	15.171	1183.355	897.029
267.395	15.194	1182.117	896.138
268.409	15.315	1181.255	896.049
269.424	15.197	1180.767	894.970
270.439	15.323	1180.666	895.487
271.453	15.194	1179.523	893.855
272.468	15.338	1178.107	893.467
273.482	15.244	1177.551	892.468
274.497	15.317	1177.040	892.390
275.512	15.302	1176.225	891.611
276.526	15.263	1175.598	890.849
277.541	15.400	1174.673	890.797
278.555	15.319	1174.151	889.892
279.570	15.351	1173.244	889.299
280.585	15.400	1172.413	888.850
281.599	15.511	1171.379	888.572
282.614	15.420	1170.903	887.652
283.628	15.538	1169.231	886.927
284.643	15.470	1168.345	885.819
285.657	15.507	1167.340	885.175
286.672	15.419	1166.669	884.124
287.687	15.510	1165.436	883.591
288.701	15.625	1164.391	883.323
289.716	15.459	1164.178	882.211
290.730	15.669	1163.312	882.582
291.745	15.528	1163.032	881.547
292.760	15.563	1162.394	881.171
293.774	15.651	1161.208	880.655
294.789	15.746	1160.654	880.657
295.803	15.796	1159.954	880.310
296.818	15.610	1159.785	879.128
297.833	15.518	1158.917	877.910
298.847	15.663	1158.051	877.936
299.862	15.613	1157.234	876.975
300.876	15.817	1155.918	876.965
301.891	15.777	1155.635	876.465
302.906	15.836	1154.815	876.073
303.920	15.755	1154.509	875.343
304.935	15.716	1153.772	874.505
305.949	15.794	1152.872	874.150
306.964	15.912	1152.117	874.113
307.979	15.947	1151.655	873.864
308.993	15.854	1150.932	872.756
310.008	15.885	1149.897	872.057
311.022	16.018	1148.879	871.896
312.037	15.968	1148.111	870.974
313.052	15.934	1147.166	870.003
314.066	15.811	1146.170	868.542
315.081	15.836	1145.389	867.999
316.095	15.826	1144.700	867.348
317.110	15.820	1144.022	866.727
318.125	15.981	1143.311	866.939
319.139	15.995	1142.283	866.158
320.154	15.991	1142.049	865.881
321.168	15.866	1141.450	864.711
322.183	16.026	1140.437	864.689
323.197	16.015	1139.930	864.168
324.212	15.954	1139.611	863.539
325.227	16.051	1138.966	863.467
326.241	16.001	1137.976	862.387
327.256	15.945	1137.227	861.455
328.270	15.937	1136.507	860.792
329.285	16.063	1135.547	860.632
330.300	16.023	1134.742	859.742
331.314	16.063	1133.534	858.954
332.329	16.088	1132.744	858.408
333.343	16.079	1131.977	857.707
334.358	16.136	1130.729	856.975
335.373	16.176	1130.184	856.689
336.387	16.191	1129.234	855.968
337.402	16.148	1128.796	855.341
338.416	16.304	1128.027	855.475
339.431	16.222	1127.365	854.481
340.446	16.286	1126.636	854.177
341.460	16.262	1126.069	853.548
342.475	16.264	1124.906	852.606
343.489	16.304	1124.134	852.147
344.504	16.368	1123.593	851.982
345.519	16.397	1122.268	851.050
346.533	16.500	1121.368	850.807
347.548	16.406	1120.560	849.645
348.562	16.370	1120.046	849.002
349.577	16.543	1118.678	848.760
350.592	16.408	1118.076	847.548
351.606	16.476	1117.467	847.355
352.621	16.421	1116.376	846.174
353.635	16.434	1116.174	846.015
354.650	16.456	1115.382	845.448
355.665	16.439	1114.909	844.932
356.679	16.386	1114.226	844.070
357.694	16.505	1113.429	843.986
358.708	16.489	1113.098	843.581
359.723	16.582	1112.222	843.308
360.738	16.634	1111.235	842.742
361.752	16.578	1111.143	842.321
362.767	16.478	1110.883	841.552
363.781	16.650	1109.593	841.355
364.796	16.708	1109.088	841.186
365.810	16.652	1108.727	840.561
366.825	16.769	1107.758	840.332
367.840	16.711	1107.322	839.635
368.854	16.850	1106.501	839.627
369.869	16.846	1105.774	838.985
370.883	16.856	1104.948	838.334
371.898	16.738	1104.254	837.150
372.913	16.830	1104.019	837.351
373.927	16.765	1103.474	836.544
374.942	16.864	1102.661	836.341
375.956	16.708	1102.200	835.148
376.971	16.888	1101.510	835.440
377.986	16.820	1100.606	834.342
379.000	16.893	1100.244	834.355
380.015	17.065	1099.622	834.652
381.029	16.945	1099.066	833.570
382.044	16.980	1098.311	833.092
383.059	17.046	1097.579	832.788
384.073	17.101	1096.852	832.435
385.088	17.094	1095.676	831.434
386.102	17.062	1095.028	830.710
387.117	16.998	1094.032	829.571
388.132	17.036	1092.762	828.717
389.146	17.060	1092.133	828.287
390.161	17.116	1091.302	827.852
391.175	16.997	1090.503	826.594
392.190	17.052	1090.289	826.630
393.205	17.263	1088.928	826.548
394.219	17.073	1088.746	825.412
395.234	17.107	1087.581	824.621
396.248	17.192	1086.396	824.064
397.263	17.120	1085.202	822.734
398.278	17.145	1084.676	822.384
399.292	17.127	1083.978	821.697
400.307	17.165	1083.327	821.312
401.321	17.105	1083.119	820.793
402.336	17.112	1082.280	820.122
403.350	17.195	1081.640	819.965
404.365	17.198	1080.892	819.339
405.380	17.115	1080.295	818.412
406.394	17.167	1079.881	818.277
407.409	17.303	1078.471	817.788
408.423	17.315	1077.551	817.079
409.438	17.327	1077.112	816.730
410.453	17.423	1076.395	816.576
411.467	17.389	1075.764	815.862
412.482	17.436	1075.234	815.614
413.496	17.448	1074.379	814.948
414.511	17.445	1074.006	814.582
415.526	17.536	1073.002	814.182
416.540	17.544	1072.698	813.915
417.555	17.457	1072.210	813.057
418.569	17.582	1071.525	813.064
419.584	17.638	1070.959	812.828
420.599	17.538	1070.406	811.860
421.613	93.390	1309.724	1414.141
422.628	86.459	1344.580	1414.260
