DTS Sentinel unit serial number:	SN413079Multiplexer serial number:	ORYXHardware model number:	OX4-SRSoftware version number:	ORYX F/W v4.00 Oryx Data Collector v3.7.2.0data status	okinstallation	princeton_trtdifferential loss correction	single-endedforward channel	channel 2reverse channel	N/Adate	2019/09/12time	19:01:48forward acquisition time	15.00reverse acquisition time	0.00gamma	496.2192k internal	0.2324k external	0.2324temperature offset calibration	1.0136default loss term (dB/km)	0.3790temperature slope calibration	1.0000multiplexer offset coefficient	1.0000multiplexer slope coefficient	1.0000fibre end	0.00T internal ref (°C)	32.75T ext. ref 1 (°C)	3.02T ext. ref 2 (°C)	27.26length (m)	temperature (°C)	Stokes	anti-Stokes-747.200	157.679	-0.284	0.397
-746.185	100.694	-0.234	0.275
-745.171	-159.940	-0.490	-0.027
-744.156	228.484	-0.265	0.436
-743.142	53.342	0.476	-0.461
-742.127	-38.493	-0.365	0.195
-741.112	553.515	0.105	-0.256
-740.098	-147.851	-0.195	-0.016
-739.083	346.960	0.149	0.296
-738.069	-117.819	-0.210	-0.038
-737.054	18.809	0.418	0.337
-736.039	-116.795	-0.795	-0.147
-735.025	800.000	0.137	-0.468
-734.010	15.847	-0.360	-0.285
-732.996	-200.000	-0.036	0.727
-731.981	-74.301	0.160	-0.058
-730.966	-200.000	-0.030	-0.493
-729.952	152.412	0.409	-0.564
-728.937	-200.000	-0.085	-0.451
-727.923	435.343	-0.177	0.389
-726.908	800.000	-0.068	0.252
-725.894	142.904	-0.646	-0.866
-724.879	63.935	0.369	-0.374
-723.864	390.994	-0.224	-0.468
-722.850	87.627	-0.552	-0.616
-721.835	-100.298	0.727	0.182
-720.821	14.398	0.111	-0.087
-719.806	185.106	-0.119	-0.178
-718.791	-146.661	0.848	-0.074
-717.777	800.000	-0.087	0.344
-716.762	-4.503	0.606	-0.422
-715.748	556.259	0.193	0.468
-714.733	448.626	-0.231	-0.513
-713.718	-49.648	0.256	0.123
-712.704	-200.000	0.098	-0.629
-711.689	4.918	0.386	0.286
-710.675	-41.498	0.340	0.177
-709.660	-6.196	0.531	0.366
-708.645	154.566	-0.148	-0.205
-707.631	800.000	0.188	0.658
-706.616	-55.736	0.264	-0.119
-705.602	-78.654	-0.512	0.176
-704.587	-70.582	0.274	0.105
-703.572	295.083	0.282	-0.521
-702.558	-46.962	0.305	0.150
-701.543	-200.000	0.047	0.217
-700.529	-29.217	-0.476	0.275
-699.514	83.279	-0.247	0.271
-698.499	-35.856	-0.662	-0.361
-697.485	-167.165	0.443	0.018
-696.470	-200.000	0.004	-0.028
-695.456	-200.000	-0.007	0.047
-694.441	800.000	0.069	-0.297
-693.426	398.824	0.289	-0.610
-692.412	-11.068	0.464	0.309
-691.397	21.792	0.290	-0.238
-690.383	800.000	0.087	0.370
-689.368	82.996	0.479	0.524
-688.354	202.251	0.308	-0.478
-687.339	-200.000	0.019	-0.632
-686.324	-53.146	-0.403	-0.186
-685.310	675.344	0.250	-0.654
-684.295	-200.000	-0.038	-0.279
-683.281	45.920	0.443	-0.413
-682.266	180.301	0.121	0.178
-681.251	800.000	0.297	-1.088
-680.237	263.327	0.485	-0.848
-679.222	-145.674	-0.304	-0.027
-678.208	-168.285	0.813	-0.032
-677.193	800.000	0.072	-0.223
-676.178	514.308	-0.254	-0.597
-675.164	310.941	-0.071	-0.134
-674.149	-112.434	0.302	-0.061
-673.135	-49.699	0.303	-0.145
-672.120	52.125	0.215	-0.206
-671.105	221.896	0.207	-0.335
-670.091	283.284	-0.125	0.225
-669.076	800.000	-0.300	-1.027
-668.062	800.000	0.160	0.561
-667.047	-1.968	0.359	-0.254
-666.032	-119.342	-0.228	0.040
-665.018	-115.485	0.238	0.045
-664.003	-186.113	0.832	0.012
-662.989	-200.000	0.052	-0.315
-661.974	-35.487	-0.595	-0.325
-660.959	800.000	-0.333	1.048
-659.945	-58.358	-0.440	0.193
-658.930	-75.510	0.416	-0.149
-657.916	800.000	-0.030	-0.102
-656.901	78.567	-0.533	-0.573
-655.886	-200.000	-0.004	0.120
-654.872	-200.000	0.060	1.098
-653.857	-127.652	-0.239	-0.035
-652.843	-131.641	-0.720	-0.095
-651.828	111.818	0.278	-0.338
-650.814	442.660	-0.539	-1.188
-649.799	-138.339	-0.074	0.008
-648.784	-84.384	-0.297	-0.094
-647.770	99.830	0.414	0.483
-646.755	-29.520	0.204	-0.117
-645.741	-48.716	0.222	0.107
-644.726	-200.000	0.012	-0.289
-643.711	-57.576	0.436	-0.192
-642.697	-46.189	0.284	0.141
-641.682	800.000	-0.166	-0.519
-640.668	22.415	-0.672	0.552
-639.653	-39.419	-0.359	-0.189
-638.638	-32.885	-0.599	0.335
-637.624	-89.476	0.622	0.184
-636.609	373.007	0.061	0.125
-635.595	339.913	0.160	0.314
-634.580	-12.278	-0.039	-0.026
-633.565	-200.000	0.069	-0.553
-632.551	-104.188	0.217	0.051
-631.536	800.000	-0.213	0.605
-630.522	-200.000	0.056	0.332
-629.507	-200.000	0.028	-0.277
-628.492	-151.076	-0.397	0.030
-627.478	-92.666	0.274	0.077
-626.463	-178.975	0.974	-0.022
-625.449	-133.803	-0.129	0.016
-624.434	259.735	-0.594	-1.031
-623.419	-200.000	0.015	0.209
-622.405	110.484	0.319	-0.385
-621.390	57.420	-0.428	-0.420
-620.376	68.404	-0.646	0.665
-619.361	-23.063	-0.390	-0.236
-618.346	-22.574	-0.846	-0.514
-617.332	106.635	0.292	-0.348
-616.317	800.000	0.220	0.635
-615.303	-200.000	0.064	0.976
-614.288	577.630	-0.224	0.549
-613.273	-200.000	-0.014	-0.514
-612.259	-68.920	0.314	-0.121
-611.244	-200.000	-0.053	0.381
-610.230	91.708	0.453	0.512
-609.215	275.186	-0.124	0.221
-608.201	105.027	0.061	0.072
-607.186	625.996	0.090	0.228
-606.171	-105.840	-0.219	0.050
-605.157	542.187	0.220	0.527
-604.142	-58.173	0.357	-0.156
-603.128	42.342	-0.553	-0.505
-602.113	-122.123	-0.511	0.084
-601.098	614.056	-0.202	-0.507
-600.084	800.000	0.105	0.411
-599.069	-161.093	-1.198	0.063
-598.055	-200.000	0.025	0.183
-597.040	-118.197	-0.266	-0.048
-596.025	-163.335	0.380	0.018
-595.011	-119.147	-0.827	-0.145
-593.996	62.190	0.476	-0.476
-592.982	272.291	-0.202	-0.357
-591.967	253.382	0.063	-0.107
-590.952	130.738	0.275	-0.354
-589.938	373.689	-0.424	-0.864
-588.923	800.000	-0.195	-0.577
-587.909	-94.372	0.114	0.031
-586.894	-200.000	-0.068	-0.504
-585.879	-56.977	0.044	-0.019
-584.865	-200.000	0.010	-0.588
-583.850	-200.000	0.053	0.380
-582.836	-145.801	0.226	0.020
-581.821	-56.901	0.222	0.098
-580.806	-8.593	-0.491	-0.331
-579.792	109.775	-0.344	0.414
-578.777	-163.342	-0.981	0.047
-577.763	-101.573	-0.380	0.093
-576.748	70.189	-0.304	-0.314
-575.733	-121.049	-0.757	-0.127
-574.719	366.916	0.084	0.169
-573.704	690.945	-0.109	-0.287
-572.690	-92.530	0.829	0.233
-571.675	-1.319	-0.634	0.449
-570.661	-118.641	0.683	0.121
-569.646	-34.789	0.351	0.192
-568.631	-16.221	0.581	0.370
-567.617	112.221	0.297	0.360
-566.602	240.912	-0.378	0.632
-565.588	165.496	0.249	-0.353
-564.573	800.000	-0.155	-0.515
-563.558	-110.664	-0.489	0.101
-562.544	81.105	-0.488	-0.528
-561.529	-200.000	-0.233	1.173
-560.515	556.974	0.276	-0.667
-559.500	763.488	-0.110	0.298
-558.485	-123.069	-0.710	0.114
-557.471	-61.998	0.446	-0.187
-556.456	275.484	0.487	-0.866
-555.442	-69.482	0.560	0.215
-554.427	800.000	0.102	-0.370
-553.412	261.822	0.244	-0.424
-552.398	217.266	-0.350	0.559
-551.383	-10.515	0.477	0.316
-550.369	-200.000	0.125	-0.577
-549.354	800.000	0.115	0.425
-548.339	-32.023	-0.500	-0.280
-547.325	-200.000	0.029	-0.292
-546.310	278.165	-0.229	0.408
-545.296	-66.550	-0.420	-0.167
-544.281	4.861	0.532	0.392
-543.266	276.819	0.234	0.416
-542.252	255.879	-0.362	-0.622
-541.237	40.339	-0.342	0.309
-540.223	86.076	-0.570	-0.629
-539.208	-82.686	0.773	0.250
-538.193	-166.763	-0.735	0.030
-537.179	89.053	0.232	-0.259
-536.164	11.937	-0.470	-0.362
-535.150	0.062	-0.439	-0.313
-534.135	193.014	-0.506	0.766
-533.121	409.869	-0.343	-0.728
-532.106	264.963	0.201	0.351
-531.091	-18.933	-0.696	-0.433
-530.077	-200.000	0.027	0.710
-529.062	49.064	0.633	-0.595
-528.048	-67.244	-0.349	0.137
-527.033	350.165	-0.165	-0.326
-526.018	46.057	-0.601	0.557
-525.004	-67.504	-0.903	0.354
-523.989	-168.089	-0.469	0.018
-522.975	-200.000	0.061	0.737
-521.960	412.934	0.207	-0.441
-520.945	800.000	0.170	-0.555
-519.931	667.834	0.134	0.346
-518.916	105.960	0.625	-0.740
-517.902	188.506	0.398	0.596
-516.887	-7.535	-0.422	0.285
-515.872	800.000	0.102	0.383
-514.858	24.133	0.346	0.286
-513.843	800.000	0.188	-0.696
-512.829	-65.210	-0.132	0.053
-511.814	54.614	0.236	-0.228
-510.799	163.996	0.654	-0.921
-509.785	30.295	0.439	-0.375
-508.770	-104.523	-0.545	0.126
-507.756	-53.544	0.121	0.055
-506.741	-26.991	0.483	0.282
-505.726	75.341	0.404	0.427
-504.712	-200.000	0.108	-0.608
-503.697	87.753	0.400	-0.443
-502.683	-200.000	-0.006	-0.148
-501.668	-87.380	-0.717	0.217
-500.653	-200.000	0.066	0.486
-499.639	105.497	0.324	0.383
-498.624	-5.633	0.841	0.576
-497.610	-48.341	0.219	0.105
-496.595	18.216	0.176	0.141
-495.581	30.017	-0.485	0.414
-494.566	800.000	0.171	0.541
-493.551	400.484	0.163	-0.342
-492.537	153.564	0.329	0.450
-491.522	-168.185	-0.939	-0.036
-490.508	97.978	0.194	-0.223
-489.493	800.000	-0.183	-0.547
-488.478	-160.490	0.507	0.027
-487.464	15.660	-0.330	0.260
-486.449	-56.112	-0.031	-0.014
-485.435	219.514	-0.273	0.436
-484.420	58.302	-0.330	0.323
-483.405	-54.067	-0.070	0.032
-482.391	800.000	0.296	-1.279
-481.376	-93.470	-0.689	-0.190
-480.362	-200.000	0.046	0.238
-479.347	-121.494	-0.953	-0.158
-478.332	447.861	0.224	0.493
-477.318	-78.462	-0.751	0.257
-476.303	-200.000	-0.152	0.761
-475.289	501.830	0.189	-0.436
-474.274	-115.169	0.322	0.061
-473.259	-200.000	0.003	-0.278
-472.245	800.000	-0.120	-0.338
-471.230	-124.110	-0.617	-0.097
-470.216	-50.593	0.836	-0.393
-469.201	574.883	0.290	-0.708
-468.186	-74.719	0.642	-0.230
-467.172	27.012	0.428	0.358
-466.157	-173.641	0.143	-0.004
-465.143	-143.519	0.250	0.024
-464.128	73.456	0.693	-0.724
-463.113	-200.000	-0.080	0.764
-462.099	61.295	-0.144	0.143
-461.084	800.000	0.045	0.163
-460.070	-99.422	0.392	-0.099
-459.055	-164.231	0.470	-0.022
-458.040	-51.830	0.412	-0.191
-457.026	-200.000	-0.020	0.165
-456.011	-153.196	0.644	-0.045
-454.997	-200.000	0.033	-0.336
-453.982	800.000	0.206	-0.703
-452.968	-23.633	-0.652	-0.390
-451.953	-84.957	0.432	-0.135
-450.938	-74.168	0.419	0.151
-449.924	-66.321	-0.079	0.031
-448.909	-200.000	0.113	0.641
-447.895	-35.482	-0.421	-0.228
-446.880	-139.678	0.972	-0.103
-445.865	160.166	-0.471	-0.655
-444.851	800.000	0.096	0.395
-443.836	-109.969	0.353	-0.074
-442.822	191.205	0.519	0.780
-441.807	59.096	0.400	-0.392
-440.792	99.008	-0.074	-0.086
-439.778	296.487	0.182	0.332
-438.763	237.658	0.127	-0.211
-437.749	-4.641	0.260	-0.179
-436.734	-200.000	0.005	-0.461
-435.719	52.844	-0.408	0.389
-434.705	-30.644	-0.736	-0.415
-433.690	-15.613	0.573	-0.364
-432.676	-126.068	-0.341	0.051
-431.661	-1.319	-0.298	0.210
-430.646	-136.559	0.390	-0.045
-429.632	-28.992	-0.079	-0.045
-428.617	14.410	-0.753	0.586
-427.603	756.816	0.048	0.129
-426.588	25.699	-0.762	-0.633
-425.573	488.223	-0.377	-0.858
-424.559	-176.767	-0.228	-0.006
-423.544	-97.249	-0.952	-0.247
-422.530	104.295	0.167	-0.196
-421.515	77.041	-0.359	-0.380
-420.500	800.000	-0.204	-0.682
-419.486	-19.920	0.641	-0.394
-418.471	322.819	0.344	-0.654
-417.457	-123.037	-0.187	-0.030
-416.442	19.510	0.359	0.287
-415.428	-108.770	-0.576	-0.123
-414.413	-156.192	0.419	0.026
-413.398	800.000	-0.083	0.335
-412.384	51.414	0.018	-0.017
-411.369	-200.000	-0.185	1.314
-410.355	764.050	-0.430	1.163
-409.340	-200.000	0.057	0.373
-408.325	102.393	-0.299	0.348
-407.311	-47.763	-0.159	-0.077
-406.296	60.716	0.433	0.428
-405.282	60.611	-0.349	-0.345
-404.267	595.546	0.056	0.139
-403.252	175.762	-0.207	0.300
-402.238	301.620	0.542	0.997
-401.223	386.479	0.202	-0.416
-400.209	-13.340	-0.159	-0.102
-399.194	800.000	0.249	0.980
-398.179	-200.000	-0.022	-0.867
-397.165	-20.502	0.693	0.424
-396.150	350.309	-0.208	0.409
-395.136	-183.550	-0.255	-0.004
-394.121	-116.872	0.101	-0.018
-393.106	-8.786	-0.442	0.295
-392.092	20.025	-0.286	0.229
-391.077	-102.258	-0.849	0.203
-390.063	78.974	-0.410	-0.437
-389.048	-200.000	0.104	0.517
-388.033	7.444	0.337	0.251
-387.019	-78.427	0.321	0.109
-386.004	-200.000	0.113	0.531
-384.990	-62.529	-0.321	-0.133
-383.975	549.949	-0.030	-0.070
-382.960	-84.666	0.924	-0.290
-381.946	92.226	0.528	0.591
-380.931	-86.093	-0.600	-0.184
-379.917	199.917	-0.180	-0.275
-378.902	-200.000	0.048	-0.511
-377.888	-83.845	0.164	0.052
-376.873	-200.000	0.043	0.900
-375.858	-86.948	0.323	0.098
-374.844	800.000	0.140	0.593
-373.829	48.512	0.374	0.348
-372.815	8.350	-0.510	0.381
-371.800	-9.426	0.183	0.122
-370.785	21.668	0.468	-0.379
-369.771	-1.245	0.906	0.637
-368.756	442.212	-0.427	-0.930
-367.742	-72.802	0.070	0.025
-366.727	800.000	0.124	0.514
-365.712	16.068	0.504	0.395
-364.698	800.000	-0.389	1.129
-363.683	547.191	0.127	-0.303
-362.669	-73.370	0.502	0.183
-361.654	34.982	-0.279	0.243
-360.639	83.970	0.167	-0.181
-359.625	800.000	0.217	-0.874
-358.610	157.226	0.352	0.484
-357.596	-116.492	-0.966	-0.177
-356.581	-54.781	-0.418	-0.187
-355.566	-200.000	0.025	-0.384
-354.552	-66.586	0.805	-0.317
-353.537	156.179	-0.282	-0.387
-352.523	154.916	-0.348	0.476
-351.508	-200.000	0.132	-1.562
-350.493	-68.489	0.485	0.187
-349.479	159.345	-0.337	-0.465
-348.464	9.311	-0.916	-0.688
-347.450	-32.765	0.820	-0.453
-346.435	216.463	-0.386	0.610
-345.420	-42.329	0.584	-0.296
-344.406	65.183	-0.347	0.348
-343.391	15.649	0.481	0.376
-342.377	294.088	0.304	-0.552
-341.362	-59.121	-0.445	-0.191
-340.348	-200.000	0.045	-1.223
-339.333	-161.909	0.480	0.024
-338.318	-38.051	0.032	-0.017
-337.304	229.371	-0.191	-0.310
-336.289	-200.000	0.086	-0.502
-335.275	-52.668	0.089	0.041
-334.260	-20.638	0.454	0.277
-333.245	80.761	-0.220	0.235
-332.231	-99.415	0.620	-0.155
-331.216	-155.463	-0.681	-0.044
-330.202	800.000	0.099	-0.292
-329.187	31.067	-0.255	-0.217
-328.172	183.303	-0.823	-1.208
-327.158	-125.005	0.993	-0.152
-326.143	-114.468	-0.255	-0.049
-325.129	-93.165	-1.124	0.310
-324.114	310.747	-0.172	0.319
-323.099	55.076	-0.408	-0.391
-322.085	16.707	-0.248	0.195
-321.070	-47.880	0.180	0.086
-320.056	153.595	0.543	0.739
-319.041	-200.000	-0.025	0.135
-318.026	800.000	0.145	0.409
-317.012	-107.072	-0.739	0.162
-315.997	71.509	-0.729	0.751
-314.983	-64.030	1.013	-0.411
-313.968	-200.000	-0.009	-0.408
-312.953	-200.000	-0.008	-0.147
-311.939	127.528	-0.316	0.399
-310.924	536.468	0.126	-0.296
-309.910	167.872	-0.254	-0.358
-308.895	179.230	0.286	0.415
-307.880	-150.984	-0.396	0.030
-306.866	-29.747	0.695	-0.394
-305.851	57.726	-1.109	1.076
-304.837	-75.719	-1.000	0.352
-303.822	18.293	1.078	0.854
-302.807	-129.035	0.587	0.081
-301.793	-200.000	-0.128	-0.756
-300.778	-20.838	0.744	-0.452
-299.764	602.954	-0.271	-0.669
-298.749	-141.028	-0.137	-0.014
-297.735	166.367	0.284	-0.399
-296.720	-44.027	-0.337	-0.168
-295.705	-109.435	0.231	0.048
-294.691	-41.798	0.270	0.137
-293.676	316.865	-0.360	0.675
-292.662	-200.000	0.082	0.387
-291.647	-71.245	0.461	0.171
-290.632	-200.000	-0.145	0.851
-289.618	-200.000	-0.163	0.886
-288.603	800.000	-0.208	0.685
-287.589	-200.000	-0.022	-0.677
-286.574	-200.000	-0.023	-0.830
-285.559	-1.773	0.494	0.345
-284.545	-70.173	0.479	-0.180
-283.530	385.675	0.066	0.135
-282.516	351.142	0.448	-0.878
-281.501	-61.849	0.159	-0.066
-280.486	-168.648	0.559	0.021
-279.472	491.838	0.478	-1.086
-278.457	800.000	-0.065	0.189
-277.443	-200.000	0.053	-0.653
-276.428	-129.446	-0.710	-0.098
-275.413	-200.000	0.116	0.853
-274.399	45.568	0.201	-0.184
-273.384	-200.000	0.036	1.142
-272.370	-88.638	0.364	0.107
-271.355	-200.000	0.029	-0.351
-270.340	81.001	0.251	-0.268
-269.326	-179.922	-0.203	0.004
-268.311	-28.376	0.235	-0.135
-267.297	-28.685	0.204	-0.117
-266.282	-47.948	-0.639	0.306
-265.267	800.000	-0.152	0.551
-264.253	800.000	-0.061	-0.183
-263.238	-200.000	-0.059	-0.525
-262.224	-40.969	0.354	0.181
-261.209	-72.215	-0.349	0.128
-260.195	-114.509	-0.310	0.059
-259.180	-200.000	0.065	0.294
-258.165	800.000	-0.178	-0.612
-257.151	-37.605	0.041	0.021
-256.136	-27.046	-1.111	0.642
-255.122	-107.908	-0.294	0.063
-254.107	35.008	0.733	-0.635
-253.092	22.345	0.531	-0.430
-252.078	-32.246	0.436	-0.241
-251.063	-160.390	0.763	0.041
-250.049	-200.000	-0.004	-0.093
-249.034	-200.000	0.017	-0.399
-248.019	63.673	0.292	0.290
-247.005	-200.000	0.037	-0.615
-245.990	800.000	-0.105	0.314
-244.976	-200.000	-0.044	-1.062
-243.961	173.499	0.178	-0.255
-242.946	353.632	0.244	0.479
-241.932	-200.000	0.001	1.092
-240.917	-200.000	0.063	0.326
-239.903	-41.898	0.078	-0.040
-238.888	-93.020	0.240	0.066
-237.873	800.000	0.152	0.609
-236.859	-86.010	-0.287	0.088
-235.844	-200.000	-0.141	0.638
-234.830	377.877	0.358	-0.723
-233.815	-55.993	-0.265	-0.117
-232.800	-200.000	0.076	0.440
-231.786	-134.847	0.579	-0.069
-230.771	-60.846	0.233	0.098
-229.757	81.277	0.315	0.336
-228.742	32.600	-0.613	-0.524
-227.727	800.000	0.256	0.782
-226.713	-41.630	-0.732	-0.372
-225.698	800.000	0.193	-0.563
-224.684	13.242	0.809	-0.620
-223.669	-63.823	0.354	0.143
-222.655	-49.929	0.488	-0.229
-221.640	-28.298	-0.401	0.229
-220.625	-44.828	-0.090	-0.044
-219.611	57.897	0.492	0.476
-218.596	-48.908	0.476	-0.225
-217.582	395.307	-0.155	0.320
-216.567	-111.490	-0.226	0.045
-215.552	512.468	-0.228	0.525
-214.538	-200.000	0.251	1.104
-213.523	-28.076	1.008	0.576
-212.509	125.589	-0.450	-0.562
-211.494	83.936	0.459	0.495
-210.479	797.931	0.132	0.359
-209.465	357.459	0.202	-0.399
-208.450	800.000	0.188	-0.554
-207.436	435.345	0.263	-0.565
-206.421	94.834	-0.121	0.137
-205.406	69.871	-0.552	0.562
-204.392	-200.000	0.016	0.755
-203.377	800.000	0.107	-0.312
-202.363	655.030	-0.150	0.382
-201.348	120.008	0.556	0.682
-200.333	-43.292	-0.308	0.154
-199.319	-200.000	0.016	-0.471
-198.304	-200.000	-0.009	-0.607
-197.290	239.036	-0.149	0.245
-196.275	800.000	-0.225	0.794
-195.260	-200.000	-0.030	0.304
-194.246	-200.000	0.012	-0.813
-193.231	28.638	0.343	-0.287
-192.217	-14.473	-0.487	0.309
-191.202	-200.000	-0.154	1.100
-190.187	800.000	0.213	0.698
-189.173	-89.809	0.090	0.026
-188.158	-32.080	-0.646	0.357
-187.144	180.058	0.186	-0.269
-186.129	-20.896	0.479	0.290
-185.114	356.382	0.083	0.162
-184.100	-72.249	-1.007	-0.368
-183.085	-27.077	0.854	-0.492
-182.071	354.845	0.122	-0.240
-181.056	-12.444	-0.243	-0.156
-180.042	-112.909	0.665	-0.130
-179.027	-200.000	-0.028	-0.448
-178.012	-2.092	-0.635	-0.440
-176.998	-170.806	-0.420	-0.014
-175.983	-37.947	-0.675	0.354
-174.969	-200.000	0.093	-0.681
-173.954	-200.000	0.012	-0.636
-172.939	-30.702	-0.276	-0.154
-171.925	39.696	-0.102	-0.090
-170.910	-200.000	-0.010	0.286
-169.896	800.000	-0.155	-0.425
-168.881	43.827	-0.720	-0.651
-167.866	-104.850	0.922	0.209
-166.852	-18.417	-0.232	0.143
-165.837	161.222	-0.817	-1.127
-164.823	613.103	0.170	-0.421
-163.808	-200.000	0.152	-0.761
-162.793	-167.844	0.392	-0.015
-161.779	-109.421	-0.371	-0.077
-160.764	800.000	-0.080	-0.283
-159.750	-85.253	-0.560	-0.173
-158.735	-200.000	0.211	1.356
-157.720	-165.787	-0.476	0.020
-156.706	-200.000	0.087	0.381
-155.691	-34.776	-0.370	0.199
-154.677	373.141	-0.093	-0.187
-153.662	-36.654	-0.207	0.110
-152.647	-116.192	0.192	-0.035
-151.633	294.208	-0.241	0.434
-150.618	-200.000	-0.014	0.488
-149.604	-200.000	0.102	0.648
-148.589	108.315	0.590	-0.695
-147.574	617.986	0.068	-0.169
-146.560	273.477	0.195	-0.341
-145.545	413.227	-0.247	0.519
-144.531	800.000	0.137	0.429
-143.516	-143.173	1.056	0.100
-142.502	44.613	-0.814	-0.738
-141.487	170.152	-0.193	0.272
-140.472	-59.157	-0.185	-0.079
-139.458	-86.527	0.501	-0.152
-138.443	103.954	0.790	-0.915
-137.429	-65.209	0.312	0.124
-136.414	200.088	-0.635	-0.961
-135.399	116.381	0.512	0.618
-134.385	162.276	0.432	-0.597
-133.370	-200.000	-0.005	0.241
-132.356	-28.322	0.638	0.363
-131.341	28.368	-0.254	0.212
-130.326	-95.669	0.434	0.115
-129.312	126.479	-0.234	-0.292
-128.297	-0.586	0.482	0.337
-127.283	-139.874	-0.203	0.021
-126.268	-64.554	-0.577	-0.231
-125.253	-103.557	0.591	-0.137
-124.239	249.055	0.259	0.432
-123.224	501.090	0.353	0.803
-122.210	-144.911	1.080	-0.097
-121.195	44.138	0.369	0.333
-120.180	149.508	0.310	-0.414
-119.166	-139.592	-0.541	0.057
-118.151	101.843	-0.178	-0.204
-117.137	-169.691	0.754	-0.027
-116.122	6.031	0.454	-0.331
-115.107	-200.000	-0.021	0.474
-114.093	184.009	-0.333	0.485
-113.078	5.045	0.465	0.337
-112.064	-48.546	0.153	0.072
-111.049	-123.973	0.630	0.098
-110.034	800.000	0.152	-0.494
-109.020	176.719	0.207	-0.297
-108.005	-56.697	-0.965	0.420
-106.991	549.447	0.109	-0.258
-105.976	-200.000	-0.105	0.518
-104.962	-11.552	-0.260	0.168
-103.947	-190.484	0.492	0.005
-102.932	32.964	0.645	0.550
-101.918	-49.501	0.410	0.192
-100.903	-200.000	-0.048	-0.501
-99.889	560.579	-0.091	-0.217
-98.874	92.978	0.353	0.392
-97.859	34.125	0.305	0.262
-96.845	383.155	-0.463	-0.938
-95.830	420.899	-0.110	0.231
-94.816	164.826	-0.055	-0.077
-93.801	-127.338	0.773	-0.111
-92.786	800.000	0.215	0.584
-91.772	800.000	-0.082	-0.244
-90.757	-12.489	-0.058	0.037
-89.743	356.415	-0.096	-0.188
-88.728	-200.000	0.337	-0.001
-87.713	435.887	-0.443	-0.949
-86.699	0.089	-0.140	-0.098
-85.684	219.035	0.061	0.096
-84.670	800.000	0.169	-0.475
-83.655	709.491	-0.092	0.240
-82.640	-95.844	0.668	-0.175
-81.626	-81.508	0.125	-0.040
-80.611	-62.291	0.560	-0.229
-79.597	-13.642	0.760	-0.484
-78.582	235.006	0.089	0.144
-77.567	-37.577	1.000	-0.524
-76.553	-84.688	-0.564	-0.175
-75.538	-106.413	0.425	-0.093
-74.524	800.000	-0.042	-0.136
-73.509	56.234	-0.678	-0.647
-72.494	199.471	0.475	-0.717
-71.480	-19.815	-0.267	0.162
-70.465	-104.167	0.271	0.062
-69.451	-123.314	1.054	0.166
-68.436	-200.000	-0.001	-0.042
-67.422	-33.084	-0.246	-0.134
-66.407	60.905	0.310	-0.302
-65.392	109.053	0.455	0.535
-64.378	521.374	0.188	0.434
-63.363	-200.000	-0.110	0.489
-62.349	-200.000	0.091	0.441
-61.334	56.259	-1.229	-1.173
-60.319	12.249	0.875	0.662
-59.305	-200.000	-0.005	-0.501
-58.290	165.724	0.298	0.414
-57.276	276.288	0.550	0.959
-56.261	-200.000	95.398	584.947
-55.246	666.711	1359.713	3452.147
-54.232	202.739	2529.752	3838.394
-53.217	112.418	2249.157	2672.964
-52.203	42.125	1881.697	1678.372
-51.188	35.886	1673.463	1445.893
-50.173	33.416	1628.844	1389.203
-49.159	51.851	1678.923	1569.540
-48.144	52.552	1694.912	1589.642
-47.130	35.579	1655.873	1428.190
-46.115	32.794	1641.380	1395.073
-45.100	32.582	1636.922	1389.664
-44.086	32.775	1633.074	1387.764
-43.071	32.825	1629.498	1385.032
-42.057	32.606	1629.051	1382.990
-41.042	32.479	1625.816	1379.259
-40.027	32.623	1624.054	1378.763
-39.013	32.760	1621.871	1377.860
-37.998	32.744	1620.151	1376.222
-36.984	32.855	1618.692	1375.741
-35.969	32.783	1617.341	1374.011
-34.954	32.705	1616.172	1372.401
-33.940	32.801	1614.835	1371.907
-32.925	32.819	1611.750	1369.361
-31.911	32.693	1611.130	1367.867
-30.896	32.739	1610.333	1367.469
-29.881	32.711	1608.785	1365.898
-28.867	32.445	1607.570	1362.889
-27.852	32.726	1604.486	1362.251
-26.838	32.651	1603.359	1360.696
-25.823	32.602	1601.959	1359.100
-24.809	32.764	1600.297	1358.803
-23.794	32.549	1600.311	1357.212
-22.779	32.639	1597.637	1355.535
-21.765	32.845	1595.427	1355.091
-20.750	32.730	1594.380	1353.321
-19.736	32.750	1592.935	1352.181
-18.721	32.923	1592.203	1352.745
-17.706	32.841	1589.765	1350.035
-16.692	32.591	1588.505	1347.121
-15.677	32.690	1586.860	1346.384
-14.663	32.934	1584.029	1345.668
-13.648	32.883	1584.223	1345.412
-12.633	32.976	1583.049	1345.026
-11.619	32.820	1580.620	1341.802
-10.604	32.625	1579.845	1339.701
-9.590	32.919	1578.085	1340.242
-8.575	32.775	1577.248	1338.459
-7.560	32.699	1576.187	1336.968
-6.546	32.998	1574.041	1337.210
-5.531	32.772	1574.098	1335.604
-4.517	32.693	1572.694	1333.805
-3.502	32.736	1571.574	1333.105
-2.487	32.872	1570.001	1332.676
-1.473	32.323	1559.127	1319.541
-0.458	29.460	1539.211	1282.769
0.556	27.047	1539.437	1250.996
1.571	24.510	1562.988	1252.256
2.586	24.079	1574.564	1258.374
3.600	21.212	1522.404	1196.957
4.615	12.472	1413.405	1055.293
5.629	4.597	1350.119	959.508
6.644	3.173	1340.809	944.072
7.659	3.034	1339.295	942.073
8.673	2.982	1339.382	941.732
9.688	2.891	1337.050	939.453
10.702	2.829	1333.490	936.487
11.717	6.547	1340.633	964.191
12.731	16.020	1357.624	1034.752
13.746	23.221	1369.726	1088.331
14.761	25.093	1371.982	1101.541
15.775	24.936	1371.666	1100.226
16.790	24.644	1370.611	1097.487
17.804	24.905	1369.237	1097.889
18.819	25.020	1368.268	1097.719
19.834	24.858	1367.733	1096.204
20.848	25.074	1367.249	1097.043
21.863	25.044	1367.227	1096.743
22.877	25.231	1364.829	1095.867
23.892	24.956	1365.463	1094.594
24.907	24.767	1365.083	1093.038
25.921	25.114	1363.434	1093.738
26.936	25.218	1362.681	1093.672
27.950	25.216	1360.954	1092.175
28.965	25.005	1360.130	1090.136
29.980	24.854	1359.107	1088.302
30.994	25.092	1358.693	1089.321
32.009	25.405	1357.160	1089.894
33.023	25.343	1355.472	1088.067
34.038	25.089	1355.278	1086.273
35.053	25.048	1354.473	1085.287
36.067	24.929	1353.727	1083.870
37.082	24.839	1352.859	1082.537
38.096	25.066	1351.156	1082.450
39.111	25.223	1349.811	1082.226
40.126	25.107	1349.883	1081.486
41.140	25.017	1349.529	1080.564
42.155	24.838	1349.847	1079.642
43.169	24.815	1348.706	1078.495
44.184	24.755	1347.569	1077.129
45.199	24.725	1348.070	1077.254
46.213	24.961	1347.652	1078.244
47.228	25.151	1346.795	1078.606
48.242	25.190	1345.992	1078.101
49.257	25.001	1344.284	1075.505
50.271	24.980	1344.016	1075.068
51.286	25.122	1341.943	1074.170
52.301	24.983	1341.287	1072.713
53.315	24.902	1340.171	1071.243
54.330	24.911	1339.095	1070.344
55.344	24.873	1338.267	1069.357
56.359	25.098	1336.648	1069.312
57.374	24.910	1335.768	1067.395
58.388	24.841	1335.683	1066.820
59.403	24.897	1335.181	1066.658
60.417	24.881	1334.730	1066.109
61.432	24.932	1333.778	1065.556
62.447	24.706	1333.945	1064.249
63.461	24.971	1331.493	1063.772
64.476	24.797	1330.741	1062.049
65.490	24.794	1329.333	1060.813
66.505	24.906	1327.831	1060.180
67.520	24.918	1327.632	1059.997
68.534	24.874	1326.290	1058.577
69.549	24.890	1324.789	1057.379
70.563	24.904	1324.572	1057.194
71.578	25.100	1322.447	1056.556
72.593	24.619	1322.752	1053.875
73.607	24.754	1320.667	1052.913
74.622	24.735	1321.032	1053.000
75.636	24.879	1320.561	1053.377
76.651	24.549	1320.121	1050.991
77.666	24.983	1318.433	1052.103
78.680	24.773	1318.582	1050.895
79.695	24.892	1317.848	1050.916
80.709	24.994	1316.901	1050.670
81.724	25.323	1315.576	1051.445
82.739	24.952	1316.287	1049.745
83.753	25.175	1314.958	1049.901
84.768	25.395	1313.288	1049.758
85.782	25.283	1313.253	1048.985
86.797	25.344	1311.708	1048.015
87.812	25.231	1310.159	1046.022
88.826	25.101	1309.421	1044.585
89.841	25.114	1308.481	1043.817
90.855	25.071	1308.578	1043.554
91.870	25.207	1306.628	1042.694
92.884	25.204	1306.726	1042.661
93.899	25.210	1304.890	1041.139
94.914	24.959	1305.830	1040.341
95.928	25.228	1303.720	1040.130
96.943	25.206	1303.071	1039.389
97.957	25.332	1301.533	1038.801
98.972	25.323	1300.157	1037.556
99.987	25.210	1300.975	1037.467
101.001	25.259	1299.465	1036.454
102.016	25.069	1297.951	1034.061
103.030	25.120	1299.004	1035.098
104.045	25.267	1297.849	1034.936
105.060	24.828	1296.623	1031.336
106.074	25.008	1295.154	1031.112
107.089	25.097	1293.168	1029.951
108.103	24.940	1291.688	1027.785
109.118	24.781	1291.424	1026.571
110.133	24.967	1289.512	1026.024
111.147	24.816	1288.553	1024.304
112.162	24.864	1287.700	1023.809
113.176	25.088	1287.173	1024.581
114.191	25.198	1286.401	1024.502
115.206	24.949	1285.907	1022.600
116.220	25.103	1284.384	1022.174
117.235	24.904	1282.707	1019.620
118.249	24.700	1281.881	1017.712
119.264	24.527	1281.310	1016.185
120.279	24.833	1280.787	1017.419
121.293	24.792	1279.654	1016.195
122.308	24.604	1279.733	1015.098
123.322	24.829	1277.215	1014.288
124.337	24.802	1276.471	1013.456
125.352	24.669	1276.377	1012.536
126.366	24.753	1275.582	1012.295
127.381	24.761	1274.777	1011.611
128.395	24.546	1273.380	1009.194
129.410	24.794	1272.530	1009.835
130.424	24.552	1271.929	1007.902
131.439	24.654	1271.112	1007.738
132.454	24.610	1271.036	1007.341
133.468	24.901	1269.991	1008.061
134.483	25.089	1270.175	1009.180
135.497	25.182	1268.043	1007.919
136.512	24.706	1268.461	1005.486
137.527	24.922	1266.071	1004.715
138.541	24.995	1265.373	1004.480
139.556	25.221	1263.371	1004.069
140.570	25.183	1263.069	1003.525
141.585	24.939	1262.120	1001.318
142.600	25.506	1260.937	1003.458
143.614	25.123	1261.221	1001.458
144.629	25.437	1259.771	1001.969
145.643	25.385	1258.366	1000.470
146.658	25.045	1258.048	998.235
147.673	25.316	1256.239	998.220
148.687	25.042	1256.032	996.446
149.702	24.984	1254.649	994.938
150.716	24.757	1251.989	991.484
151.731	24.526	1251.818	989.976
152.746	24.695	1249.767	989.203
153.760	25.045	1249.538	990.869
154.775	24.993	1248.822	989.927
155.789	25.280	1247.528	990.401
156.804	25.051	1246.232	988.020
157.819	24.751	1246.316	986.343
158.833	25.013	1245.136	986.764
159.848	25.118	1244.977	987.130
160.862	25.253	1244.258	987.219
161.877	25.143	1242.711	985.297
162.892	24.819	1242.484	983.251
163.906	24.854	1241.230	982.366
164.921	24.919	1239.960	981.625
165.935	24.861	1240.847	981.922
166.950	25.032	1239.532	981.734
167.964	25.087	1238.082	980.801
168.979	25.044	1237.298	979.857
169.994	24.878	1237.555	979.064
171.008	25.173	1236.410	979.686
172.023	25.051	1235.911	978.538
173.037	25.284	1234.729	978.785
174.052	25.093	1234.433	977.423
175.067	25.241	1233.185	977.154
176.081	25.164	1231.829	975.574
177.096	25.048	1231.296	974.437
178.110	25.154	1230.194	974.054
179.125	24.828	1229.601	971.724
180.140	24.772	1229.095	970.935
181.154	25.091	1227.723	971.498
182.169	24.989	1226.314	969.746
183.183	25.118	1224.486	968.912
184.198	25.147	1224.034	968.622
185.213	25.273	1223.046	968.436
186.227	25.417	1222.438	968.644
187.242	25.206	1221.804	966.918
188.256	25.469	1220.970	967.590
189.271	25.307	1220.497	966.257
190.286	25.296	1219.332	965.192
191.300	24.672	1218.956	961.449
192.315	24.818	1218.187	961.543
193.329	25.136	1217.736	962.811
194.344	25.208	1216.832	962.399
195.359	24.854	1216.180	959.900
196.373	24.575	1216.814	958.819
197.388	24.675	1215.444	958.188
198.402	24.771	1215.597	958.738
199.417	25.175	1215.211	960.516
200.432	25.311	1213.654	959.927
201.446	25.055	1213.231	958.136
202.461	25.290	1212.540	958.765
203.475	25.134	1212.026	957.439
204.490	25.075	1210.735	956.019
205.504	24.685	1210.197	953.431
206.519	24.865	1208.595	953.043
207.534	24.727	1207.666	951.492
208.548	24.783	1205.479	949.984
209.563	24.797	1205.458	949.954
210.577	24.553	1203.928	947.373
211.592	24.608	1204.193	947.788
212.607	25.116	1204.755	950.841
213.621	24.768	1204.401	948.631
214.636	24.927	1201.998	947.496
215.650	24.968	1200.960	946.812
216.665	25.029	1199.724	946.077
217.680	25.319	1199.778	947.564
218.694	25.218	1200.093	947.196
219.709	25.230	1197.591	945.202
220.723	25.082	1196.865	943.767
221.738	25.152	1197.019	944.175
222.753	24.733	1195.798	940.924
223.767	24.982	1194.754	941.327
224.782	24.988	1195.911	942.187
225.796	25.166	1194.859	942.208
226.811	25.016	1193.922	940.601
227.826	24.900	1194.002	939.972
228.840	25.100	1192.693	939.907
229.855	24.975	1190.812	937.686
230.869	25.150	1190.980	938.651
231.884	25.109	1189.864	937.474
232.899	24.871	1188.231	934.863
233.913	24.824	1188.821	934.997
234.928	24.812	1187.978	934.187
235.942	24.840	1186.776	933.308
236.957	24.723	1185.984	931.993
237.972	24.813	1183.701	930.585
238.986	24.726	1184.406	930.602
240.001	24.561	1184.349	929.615
241.015	24.581	1183.926	929.304
242.030	24.762	1182.909	929.366
243.045	24.931	1182.828	930.096
244.059	24.987	1181.682	929.404
245.074	25.036	1181.103	929.123
246.088	25.245	1180.622	929.742
247.103	25.154	1179.502	928.310
248.117	25.499	1178.281	929.052
249.132	25.167	1178.409	927.352
250.147	25.577	1176.986	928.265
251.161	26.088	1176.921	930.772
252.176	25.664	1176.516	928.179
253.190	25.633	1176.349	927.805
254.205	25.828	1174.759	927.473
255.220	25.907	1175.450	928.346
256.234	25.975	1174.921	928.193
257.249	25.842	1173.386	926.216
258.263	25.975	1172.041	925.755
259.278	25.887	1172.956	925.942
260.293	25.641	1171.978	923.826
261.307	25.584	1171.627	923.178
262.322	25.767	1170.744	923.338
263.336	25.794	1169.262	922.223
264.351	25.539	1169.320	920.883
265.366	25.768	1169.425	922.060
266.380	25.676	1168.309	920.628
267.395	25.597	1167.681	919.645
268.409	25.550	1168.001	919.575
269.424	25.525	1165.984	917.779
270.439	25.470	1165.565	917.088
271.453	25.787	1163.796	917.227
272.468	25.344	1164.575	915.501
273.482	25.144	1163.575	913.616
274.497	25.377	1163.364	914.558
275.512	25.536	1162.047	914.248
276.526	25.621	1160.273	913.205
277.541	25.563	1159.810	912.467
278.555	25.309	1160.442	911.590
279.570	25.546	1159.361	911.862
280.585	25.854	1158.454	912.632
281.599	25.813	1158.242	912.175
282.614	25.596	1156.951	909.979
283.628	25.529	1155.198	908.183
284.643	25.720	1153.795	907.963
285.657	25.574	1154.367	907.598
286.672	25.576	1153.547	906.882
287.687	25.541	1152.466	905.772
288.701	25.522	1151.927	905.176
289.716	25.676	1150.566	904.801
290.730	25.680	1150.419	904.622
291.745	25.592	1149.968	903.748
292.760	25.462	1149.006	902.261
293.774	25.407	1149.256	902.101
294.789	25.774	1148.547	903.302
295.803	25.606	1148.472	902.323
296.818	25.721	1146.331	901.136
297.833	25.702	1146.185	900.844
298.847	26.016	1144.226	900.796
299.862	25.531	1143.829	897.979
300.876	25.703	1143.106	898.194
301.891	25.447	1143.440	897.098
302.906	25.880	1142.963	898.807
303.920	25.792	1143.286	898.539
304.935	25.895	1142.220	898.138
305.949	25.957	1141.770	898.012
306.964	25.892	1140.571	896.668
307.979	25.856	1139.884	895.866
308.993	25.915	1139.098	895.465
310.008	25.712	1138.875	894.201
311.022	25.823	1137.784	893.817
312.037	25.773	1137.575	893.323
313.052	25.756	1135.710	891.698
314.066	25.889	1134.913	891.651
315.081	25.336	1133.568	887.782
316.095	25.254	1132.712	886.625
317.110	25.530	1132.926	888.077
318.125	25.463	1131.570	886.606
319.139	25.556	1131.555	886.977
320.154	25.436	1131.318	886.118
321.168	25.720	1128.799	885.466
322.183	25.274	1129.146	883.462
323.197	25.493	1128.804	884.195
324.212	25.822	1127.830	884.970
325.227	25.360	1128.898	883.459
326.241	25.732	1127.133	883.824
327.256	25.562	1126.659	882.541
328.270	25.360	1125.584	880.633
329.285	25.686	1123.979	880.894
330.300	25.855	1123.389	881.181
331.314	25.527	1123.281	879.416
332.329	25.240	1122.996	877.706
333.343	25.627	1122.573	879.193
334.358	25.561	1121.744	878.145
335.373	25.657	1120.987	877.942
336.387	25.930	1119.286	877.863
337.402	26.119	1119.325	878.732
338.416	25.956	1117.904	876.750
339.431	25.925	1118.115	876.684
340.446	25.971	1118.567	877.188
341.460	26.278	1116.292	876.817
342.475	26.145	1116.918	876.581
343.489	26.286	1115.292	875.912
344.504	26.322	1114.106	875.078
345.519	25.997	1113.823	873.206
346.533	26.268	1112.971	873.768
347.548	26.392	1111.683	873.283
348.562	26.331	1111.745	872.958
349.577	26.251	1110.002	871.125
350.592	25.965	1109.631	869.377
351.606	25.888	1108.310	867.895
352.621	26.009	1108.191	868.308
353.635	25.939	1107.658	867.476
354.650	25.318	1108.119	864.772
355.665	25.751	1105.519	864.745
356.679	25.828	1105.093	864.707
357.694	26.069	1104.677	865.461
358.708	25.941	1104.803	864.870
359.723	25.853	1104.474	864.113
360.738	25.572	1103.273	861.748
361.752	25.960	1102.567	862.981
362.767	26.121	1101.821	863.090
363.781	25.708	1101.207	860.555
364.796	26.061	1100.801	861.852
365.810	26.496	1100.796	863.846
366.825	26.470	1100.195	863.174
367.840	26.579	1100.096	863.539
368.854	26.362	1099.905	862.278
369.869	26.342	1097.701	860.383
370.883	26.163	1096.761	858.717
371.898	26.285	1095.509	858.238
372.913	26.555	1095.222	859.220
373.927	26.277	1095.576	858.101
374.942	26.271	1095.484	857.928
375.956	26.367	1094.223	857.320
376.971	26.041	1094.538	855.942
377.986	26.312	1093.773	856.553
379.000	26.083	1093.245	854.980
380.015	26.428	1093.046	856.382
381.029	26.630	1092.003	856.446
382.044	26.459	1090.403	854.306
383.059	26.767	1089.784	855.200
384.073	26.313	1089.823	853.011
385.088	26.499	1087.756	852.196
386.102	26.812	1086.528	852.627
387.117	26.489	1085.873	850.520
388.132	26.311	1084.975	848.906
389.146	26.118	1084.561	847.601
390.161	26.053	1083.265	846.211
391.175	26.023	1083.645	846.291
392.190	26.350	1082.412	846.786
393.205	26.765	1082.807	848.963
394.219	26.420	1081.770	846.460
395.234	26.312	1080.232	844.676
396.248	25.999	1079.570	842.623
397.263	25.942	1079.782	842.446
398.278	26.256	1077.963	842.418
399.292	26.248	1077.575	842.004
400.307	26.448	1076.845	842.291
401.321	26.254	1076.368	840.941
402.336	25.890	1075.616	838.584
403.350	25.759	1074.788	837.253
404.365	25.807	1074.556	837.220
405.380	26.112	1073.726	837.920
406.394	26.279	1072.314	837.516
407.409	26.456	1072.588	838.474
408.423	26.511	1071.869	838.093
409.438	26.348	1071.716	837.147
410.453	26.717	1069.951	837.399
411.467	26.567	1069.375	836.180
412.482	26.609	1069.022	836.027
413.496	26.678	1068.485	835.848
414.511	26.488	1067.329	833.994
415.526	26.916	1067.842	836.296
416.540	27.091	1066.631	836.081
417.555	26.690	1067.375	834.742
418.569	26.551	1065.979	832.934
419.584	26.578	1065.474	832.591
420.599	26.638	1064.879	832.326
421.613	152.686	1404.592	1791.801
422.628	140.452	1454.026	1791.861
