DTS Sentinel unit serial number:	SN413079Multiplexer serial number:	ORYXHardware model number:	OX4-SRSoftware version number:	ORYX F/W v4.00 Oryx Data Collector v3.7.2.0data status	okinstallation	princeton_trtdifferential loss correction	single-endedforward channel	channel 2reverse channel	N/Adate	2019/09/13time	17:31:35forward acquisition time	60.00reverse acquisition time	0.00gamma	496.2192k internal	0.2312k external	0.2312temperature offset calibration	1.0190default loss term (dB/km)	0.3790temperature slope calibration	1.0000multiplexer offset coefficient	1.0000multiplexer slope coefficient	1.0000fibre end	0.00T internal ref (°C)	36.09T ext. ref 1 (°C)	5.32T ext. ref 2 (°C)	29.60length (m)	temperature (°C)	Stokes	anti-Stokes-747.200	-50.407	-0.058	0.028
-746.185	148.350	0.031	0.043
-745.171	474.687	-0.083	-0.191
-744.156	-56.856	-0.242	0.108
-743.142	-99.997	0.275	0.070
-742.127	-200.000	-0.004	0.207
-741.112	800.000	0.098	0.285
-740.098	-26.593	0.387	0.230
-739.083	-55.833	0.228	0.103
-738.069	-127.819	-0.385	-0.056
-737.054	-200.000	-0.020	-0.167
-736.039	61.639	-0.170	-0.172
-735.025	25.221	-0.185	0.156
-734.010	-200.000	0.004	0.047
-732.996	113.480	-0.120	0.148
-731.981	-176.601	-0.250	0.007
-730.966	30.949	-0.235	-0.204
-729.952	-188.105	-0.298	-0.004
-728.937	-127.351	-0.226	0.033
-727.923	-95.053	-0.154	0.042
-726.908	117.633	-0.086	0.107
-725.894	191.877	-0.133	0.204
-724.879	-151.003	-0.142	0.011
-723.864	210.206	0.164	-0.261
-722.850	-200.000	-0.066	-0.631
-721.835	295.888	-0.114	-0.211
-720.821	28.929	0.210	-0.181
-719.806	-132.858	-0.385	-0.050
-718.791	-200.000	-0.011	0.101
-717.777	11.017	-0.085	-0.066
-716.762	23.356	-0.250	0.208
-715.748	195.906	-0.080	-0.124
-714.733	-75.602	0.151	-0.055
-713.718	465.707	-0.105	0.238
-712.704	42.319	-0.117	0.108
-711.689	2.039	0.157	0.115
-710.675	-112.963	-0.135	0.027
-709.660	-74.401	-0.178	0.065
-708.645	-122.592	-0.141	0.023
-707.631	-112.656	-0.146	0.029
-706.616	115.727	-0.189	-0.235
-705.602	42.048	0.306	-0.282
-704.587	-200.000	0.004	0.054
-703.572	-200.000	0.054	-0.263
-702.558	752.559	-0.068	-0.187
-701.543	-33.758	-0.048	-0.027
-700.529	51.013	0.039	0.037
-699.514	224.713	-0.193	0.316
-698.499	441.392	0.098	0.218
-697.485	-126.297	0.188	-0.028
-696.470	121.939	0.120	0.151
-695.456	800.000	-0.046	-0.135
-694.441	800.000	-0.040	-0.138
-693.426	44.868	0.038	-0.035
-692.412	-200.000	-0.014	0.065
-691.397	2.000	-0.265	-0.194
-690.383	-19.350	-0.312	0.196
-689.368	-161.267	-0.099	-0.005
-688.354	263.990	-0.122	0.214
-687.339	-21.099	-0.295	0.183
-686.324	-116.056	-0.038	-0.007
-685.310	-149.416	-0.238	-0.019
-684.295	-57.149	-0.152	0.068
-683.281	5.831	0.045	0.033
-682.266	-174.920	-0.135	-0.004
-681.251	-200.000	-0.019	-0.296
-680.237	-152.284	-0.288	0.021
-679.222	128.318	-0.088	0.113
-678.208	-60.966	-0.115	0.049
-677.193	-36.922	-0.108	-0.058
-676.178	12.529	0.227	-0.177
-675.164	-102.864	-0.481	0.116
-674.149	-200.000	0.058	-0.471
-673.135	30.861	0.108	-0.094
-672.120	-74.298	-0.150	0.055
-671.105	800.000	-0.019	0.063
-670.091	-162.484	-0.122	0.006
-669.076	323.704	0.155	0.300
-668.062	-200.000	-0.021	-0.102
-667.047	17.927	-0.129	-0.104
-666.032	-200.000	-0.008	-0.269
-665.018	-64.549	0.130	-0.053
-664.003	134.622	-0.063	0.083
-662.989	-200.000	-0.016	-0.267
-661.974	800.000	-0.022	-0.071
-660.959	252.854	-0.209	-0.361
-659.945	10.323	0.067	-0.051
-658.930	-106.008	-0.092	0.021
-657.916	413.911	-0.099	0.213
-656.901	800.000	-0.076	-0.290
-655.886	-179.817	-0.130	0.003
-654.872	-106.692	0.457	0.103
-653.857	-180.625	-0.149	-0.003
-652.843	135.582	-0.388	0.510
-651.828	-200.000	0.002	0.130
-650.814	-122.655	0.073	0.012
-649.799	-181.018	-0.116	-0.002
-648.784	-137.755	0.311	0.035
-647.770	-31.549	-0.098	0.056
-646.755	800.000	0.087	-0.245
-645.741	800.000	-0.029	0.094
-644.726	75.259	-0.048	0.052
-643.711	-80.760	-0.178	0.060
-642.697	378.197	-0.054	-0.112
-641.682	-124.077	0.155	-0.025
-640.668	-66.306	-0.247	-0.099
-639.653	-144.183	0.129	0.012
-638.638	-79.008	-0.193	0.066
-637.624	119.897	0.134	-0.168
-636.609	101.536	0.092	-0.108
-635.595	-49.325	-0.211	-0.102
-634.580	-200.000	0.049	-0.405
-633.565	25.947	0.321	0.271
-632.551	-123.347	-0.219	0.035
-631.536	200.126	-0.185	0.287
-630.522	-149.305	-0.161	-0.013
-629.507	22.161	-0.185	0.152
-628.492	127.727	0.085	-0.109
-627.478	256.301	0.031	-0.053
-626.463	136.328	-0.152	0.200
-625.449	-88.946	0.044	0.013
-624.434	76.633	0.103	0.110
-623.419	-200.000	-0.021	0.100
-622.405	-200.000	0.005	0.270
-621.390	-88.140	0.042	-0.013
-620.376	-40.464	0.197	-0.103
-619.361	800.000	0.049	-0.208
-618.346	-147.704	-0.108	0.009
-617.332	800.000	0.062	-0.267
-616.317	119.268	0.094	0.117
-615.303	290.876	-0.060	0.110
-614.288	-7.556	-0.290	-0.198
-613.273	89.246	-0.136	0.153
-612.259	-200.000	0.005	-0.113
-611.244	-200.000	-0.018	0.226
-610.230	720.276	-0.051	-0.137
-609.215	8.998	0.259	0.197
-608.201	-200.000	-0.034	0.180
-607.186	-33.866	0.215	0.119
-606.171	-103.538	-0.181	0.043
-605.157	13.682	0.048	-0.038
-604.142	-200.000	0.002	0.037
-603.128	92.701	0.178	0.203
-602.113	-173.117	-0.345	-0.011
-601.098	-5.695	0.143	0.099
-600.084	800.000	-0.005	0.017
-599.069	-200.000	-0.060	-0.296
-598.055	-19.192	0.296	0.186
-597.040	-92.240	0.095	0.027
-596.025	800.000	-0.027	0.091
-595.011	565.315	0.101	0.246
-593.996	-150.447	0.330	-0.026
-592.982	383.525	0.100	-0.207
-591.967	135.593	-0.050	0.065
-590.952	-200.000	0.014	-0.192
-589.938	-99.765	0.230	0.058
-588.923	-193.569	-0.084	-0.001
-587.909	24.199	-0.120	-0.100
-586.894	-86.807	0.065	0.020
-585.879	93.327	0.086	-0.098
-584.865	-142.433	0.122	-0.012
-583.850	-1.961	0.200	-0.142
-582.836	-200.000	-0.019	-0.128
-581.821	800.000	0.081	-0.349
-580.806	-200.000	-0.038	-0.226
-579.792	322.345	0.083	-0.160
-578.777	607.991	0.047	-0.118
-577.763	800.000	-0.005	0.017
-576.748	57.946	0.126	0.125
-575.733	-15.464	0.299	0.193
-574.719	-26.911	-0.221	0.130
-573.704	-79.662	0.297	-0.101
-572.690	-130.361	-0.317	-0.043
-571.675	381.855	-0.127	0.264
-570.661	-43.145	0.179	-0.091
-569.646	-114.093	-0.208	0.041
-568.631	-141.803	-0.269	0.027
-567.617	-200.000	-0.035	-0.229
-566.602	131.775	-0.252	-0.327
-565.588	-200.000	0.039	-0.310
-564.573	-200.000	0.030	0.163
-563.558	325.081	0.134	0.259
-562.544	49.148	-0.271	-0.257
-561.529	-70.849	0.202	0.077
-560.515	624.178	-0.107	0.271
-559.500	-200.000	-0.028	-0.131
-558.485	-108.442	-0.116	0.025
-557.471	9.711	0.141	-0.108
-556.456	23.067	-0.231	0.191
-555.442	-112.174	-0.077	0.016
-554.427	-165.503	-0.189	-0.008
-553.412	-200.000	-0.037	-0.354
-552.398	-122.165	-0.159	-0.026
-551.383	800.000	0.076	-0.217
-550.369	68.142	-0.104	0.107
-549.354	-86.273	0.355	-0.110
-548.339	33.022	0.172	0.150
-547.325	734.626	-0.073	-0.197
-546.310	-152.600	-0.043	-0.003
-545.296	-200.000	0.016	-0.081
-544.281	800.000	0.088	-0.313
-543.266	44.993	0.186	-0.172
-542.252	-153.433	-0.280	0.020
-541.237	-41.408	-0.241	0.125
-540.223	582.210	0.111	-0.273
-539.208	-19.989	0.100	0.062
-538.193	-95.432	-0.277	-0.075
-537.179	143.568	-0.139	-0.187
-536.164	-110.312	0.149	-0.031
-535.150	89.526	-0.089	0.100
-534.135	-66.819	0.109	0.043
-533.121	-32.023	-0.093	-0.052
-532.106	-200.000	-0.075	0.423
-531.091	-193.442	0.189	-0.002
-530.077	-1.504	-0.124	-0.088
-529.062	-200.000	-0.012	0.077
-528.048	39.647	0.160	0.144
-527.033	800.000	-0.036	-0.113
-526.018	-200.000	0.039	0.273
-525.004	388.989	-0.113	0.235
-523.989	-73.582	0.146	-0.053
-522.975	362.930	0.126	-0.254
-521.960	-200.000	0.016	-0.125
-520.945	-81.507	-0.212	0.070
-519.931	-137.769	-0.143	-0.016
-518.916	-50.574	-0.119	0.056
-517.902	-20.010	-0.010	-0.006
-516.887	413.345	0.162	-0.346
-515.872	89.090	0.220	-0.246
-514.858	-168.149	-0.155	0.006
-513.843	-61.793	0.533	0.224
-512.829	-77.718	0.233	0.081
-511.814	76.849	0.103	-0.109
-510.799	-62.244	0.122	0.051
-509.785	319.385	0.104	0.199
-508.770	-59.772	-0.189	0.082
-507.756	-28.170	-0.189	0.110
-506.741	-81.339	0.106	-0.035
-505.726	-4.076	-0.211	-0.147
-504.712	22.085	0.187	0.153
-503.697	-156.865	-0.319	-0.020
-502.683	-98.688	-0.282	0.072
-501.668	-200.000	0.040	0.537
-500.653	-172.727	-0.221	0.007
-499.639	800.000	0.057	-0.210
-498.624	33.743	-0.176	-0.154
-497.610	24.821	-0.261	-0.217
-496.595	127.435	-0.137	-0.175
-495.581	-200.000	-0.063	0.359
-494.566	-135.817	-0.281	0.033
-493.551	7.072	0.317	0.237
-492.537	395.959	-0.085	-0.178
-491.522	800.000	0.188	-0.534
-490.508	-122.564	-0.136	-0.022
-489.493	28.498	-0.064	0.055
-488.478	-58.092	0.102	0.044
-487.464	-200.000	-0.021	0.123
-486.449	-15.213	-0.191	-0.123
-485.435	34.937	0.105	-0.092
-484.420	-144.670	0.390	-0.036
-483.405	167.922	0.298	-0.426
-482.391	-200.000	-0.108	0.485
-481.376	-148.822	0.217	-0.018
-480.362	-114.515	-0.446	-0.086
-479.347	212.502	0.202	-0.319
-478.332	-200.000	0.006	0.129
-477.318	348.684	-0.084	0.166
-476.303	142.988	-0.181	0.242
-475.289	-97.981	0.142	0.037
-474.274	162.356	0.158	-0.223
-473.259	-200.000	0.022	0.152
-472.245	800.000	-0.025	-0.088
-471.230	23.853	0.147	-0.122
-470.216	-108.006	0.348	-0.076
-469.201	-132.515	-0.403	-0.052
-468.186	69.629	0.093	0.096
-467.172	-200.000	-0.006	0.277
-466.157	-75.256	-0.385	0.138
-465.143	244.299	-0.081	0.137
-464.128	201.302	-0.218	-0.337
-463.113	-27.322	0.123	-0.072
-462.099	-18.506	0.025	0.016
-461.084	800.000	-0.099	0.356
-460.070	-99.653	0.106	-0.027
-459.055	-200.000	0.008	-0.276
-458.040	-200.000	-0.045	0.315
-457.026	693.425	-0.057	-0.150
-456.011	35.735	0.410	-0.362
-454.997	54.735	0.121	0.117
-453.982	588.942	-0.067	-0.166
-452.968	-200.000	0.027	-0.452
-451.953	800.000	0.088	-0.381
-450.938	176.940	0.197	0.287
-449.924	-158.207	-0.243	0.014
-448.909	330.353	-0.067	-0.129
-447.895	-93.378	0.078	0.022
-446.880	-105.027	-0.356	-0.082
-445.865	289.579	0.032	0.059
-444.851	800.000	-0.109	0.412
-443.836	495.913	-0.078	-0.179
-442.822	-64.945	0.099	-0.040
-441.807	297.662	-0.136	0.250
-440.792	166.031	-0.151	-0.215
-439.778	8.582	-0.175	-0.132
-438.763	-36.210	-0.232	-0.126
-437.749	279.172	0.073	0.131
-436.734	-120.928	-0.124	-0.021
-435.719	-200.000	-0.023	0.214
-434.705	13.261	0.300	-0.233
-433.690	-87.106	0.372	-0.113
-432.676	47.039	0.115	-0.107
-431.661	-200.000	-0.016	0.146
-430.646	-56.482	-0.135	-0.060
-429.632	-177.751	0.079	0.002
-428.617	-20.785	-0.457	-0.281
-427.603	7.348	-0.245	-0.183
-426.588	-19.022	0.021	-0.013
-425.573	117.817	0.130	0.161
-424.559	-7.799	0.148	-0.100
-423.544	-106.767	-0.223	0.050
-422.530	109.487	-0.120	0.144
-421.515	-200.000	-0.020	0.144
-420.500	-61.033	0.174	-0.074
-419.486	-105.129	0.358	0.082
-418.471	800.000	0.091	0.271
-417.457	206.667	-0.134	0.208
-416.442	800.000	-0.068	-0.196
-415.428	72.768	0.288	0.301
-414.413	337.886	-0.020	0.039
-413.398	117.666	0.307	0.379
-412.384	52.628	-0.177	-0.169
-411.369	-49.008	0.238	0.114
-410.355	800.000	0.130	-0.461
-409.340	76.964	-0.182	-0.194
-408.325	150.417	0.159	0.216
-407.311	84.343	0.121	-0.133
-406.296	26.397	-0.109	0.091
-405.282	-200.000	-0.019	-0.158
-404.267	800.000	0.021	-0.058
-403.252	-200.000	-0.016	0.105
-402.238	37.245	-0.124	0.110
-401.223	132.773	0.253	0.327
-400.209	-3.268	0.197	-0.137
-399.194	-3.172	0.140	0.098
-398.179	333.210	0.109	0.210
-397.165	47.768	0.123	-0.115
-396.150	80.232	0.038	0.041
-395.136	-55.245	-0.131	0.059
-394.121	-120.567	-0.164	-0.028
-393.106	-111.625	-0.037	0.008
-392.092	40.137	-0.153	0.137
-391.077	-70.736	0.190	-0.072
-390.063	-47.140	0.268	-0.131
-389.048	43.366	0.217	-0.198
-388.033	301.838	-0.153	-0.283
-387.019	387.097	-0.095	-0.197
-386.004	-134.045	0.294	0.036
-384.990	-200.000	-0.002	-0.115
-383.975	55.763	-0.095	0.092
-382.960	-97.722	-0.227	0.059
-381.946	373.695	0.106	0.217
-380.931	-95.723	0.217	0.058
-379.917	-162.927	-0.403	-0.020
-378.902	-200.000	0.013	0.266
-377.888	-62.963	-0.118	0.049
-376.873	800.000	0.053	-0.160
-375.858	-18.638	-0.294	-0.183
-374.844	132.721	-0.097	0.126
-373.829	1.907	0.065	0.047
-372.815	-200.000	-0.008	-0.243
-371.800	800.000	-0.055	0.231
-370.785	246.027	0.168	-0.283
-369.771	800.000	-0.043	0.129
-368.756	-162.250	-0.238	-0.012
-367.742	-200.000	0.049	-0.347
-366.727	312.408	0.096	-0.181
-365.712	-59.748	0.190	0.081
-364.698	86.404	-0.079	0.087
-363.683	-22.952	0.067	-0.040
-362.669	-17.601	0.397	0.249
-361.654	81.055	-0.140	0.151
-360.639	-200.000	-0.022	0.104
-359.625	182.824	-0.101	0.149
-358.610	82.680	-0.217	0.236
-357.596	217.996	-0.182	0.291
-356.581	-200.000	0.052	0.400
-355.566	-78.912	0.120	0.041
-354.552	-200.000	0.042	-0.276
-353.537	-200.000	0.022	-0.410
-352.523	-20.545	0.341	-0.209
-351.508	-200.000	-0.017	-0.216
-350.493	-200.000	0.017	0.079
-349.479	-13.428	-0.133	0.086
-348.464	800.000	-0.014	-0.057
-347.450	22.861	-0.242	-0.198
-346.435	-168.772	0.306	0.012
-345.420	-200.000	0.006	-0.139
-344.406	493.800	-0.025	0.057
-343.391	800.000	0.055	0.223
-342.377	800.000	-0.042	0.148
-341.362	129.617	-0.150	0.191
-340.348	-150.089	-0.161	-0.012
-339.333	-200.000	0.017	0.174
-338.318	40.033	0.290	0.260
-337.304	15.394	0.075	0.059
-336.289	800.000	0.029	0.081
-335.275	800.000	0.052	-0.177
-334.260	-17.891	-0.265	-0.166
-333.245	103.277	0.266	0.311
-332.231	-81.729	-0.150	-0.049
-331.216	-35.191	0.337	0.183
-330.202	-6.490	0.186	0.127
-329.187	800.000	-0.062	-0.177
-328.172	-200.000	-0.005	0.079
-327.158	-200.000	0.028	-0.178
-326.143	-1.020	-0.147	-0.104
-325.129	800.000	-0.042	-0.164
-324.114	105.393	0.138	0.163
-323.099	-42.408	0.161	0.082
-322.085	-19.542	0.253	0.157
-321.070	-200.000	-0.030	0.315
-320.056	800.000	0.032	-0.135
-319.041	-200.000	-0.025	-0.128
-318.026	-49.184	-0.140	0.067
-317.012	-81.567	0.129	0.042
-315.997	378.815	-0.051	-0.103
-314.983	-34.795	0.293	-0.160
-313.968	-200.000	0.010	-0.097
-312.953	-145.709	0.421	-0.038
-311.939	87.416	-0.152	0.168
-310.924	496.487	-0.132	0.304
-309.910	-130.297	0.140	0.019
-308.895	-119.726	0.114	0.020
-307.880	68.602	-0.063	-0.064
-306.866	58.580	-0.182	-0.178
-305.851	-139.749	0.168	0.018
-304.837	24.972	0.189	0.156
-303.822	-200.000	-0.003	-0.151
-302.807	-46.640	0.141	-0.069
-301.793	-89.438	0.050	-0.015
-300.778	-200.000	0.015	0.073
-299.764	-34.576	0.185	0.101
-298.749	-200.000	0.035	-0.226
-297.735	292.414	-0.088	-0.160
-296.720	-58.500	-0.235	0.102
-295.705	-30.241	-0.069	-0.039
-294.691	-75.715	-0.356	-0.126
-293.676	135.198	-0.152	-0.197
-292.662	-22.579	0.416	0.251
-291.647	-200.000	-0.046	0.564
-290.632	800.000	0.101	0.377
-289.618	800.000	-0.017	-0.073
-288.603	800.000	-0.033	0.110
-287.589	-75.689	-0.082	-0.029
-286.574	34.049	-0.197	0.171
-285.559	40.261	-0.201	-0.180
-284.545	800.000	-0.026	0.113
-283.530	105.399	-0.164	0.193
-282.516	692.327	0.064	-0.168
-281.501	152.181	-0.058	-0.080
-280.486	306.102	-0.108	0.201
-279.472	439.585	-0.131	-0.285
-278.457	-176.513	-0.168	0.004
-277.443	-200.000	-0.032	-0.197
-276.428	-77.728	-0.262	-0.090
-275.413	-19.587	0.110	-0.068
-274.399	-123.439	-0.025	-0.004
-273.384	-200.000	0.063	0.483
-272.370	42.648	0.161	0.146
-271.355	-59.945	-0.154	0.066
-270.340	-129.790	-0.069	-0.009
-269.326	453.666	-0.085	0.187
-268.311	-200.000	-0.018	-0.280
-267.297	-36.600	0.271	-0.145
-266.282	-98.016	0.106	0.027
-265.267	251.546	-0.086	-0.146
-264.253	6.887	-0.049	-0.036
-263.238	566.208	-0.090	0.218
-262.224	-200.000	-0.055	-0.266
-261.209	3.612	0.205	-0.149
-260.195	-135.316	-0.236	-0.028
-259.180	800.000	0.075	0.256
-258.165	102.097	0.194	-0.226
-257.151	-66.995	-0.138	-0.054
-256.136	-163.295	-0.183	-0.009
-255.122	-200.000	-0.007	-0.202
-254.107	20.461	0.042	-0.034
-253.092	-200.000	-0.015	0.122
-252.078	-149.421	0.325	0.026
-251.063	800.000	-0.050	-0.186
-250.049	-119.200	0.440	0.076
-249.034	520.113	0.046	-0.108
-248.019	-200.000	-0.042	-0.185
-247.005	-107.024	-0.170	0.037
-245.990	-19.866	0.307	0.189
-244.976	-110.030	0.198	-0.041
-243.961	-87.117	0.053	0.016
-242.946	-27.304	-0.471	0.273
-241.932	-19.939	0.225	0.138
-240.917	-171.631	-0.099	0.003
-239.903	-125.144	0.174	0.027
-238.888	-200.000	0.016	0.237
-237.873	-200.000	0.002	-0.060
-236.859	-200.000	0.010	-0.195
-235.844	108.481	-0.146	0.174
-234.830	677.795	0.159	0.412
-233.815	-66.404	0.164	0.065
-232.800	-200.000	0.011	-0.164
-231.786	-200.000	-0.048	-0.429
-230.771	300.650	-0.076	-0.139
-229.757	123.921	0.203	-0.254
-228.742	-86.230	0.191	-0.058
-227.727	190.100	0.052	0.077
-226.713	-49.978	0.145	0.068
-225.698	800.000	0.079	0.292
-224.684	275.893	-0.130	0.229
-223.669	-37.072	-0.347	-0.185
-222.655	-14.274	-0.317	-0.203
-221.640	19.695	-0.332	0.265
-220.625	88.763	0.130	-0.144
-219.611	459.883	0.096	0.213
-218.596	-35.837	-0.089	-0.048
-217.582	-200.000	0.009	-0.254
-216.567	509.131	0.247	-0.569
-215.552	729.258	0.103	-0.274
-214.538	112.557	0.138	0.166
-213.523	26.966	-0.194	-0.162
-212.509	-30.064	-0.270	0.153
-211.494	-85.772	0.143	0.044
-210.479	461.733	0.105	0.232
-209.465	60.781	0.113	0.111
-208.450	-55.918	0.145	0.064
-207.436	800.000	0.063	0.266
-206.421	32.015	-0.095	-0.081
-205.406	-61.659	0.288	-0.120
-204.392	800.000	-0.032	0.124
-203.377	-200.000	0.030	0.209
-202.363	-105.501	0.124	-0.028
-201.348	3.047	0.079	-0.057
-200.333	-200.000	0.038	0.386
-199.319	-200.000	0.026	-0.260
-198.304	14.899	-0.070	0.055
-197.290	7.302	0.159	0.118
-196.275	50.820	0.072	0.067
-195.260	-68.533	-0.309	0.119
-194.246	-101.522	-0.112	-0.027
-193.231	-137.128	-0.465	0.053
-192.217	39.345	0.086	-0.077
-191.202	-143.290	0.428	0.041
-190.187	82.173	-0.100	-0.108
-189.173	-14.757	-0.231	0.147
-188.158	7.083	0.067	0.049
-187.144	126.623	0.211	-0.265
-186.129	-200.000	-0.031	0.287
-185.114	-200.000	-0.111	-0.517
-184.100	800.000	-0.050	-0.161
-183.085	111.832	-0.118	-0.142
-182.071	-63.256	-0.180	-0.074
-181.056	-194.013	-0.287	-0.002
-180.042	70.207	0.164	-0.168
-179.027	-200.000	0.099	0.498
-178.012	-200.000	-0.003	0.045
-176.998	-146.986	-0.286	0.024
-175.983	131.020	0.060	0.077
-174.969	56.155	0.314	-0.303
-173.954	785.588	-0.033	0.089
-172.939	32.866	0.164	0.141
-171.925	132.823	0.133	-0.170
-170.910	-200.000	0.012	-0.114
-169.896	-200.000	0.037	-0.175
-168.881	-150.516	-0.134	-0.010
-167.866	-200.000	0.015	0.289
-166.852	19.162	-0.061	0.049
-165.837	136.332	-0.075	0.096
-164.823	125.235	-0.191	0.239
-163.808	-3.307	-0.194	0.134
-162.793	59.740	-0.171	-0.168
-161.779	-106.054	-0.063	0.014
-160.764	-95.111	-0.342	0.092
-159.750	560.186	-0.100	-0.240
-158.735	-9.571	0.192	-0.127
-157.720	800.000	0.122	0.370
-156.706	0.630	-0.243	-0.172
-155.691	-194.812	-0.517	0.004
-154.677	-111.833	0.141	0.028
-153.662	800.000	0.061	-0.178
-152.647	297.887	-0.015	0.027
-151.633	-2.158	-0.378	0.263
-150.618	351.948	0.102	-0.200
-149.604	-171.458	0.171	-0.006
-148.589	430.145	-0.174	-0.374
-147.574	13.459	-0.121	-0.093
-146.560	-47.416	-0.117	0.056
-145.545	43.405	-0.299	-0.271
-144.531	-45.972	-0.097	-0.047
-143.516	237.849	-0.159	0.262
-142.502	-115.690	-0.203	-0.038
-141.487	-164.615	0.311	-0.014
-140.472	-17.086	0.067	-0.042
-139.458	800.000	0.176	0.502
-138.443	-148.356	0.137	0.011
-137.429	-153.710	-0.270	-0.018
-136.414	-56.065	-0.033	0.015
-135.399	-95.162	-0.169	0.045
-134.385	73.952	-0.086	0.089
-133.370	113.242	0.192	0.231
-132.356	713.164	-0.066	-0.173
-131.341	-79.007	-0.241	0.081
-130.326	104.032	0.259	0.302
-129.312	0.791	-0.166	-0.118
-128.297	278.309	-0.106	0.188
-127.283	-40.374	0.099	-0.051
-126.268	-75.024	-0.066	-0.023
-125.253	800.000	-0.100	0.377
-124.239	260.882	-0.060	-0.102
-123.224	-200.000	0.003	-0.067
-122.210	-102.493	-0.138	-0.033
-121.195	800.000	0.099	0.373
-120.180	211.135	-0.053	0.082
-119.166	680.365	0.102	-0.263
-118.151	194.471	-0.155	-0.233
-117.137	164.747	0.269	0.375
-116.122	800.000	-0.034	-0.101
-115.107	54.732	0.051	-0.049
-114.093	-12.803	0.148	0.096
-113.078	-118.377	0.376	0.066
-112.064	488.449	-0.160	-0.362
-111.049	-15.970	-0.264	0.166
-110.034	346.945	0.228	0.443
-109.020	-64.432	-0.172	0.069
-108.005	55.038	0.432	0.413
-106.991	-175.091	-0.290	0.008
-105.976	211.474	0.128	0.199
-104.962	-162.371	0.093	0.005
-103.947	-41.506	-0.097	0.049
-102.932	-122.567	-0.240	-0.039
-101.918	-79.301	0.131	0.044
-100.903	-200.000	-0.017	0.101
-99.889	-95.465	0.184	0.049
-98.874	-200.000	0.009	-0.179
-97.859	-115.439	-0.061	-0.011
-96.845	-200.000	-0.058	0.287
-95.830	-122.212	-0.329	-0.053
-94.816	15.337	0.249	0.194
-93.801	405.212	0.122	-0.254
-92.786	27.681	0.256	-0.214
-91.772	-175.133	0.276	0.008
-90.757	-41.013	-0.019	-0.010
-89.743	174.679	0.114	-0.163
-88.728	-83.921	0.207	-0.065
-87.713	-89.663	0.473	-0.137
-86.699	126.048	-0.186	0.233
-85.684	-200.000	-0.029	0.129
-84.670	-17.815	0.219	0.136
-83.655	751.565	0.058	-0.156
-82.640	-75.935	-0.033	0.012
-81.626	-200.000	-0.022	0.156
-80.611	771.349	-0.093	0.252
-79.597	-200.000	-0.036	-0.369
-78.582	-195.632	-0.162	0.001
-77.567	378.606	0.139	0.281
-76.553	800.000	0.105	0.309
-75.538	-200.000	0.028	0.137
-74.524	-103.456	-0.381	0.089
-73.509	115.740	0.168	0.203
-72.494	77.591	-0.092	0.097
-71.480	-133.598	-0.325	0.040
-70.465	252.341	-0.101	-0.170
-69.451	325.919	-0.087	-0.165
-68.436	800.000	0.016	0.057
-67.422	-200.000	-0.032	0.240
-66.407	800.000	-0.078	0.277
-65.392	-103.866	0.143	0.033
-64.378	-200.000	0.044	-0.209
-63.363	62.081	0.222	0.219
-62.349	549.259	0.075	0.176
-61.334	121.805	-0.787	-0.969
-60.319	-26.657	0.674	0.390
-59.305	-200.000	0.025	-0.986
-58.290	191.157	0.491	0.730
-57.276	335.272	0.727	1.391
-56.261	-200.000	91.713	545.220
-55.246	608.360	1387.545	3419.472
-54.232	186.922	2604.500	3832.444
-53.217	117.913	2322.706	2825.328
-52.203	45.854	1935.688	1767.709
-51.188	39.404	1722.937	1523.657
-50.173	36.573	1678.343	1462.781
-49.159	53.223	1723.963	1630.442
-48.144	56.558	1742.361	1673.318
-47.130	39.208	1699.542	1501.232
-46.115	36.197	1684.808	1465.324
-45.100	35.968	1680.099	1459.435
-44.086	35.880	1677.952	1456.848
-43.071	35.926	1675.014	1454.588
-42.057	35.947	1672.354	1452.379
-41.042	36.018	1670.324	1451.093
-40.027	35.959	1668.642	1449.130
-39.013	36.025	1666.152	1447.401
-37.998	35.897	1665.018	1445.405
-36.984	35.939	1663.515	1444.354
-35.969	36.052	1662.485	1444.252
-34.954	36.193	1660.613	1443.620
-33.940	36.124	1658.839	1441.510
-32.925	36.103	1656.568	1439.318
-31.911	36.085	1655.020	1437.780
-30.896	36.100	1653.541	1436.554
-29.881	36.052	1651.767	1434.594
-28.867	36.015	1650.187	1432.895
-27.852	36.089	1648.751	1432.136
-26.838	36.111	1647.236	1430.932
-25.823	36.160	1645.878	1430.053
-24.809	36.168	1644.498	1428.858
-23.794	36.070	1643.414	1427.134
-22.779	36.151	1641.404	1425.933
-21.765	36.216	1639.338	1424.559
-20.750	36.116	1637.788	1422.423
-19.736	36.269	1636.076	1422.007
-18.721	36.094	1635.470	1420.131
-17.706	36.126	1633.937	1418.979
-16.692	36.128	1632.191	1417.425
-15.677	36.037	1631.149	1415.793
-14.663	36.128	1629.334	1414.831
-13.648	36.080	1628.507	1413.700
-12.633	36.140	1626.464	1412.311
-11.619	36.162	1624.812	1410.986
-10.604	36.045	1623.576	1408.995
-9.590	36.080	1622.337	1408.118
-8.575	36.210	1620.264	1407.214
-7.560	36.118	1619.699	1405.997
-6.546	36.097	1618.439	1404.692
-5.531	36.058	1617.399	1403.455
-4.517	36.029	1616.136	1402.086
-3.502	36.118	1615.035	1401.724
-2.487	36.230	1613.442	1401.103
-1.473	35.759	1601.677	1387.431
-0.458	32.355	1580.689	1344.907
0.556	29.771	1577.952	1301.342
1.571	26.200	1599.846	1293.754
2.586	24.708	1611.279	1292.107
3.600	21.026	1557.159	1222.831
4.615	12.907	1446.902	1083.039
5.629	6.395	1383.405	994.411
6.644	5.277	1374.981	981.248
7.659	5.276	1373.496	980.094
8.673	5.310	1372.711	979.662
9.688	5.407	1370.877	978.872
10.702	5.228	1368.328	975.849
11.717	7.573	1372.596	993.489
12.731	15.086	1386.616	1050.864
13.746	21.054	1396.449	1095.832
14.761	21.901	1397.055	1101.530
15.775	21.344	1394.063	1095.586
16.790	20.213	1391.729	1086.572
17.804	19.392	1389.938	1079.942
18.819	19.076	1388.008	1076.371
19.834	18.989	1387.179	1075.089
20.848	18.809	1385.997	1072.955
21.863	18.600	1384.829	1070.651
22.877	18.404	1383.835	1068.561
23.892	18.432	1382.542	1067.644
24.907	18.309	1382.359	1066.644
25.921	18.389	1381.015	1066.007
26.936	18.422	1380.077	1065.397
27.950	18.323	1379.138	1063.959
28.965	18.619	1378.095	1064.902
29.980	18.659	1376.949	1064.167
30.994	18.754	1375.819	1063.790
32.009	18.728	1375.341	1063.168
33.023	18.786	1373.636	1062.113
34.038	18.623	1372.497	1060.133
35.053	18.611	1370.855	1058.696
36.067	18.558	1369.732	1057.406
37.082	18.568	1369.127	1056.909
38.096	18.702	1368.110	1056.853
39.111	18.635	1367.788	1056.101
40.126	18.634	1366.248	1054.812
41.140	18.238	1365.551	1051.748
42.155	18.155	1364.616	1050.424
43.169	18.080	1364.579	1049.839
44.184	18.156	1364.235	1049.949
45.199	18.150	1363.821	1049.499
46.213	18.301	1363.433	1050.036
47.228	18.476	1362.445	1050.255
48.242	18.517	1361.336	1049.556
49.257	18.496	1359.929	1048.249
50.271	18.502	1358.455	1047.058
51.286	18.469	1356.929	1045.591
52.301	18.524	1355.676	1044.864
53.315	18.444	1354.648	1043.497
54.330	18.253	1353.317	1041.217
55.344	18.191	1352.187	1039.878
56.359	18.246	1351.432	1039.536
57.374	18.314	1350.294	1038.981
58.388	18.068	1349.514	1036.798
59.403	18.065	1349.338	1036.556
60.417	18.127	1348.035	1035.839
61.432	18.007	1347.399	1034.530
62.447	17.913	1346.321	1033.042
63.461	18.029	1345.090	1032.710
64.476	17.976	1343.975	1031.441
65.490	17.898	1342.671	1029.877
66.505	17.974	1341.291	1029.186
67.520	17.974	1339.444	1027.676
68.534	18.041	1339.230	1027.827
69.549	18.001	1337.777	1026.382
70.563	17.924	1337.130	1025.330
71.578	17.760	1335.999	1023.385
72.593	17.707	1335.128	1022.312
73.607	17.761	1334.357	1021.953
74.622	17.739	1333.769	1021.282
75.636	17.785	1332.880	1020.784
76.651	17.817	1332.187	1020.356
77.666	17.861	1331.408	1019.933
78.680	17.817	1331.599	1019.726
79.695	18.040	1330.397	1020.046
80.709	18.134	1329.844	1020.094
81.724	18.064	1329.339	1019.200
82.739	18.124	1328.485	1018.809
83.753	18.410	1327.529	1019.689
84.768	18.547	1326.275	1019.450
85.782	18.578	1325.828	1019.201
86.797	18.495	1324.820	1017.840
87.812	18.470	1323.167	1016.335
88.826	18.427	1322.515	1015.489
89.841	18.522	1320.931	1014.747
90.855	18.657	1320.134	1014.839
91.870	18.732	1319.025	1014.341
92.884	18.692	1318.386	1013.524
93.899	18.637	1317.622	1012.522
94.914	18.743	1316.943	1012.537
95.928	18.775	1315.805	1011.762
96.943	18.624	1315.363	1010.441
97.957	18.574	1314.136	1009.117
98.972	18.621	1313.450	1008.774
99.987	18.522	1312.579	1007.438
101.001	18.612	1311.162	1006.790
102.016	18.514	1310.397	1005.536
103.030	18.544	1309.843	1005.197
104.045	18.565	1308.483	1004.187
105.060	18.537	1306.853	1002.686
106.074	18.318	1305.547	1000.313
107.089	18.112	1303.856	997.729
108.103	17.990	1303.165	996.399
109.118	18.035	1301.550	995.339
110.133	18.013	1300.161	994.065
111.147	18.067	1298.794	993.242
112.162	17.991	1297.682	991.863
113.176	18.222	1296.452	992.173
114.191	18.164	1295.924	991.346
115.206	18.180	1294.696	990.413
116.220	18.168	1293.369	989.239
117.235	18.125	1292.227	988.031
118.249	18.142	1291.024	987.122
119.264	17.999	1290.050	985.467
120.279	18.029	1288.695	984.516
121.293	17.895	1287.805	982.976
122.308	17.902	1286.444	981.890
123.322	17.819	1285.707	980.765
124.337	17.798	1284.825	979.882
125.352	17.819	1283.717	979.074
126.366	17.835	1282.387	978.063
127.381	17.901	1280.915	977.232
128.395	17.862	1280.186	976.365
129.410	17.948	1279.395	976.169
130.424	18.011	1278.690	975.906
131.439	18.099	1277.565	975.464
132.454	18.154	1277.070	975.311
133.468	18.137	1275.972	974.290
134.483	18.163	1275.771	974.197
135.497	18.173	1274.481	973.181
136.512	18.236	1273.475	972.688
137.527	18.236	1271.910	971.404
138.541	18.170	1270.458	969.838
139.556	18.366	1269.290	969.972
140.570	18.441	1268.534	969.730
141.585	18.478	1267.291	968.906
142.600	18.544	1266.211	968.366
143.614	18.602	1265.383	967.973
144.629	18.622	1264.585	967.388
145.643	18.654	1263.217	966.437
146.658	18.474	1261.623	964.123
147.673	18.366	1260.130	962.287
148.687	18.233	1259.144	960.705
149.702	18.153	1257.919	959.235
150.716	18.152	1256.324	957.930
151.731	18.150	1255.479	957.189
152.746	18.186	1253.767	955.998
153.760	18.255	1252.990	955.708
154.775	18.371	1251.609	955.218
155.789	18.362	1250.942	954.573
156.804	18.410	1249.971	954.012
157.819	18.466	1249.092	953.573
158.833	18.505	1248.195	953.019
159.848	18.696	1247.188	953.228
160.862	18.641	1246.187	952.071
161.877	18.479	1244.625	949.898
162.892	18.140	1243.924	947.397
163.906	18.254	1242.552	946.900
164.921	18.244	1241.830	946.214
165.935	18.346	1241.101	946.139
166.950	18.387	1240.406	945.748
167.964	18.462	1239.464	945.363
168.979	18.292	1239.343	944.249
169.994	18.332	1238.080	943.425
171.008	18.413	1237.244	943.149
172.023	18.521	1236.776	943.302
173.037	18.653	1235.594	943.043
174.052	18.619	1234.902	942.247
175.067	18.417	1233.658	940.105
176.081	18.427	1232.683	939.333
177.096	18.143	1231.971	937.148
178.110	18.361	1230.287	936.977
179.125	18.345	1229.530	936.231
180.140	18.433	1228.448	935.807
181.154	18.476	1227.175	934.990
182.169	18.652	1226.028	934.990
183.183	18.671	1225.345	934.491
184.198	18.687	1224.463	933.825
185.213	18.819	1222.467	932.933
186.227	18.810	1221.707	932.224
187.242	18.704	1221.254	931.219
188.256	18.823	1220.244	931.014
189.271	18.892	1219.125	930.449
190.286	18.714	1217.840	928.422
191.300	18.338	1216.699	925.442
192.315	18.095	1215.995	923.510
193.329	18.209	1215.504	923.671
194.344	18.385	1214.803	924.006
195.359	18.339	1214.402	923.374
196.373	18.512	1213.804	923.765
197.388	18.727	1213.237	924.410
198.402	18.858	1213.196	925.003
199.417	18.975	1212.667	925.146
200.432	19.022	1211.666	924.554
201.446	19.063	1211.147	924.298
202.461	19.148	1210.161	923.920
203.475	19.217	1209.319	923.563
204.490	18.882	1208.276	920.890
205.504	18.771	1206.544	918.897
206.519	18.735	1205.316	917.690
207.534	18.796	1203.942	916.884
208.548	18.858	1203.048	916.455
209.563	18.846	1202.634	915.996
210.577	18.890	1201.335	915.159
211.592	19.029	1200.642	915.290
212.607	18.986	1200.161	914.612
213.621	19.045	1199.146	914.070
214.636	19.029	1198.266	913.235
215.650	18.888	1197.786	912.042
216.665	19.152	1196.402	912.306
217.680	19.229	1195.743	912.128
218.694	19.195	1195.314	911.541
219.709	19.228	1193.983	910.618
220.723	19.174	1193.091	909.573
221.738	19.150	1192.463	908.888
222.753	19.121	1191.911	908.232
223.767	19.138	1191.219	907.717
224.782	19.324	1190.160	907.808
225.796	19.317	1189.955	907.535
226.811	19.389	1189.190	907.252
227.826	19.162	1188.415	905.383
228.840	19.105	1187.650	904.423
229.855	19.117	1187.308	904.146
230.869	19.207	1185.880	903.448
231.884	19.022	1185.525	902.132
232.899	19.015	1184.285	901.070
233.913	19.031	1183.383	900.387
234.928	18.983	1182.761	899.582
235.942	18.856	1182.287	898.481
236.957	18.888	1181.378	897.874
237.972	18.890	1180.758	897.337
238.986	19.011	1179.972	897.288
240.001	18.890	1179.559	896.268
241.015	19.018	1178.672	896.179
242.030	19.200	1177.482	896.140
243.045	19.242	1176.938	895.868
244.059	19.295	1175.999	895.348
245.074	19.250	1175.879	894.946
246.088	19.362	1174.400	894.318
247.103	19.312	1174.425	894.003
248.117	19.392	1173.566	893.683
249.132	19.728	1173.076	894.971
250.147	19.747	1172.614	894.635
251.161	19.953	1171.967	895.132
252.176	19.946	1171.222	894.443
253.190	20.065	1170.333	894.298
254.205	19.977	1170.259	893.711
255.220	20.090	1169.605	893.718
256.234	19.956	1168.663	892.228
257.249	20.056	1167.992	892.151
258.263	20.063	1167.240	891.533
259.278	19.991	1166.802	890.751
260.293	20.009	1166.245	890.335
261.307	19.999	1165.822	889.885
262.322	20.148	1164.916	889.880
263.336	20.084	1164.551	889.191
264.351	20.231	1163.281	888.899
265.366	20.163	1163.125	888.351
266.380	20.109	1162.659	887.641
267.395	20.037	1161.491	886.301
268.409	20.007	1160.592	885.383
269.424	20.080	1159.809	885.083
270.439	19.990	1159.545	884.340
271.453	19.903	1158.461	882.994
272.468	19.826	1157.727	881.965
273.482	19.898	1156.287	881.156
274.497	19.861	1155.858	880.560
275.512	19.969	1155.171	880.509
276.526	19.953	1154.702	879.990
277.541	19.827	1154.111	878.823
278.555	19.944	1153.260	878.692
279.570	20.165	1152.629	879.252
280.585	20.262	1151.788	879.026
281.599	20.264	1150.562	878.022
282.614	20.048	1149.723	876.214
283.628	20.046	1148.447	875.152
284.643	20.094	1147.774	874.806
285.657	20.131	1146.474	873.923
286.672	20.092	1145.654	873.025
287.687	20.112	1144.696	872.319
288.701	20.129	1144.308	872.031
289.716	20.135	1143.228	871.161
290.730	20.290	1142.715	871.469
291.745	20.178	1142.144	870.394
292.760	20.330	1141.471	870.569
293.774	20.277	1141.651	870.365
294.789	20.482	1140.627	870.533
295.803	20.342	1139.844	869.155
296.818	20.294	1139.049	868.232
297.833	20.132	1138.271	866.754
298.847	20.089	1137.474	865.857
299.862	20.283	1136.319	865.870
300.876	20.169	1136.186	865.120
301.891	20.256	1135.612	865.041
302.906	20.417	1134.710	865.078
303.920	20.529	1134.195	865.170
304.935	20.545	1133.848	864.905
305.949	20.627	1133.413	864.907
306.964	20.761	1132.209	864.576
307.979	20.497	1131.661	862.771
308.993	20.371	1131.041	861.596
310.008	20.421	1130.374	861.260
311.022	20.566	1129.579	861.296
312.037	20.578	1128.284	860.292
313.052	20.385	1127.597	858.736
314.066	20.365	1126.329	857.599
315.081	20.271	1125.477	856.407
316.095	20.163	1124.323	854.925
317.110	20.223	1123.874	854.803
318.125	20.264	1123.232	854.437
319.139	20.279	1122.545	853.915
320.154	20.324	1121.842	853.525
321.168	20.297	1121.224	852.848
322.183	20.262	1120.752	852.240
323.197	20.435	1120.310	852.680
324.212	20.373	1119.858	851.957
325.227	20.425	1118.991	851.476
326.241	20.396	1118.432	850.830
327.256	20.246	1117.628	849.408
328.270	20.320	1116.603	848.919
329.285	20.365	1115.492	848.217
330.300	20.377	1114.677	847.580
331.314	20.362	1113.620	846.632
332.329	20.400	1112.953	846.234
333.343	20.446	1111.831	845.532
334.358	20.600	1111.108	845.652
335.373	20.717	1110.598	845.758
336.387	20.682	1109.833	844.933
337.402	20.752	1108.694	844.330
338.416	20.714	1108.436	843.872
339.431	20.736	1108.040	843.607
340.446	20.963	1107.416	844.155
341.460	21.096	1106.653	844.142
342.475	21.041	1105.832	843.173
343.489	21.055	1105.099	842.609
344.504	21.201	1103.746	842.209
345.519	21.213	1103.152	841.739
346.533	21.239	1102.420	841.227
347.548	21.326	1101.993	841.249
348.562	21.324	1100.739	840.206
349.577	21.155	1099.830	838.627
350.592	20.956	1099.392	837.264
351.606	20.849	1098.049	835.654
352.621	20.792	1097.315	834.745
353.635	20.792	1096.827	834.302
354.650	20.764	1096.085	833.531
355.665	20.825	1095.835	833.556
356.679	20.875	1095.008	833.096
357.694	20.868	1094.355	832.489
358.708	20.991	1094.026	832.754
359.723	20.992	1093.180	832.042
360.738	21.080	1092.567	831.921
361.752	20.819	1092.523	830.566
362.767	20.963	1091.956	830.750
363.781	20.996	1090.935	830.057
364.796	21.235	1090.518	830.801
365.810	21.322	1090.224	830.919
366.825	21.362	1089.640	830.591
367.840	21.500	1089.269	830.890
368.854	21.585	1088.551	830.674
369.869	21.510	1087.822	829.687
370.883	21.278	1086.947	827.847
371.898	21.400	1085.908	827.560
372.913	21.222	1085.350	826.221
373.927	21.426	1084.916	826.782
374.942	21.527	1084.048	826.521
375.956	21.485	1083.906	826.142
376.971	21.495	1083.137	825.530
377.986	21.563	1082.658	825.412
379.000	21.698	1081.830	825.344
380.015	21.587	1081.459	824.468
381.029	21.703	1080.922	824.530
382.044	21.873	1080.137	824.660
383.059	21.685	1079.275	823.044
384.073	21.633	1078.531	822.160
385.088	21.712	1077.507	821.674
386.102	21.767	1076.648	821.207
387.117	21.613	1075.382	819.448
388.132	21.326	1074.593	817.433
389.146	21.318	1073.931	816.818
390.161	21.438	1072.829	816.467
391.175	21.428	1072.489	816.090
392.190	21.521	1071.883	815.991
393.205	21.572	1071.275	815.695
394.219	21.706	1070.175	815.408
395.234	21.644	1069.037	814.180
396.248	21.530	1068.272	812.996
397.263	21.507	1067.018	811.864
398.278	21.335	1066.471	810.578
399.292	21.277	1065.649	809.613
400.307	21.251	1065.393	809.225
401.321	21.241	1064.693	808.574
402.336	21.323	1063.679	808.113
403.350	21.351	1063.111	807.736
404.365	21.439	1062.348	807.493
405.380	21.494	1061.825	807.280
406.394	21.662	1060.886	807.268
407.409	21.700	1060.042	806.729
408.423	21.784	1059.925	806.955
409.438	21.887	1058.912	806.588
410.453	21.923	1058.055	806.029
411.467	22.006	1057.959	806.266
412.482	22.012	1057.310	805.728
413.496	22.176	1056.569	805.841
414.511	22.153	1056.127	805.326
415.526	22.170	1055.946	805.196
416.540	22.312	1055.407	805.363
417.555	22.398	1054.440	804.947
418.569	22.193	1054.254	803.798
419.584	22.212	1053.345	803.121
420.599	22.190	1052.884	802.600
421.613	152.395	1400.263	1784.647
422.628	139.870	1450.885	1784.758
