DTS Sentinel unit serial number:	SN413079Multiplexer serial number:	ORYXHardware model number:	OX4-SRSoftware version number:	ORYX F/W v4.00 Oryx Data Collector v3.7.2.0data status	okinstallation	princeton_trtdifferential loss correction	single-endedforward channel	channel 2reverse channel	N/Adate	2019/09/14time	22:07:35forward acquisition time	60.00reverse acquisition time	0.00gamma	496.2192k internal	0.2324k external	0.2324temperature offset calibration	1.0066default loss term (dB/km)	0.3790temperature slope calibration	1.0000multiplexer offset coefficient	1.0000multiplexer slope coefficient	1.0000fibre end	0.00T internal ref (°C)	32.66T ext. ref 1 (°C)	4.72T ext. ref 2 (°C)	27.65length (m)	temperature (°C)	Stokes	anti-Stokes-747.200	-200.000	-0.089	0.410
-746.185	140.674	-0.114	0.152
-745.171	-193.702	0.161	-0.001
-744.156	178.875	-0.109	0.161
-743.142	-64.947	-0.192	0.078
-742.127	36.712	-0.194	0.173
-741.112	800.000	-0.057	0.160
-740.098	-200.000	0.039	0.382
-739.083	800.000	-0.044	0.143
-738.069	800.000	-0.061	0.239
-737.054	102.792	-0.258	-0.304
-736.039	39.833	-0.104	-0.094
-735.025	-12.322	-0.169	0.111
-734.010	-91.808	0.131	0.038
-732.996	-148.785	0.262	-0.021
-731.981	43.826	-0.084	-0.077
-730.966	-141.336	0.144	-0.015
-729.952	-23.795	-0.126	-0.076
-728.937	246.854	-0.061	-0.104
-727.923	-46.226	0.247	-0.122
-726.908	800.000	-0.038	-0.158
-725.894	-80.536	-0.190	-0.064
-724.879	-42.196	-0.195	-0.101
-723.864	407.698	-0.071	-0.150
-722.850	15.826	-0.136	0.108
-721.835	70.911	-0.285	-0.298
-720.821	800.000	-0.063	-0.240
-719.806	393.670	-0.069	0.144
-718.791	-18.835	-0.364	0.229
-717.777	-79.158	0.098	0.034
-716.762	-200.000	-0.018	-0.167
-715.748	-184.767	-0.105	-0.002
-714.733	319.374	0.089	0.171
-713.718	767.448	-0.025	0.068
-712.704	-135.341	-0.281	-0.034
-711.689	18.426	0.324	0.261
-710.675	-200.000	0.015	0.250
-709.660	-85.938	-0.351	-0.110
-708.645	143.528	-0.061	-0.082
-707.631	-200.000	0.024	-0.107
-706.616	-38.415	-0.042	0.023
-705.602	-116.992	0.042	-0.008
-704.587	220.154	0.027	-0.043
-703.572	71.270	-0.112	0.117
-702.558	800.000	-0.007	0.025
-701.543	-145.198	0.040	0.004
-700.529	148.850	0.102	0.139
-699.514	-190.003	0.178	0.002
-698.499	-150.932	-0.074	0.006
-697.485	-103.099	0.305	0.073
-696.470	-148.094	-0.431	-0.036
-695.456	687.810	-0.096	-0.253
-694.441	800.000	-0.042	-0.174
-693.426	-200.000	0.025	-0.130
-692.412	800.000	0.016	0.052
-691.397	79.415	0.189	-0.204
-690.383	-82.673	-0.160	0.052
-689.368	-122.692	0.227	0.037
-688.354	477.028	0.126	0.287
-687.339	800.000	-0.023	-0.090
-686.324	-200.000	0.015	-0.126
-685.310	177.466	0.236	-0.346
-684.295	-200.000	-0.051	0.330
-683.281	-73.316	-0.392	-0.144
-682.266	800.000	0.062	-0.195
-681.251	-80.600	0.094	0.032
-680.237	-119.613	-0.134	0.023
-679.222	-183.133	0.179	-0.003
-678.208	365.350	-0.050	-0.102
-677.193	-50.315	-0.173	0.082
-676.178	-78.159	-0.305	0.106
-675.164	-75.187	0.153	0.055
-674.149	219.307	-0.047	-0.076
-673.135	800.000	0.080	0.237
-672.120	103.594	-0.079	0.093
-671.105	-93.257	-0.200	0.056
-670.091	87.986	0.140	0.157
-669.076	-200.000	0.006	-0.319
-668.062	800.000	-0.056	-0.226
-667.047	98.644	-0.188	-0.219
-666.032	-122.746	0.109	-0.018
-665.018	637.269	-0.094	0.240
-664.003	276.216	-0.100	-0.179
-662.989	149.855	-0.172	0.234
-661.974	448.727	0.100	0.221
-660.959	-46.532	-0.106	0.052
-659.945	-200.000	-0.010	0.055
-658.930	-7.071	0.169	-0.115
-657.916	800.000	-0.026	-0.088
-656.901	-19.211	-0.268	-0.167
-655.886	800.000	0.034	-0.108
-654.872	358.174	0.014	-0.028
-653.857	232.721	-0.280	-0.462
-652.843	-114.472	-0.312	-0.060
-651.828	-200.000	0.059	-0.305
-650.814	-51.846	-0.047	-0.022
-649.799	-9.077	0.072	-0.048
-648.784	22.720	0.388	-0.320
-647.770	-32.541	-0.133	0.074
-646.755	-174.436	0.398	-0.011
-645.741	-77.500	-0.269	-0.094
-644.726	-197.477	-0.343	-0.002
-643.711	-116.986	0.162	0.030
-642.697	-200.000	0.051	-0.288
-641.682	-152.148	0.196	-0.014
-640.668	-113.653	-0.120	-0.024
-639.653	87.148	-0.311	0.345
-638.638	79.087	-0.068	-0.073
-637.624	112.498	-0.163	-0.198
-636.609	-21.390	-0.167	0.102
-635.595	-200.000	-0.021	-0.302
-634.580	544.760	-0.131	-0.314
-633.565	-47.665	-0.307	-0.150
-632.551	-200.000	-0.025	0.228
-631.536	-200.000	0.006	0.232
-630.522	243.815	-0.041	-0.069
-629.507	-155.714	0.354	0.023
-628.492	-200.000	-0.074	-0.405
-627.478	-3.362	0.077	0.054
-626.463	-102.779	-0.228	0.055
-625.449	202.923	0.061	0.095
-624.434	565.787	-0.150	-0.366
-623.419	800.000	0.044	-0.186
-622.405	800.000	-0.044	0.130
-621.390	-200.000	0.020	-0.250
-620.376	-65.161	-0.352	0.143
-619.361	183.605	-0.135	0.200
-618.346	-118.524	0.157	-0.028
-617.332	-137.548	-0.216	0.024
-616.317	38.691	0.131	-0.117
-615.303	-25.646	-0.079	0.047
-614.288	342.823	-0.107	-0.210
-613.273	-186.765	-0.039	0.001
-612.259	318.155	0.079	-0.149
-611.244	-69.274	-0.078	0.030
-610.230	-34.606	0.182	-0.100
-609.215	-200.000	-0.057	0.262
-608.201	-15.523	-0.190	0.122
-607.186	-72.694	0.306	-0.113
-606.171	51.814	-0.102	0.098
-605.157	11.489	0.084	0.065
-604.142	-102.575	0.314	0.075
-603.128	132.976	-0.089	-0.115
-602.113	351.500	0.051	-0.101
-601.098	800.000	-0.138	-0.404
-600.084	223.772	0.034	0.055
-599.069	-127.376	-0.124	-0.018
-598.055	-63.714	0.240	-0.099
-597.040	-146.146	0.192	-0.017
-596.025	-20.112	0.184	-0.114
-595.011	-143.071	0.150	-0.015
-593.996	-138.869	-0.169	-0.018
-592.982	406.074	-0.188	-0.398
-591.967	800.000	0.142	-0.445
-590.952	-200.000	-0.024	-0.218
-589.938	800.000	0.020	-0.056
-588.923	252.356	0.097	0.166
-587.909	7.792	-0.176	-0.132
-586.894	124.641	0.108	-0.137
-585.879	800.000	0.031	0.119
-584.865	58.019	-0.234	0.230
-583.850	365.848	-0.181	-0.366
-582.836	-155.156	-0.073	-0.005
-581.821	-11.724	-0.166	0.109
-580.806	-200.000	0.029	0.141
-579.792	-77.864	0.257	-0.089
-578.777	-200.000	0.050	-0.395
-577.763	-200.000	-0.014	0.167
-576.748	-3.018	-0.079	-0.055
-575.733	-79.732	0.195	0.066
-574.719	-12.866	0.122	-0.080
-573.704	702.473	0.162	-0.428
-572.690	226.989	-0.088	-0.144
-571.675	49.800	-0.045	-0.043
-570.661	-123.921	-0.415	0.066
-569.646	31.295	-0.155	0.134
-568.631	-200.000	0.005	-0.067
-567.617	86.186	-0.036	-0.040
-566.602	-36.714	0.153	0.082
-565.588	800.000	0.109	-0.348
-564.573	-88.037	-0.124	0.037
-563.558	-9.819	0.051	-0.034
-562.544	46.560	-0.031	0.029
-561.529	800.000	-0.144	0.405
-560.515	-53.314	-0.207	-0.095
-559.500	377.476	-0.049	-0.101
-558.485	245.211	0.052	-0.087
-557.471	800.000	-0.051	-0.150
-556.456	-200.000	-0.032	-0.242
-555.442	-70.503	0.281	-0.106
-554.427	537.998	0.115	-0.275
-553.412	-1.616	-0.169	0.120
-552.398	800.000	0.066	0.253
-551.383	-88.648	-0.343	0.102
-550.369	-182.144	-0.136	-0.003
-549.354	23.878	-0.076	0.062
-548.339	-120.130	0.388	-0.067
-547.325	-200.000	-0.098	-0.461
-546.310	361.219	0.082	0.165
-545.296	-104.451	-0.313	-0.073
-544.281	-71.413	-0.228	-0.086
-543.266	56.332	0.219	0.213
-542.252	-140.140	0.160	0.017
-541.237	25.569	-0.219	-0.183
-540.223	556.511	-0.085	-0.206
-539.208	-200.000	-0.017	-0.094
-538.193	-200.000	0.003	0.154
-537.179	230.193	-0.294	0.481
-536.164	100.771	0.095	0.111
-535.150	265.926	0.114	-0.199
-534.135	-200.000	0.009	-0.233
-533.121	87.828	0.166	-0.184
-532.106	-155.935	0.080	-0.005
-531.091	-134.200	0.277	-0.034
-530.077	-200.000	-0.029	-0.256
-529.062	50.310	-0.189	-0.179
-528.048	-159.236	0.371	0.021
-527.033	-200.000	-0.074	0.369
-526.018	156.696	0.231	0.319
-525.004	800.000	0.041	0.116
-523.989	-86.326	0.224	-0.069
-522.975	358.792	0.154	0.309
-521.960	-72.035	-0.170	0.063
-520.945	-179.549	0.146	-0.003
-519.931	207.050	0.058	0.091
-518.916	-52.554	0.152	-0.070
-517.902	286.572	-0.094	0.171
-516.887	48.229	0.166	0.155
-515.872	368.756	-0.072	-0.147
-514.858	-41.431	0.320	-0.165
-513.843	-166.546	-0.392	-0.016
-512.829	800.000	0.046	-0.182
-511.814	122.698	-0.137	-0.172
-510.799	800.000	-0.098	-0.323
-509.785	63.132	-0.198	-0.198
-508.770	75.900	-0.024	0.025
-507.756	-200.000	-0.011	-0.069
-506.741	-92.173	-0.054	-0.015
-505.726	-200.000	0.002	-0.088
-504.712	525.254	0.066	-0.156
-503.697	800.000	0.074	0.230
-502.683	-14.051	0.191	-0.123
-501.668	123.838	0.211	0.265
-500.653	-167.263	-0.278	0.011
-499.639	87.493	-0.149	-0.164
-498.624	800.000	0.050	-0.206
-497.610	12.105	-0.150	-0.115
-496.595	-200.000	-0.055	0.259
-495.581	52.917	0.066	-0.063
-494.566	246.476	-0.029	-0.049
-493.551	56.171	0.165	-0.160
-492.537	-86.134	0.227	0.070
-491.522	-158.068	-0.251	-0.015
-490.508	-183.715	0.388	0.007
-489.493	-11.812	0.191	-0.125
-488.478	800.000	-0.089	-0.252
-487.464	-86.145	-0.165	-0.051
-486.449	564.901	-0.005	0.011
-485.435	800.000	-0.103	0.384
-484.420	80.746	0.082	-0.088
-483.405	-200.000	0.009	-0.207
-482.391	-200.000	-0.025	-0.329
-481.376	-28.427	-0.199	-0.115
-480.362	-200.000	-0.045	-0.400
-479.347	-200.000	-0.058	0.275
-478.332	-200.000	0.022	-0.280
-477.318	-200.000	-0.029	-0.187
-476.303	615.354	-0.135	-0.338
-475.289	-88.840	-0.070	0.021
-474.274	78.911	0.173	0.185
-473.259	366.426	-0.097	-0.195
-472.245	133.413	0.031	0.041
-471.230	-54.970	-0.064	-0.029
-470.216	-182.476	-0.263	0.005
-469.201	-120.158	0.213	0.036
-468.186	-200.000	-0.037	0.397
-467.172	-77.823	-0.174	0.060
-466.157	383.870	-0.088	0.180
-465.143	231.858	0.158	-0.259
-464.128	52.743	-0.328	0.313
-463.113	-132.111	0.273	-0.035
-462.099	-200.000	-0.008	0.384
-461.084	-57.742	-0.178	0.078
-460.070	-200.000	-0.058	-0.331
-459.055	800.000	-0.082	0.311
-458.040	10.632	0.248	-0.189
-457.026	-36.528	0.207	-0.111
-456.011	-150.340	-0.527	-0.041
-454.997	307.770	-0.186	-0.346
-453.982	-81.082	0.216	-0.071
-452.968	-2.931	-0.218	0.152
-451.953	-200.000	0.005	-0.497
-450.938	-132.958	0.273	-0.035
-449.924	131.013	0.162	0.208
-448.909	113.437	-0.260	-0.314
-447.895	-18.426	-0.139	-0.087
-446.880	-200.000	-0.025	-0.157
-445.865	-112.913	0.281	-0.056
-444.851	-97.075	0.198	0.052
-443.836	-200.000	-0.001	0.091
-442.822	3.786	-0.307	0.224
-441.807	-117.945	0.184	0.033
-440.792	-147.513	-0.218	0.018
-439.778	-176.771	-0.195	-0.005
-438.763	486.519	0.120	0.272
-437.749	-200.000	0.000	-0.100
-436.734	-200.000	-0.009	-0.052
-435.719	149.426	-0.056	-0.075
-434.705	43.519	0.083	-0.076
-433.690	-200.000	-0.007	0.173
-432.676	14.375	0.042	-0.033
-431.661	-61.592	0.244	0.102
-430.646	-200.000	-0.019	-0.195
-429.632	68.976	-0.195	-0.199
-428.617	329.914	0.085	-0.162
-427.603	-141.760	-0.124	0.012
-426.588	157.673	-0.046	-0.064
-425.573	-33.672	-0.241	0.133
-424.559	111.669	0.379	-0.456
-423.544	800.000	0.080	-0.284
-422.530	-200.000	0.009	-0.375
-421.515	-97.017	-0.119	-0.031
-420.500	360.987	-0.131	-0.261
-419.486	-90.996	-0.040	0.011
-418.471	-155.454	-0.230	0.015
-417.457	800.000	0.042	-0.146
-416.442	-54.979	-0.039	-0.018
-415.428	137.324	0.080	0.104
-414.413	800.000	-0.061	0.228
-413.398	-200.000	0.033	0.187
-412.384	574.545	0.078	-0.190
-411.369	-40.203	0.143	0.074
-410.355	123.293	0.384	-0.479
-409.340	-178.782	0.069	0.002
-408.325	-117.679	0.071	0.013
-407.311	-113.727	-0.238	0.046
-406.296	-53.500	0.071	0.032
-405.282	-25.316	0.169	0.099
-404.267	117.634	0.116	0.142
-403.252	-67.948	-0.337	0.131
-402.238	800.000	0.018	0.071
-401.223	-0.630	0.188	-0.133
-400.209	286.780	0.140	-0.253
-399.194	481.177	0.156	0.353
-398.179	-5.468	0.258	0.177
-397.165	165.433	-0.083	-0.117
-396.150	-163.222	0.403	0.019
-395.136	-89.634	-0.168	-0.049
-394.121	295.655	-0.113	-0.206
-393.106	-65.398	0.298	0.119
-392.092	-44.674	0.305	0.151
-391.077	-200.000	-0.015	0.106
-390.063	-164.629	0.225	-0.010
-389.048	-192.078	-0.086	0.001
-388.033	465.287	0.076	0.170
-387.019	193.663	-0.100	-0.151
-386.004	800.000	0.058	0.182
-384.990	-193.164	0.144	0.001
-383.975	-71.645	0.266	0.099
-382.960	-16.173	-0.143	0.090
-381.946	181.303	0.142	0.208
-380.931	800.000	0.043	0.144
-379.917	277.357	0.278	0.492
-378.902	689.712	-0.120	0.312
-377.888	800.000	-0.088	0.335
-376.873	52.429	-0.141	0.134
-375.858	800.000	-0.048	-0.203
-374.844	77.794	-0.264	0.280
-373.829	-200.000	-0.029	-0.220
-372.815	-200.000	0.053	-0.360
-371.800	-110.730	-0.072	-0.015
-370.785	-71.339	0.291	0.109
-369.771	-200.000	0.016	0.153
-368.756	-154.582	0.200	0.013
-367.742	800.000	-0.031	-0.116
-366.727	368.112	0.124	-0.249
-365.712	323.022	-0.037	0.070
-364.698	-200.000	0.044	0.253
-363.683	7.023	0.057	-0.042
-362.669	-74.158	0.196	-0.070
-361.654	0.630	0.078	0.056
-360.639	-168.189	0.098	-0.004
-359.625	-94.457	0.218	-0.059
-358.610	173.096	0.123	-0.176
-357.596	-200.000	0.033	0.288
-356.581	-188.340	0.325	-0.004
-355.566	146.933	-0.322	0.430
-354.552	24.974	-0.101	-0.084
-353.537	-200.000	-0.019	-0.309
-352.523	-39.032	0.465	0.243
-351.508	17.147	0.088	0.069
-350.493	-85.558	-0.297	0.092
-349.479	221.905	-0.094	-0.150
-348.464	-200.000	0.036	0.350
-347.450	370.104	0.132	0.266
-346.435	-129.537	-0.548	0.075
-345.420	-73.500	0.269	-0.098
-344.406	414.806	0.045	-0.096
-343.391	77.204	0.134	0.142
-342.377	216.815	-0.022	0.035
-341.362	-68.889	0.056	-0.022
-340.348	409.408	-0.067	-0.140
-339.333	-94.553	-0.353	-0.096
-338.318	-125.664	0.143	0.022
-337.304	800.000	-0.065	0.192
-336.289	425.488	0.073	-0.156
-335.275	93.233	-0.084	0.095
-334.260	698.827	-0.062	-0.161
-333.245	-29.688	-0.127	0.072
-332.231	97.702	0.117	-0.133
-331.216	-136.991	-0.293	-0.033
-330.202	14.838	0.332	0.258
-329.187	12.407	0.215	-0.165
-328.172	-200.000	-0.007	-0.053
-327.158	-132.005	-0.101	-0.013
-326.143	54.706	0.082	0.079
-325.129	-84.641	-0.292	-0.091
-324.114	800.000	0.113	0.327
-323.099	593.809	-0.098	0.239
-322.085	1.193	-0.100	0.071
-321.070	72.257	-0.125	-0.129
-320.056	-33.295	0.084	0.046
-319.041	-60.687	-0.109	-0.046
-318.026	800.000	0.127	-0.432
-317.012	450.148	-0.037	0.082
-315.997	157.099	0.126	-0.174
-314.983	-82.838	0.168	-0.054
-313.968	138.085	0.150	0.195
-312.953	87.767	0.296	0.325
-311.939	25.908	0.145	-0.120
-310.924	76.951	-0.044	-0.046
-309.910	360.394	-0.220	0.436
-308.895	100.116	-0.133	-0.153
-307.880	625.205	0.048	0.121
-306.866	37.920	0.144	0.127
-305.851	291.294	-0.025	-0.045
-304.837	583.726	0.182	0.444
-303.822	-197.031	0.175	0.001
-302.807	-32.259	0.086	0.048
-301.793	-182.451	-0.296	-0.005
-300.778	-200.000	-0.010	0.340
-299.764	-4.286	-0.197	0.135
-298.749	-200.000	-0.018	-0.128
-297.735	800.000	-0.049	-0.151
-296.720	175.137	0.106	0.152
-295.705	800.000	-0.054	0.186
-294.691	-50.251	-0.103	-0.048
-293.676	-121.139	-0.130	0.022
-292.662	763.439	-0.071	0.192
-291.647	-116.125	-0.200	0.037
-290.632	272.455	-0.138	-0.242
-289.618	114.397	-0.060	0.072
-288.603	50.411	0.221	0.207
-287.589	374.965	0.063	-0.127
-286.574	62.281	0.029	0.028
-285.559	-8.748	0.341	-0.227
-284.545	-44.524	-0.285	0.142
-283.530	314.074	0.084	0.158
-282.516	86.592	0.352	0.385
-281.501	800.000	-0.034	0.117
-280.486	-13.949	0.063	0.040
-279.472	-57.728	0.119	-0.052
-278.457	139.695	0.210	0.274
-277.443	49.024	-0.197	0.183
-276.428	84.795	-0.128	-0.139
-275.413	800.000	-0.084	0.302
-274.399	800.000	-0.043	-0.128
-273.384	205.159	-0.264	0.406
-272.370	344.036	-0.092	0.178
-271.355	192.491	-0.008	0.013
-270.340	-112.947	-0.220	0.043
-269.326	-20.377	-0.081	-0.049
-268.311	331.168	-0.030	0.056
-267.297	-200.000	-0.008	-0.048
-266.282	70.938	0.177	-0.181
-265.267	-34.757	0.293	-0.159
-264.253	-200.000	0.047	0.297
-263.238	105.539	-0.094	-0.110
-262.224	800.000	0.019	-0.075
-261.209	75.453	-0.193	0.202
-260.195	255.748	0.220	0.375
-259.180	-200.000	-0.002	0.026
-258.165	67.228	-0.166	0.168
-257.151	650.985	0.066	0.168
-256.136	91.329	0.102	0.113
-255.122	-56.747	-0.136	0.059
-254.107	-200.000	-0.008	0.159
-253.092	259.992	0.188	0.322
-252.078	-200.000	0.027	-0.367
-251.063	-28.074	0.256	0.147
-250.049	282.618	-0.022	0.039
-249.034	50.828	-0.155	0.145
-248.019	800.000	-0.071	-0.213
-247.005	-200.000	0.059	-0.505
-245.990	-200.000	-0.050	-0.270
-244.976	66.908	0.139	0.140
-243.961	311.703	-0.179	-0.332
-242.946	52.929	-0.097	0.092
-241.932	289.495	0.062	-0.111
-240.917	-93.301	0.397	-0.109
-239.903	29.141	-0.118	-0.099
-238.888	-121.603	0.060	-0.010
-237.873	-173.057	0.125	0.004
-236.859	-141.865	0.527	0.052
-235.844	339.958	0.091	0.176
-234.830	69.162	-0.154	-0.156
-233.815	42.730	0.010	0.009
-232.800	800.000	0.013	0.047
-231.786	-19.246	0.197	0.121
-230.771	20.838	-0.155	0.124
-229.757	33.494	0.025	0.022
-228.742	800.000	-0.085	0.304
-227.727	256.758	-0.112	-0.190
-226.713	21.416	0.069	-0.056
-225.698	-119.481	-0.341	-0.059
-224.684	800.000	-0.081	0.229
-223.669	-62.653	0.041	0.017
-222.655	35.688	0.219	-0.191
-221.640	306.869	0.079	0.145
-220.625	-51.994	-0.140	0.064
-219.611	-61.197	0.276	0.115
-218.596	-67.610	-0.041	-0.016
-217.582	636.764	-0.087	-0.220
-216.567	-166.531	0.081	-0.003
-215.552	-17.406	0.177	0.110
-214.538	25.567	-0.218	0.179
-213.523	-200.000	-0.018	0.118
-212.509	250.824	0.105	0.177
-211.494	-135.740	-0.375	0.044
-210.479	95.662	0.121	0.137
-209.465	-80.482	-0.089	-0.029
-208.450	460.411	0.130	0.287
-207.436	-200.000	-0.017	-0.250
-206.421	118.770	-0.194	0.237
-205.406	-200.000	0.007	0.176
-204.392	-119.004	0.101	-0.018
-203.377	800.000	-0.039	0.125
-202.363	117.455	0.306	0.372
-201.348	-200.000	-0.060	0.462
-200.333	56.323	-0.104	0.100
-199.319	-200.000	-0.010	0.095
-198.304	-102.084	-0.196	0.047
-197.290	-200.000	-0.020	0.383
-196.275	-93.639	-0.318	0.087
-195.260	-200.000	-0.023	-0.110
-194.246	-67.872	-0.275	0.106
-193.231	311.620	-0.158	-0.293
-192.217	-111.928	0.197	0.039
-191.202	205.312	0.198	0.304
-190.187	-123.711	-0.465	0.073
-189.173	57.490	0.047	0.045
-188.158	309.714	0.046	0.085
-187.144	-80.232	0.081	0.027
-186.129	-200.000	-0.013	-0.298
-185.114	-36.439	0.034	0.018
-184.100	158.066	0.064	0.087
-183.085	218.034	0.088	-0.138
-182.071	-168.113	-0.207	0.008
-181.056	800.000	0.111	-0.352
-180.042	505.928	0.141	0.322
-179.027	19.231	0.148	-0.118
-178.012	-1.296	-0.392	-0.273
-176.998	486.779	-0.022	0.049
-175.983	-127.585	0.022	-0.003
-174.969	800.000	-0.015	-0.056
-173.954	111.201	-0.295	0.351
-172.939	-32.064	-0.087	0.048
-171.925	-200.000	0.011	-0.245
-170.910	17.338	-0.282	0.221
-169.896	-23.520	-0.457	-0.271
-168.881	-140.715	0.164	0.017
-167.866	-200.000	-0.006	0.101
-166.852	800.000	-0.008	0.034
-165.837	293.955	0.051	-0.093
-164.823	-200.000	0.013	-0.228
-163.808	-121.031	-0.213	-0.035
-162.793	-142.261	-0.334	0.033
-161.779	-78.357	-0.158	0.053
-160.764	-3.165	-0.241	0.166
-159.750	-140.225	0.311	-0.032
-158.735	-200.000	-0.013	0.271
-157.720	499.343	-0.117	-0.267
-156.706	134.434	-0.159	-0.203
-155.691	-128.253	0.191	0.027
-154.677	-29.934	0.208	-0.117
-153.662	-55.506	0.197	-0.087
-152.647	-35.107	-0.097	0.052
-151.633	-127.787	0.184	0.026
-150.618	214.147	0.159	-0.249
-149.604	4.930	0.118	0.085
-148.589	75.001	0.167	0.173
-147.574	-135.764	0.092	0.011
-146.560	17.733	-0.254	0.199
-145.545	89.910	-0.122	0.134
-144.531	-200.000	0.042	0.370
-143.516	-200.000	-0.033	0.394
-142.502	800.000	-0.105	-0.362
-141.487	-200.000	0.006	0.262
-140.472	-125.132	0.069	0.010
-139.458	-134.819	-0.077	-0.009
-138.443	20.896	-0.319	0.255
-137.429	-92.402	0.228	0.063
-136.414	147.164	-0.074	0.098
-135.399	-9.673	-0.122	-0.080
-134.385	-96.102	0.228	-0.060
-133.370	-171.456	-0.455	0.015
-132.356	-168.050	-0.285	0.011
-131.341	61.724	-0.181	-0.178
-130.326	498.137	-0.059	0.134
-129.312	-164.086	0.314	-0.014
-128.297	-112.063	-0.329	-0.065
-127.283	507.054	-0.056	-0.127
-126.268	-35.834	-0.069	-0.037
-125.253	507.267	-0.036	-0.082
-124.239	800.000	0.007	-0.026
-123.224	-89.823	0.223	0.064
-122.210	36.221	0.298	-0.259
-121.195	-75.077	-0.206	-0.073
-120.180	-200.000	-0.009	0.500
-119.166	165.520	-0.104	-0.145
-118.151	800.000	0.019	0.067
-117.137	21.894	-0.152	-0.122
-116.122	3.803	0.113	-0.081
-115.107	14.801	0.197	-0.152
-114.093	285.018	-0.184	0.326
-113.078	19.190	0.326	0.258
-112.064	-200.000	0.031	-0.308
-111.049	-71.413	0.021	0.008
-110.034	800.000	-0.085	-0.296
-109.020	18.493	-0.212	-0.167
-108.005	153.089	-0.065	0.087
-106.991	-57.606	0.127	0.055
-105.976	43.212	-0.036	0.032
-104.962	-200.000	-0.021	-0.220
-103.947	-200.000	-0.006	-0.080
-102.932	-200.000	-0.035	0.232
-101.918	-48.942	-0.312	0.147
-100.903	-143.214	0.386	0.037
-99.889	60.721	0.310	-0.302
-98.874	-92.600	0.073	0.020
-97.859	169.422	-0.233	-0.328
-96.845	-121.176	0.104	-0.017
-95.830	800.000	-0.063	-0.201
-94.816	-153.404	0.135	-0.009
-93.801	800.000	-0.041	-0.128
-92.786	-84.347	-0.299	0.093
-91.772	-23.079	-0.106	-0.063
-90.757	-84.377	-0.168	-0.052
-89.743	590.439	-0.105	-0.255
-88.728	509.697	0.093	-0.213
-87.713	-200.000	0.016	-0.125
-86.699	-200.000	0.038	-0.438
-85.684	-200.000	-0.033	-0.160
-84.670	-138.054	-0.074	-0.008
-83.655	-63.138	0.277	-0.112
-82.640	8.701	-0.394	0.292
-81.626	-17.192	-0.273	0.170
-80.611	-45.729	0.076	-0.037
-79.597	-200.000	-0.029	-0.152
-78.582	-200.000	0.028	0.130
-77.567	157.649	0.283	-0.386
-76.553	215.047	-0.038	0.059
-75.538	-200.000	-0.044	-0.214
-74.524	-5.890	-0.231	-0.155
-73.509	-111.775	-0.241	0.048
-72.494	231.516	-0.071	-0.115
-71.480	312.867	0.083	-0.153
-70.465	-39.268	0.314	-0.162
-69.451	-60.914	0.137	-0.057
-68.436	-135.636	-0.170	-0.020
-67.422	-17.459	-0.069	0.043
-66.407	-200.000	-0.013	-0.124
-65.392	-98.375	-0.212	-0.053
-64.378	-127.116	0.235	-0.034
-63.363	-106.591	-0.243	-0.053
-62.349	465.592	0.080	0.176
-61.334	59.975	-1.017	-0.988
-60.319	-54.935	0.240	-0.106
-59.305	-200.000	-0.147	-0.869
-58.290	82.296	0.882	0.941
-57.276	355.269	0.665	1.299
-56.261	-200.000	95.183	573.950
-55.246	655.707	1371.860	3462.470
-54.232	199.205	2552.359	3843.934
-53.217	114.030	2268.645	2711.543
-52.203	42.108	1895.263	1690.913
-51.188	35.879	1685.432	1456.691
-50.173	33.297	1640.711	1398.931
-49.159	50.774	1686.680	1569.351
-48.144	52.221	1703.885	1596.133
-47.130	35.591	1664.330	1436.071
-46.115	32.766	1650.374	1402.996
-45.100	32.609	1645.038	1397.239
-44.086	32.579	1642.589	1394.882
-43.071	32.522	1640.368	1392.516
-42.057	32.549	1637.497	1390.224
-41.042	32.496	1635.746	1388.290
-40.027	32.544	1633.808	1386.948
-39.013	32.502	1632.010	1385.054
-37.998	32.458	1630.403	1383.313
-36.984	32.624	1628.792	1383.110
-35.969	32.574	1627.557	1381.639
-34.954	32.744	1625.908	1381.427
-33.940	32.664	1623.908	1379.093
-32.925	32.636	1622.319	1377.479
-31.911	32.596	1621.123	1376.120
-30.896	32.636	1619.030	1374.578
-29.881	32.635	1617.676	1373.365
-28.867	32.718	1615.093	1371.726
-27.852	32.686	1614.159	1370.642
-26.838	32.549	1612.833	1368.471
-25.823	32.681	1611.533	1368.266
-24.809	32.743	1609.859	1367.241
-23.794	32.610	1608.481	1365.058
-22.779	32.688	1607.155	1364.443
-21.765	32.636	1605.634	1362.718
-20.750	32.625	1603.335	1360.635
-19.736	32.647	1602.449	1359.984
-18.721	32.732	1600.553	1358.934
-17.706	32.630	1599.900	1357.590
-16.692	32.706	1598.247	1356.682
-15.677	32.676	1596.640	1355.054
-14.663	32.772	1595.316	1354.562
-13.648	32.708	1594.057	1352.980
-12.633	32.769	1592.115	1351.713
-11.619	32.714	1590.608	1349.993
-10.604	32.755	1589.140	1348.982
-9.590	32.663	1588.147	1347.432
-8.575	32.707	1586.685	1346.450
-7.560	32.671	1585.292	1344.953
-6.546	32.674	1584.434	1344.198
-5.531	32.734	1582.912	1343.278
-4.517	32.646	1582.442	1342.200
-3.502	32.717	1580.827	1341.282
-2.487	32.803	1579.013	1340.301
-1.473	32.539	1567.306	1328.447
-0.458	29.734	1548.722	1293.062
0.556	26.048	1549.916	1261.714
1.571	23.730	1573.094	1263.991
2.586	23.279	1585.914	1270.949
3.600	20.660	1532.301	1209.688
4.615	12.572	1424.418	1071.927
5.629	5.773	1362.090	982.446
6.644	4.833	1353.995	970.667
7.659	4.633	1352.424	968.209
8.673	4.711	1351.108	967.663
9.688	4.683	1349.497	966.251
10.702	4.643	1346.876	964.041
11.717	7.701	1352.366	986.892
12.731	15.241	1366.372	1044.165
13.746	19.940	1372.933	1078.431
14.761	19.458	1371.283	1074.037
15.775	18.432	1368.813	1065.630
16.790	17.396	1365.913	1056.848
17.804	16.522	1363.610	1049.550
18.819	16.209	1362.322	1046.521
19.834	15.928	1361.099	1043.750
20.848	15.773	1360.003	1041.859
21.863	15.468	1358.718	1038.892
22.877	15.486	1357.533	1038.006
23.892	15.288	1356.838	1036.160
24.907	15.294	1355.653	1035.198
25.921	15.316	1354.961	1034.716
26.936	15.351	1354.237	1034.288
27.950	15.423	1353.203	1033.852
28.965	15.425	1352.263	1033.055
29.980	15.600	1350.846	1032.954
30.994	15.572	1350.057	1032.089
32.009	15.661	1348.590	1031.424
33.023	15.622	1347.451	1030.217
34.038	15.684	1345.606	1029.101
35.053	15.457	1344.828	1027.022
36.067	15.523	1343.438	1026.272
37.082	15.576	1342.497	1025.788
38.096	15.658	1341.683	1025.573
39.111	15.653	1340.762	1024.752
40.126	15.419	1340.027	1022.672
41.140	15.271	1339.591	1021.350
42.155	15.193	1338.576	1020.010
43.169	15.161	1338.663	1019.789
44.184	15.201	1338.476	1019.799
45.199	15.281	1338.059	1019.879
46.213	15.379	1337.028	1019.595
47.228	15.391	1336.673	1019.308
48.242	15.461	1335.578	1018.807
49.257	15.413	1333.868	1017.125
50.271	15.396	1332.449	1015.851
51.286	15.411	1331.342	1015.006
52.301	15.402	1329.815	1013.696
53.315	15.367	1328.952	1012.738
54.330	15.285	1328.032	1011.455
55.344	15.357	1326.346	1010.514
56.359	15.283	1325.473	1009.312
57.374	15.301	1324.603	1008.669
58.388	15.229	1323.498	1007.304
59.403	15.187	1323.411	1006.897
60.417	15.151	1322.647	1006.014
61.432	15.165	1321.651	1005.248
62.447	15.134	1320.806	1004.333
63.461	15.146	1319.363	1003.218
64.476	15.147	1318.496	1002.478
65.490	15.067	1317.668	1001.277
66.505	15.172	1315.784	1000.383
67.520	15.160	1314.354	999.139
68.534	15.241	1313.587	998.948
69.549	15.129	1312.868	997.646
70.563	15.141	1311.424	996.533
71.578	15.124	1310.387	995.556
72.593	15.030	1309.707	994.396
73.607	14.954	1309.007	993.324
74.622	15.013	1308.383	993.111
75.636	14.979	1307.319	992.016
76.651	15.043	1306.648	991.794
77.666	15.011	1306.388	991.323
78.680	15.012	1306.236	991.127
79.695	15.105	1304.987	990.639
80.709	15.064	1304.490	989.934
81.724	15.203	1303.284	989.752
82.739	15.232	1302.531	989.261
83.753	15.284	1301.758	988.897
84.768	15.492	1301.060	989.501
85.782	15.565	1299.563	988.706
86.797	15.434	1298.619	987.128
87.812	15.474	1297.146	986.156
88.826	15.395	1296.432	985.063
89.841	15.403	1295.457	984.286
90.855	15.424	1294.424	983.535
91.870	15.485	1293.738	983.282
92.884	15.602	1292.365	982.839
93.899	15.714	1291.358	982.637
94.914	15.743	1290.538	982.096
95.928	15.593	1290.130	980.824
96.943	15.427	1289.369	979.188
97.957	15.535	1288.410	979.003
98.972	15.509	1287.397	977.999
99.987	15.546	1286.347	977.331
101.001	15.518	1285.364	976.331
102.016	15.500	1284.172	975.236
103.030	15.580	1282.917	974.662
104.045	15.432	1282.468	973.377
105.060	15.416	1281.487	972.451
106.074	15.370	1279.710	970.751
107.089	15.250	1278.365	968.952
108.103	15.223	1277.298	967.901
109.118	15.153	1276.083	966.489
110.133	15.068	1274.911	965.025
111.147	15.213	1273.295	964.554
112.162	15.188	1272.091	963.415
113.176	15.236	1270.960	962.749
114.191	15.196	1270.412	962.014
115.206	15.271	1268.923	961.232
116.220	15.154	1267.758	959.599
117.235	15.216	1266.736	959.091
118.249	15.230	1265.589	958.218
119.264	15.197	1264.708	957.277
120.279	15.132	1263.499	955.908
121.293	15.125	1262.408	954.961
122.308	15.107	1261.534	954.111
123.322	15.169	1260.445	953.558
124.337	15.141	1259.095	952.290
125.352	15.023	1258.478	951.069
126.366	15.087	1257.126	950.328
127.381	15.085	1256.247	949.567
128.395	15.146	1255.487	949.255
129.410	15.260	1254.180	948.825
130.424	15.313	1253.224	948.317
131.439	15.255	1252.674	947.490
132.454	15.245	1251.554	946.506
133.468	15.205	1250.982	945.765
134.483	15.296	1249.936	945.400
135.497	15.297	1249.080	944.674
136.512	15.285	1248.024	943.724
137.527	15.335	1246.611	942.853
138.541	15.284	1245.568	941.698
139.556	15.372	1243.854	940.808
140.570	15.394	1243.288	940.422
141.585	15.472	1241.785	939.638
142.600	15.554	1241.087	939.487
143.614	15.610	1240.053	938.931
144.629	15.640	1238.936	938.170
145.643	15.606	1237.973	937.170
146.658	15.495	1236.907	935.663
147.673	15.418	1235.120	933.798
148.687	15.407	1234.309	933.041
149.702	15.359	1232.804	931.558
150.716	15.290	1231.823	930.350
151.731	15.177	1230.899	928.943
152.746	15.335	1229.127	928.396
153.760	15.528	1227.948	928.494
154.775	15.475	1226.905	927.330
155.789	15.494	1226.228	926.841
156.804	15.599	1224.918	926.343
157.819	15.584	1223.946	925.444
158.833	15.529	1223.115	924.433
159.848	15.695	1221.922	924.362
160.862	15.750	1221.357	924.157
161.877	15.516	1220.273	921.967
162.892	15.364	1219.575	920.527
163.906	15.465	1218.283	920.024
164.921	15.442	1217.490	919.219
165.935	15.550	1216.221	918.770
166.950	15.559	1215.900	918.492
167.964	15.504	1215.342	917.689
168.979	15.478	1214.695	916.978
169.994	15.545	1213.930	916.686
171.008	15.711	1212.714	916.590
172.023	15.604	1212.387	915.678
173.037	15.682	1211.511	915.360
174.052	15.621	1210.474	914.164
175.067	15.636	1209.450	913.392
176.081	15.559	1208.345	912.061
177.096	15.557	1207.622	911.421
178.110	15.587	1206.519	910.673
179.125	15.554	1205.280	909.478
180.140	15.672	1204.018	909.082
181.154	15.648	1202.777	907.936
182.169	15.714	1201.506	907.252
183.183	15.727	1200.974	906.840
184.198	15.820	1199.402	906.073
185.213	15.861	1197.934	905.106
186.227	15.782	1197.228	904.069
187.242	15.826	1196.364	903.570
188.256	16.014	1195.146	903.578
189.271	15.943	1194.510	902.637
190.286	15.816	1193.502	901.114
191.300	15.556	1192.314	898.750
192.315	15.491	1191.880	897.993
193.329	15.516	1191.036	897.412
194.344	15.594	1190.156	897.089
195.359	15.765	1189.592	897.495
196.373	15.791	1189.428	897.433
197.388	15.896	1188.832	897.459
198.402	15.977	1188.717	897.728
199.417	16.061	1188.007	897.557
200.432	16.115	1187.289	897.224
201.446	16.220	1186.195	896.876
202.461	16.155	1185.520	895.939
203.475	16.198	1184.559	895.363
204.490	16.126	1182.880	893.633
205.504	16.056	1181.735	892.316
206.519	16.014	1180.745	891.271
207.534	16.086	1179.397	890.552
208.548	15.929	1178.839	889.227
209.563	15.909	1178.474	888.764
210.577	15.910	1177.446	887.915
211.592	16.119	1176.421	888.167
212.607	16.216	1175.639	888.008
213.621	16.091	1174.610	886.495
214.636	16.181	1173.777	886.262
215.650	16.231	1172.716	885.642
216.665	16.325	1172.008	885.524
217.680	16.322	1171.353	884.933
218.694	16.352	1170.313	884.228
219.709	16.179	1170.159	883.126
220.723	16.375	1169.015	883.210
221.738	16.334	1168.169	882.281
222.753	16.236	1167.652	881.298
223.767	16.303	1166.495	880.696
224.782	16.479	1166.168	881.290
225.796	16.479	1165.860	880.979
226.811	16.454	1165.076	880.178
227.826	16.356	1164.215	878.940
228.840	16.242	1163.854	877.995
229.855	16.322	1162.609	877.397
230.869	16.488	1161.486	877.331
231.884	16.260	1161.141	875.810
232.899	16.238	1160.498	875.132
233.913	16.144	1159.599	873.892
234.928	16.376	1158.624	874.283
235.942	16.154	1158.165	872.708
236.957	16.201	1157.382	872.283
237.972	16.341	1156.333	872.137
238.986	16.234	1155.978	871.242
240.001	16.347	1155.322	871.254
241.015	16.265	1154.393	870.053
242.030	16.400	1153.685	870.138
243.045	16.461	1152.891	869.776
244.059	16.498	1151.815	869.079
245.074	16.482	1151.641	868.789
246.088	16.519	1150.464	868.011
247.103	16.592	1149.554	867.623
248.117	16.596	1149.312	867.386
249.132	16.727	1148.306	867.219
250.147	16.811	1147.632	867.062
251.161	16.880	1147.401	867.167
252.176	16.927	1146.431	866.596
253.190	16.904	1145.883	865.988
254.205	16.963	1145.602	866.002
255.220	17.029	1144.494	865.423
256.234	17.074	1143.850	865.090
257.249	17.055	1143.301	864.498
258.263	17.026	1142.764	863.870
259.278	17.040	1141.960	863.257
260.293	16.982	1141.408	862.465
261.307	17.113	1140.760	862.569
262.322	17.047	1140.305	861.811
263.336	17.219	1139.197	861.769
264.351	17.166	1139.217	861.441
265.366	17.199	1138.359	860.880
266.380	17.135	1137.731	860.007
267.395	17.254	1136.295	859.446
268.409	17.096	1136.253	858.541
269.424	17.114	1135.611	858.070
270.439	17.052	1135.156	857.336
271.453	16.983	1133.963	856.013
272.468	17.132	1133.154	856.076
273.482	16.943	1132.389	854.473
274.497	16.981	1132.187	854.436
275.512	17.067	1131.261	854.095
276.526	17.093	1130.123	853.288
277.541	17.179	1129.413	853.111
278.555	17.056	1129.088	852.172
279.570	17.202	1128.668	852.511
280.585	17.330	1127.534	852.219
281.599	17.259	1126.602	851.086
282.614	17.156	1125.448	849.624
283.628	17.296	1124.054	849.195
284.643	17.235	1123.367	848.298
285.657	17.281	1122.432	847.745
286.672	17.198	1122.044	846.965
287.687	17.233	1121.266	846.473
288.701	17.364	1120.089	846.165
289.716	17.266	1119.768	845.359
290.730	17.250	1118.997	844.623
291.745	17.313	1118.042	844.140
292.760	17.351	1117.341	843.722
293.774	17.343	1116.938	843.306
294.789	17.422	1116.523	843.310
295.803	17.523	1115.499	842.963
296.818	17.354	1114.681	841.432
297.833	17.480	1114.045	841.501
298.847	17.484	1113.079	840.714
299.862	17.450	1112.496	840.033
300.876	17.452	1112.166	839.719
301.891	17.500	1111.527	839.399
302.906	17.587	1110.752	839.170
303.920	17.655	1109.990	838.853
304.935	17.698	1109.731	838.796
305.949	17.783	1108.871	838.487
306.964	17.729	1108.010	837.499
307.979	17.713	1106.994	836.579
308.993	17.730	1106.098	835.909
310.008	17.766	1105.884	835.850
311.022	17.761	1105.363	835.360
312.037	17.722	1104.632	834.541
313.052	17.620	1103.616	833.201
314.066	17.630	1102.429	832.279
315.081	17.540	1101.290	830.910
316.095	17.632	1100.358	830.580
317.110	17.651	1099.766	830.153
318.125	17.650	1098.837	829.373
319.139	17.545	1098.538	828.562
320.154	17.579	1097.774	828.079
321.168	17.582	1097.253	827.624
322.183	17.492	1097.000	826.925
323.197	17.704	1096.016	827.140
324.212	17.581	1095.631	826.179
325.227	17.726	1094.841	826.213
326.241	17.656	1094.638	825.648
327.256	17.730	1093.227	824.869
328.270	17.653	1092.474	823.853
329.285	17.779	1091.373	823.559
330.300	17.662	1090.748	822.451
331.314	17.586	1089.979	821.432
332.329	17.802	1088.892	821.581
333.343	17.741	1087.855	820.433
334.358	17.780	1087.152	820.014
335.373	17.905	1086.788	820.270
336.387	17.924	1085.843	819.576
337.402	17.894	1085.540	819.132
338.416	17.899	1084.642	818.404
339.431	17.989	1083.900	818.201
340.446	18.031	1083.682	818.168
341.460	18.068	1082.917	817.691
342.475	18.154	1082.011	817.347
343.489	18.248	1081.001	816.962
344.504	18.241	1080.011	816.107
345.519	18.277	1079.193	815.588
346.533	18.325	1078.226	815.013
347.548	18.291	1077.947	814.571
348.562	18.195	1077.627	813.800
349.577	18.303	1076.214	813.174
350.592	18.030	1075.526	811.284
351.606	18.077	1074.727	810.836
352.621	18.083	1073.875	810.149
353.635	18.040	1073.650	809.704
354.650	18.174	1072.605	809.477
355.665	18.123	1072.197	808.858
356.679	18.121	1071.681	808.384
357.694	18.212	1071.187	808.372
358.708	18.330	1070.069	808.015
359.723	18.277	1070.048	807.675
360.738	18.380	1068.828	807.167
361.752	18.265	1068.651	806.424
362.767	18.235	1068.213	805.879
363.781	18.381	1067.108	805.661
364.796	18.478	1066.790	805.804
365.810	18.445	1066.406	805.288
366.825	18.582	1065.645	805.287
367.840	18.540	1064.936	804.483
368.854	18.667	1064.512	804.685
369.869	18.679	1064.053	804.325
370.883	18.548	1062.953	802.807
371.898	18.500	1062.094	801.865
372.913	18.519	1061.449	801.398
373.927	18.572	1061.268	801.437
374.942	18.669	1060.716	801.403
375.956	18.637	1060.169	800.769
376.971	18.655	1059.583	800.337
377.986	18.721	1058.565	799.806
379.000	18.779	1058.110	799.662
380.015	18.837	1057.809	799.635
381.029	18.852	1057.354	799.288
382.044	18.756	1056.619	798.215
383.059	18.856	1055.715	797.924
384.073	18.833	1054.865	797.105
385.088	18.889	1053.853	796.530
386.102	18.720	1053.482	795.394
387.117	18.739	1052.024	794.314
388.132	18.740	1051.134	793.574
389.146	18.669	1050.411	792.633
390.161	18.664	1050.076	792.287
391.175	18.828	1049.073	792.215
392.190	18.777	1048.558	791.520
393.205	18.716	1048.124	790.843
394.219	18.776	1047.225	790.369
395.234	18.915	1046.099	790.088
396.248	18.830	1044.841	788.679
397.263	18.842	1043.809	787.885
398.278	18.683	1043.616	786.941
399.292	18.726	1042.572	786.281
400.307	18.696	1041.907	785.571
401.321	18.815	1041.243	785.546
402.336	18.861	1040.321	784.994
403.350	18.785	1040.320	784.575
404.365	18.825	1039.654	784.184
405.380	18.879	1038.379	783.403
406.394	18.865	1037.987	782.970
407.409	18.960	1037.330	782.841
408.423	18.946	1036.910	782.388
409.438	19.101	1036.101	782.416
410.453	19.013	1035.834	781.745
411.467	19.184	1034.823	781.687
412.482	19.211	1033.953	781.086
413.496	19.263	1033.342	780.789
414.511	19.295	1032.553	780.266
415.526	19.345	1032.563	780.433
416.540	19.414	1031.819	780.115
417.555	19.451	1031.073	779.646
418.569	19.363	1030.921	779.068
419.584	19.380	1030.391	778.673
420.599	19.309	1029.747	777.798
421.613	152.039	1400.762	1796.757
422.628	138.729	1454.806	1796.857
