DTS Sentinel unit serial number:	SN413079Multiplexer serial number:	ORYXHardware model number:	OX4-SRSoftware version number:	ORYX F/W v4.00 Oryx Data Collector v3.7.2.0data status	okinstallation	princeton_trtdifferential loss correction	single-endedforward channel	channel 2reverse channel	N/Adate	2019/09/12time	00:49:10forward acquisition time	60.00reverse acquisition time	0.00gamma	496.2192k internal	0.2325k external	0.2325temperature offset calibration	1.0086default loss term (dB/km)	0.3790temperature slope calibration	1.0000multiplexer offset coefficient	1.0000multiplexer slope coefficient	1.0000fibre end	0.00T internal ref (°C)	33.27T ext. ref 1 (°C)	2.06T ext. ref 2 (°C)	28.01length (m)	temperature (°C)	Stokes	anti-Stokes-747.200	34.194	0.129	0.113
-746.185	-200.000	0.005	-0.026
-745.171	202.828	0.168	0.262
-744.156	-200.000	0.088	0.480
-743.142	-177.160	0.091	-0.002
-742.127	-200.000	0.053	0.300
-741.112	-200.000	0.022	0.130
-740.098	113.595	0.099	0.122
-739.083	139.067	0.246	0.326
-738.069	-200.000	0.013	0.490
-737.054	-95.181	-0.105	0.029
-736.039	-200.000	-0.020	-0.442
-735.025	-200.000	-0.016	0.191
-734.010	184.069	-0.019	-0.029
-732.996	-200.000	-0.005	-0.406
-731.981	800.000	0.008	-0.024
-730.966	-45.303	-0.568	-0.284
-729.952	-200.000	-0.026	-0.261
-728.937	481.079	-0.196	-0.449
-727.923	21.369	-0.158	0.129
-726.908	-200.000	0.064	-0.478
-725.894	-18.248	0.288	-0.181
-724.879	-53.103	-0.141	0.065
-723.864	125.676	0.216	0.275
-722.850	-22.003	-0.193	-0.118
-721.835	611.746	0.065	-0.164
-720.821	-200.000	0.001	-0.149
-719.806	800.000	0.079	-0.267
-718.791	11.598	-0.141	-0.109
-717.777	489.618	-0.133	0.307
-716.762	-156.116	-0.365	0.023
-715.748	-133.594	-0.220	0.028
-714.733	60.113	0.213	0.212
-713.718	132.772	0.083	-0.108
-712.704	-104.891	-0.083	0.019
-711.689	800.000	-0.016	0.048
-710.675	-27.862	0.375	0.219
-709.660	-150.979	0.217	0.017
-708.645	-200.000	0.042	-0.246
-707.631	124.056	-0.056	-0.071
-706.616	316.972	0.110	0.210
-705.602	74.911	-0.226	0.240
-704.587	44.029	0.305	0.281
-703.572	-30.337	0.111	0.063
-702.558	-200.000	0.031	-0.233
-701.543	79.980	-0.221	0.239
-700.529	-139.488	0.170	-0.018
-699.514	-65.612	-0.126	0.051
-698.499	800.000	0.038	-0.132
-697.485	354.680	0.172	0.345
-696.470	-86.818	-0.253	0.078
-695.456	456.649	-0.077	0.173
-694.441	241.447	-0.111	0.187
-693.426	-57.476	0.443	0.196
-692.412	-200.000	-0.271	0.001
-691.397	-76.682	-0.143	-0.050
-690.383	-69.634	-0.113	-0.044
-689.368	-200.000	0.001	0.063
-688.354	-88.583	0.299	0.090
-687.339	-200.000	-0.055	-0.312
-686.324	36.773	0.062	0.056
-685.310	95.873	-0.132	0.152
-684.295	-200.000	0.003	0.255
-683.281	-200.000	-0.033	0.172
-682.266	-137.108	-0.290	0.033
-681.251	-200.000	-0.046	-0.429
-680.237	-200.000	0.018	0.083
-679.222	-107.452	0.196	-0.043
-678.208	-85.490	-0.216	-0.068
-677.193	-39.561	0.197	-0.104
-676.178	-90.687	0.036	-0.011
-675.164	-130.887	-0.503	0.068
-674.149	-200.000	-0.041	-0.224
-673.135	-41.290	0.188	0.097
-672.120	-121.653	0.073	-0.012
-671.105	-200.000	-0.041	0.380
-670.091	537.845	-0.059	0.142
-669.076	-14.250	0.300	-0.195
-668.062	526.266	-0.066	-0.156
-667.047	-200.000	-0.020	-0.295
-666.032	150.200	0.170	0.232
-665.018	-171.628	-0.100	0.003
-664.003	800.000	-0.077	-0.215
-662.989	-133.463	-0.294	0.037
-661.974	-200.000	0.008	0.106
-660.959	-59.486	0.224	-0.097
-659.945	-200.000	-0.013	0.149
-658.930	-58.881	0.081	0.035
-657.916	-200.000	-0.002	0.104
-656.901	-69.893	0.135	0.052
-655.886	127.159	0.190	0.242
-654.872	22.939	0.118	0.098
-653.857	77.379	0.193	-0.207
-652.843	6.988	-0.253	0.189
-651.828	-200.000	-0.007	-0.048
-650.814	265.971	-0.078	0.136
-649.799	800.000	0.013	-0.056
-648.784	247.519	0.096	-0.163
-647.770	-129.662	0.189	0.026
-646.755	-75.326	0.219	-0.079
-645.741	229.963	-0.041	0.068
-644.726	-200.000	0.026	-0.192
-643.711	-1.156	0.106	-0.075
-642.697	37.146	-0.157	-0.140
-641.682	3.651	0.301	-0.221
-640.668	91.121	-0.205	-0.231
-639.653	123.332	-0.222	-0.279
-638.638	-0.675	-0.098	-0.070
-637.624	-200.000	-0.014	0.119
-636.609	-200.000	-0.017	-0.122
-635.595	-153.308	0.221	0.015
-634.580	51.662	0.107	0.102
-633.565	-141.970	-0.242	-0.024
-632.551	0.817	-0.218	-0.157
-631.536	800.000	-0.081	-0.277
-630.522	183.228	0.066	-0.097
-629.507	-122.933	-0.162	-0.026
-628.492	24.902	0.258	-0.215
-627.478	-33.278	-0.094	-0.052
-626.463	-26.308	0.101	0.060
-625.449	74.798	0.194	0.205
-624.434	91.384	-0.171	-0.193
-623.419	800.000	0.153	0.485
-622.405	111.979	-0.273	0.331
-621.390	-200.000	-0.014	-0.305
-620.376	151.613	0.060	-0.082
-619.361	111.300	0.101	0.123
-618.346	157.481	-0.150	-0.209
-617.332	-23.363	-0.456	-0.275
-616.317	-5.616	0.207	-0.143
-615.303	-62.528	-0.083	-0.035
-614.288	-75.594	0.159	0.057
-613.273	549.568	-0.048	-0.116
-612.259	800.000	-0.112	-0.386
-611.244	-200.000	0.017	-0.434
-610.230	82.620	-0.191	-0.209
-609.215	-108.034	0.117	-0.026
-608.201	800.000	0.033	0.091
-607.186	71.349	-0.052	0.054
-606.171	-60.649	0.065	-0.028
-605.157	-105.423	0.226	0.052
-604.142	4.463	0.098	0.072
-603.128	-90.892	0.247	0.071
-602.113	800.000	-0.053	0.210
-601.098	-92.486	-0.026	-0.007
-600.084	283.602	0.171	0.309
-599.069	344.993	0.125	-0.246
-598.055	-59.341	-0.123	-0.053
-597.040	468.350	-0.100	-0.224
-596.025	-127.000	0.258	-0.038
-595.011	-67.962	-0.265	-0.104
-593.996	66.479	0.188	0.192
-592.982	-57.888	-0.230	-0.101
-591.967	-200.000	-0.002	-0.146
-590.952	-141.599	-0.180	0.018
-589.938	176.023	0.245	0.356
-588.923	800.000	0.043	0.176
-587.909	181.304	0.108	-0.160
-586.894	572.919	-0.198	-0.485
-585.879	-47.262	0.082	0.040
-584.865	-119.008	0.450	-0.079
-583.850	183.977	-0.063	-0.093
-582.836	-200.000	-0.018	0.164
-581.821	-65.856	0.199	0.080
-580.806	71.257	-0.054	0.056
-579.792	-140.025	-0.052	0.006
-578.777	-200.000	-0.024	-0.189
-577.763	655.835	-0.107	0.276
-576.748	-121.288	0.341	0.057
-575.733	36.581	0.320	0.283
-574.719	250.281	0.089	-0.152
-573.704	-180.512	-0.317	0.007
-572.690	482.220	-0.076	-0.173
-571.675	403.027	0.142	0.299
-570.661	244.105	0.020	-0.033
-569.646	31.207	-0.224	-0.193
-568.631	413.811	-0.031	0.066
-567.617	7.484	0.018	0.013
-566.602	-200.000	0.085	0.395
-565.588	-200.000	-0.042	-0.411
-564.573	-31.731	-0.278	-0.157
-563.558	-20.308	0.255	0.158
-562.544	12.578	0.116	-0.090
-561.529	-166.494	0.265	-0.011
-560.515	-134.841	0.211	0.026
-559.500	6.200	0.230	0.171
-558.485	-87.522	-0.141	-0.043
-557.471	800.000	0.075	0.264
-556.456	-97.609	0.500	0.130
-555.442	373.856	-0.276	0.562
-554.427	-106.894	-0.450	-0.100
-553.412	453.744	0.078	-0.173
-552.398	17.991	-0.064	0.051
-551.383	427.696	-0.024	0.053
-550.369	-17.687	-0.118	-0.075
-549.354	67.468	-0.080	0.082
-548.339	800.000	-0.029	0.106
-547.325	-200.000	0.014	-0.102
-546.310	61.291	0.273	0.271
-545.296	-39.093	0.196	0.103
-544.281	-91.237	-0.252	0.072
-543.266	58.013	0.197	0.193
-542.252	-200.000	0.007	0.043
-541.237	-200.000	0.028	-0.359
-540.223	191.245	0.102	-0.153
-539.208	269.114	-0.046	-0.081
-538.193	-200.000	-0.009	0.183
-537.179	29.936	-0.198	0.169
-536.164	4.803	-0.226	-0.166
-535.150	3.664	0.454	-0.331
-534.135	-152.836	-0.085	-0.006
-533.121	800.000	-0.058	-0.216
-532.106	41.207	0.176	-0.159
-531.091	310.933	-0.116	-0.218
-530.077	118.484	-0.060	-0.075
-529.062	-74.071	0.282	0.102
-528.048	16.933	0.338	0.268
-527.033	94.011	-0.079	0.090
-526.018	103.720	0.207	0.244
-525.004	-200.000	-0.021	0.204
-523.989	75.274	0.131	-0.138
-522.975	-9.411	-0.147	0.098
-521.960	-158.156	0.399	-0.023
-520.945	2.778	0.402	-0.292
-519.931	70.916	-0.048	-0.049
-518.916	-10.057	0.122	-0.081
-517.902	800.000	-0.121	0.456
-516.887	800.000	0.037	-0.141
-515.872	-200.000	0.016	0.122
-514.858	800.000	-0.069	-0.272
-513.843	210.291	0.219	0.344
-512.829	12.168	-0.158	0.121
-511.814	-200.000	-0.013	-0.135
-510.799	-194.931	-0.148	-0.001
-509.785	-50.614	0.108	-0.051
-508.770	35.910	-0.105	0.092
-507.756	-52.072	-0.347	0.161
-506.741	3.100	0.143	-0.104
-505.726	-200.000	-0.001	-0.011
-504.712	44.131	0.100	0.092
-503.697	-161.675	-0.306	0.016
-502.683	-22.756	-0.188	0.113
-501.668	-145.016	-0.268	0.024
-500.653	-200.000	0.012	0.113
-499.639	38.135	0.255	0.227
-498.624	800.000	0.034	0.124
-497.610	-200.000	-0.019	-0.148
-496.595	-124.648	0.251	-0.039
-495.581	-200.000	-0.002	-0.029
-494.566	-200.000	0.008	-0.080
-493.551	-15.008	-0.085	0.055
-492.537	-167.418	-0.282	0.011
-491.522	473.994	0.096	-0.217
-490.508	153.431	0.283	-0.387
-489.493	-26.083	0.095	0.056
-488.478	-200.000	0.006	-0.068
-487.464	343.378	0.126	-0.246
-486.449	-200.000	0.047	-0.238
-485.435	800.000	-0.067	0.186
-484.420	102.498	0.147	-0.171
-483.405	74.190	0.252	-0.264
-482.391	15.193	-0.129	0.101
-481.376	56.439	-0.175	0.170
-480.362	-200.000	-0.011	0.155
-479.347	-24.918	-0.111	-0.066
-478.332	54.636	0.175	-0.168
-477.318	7.196	0.061	0.046
-476.303	-200.000	0.010	-0.073
-475.289	-114.898	0.156	-0.030
-474.274	-200.000	-0.040	0.248
-473.259	-176.578	-0.176	-0.005
-472.245	-16.465	-0.340	0.215
-471.230	-118.769	0.261	0.046
-470.216	-15.167	0.172	-0.110
-469.201	187.811	0.155	0.231
-468.186	-87.235	-0.390	-0.118
-467.172	50.527	0.234	-0.221
-466.157	-134.566	-0.263	-0.032
-465.143	-49.310	-0.119	-0.057
-464.128	2.719	-0.148	0.107
-463.113	212.734	-0.387	0.609
-462.099	-200.000	0.028	0.129
-461.084	-88.871	-0.523	0.155
-460.070	-121.384	-0.294	0.049
-459.055	530.876	-0.085	0.200
-458.040	-65.752	-0.151	-0.060
-457.026	-200.000	0.051	-0.337
-456.011	-200.000	0.010	0.126
-454.997	-105.986	0.079	-0.018
-453.982	176.650	0.072	-0.105
-452.968	45.852	0.076	0.070
-451.953	-74.027	-0.106	0.038
-450.938	81.268	-0.211	-0.228
-449.924	-108.777	-0.094	-0.020
-448.909	-200.000	-0.060	0.265
-447.895	-200.000	-0.014	0.158
-446.880	627.012	0.078	-0.197
-445.865	-200.000	-0.053	0.000
-444.851	24.268	-0.224	0.185
-443.836	-32.908	-0.149	0.083
-442.822	800.000	-0.068	-0.235
-441.807	800.000	-0.017	0.049
-440.792	2.967	0.202	0.147
-439.778	-200.000	0.010	-0.050
-438.763	-155.871	-0.263	0.017
-437.749	315.219	-0.100	-0.187
-436.734	751.874	-0.168	-0.452
-435.719	349.114	0.066	-0.130
-434.705	800.000	0.078	0.319
-433.690	-57.534	0.165	0.072
-432.676	96.118	0.137	-0.156
-431.661	800.000	-0.023	-0.069
-430.646	-200.000	0.056	0.257
-429.632	-193.291	-0.209	0.002
-428.617	800.000	0.081	-0.265
-427.603	28.510	-0.142	0.119
-426.588	44.837	0.180	0.165
-425.573	709.053	0.123	0.324
-424.559	164.272	0.061	0.086
-423.544	103.845	-0.058	0.068
-422.530	-86.888	0.415	-0.126
-421.515	-200.000	-0.033	-0.335
-420.500	-200.000	0.008	0.126
-419.486	-125.444	0.130	-0.020
-418.471	339.540	-0.157	-0.304
-417.457	-200.000	-0.067	-0.301
-416.442	685.628	-0.027	-0.071
-415.428	-200.000	0.001	0.047
-414.413	21.641	-0.094	-0.076
-413.398	-87.660	0.043	-0.013
-412.384	800.000	0.087	0.256
-411.369	0.005	-0.072	0.051
-410.355	222.609	0.205	-0.328
-409.340	150.006	0.059	-0.080
-408.325	-163.081	-0.335	-0.016
-407.311	-75.485	0.219	-0.078
-406.296	800.000	-0.027	0.092
-405.282	-179.543	-0.030	0.001
-404.267	-200.000	-0.011	0.087
-403.252	-200.000	-0.002	-0.391
-402.238	800.000	-0.087	-0.379
-401.223	-200.000	0.041	-0.324
-400.209	-75.935	-0.226	0.080
-399.194	800.000	-0.090	-0.282
-398.179	628.470	0.043	0.108
-397.165	-40.477	0.119	0.062
-396.150	169.208	0.035	0.050
-395.136	-200.000	0.016	-0.229
-394.121	800.000	0.047	-0.178
-393.106	-159.626	-0.228	-0.013
-392.092	61.167	0.083	-0.082
-391.077	-106.634	0.046	0.010
-390.063	334.160	0.195	-0.376
-389.048	-200.000	0.013	0.162
-388.033	-65.730	0.311	0.124
-387.019	86.427	0.129	-0.141
-386.004	-136.060	-0.422	-0.049
-384.990	-88.436	0.137	-0.041
-383.975	-200.000	-0.015	-0.192
-382.960	-200.000	-0.004	0.222
-381.946	-200.000	0.031	0.256
-380.931	-49.269	-0.098	-0.047
-379.917	114.032	0.065	-0.078
-378.902	224.652	-0.127	0.204
-377.888	453.950	-0.066	0.145
-376.873	588.469	-0.127	0.312
-375.858	247.289	0.157	0.264
-374.844	76.262	0.173	0.182
-373.829	159.932	-0.135	0.186
-372.815	-200.000	-0.077	0.445
-371.800	800.000	-0.018	0.051
-370.785	276.104	-0.041	-0.073
-369.771	394.655	-0.030	-0.062
-368.756	405.317	-0.126	-0.264
-367.742	-200.000	-0.053	-0.336
-366.727	-19.574	-0.194	-0.119
-365.712	800.000	0.015	-0.060
-364.698	-130.176	0.061	0.008
-363.683	39.857	-0.158	-0.141
-362.669	507.278	0.123	0.284
-361.654	800.000	0.115	0.338
-360.639	554.387	-0.088	0.210
-359.625	800.000	-0.063	-0.272
-358.610	145.703	0.011	0.014
-357.596	285.908	0.093	0.166
-356.581	-30.394	-0.305	0.172
-355.566	800.000	0.010	0.033
-354.552	-87.779	0.271	0.081
-353.537	-99.433	-0.183	-0.046
-352.523	-102.912	0.091	0.021
-351.508	-37.720	-0.302	0.160
-350.493	-153.886	0.221	0.015
-349.479	-7.160	-0.217	0.146
-348.464	-38.353	-0.092	0.049
-347.450	-48.251	-0.057	0.027
-346.435	138.174	0.156	0.204
-345.420	199.684	-0.097	0.148
-344.406	102.717	-0.325	-0.377
-343.391	-145.933	-0.073	-0.006
-342.377	-59.150	0.323	-0.138
-341.362	-200.000	-0.032	0.308
-340.348	322.137	0.049	0.092
-339.333	-66.669	0.207	-0.081
-338.318	-200.000	0.008	0.138
-337.304	3.416	-0.203	0.147
-336.289	646.153	0.132	0.334
-335.275	268.404	-0.014	0.024
-334.260	309.316	-0.216	0.402
-333.245	-155.717	-0.246	-0.016
-332.231	106.930	-0.109	0.129
-331.216	-200.000	-0.009	0.040
-330.202	149.125	0.029	-0.038
-329.187	-40.751	0.366	0.188
-328.172	-62.695	-0.181	-0.075
-327.158	-98.158	0.221	-0.056
-326.143	30.422	-0.278	0.236
-325.129	43.788	0.215	-0.196
-324.114	-52.409	0.251	0.115
-323.099	-200.000	-0.035	-0.358
-322.085	-102.325	0.305	-0.073
-321.070	-200.000	0.031	0.295
-320.056	27.179	-0.118	0.099
-319.041	-19.300	-0.335	-0.207
-318.026	-9.602	-0.142	-0.094
-317.012	459.826	0.075	-0.167
-315.997	-73.004	-0.114	-0.042
-314.983	-116.246	0.250	0.046
-313.968	-28.023	0.376	0.216
-312.953	161.266	0.111	0.154
-311.939	-3.753	-0.238	0.164
-310.924	115.795	-0.151	0.183
-309.910	-169.821	-0.168	0.006
-308.895	21.753	-0.048	0.039
-307.880	800.000	-0.086	-0.292
-306.866	32.157	-0.385	0.329
-305.851	341.915	-0.155	0.301
-304.837	-11.726	0.243	0.158
-303.822	486.943	0.226	-0.510
-302.807	800.000	0.104	-0.305
-301.793	-151.636	0.373	0.027
-300.778	140.591	0.105	-0.137
-299.764	800.000	-0.111	-0.341
-298.749	-34.011	-0.077	0.042
-297.735	694.976	0.072	-0.188
-296.720	800.000	-0.065	0.280
-295.705	800.000	0.084	0.337
-294.691	15.116	0.165	-0.128
-293.676	55.884	0.180	-0.173
-292.662	-92.705	-0.311	0.086
-291.647	800.000	0.074	-0.320
-290.632	-200.000	0.040	0.330
-289.618	800.000	-0.075	0.205
-288.603	124.223	-0.058	0.073
-287.589	-62.753	-0.096	-0.040
-286.574	-48.319	-0.150	-0.072
-285.559	-40.319	0.141	0.072
-284.545	63.806	-0.220	-0.219
-283.530	796.692	0.034	-0.092
-282.516	-180.137	0.145	-0.003
-281.501	312.891	0.147	-0.274
-280.486	-113.727	-0.416	-0.080
-279.472	23.806	-0.044	0.036
-278.457	8.612	0.083	0.062
-277.443	-140.258	-0.434	0.045
-276.428	334.108	-0.083	0.159
-275.413	338.437	0.067	-0.129
-274.399	-91.924	-0.135	-0.038
-273.384	92.126	0.214	-0.239
-272.370	95.552	-0.152	0.171
-271.355	339.171	-0.024	0.047
-270.340	-200.000	-0.037	-0.391
-269.326	609.986	-0.042	-0.104
-268.311	485.681	-0.155	-0.349
-267.297	800.000	-0.014	0.059
-266.282	-97.518	-0.159	-0.041
-265.267	185.030	0.115	-0.170
-264.253	-200.000	-0.016	-0.111
-263.238	800.000	0.097	0.369
-262.224	372.534	0.108	-0.218
-261.209	164.296	-0.139	-0.193
-260.195	-170.149	0.260	-0.009
-259.180	311.968	0.060	-0.111
-258.165	60.270	0.154	-0.150
-257.151	-164.659	-0.422	0.019
-256.136	123.098	-0.136	-0.169
-255.122	-45.935	-0.208	0.101
-254.107	-142.499	0.143	0.014
-253.092	-200.000	0.061	0.472
-252.078	-18.629	0.187	0.116
-251.063	45.075	0.097	-0.089
-250.049	-70.467	-0.179	0.067
-249.034	1.462	-0.209	-0.149
-248.019	-200.000	-0.108	-0.509
-247.005	-11.273	0.117	0.076
-245.990	-21.510	0.318	0.192
-244.976	800.000	-0.044	-0.122
-243.961	39.807	-0.170	0.151
-242.946	321.684	0.091	-0.172
-241.932	800.000	-0.040	0.139
-240.917	-101.043	-0.417	0.101
-239.903	-163.952	0.140	-0.006
-238.888	-200.000	-0.029	0.354
-237.873	-196.138	0.183	-0.001
-236.859	121.865	-0.154	0.190
-235.844	18.419	-0.173	0.137
-234.830	-21.619	-0.215	-0.130
-233.815	800.000	0.082	-0.293
-232.800	155.295	0.129	0.175
-231.786	97.902	0.103	0.117
-230.771	-57.008	-0.169	0.074
-229.757	185.449	0.063	-0.093
-228.742	-30.078	0.351	-0.197
-227.727	-200.000	-0.039	0.311
-226.713	-22.331	-0.145	0.087
-225.698	-200.000	-0.008	-0.111
-224.684	-42.620	-0.141	0.071
-223.669	88.859	0.026	0.029
-222.655	60.797	0.084	0.082
-221.640	29.510	-0.076	-0.064
-220.625	-100.339	-0.186	0.046
-219.611	5.592	0.196	0.143
-218.596	536.056	-0.082	-0.192
-217.582	-107.428	0.283	0.061
-216.567	9.131	-0.212	-0.158
-215.552	-151.417	-0.211	-0.015
-214.538	-200.000	-0.022	-0.213
-213.523	-200.000	0.050	-0.400
-212.509	-76.078	-0.140	-0.049
-211.494	-85.727	-0.058	-0.018
-210.479	55.989	0.316	0.303
-209.465	180.528	0.074	0.108
-208.450	-121.127	0.161	-0.027
-207.436	800.000	0.032	-0.128
-206.421	-72.661	-0.439	0.160
-205.406	-72.223	0.339	0.124
-204.392	-200.000	0.028	-0.382
-203.377	800.000	-0.051	-0.155
-202.363	-200.000	0.067	-0.301
-201.348	3.727	-0.351	-0.253
-200.333	288.649	0.143	0.256
-199.319	-155.089	0.267	0.017
-198.304	70.730	-0.095	-0.098
-197.290	309.580	0.068	-0.126
-196.275	-15.955	0.277	-0.174
-195.260	-200.000	0.002	0.192
-194.246	-200.000	-0.017	0.119
-193.231	416.674	-0.105	0.220
-192.217	-200.000	-0.002	0.060
-191.202	123.017	0.197	-0.244
-190.187	-94.066	-0.241	-0.065
-189.173	376.907	0.031	-0.063
-188.158	-189.493	0.159	0.002
-187.144	609.979	0.057	-0.141
-186.129	-200.000	-0.051	-0.382
-185.114	800.000	0.135	-0.430
-184.100	210.087	0.103	0.160
-183.085	-192.462	-0.361	-0.003
-182.071	-200.000	-0.029	0.181
-181.056	-200.000	-0.043	0.231
-180.042	9.882	0.345	0.259
-179.027	187.381	-0.016	0.023
-178.012	149.226	0.177	0.236
-176.998	-175.965	-0.331	0.009
-175.983	-200.000	0.051	0.367
-174.969	-130.719	0.213	0.028
-173.954	800.000	-0.109	-0.310
-172.939	800.000	-0.056	-0.214
-171.925	210.365	0.169	-0.262
-170.910	442.509	0.169	0.366
-169.896	-187.540	-0.151	0.002
-168.881	103.715	-0.128	0.148
-167.866	54.492	-0.237	0.225
-166.852	152.220	-0.096	-0.130
-165.837	-200.000	0.002	0.157
-164.823	101.076	0.224	0.257
-163.808	11.477	0.393	0.297
-162.793	54.606	0.318	0.302
-161.779	27.856	-0.141	0.118
-160.764	32.993	0.186	0.159
-159.750	524.349	-0.041	-0.096
-158.735	140.035	0.215	0.279
-157.720	115.694	-0.035	-0.042
-156.706	-6.265	0.160	0.108
-155.691	-102.971	-0.191	-0.045
-154.677	68.664	-0.161	0.163
-153.662	56.166	0.274	-0.262
-152.647	60.792	-0.358	0.350
-151.633	-200.000	0.052	0.299
-150.618	-57.185	0.164	-0.071
-149.604	-40.709	-0.112	0.057
-148.589	79.796	0.059	0.063
-147.574	-173.230	0.171	-0.005
-146.560	191.291	-0.207	0.307
-145.545	-200.000	-0.040	-0.264
-144.531	-38.615	-0.231	-0.120
-143.516	472.393	0.195	-0.433
-142.502	-63.316	0.298	0.121
-141.487	-37.720	0.030	0.016
-140.472	41.183	-0.235	-0.209
-139.458	-61.896	0.228	0.094
-138.443	73.621	0.159	0.164
-137.429	-109.652	0.208	-0.043
-136.414	-200.000	0.043	-0.219
-135.399	800.000	-0.033	0.095
-134.385	-200.000	-0.016	0.231
-133.370	-44.226	-0.248	-0.122
-132.356	-200.000	-0.021	0.359
-131.341	-53.733	-0.121	-0.054
-130.326	420.487	-0.280	0.591
-129.312	157.415	-0.250	-0.341
-128.297	-192.251	-0.103	0.001
-127.283	-200.000	-0.028	0.120
-126.268	260.297	-0.115	-0.196
-125.253	-92.812	0.342	-0.094
-124.239	-42.912	0.098	-0.049
-123.224	-139.018	0.055	0.006
-122.210	800.000	0.026	0.095
-121.195	-200.000	-0.011	0.330
-120.180	53.648	0.047	-0.045
-119.166	718.797	0.096	0.251
-118.151	-70.281	-0.247	-0.092
-117.137	387.872	0.050	0.102
-116.122	-200.000	0.348	0.000
-115.107	-48.103	-0.294	-0.140
-114.093	-200.000	-0.010	0.168
-113.078	239.224	0.120	0.196
-112.064	-48.276	0.105	0.050
-111.049	-63.551	0.240	0.097
-110.034	52.873	0.266	0.251
-109.020	-120.505	-0.347	-0.058
-108.005	-200.000	0.037	0.510
-106.991	800.000	-0.022	-0.072
-105.976	-62.472	0.183	-0.075
-104.962	-200.000	0.037	-0.175
-103.947	-123.359	-0.179	-0.028
-102.932	13.191	-0.149	-0.114
-101.918	-200.000	-0.005	0.254
-100.903	-29.819	0.175	0.098
-99.889	53.136	0.193	0.182
-98.874	-20.612	0.310	-0.187
-97.859	-200.000	0.054	-0.292
-96.845	189.232	0.065	0.096
-95.830	-55.368	-0.397	0.175
-94.816	755.410	-0.141	-0.375
-93.801	-200.000	-0.010	0.121
-92.786	459.399	0.134	-0.293
-91.772	800.000	-0.071	0.282
-90.757	800.000	0.084	0.252
-89.743	-61.463	0.239	0.099
-88.728	-101.733	0.365	0.087
-87.713	100.684	-0.063	0.072
-86.699	252.054	-0.078	0.131
-85.684	-200.000	-0.035	0.159
-84.670	-179.777	-0.208	-0.004
-83.655	800.000	-0.073	-0.231
-82.640	-24.606	-0.295	-0.172
-81.626	800.000	-0.152	0.478
-80.611	-200.000	0.029	-0.195
-79.597	257.253	0.071	-0.119
-78.582	-200.000	0.019	0.325
-77.567	-28.123	-0.412	-0.234
-76.553	800.000	0.029	0.085
-75.538	39.511	0.137	-0.121
-74.524	236.430	0.207	0.336
-73.509	-200.000	-0.028	0.513
-72.494	536.013	-0.032	0.076
-71.480	-200.000	-0.043	0.213
-70.465	-137.924	-0.041	-0.005
-69.451	750.121	-0.054	0.143
-68.436	800.000	0.119	0.333
-67.422	4.750	0.078	-0.056
-66.407	-78.537	-0.079	0.027
-65.392	-131.973	-0.223	-0.029
-64.378	-135.652	0.421	-0.049
-63.363	-24.812	0.041	0.024
-62.349	0.187	-0.236	0.166
-61.334	100.388	-0.710	-0.809
-60.319	220.509	0.259	0.407
-59.305	561.854	-0.416	-0.988
-58.290	800.000	0.285	1.064
-57.276	223.416	1.046	1.657
-56.261	-200.000	96.049	578.665
-55.246	553.659	1385.997	3272.542
-54.232	157.558	2575.786	3501.957
-53.217	106.943	2272.858	2650.493
-52.203	42.561	1895.830	1694.008
-51.188	36.696	1685.757	1462.086
-50.173	33.853	1641.768	1402.914
-49.159	51.084	1687.738	1571.487
-48.144	53.159	1704.575	1602.624
-47.130	36.076	1664.392	1438.699
-46.115	33.359	1649.918	1405.989
-45.100	33.196	1645.114	1400.629
-44.086	33.207	1642.342	1398.296
-43.071	33.191	1639.554	1395.747
-42.057	33.190	1637.148	1393.639
-41.042	33.170	1634.938	1391.551
-40.027	33.123	1633.161	1389.642
-39.013	33.105	1631.452	1387.995
-37.998	33.072	1629.968	1386.440
-36.984	33.068	1629.319	1385.799
-35.969	33.248	1627.171	1385.239
-34.954	33.349	1625.230	1384.269
-33.940	33.304	1623.567	1382.471
-32.925	33.197	1622.243	1380.508
-31.911	33.197	1620.090	1378.623
-30.896	33.287	1618.164	1377.580
-29.881	33.286	1616.990	1376.518
-28.867	33.249	1615.286	1374.749
-27.852	33.273	1613.918	1373.702
-26.838	33.191	1612.015	1371.432
-25.823	33.280	1610.507	1370.737
-24.809	33.180	1609.676	1369.252
-23.794	33.342	1608.062	1368.996
-22.779	33.333	1606.129	1367.231
-21.765	33.255	1604.579	1365.301
-20.750	33.297	1602.813	1364.043
-19.736	33.342	1601.738	1363.401
-18.721	33.269	1600.830	1362.042
-17.706	33.346	1598.901	1360.904
-16.692	33.311	1597.388	1359.311
-15.677	33.312	1595.893	1357.989
-14.663	33.371	1593.919	1356.682
-13.648	33.283	1592.892	1355.119
-12.633	33.292	1591.338	1353.813
-11.619	33.315	1589.581	1352.428
-10.604	33.301	1588.370	1351.246
-9.590	33.350	1587.281	1350.613
-8.575	33.323	1585.932	1349.222
-7.560	33.323	1584.949	1348.328
-6.546	33.287	1583.739	1346.993
-5.531	33.348	1582.273	1346.125
-4.517	33.373	1581.599	1345.676
-3.502	33.313	1579.888	1343.742
-2.487	33.315	1578.755	1342.734
-1.473	33.094	1566.631	1330.816
-0.458	30.529	1547.116	1296.324
0.556	27.449	1548.640	1267.041
1.571	25.258	1572.351	1270.833
2.586	24.802	1585.570	1278.148
3.600	22.143	1532.713	1217.040
4.615	12.514	1422.226	1067.022
5.629	3.751	1355.386	962.398
6.644	2.193	1346.677	946.485
7.659	2.078	1345.128	944.601
8.673	2.033	1344.112	943.524
9.688	1.947	1342.130	941.517
10.702	1.646	1339.400	937.664
11.717	5.302	1346.302	965.025
12.731	15.593	1365.789	1043.098
13.746	24.051	1379.500	1106.285
14.761	26.028	1382.495	1120.882
15.775	26.392	1382.096	1122.723
16.790	26.474	1381.688	1122.802
17.804	26.562	1381.280	1122.913
18.819	26.850	1380.790	1124.204
19.834	26.787	1380.707	1123.649
20.848	26.844	1379.865	1123.215
21.863	26.870	1378.939	1122.523
22.877	26.823	1378.229	1121.551
23.892	26.841	1377.131	1120.674
24.907	26.864	1376.427	1120.143
25.921	26.948	1375.098	1119.480
26.936	26.889	1374.759	1118.744
27.950	26.956	1372.875	1117.523
28.965	26.824	1372.421	1116.241
29.980	26.943	1370.821	1115.571
30.994	26.969	1369.415	1114.489
32.009	26.833	1368.943	1113.172
33.023	26.955	1367.081	1112.307
34.038	26.872	1366.012	1110.833
35.053	26.748	1365.850	1109.840
36.067	26.859	1364.377	1109.223
37.082	26.857	1363.497	1108.396
38.096	26.848	1362.251	1107.235
39.111	26.913	1361.527	1106.940
40.126	26.851	1361.730	1106.632
41.140	26.763	1360.909	1105.332
42.155	26.872	1360.454	1105.530
43.169	26.898	1360.013	1105.230
44.184	26.848	1360.197	1104.978
45.199	26.867	1359.698	1104.591
46.213	26.936	1358.955	1104.306
47.228	26.818	1358.171	1102.855
48.242	26.847	1356.932	1101.929
49.257	26.975	1355.045	1101.077
50.271	26.777	1354.211	1099.099
51.286	26.859	1352.788	1098.344
52.301	26.927	1351.447	1097.566
53.315	26.798	1351.037	1096.356
54.330	26.898	1349.847	1095.903
55.344	26.827	1348.557	1094.325
56.359	26.847	1347.717	1093.666
57.374	26.962	1346.549	1093.317
58.388	26.858	1346.549	1092.596
59.403	26.836	1346.205	1092.086
60.417	26.801	1345.072	1090.859
61.432	26.765	1344.970	1090.465
62.447	26.911	1343.921	1090.396
63.461	26.895	1342.361	1088.933
64.476	26.952	1341.525	1088.502
65.490	26.893	1340.599	1087.302
66.505	26.853	1339.015	1085.683
67.520	26.913	1337.561	1084.764
68.534	26.828	1336.792	1083.540
69.549	26.976	1335.998	1083.681
70.563	26.933	1334.502	1082.118
71.578	26.929	1334.030	1081.614
72.593	26.958	1333.609	1081.350
73.607	26.951	1332.580	1080.380
74.622	26.888	1331.912	1079.368
75.636	26.837	1331.141	1078.346
76.651	26.861	1330.610	1077.961
77.666	26.886	1330.156	1077.642
78.680	26.841	1329.421	1076.684
79.695	26.940	1328.594	1076.511
80.709	26.859	1328.159	1075.579
81.724	26.888	1326.694	1074.470
82.739	26.911	1325.758	1073.753
83.753	26.820	1325.213	1072.680
84.768	26.798	1324.049	1071.510
85.782	26.894	1322.976	1071.119
86.797	26.931	1321.595	1070.124
87.812	26.908	1320.972	1069.388
88.826	26.897	1319.399	1067.952
89.841	26.907	1318.756	1067.401
90.855	26.968	1317.900	1066.969
91.870	26.887	1317.214	1065.847
92.884	26.820	1316.446	1064.733
93.899	26.893	1315.395	1064.218
94.914	26.960	1314.576	1063.852
95.928	26.969	1313.673	1063.083
96.943	26.987	1313.128	1062.653
97.957	26.962	1312.666	1062.037
98.972	26.986	1311.594	1061.219
99.987	26.932	1310.653	1060.044
101.001	26.877	1309.785	1058.933
102.016	26.990	1308.643	1058.574
103.030	26.950	1308.027	1057.748
104.045	26.993	1307.091	1057.149
105.060	26.925	1306.253	1055.980
106.074	26.988	1305.179	1055.383
107.089	26.943	1304.203	1054.240
108.103	26.976	1303.111	1053.454
109.118	27.041	1302.373	1053.144
110.133	26.977	1301.061	1051.616
111.147	27.001	1299.606	1050.487
112.162	27.018	1298.891	1049.914
113.176	27.002	1297.521	1048.624
114.191	26.985	1297.117	1048.104
115.206	26.988	1295.931	1047.070
116.220	27.100	1294.656	1046.592
117.235	26.984	1294.135	1045.413
118.249	26.903	1293.717	1044.515
119.264	27.057	1292.041	1043.954
120.279	27.051	1291.406	1043.314
121.293	27.077	1290.499	1042.642
122.308	27.103	1289.820	1042.147
123.322	27.044	1289.335	1041.328
124.337	26.986	1288.426	1040.166
125.352	27.053	1287.313	1039.559
126.366	27.175	1286.359	1039.396
127.381	27.069	1285.963	1038.375
128.395	27.080	1284.882	1037.478
129.410	27.101	1283.893	1036.706
130.424	26.993	1283.372	1035.574
131.439	27.101	1282.367	1035.291
132.454	26.987	1281.793	1034.082
133.468	27.043	1281.065	1033.726
134.483	27.111	1280.284	1033.392
135.497	27.046	1279.872	1032.595
136.512	27.034	1279.095	1031.810
137.527	27.072	1277.824	1030.908
138.541	27.125	1276.365	1029.944
139.556	27.055	1275.614	1028.847
140.570	27.004	1274.855	1027.858
141.585	27.004	1273.481	1026.656
142.600	27.089	1272.400	1026.174
143.614	27.032	1271.500	1025.035
144.629	26.981	1270.873	1024.153
145.643	26.850	1270.110	1022.709
146.658	26.976	1268.694	1022.186
147.673	26.985	1267.368	1021.080
148.687	27.037	1266.728	1020.764
149.702	27.038	1265.066	1019.340
150.716	26.910	1264.517	1018.091
151.731	27.097	1263.163	1017.956
152.746	27.062	1262.423	1017.078
153.760	27.033	1261.079	1015.744
154.775	27.051	1260.024	1014.900
155.789	26.993	1259.551	1014.109
156.804	26.976	1258.737	1013.268
157.819	26.999	1258.022	1012.733
158.833	27.082	1257.472	1012.663
159.848	27.128	1256.531	1012.068
160.862	27.121	1255.543	1011.146
161.877	27.089	1254.644	1010.154
162.892	27.086	1253.978	1009.514
163.906	27.058	1253.509	1008.892
164.921	27.171	1252.602	1008.698
165.935	27.099	1252.191	1007.879
166.950	27.224	1251.195	1007.681
167.964	27.149	1250.794	1006.850
168.979	27.153	1249.881	1006.051
169.994	27.239	1249.578	1006.193
171.008	27.143	1248.953	1005.069
172.023	27.270	1247.769	1004.730
173.037	27.232	1247.224	1003.995
174.052	27.260	1246.522	1003.491
175.067	27.248	1245.623	1002.613
176.081	27.080	1245.134	1001.205
177.096	27.210	1244.355	1001.209
178.110	27.131	1243.625	1000.093
179.125	27.154	1242.637	999.339
180.140	27.272	1241.424	998.927
181.154	27.243	1240.420	997.871
182.169	27.154	1239.284	996.377
183.183	27.198	1238.060	995.545
184.198	27.203	1237.363	994.928
185.213	27.264	1236.321	994.332
186.227	27.263	1235.509	993.588
187.242	27.298	1234.598	992.955
188.256	27.284	1233.732	992.096
189.271	27.310	1232.689	991.312
190.286	27.324	1232.462	991.117
191.300	27.227	1231.730	989.912
192.315	27.310	1231.418	990.030
193.329	27.245	1230.825	989.110
194.344	27.262	1230.587	988.921
195.359	27.299	1230.021	988.582
196.373	27.296	1229.061	987.707
197.388	27.309	1228.783	987.468
198.402	27.252	1229.024	987.261
199.417	27.303	1228.236	986.820
200.432	27.331	1227.599	986.372
201.446	27.297	1227.004	985.620
202.461	27.259	1226.592	985.001
203.475	27.296	1225.533	984.263
204.490	27.358	1224.524	983.700
205.504	27.263	1223.747	982.472
206.519	27.352	1222.517	981.879
207.534	27.312	1221.792	980.994
208.548	27.411	1220.453	980.364
209.563	27.351	1220.203	979.754
210.577	27.243	1219.241	978.314
211.592	27.271	1218.507	977.793
212.607	27.421	1217.620	977.798
213.621	27.437	1216.867	977.193
214.636	27.397	1216.283	976.420
215.650	27.399	1215.330	975.584
216.665	27.432	1213.990	974.595
217.680	27.288	1213.753	973.550
218.694	27.506	1212.394	973.537
219.709	27.446	1212.159	972.945
220.723	27.476	1211.529	972.509
221.738	27.396	1210.997	971.572
222.753	27.344	1209.779	970.231
223.767	27.406	1209.413	970.183
224.782	27.472	1208.901	970.038
225.796	27.547	1208.613	970.118
226.811	27.543	1207.433	969.065
227.826	27.448	1207.512	968.539
228.840	27.492	1206.640	967.987
229.855	27.410	1206.283	967.182
230.869	27.566	1205.125	966.993
231.884	27.532	1204.778	966.449
232.899	27.471	1204.132	965.519
233.913	27.480	1203.753	965.179
234.928	27.706	1202.685	965.435
235.942	27.587	1201.808	964.016
236.957	27.544	1201.628	963.556
237.972	27.508	1200.618	962.475
238.986	27.584	1200.285	962.523
240.001	27.691	1199.828	962.634
241.015	27.665	1199.038	961.779
242.030	27.649	1198.270	960.992
243.045	27.611	1197.370	959.986
244.059	27.765	1196.351	959.897
245.074	27.676	1195.776	958.878
246.088	27.754	1194.839	958.454
247.103	27.746	1194.241	957.849
248.117	27.662	1193.337	956.598
249.132	27.724	1192.185	955.916
250.147	27.716	1192.238	955.829
251.161	27.789	1191.287	955.366
252.176	27.871	1190.422	955.018
253.190	27.825	1190.114	954.444
254.205	27.776	1189.235	953.396
255.220	27.747	1188.937	952.923
256.234	27.791	1188.265	952.532
257.249	27.709	1187.583	951.472
258.263	27.780	1186.978	951.273
259.278	27.748	1186.564	950.692
260.293	27.795	1186.090	950.470
261.307	27.777	1185.566	949.876
262.322	27.735	1185.263	949.330
263.336	27.793	1184.038	948.562
264.351	27.803	1183.878	948.405
265.366	27.861	1183.090	947.990
266.380	27.769	1182.588	947.027
267.395	27.770	1181.451	946.040
268.409	27.807	1181.014	945.797
269.424	27.902	1180.262	945.601
270.439	27.938	1179.779	945.315
271.453	27.892	1178.954	944.334
272.468	27.834	1177.844	943.061
273.482	27.819	1177.897	942.942
274.497	27.896	1177.695	943.093
275.512	27.913	1177.017	942.556
276.526	28.009	1175.825	942.013
277.541	27.977	1175.367	941.397
278.555	27.875	1175.131	940.603
279.570	28.010	1174.122	940.407
280.585	27.997	1173.192	939.509
281.599	27.904	1172.821	938.652
282.614	27.963	1171.506	937.819
283.628	28.015	1170.342	937.074
284.643	28.114	1169.653	936.945
285.657	28.102	1168.619	935.974
286.672	27.976	1167.981	934.731
287.687	27.994	1167.445	934.313
288.701	28.089	1167.039	934.392
289.716	28.082	1165.852	933.324
290.730	28.008	1165.653	932.704
291.745	28.072	1165.139	932.535
292.760	28.030	1164.517	931.743
293.774	28.112	1163.802	931.506
294.789	28.076	1163.311	930.844
295.803	28.023	1162.640	929.957
296.818	27.996	1162.215	929.398
297.833	28.132	1161.200	929.195
298.847	28.183	1160.547	928.848
299.862	28.245	1159.734	928.431
300.876	28.104	1159.554	927.490
301.891	28.250	1158.554	927.347
302.906	28.304	1157.814	926.943
303.920	28.218	1157.190	925.929
304.935	28.281	1156.549	925.653
305.949	28.252	1156.292	925.217
306.964	28.247	1155.684	924.624
307.979	28.286	1155.043	924.227
308.993	28.292	1154.490	923.735
310.008	28.176	1153.807	922.520
311.022	28.248	1152.735	921.946
312.037	28.367	1152.121	921.971
313.052	28.302	1150.856	920.551
314.066	28.173	1150.375	919.434
315.081	28.374	1149.473	919.644
316.095	28.427	1148.828	919.309
317.110	28.252	1148.775	918.311
318.125	28.339	1148.176	918.185
319.139	28.358	1147.157	917.385
320.154	28.272	1146.632	916.450
321.168	28.287	1145.843	915.815
322.183	28.397	1146.050	916.450
323.197	28.341	1144.825	915.109
324.212	28.344	1144.431	914.726
325.227	28.402	1143.951	914.554
326.241	28.478	1143.029	914.117
327.256	28.414	1142.268	913.104
328.270	28.363	1141.957	912.522
329.285	28.419	1141.476	912.335
330.300	28.560	1140.226	911.956
331.314	28.528	1139.424	911.077
332.329	28.489	1138.731	910.246
333.343	28.416	1138.275	909.439
334.358	28.543	1137.261	909.181
335.373	28.536	1136.657	908.583
336.387	28.615	1135.926	908.310
337.402	28.559	1135.426	907.552
338.416	28.472	1134.959	906.669
339.431	28.475	1134.049	905.876
340.446	28.606	1133.251	905.806
341.460	28.612	1133.065	905.605
342.475	28.667	1132.131	905.050
343.489	28.517	1131.346	903.603
344.504	28.723	1129.914	903.392
345.519	28.661	1129.376	902.579
346.533	28.674	1128.773	902.078
347.548	28.667	1128.168	901.481
348.562	28.688	1127.235	900.759
349.577	28.609	1126.789	899.935
350.592	28.578	1125.894	898.988
351.606	28.685	1125.354	899.004
352.621	28.602	1124.804	898.076
353.635	28.714	1124.481	898.289
354.650	28.689	1123.456	897.269
355.665	28.767	1122.972	897.181
356.679	28.654	1122.808	896.420
357.694	28.651	1122.027	895.703
358.708	28.840	1120.997	895.722
359.723	28.738	1120.498	894.750
360.738	28.739	1119.967	894.248
361.752	28.874	1119.211	894.222
362.767	28.857	1118.897	893.811
363.781	28.699	1118.688	892.798
364.796	28.853	1117.790	892.749
365.810	28.887	1117.134	892.311
366.825	28.908	1116.324	891.688
367.840	28.941	1116.014	891.519
368.854	28.984	1115.347	891.115
369.869	28.840	1115.024	890.082
370.883	28.931	1113.966	889.598
371.898	28.933	1113.388	889.070
372.913	28.908	1112.961	888.529
373.927	28.943	1112.210	888.018
374.942	28.941	1111.717	887.535
375.956	29.017	1111.164	887.385
376.971	28.919	1110.823	886.561
377.986	29.109	1109.907	886.665
379.000	28.978	1109.869	885.928
380.015	29.194	1108.875	886.095
381.029	29.131	1108.430	885.357
382.044	29.104	1107.478	884.390
383.059	29.073	1106.979	883.764
384.073	29.098	1106.275	883.244
385.088	29.191	1105.437	882.940
386.102	29.071	1104.631	881.645
387.117	29.159	1103.708	881.249
388.132	29.109	1102.912	880.297
389.146	29.094	1102.512	879.828
390.161	29.261	1101.933	880.085
391.175	29.108	1101.666	879.067
392.190	29.159	1100.949	878.658
393.205	29.161	1099.884	877.741
394.219	29.184	1098.814	876.917
395.234	29.292	1098.279	876.928
396.248	29.283	1097.463	876.156
397.263	29.217	1096.633	875.102
398.278	29.381	1096.140	875.411
399.292	29.361	1095.525	874.746
400.307	29.374	1094.740	874.103
401.321	29.350	1094.444	873.678
402.336	29.320	1093.750	872.903
403.350	29.305	1093.065	872.211
404.365	29.302	1092.745	871.862
405.380	29.432	1091.565	871.455
406.394	29.357	1090.967	870.550
407.409	29.473	1090.081	870.311
408.423	29.431	1089.869	869.868
409.438	29.512	1088.732	869.262
410.453	29.516	1088.279	868.845
411.467	29.486	1087.845	868.279
412.482	29.528	1086.721	867.502
413.496	29.559	1086.007	867.001
414.511	29.430	1085.650	866.033
415.526	29.541	1084.873	865.858
416.540	29.480	1085.223	865.774
417.555	29.440	1084.660	865.061
418.569	29.628	1083.901	865.260
419.584	29.475	1083.500	864.149
420.599	29.499	1083.228	863.965
421.613	103.740	1319.942	1453.980
422.628	96.549	1354.408	1454.093
