DTS Sentinel unit serial number:	SN413079Multiplexer serial number:	ORYXHardware model number:	OX4-SRSoftware version number:	ORYX F/W v4.00 Oryx Data Collector v3.7.2.0data status	okinstallation	princeton_trtdifferential loss correction	single-endedforward channel	channel 2reverse channel	N/Adate	2019/09/12time	20:59:34forward acquisition time	60.00reverse acquisition time	0.00gamma	496.2192k internal	0.2328k external	0.2328temperature offset calibration	1.0167default loss term (dB/km)	0.3790temperature slope calibration	1.0000multiplexer offset coefficient	1.0000multiplexer slope coefficient	1.0000fibre end	0.00T internal ref (°C)	30.87T ext. ref 1 (°C)	3.63T ext. ref 2 (°C)	25.47length (m)	temperature (°C)	Stokes	anti-Stokes-747.200	454.125	-0.121	0.270
-746.185	-88.422	0.107	-0.032
-745.171	0.356	-0.110	-0.079
-744.156	800.000	0.035	0.134
-743.142	-200.000	-0.010	0.430
-742.127	-67.502	-0.231	0.091
-741.112	-186.843	-0.050	0.001
-740.098	-200.000	-0.057	0.336
-739.083	800.000	0.048	-0.144
-738.069	-143.939	0.184	0.017
-737.054	800.000	-0.023	-0.076
-736.039	-14.602	-0.296	-0.192
-735.025	84.500	0.093	0.102
-734.010	-200.000	-0.012	-0.451
-732.996	-101.013	-0.182	0.045
-731.981	-108.205	-0.146	0.032
-730.966	-74.955	0.224	0.081
-729.952	159.693	0.067	0.094
-728.937	-111.002	0.111	0.023
-727.923	-200.000	-0.026	-0.136
-726.908	56.480	0.123	0.121
-725.894	169.348	-0.103	-0.148
-724.879	365.974	-0.119	-0.242
-723.864	382.401	-0.119	-0.246
-722.850	-200.000	0.056	-0.269
-721.835	-81.559	-0.431	0.143
-720.821	152.509	-0.190	0.262
-719.806	271.094	-0.088	0.155
-718.791	800.000	0.046	-0.172
-717.777	-1.461	0.118	0.084
-716.762	12.260	-0.133	-0.103
-715.748	-200.000	-0.000	-0.062
-714.733	800.000	-0.099	-0.361
-713.718	800.000	0.037	-0.144
-712.704	265.900	0.081	0.142
-711.689	-58.941	0.447	0.194
-710.675	-61.979	0.202	-0.085
-709.660	155.772	-0.169	0.234
-708.645	65.420	-0.123	-0.125
-707.631	-35.340	-0.116	-0.064
-706.616	800.000	0.091	0.255
-705.602	-86.755	0.321	0.099
-704.587	-37.738	0.047	-0.025
-703.572	151.525	0.152	-0.208
-702.558	-108.362	0.267	-0.058
-701.543	-164.661	0.391	0.018
-700.529	-66.768	0.296	-0.118
-699.514	-47.387	0.162	0.079
-698.499	-50.821	-0.156	-0.074
-697.485	-175.945	0.389	-0.010
-696.470	696.091	-0.067	-0.176
-695.456	268.371	0.143	0.252
-694.441	131.733	0.101	0.130
-693.426	30.817	-0.222	-0.192
-692.412	-122.025	0.410	0.068
-691.397	-156.504	-0.244	-0.015
-690.383	-63.964	-0.079	0.032
-689.368	-43.760	0.254	-0.129
-688.354	-200.000	0.011	-0.051
-687.339	-73.088	-0.161	0.059
-686.324	-120.383	0.079	0.014
-685.310	87.936	-0.039	-0.043
-684.295	800.000	0.074	0.214
-683.281	-85.336	0.165	-0.052
-682.266	492.159	0.055	0.126
-681.251	131.578	-0.186	-0.240
-680.237	220.924	-0.070	-0.113
-679.222	-184.244	0.135	-0.002
-678.208	378.418	-0.124	-0.254
-677.193	458.952	-0.168	0.376
-676.178	-121.145	-0.335	0.056
-675.164	-1.395	0.076	0.054
-674.149	800.000	-0.055	-0.168
-673.135	248.966	0.021	0.036
-672.120	-78.863	0.137	0.047
-671.105	75.202	-0.040	-0.042
-670.091	-16.573	-0.430	-0.274
-669.076	-98.558	-0.296	0.076
-668.062	-54.557	-0.313	0.142
-667.047	102.671	0.187	-0.220
-666.032	81.966	-0.133	-0.144
-665.018	-11.429	-0.273	-0.180
-664.003	-52.981	0.119	0.055
-662.989	681.279	-0.055	-0.143
-661.974	61.014	0.257	0.257
-660.959	-140.587	0.303	0.032
-659.945	800.000	0.125	-0.381
-658.930	387.905	0.133	-0.276
-657.916	-200.000	-0.014	0.166
-656.901	44.007	0.110	0.101
-655.886	403.282	0.086	0.183
-654.872	110.119	0.123	0.149
-653.857	-9.506	0.139	0.093
-652.843	-51.065	-0.439	0.207
-651.828	-1.384	0.202	-0.143
-650.814	800.000	-0.030	-0.111
-649.799	-107.037	0.054	-0.012
-648.784	4.257	0.178	-0.131
-647.770	-200.000	0.080	-0.526
-646.755	-19.650	-0.238	-0.148
-645.741	-200.000	-0.006	0.191
-644.726	8.500	0.255	0.193
-643.711	800.000	0.034	-0.122
-642.697	-93.419	0.114	-0.032
-641.682	-200.000	-0.036	-0.219
-640.668	-200.000	-0.058	0.332
-639.653	-136.773	0.218	0.025
-638.638	800.000	0.119	0.383
-637.624	-101.978	0.100	0.024
-636.609	-200.000	-0.002	0.068
-635.595	-84.017	0.220	-0.070
-634.580	454.809	-0.062	0.138
-633.565	209.775	-0.120	0.189
-632.551	-200.000	0.054	-0.419
-631.536	116.802	-0.176	0.217
-630.522	329.032	-0.100	0.193
-629.507	-80.975	0.317	-0.105
-628.492	-114.404	-0.260	-0.050
-627.478	-155.510	-0.441	0.029
-626.463	400.680	0.108	0.227
-625.449	-200.000	-0.025	-0.148
-624.434	800.000	-0.010	-0.033
-623.419	-134.098	-0.110	0.014
-622.405	-101.419	-0.070	0.017
-621.390	-48.548	-0.192	-0.093
-620.376	-200.000	-0.013	0.249
-619.361	146.356	-0.123	-0.166
-618.346	83.375	0.087	-0.095
-617.332	457.433	-0.052	0.115
-616.317	-149.852	0.155	0.012
-615.303	-163.400	-0.263	0.013
-614.288	800.000	-0.055	0.234
-613.273	800.000	0.082	0.228
-612.259	-200.000	-0.015	0.192
-611.244	35.591	-0.172	0.151
-610.230	622.666	0.073	-0.184
-609.215	383.602	-0.157	-0.324
-608.201	130.325	-0.144	-0.184
-607.186	69.206	0.201	0.207
-606.171	646.227	0.034	0.087
-605.157	800.000	0.039	-0.147
-604.142	-200.000	0.018	-0.180
-603.128	299.236	0.072	0.133
-602.113	-174.001	0.035	0.001
-601.098	-129.753	0.250	-0.034
-600.084	-95.850	-0.317	0.085
-599.069	-156.086	0.306	0.019
-598.055	800.000	-0.030	-0.131
-597.040	-135.996	0.161	0.019
-596.025	640.690	0.132	-0.335
-595.011	-200.000	0.044	-0.246
-593.996	-122.176	-0.179	0.029
-592.982	411.157	-0.076	0.162
-591.967	428.923	-0.093	-0.202
-590.952	44.077	-0.196	-0.180
-589.938	139.840	-0.163	0.215
-588.923	54.156	-0.142	-0.137
-587.909	146.991	-0.190	0.256
-586.894	800.000	-0.100	-0.299
-585.879	155.176	-0.129	-0.177
-584.865	-200.000	0.022	-0.271
-583.850	530.654	-0.102	-0.242
-582.836	390.539	0.051	0.107
-581.821	516.501	-0.147	0.343
-580.806	-200.000	-0.003	-0.069
-579.792	275.713	0.114	0.203
-578.777	147.393	-0.152	0.205
-577.763	-200.000	0.017	-0.314
-576.748	-120.759	0.113	-0.019
-575.733	563.553	-0.072	-0.174
-574.719	-93.420	-0.117	0.033
-573.704	-101.595	0.143	-0.035
-572.690	-142.872	0.032	-0.003
-571.675	354.648	0.026	0.052
-570.661	800.000	0.115	0.368
-569.646	-200.000	0.046	-0.244
-568.631	533.707	-0.086	-0.203
-567.617	168.601	0.137	-0.195
-566.602	53.939	0.158	-0.152
-565.588	-107.126	-0.196	0.043
-564.573	7.320	0.129	0.096
-563.558	-200.000	-0.013	-0.108
-562.544	-113.776	0.152	0.030
-561.529	-200.000	0.022	-0.177
-560.515	127.394	-0.090	-0.114
-559.500	168.427	0.134	0.191
-558.485	-200.000	0.001	-0.121
-557.471	125.754	0.055	-0.070
-556.456	800.000	0.021	-0.081
-555.442	-32.712	-0.425	-0.237
-554.427	54.532	0.242	-0.233
-553.412	800.000	0.071	-0.282
-552.398	646.860	0.105	0.269
-551.383	800.000	-0.098	-0.352
-550.369	-200.000	0.014	-0.110
-549.354	-179.637	-0.259	0.006
-548.339	-200.000	0.055	0.363
-547.325	-200.000	-0.002	0.176
-546.310	-66.417	-0.201	-0.080
-545.296	800.000	-0.036	0.117
-544.281	406.106	0.094	0.198
-543.266	17.560	-0.404	0.321
-542.252	-56.470	-0.231	-0.102
-541.237	800.000	-0.186	-0.562
-540.223	-200.000	0.089	-0.547
-539.208	-129.878	0.217	-0.030
-538.193	15.305	-0.232	0.182
-537.179	-176.126	0.254	-0.007
-536.164	-110.925	0.268	0.055
-535.150	-95.237	-0.253	-0.068
-534.135	63.102	0.098	0.098
-533.121	36.088	0.073	-0.064
-532.106	-200.000	-0.042	-0.212
-531.091	179.280	-0.065	-0.096
-530.077	-114.579	0.093	0.018
-529.062	-48.993	-0.226	0.108
-528.048	43.590	-0.164	0.150
-527.033	24.633	-0.377	0.312
-526.018	29.507	-0.124	0.105
-525.004	-154.399	-0.434	-0.029
-523.989	-96.317	0.120	-0.032
-522.975	800.000	-0.084	0.271
-521.960	250.148	-0.133	0.225
-520.945	-200.000	-0.008	-0.147
-519.931	-97.535	0.204	0.053
-518.916	37.264	0.255	0.226
-517.902	291.280	-0.057	0.104
-516.887	113.354	-0.206	0.250
-515.872	508.164	0.119	-0.275
-514.858	-45.150	-0.146	-0.073
-513.843	125.449	-0.152	-0.191
-512.829	-61.355	0.206	0.086
-511.814	1.557	0.212	0.152
-510.799	800.000	0.036	-0.112
-509.785	-47.588	-0.258	0.125
-508.770	281.303	-0.095	0.169
-507.756	-66.724	0.219	0.087
-506.741	-28.567	-0.018	-0.010
-505.726	183.246	0.098	-0.144
-504.712	-95.389	0.042	0.011
-503.697	-105.994	-0.088	-0.020
-502.683	1.626	0.204	-0.147
-501.668	-131.203	-0.212	-0.028
-500.653	-141.561	-0.259	0.026
-499.639	53.520	0.194	-0.186
-498.624	118.179	0.183	0.226
-497.610	-73.932	-0.252	-0.091
-496.595	126.172	0.053	0.066
-495.581	74.329	0.140	0.147
-494.566	-200.000	-0.026	-0.140
-493.551	-145.659	-0.152	0.014
-492.537	-36.837	-0.122	0.066
-491.522	-80.709	0.129	-0.043
-490.508	-128.438	-0.132	0.019
-489.493	-112.599	0.229	0.045
-488.478	-32.181	-0.251	-0.140
-487.464	800.000	0.058	-0.195
-486.449	157.275	0.098	-0.135
-485.435	267.821	-0.113	0.198
-484.420	-148.977	0.360	-0.029
-483.405	-75.447	0.120	0.043
-482.391	483.252	0.119	0.270
-481.376	-141.249	-0.153	0.016
-480.362	-99.911	0.291	0.073
-479.347	29.315	-0.138	0.117
-478.332	-145.569	0.224	0.020
-477.318	800.000	-0.023	-0.079
-476.303	49.067	-0.038	0.036
-475.289	432.401	0.040	0.087
-474.274	198.440	-0.102	0.156
-473.259	504.265	-0.049	0.114
-472.245	568.875	0.056	0.135
-471.230	-108.961	-0.118	0.025
-470.216	-126.447	-0.133	-0.020
-469.201	-19.084	-0.061	0.038
-468.186	274.848	-0.026	0.046
-467.172	80.603	-0.047	0.051
-466.157	49.531	0.076	-0.072
-465.143	-79.591	-0.124	-0.042
-464.128	55.543	0.212	-0.204
-463.113	35.443	-0.169	-0.148
-462.099	-30.039	-0.305	0.173
-461.084	-10.880	0.108	-0.071
-460.070	-112.272	-0.244	-0.049
-459.055	-170.269	-0.256	0.009
-458.040	-73.232	0.084	-0.031
-457.026	-200.000	0.020	0.243
-456.011	33.325	0.064	0.055
-454.997	123.545	0.118	0.148
-453.982	5.792	-0.151	0.112
-452.968	-71.239	-0.033	-0.012
-451.953	-178.640	0.240	-0.006
-450.938	-104.917	-0.135	0.031
-449.924	19.290	-0.283	0.226
-448.909	235.217	0.144	0.238
-447.895	-93.938	-0.147	-0.040
-446.880	-200.000	-0.031	-0.253
-445.865	-57.090	-0.236	0.104
-444.851	-200.000	-0.012	0.108
-443.836	800.000	0.053	0.230
-442.822	-200.000	0.000	-0.174
-441.807	-106.484	0.265	-0.059
-440.792	142.059	0.250	-0.331
-439.778	-183.704	0.088	-0.001
-438.763	688.181	-0.128	-0.333
-437.749	-49.702	-0.106	-0.050
-436.734	-200.000	0.074	-0.598
-435.719	38.300	0.046	-0.040
-434.705	23.210	0.212	0.173
-433.690	64.307	0.175	0.176
-432.676	-42.937	-0.394	-0.199
-431.661	100.081	0.053	0.061
-430.646	-143.984	-0.250	0.023
-429.632	-80.632	0.111	-0.037
-428.617	102.704	0.055	0.064
-427.603	-33.406	-0.471	0.259
-426.588	-12.951	-0.405	-0.262
-425.573	-200.000	0.053	0.279
-424.559	232.928	0.102	-0.167
-423.544	-200.000	0.013	-0.260
-422.530	69.108	-0.195	-0.199
-421.515	132.760	-0.059	-0.076
-420.500	210.102	0.077	-0.120
-419.486	-200.000	0.003	-0.155
-418.471	-28.577	-0.268	-0.154
-417.457	-97.098	-0.215	0.056
-416.442	-79.030	0.110	-0.037
-415.428	-95.336	-0.252	-0.067
-414.413	-162.455	-0.282	0.014
-413.398	202.225	0.138	-0.212
-412.384	-93.103	0.084	-0.023
-411.369	149.022	0.127	0.171
-410.355	-111.822	-0.090	0.018
-409.340	-108.058	-0.153	-0.033
-408.325	-133.227	-0.122	-0.015
-407.311	95.578	-0.023	0.026
-406.296	308.329	0.043	0.081
-405.282	521.149	-0.130	-0.304
-404.267	-135.800	-0.196	-0.023
-403.252	792.392	-0.102	0.278
-402.238	-200.000	0.055	0.384
-401.223	385.427	0.141	-0.289
-400.209	99.976	-0.268	-0.309
-399.194	-114.430	0.252	-0.048
-398.179	-11.295	0.192	-0.126
-397.165	0.062	0.326	-0.231
-396.150	-200.000	-0.008	-0.114
-395.136	151.253	0.149	0.202
-394.121	344.606	0.065	-0.126
-393.106	-200.000	-0.017	0.087
-392.092	-104.832	-0.271	-0.062
-391.077	800.000	-0.037	-0.132
-390.063	-97.153	0.257	-0.067
-389.048	102.683	0.031	0.036
-388.033	91.942	0.199	-0.223
-387.019	173.461	0.054	0.078
-386.004	411.920	-0.049	0.104
-384.990	190.447	0.092	0.138
-383.975	800.000	0.097	0.339
-382.960	-36.659	-0.087	-0.047
-381.946	-53.691	-0.157	0.071
-380.931	800.000	0.121	-0.375
-379.917	-64.312	0.210	-0.085
-378.902	-119.699	0.095	-0.016
-377.888	-200.000	-0.013	0.063
-376.873	800.000	-0.033	-0.096
-375.858	-60.364	-0.162	0.068
-374.844	-193.523	0.193	-0.002
-373.829	-27.086	0.125	-0.072
-372.815	-1.302	0.236	0.166
-371.800	-110.229	0.079	0.016
-370.785	-104.333	-0.117	0.027
-369.771	135.389	0.143	0.184
-368.756	13.266	0.220	-0.170
-367.742	800.000	0.016	0.070
-366.727	24.856	-0.058	-0.048
-365.712	89.028	0.098	0.109
-364.698	-140.768	-0.101	-0.010
-363.683	-50.063	-0.245	0.115
-362.669	11.231	-0.170	-0.129
-361.654	292.187	0.146	0.263
-360.639	16.915	0.221	0.174
-359.625	-104.933	0.189	-0.043
-358.610	-200.000	0.014	-0.156
-357.596	-65.416	-0.086	-0.034
-356.581	-121.507	-0.196	0.032
-355.566	-60.575	-0.021	0.009
-354.552	-200.000	0.020	0.250
-353.537	177.319	0.073	-0.106
-352.523	800.000	0.065	0.187
-351.508	35.587	0.052	0.045
-350.493	-57.201	0.153	-0.067
-349.479	-200.000	-0.019	0.149
-348.464	-92.105	0.305	-0.085
-347.450	53.837	-0.150	0.143
-346.435	522.132	-0.043	0.101
-345.420	360.237	-0.137	-0.272
-344.406	-105.272	-0.065	0.015
-343.391	-67.572	-0.061	-0.024
-342.377	-200.000	0.010	-0.088
-341.362	209.336	0.120	-0.187
-340.348	-48.841	-0.145	0.069
-339.333	-162.439	0.129	0.006
-338.318	258.714	0.125	0.213
-337.304	-22.221	0.191	0.115
-336.289	-78.621	0.111	0.038
-335.275	413.938	0.112	-0.236
-334.260	-200.000	0.013	0.091
-333.245	800.000	0.121	0.339
-332.231	-200.000	-0.027	-0.353
-331.216	-200.000	-0.057	0.254
-330.202	-150.439	-0.372	0.028
-329.187	-187.426	0.242	0.003
-328.172	800.000	0.064	-0.228
-327.158	614.323	-0.104	0.259
-326.143	-138.830	-0.506	0.055
-325.129	-200.000	-0.019	0.249
-324.114	-36.890	0.470	-0.250
-323.099	-47.291	0.143	-0.069
-322.085	374.985	0.195	0.394
-321.070	-200.000	0.000	0.026
-320.056	-49.465	0.449	-0.212
-319.041	-200.000	0.013	-0.168
-318.026	215.039	-0.125	0.196
-317.012	168.662	0.189	0.267
-315.997	-99.196	0.188	0.047
-314.983	-22.913	-0.337	-0.202
-313.968	-63.917	0.196	0.080
-312.953	245.263	0.065	0.108
-311.939	202.927	0.255	-0.390
-310.924	800.000	-0.067	-0.221
-309.910	-200.000	0.012	-0.115
-308.895	-38.803	0.280	-0.146
-307.880	231.927	0.071	-0.116
-306.866	800.000	0.024	0.072
-305.851	-200.000	-0.002	-0.065
-304.837	-75.961	0.456	0.160
-303.822	31.401	0.155	-0.132
-302.807	-20.422	0.163	0.099
-301.793	26.743	-0.129	0.107
-300.778	-28.441	-0.254	0.145
-299.764	-59.678	-0.188	-0.080
-298.749	-200.000	0.051	0.393
-297.735	702.262	0.186	-0.484
-296.720	199.399	-0.273	-0.415
-295.705	-35.023	0.259	0.140
-294.691	800.000	-0.080	-0.288
-293.676	-102.551	0.093	-0.022
-292.662	143.375	-0.075	0.099
-291.647	-103.970	-0.480	-0.111
-290.632	-43.751	-0.156	0.078
-289.618	-112.369	0.319	-0.063
-288.603	147.999	0.033	-0.044
-287.589	-62.772	-0.103	0.042
-286.574	30.341	0.163	0.138
-285.559	190.443	-0.088	-0.130
-284.545	68.864	0.121	-0.123
-283.530	-21.515	-0.247	0.149
-282.516	-200.000	0.067	0.319
-281.501	14.133	0.359	0.276
-280.486	-147.044	0.551	0.047
-279.472	-152.159	0.335	-0.024
-278.457	800.000	-0.090	0.312
-277.443	490.843	0.083	-0.188
-276.428	-5.359	-0.155	-0.105
-275.413	310.320	0.102	0.189
-274.399	-88.157	-0.168	0.050
-273.384	-45.265	-0.131	0.064
-272.370	307.450	-0.108	-0.200
-271.355	-78.049	-0.104	0.035
-270.340	-200.000	0.000	0.149
-269.326	114.716	-0.178	0.215
-268.311	6.199	-0.084	-0.062
-267.297	137.080	-0.046	-0.059
-266.282	216.855	0.083	-0.130
-265.267	106.527	-0.144	0.169
-264.253	-95.006	-0.459	-0.123
-263.238	-200.000	-0.071	-0.338
-262.224	-200.000	0.025	0.132
-261.209	-200.000	-0.036	0.235
-260.195	168.269	-0.104	-0.147
-259.180	-139.520	-0.028	0.003
-258.165	800.000	0.092	0.255
-257.151	-58.219	-0.141	-0.061
-256.136	-123.914	0.273	0.043
-255.122	-153.955	-0.249	-0.017
-254.107	429.593	-0.019	-0.042
-253.092	-164.786	0.394	-0.018
-252.078	-200.000	0.078	0.340
-251.063	-161.452	0.230	0.012
-250.049	-63.210	-0.152	-0.062
-249.034	-200.000	-0.034	0.190
-248.019	144.843	-0.145	0.191
-247.005	-19.851	-0.090	-0.055
-245.990	-91.713	0.130	-0.037
-244.976	-200.000	0.290	0.000
-243.961	-200.000	0.043	0.286
-242.946	12.185	0.433	0.329
-241.932	-133.847	-0.242	-0.030
-240.917	-101.379	0.282	0.068
-239.903	161.019	0.208	0.287
-238.888	-48.961	0.081	0.038
-237.873	-35.184	0.312	-0.168
-236.859	-200.000	0.028	0.215
-235.844	-95.202	-0.465	-0.124
-234.830	-78.608	-0.305	-0.103
-233.815	800.000	0.079	0.217
-232.800	746.181	-0.051	-0.136
-231.786	7.243	0.379	-0.279
-230.771	-84.523	-0.011	-0.003
-229.757	16.859	-0.134	0.105
-228.742	140.416	0.053	-0.070
-227.727	222.390	0.101	0.160
-226.713	800.000	-0.139	-0.488
-225.698	-22.879	0.278	-0.165
-224.684	-20.010	0.204	-0.124
-223.669	-78.051	0.095	-0.032
-222.655	94.141	0.235	0.264
-221.640	212.974	-0.105	0.163
-220.625	-125.284	0.271	-0.041
-219.611	3.904	-0.301	-0.217
-218.596	190.467	0.199	0.295
-217.582	-11.111	0.124	-0.080
-216.567	800.000	0.068	-0.250
-215.552	800.000	0.031	0.134
-214.538	800.000	-0.016	0.064
-213.523	-123.532	0.267	0.042
-212.509	-200.000	0.034	0.210
-211.494	22.034	0.172	-0.138
-210.479	414.486	-0.158	-0.331
-209.465	152.466	-0.317	0.427
-208.450	-200.000	-0.017	0.216
-207.436	800.000	0.058	-0.242
-206.421	-104.040	-0.270	-0.062
-205.406	800.000	0.044	-0.181
-204.392	800.000	0.105	0.374
-203.377	190.382	-0.057	-0.084
-202.363	200.758	-0.175	-0.266
-201.348	11.672	-0.193	-0.146
-200.333	-200.000	-0.016	0.150
-199.319	544.538	-0.081	0.192
-198.304	-79.216	-0.286	-0.096
-197.290	189.881	-0.122	-0.180
-196.275	75.628	-0.106	-0.111
-195.260	200.066	-0.180	-0.273
-194.246	87.449	0.034	0.037
-193.231	-86.467	-0.201	0.061
-192.217	34.345	0.348	0.299
-191.202	-128.220	0.165	0.023
-190.187	-200.000	-0.019	0.504
-189.173	488.587	-0.049	-0.111
-188.158	-200.000	-0.056	-0.378
-187.144	-42.368	0.155	-0.078
-186.129	72.565	-0.213	0.219
-185.114	-200.000	-0.056	0.549
-184.100	474.286	-0.157	-0.350
-183.085	-200.000	-0.088	0.427
-182.071	578.681	0.063	-0.151
-181.056	-200.000	0.017	-0.078
-180.042	-200.000	-0.005	0.212
-179.027	304.725	-0.151	0.275
-178.012	-41.267	0.239	-0.122
-176.998	-200.000	0.045	0.216
-175.983	-200.000	0.021	-0.162
-174.969	7.692	-0.062	0.046
-173.954	358.299	-0.067	0.131
-172.939	-200.000	0.008	0.080
-171.925	264.952	0.046	0.078
-170.910	-94.507	0.211	-0.057
-169.896	-144.609	-0.083	-0.008
-168.881	129.090	-0.129	-0.162
-167.866	-154.470	0.108	0.007
-166.852	54.274	0.141	0.134
-165.837	8.517	0.039	0.029
-164.823	-36.198	-0.176	0.094
-163.808	46.851	-0.237	-0.217
-162.793	284.437	-0.145	-0.257
-161.779	16.910	-0.423	-0.330
-160.764	800.000	0.055	0.157
-159.750	-44.562	0.225	0.111
-158.735	-75.274	0.182	-0.064
-157.720	-83.560	0.234	-0.074
-156.706	-141.691	0.285	-0.028
-155.691	-81.171	-0.203	0.066
-154.677	-200.000	-0.000	-0.130
-153.662	99.305	-0.140	-0.160
-152.647	214.297	0.058	-0.090
-151.633	430.641	0.085	0.180
-150.618	67.195	-0.119	-0.120
-149.604	800.000	0.137	-0.437
-148.589	800.000	-0.053	0.160
-147.574	-67.491	-0.189	-0.073
-146.560	-95.502	-0.110	0.029
-145.545	-42.880	0.242	0.121
-144.531	-200.000	-0.006	-0.069
-143.516	-200.000	-0.028	0.204
-142.502	157.450	0.040	0.055
-141.487	64.734	-0.107	-0.106
-140.472	-80.101	-0.435	0.144
-139.458	184.820	0.082	0.119
-138.443	800.000	-0.111	0.312
-137.429	-200.000	-0.045	0.297
-136.414	563.926	0.114	0.272
-135.399	-56.339	0.333	0.146
-134.385	-146.873	0.085	0.007
-133.370	-0.351	-0.220	-0.154
-132.356	-1.151	0.124	-0.086
-131.341	20.148	-0.188	-0.149
-130.326	-200.000	-0.027	-0.123
-129.312	800.000	-0.026	-0.079
-128.297	800.000	0.063	0.177
-127.283	-71.872	0.306	0.112
-126.268	-200.000	0.007	0.047
-125.253	535.428	0.170	0.397
-124.239	287.256	-0.115	-0.204
-123.224	-200.000	0.000	0.244
-122.210	-121.207	-0.128	-0.021
-121.195	66.884	-0.198	-0.199
-120.180	-200.000	-0.032	0.196
-119.166	390.554	-0.114	-0.232
-118.151	-24.890	0.147	-0.086
-117.137	0.622	0.225	0.158
-116.122	616.119	0.015	-0.037
-115.107	800.000	0.118	0.352
-114.093	-200.000	-0.077	0.523
-113.078	527.600	0.096	0.222
-112.064	800.000	-0.058	-0.161
-111.049	800.000	-0.069	0.223
-110.034	-200.000	0.055	-0.271
-109.020	-158.541	-0.097	-0.006
-108.005	-87.151	-0.348	-0.104
-106.991	-200.000	0.035	-0.249
-105.976	3.002	-0.307	-0.219
-104.962	-24.774	-0.071	-0.041
-103.947	288.783	-0.208	-0.370
-102.932	649.856	0.046	0.114
-101.918	203.588	0.025	-0.037
-100.903	-200.000	-0.020	0.190
-99.889	-200.000	0.006	0.321
-98.874	-79.680	-0.231	-0.077
-97.859	13.404	-0.162	0.124
-96.845	16.635	-0.210	0.163
-95.830	701.095	0.043	0.112
-94.816	-200.000	0.034	-0.318
-93.801	-23.800	-0.204	0.120
-92.786	200.568	-0.076	0.114
-91.772	166.343	-0.163	-0.227
-90.757	21.118	0.241	0.192
-89.743	-63.895	-0.105	0.042
-88.728	-179.487	-0.366	-0.008
-87.713	800.000	0.090	0.268
-86.699	-29.949	-0.152	0.085
-85.684	625.169	0.126	0.311
-84.670	-81.207	0.150	0.049
-83.655	-200.000	0.002	-0.242
-82.640	800.000	-0.037	0.159
-81.626	75.154	0.158	-0.163
-80.611	727.868	0.106	0.277
-79.597	282.380	0.176	0.309
-78.582	12.228	-0.136	-0.102
-77.567	-66.052	0.146	-0.057
-76.553	159.852	0.271	-0.371
-75.538	-200.000	-0.024	-0.221
-74.524	-102.069	0.183	0.043
-73.509	-71.594	-0.157	0.057
-72.494	-114.167	0.128	-0.024
-71.480	77.974	-0.345	0.361
-70.465	800.000	-0.096	-0.372
-69.451	-112.277	0.297	-0.058
-68.436	-200.000	0.033	-0.286
-67.422	-146.075	0.461	-0.040
-66.407	374.124	0.171	-0.341
-65.392	138.225	0.140	-0.180
-64.378	-134.023	-0.337	-0.041
-63.363	-190.769	0.047	-0.000
-62.349	211.086	-0.132	0.203
-61.334	-12.203	-0.969	-0.622
-60.319	22.305	0.471	0.378
-59.305	439.652	-0.456	-0.978
-58.290	-200.000	0.177	1.016
-57.276	495.660	0.571	1.288
-56.261	-200.000	101.968	594.406
-55.246	577.755	1416.816	3398.916
-54.232	190.699	2605.916	3842.681
-53.217	110.728	2264.676	2672.232
-52.203	40.144	1886.743	1663.736
-51.188	34.071	1677.884	1433.902
-50.173	31.450	1634.512	1377.503
-49.159	49.634	1684.501	1556.019
-48.144	51.240	1701.116	1583.315
-47.130	33.690	1660.189	1415.716
-46.115	31.015	1645.563	1383.368
-45.100	30.824	1640.986	1378.053
-44.086	30.776	1638.464	1375.526
-43.071	30.692	1636.252	1372.991
-42.057	30.715	1633.506	1370.807
-41.042	30.697	1631.795	1369.183
-40.027	30.834	1629.562	1368.260
-39.013	30.744	1627.618	1365.916
-37.998	30.671	1626.404	1364.306
-36.984	30.714	1625.081	1363.459
-35.969	30.818	1623.570	1362.897
-34.954	30.895	1621.662	1361.803
-33.940	30.772	1620.517	1359.887
-32.925	30.944	1618.491	1359.391
-31.911	30.890	1616.946	1357.646
-30.896	30.878	1614.960	1355.834
-29.881	30.831	1613.979	1354.614
-28.867	30.855	1611.511	1352.666
-27.852	30.809	1610.953	1351.813
-26.838	30.894	1608.908	1350.658
-25.823	30.931	1607.173	1349.412
-24.809	30.967	1606.128	1348.744
-23.794	30.839	1605.187	1346.973
-22.779	30.916	1603.317	1345.909
-21.765	30.957	1601.604	1344.710
-20.750	30.871	1600.091	1342.771
-19.736	30.881	1599.069	1341.928
-18.721	30.948	1597.244	1340.831
-17.706	30.889	1595.675	1339.034
-16.692	30.981	1593.838	1338.096
-15.677	30.865	1592.374	1335.982
-14.663	30.914	1592.325	1336.245
-13.648	30.946	1590.145	1334.592
-12.633	30.889	1588.391	1332.660
-11.619	30.938	1587.445	1332.162
-10.604	30.962	1585.532	1330.673
-9.590	30.985	1584.094	1329.581
-8.575	30.912	1583.105	1328.173
-7.560	30.933	1581.500	1326.927
-6.546	30.920	1580.925	1326.293
-5.531	30.846	1579.811	1324.787
-4.517	30.828	1579.466	1324.312
-3.502	30.901	1577.563	1323.183
-2.487	30.971	1576.000	1322.319
-1.473	30.598	1564.272	1309.795
-0.458	27.645	1544.266	1272.426
0.556	25.621	1544.732	1239.813
1.571	23.157	1568.582	1241.577
2.586	22.451	1581.334	1246.563
3.600	20.073	1528.185	1188.272
4.615	12.218	1420.327	1054.047
5.629	5.053	1357.660	963.333
6.644	3.632	1349.853	948.974
7.659	3.611	1348.656	947.918
8.673	3.709	1347.660	947.739
9.688	3.589	1345.860	945.654
10.702	3.446	1343.284	942.885
11.717	6.833	1349.218	967.745
12.731	15.611	1365.135	1033.267
13.746	22.775	1377.286	1086.653
14.761	24.455	1379.009	1098.261
15.775	24.085	1377.757	1094.896
16.790	23.550	1375.843	1089.987
17.804	23.157	1373.880	1085.931
18.819	22.938	1373.170	1083.930
19.834	22.925	1372.322	1083.085
20.848	22.944	1371.544	1082.487
21.863	22.837	1371.072	1081.366
22.877	22.988	1369.933	1081.296
23.892	22.857	1368.982	1079.644
24.907	22.793	1368.315	1078.634
25.921	22.825	1367.335	1077.962
26.936	22.770	1366.192	1076.630
27.950	22.878	1365.181	1076.394
28.965	22.969	1364.193	1076.078
29.980	23.019	1363.605	1075.822
30.994	23.191	1362.247	1075.698
32.009	23.213	1361.592	1075.221
33.023	23.166	1360.448	1073.935
34.038	22.923	1359.230	1071.407
35.053	22.958	1357.625	1070.259
36.067	22.954	1356.853	1069.529
37.082	22.879	1355.979	1068.292
38.096	22.946	1355.098	1067.911
39.111	23.061	1354.297	1067.878
40.126	22.945	1353.636	1066.566
41.140	22.734	1352.404	1064.225
42.155	22.506	1351.726	1062.226
43.169	22.220	1352.035	1060.649
44.184	22.328	1351.838	1061.049
45.199	22.532	1351.485	1061.912
46.213	22.693	1351.437	1062.750
47.228	22.830	1350.721	1062.918
48.242	22.954	1348.978	1062.196
49.257	22.845	1347.983	1060.661
50.271	22.798	1346.175	1058.865
51.286	22.680	1345.405	1057.458
52.301	22.696	1344.318	1056.609
53.315	22.585	1343.530	1055.230
54.330	22.599	1341.788	1053.851
55.344	22.413	1340.951	1051.991
56.359	22.470	1339.649	1051.213
57.374	22.400	1338.557	1049.845
58.388	22.479	1337.688	1049.543
59.403	22.304	1337.477	1048.244
60.417	22.243	1336.646	1047.137
61.432	22.138	1336.438	1046.256
62.447	22.122	1335.236	1045.123
63.461	22.271	1333.524	1044.579
64.476	22.076	1333.001	1042.917
65.490	22.080	1331.581	1041.737
66.505	22.123	1329.881	1040.569
67.520	22.065	1329.153	1039.565
68.534	22.101	1328.152	1038.905
69.549	21.966	1327.138	1037.219
70.563	21.889	1325.975	1035.765
71.578	22.014	1324.460	1035.227
72.593	21.849	1323.508	1033.422
73.607	21.751	1323.138	1032.461
74.622	21.879	1322.503	1032.628
75.636	21.816	1322.129	1031.878
76.651	21.809	1321.648	1031.366
77.666	22.027	1320.956	1032.016
78.680	21.993	1320.642	1031.481
79.695	22.064	1320.034	1031.331
80.709	22.228	1319.359	1031.677
81.724	22.431	1318.328	1031.971
82.739	22.455	1317.606	1031.450
83.753	22.714	1317.439	1032.745
84.768	22.880	1316.855	1033.170
85.782	23.114	1315.623	1033.478
86.797	23.062	1314.857	1032.483
87.812	22.880	1313.601	1030.341
88.826	22.876	1312.348	1029.248
89.841	22.972	1310.994	1028.649
90.855	22.965	1310.533	1028.158
91.870	23.197	1309.386	1028.516
92.884	23.131	1309.037	1027.766
93.899	23.273	1308.113	1027.775
94.914	23.270	1307.021	1026.806
95.928	23.206	1306.473	1025.919
96.943	23.177	1305.604	1024.974
97.957	23.162	1304.785	1024.157
98.972	23.138	1303.732	1023.097
99.987	23.021	1302.989	1021.746
101.001	23.115	1301.963	1021.394
102.016	23.033	1300.874	1019.980
103.030	23.061	1300.264	1019.569
104.045	22.899	1299.393	1017.865
105.060	22.783	1297.898	1015.938
106.074	22.453	1296.713	1013.018
107.089	22.365	1294.635	1010.799
108.103	22.097	1293.526	1008.309
109.118	22.108	1292.000	1007.092
110.133	22.024	1290.998	1005.745
111.147	22.146	1289.566	1005.237
112.162	22.313	1288.320	1005.128
113.176	22.234	1287.737	1004.135
114.191	22.238	1287.142	1003.604
115.206	22.242	1286.241	1002.837
116.220	22.377	1284.905	1002.477
117.235	22.207	1283.711	1000.490
118.249	22.118	1282.664	999.076
119.264	21.993	1281.979	997.745
120.279	22.131	1280.590	997.355
121.293	22.046	1279.091	995.623
122.308	21.807	1278.514	993.729
123.322	21.785	1277.485	992.715
124.337	21.695	1276.434	991.302
125.352	21.823	1275.105	990.906
126.366	21.709	1274.243	989.503
127.381	21.653	1273.600	988.603
128.395	21.640	1271.966	987.174
129.410	21.538	1271.263	985.967
130.424	21.732	1270.400	986.300
131.439	21.930	1270.261	987.220
132.454	22.106	1269.789	987.756
133.468	22.279	1269.103	988.107
134.483	22.247	1268.460	987.337
135.497	22.182	1267.767	986.349
136.512	22.344	1265.954	985.757
137.527	22.246	1265.433	984.716
138.541	22.314	1263.824	983.758
139.556	22.310	1263.198	983.160
140.570	22.552	1262.459	983.851
141.585	22.679	1261.481	983.707
142.600	22.822	1261.145	984.157
143.614	22.897	1260.262	983.800
144.629	22.966	1259.666	983.631
145.643	22.912	1258.177	982.077
146.658	22.814	1256.609	980.224
147.673	22.589	1255.429	977.972
148.687	22.496	1254.674	976.776
149.702	22.342	1252.860	974.425
150.716	22.107	1251.481	971.967
151.731	22.115	1249.992	970.771
152.746	22.174	1249.032	970.267
153.760	22.379	1247.927	970.452
154.775	22.538	1247.324	970.775
155.789	22.660	1246.689	970.867
156.804	22.551	1245.407	969.178
157.819	22.547	1245.037	968.782
158.833	22.841	1243.387	969.028
159.848	22.913	1243.080	969.098
160.862	22.770	1242.299	967.618
161.877	22.496	1240.844	964.899
162.892	22.214	1239.823	962.480
163.906	22.060	1238.626	960.622
164.921	22.042	1237.757	959.763
165.935	22.294	1237.083	960.534
166.950	22.285	1237.070	960.387
167.964	22.378	1236.257	960.180
168.979	22.330	1235.601	959.321
169.994	22.327	1234.671	958.499
171.008	22.244	1233.627	957.154
172.023	22.452	1233.313	957.957
173.037	22.734	1233.291	959.389
174.052	22.730	1232.234	958.460
175.067	22.433	1230.633	955.518
176.081	22.131	1229.682	953.058
177.096	22.135	1228.641	952.188
178.110	22.239	1227.523	951.799
179.125	22.170	1226.619	950.641
180.140	22.516	1225.770	951.769
181.154	22.754	1225.238	952.559
182.169	22.784	1223.425	951.225
183.183	22.745	1223.326	950.852
184.198	22.770	1222.191	950.020
185.213	22.739	1220.943	948.799
186.227	22.780	1219.594	947.891
187.242	22.794	1219.254	947.616
188.256	22.941	1218.281	947.567
189.271	23.058	1217.151	947.230
190.286	22.760	1216.500	945.044
191.300	22.493	1214.800	942.212
192.315	22.428	1214.310	941.398
193.329	22.368	1213.879	940.663
194.344	22.411	1212.903	940.050
195.359	22.169	1212.821	938.613
196.373	22.157	1212.252	938.026
197.388	22.273	1212.016	938.380
198.402	22.597	1212.379	940.303
199.417	23.063	1211.497	942.019
200.432	23.254	1211.050	942.609
201.446	23.162	1210.563	941.657
202.461	23.266	1209.512	941.305
203.475	23.215	1208.934	940.504
204.490	22.902	1207.255	937.453
205.504	22.652	1205.988	935.062
206.519	22.591	1204.608	933.583
207.534	22.445	1203.452	931.833
208.548	22.416	1201.999	930.470
209.563	22.450	1201.850	930.455
210.577	22.401	1200.865	929.349
211.592	22.660	1200.098	930.039
212.607	22.992	1200.234	931.815
213.621	22.922	1199.380	930.702
214.636	22.795	1198.365	929.159
215.650	22.848	1197.448	928.645
216.665	23.030	1196.464	928.756
217.680	23.174	1196.357	929.351
218.694	23.308	1195.226	929.092
219.709	23.094	1194.363	927.216
220.723	23.006	1193.258	925.817
221.738	23.022	1192.836	925.488
222.753	22.969	1191.844	924.362
223.767	22.841	1191.228	923.130
224.782	23.109	1190.835	924.146
225.796	23.210	1190.543	924.368
226.811	23.170	1189.570	923.320
227.826	22.985	1188.925	921.774
228.840	22.895	1188.093	920.579
229.855	22.811	1187.028	919.233
230.869	22.839	1186.285	918.721
231.884	22.661	1185.629	917.205
232.899	22.565	1184.016	915.382
233.913	22.387	1183.787	914.198
234.928	22.391	1182.862	913.421
235.942	22.412	1181.942	912.738
236.957	22.202	1181.344	911.111
237.972	22.279	1180.376	910.681
238.986	22.185	1180.500	910.208
240.001	22.367	1179.896	910.604
241.015	22.328	1178.378	909.150
242.030	22.507	1177.593	909.388
243.045	22.638	1177.643	910.025
244.059	22.657	1176.802	909.391
245.074	22.841	1175.733	909.433
246.088	22.856	1175.247	909.052
247.103	23.020	1174.839	909.501
248.117	23.135	1174.230	909.541
249.132	23.444	1174.162	910.998
250.147	23.732	1173.906	912.195
251.161	23.952	1173.586	912.996
252.176	23.900	1172.249	911.611
253.190	24.000	1172.002	911.850
254.205	24.131	1171.639	912.156
255.220	24.141	1171.049	911.669
256.234	24.154	1170.179	910.975
257.249	24.030	1169.514	909.743
258.263	23.941	1168.758	908.621
259.278	23.942	1167.861	907.845
260.293	23.912	1167.667	907.461
261.307	24.089	1166.975	907.747
262.322	24.153	1166.174	907.371
263.336	24.042	1165.784	906.424
264.351	24.060	1165.528	906.236
265.366	24.012	1165.304	905.736
266.380	24.156	1163.824	905.236
267.395	24.011	1162.710	903.556
268.409	23.684	1162.267	901.472
269.424	23.735	1161.275	900.878
270.439	23.823	1161.388	901.331
271.453	23.770	1159.902	899.831
272.468	23.586	1158.651	897.851
273.482	23.457	1158.057	896.659
274.497	23.399	1157.422	895.796
275.512	23.484	1156.342	895.306
276.526	23.464	1155.861	894.757
277.541	23.475	1155.323	894.318
278.555	23.685	1154.736	894.841
279.570	23.943	1154.519	895.893
280.585	23.964	1154.341	895.782
281.599	24.003	1152.845	894.739
282.614	23.858	1151.458	892.856
283.628	23.523	1150.544	890.387
284.643	23.629	1149.399	889.953
285.657	23.562	1148.902	889.154
286.672	23.556	1147.982	888.333
287.687	23.660	1147.278	888.230
288.701	23.710	1146.042	887.445
289.716	23.595	1145.964	886.730
290.730	23.500	1145.188	885.577
291.745	23.630	1144.325	885.479
292.760	23.665	1144.046	885.359
293.774	23.767	1143.321	885.226
294.789	23.921	1143.165	885.796
295.803	23.937	1142.254	885.092
296.818	23.691	1141.373	883.106
297.833	23.664	1140.906	882.531
298.847	23.577	1139.875	881.225
299.862	23.554	1139.166	880.483
300.876	23.654	1138.390	880.305
301.891	23.727	1138.362	880.565
302.906	23.999	1137.400	881.089
303.920	24.187	1137.105	881.713
304.935	24.285	1136.888	881.954
305.949	24.324	1136.533	881.792
306.964	24.328	1135.620	881.028
307.979	24.184	1134.364	879.262
308.993	23.984	1133.953	877.882
310.008	24.111	1133.177	877.826
311.022	24.261	1132.375	877.869
312.037	24.205	1131.600	876.911
313.052	23.873	1130.560	874.399
314.066	23.700	1129.248	872.455
315.081	23.458	1128.074	870.286
316.095	23.356	1127.308	869.117
317.110	23.521	1126.238	869.020
318.125	23.429	1125.906	868.237
319.139	23.451	1125.440	867.909
320.154	23.457	1124.434	867.084
321.168	23.386	1123.928	866.274
322.183	23.486	1123.303	866.204
323.197	23.600	1122.864	866.344
324.212	23.598	1122.204	865.747
325.227	23.651	1122.031	865.798
326.241	23.779	1121.176	865.685
327.256	23.622	1120.184	864.076
328.270	23.585	1119.367	863.191
329.285	23.556	1118.600	862.381
330.300	23.582	1117.635	861.688
331.314	23.631	1116.735	861.154
332.329	23.442	1116.199	859.750
333.343	23.558	1115.143	859.421
334.358	23.738	1115.162	860.232
335.373	23.942	1114.401	860.557
336.387	23.996	1114.043	860.466
337.402	24.022	1113.197	859.861
338.416	24.142	1112.366	859.722
339.431	24.079	1112.221	859.229
340.446	24.418	1111.832	860.486
341.460	24.663	1111.023	860.967
342.475	24.794	1110.449	861.078
343.489	24.712	1109.329	859.736
344.504	24.721	1108.636	859.165
345.519	24.836	1107.863	859.042
346.533	24.870	1107.348	858.734
347.548	24.971	1106.647	858.595
348.562	24.768	1105.565	856.710
349.577	24.478	1104.288	854.259
350.592	24.133	1103.122	851.631
351.606	23.863	1102.492	849.776
352.621	23.882	1101.375	848.931
353.635	23.932	1100.635	848.525
354.650	23.738	1100.558	847.463
355.665	23.882	1099.676	847.398
356.679	23.962	1099.620	847.658
357.694	24.157	1098.744	847.840
358.708	24.233	1098.093	847.621
359.723	24.303	1097.446	847.382
360.738	24.222	1097.025	846.597
361.752	24.156	1096.489	845.793
362.767	24.344	1096.018	846.250
363.781	24.184	1095.396	844.932
364.796	24.526	1094.815	846.029
365.810	24.825	1094.574	847.188
366.825	24.875	1094.071	846.959
367.840	25.029	1093.979	847.542
368.854	25.268	1093.378	848.130
369.869	25.208	1092.355	846.979
370.883	24.978	1091.255	844.965
371.898	24.724	1090.698	843.264
372.913	24.709	1089.976	842.559
373.927	24.833	1089.702	842.857
374.942	24.941	1089.233	842.927
375.956	24.817	1088.898	842.009
376.971	24.746	1087.931	840.855
377.986	24.849	1087.667	841.061
379.000	25.106	1087.294	841.903
380.015	25.237	1086.616	841.921
381.029	25.154	1086.458	841.333
382.044	25.149	1085.676	840.629
383.059	25.194	1084.444	839.813
384.073	25.027	1083.833	838.482
385.088	25.144	1082.955	838.274
386.102	25.216	1081.936	837.750
387.117	24.866	1080.626	835.030
388.132	24.587	1079.359	832.676
389.146	24.601	1078.609	832.088
390.161	24.502	1078.366	831.365
391.175	24.465	1077.275	830.280
392.190	24.590	1077.178	830.712
393.205	24.948	1076.730	831.958
394.219	25.068	1075.697	831.640
395.234	24.801	1074.740	829.589
396.248	24.638	1073.247	827.608
397.263	24.611	1072.325	826.703
398.278	24.529	1072.109	826.083
399.292	24.504	1070.985	825.026
400.307	24.487	1070.509	824.511
401.321	24.365	1069.700	823.251
402.336	24.154	1069.309	821.903
403.350	24.254	1068.160	821.407
404.365	24.396	1068.070	821.921
405.380	24.525	1067.826	822.256
406.394	24.618	1066.550	821.626
407.409	24.709	1066.735	822.114
408.423	25.155	1065.691	823.285
409.438	25.133	1065.575	823.020
410.453	25.199	1064.961	822.776
411.467	25.352	1064.260	822.864
412.482	25.308	1063.190	821.764
413.496	25.384	1062.903	821.813
414.511	25.447	1062.489	821.710
415.526	25.521	1062.198	821.752
416.540	25.735	1061.597	822.193
417.555	25.783	1060.734	821.671
418.569	25.523	1060.090	819.911
419.584	25.465	1059.913	819.438
420.599	25.343	1059.303	818.336
421.613	155.324	1403.833	1795.588
422.628	142.762	1454.012	1795.683
