DTS Sentinel unit serial number:	SN413079Multiplexer serial number:	ORYXHardware model number:	OX4-SRSoftware version number:	ORYX F/W v4.00 Oryx Data Collector v3.7.2.0data status	okinstallation	princeton_trtdifferential loss correction	single-endedforward channel	channel 2reverse channel	N/Adate	2019/09/15time	23:19:34forward acquisition time	60.00reverse acquisition time	0.00gamma	496.2192k internal	0.2335k external	0.2335temperature offset calibration	0.9953default loss term (dB/km)	0.3790temperature slope calibration	1.0000multiplexer offset coefficient	1.0000multiplexer slope coefficient	1.0000fibre end	0.00T internal ref (°C)	28.31T ext. ref 1 (°C)	9.10T ext. ref 2 (°C)	22.02length (m)	temperature (°C)	Stokes	anti-Stokes-747.200	-67.707	-0.363	-0.143
-746.185	800.000	0.009	-0.039
-745.171	134.989	0.161	-0.210
-744.156	195.593	-0.083	0.127
-743.142	800.000	0.069	-0.276
-742.127	-200.000	-0.043	0.239
-741.112	-139.946	0.379	-0.040
-740.098	19.224	-0.234	0.189
-739.083	-200.000	-0.018	0.296
-738.069	30.203	0.205	0.176
-737.054	129.885	0.049	0.063
-736.039	-124.466	-0.242	-0.038
-735.025	-45.507	-0.256	0.127
-734.010	117.840	-0.029	0.036
-732.996	85.703	0.157	-0.173
-731.981	-90.585	0.324	0.094
-730.966	229.810	-0.067	0.110
-729.952	356.430	-0.228	-0.457
-728.937	194.061	-0.005	-0.008
-727.923	565.506	-0.048	0.118
-726.908	156.872	-0.254	-0.352
-725.894	-200.000	0.000	-0.241
-724.879	9.065	-0.198	0.150
-723.864	-200.000	0.007	0.116
-722.850	197.163	-0.138	-0.212
-721.835	484.625	-0.076	-0.173
-720.821	529.301	0.194	-0.459
-719.806	288.628	-0.092	0.168
-718.791	-21.749	-0.239	-0.146
-717.777	-72.196	-0.022	0.008
-716.762	-151.730	-0.381	-0.028
-715.748	158.308	-0.074	-0.103
-714.733	-200.000	-0.008	-0.197
-713.718	8.733	-0.267	-0.202
-712.704	-30.067	0.100	-0.057
-711.689	24.416	0.257	-0.213
-710.675	260.746	0.278	-0.483
-709.660	-142.026	0.338	-0.034
-708.645	-110.984	0.214	0.044
-707.631	131.550	-0.212	0.274
-706.616	-200.000	-0.045	0.353
-705.602	-69.072	0.239	-0.092
-704.587	-200.000	-0.003	-0.166
-703.572	41.399	-0.213	-0.193
-702.558	-170.611	-0.255	-0.009
-701.543	-200.000	-0.049	-0.281
-700.529	-104.715	-0.439	-0.101
-699.514	677.856	-0.044	0.115
-698.499	328.715	0.056	-0.107
-697.485	-200.000	-0.003	-0.149
-696.470	-167.768	-0.345	0.014
-695.456	-103.721	-0.242	-0.057
-694.441	-59.552	0.159	-0.068
-693.426	-43.073	0.297	-0.151
-692.412	-200.000	0.005	0.066
-691.397	800.000	0.044	0.139
-690.383	-17.951	0.033	-0.021
-689.368	-144.625	-0.162	0.015
-688.354	800.000	0.108	-0.329
-687.339	44.756	-0.119	0.110
-686.324	-200.000	0.043	-0.211
-685.310	-138.870	0.117	0.013
-684.295	-200.000	0.008	-0.038
-683.281	-32.996	0.234	-0.130
-682.266	45.530	0.110	0.101
-681.251	32.251	-0.217	-0.188
-680.237	800.000	0.080	0.334
-679.222	-200.000	-0.012	-0.352
-678.208	800.000	-0.050	0.199
-677.193	800.000	0.009	-0.029
-676.178	800.000	-0.016	0.062
-675.164	-18.324	-0.116	-0.073
-674.149	300.551	0.038	-0.070
-673.135	-200.000	-0.032	0.186
-672.120	800.000	-0.076	0.284
-671.105	800.000	0.050	-0.144
-670.091	-9.322	-0.180	-0.121
-669.076	-173.157	0.368	0.011
-668.062	800.000	-0.099	0.299
-667.047	-38.764	0.116	-0.061
-666.032	18.033	0.262	-0.209
-665.018	800.000	-0.055	-0.234
-664.003	20.429	-0.082	-0.067
-662.989	252.307	0.076	-0.130
-661.974	800.000	0.032	-0.141
-660.959	53.424	0.317	0.304
-659.945	9.895	-0.111	0.084
-658.930	-57.425	0.173	-0.076
-657.916	114.482	-0.035	-0.042
-656.901	99.232	0.122	0.141
-655.886	181.984	-0.022	-0.032
-654.872	723.927	-0.079	-0.210
-653.857	10.921	-0.152	0.116
-652.843	-200.000	0.012	-0.220
-651.828	502.382	0.057	0.131
-650.814	43.666	-0.225	0.206
-649.799	209.027	-0.093	0.145
-648.784	-85.504	-0.046	-0.014
-647.770	-50.164	-0.257	-0.122
-646.755	-39.641	-0.169	-0.088
-645.741	-52.046	0.203	-0.094
-644.726	60.131	0.133	-0.131
-643.711	-88.823	0.158	0.047
-642.697	125.258	0.196	-0.247
-641.682	313.884	-0.075	-0.142
-640.668	-18.990	-0.031	0.019
-639.653	-44.602	0.048	0.024
-638.638	16.964	0.331	0.262
-637.624	-16.699	-0.185	-0.117
-636.609	-43.575	-0.090	0.045
-635.595	185.929	0.130	0.193
-634.580	212.600	-0.039	0.062
-633.565	38.201	-0.102	0.091
-632.551	-142.533	-0.219	0.022
-631.536	-45.726	0.126	-0.062
-630.522	-120.329	-0.270	-0.046
-629.507	800.000	-0.056	-0.241
-628.492	-137.211	0.159	0.018
-627.478	-105.625	-0.317	0.072
-626.463	-200.000	-0.029	-0.180
-625.449	19.018	0.080	0.064
-624.434	33.864	-0.214	-0.186
-623.419	69.705	0.383	-0.395
-622.405	-160.262	0.099	0.005
-621.390	185.332	-0.097	-0.144
-620.376	10.080	-0.329	-0.250
-619.361	-200.000	-0.020	-0.199
-618.346	8.062	0.023	-0.018
-617.332	100.625	0.073	0.084
-616.317	-88.553	-0.312	0.093
-615.303	800.000	-0.001	-0.003
-614.288	-46.178	-0.297	-0.146
-613.273	-200.000	0.014	-0.204
-612.259	-37.143	0.338	0.181
-611.244	360.951	-0.100	0.200
-610.230	800.000	0.086	-0.281
-609.215	-200.000	0.020	0.133
-608.201	331.137	0.163	-0.313
-607.186	800.000	-0.054	-0.195
-606.171	15.251	0.251	0.197
-605.157	-200.000	-0.031	-0.160
-604.142	-69.946	-0.372	0.142
-603.128	-183.494	0.154	-0.003
-602.113	-99.507	-0.268	0.067
-601.098	435.238	0.069	0.151
-600.084	800.000	-0.106	0.311
-599.069	-166.542	-0.356	0.015
-598.055	-134.783	-0.049	0.006
-597.040	-200.000	0.030	0.191
-596.025	52.137	-0.091	0.086
-595.011	250.327	-0.142	0.241
-593.996	-200.000	0.010	0.126
-592.982	-200.000	0.041	0.341
-591.967	-70.138	-0.236	0.090
-590.952	42.475	-0.211	0.192
-589.938	-200.000	0.014	0.129
-588.923	-24.897	-0.226	-0.134
-587.909	-2.006	-0.290	-0.204
-586.894	273.915	0.089	0.157
-585.879	-200.000	-0.005	-0.318
-584.865	341.515	0.117	-0.229
-583.850	-200.000	-0.022	0.368
-582.836	-200.000	-0.074	-0.394
-581.821	-200.000	-0.022	-0.154
-580.806	50.108	-0.146	0.137
-579.792	-200.000	-0.050	-0.275
-578.777	-32.702	-0.322	0.179
-577.763	-111.739	0.174	-0.035
-576.748	-152.786	0.431	-0.031
-575.733	24.398	0.336	-0.277
-574.719	25.158	0.013	0.011
-573.704	-200.000	0.044	-0.216
-572.690	-84.271	-0.182	0.057
-571.675	-37.291	0.041	-0.022
-570.661	800.000	-0.073	0.216
-569.646	-31.519	0.026	0.014
-568.631	140.921	0.076	-0.100
-567.617	29.024	-0.072	-0.061
-566.602	-16.482	-0.155	0.098
-565.588	189.864	0.154	0.230
-564.573	38.648	0.218	-0.194
-563.558	-75.247	0.252	0.090
-562.544	4.327	0.374	0.274
-561.529	96.236	0.077	0.088
-560.515	-144.639	0.203	-0.019
-559.500	115.740	-0.168	-0.205
-558.485	-200.000	0.048	-0.593
-557.471	-93.632	-0.457	0.126
-556.456	-200.000	0.055	0.517
-555.442	172.406	0.042	0.060
-554.427	90.941	-0.250	-0.279
-553.412	-122.728	0.188	-0.030
-552.398	9.091	0.106	0.080
-551.383	-24.541	-0.144	0.085
-550.369	84.824	0.102	-0.112
-549.354	74.063	0.130	-0.136
-548.339	-138.680	0.124	0.014
-547.325	130.021	-0.158	-0.202
-546.310	-199.993	-0.362	0.002
-545.296	117.078	-0.286	0.350
-544.281	245.572	0.143	-0.239
-543.266	-161.215	0.097	-0.005
-542.252	-59.393	0.030	0.013
-541.237	98.746	-0.145	-0.167
-540.223	-200.000	0.008	-0.048
-539.208	800.000	0.057	-0.191
-538.193	-21.126	-0.217	0.132
-537.179	-118.559	0.060	-0.011
-536.164	-54.918	-0.223	0.100
-535.150	205.827	-0.107	0.166
-534.135	90.580	0.158	-0.177
-533.121	377.189	0.119	0.242
-532.106	571.452	-0.070	0.169
-531.091	-101.365	0.276	0.067
-530.077	-127.832	0.126	-0.018
-529.062	64.898	-0.210	-0.212
-528.048	-200.000	0.036	-0.318
-527.033	450.173	-0.073	0.160
-526.018	308.437	-0.289	0.537
-525.004	-200.000	-0.015	-0.168
-523.989	135.562	0.044	-0.057
-522.975	800.000	-0.065	-0.212
-521.960	-42.107	-0.079	-0.040
-520.945	-133.353	0.202	0.025
-519.931	69.360	0.010	-0.010
-518.916	39.257	-0.040	0.036
-517.902	800.000	0.049	-0.188
-516.887	57.257	0.087	-0.084
-515.872	-48.405	-0.235	0.113
-514.858	-63.350	-0.132	-0.054
-513.843	-114.943	0.140	0.027
-512.829	447.639	0.003	0.006
-511.814	63.387	0.222	-0.222
-510.799	375.445	0.066	-0.133
-509.785	800.000	0.059	0.206
-508.770	158.719	0.075	0.103
-507.756	-133.524	0.260	-0.032
-506.741	340.398	-0.066	-0.128
-505.726	277.382	-0.136	0.241
-504.712	54.948	-0.098	-0.095
-503.697	-109.103	-0.332	-0.070
-502.683	-200.000	0.016	-0.132
-501.668	-105.127	-0.177	0.040
-500.653	36.548	-0.147	0.129
-499.639	0.763	0.098	-0.070
-498.624	-78.267	0.149	0.051
-497.610	215.394	0.074	-0.118
-496.595	-31.690	-0.291	0.162
-495.581	121.328	-0.297	-0.368
-494.566	-87.573	0.301	0.090
-493.551	-135.154	-0.422	0.050
-492.537	-200.000	0.039	0.225
-491.522	800.000	0.048	-0.150
-490.508	-200.000	-0.026	0.120
-489.493	285.011	-0.117	0.210
-488.478	667.681	-0.107	-0.274
-487.464	215.339	-0.064	0.102
-486.449	-86.578	-0.289	-0.088
-485.435	-7.469	0.129	0.087
-484.420	-51.628	-0.203	-0.094
-483.405	800.000	0.109	0.365
-482.391	-121.910	-0.411	-0.067
-481.376	12.778	-0.084	0.064
-480.362	-138.058	0.400	0.044
-479.347	-200.000	0.016	0.248
-478.332	-99.562	0.332	0.083
-477.318	-95.914	-0.183	-0.048
-476.303	-85.938	0.213	-0.066
-475.289	537.958	-0.078	0.183
-474.274	-200.000	0.075	-0.327
-473.259	-118.609	0.144	-0.025
-472.245	-110.037	0.258	-0.054
-471.230	-122.100	-0.105	-0.017
-470.216	-60.106	-0.129	0.055
-469.201	209.802	-0.139	0.217
-468.186	-39.641	0.433	-0.225
-467.172	57.185	0.045	-0.044
-466.157	-97.648	-0.212	-0.055
-465.143	-49.627	-0.216	-0.102
-464.128	225.219	-0.106	-0.170
-463.113	195.491	-0.165	-0.249
-462.099	-130.256	-0.077	0.010
-461.084	231.251	0.126	-0.205
-460.070	334.095	0.135	0.260
-459.055	-134.767	-0.338	-0.041
-458.040	-200.000	0.019	0.214
-457.026	-129.238	0.248	0.034
-456.011	800.000	-0.124	0.491
-454.997	-83.195	-0.259	0.083
-453.982	72.853	0.286	0.297
-452.968	-63.662	0.263	0.107
-451.953	566.208	0.037	0.089
-450.938	581.924	-0.160	-0.391
-449.924	-33.794	0.205	0.112
-448.909	-93.482	-0.509	-0.140
-447.895	-200.000	0.036	-0.185
-446.880	-94.868	0.115	0.031
-445.865	-182.447	0.257	-0.005
-444.851	-41.354	-0.177	0.090
-443.836	-200.000	-0.003	-0.109
-442.822	-200.000	0.008	0.224
-441.807	42.824	0.198	-0.179
-440.792	244.341	-0.158	0.264
-439.778	-195.672	-0.078	-0.001
-438.763	34.403	0.194	0.168
-437.749	-200.000	0.013	0.087
-436.734	-98.261	0.172	0.044
-435.719	-24.745	-0.249	-0.147
-434.705	-55.286	-0.124	0.055
-433.690	41.021	0.079	-0.071
-432.676	271.607	-0.098	0.172
-431.661	-200.000	0.009	0.108
-430.646	192.973	-0.215	0.322
-429.632	-30.532	0.162	0.091
-428.617	-53.404	0.148	0.067
-427.603	91.353	-0.159	0.177
-426.588	800.000	0.055	-0.223
-425.573	-200.000	0.026	0.115
-424.559	-8.062	-0.545	0.364
-423.544	-4.893	0.232	-0.158
-422.530	-200.000	-0.002	-0.042
-421.515	-108.710	0.389	0.083
-420.500	181.735	0.239	-0.350
-419.486	-200.000	0.009	0.292
-418.471	-20.235	0.349	-0.213
-417.457	-200.000	0.299	-0.001
-416.442	-200.000	0.039	0.262
-415.428	800.000	-0.016	0.047
-414.413	-149.549	0.167	0.013
-413.398	800.000	0.073	-0.297
-412.384	-94.612	0.414	-0.112
-411.369	33.530	-0.070	0.060
-410.355	-200.000	0.008	0.242
-409.340	427.987	-0.170	-0.364
-408.325	44.971	-0.283	0.258
-407.311	-112.177	-0.261	0.052
-406.296	-48.107	0.208	0.100
-405.282	-200.000	-0.030	0.172
-404.267	-29.183	0.121	0.069
-403.252	-200.000	0.034	-0.188
-402.238	-0.068	0.170	0.120
-401.223	-200.000	0.034	0.167
-400.209	4.553	-0.444	-0.323
-399.194	-200.000	-0.012	-0.133
-398.179	-141.549	0.279	-0.028
-397.165	-6.033	0.158	0.107
-396.150	-142.110	0.200	-0.020
-395.136	39.778	-0.203	0.180
-394.121	448.493	-0.081	0.176
-393.106	800.000	-0.056	0.189
-392.092	-55.636	-0.173	-0.077
-391.077	-116.073	-0.326	-0.060
-390.063	-13.374	0.314	-0.202
-389.048	-28.621	-0.051	0.029
-388.033	587.999	0.009	-0.022
-387.019	247.164	-0.152	-0.253
-386.004	-148.493	0.304	0.025
-384.990	-200.000	-0.004	0.307
-383.975	-200.000	-0.020	-0.131
-382.960	-4.884	-0.363	-0.248
-381.946	-185.540	-0.068	-0.001
-380.931	36.788	0.187	-0.164
-379.917	-80.243	0.063	-0.021
-378.902	77.825	-0.057	-0.060
-377.888	153.931	-0.086	-0.117
-376.873	232.274	0.255	0.415
-375.858	-57.436	0.168	0.073
-374.844	-20.729	-0.129	0.079
-373.829	-89.361	0.358	0.104
-372.815	-152.611	0.270	-0.019
-371.800	-93.383	-0.491	-0.135
-370.785	399.137	0.189	-0.393
-369.771	-108.553	0.422	-0.090
-368.756	-68.312	0.124	-0.048
-367.742	135.481	-0.066	0.085
-366.727	566.094	0.162	0.388
-365.712	112.173	0.143	-0.171
-364.698	800.000	-0.093	-0.296
-363.683	-23.402	0.090	-0.053
-362.669	-34.129	0.245	0.133
-361.654	800.000	0.052	-0.185
-360.639	-155.718	-0.050	0.003
-359.625	650.080	0.092	0.232
-358.610	37.278	-0.205	0.180
-357.596	40.848	-0.130	0.116
-356.581	-73.725	-0.150	0.054
-355.566	-200.000	0.031	0.217
-354.552	-111.950	0.173	-0.035
-353.537	-200.000	-0.032	0.189
-352.523	800.000	0.044	-0.132
-351.508	-41.959	-0.099	-0.050
-350.493	-99.290	-0.061	-0.015
-349.479	-145.494	0.312	0.028
-348.464	47.132	0.215	0.198
-347.450	-48.097	-0.013	-0.006
-346.435	551.905	-0.226	-0.537
-345.420	-200.000	0.074	-0.389
-344.406	-200.000	-0.005	0.242
-343.391	800.000	0.100	-0.346
-342.377	475.340	-0.135	-0.301
-341.362	137.744	0.109	-0.141
-340.348	146.699	0.164	0.217
-339.333	521.095	0.073	0.170
-338.318	-86.362	-0.117	0.035
-337.304	62.823	0.059	-0.059
-336.289	725.192	0.157	-0.414
-335.275	-200.000	0.000	-0.007
-334.260	-200.000	0.009	0.519
-333.245	-48.438	-0.163	0.077
-332.231	-179.367	-0.461	-0.010
-331.216	159.258	0.144	0.197
-330.202	-126.473	0.271	-0.040
-329.187	16.011	0.170	0.132
-328.172	-130.454	-0.298	0.040
-327.158	-129.152	-0.189	0.026
-326.143	-111.379	0.167	0.034
-325.129	-28.516	-0.064	0.037
-324.114	800.000	-0.058	-0.168
-323.099	305.811	0.093	0.172
-322.085	13.107	0.039	0.030
-321.070	-123.041	-0.402	0.064
-320.056	-93.675	0.160	-0.044
-319.041	-200.000	0.054	-0.242
-318.026	-103.357	-0.398	-0.093
-317.012	32.267	-0.162	-0.138
-315.997	194.599	0.264	0.395
-314.983	16.417	0.302	0.236
-313.968	-106.624	-0.072	-0.016
-312.953	48.317	0.059	0.055
-311.939	527.124	-0.059	-0.136
-310.924	373.496	-0.168	-0.337
-309.910	-200.000	0.016	-0.119
-308.895	28.356	0.144	-0.120
-307.880	800.000	-0.017	-0.071
-306.866	12.590	0.138	-0.105
-305.851	-200.000	-0.002	-0.109
-304.837	84.877	-0.224	-0.243
-303.822	-200.000	-0.003	0.201
-302.807	-200.000	0.049	0.299
-301.793	-29.322	-0.374	-0.211
-300.778	-83.438	0.107	0.034
-299.764	65.614	0.136	0.136
-298.749	56.757	0.177	-0.170
-297.735	-47.591	0.373	0.179
-296.720	281.493	0.058	-0.102
-295.705	-93.959	-0.405	0.110
-294.691	800.000	0.070	0.198
-293.676	480.245	-0.047	-0.105
-292.662	137.571	0.092	-0.119
-291.647	-71.778	-0.120	-0.044
-290.632	507.513	-0.159	-0.364
-289.618	131.022	-0.033	-0.042
-288.603	800.000	0.043	0.119
-287.589	-200.000	-0.022	-0.144
-286.574	96.788	-0.050	-0.057
-285.559	-200.000	0.022	0.186
-284.545	392.936	0.151	-0.310
-283.530	412.310	-0.200	0.420
-282.516	244.596	0.058	-0.097
-281.501	-19.272	-0.121	0.074
-280.486	712.933	0.097	-0.252
-279.472	800.000	0.065	-0.208
-278.457	155.580	-0.057	0.078
-277.443	414.112	0.081	0.170
-276.428	35.011	-0.222	-0.192
-275.413	115.461	-0.100	-0.120
-274.399	-10.573	-0.246	-0.160
-273.384	-200.000	-0.073	0.341
-272.370	-52.364	-0.269	0.123
-271.355	-90.753	-0.066	-0.019
-270.340	106.360	-0.116	-0.136
-269.326	552.937	-0.139	0.329
-268.311	252.532	-0.210	0.353
-267.297	-194.651	0.157	0.001
-266.282	-141.437	-0.281	0.028
-265.267	-129.795	0.081	0.011
-264.253	-1.842	0.276	0.191
-263.238	38.134	0.186	0.163
-262.224	-126.998	0.185	0.027
-261.209	671.804	-0.026	0.066
-260.195	-200.000	-0.021	-0.173
-259.180	188.072	-0.127	0.187
-258.165	-200.000	0.007	0.195
-257.151	800.000	-0.061	0.186
-256.136	477.189	0.169	-0.377
-255.122	-200.000	0.009	0.131
-254.107	170.634	-0.062	-0.087
-253.092	665.256	0.046	0.117
-252.078	-136.177	0.105	-0.012
-251.063	-140.289	-0.332	-0.034
-250.049	-56.118	-0.319	-0.140
-249.034	-22.394	-0.257	-0.153
-248.019	-62.358	0.112	0.046
-247.005	800.000	-0.049	0.187
-245.990	434.171	0.134	0.286
-244.976	-200.000	0.043	0.253
-243.961	505.194	0.164	-0.375
-242.946	-200.000	0.031	-0.429
-241.932	-200.000	0.012	0.198
-240.917	34.032	-0.126	-0.108
-239.903	-98.489	-0.192	-0.048
-238.888	290.081	0.126	0.226
-237.873	-112.129	0.515	0.102
-236.859	68.243	0.212	-0.214
-235.844	800.000	0.052	-0.193
-234.830	800.000	0.057	-0.234
-233.815	-48.411	-0.231	-0.109
-232.800	-82.672	0.354	-0.113
-231.786	-114.452	0.236	0.045
-230.771	81.450	0.097	-0.104
-229.757	222.245	0.111	0.176
-228.742	-141.172	-0.241	0.024
-227.727	-7.883	-0.196	-0.130
-226.713	78.206	0.197	-0.207
-225.698	-62.783	0.237	-0.097
-224.684	571.785	0.109	-0.260
-223.669	-62.737	-0.228	0.093
-222.655	-200.000	-0.015	0.519
-221.640	-136.652	-0.157	0.018
-220.625	47.184	-0.227	0.208
-219.611	-46.167	0.497	0.241
-218.596	166.231	-0.100	-0.140
-217.582	-98.592	0.330	0.083
-216.567	-41.747	-0.244	0.123
-215.552	-111.339	-0.239	0.048
-214.538	-89.236	-0.158	-0.046
-213.523	-200.000	-0.035	0.333
-212.509	-126.808	0.100	0.015
-211.494	800.000	0.059	0.217
-210.479	192.010	-0.168	-0.249
-209.465	-94.352	0.369	0.099
-208.450	-110.130	0.197	0.040
-207.436	171.087	-0.062	0.087
-206.421	301.627	0.141	-0.256
-205.406	-133.237	-0.371	-0.046
-204.392	-200.000	0.005	0.176
-203.377	-75.128	-0.098	0.035
-202.363	-71.249	0.098	-0.036
-201.348	750.761	-0.094	-0.249
-200.333	-200.000	0.116	-0.528
-199.319	-193.168	-0.189	0.002
-198.304	540.054	0.006	-0.014
-197.290	-125.480	0.126	-0.019
-196.275	-164.130	0.003	-0.000
-195.260	407.124	0.084	0.174
-194.246	-121.107	0.152	-0.025
-193.231	-11.641	0.139	0.090
-192.217	60.462	-0.166	-0.162
-191.202	375.130	-0.096	-0.192
-190.187	-107.749	0.211	-0.045
-189.173	114.266	-0.080	0.096
-188.158	42.353	-0.115	-0.103
-187.144	-54.548	-0.342	-0.152
-186.129	-125.917	0.074	-0.011
-185.114	-7.325	0.213	0.142
-184.100	252.328	-0.014	0.024
-183.085	384.915	0.077	-0.156
-182.071	-20.892	0.104	-0.063
-181.056	417.514	-0.059	-0.124
-180.042	67.758	0.116	-0.117
-179.027	-142.594	-0.236	-0.023
-178.012	-97.687	0.182	0.046
-176.998	-57.672	0.240	-0.103
-175.983	688.213	0.078	0.200
-174.969	800.000	0.030	-0.100
-173.954	372.396	0.158	0.315
-172.939	-200.000	0.005	0.047
-171.925	163.902	-0.078	0.107
-170.910	201.562	0.142	0.215
-169.896	-200.000	-0.019	0.113
-168.881	139.414	0.038	0.050
-167.866	800.000	-0.034	-0.128
-166.852	-179.785	-0.267	0.006
-165.837	-130.890	0.295	0.039
-164.823	112.948	-0.101	-0.120
-163.808	176.052	0.117	-0.167
-162.793	-200.000	-0.010	0.046
-161.779	800.000	-0.052	-0.195
-160.764	91.538	-0.131	0.144
-159.750	398.338	0.077	0.159
-158.735	-200.000	0.032	-0.149
-157.720	134.520	0.185	0.236
-156.706	-30.965	0.315	0.175
-155.691	-142.859	-0.209	0.020
-154.677	662.882	0.086	-0.219
-153.662	800.000	0.029	-0.082
-152.647	800.000	0.047	0.137
-151.633	-161.207	0.073	0.004
-150.618	-53.699	0.165	-0.074
-149.604	800.000	0.020	-0.073
-148.589	800.000	-0.054	0.182
-147.574	-164.695	0.100	-0.004
-146.560	-7.027	-0.329	0.219
-145.545	62.347	0.492	0.482
-144.531	90.769	-0.119	-0.131
-143.516	213.962	0.053	0.082
-142.502	-42.698	-0.367	-0.183
-141.487	387.371	-0.131	0.265
-140.472	800.000	0.018	-0.060
-139.458	-91.419	0.383	0.107
-138.443	-6.343	0.147	0.098
-137.429	-200.000	0.040	0.276
-136.414	-153.272	-0.227	-0.016
-135.399	-116.750	0.162	0.029
-134.385	-182.498	-0.123	-0.002
-133.370	65.592	-0.142	0.141
-132.356	14.726	0.024	-0.019
-131.341	800.000	0.069	-0.252
-130.326	-83.901	0.255	0.080
-129.312	116.522	0.200	0.240
-128.297	35.586	0.160	0.138
-127.283	-165.524	-0.268	0.011
-126.268	25.919	0.259	0.211
-125.253	-32.272	0.223	0.122
-124.239	-69.497	-0.292	-0.110
-123.224	524.972	0.152	0.351
-122.210	172.712	-0.094	-0.133
-121.195	800.000	-0.122	0.369
-120.180	-113.120	-0.176	0.034
-119.166	-74.958	-0.308	-0.108
-118.151	-148.151	-0.230	-0.019
-117.137	147.835	-0.109	0.144
-116.122	-43.913	-0.166	0.082
-115.107	84.928	0.138	0.148
-114.093	-31.479	0.206	0.114
-113.078	-168.060	-0.143	-0.005
-112.064	-200.000	-0.009	-0.189
-111.049	189.419	-0.039	0.058
-110.034	81.248	0.032	-0.034
-109.020	-48.590	0.269	-0.127
-108.005	-102.006	0.174	0.041
-106.991	200.223	0.154	-0.232
-105.976	317.466	0.156	-0.289
-104.962	83.356	-0.150	-0.160
-103.947	98.754	-0.203	0.229
-102.932	-200.000	0.043	-0.187
-101.918	9.492	0.078	0.058
-100.903	153.794	-0.234	-0.314
-99.889	800.000	0.094	0.261
-98.874	-107.030	0.131	0.028
-97.859	-101.447	-0.324	-0.077
-96.845	45.628	0.099	-0.090
-95.830	-73.812	0.267	-0.095
-94.816	-162.314	0.341	0.017
-93.801	-110.207	0.172	0.035
-92.786	266.275	-0.059	-0.101
-91.772	-69.138	-0.397	0.149
-90.757	-29.863	-0.102	-0.057
-89.743	800.000	0.087	0.256
-88.728	-70.515	-0.373	0.138
-87.713	800.000	0.094	-0.368
-86.699	92.609	-0.147	0.162
-85.684	-200.000	-0.001	0.082
-84.670	91.945	-0.250	-0.276
-83.655	-60.871	0.150	0.062
-82.640	800.000	0.053	-0.163
-81.626	800.000	-0.045	0.164
-80.611	171.852	0.083	0.116
-79.597	-200.000	0.067	0.314
-78.582	90.226	0.302	0.331
-77.567	-198.143	0.359	-0.002
-76.553	-200.000	-0.024	-0.242
-75.538	-200.000	-0.035	-0.156
-74.524	-34.641	0.063	0.034
-73.509	-200.000	0.095	-0.425
-72.494	286.538	0.119	-0.210
-71.480	314.747	-0.054	0.099
-70.465	-77.372	-0.177	-0.060
-69.451	-200.000	0.044	-0.221
-68.436	-85.516	-0.483	-0.147
-67.422	-98.212	0.374	-0.094
-66.407	359.762	-0.291	0.569
-65.392	-200.000	0.002	-0.361
-64.378	184.324	-0.074	-0.108
-63.363	-99.994	-0.140	0.034
-62.349	800.000	0.099	0.274
-61.334	42.408	-1.213	-1.079
-60.319	13.063	0.688	0.521
-59.305	-200.000	-0.278	-1.234
-58.290	-200.000	0.235	1.099
-57.276	260.908	0.774	1.310
-56.261	-200.000	110.232	641.216
-55.246	492.242	1483.087	3323.024
-54.232	150.687	2652.399	3524.417
-53.217	100.573	2269.547	2577.443
-52.203	37.448	1886.743	1635.871
-51.188	31.524	1679.525	1411.616
-50.173	28.964	1637.401	1357.295
-49.159	50.828	1691.159	1566.119
-48.144	50.384	1706.518	1576.964
-47.130	31.203	1665.027	1396.803
-46.115	28.439	1650.834	1364.304
-45.100	28.278	1645.979	1359.039
-44.086	28.212	1643.323	1356.304
-43.071	28.164	1641.034	1354.008
-42.057	28.129	1638.232	1351.381
-41.042	28.218	1636.209	1350.318
-40.027	28.192	1634.520	1348.678
-39.013	28.157	1632.846	1346.984
-37.998	28.130	1631.191	1345.372
-36.984	28.098	1630.344	1344.383
-35.969	28.219	1628.767	1343.917
-34.954	28.293	1626.873	1342.843
-33.940	28.257	1625.034	1341.011
-32.925	28.273	1623.585	1339.873
-31.911	28.295	1621.444	1338.214
-30.896	28.257	1619.600	1336.361
-29.881	28.244	1618.489	1335.301
-28.867	28.278	1616.457	1333.820
-27.852	28.277	1615.427	1332.908
-26.838	28.318	1613.484	1331.548
-25.823	28.296	1612.836	1330.803
-24.809	28.299	1611.176	1329.402
-23.794	28.342	1610.027	1328.710
-22.779	28.342	1608.531	1327.425
-21.765	28.321	1606.799	1325.795
-20.750	28.381	1604.972	1324.665
-19.736	28.306	1604.333	1323.544
-18.721	28.420	1602.435	1322.748
-17.706	28.425	1600.758	1321.350
-16.692	28.302	1599.409	1319.297
-15.677	28.430	1597.888	1318.911
-14.663	28.420	1596.874	1317.947
-13.648	28.371	1595.629	1316.517
-12.633	28.390	1594.056	1315.302
-11.619	28.292	1592.668	1313.401
-10.604	28.334	1591.264	1312.491
-9.590	28.413	1589.499	1311.548
-8.575	28.453	1588.537	1310.995
-7.560	28.442	1587.188	1309.744
-6.546	28.412	1586.369	1308.803
-5.531	28.378	1585.652	1307.922
-4.517	28.386	1584.198	1306.725
-3.502	28.305	1583.078	1305.174
-2.487	28.371	1581.341	1304.157
-1.473	27.866	1570.371	1291.488
-0.458	25.090	1550.332	1255.547
0.556	19.438	1551.474	1224.329
1.571	17.055	1574.981	1225.582
2.586	16.639	1587.037	1231.828
3.600	16.000	1536.492	1187.989
4.615	12.978	1438.675	1092.283
5.629	9.850	1383.645	1030.467
6.644	9.196	1376.318	1020.763
7.659	9.092	1375.434	1019.358
8.673	9.078	1374.093	1018.184
9.688	9.054	1371.698	1016.164
10.702	9.004	1368.701	1013.538
11.717	10.390	1371.193	1024.063
12.731	14.102	1377.662	1052.333
13.746	16.916	1381.793	1073.230
14.761	17.230	1380.760	1074.323
15.775	16.271	1378.457	1066.381
16.790	15.278	1375.551	1057.776
17.804	14.368	1373.504	1050.370
18.819	13.993	1371.921	1046.707
19.834	13.691	1370.370	1043.527
20.848	13.499	1369.346	1041.447
21.863	13.189	1368.417	1038.705
22.877	13.081	1367.221	1037.026
23.892	12.915	1366.413	1035.279
24.907	13.007	1365.444	1035.031
25.921	13.075	1364.149	1034.382
26.936	13.178	1363.550	1034.480
27.950	13.193	1362.362	1033.585
28.965	13.262	1361.758	1033.462
29.980	13.206	1360.569	1032.121
30.994	13.259	1358.704	1030.942
32.009	13.382	1357.704	1030.863
33.023	13.364	1356.546	1029.781
34.038	13.342	1355.351	1028.647
35.053	13.249	1354.016	1026.961
36.067	13.303	1352.549	1026.095
37.082	13.232	1351.954	1025.113
38.096	13.343	1350.746	1024.790
39.111	13.287	1350.497	1024.166
40.126	13.221	1349.446	1022.870
41.140	13.048	1348.336	1020.869
42.155	13.040	1347.627	1020.194
43.169	13.005	1347.579	1019.848
44.184	12.916	1347.559	1019.192
45.199	12.954	1346.639	1018.641
46.213	12.986	1346.834	1018.897
47.228	13.129	1345.413	1018.616
48.242	13.228	1343.725	1017.854
49.257	13.152	1342.410	1016.301
50.271	13.147	1341.156	1015.230
51.286	13.141	1340.099	1014.307
52.301	13.180	1339.197	1013.774
53.315	13.125	1337.901	1012.362
54.330	13.122	1336.353	1011.082
55.344	13.023	1335.709	1009.899
56.359	13.017	1334.958	1009.206
57.374	13.016	1333.762	1008.208
58.388	13.041	1332.701	1007.470
59.403	12.898	1332.734	1006.530
60.417	12.955	1331.700	1006.010
61.432	12.943	1331.075	1005.379
62.447	12.911	1329.523	1003.917
63.461	12.930	1328.229	1002.970
64.476	12.881	1327.566	1002.082
65.490	12.792	1326.275	1000.478
66.505	12.925	1324.821	1000.099
67.520	12.955	1323.630	999.297
68.534	12.948	1322.664	998.437
69.549	12.988	1321.809	997.943
70.563	12.856	1320.582	996.129
71.578	12.887	1319.614	995.497
72.593	12.815	1318.972	994.491
73.607	12.814	1317.841	993.545
74.622	12.812	1317.439	993.143
75.636	12.856	1316.613	992.698
76.651	12.812	1316.242	992.061
77.666	12.781	1315.738	991.413
78.680	12.865	1314.738	991.072
79.695	12.946	1314.054	990.960
80.709	12.961	1313.331	990.413
81.724	12.874	1312.598	989.251
82.739	13.075	1311.449	989.505
83.753	13.003	1310.980	988.633
84.768	13.100	1309.813	988.241
85.782	13.156	1308.859	987.772
86.797	13.255	1307.211	987.030
87.812	13.069	1306.186	985.063
88.826	13.166	1304.922	984.600
89.841	13.165	1304.181	983.946
90.855	13.204	1303.078	983.257
91.870	13.282	1302.073	982.879
92.884	13.302	1301.022	982.113
93.899	13.266	1300.538	981.453
94.914	13.297	1299.524	980.779
95.928	13.370	1298.815	980.594
96.943	13.273	1297.947	979.278
97.957	13.239	1296.825	978.138
98.972	13.193	1296.019	977.173
99.987	13.157	1295.071	976.159
101.001	13.115	1294.169	975.145
102.016	13.234	1293.309	975.115
103.030	13.290	1292.191	974.516
104.045	13.268	1291.049	973.440
105.060	13.090	1290.289	971.734
106.074	12.947	1288.695	969.604
107.089	13.079	1286.761	968.840
108.103	12.827	1286.030	966.724
109.118	12.943	1284.774	966.377
110.133	13.005	1283.295	965.541
111.147	12.935	1282.624	964.539
112.162	13.022	1280.914	963.674
113.176	13.044	1279.812	962.891
114.191	13.052	1278.748	962.052
115.206	13.137	1277.864	961.798
116.220	13.110	1275.953	960.114
117.235	13.034	1275.368	959.148
118.249	13.090	1274.320	958.599
119.264	13.074	1272.909	957.364
120.279	12.922	1272.379	955.997
121.293	12.997	1270.897	955.237
122.308	12.932	1270.101	954.173
123.322	12.940	1269.075	953.364
124.337	12.952	1267.837	952.424
125.352	12.967	1266.894	951.712
126.366	12.954	1265.674	950.640
127.381	13.023	1264.676	950.202
128.395	13.043	1263.301	949.198
129.410	12.972	1262.593	948.177
130.424	12.959	1262.239	947.753
131.439	13.020	1261.399	947.389
132.454	13.021	1260.539	946.667
133.468	13.137	1259.305	946.318
134.483	13.172	1258.218	945.621
135.497	13.135	1257.300	944.631
136.512	13.035	1256.467	943.354
137.527	13.061	1255.065	942.366
138.541	13.073	1253.566	941.222
139.556	13.105	1252.120	940.239
140.570	13.161	1250.810	939.491
141.585	13.234	1250.294	939.433
142.600	13.256	1248.827	938.370
143.614	13.205	1248.496	937.751
144.629	13.282	1247.123	937.074
145.643	13.244	1246.075	935.989
146.658	13.214	1244.592	934.621
147.673	13.184	1243.380	933.458
148.687	13.202	1242.348	932.704
149.702	13.113	1241.010	931.117
150.716	13.165	1239.135	929.921
151.731	13.201	1238.231	929.361
152.746	13.201	1237.277	928.559
153.760	13.171	1236.250	927.542
154.775	13.308	1234.749	927.101
155.789	13.258	1233.693	925.943
156.804	13.313	1233.016	925.663
157.819	13.306	1232.153	924.894
158.833	13.435	1230.841	924.548
159.848	13.458	1229.821	923.827
160.862	13.414	1229.071	922.937
161.877	13.353	1227.775	921.543
162.892	13.297	1226.471	920.173
163.906	13.225	1226.036	919.363
164.921	13.240	1225.177	918.723
165.935	13.268	1224.090	917.979
166.950	13.246	1223.825	917.579
167.964	13.295	1222.855	917.040
168.979	13.347	1221.813	916.470
169.994	13.349	1221.165	915.909
171.008	13.352	1220.352	915.239
172.023	13.522	1219.290	915.299
173.037	13.564	1218.766	915.058
174.052	13.520	1217.626	913.879
175.067	13.382	1217.122	912.655
176.081	13.422	1215.637	911.682
177.096	13.331	1215.179	910.757
178.110	13.393	1213.699	909.910
179.125	13.479	1212.513	909.410
180.140	13.411	1211.492	908.194
181.154	13.429	1210.279	907.299
182.169	13.515	1209.168	906.857
183.183	13.507	1207.983	905.849
184.198	13.629	1206.543	905.351
185.213	13.554	1205.454	904.047
186.227	13.610	1204.578	903.616
187.242	13.536	1203.871	902.599
188.256	13.587	1202.989	902.136
189.271	13.714	1201.461	901.604
190.286	13.514	1200.966	900.064
191.300	13.448	1200.065	898.952
192.315	13.294	1199.106	897.318
193.329	13.317	1198.894	897.205
194.344	13.502	1197.525	897.102
195.359	13.487	1197.645	897.034
196.373	13.506	1197.180	896.705
197.388	13.684	1196.429	897.027
198.402	13.761	1196.015	897.058
199.417	13.740	1195.126	896.195
200.432	13.767	1194.641	895.897
201.446	13.869	1193.727	895.682
202.461	14.000	1192.277	895.224
203.475	14.028	1191.380	894.619
204.490	13.850	1190.635	893.024
205.504	13.853	1189.535	892.134
206.519	13.693	1188.301	890.272
207.534	13.631	1187.411	889.196
208.548	13.815	1185.981	889.034
209.563	13.863	1185.140	888.581
210.577	13.820	1184.556	887.831
211.592	13.891	1183.714	887.501
212.607	13.942	1182.915	887.097
213.621	13.989	1181.493	886.205
214.636	13.923	1180.659	885.146
215.650	13.991	1179.744	884.744
216.665	14.150	1178.631	884.676
217.680	13.995	1177.978	883.285
218.694	14.110	1177.310	883.316
219.709	14.010	1176.447	882.061
220.723	14.130	1175.821	882.151
221.738	14.247	1175.028	882.097
222.753	14.114	1174.011	880.550
223.767	14.157	1173.941	880.648
224.782	14.095	1173.445	879.873
225.796	14.248	1172.398	879.815
226.811	14.129	1171.919	878.749
227.826	14.102	1171.160	877.959
228.840	14.107	1170.547	877.450
229.855	14.167	1169.722	877.068
230.869	14.175	1168.793	876.338
231.884	14.150	1168.071	875.590
232.899	14.062	1167.367	874.521
233.913	14.053	1166.518	873.759
234.928	14.131	1165.564	873.376
235.942	14.059	1164.995	872.493
236.957	14.198	1163.706	872.182
237.972	14.200	1163.067	871.636
238.986	14.106	1162.713	870.803
240.001	14.154	1161.950	870.405
241.015	14.134	1161.304	869.740
242.030	14.111	1160.629	869.035
243.045	14.185	1159.218	868.290
244.059	14.218	1158.850	868.110
245.074	14.342	1157.906	867.968
246.088	14.371	1157.036	867.393
247.103	14.334	1156.283	866.559
248.117	14.368	1155.690	866.214
249.132	14.414	1155.275	866.066
250.147	14.434	1154.885	865.803
251.161	14.588	1153.712	865.645
252.176	14.647	1153.033	865.365
253.190	14.718	1152.425	865.200
254.205	14.656	1151.853	864.372
255.220	14.674	1151.322	863.989
256.234	14.757	1150.743	863.905
257.249	14.735	1150.039	863.186
258.263	14.681	1149.401	862.357
259.278	14.720	1148.235	861.605
260.293	14.853	1148.106	862.116
261.307	14.719	1147.701	861.044
262.322	14.758	1146.808	860.501
263.336	14.798	1146.078	860.084
264.351	14.872	1145.488	859.947
265.366	14.905	1144.900	859.597
266.380	14.886	1144.262	858.947
267.395	14.841	1143.585	858.129
268.409	14.745	1142.795	856.967
269.424	14.706	1142.172	856.226
270.439	14.895	1140.997	856.238
271.453	14.842	1140.297	855.366
272.468	14.905	1139.374	854.919
273.482	14.862	1138.915	854.278
274.497	14.877	1138.120	853.685
275.512	14.868	1137.431	853.044
276.526	14.782	1136.964	852.179
277.541	14.920	1135.580	851.770
278.555	14.950	1135.373	851.691
279.570	14.984	1134.850	851.397
280.585	15.109	1133.777	851.152
281.599	15.181	1132.990	850.852
282.614	15.069	1132.118	849.557
283.628	15.012	1131.193	848.496
284.643	15.067	1130.055	847.845
285.657	15.076	1129.135	847.128
286.672	15.098	1128.166	846.439
287.687	15.087	1127.536	845.835
288.701	15.030	1126.690	844.835
289.716	15.083	1126.227	844.681
290.730	15.079	1125.240	843.845
291.745	15.105	1124.596	843.419
292.760	15.266	1124.112	843.792
293.774	15.065	1123.767	842.449
294.789	15.253	1122.950	842.705
295.803	15.294	1122.157	842.241
296.818	15.166	1121.613	841.115
297.833	15.086	1120.640	839.910
298.847	15.298	1119.696	840.189
299.862	15.162	1119.644	839.398
300.876	15.270	1118.602	839.084
301.891	15.239	1118.218	838.564
302.906	15.348	1117.154	838.237
303.920	15.400	1116.636	838.031
304.935	15.416	1115.578	837.243
305.949	15.511	1115.080	837.269
306.964	15.508	1114.789	836.964
307.979	15.529	1113.972	836.383
308.993	15.438	1113.229	835.296
310.008	15.458	1112.339	834.654
311.022	15.514	1111.476	834.211
312.037	15.506	1110.764	833.562
313.052	15.574	1109.342	832.757
314.066	15.459	1108.878	831.768
315.081	15.419	1108.260	831.033
316.095	15.408	1107.019	829.972
317.110	15.445	1106.703	829.844
318.125	15.482	1106.060	829.471
319.139	15.522	1104.924	828.746
320.154	15.496	1104.562	828.273
321.168	15.421	1103.753	827.223
322.183	15.470	1103.350	827.088
323.197	15.467	1102.543	826.394
324.212	15.618	1101.985	826.644
325.227	15.427	1101.734	825.448
326.241	15.563	1100.835	825.370
327.256	15.600	1099.838	824.731
328.270	15.601	1098.924	823.978
329.285	15.582	1098.180	823.253
330.300	15.558	1097.225	822.346
331.314	15.561	1096.227	821.539
332.329	15.567	1095.645	821.060
333.343	15.539	1094.642	820.099
334.358	15.659	1093.528	819.775
335.373	15.634	1092.824	819.053
336.387	15.559	1092.565	818.425
337.402	15.699	1091.941	818.563
338.416	15.779	1091.031	818.201
339.431	15.723	1090.392	817.375
340.446	15.932	1089.533	817.673
341.460	15.856	1089.091	816.903
342.475	15.944	1088.238	816.617
343.489	15.942	1087.546	816.016
344.504	16.090	1086.385	815.785
345.519	16.182	1085.321	815.361
346.533	15.988	1085.003	814.115
347.548	16.110	1084.021	813.890
348.562	16.076	1083.893	813.559
349.577	15.981	1082.907	812.288
350.592	16.003	1081.730	811.443
351.606	15.995	1080.682	810.547
352.621	15.925	1080.227	809.797
353.635	15.906	1079.720	809.252
354.650	16.020	1079.160	809.308
355.665	15.921	1078.231	808.065
356.679	16.053	1077.568	808.131
357.694	16.055	1077.178	807.776
358.708	15.987	1076.996	807.243
359.723	16.059	1076.239	806.946
360.738	16.148	1074.986	806.362
361.752	16.144	1074.540	805.937
362.767	16.159	1074.092	805.603
363.781	16.161	1073.251	804.910
364.796	16.248	1072.796	804.912
365.810	16.235	1072.178	804.317
366.825	16.316	1071.418	804.060
367.840	16.363	1070.984	803.888
368.854	16.470	1070.379	803.871
369.869	16.418	1070.141	803.371
370.883	16.489	1068.946	802.740
371.898	16.282	1068.514	801.363
372.913	16.371	1067.893	801.248
373.927	16.392	1067.366	800.882
374.942	16.432	1067.102	800.804
375.956	16.428	1066.260	800.079
376.971	16.415	1065.781	799.591
377.986	16.495	1065.207	799.468
379.000	16.554	1064.688	799.286
380.015	16.526	1064.131	798.663
381.029	16.587	1063.420	798.349
382.044	16.577	1062.720	797.702
383.059	16.460	1062.204	796.696
384.073	16.574	1061.009	796.263
385.088	16.547	1060.200	795.461
386.102	16.524	1059.495	794.754
387.117	16.462	1058.272	793.474
388.132	16.514	1057.333	792.942
389.146	16.537	1056.635	792.458
390.161	16.696	1055.551	792.318
391.175	16.528	1055.250	791.238
392.190	16.568	1054.863	791.063
393.205	16.604	1053.633	790.238
394.219	16.682	1053.123	790.148
395.234	16.695	1052.228	789.469
396.248	16.616	1051.108	788.193
397.263	16.592	1050.284	787.395
398.278	16.546	1049.689	786.661
399.292	16.690	1048.809	786.603
400.307	16.561	1048.211	785.485
401.321	16.430	1047.575	784.331
402.336	16.643	1046.723	784.613
403.350	16.726	1045.844	784.266
404.365	16.556	1045.510	783.161
405.380	16.679	1044.852	783.168
406.394	16.721	1044.104	782.732
407.409	16.792	1043.494	782.531
408.423	16.764	1042.676	781.722
409.438	16.895	1042.018	781.762
410.453	16.871	1041.451	781.156
411.467	17.024	1040.753	781.269
412.482	17.016	1040.018	780.612
413.496	16.951	1039.676	779.987
414.511	17.029	1039.187	779.909
415.526	17.153	1038.511	779.902
416.540	17.121	1037.978	779.289
417.555	17.110	1037.341	778.689
418.569	17.181	1036.427	778.261
419.584	17.054	1036.048	777.324
420.599	17.258	1035.670	777.906
421.613	104.494	1324.825	1476.542
422.628	95.752	1366.927	1476.629
