DTS Sentinel unit serial number:	SN413079Multiplexer serial number:	ORYXHardware model number:	OX4-SRSoftware version number:	ORYX F/W v4.00 Oryx Data Collector v3.7.2.0data status	okinstallation	princeton_trtdifferential loss correction	single-endedforward channel	channel 2reverse channel	N/Adate	2019/09/14time	05:39:34forward acquisition time	60.00reverse acquisition time	0.00gamma	496.2192k internal	0.2335k external	0.2335temperature offset calibration	1.0133default loss term (dB/km)	0.3790temperature slope calibration	1.0000multiplexer offset coefficient	1.0000multiplexer slope coefficient	1.0000fibre end	0.00T internal ref (°C)	26.92T ext. ref 1 (°C)	3.40T ext. ref 2 (°C)	21.76length (m)	temperature (°C)	Stokes	anti-Stokes-747.200	-4.599	-0.194	-0.135
-746.185	359.516	-0.074	0.150
-745.171	50.076	0.114	0.108
-744.156	134.084	-0.144	0.188
-743.142	6.867	-0.136	0.102
-742.127	-101.470	-0.226	-0.055
-741.112	-105.128	0.136	0.031
-740.098	-200.000	0.008	0.191
-739.083	-52.861	0.055	-0.025
-738.069	-60.005	0.161	0.069
-737.054	-108.100	-0.140	0.030
-736.039	159.389	-0.146	-0.204
-735.025	-132.975	0.187	0.024
-734.010	-200.000	-0.010	0.090
-732.996	111.490	-0.095	-0.115
-731.981	11.502	-0.150	-0.115
-730.966	-200.000	0.001	0.078
-729.952	44.141	0.308	-0.284
-728.937	715.868	0.117	-0.313
-727.923	473.720	0.230	-0.521
-726.908	-144.568	-0.281	-0.026
-725.894	-4.193	-0.181	-0.126
-724.879	203.168	-0.157	-0.243
-723.864	800.000	0.070	-0.253
-722.850	45.229	-0.236	0.219
-721.835	29.355	-0.083	-0.071
-720.821	353.331	-0.181	-0.361
-719.806	-114.018	-0.270	0.053
-718.791	165.551	0.191	0.271
-717.777	779.055	-0.069	0.190
-716.762	-35.089	-0.101	-0.055
-715.748	81.942	0.190	-0.206
-714.733	217.431	0.124	0.198
-713.718	163.355	0.106	-0.150
-712.704	800.000	-0.081	-0.321
-711.689	-49.856	0.164	-0.078
-710.675	-77.895	-0.132	-0.046
-709.660	800.000	-0.111	-0.422
-708.645	-18.698	0.297	0.186
-707.631	53.571	0.085	0.082
-706.616	248.204	0.036	-0.061
-705.602	313.822	0.035	-0.066
-704.587	-117.990	-0.177	-0.032
-703.572	3.554	-0.028	-0.021
-702.558	-50.802	0.217	-0.102
-701.543	92.015	-0.168	-0.190
-700.529	-75.713	0.218	0.078
-699.514	-96.683	-0.157	0.041
-698.499	-200.000	-0.086	-0.407
-697.485	-78.912	-0.202	-0.069
-696.470	-70.680	-0.191	-0.072
-695.456	-43.129	-0.017	-0.009
-694.441	-34.971	0.095	-0.052
-693.426	-200.000	-0.021	0.362
-692.412	800.000	0.013	0.041
-691.397	666.180	-0.112	0.291
-690.383	31.666	0.092	-0.079
-689.368	104.687	-0.246	0.291
-688.354	-3.438	-0.064	0.044
-687.339	-115.050	0.261	-0.050
-686.324	674.238	-0.188	0.488
-685.310	-200.000	-0.098	0.000
-684.295	252.106	-0.073	-0.124
-683.281	133.604	-0.151	-0.196
-682.266	259.852	0.018	-0.032
-681.251	-181.589	-0.117	-0.002
-680.237	-86.864	-0.116	0.035
-679.222	24.706	0.139	-0.115
-678.208	-200.000	0.031	-0.137
-677.193	-200.000	0.033	-0.252
-676.178	132.248	-0.315	0.407
-675.164	-38.112	-0.211	-0.112
-674.149	-101.257	-0.162	-0.040
-673.135	91.647	0.128	-0.145
-672.120	377.130	0.184	-0.377
-671.105	-125.614	0.206	0.031
-670.091	-117.778	-0.249	0.045
-669.076	713.674	-0.079	-0.210
-668.062	142.453	-0.076	-0.102
-667.047	174.207	0.035	0.051
-666.032	-200.000	0.010	-0.158
-665.018	-138.244	-0.042	0.005
-664.003	24.975	-0.064	-0.053
-662.989	-200.000	-0.040	-0.277
-661.974	40.052	0.014	-0.012
-660.959	-200.000	0.031	0.138
-659.945	-200.000	-0.000	-0.016
-658.930	800.000	0.089	-0.308
-657.916	188.095	-0.079	0.118
-656.901	-200.000	-0.027	0.265
-655.886	0.188	0.049	0.035
-654.872	-81.181	0.168	-0.056
-653.857	110.368	-0.084	0.101
-652.843	-96.223	0.075	0.020
-651.828	-154.838	-0.216	0.014
-650.814	-25.662	0.308	0.182
-649.799	-88.063	0.168	-0.050
-648.784	800.000	0.016	0.045
-647.770	-63.701	-0.231	-0.095
-646.755	-200.000	-0.004	0.172
-645.741	-43.347	0.227	0.115
-644.726	-137.304	-0.198	0.022
-643.711	362.378	0.119	-0.238
-642.697	285.559	-0.056	-0.102
-641.682	-52.998	0.059	-0.027
-640.668	462.897	-0.094	0.209
-639.653	67.051	0.237	0.242
-638.638	263.413	-0.164	0.284
-637.624	800.000	0.102	0.377
-636.609	50.320	0.044	0.042
-635.595	8.944	0.222	0.168
-634.580	299.051	0.082	0.150
-633.565	16.764	-0.107	-0.084
-632.551	-200.000	0.019	-0.218
-631.536	214.463	0.050	-0.079
-630.522	402.055	0.131	-0.275
-629.507	-18.228	0.144	-0.090
-628.492	90.935	0.055	-0.062
-627.478	-96.587	0.133	-0.035
-626.463	-81.288	-0.083	-0.027
-625.449	-200.000	-0.010	-0.384
-624.434	115.431	0.165	-0.201
-623.419	-46.897	0.182	0.089
-622.405	-200.000	-0.005	-0.132
-621.390	-165.360	-0.395	-0.017
-620.376	-123.541	0.275	-0.044
-619.361	-76.709	-0.062	-0.022
-618.346	545.976	0.059	-0.142
-617.332	800.000	-0.016	-0.058
-616.317	-102.161	-0.240	0.058
-615.303	-110.031	-0.197	0.041
-614.288	-146.348	0.265	-0.023
-613.273	800.000	0.116	0.384
-612.259	-58.963	-0.307	-0.132
-611.244	800.000	0.110	0.303
-610.230	96.173	-0.085	0.097
-609.215	800.000	-0.073	0.308
-608.201	-103.827	0.266	-0.062
-607.186	-5.513	-0.143	0.098
-606.171	20.873	0.300	-0.243
-605.157	-2.106	-0.087	-0.061
-604.142	-94.055	0.353	-0.097
-603.128	-200.000	0.018	-0.078
-602.113	80.741	-0.144	0.155
-601.098	492.098	0.084	0.192
-600.084	226.979	-0.026	0.042
-599.069	800.000	-0.062	-0.196
-598.055	146.337	-0.171	-0.229
-597.040	-42.373	0.195	-0.099
-596.025	528.381	0.153	-0.360
-595.011	285.726	-0.050	-0.090
-593.996	8.172	-0.319	0.239
-592.982	-143.555	0.255	-0.024
-591.967	-39.720	0.103	-0.054
-590.952	2.165	0.293	0.212
-589.938	106.940	-0.111	0.131
-588.923	800.000	-0.119	0.402
-587.909	4.457	-0.212	0.156
-586.894	197.238	-0.059	-0.091
-585.879	-69.420	-0.311	-0.119
-584.865	130.498	0.202	0.259
-583.850	-27.261	-0.096	-0.056
-582.836	190.119	-0.069	0.103
-581.821	358.756	-0.042	-0.084
-580.806	61.622	-0.171	0.170
-579.792	-67.588	0.234	-0.092
-578.777	-81.261	0.244	0.080
-577.763	329.895	0.139	0.267
-576.748	-176.070	-0.342	-0.009
-575.733	800.000	0.043	0.151
-574.719	-200.000	0.015	0.544
-573.704	-83.082	-0.378	0.122
-572.690	-141.944	-0.266	-0.027
-571.675	-170.922	-0.255	0.009
-570.661	800.000	0.113	0.371
-569.646	-130.965	-0.043	-0.006
-568.631	-116.417	0.219	-0.040
-567.617	-200.000	0.038	-0.368
-566.602	-17.253	-0.447	-0.281
-565.588	-45.398	0.138	0.068
-564.573	800.000	0.082	-0.311
-563.558	-160.132	-0.185	0.010
-562.544	-138.046	0.060	-0.007
-561.529	-167.828	0.304	0.012
-560.515	-65.022	0.167	-0.067
-559.500	-200.000	-0.007	-0.317
-558.485	-37.577	-0.142	0.075
-557.471	-200.000	0.015	0.090
-556.456	775.867	0.088	-0.239
-555.442	-66.214	0.307	0.122
-554.427	-4.383	-0.031	-0.021
-553.412	-200.000	0.042	0.220
-552.398	103.436	-0.136	0.159
-551.383	322.186	0.104	0.198
-550.369	118.458	0.138	-0.170
-549.354	-200.000	0.027	-0.189
-548.339	800.000	0.085	0.271
-547.325	800.000	-0.019	-0.065
-546.310	-200.000	0.011	-0.111
-545.296	343.152	-0.070	0.136
-544.281	-37.785	-0.097	0.051
-543.266	15.052	-0.095	0.074
-542.252	-125.465	0.095	0.014
-541.237	126.513	0.042	0.053
-540.223	207.285	-0.136	0.211
-539.208	-179.017	-0.288	0.006
-538.193	95.874	0.032	-0.036
-537.179	-200.000	0.009	0.204
-536.164	172.918	-0.036	0.051
-535.150	-192.178	-0.209	-0.002
-534.135	106.797	-0.087	-0.103
-533.121	36.995	-0.127	0.112
-532.106	147.372	-0.207	-0.277
-531.091	-100.175	-0.159	-0.039
-530.077	106.487	-0.027	0.032
-529.062	-8.612	0.155	0.103
-528.048	2.131	-0.190	-0.137
-527.033	475.546	0.038	-0.086
-526.018	-200.000	0.016	0.120
-525.004	314.573	-0.068	-0.127
-523.989	112.415	0.020	-0.024
-522.975	333.220	-0.092	-0.178
-521.960	-140.514	-0.028	0.003
-520.945	-6.621	-0.195	0.132
-519.931	-127.023	-0.294	0.043
-518.916	118.320	0.143	0.175
-517.902	-200.000	0.019	-0.477
-516.887	118.526	-0.163	-0.200
-515.872	-54.045	0.194	-0.088
-514.858	-200.000	0.034	-0.206
-513.843	-46.034	-0.059	0.029
-512.829	94.402	-0.033	-0.038
-511.814	800.000	0.022	0.096
-510.799	407.128	0.084	0.177
-509.785	23.973	-0.270	-0.222
-508.770	-138.082	-0.323	-0.036
-507.756	-73.262	-0.300	0.109
-506.741	672.173	0.145	-0.375
-505.726	-200.000	0.033	0.156
-504.712	-133.332	-0.109	-0.014
-503.697	-3.469	-0.320	-0.222
-502.683	-19.418	-0.065	-0.040
-501.668	-200.000	0.154	-0.000
-500.653	-62.326	-0.256	0.106
-499.639	-148.818	-0.599	0.048
-498.624	-138.083	0.291	-0.032
-497.610	250.918	0.159	0.270
-496.595	7.420	-0.111	-0.083
-495.581	800.000	-0.017	0.046
-494.566	-108.298	0.184	-0.040
-493.551	86.014	0.110	0.120
-492.537	800.000	0.044	-0.162
-491.522	225.690	0.133	-0.215
-490.508	91.280	0.237	0.265
-489.493	-200.000	0.019	0.202
-488.478	-103.444	-0.169	-0.040
-487.464	-49.328	0.239	0.113
-486.449	-200.000	-0.013	0.076
-485.435	-46.979	0.262	-0.127
-484.420	89.740	0.200	0.222
-483.405	168.000	0.105	-0.149
-482.391	-200.000	-0.032	0.242
-481.376	368.950	-0.044	0.088
-480.362	-130.080	-0.230	0.031
-479.347	-200.000	0.015	0.074
-478.332	-135.322	0.312	0.037
-477.318	34.811	-0.319	0.277
-476.303	16.726	-0.218	0.171
-475.289	0.006	0.093	-0.066
-474.274	65.262	0.219	0.221
-473.259	800.000	0.075	0.244
-472.245	577.452	-0.156	-0.380
-471.230	-200.000	-0.048	-0.335
-470.216	-96.422	0.245	0.064
-469.201	-130.640	-0.205	-0.027
-468.186	270.718	-0.112	-0.196
-467.172	-73.690	-0.084	-0.030
-466.157	-82.357	0.117	0.038
-465.143	6.649	-0.412	-0.304
-464.128	-200.000	0.008	0.253
-463.113	-134.023	0.120	-0.015
-462.099	498.812	0.086	-0.197
-461.084	-25.820	-0.103	0.060
-460.070	60.072	0.226	-0.222
-459.055	134.227	0.225	-0.289
-458.040	286.707	-0.223	0.400
-457.026	-200.000	0.059	-0.335
-456.011	25.225	0.200	0.165
-454.997	-79.459	0.254	0.085
-453.982	-58.414	-0.242	-0.104
-452.968	324.269	0.079	-0.150
-451.953	-133.910	0.290	-0.036
-450.938	-73.085	-0.244	0.089
-449.924	-200.000	-0.010	0.051
-448.909	-93.780	-0.174	-0.048
-447.895	-73.594	0.069	-0.025
-446.880	-97.966	-0.177	0.045
-445.865	-78.387	0.137	0.047
-444.851	-10.844	-0.166	-0.109
-443.836	800.000	-0.074	0.267
-442.822	-113.768	0.276	0.053
-441.807	-154.457	-0.235	-0.016
-440.792	98.516	0.141	0.161
-439.778	31.262	-0.067	0.057
-438.763	-46.056	0.202	-0.099
-437.749	70.608	0.267	-0.275
-436.734	-96.603	-0.321	0.084
-435.719	-61.923	0.069	0.029
-434.705	195.399	0.140	0.212
-433.690	-37.878	0.215	0.113
-432.676	-129.979	-0.084	-0.011
-431.661	-56.386	-0.168	0.074
-430.646	-33.808	-0.344	0.188
-429.632	-200.000	0.018	0.246
-428.617	800.000	-0.037	-0.157
-427.603	-164.123	-0.315	-0.014
-426.588	57.898	-0.057	-0.056
-425.573	800.000	0.055	-0.225
-424.559	167.857	-0.171	-0.241
-423.544	-53.530	-0.237	0.108
-422.530	269.160	-0.286	0.499
-421.515	-200.000	-0.008	0.065
-420.500	44.833	-0.313	-0.286
-419.486	800.000	-0.071	0.251
-418.471	800.000	-0.065	0.204
-417.457	429.822	-0.096	0.205
-416.442	133.809	0.099	0.128
-415.428	489.051	0.047	-0.107
-414.413	7.827	0.499	-0.371
-413.398	800.000	-0.117	0.366
-412.384	348.126	-0.045	0.087
-411.369	97.153	-0.190	-0.216
-410.355	23.285	-0.371	-0.302
-409.340	-73.390	0.160	0.058
-408.325	-77.888	-0.027	0.009
-407.311	32.872	-0.244	0.210
-406.296	38.936	0.160	-0.142
-405.282	-34.349	0.260	0.141
-404.267	-19.399	0.116	0.071
-403.252	-85.418	0.020	-0.006
-402.238	96.122	0.068	0.077
-401.223	5.487	0.239	0.175
-400.209	524.076	-0.109	-0.255
-399.194	208.215	0.133	0.207
-398.179	800.000	-0.097	-0.274
-397.165	95.515	-0.092	0.104
-396.150	-200.000	-0.062	-0.349
-395.136	-200.000	0.070	-0.350
-394.121	754.457	0.071	-0.191
-393.106	28.037	0.248	-0.207
-392.092	-116.693	0.031	0.006
-391.077	-200.000	0.034	-0.325
-390.063	800.000	0.035	-0.132
-389.048	-83.648	-0.052	-0.017
-388.033	-34.561	-0.178	-0.096
-387.019	800.000	-0.017	0.067
-386.004	-200.000	-0.004	0.170
-384.990	270.041	0.117	0.204
-383.975	800.000	0.009	0.025
-382.960	800.000	0.036	-0.126
-381.946	-200.000	0.012	0.136
-380.931	154.687	-0.108	0.147
-379.917	-2.151	-0.214	0.148
-378.902	-65.413	0.316	0.126
-377.888	307.401	-0.030	0.056
-376.873	-127.943	-0.124	-0.018
-375.858	-77.356	-0.050	0.017
-374.844	-199.201	-0.292	-0.002
-373.829	-39.276	-0.223	-0.116
-372.815	-125.861	-0.111	-0.017
-371.800	17.248	-0.201	-0.158
-370.785	-104.208	-0.223	-0.051
-369.771	-20.737	-0.028	-0.017
-368.756	-200.000	0.016	0.121
-367.742	609.937	-0.058	0.142
-366.727	79.160	-0.192	-0.204
-365.712	-151.541	0.320	0.023
-364.698	-184.730	-0.135	-0.002
-363.683	519.665	-0.030	0.070
-362.669	202.534	-0.043	0.066
-361.654	78.660	0.016	0.017
-360.639	-61.752	0.243	0.101
-359.625	800.000	-0.102	-0.328
-358.610	-45.339	-0.064	0.032
-357.596	-171.825	-0.310	-0.010
-356.581	24.253	0.027	-0.022
-355.566	249.278	0.062	-0.104
-354.552	-175.746	0.115	0.003
-353.537	800.000	-0.023	0.094
-352.523	-200.000	-0.045	-0.288
-351.508	220.428	-0.011	0.017
-350.493	-200.000	-0.059	-0.462
-349.479	424.735	-0.037	-0.078
-348.464	-29.254	-0.244	-0.138
-347.450	-85.768	0.062	0.019
-346.435	-200.000	0.061	0.345
-345.420	-42.967	0.134	-0.067
-344.406	-200.000	-0.016	0.087
-343.391	99.129	0.169	-0.193
-342.377	-54.289	0.099	-0.044
-341.362	136.064	-0.139	0.180
-340.348	229.399	0.107	-0.173
-339.333	-200.000	0.020	-0.107
-338.318	722.436	-0.057	0.150
-337.304	-200.000	0.004	0.126
-336.289	800.000	-0.054	0.221
-335.275	33.729	-0.103	0.089
-334.260	386.986	-0.093	0.189
-333.245	800.000	0.050	-0.143
-332.231	2.203	0.016	0.012
-331.216	800.000	-0.097	-0.361
-330.202	-200.000	0.010	-0.145
-329.187	-200.000	0.013	0.106
-328.172	222.240	0.165	-0.263
-327.158	-44.409	-0.077	-0.038
-326.143	-138.145	0.313	0.034
-325.129	302.877	0.084	0.153
-324.114	-91.902	-0.151	-0.042
-323.099	-23.774	0.243	0.144
-322.085	-106.896	0.135	-0.030
-321.070	-80.664	-0.056	0.018
-320.056	175.540	-0.118	0.170
-319.041	-106.932	0.070	0.015
-318.026	-91.994	-0.116	0.033
-317.012	524.926	-0.043	0.100
-315.997	159.792	0.036	0.049
-314.983	-4.854	0.382	-0.260
-313.968	166.430	-0.117	0.164
-312.953	414.786	0.057	-0.119
-311.939	-12.982	0.308	-0.198
-310.924	-200.000	0.021	-0.333
-309.910	-200.000	-0.055	0.250
-308.895	20.027	0.234	0.186
-307.880	181.968	0.065	0.094
-306.866	-10.195	0.294	-0.193
-305.851	800.000	-0.022	-0.061
-304.837	278.913	0.172	-0.302
-303.822	360.672	0.115	0.228
-302.807	-200.000	-0.015	-0.413
-301.793	36.893	-0.299	0.261
-300.778	-49.906	-0.263	-0.123
-299.764	194.163	-0.094	-0.140
-298.749	-29.469	0.213	0.120
-297.735	800.000	-0.045	-0.141
-296.720	-105.370	0.554	-0.124
-295.705	-55.328	0.251	-0.111
-294.691	-119.470	-0.299	-0.051
-293.676	-1.926	-0.260	0.180
-292.662	275.203	-0.232	-0.406
-291.647	800.000	-0.044	-0.130
-290.632	-200.000	0.006	-0.051
-289.618	-200.000	-0.043	0.363
-288.603	275.501	-0.108	-0.188
-287.589	57.923	-0.158	0.153
-286.574	-175.050	0.309	0.008
-285.559	-54.542	0.245	-0.110
-284.545	504.278	0.111	0.253
-283.530	-200.000	0.007	0.356
-282.516	307.889	0.063	0.116
-281.501	263.280	-0.083	-0.142
-280.486	192.575	-0.093	-0.138
-279.472	326.210	0.050	-0.095
-278.457	133.039	0.091	-0.116
-277.443	336.207	-0.035	0.068
-276.428	488.675	0.110	0.247
-275.413	398.408	-0.054	-0.112
-274.399	-15.579	-0.085	0.054
-273.384	59.801	0.199	0.193
-272.370	-200.000	0.029	0.243
-271.355	154.198	-0.167	-0.225
-270.340	-122.593	0.389	-0.062
-269.326	-200.000	0.153	-0.000
-268.311	69.612	0.166	-0.169
-267.297	-171.737	0.122	0.004
-266.282	6.370	0.272	-0.199
-265.267	101.691	0.102	-0.118
-264.253	-137.616	0.161	0.018
-263.238	-64.437	0.343	0.137
-262.224	-200.000	-0.006	-0.041
-261.209	169.743	0.119	-0.167
-260.195	-1.040	0.312	0.218
-259.180	-96.259	-0.005	-0.001
-258.165	83.942	-0.115	-0.123
-257.151	48.104	0.118	-0.109
-256.136	-52.376	0.079	-0.036
-255.122	-126.181	-0.188	-0.028
-254.107	83.921	-0.274	0.295
-253.092	415.065	0.084	0.177
-252.078	-200.000	-0.022	0.256
-251.063	-91.397	0.366	-0.103
-250.049	-8.329	-0.099	-0.066
-249.034	81.788	0.272	-0.290
-248.019	27.619	-0.308	-0.255
-247.005	-196.562	0.260	0.002
-245.990	-42.017	0.328	0.166
-244.976	-62.879	-0.304	-0.124
-243.961	276.916	0.045	0.078
-242.946	-44.368	0.247	-0.122
-241.932	203.581	-0.110	0.167
-240.917	337.159	0.131	-0.250
-239.903	146.361	0.176	-0.232
-238.888	-200.000	-0.028	0.142
-237.873	471.793	0.055	0.123
-236.859	446.983	-0.134	-0.290
-235.844	-119.966	0.167	0.028
-234.830	-53.451	-0.111	0.050
-233.815	-138.556	-0.364	0.039
-232.800	22.733	0.142	0.115
-231.786	-58.674	0.343	0.147
-230.771	-130.938	-0.442	-0.058
-229.757	-4.298	0.229	0.156
-228.742	294.605	-0.059	0.106
-227.727	14.220	0.122	0.094
-226.713	64.772	-0.146	-0.145
-225.698	417.391	-0.176	-0.371
-224.684	-44.129	0.111	0.055
-223.669	657.392	-0.066	-0.166
-222.655	208.060	-0.104	-0.159
-221.640	296.472	0.098	0.177
-220.625	67.223	0.065	0.065
-219.611	-175.648	0.096	0.003
-218.596	-152.886	0.174	0.012
-217.582	93.356	-0.145	-0.161
-216.567	-200.000	-0.017	-0.114
-215.552	72.247	0.144	0.147
-214.538	234.099	-0.101	0.163
-213.523	-137.819	-0.373	0.041
-212.509	-200.000	-0.008	0.201
-211.494	-112.054	-0.187	-0.037
-210.479	-74.837	0.196	-0.069
-209.465	96.676	0.069	-0.077
-208.450	-128.791	-0.147	0.020
-207.436	108.913	0.223	-0.262
-206.421	-46.274	0.086	0.041
-205.406	-200.000	-0.058	0.356
-204.392	144.865	0.222	-0.293
-203.377	176.324	0.096	0.136
-202.363	44.795	-0.179	-0.162
-201.348	-200.000	0.014	0.212
-200.333	176.036	-0.198	-0.282
-199.319	-200.000	-0.064	-0.313
-198.304	800.000	-0.098	0.275
-197.290	-42.802	0.179	0.089
-196.275	50.248	0.239	-0.222
-195.260	-24.973	0.225	-0.132
-194.246	-188.552	0.284	-0.003
-193.231	-26.991	0.145	0.083
-192.217	-4.795	-0.418	-0.284
-191.202	-68.121	0.147	-0.056
-190.187	-127.476	-0.159	-0.023
-189.173	-36.259	0.214	-0.114
-188.158	-50.614	-0.233	0.108
-187.144	-200.000	0.005	0.101
-186.129	-133.951	-0.136	-0.017
-185.114	117.519	-0.135	0.163
-184.100	-113.409	0.172	0.033
-183.085	-116.553	-0.421	-0.076
-182.071	-59.082	-0.054	0.023
-181.056	84.508	-0.102	-0.110
-180.042	3.913	-0.098	-0.071
-179.027	72.325	0.213	0.218
-178.012	3.960	0.064	0.046
-176.998	-31.086	-0.236	-0.131
-175.983	42.623	0.199	-0.178
-174.969	178.398	0.191	0.274
-173.954	-148.136	-0.132	0.011
-172.939	-2.009	-0.198	0.136
-171.925	-83.492	0.369	-0.116
-170.910	291.098	-0.048	0.085
-169.896	-200.000	0.048	0.316
-168.881	118.089	0.278	0.337
-167.866	800.000	0.038	0.152
-166.852	213.165	-0.188	0.291
-165.837	-200.000	-0.046	0.255
-164.823	39.821	0.200	0.176
-163.808	-98.686	0.156	0.039
-162.793	-117.863	-0.503	-0.089
-161.779	25.754	-0.083	0.068
-160.764	106.016	0.252	0.293
-159.750	-75.286	-0.503	-0.176
-158.735	-200.000	-0.048	0.246
-157.720	800.000	-0.016	-0.064
-156.706	-127.694	-0.128	-0.018
-155.691	232.084	0.209	-0.337
-154.677	70.245	-0.115	-0.117
-153.662	358.715	0.102	-0.200
-152.647	-87.259	-0.212	-0.063
-151.633	-123.702	-0.102	-0.016
-150.618	-72.092	0.134	0.049
-149.604	63.344	0.034	-0.033
-148.589	789.044	0.097	0.261
-147.574	683.318	-0.139	0.355
-146.560	-3.598	-0.038	0.026
-145.545	-153.958	0.345	0.023
-144.531	-200.000	0.090	-0.403
-143.516	-200.000	-0.016	0.209
-142.502	-200.000	0.035	0.491
-141.487	-200.000	0.012	0.276
-140.472	-200.000	0.016	0.106
-139.458	-118.176	-0.281	-0.049
-138.443	16.558	0.226	0.175
-137.429	-42.952	-0.287	-0.143
-136.414	-115.280	-0.152	0.028
-135.399	69.220	0.090	-0.091
-134.385	513.830	-0.102	0.233
-133.370	6.692	0.142	0.103
-132.356	72.303	-0.179	0.183
-131.341	-136.916	0.108	0.012
-130.326	49.804	-0.141	0.130
-129.312	389.683	0.143	-0.291
-128.297	94.795	0.194	-0.216
-127.283	184.198	0.074	0.107
-126.268	-107.428	-0.108	0.023
-125.253	-57.988	0.092	-0.039
-124.239	94.570	-0.163	0.181
-123.224	-200.000	-0.039	0.223
-122.210	800.000	-0.027	0.093
-121.195	-121.117	-0.447	0.073
-120.180	0.929	0.215	-0.151
-119.166	18.666	0.195	-0.153
-118.151	372.536	-0.135	0.269
-117.137	622.140	-0.079	0.195
-116.122	-78.968	0.167	0.056
-115.107	-142.346	0.090	-0.009
-114.093	503.966	-0.158	0.358
-113.078	137.541	-0.203	-0.261
-112.064	-200.000	0.106	-0.506
-111.049	44.916	0.381	0.344
-110.034	744.127	0.115	0.304
-109.020	-47.618	0.189	-0.090
-108.005	52.750	0.203	0.190
-106.991	73.736	-0.384	0.394
-105.976	-78.312	-0.232	0.078
-104.962	50.114	-0.111	0.103
-103.947	-64.598	0.241	0.096
-102.932	7.552	0.186	-0.136
-101.918	-200.000	0.012	-0.146
-100.903	89.718	-0.126	-0.138
-99.889	-157.720	0.484	0.028
-98.874	-200.000	-0.022	-0.107
-97.859	747.543	0.113	-0.298
-96.845	-170.497	0.263	0.009
-95.830	-27.594	0.167	0.095
-94.816	-89.893	-0.088	-0.025
-93.801	-81.479	-0.313	0.101
-92.786	-12.258	-0.207	-0.133
-91.772	-200.000	-0.038	-0.189
-90.757	-77.669	-0.126	-0.043
-89.743	-78.662	0.132	-0.044
-88.728	-15.476	-0.043	0.027
-87.713	-200.000	0.014	0.091
-86.699	800.000	0.021	0.085
-85.684	49.766	0.121	-0.112
-84.670	464.644	0.151	0.330
-83.655	126.270	0.113	0.140
-82.640	-56.342	-0.137	-0.060
-81.626	-105.508	0.040	0.009
-80.611	800.000	-0.076	-0.248
-79.597	-200.000	0.033	-0.202
-78.582	321.332	-0.208	-0.387
-77.567	-147.894	0.360	0.029
-76.553	705.965	0.103	-0.266
-75.538	-17.835	0.286	0.175
-74.524	768.530	-0.067	0.178
-73.509	800.000	-0.081	-0.251
-72.494	-200.000	0.019	0.122
-71.480	800.000	-0.054	-0.187
-70.465	-200.000	0.020	0.350
-69.451	107.880	0.049	0.058
-68.436	-135.508	0.022	0.003
-67.422	93.342	-0.221	0.245
-66.407	-105.056	0.124	-0.028
-65.392	-83.095	-0.086	0.027
-64.378	23.386	-0.015	-0.012
-63.363	149.475	-0.066	-0.087
-62.349	-163.611	-0.306	-0.014
-61.334	297.936	-0.607	-1.091
-60.319	112.412	0.443	0.524
-59.305	567.854	-0.328	-0.779
-58.290	33.734	1.210	1.030
-57.276	800.000	0.578	1.640
-56.261	-200.000	115.681	658.940
-55.246	530.764	1530.713	3537.799
-54.232	174.619	2716.073	3841.909
-53.217	101.935	2303.215	2628.206
-52.203	36.254	1907.631	1643.749
-51.188	30.028	1696.892	1414.732
-50.173	27.720	1654.726	1362.309
-49.159	49.726	1711.531	1576.653
-48.144	47.859	1724.875	1574.737
-47.130	29.646	1682.655	1399.742
-46.115	27.039	1668.404	1368.223
-45.100	26.781	1663.908	1362.539
-44.086	26.762	1661.105	1360.047
-43.071	26.768	1658.457	1357.875
-42.057	26.711	1655.586	1355.040
-41.042	26.834	1653.668	1354.341
-40.027	26.788	1651.910	1352.504
-39.013	26.771	1649.770	1350.570
-37.998	26.766	1648.360	1349.326
-36.984	26.828	1646.558	1348.254
-35.969	26.853	1645.354	1347.405
-34.954	26.995	1643.179	1346.620
-33.940	26.993	1641.664	1345.312
-32.925	26.958	1640.249	1343.839
-31.911	26.950	1638.240	1342.082
-30.896	26.929	1636.473	1340.424
-29.881	26.915	1634.587	1338.727
-28.867	26.880	1633.197	1337.273
-27.852	26.947	1631.912	1336.662
-26.838	26.919	1630.204	1335.007
-25.823	26.913	1628.885	1333.830
-24.809	26.895	1628.224	1333.101
-23.794	26.935	1626.314	1331.779
-22.779	26.862	1625.223	1330.293
-21.765	27.058	1622.750	1329.651
-20.750	26.851	1621.959	1327.439
-19.736	26.911	1620.449	1326.586
-18.721	26.973	1618.594	1325.469
-17.706	26.969	1617.471	1324.468
-16.692	26.923	1615.808	1322.716
-15.677	26.857	1614.640	1321.230
-14.663	26.885	1613.833	1320.720
-13.648	26.991	1611.833	1319.802
-12.633	26.982	1610.176	1318.329
-11.619	26.936	1608.706	1316.741
-10.604	27.013	1606.864	1315.739
-9.590	27.038	1605.619	1314.848
-8.575	26.931	1604.713	1313.279
-7.560	27.000	1603.416	1312.661
-6.546	26.965	1602.673	1311.752
-5.531	26.983	1601.216	1310.632
-4.517	26.952	1599.924	1309.303
-3.502	26.859	1599.194	1307.979
-2.487	27.103	1596.800	1307.730
-1.473	26.709	1585.578	1295.666
-0.458	23.805	1566.502	1259.480
0.556	21.371	1568.253	1229.123
1.571	19.134	1591.996	1231.635
2.586	18.754	1604.084	1238.135
3.600	16.534	1548.380	1179.572
4.615	9.683	1441.083	1053.117
5.629	4.227	1382.536	975.976
6.644	3.480	1374.678	965.663
7.659	3.366	1373.869	964.294
8.673	3.367	1372.474	963.238
9.688	3.378	1370.957	962.156
10.702	3.409	1367.927	960.138
11.717	5.994	1372.507	979.409
12.731	13.081	1385.922	1033.387
13.746	19.032	1395.452	1077.795
14.761	20.263	1396.788	1086.448
15.775	19.661	1394.442	1080.759
16.790	18.689	1391.637	1072.419
17.804	17.821	1389.880	1065.551
18.819	17.552	1388.415	1062.661
19.834	17.462	1386.848	1060.802
20.848	17.246	1386.183	1058.857
21.863	17.004	1384.781	1056.182
22.877	16.938	1383.268	1054.526
23.892	16.880	1382.913	1053.801
24.907	16.825	1382.047	1052.709
25.921	16.863	1380.858	1051.946
26.936	16.851	1379.981	1051.108
27.950	16.946	1379.049	1050.897
28.965	17.005	1378.074	1050.425
29.980	17.028	1376.936	1049.607
30.994	17.151	1375.952	1049.522
32.009	17.224	1374.766	1048.975
33.023	17.163	1373.685	1047.681
34.038	17.167	1372.117	1046.416
35.053	17.072	1370.478	1044.492
36.067	16.948	1369.971	1043.253
37.082	16.990	1369.048	1042.713
38.096	17.156	1367.981	1042.829
39.111	17.111	1367.306	1041.945
40.126	17.005	1366.099	1040.280
41.140	16.857	1365.299	1038.672
42.155	16.683	1364.701	1037.064
43.169	16.713	1364.749	1037.193
44.184	16.707	1364.039	1036.525
45.199	16.666	1363.889	1036.065
46.213	16.797	1363.065	1036.152
47.228	16.985	1362.216	1036.562
48.242	16.944	1361.326	1035.539
49.257	16.954	1359.942	1034.461
50.271	17.014	1357.946	1033.213
51.286	16.935	1356.806	1031.776
52.301	16.962	1355.565	1030.906
53.315	16.800	1355.192	1029.546
54.330	16.760	1353.614	1028.013
55.344	16.690	1352.573	1026.709
56.359	16.819	1351.318	1026.441
57.374	16.779	1350.478	1025.473
58.388	16.636	1349.897	1024.075
59.403	16.662	1349.775	1024.048
60.417	16.636	1348.594	1022.904
61.432	16.608	1347.816	1022.055
62.447	16.448	1346.976	1020.361
63.461	16.518	1345.410	1019.507
64.476	16.474	1344.722	1018.630
65.490	16.455	1343.258	1017.320
66.505	16.565	1341.642	1016.668
67.520	16.584	1340.084	1015.507
68.534	16.532	1339.127	1014.382
69.549	16.509	1339.020	1014.073
70.563	16.450	1337.648	1012.591
71.578	16.415	1336.258	1011.240
72.593	16.392	1335.272	1010.265
73.607	16.364	1334.784	1009.640
74.622	16.372	1333.804	1008.856
75.636	16.461	1333.108	1008.776
76.651	16.431	1332.679	1008.179
77.666	16.530	1331.878	1008.077
78.680	16.533	1331.357	1007.608
79.695	16.553	1330.494	1006.985
80.709	16.605	1329.958	1006.802
81.724	16.692	1329.853	1007.152
82.739	16.805	1328.491	1006.698
83.753	16.816	1327.668	1006.057
84.768	16.924	1326.790	1005.942
85.782	16.996	1325.553	1005.338
86.797	16.980	1324.193	1004.126
87.812	17.008	1322.799	1003.144
88.826	16.961	1321.913	1002.104
89.841	16.899	1320.832	1000.832
90.855	16.990	1319.846	1000.536
91.870	17.032	1319.164	1000.175
92.884	17.005	1318.385	999.336
93.899	17.024	1317.681	998.826
94.914	17.080	1316.789	998.394
95.928	17.153	1315.812	997.992
96.943	17.097	1315.011	996.966
97.957	17.139	1313.385	995.895
98.972	17.138	1312.272	994.956
99.987	17.039	1311.743	993.884
101.001	17.096	1310.554	993.231
102.016	16.997	1309.953	992.107
103.030	17.016	1309.113	991.496
104.045	17.035	1308.280	990.887
105.060	16.889	1306.530	988.620
106.074	16.783	1305.480	987.124
107.089	16.689	1303.786	985.209
108.103	16.587	1302.370	983.456
109.118	16.517	1301.372	982.208
110.133	16.545	1300.034	981.277
111.147	16.590	1298.563	980.339
112.162	16.711	1297.581	980.214
113.176	16.693	1296.234	979.003
114.191	16.768	1294.918	978.356
115.206	16.709	1294.455	977.580
116.220	16.717	1292.661	976.185
117.235	16.654	1291.820	975.101
118.249	16.639	1291.034	974.335
119.264	16.724	1289.202	973.353
120.279	16.531	1288.296	971.477
121.293	16.520	1287.433	970.674
122.308	16.501	1286.064	969.448
123.322	16.418	1285.305	968.314
124.337	16.457	1284.003	967.473
125.352	16.454	1282.840	966.495
126.366	16.481	1281.784	965.765
127.381	16.515	1280.827	965.151
128.395	16.468	1279.456	963.764
129.410	16.537	1278.875	963.638
130.424	16.612	1278.135	963.423
131.439	16.647	1277.166	962.806
132.454	16.684	1275.906	961.978
133.468	16.671	1274.796	960.985
134.483	16.722	1274.385	960.877
135.497	16.709	1273.308	959.907
136.512	16.648	1272.658	958.986
137.527	16.644	1271.302	957.858
138.541	16.797	1269.150	957.014
139.556	16.857	1268.074	956.460
140.570	16.931	1267.315	956.221
141.585	16.990	1265.464	955.068
142.600	17.035	1264.833	954.762
143.614	17.034	1264.408	954.350
144.629	17.024	1263.230	953.321
145.643	17.031	1261.966	952.322
146.658	17.009	1260.505	951.015
147.673	16.910	1259.038	949.270
148.687	16.754	1258.115	947.617
149.702	16.771	1256.953	946.751
150.716	16.740	1255.463	945.373
151.731	16.748	1254.534	944.631
152.746	16.846	1253.052	943.979
153.760	16.826	1251.929	942.938
154.775	16.931	1250.865	942.641
155.789	16.997	1250.333	942.522
156.804	16.945	1249.436	941.474
157.819	17.135	1247.996	941.356
158.833	17.018	1247.649	940.364
159.848	17.243	1246.637	940.763
160.862	17.231	1245.196	939.525
161.877	17.041	1244.048	937.525
162.892	16.864	1242.929	935.627
163.906	16.870	1241.968	934.853
164.921	16.863	1241.185	934.141
165.935	16.978	1240.106	933.879
166.950	17.027	1239.262	933.429
167.964	16.976	1239.048	932.908
168.979	16.956	1237.960	931.897
169.994	16.965	1237.332	931.390
171.008	17.105	1236.284	931.286
172.023	17.148	1235.596	930.918
173.037	17.155	1235.226	930.598
174.052	17.246	1233.751	929.902
175.067	16.983	1232.750	927.627
176.081	16.925	1231.571	926.343
177.096	16.908	1230.877	925.648
178.110	16.975	1229.775	925.098
179.125	17.045	1228.574	924.495
180.140	17.084	1227.258	923.634
181.154	17.112	1226.006	922.763
182.169	17.247	1224.580	922.344
183.183	17.187	1224.197	921.647
184.198	17.265	1222.762	920.906
185.213	17.322	1221.472	920.163
186.227	17.375	1220.276	919.465
187.242	17.377	1219.648	918.920
188.256	17.431	1218.682	918.406
189.271	17.472	1217.571	917.709
190.286	17.296	1216.710	916.031
191.300	16.875	1215.940	913.100
192.315	16.891	1214.691	912.168
193.329	16.887	1214.010	911.554
194.344	16.942	1213.752	911.578
195.359	17.139	1213.123	912.079
196.373	17.129	1213.191	911.997
197.388	17.321	1212.384	912.343
198.402	17.429	1212.157	912.668
199.417	17.572	1211.637	912.966
200.432	17.711	1210.749	912.959
201.446	17.673	1209.998	912.105
202.461	17.709	1208.956	911.434
203.475	17.709	1208.064	910.679
204.490	17.654	1206.269	908.951
205.504	17.440	1205.455	907.119
206.519	17.445	1204.381	906.258
207.534	17.497	1202.619	905.130
208.548	17.378	1202.058	903.990
209.563	17.493	1201.337	903.980
210.577	17.414	1200.608	902.931
211.592	17.550	1199.375	902.650
212.607	17.674	1198.599	902.638
213.621	17.568	1198.034	901.576
214.636	17.640	1197.317	901.334
215.650	17.536	1196.390	900.008
216.665	17.727	1195.512	900.276
217.680	17.917	1194.429	900.384
218.694	17.923	1193.474	899.615
219.709	17.966	1192.580	899.090
220.723	17.832	1191.727	897.662
221.738	17.816	1190.776	896.781
222.753	17.693	1190.702	895.997
223.767	17.842	1190.057	896.216
224.782	17.877	1189.788	896.119
225.796	17.895	1188.908	895.473
226.811	17.955	1188.008	895.029
227.826	17.782	1187.358	893.553
228.840	17.824	1186.428	892.994
229.855	17.833	1185.767	892.465
230.869	17.772	1185.079	891.548
231.884	17.684	1183.744	890.007
232.899	17.604	1182.989	888.941
233.913	17.656	1182.391	888.686
234.928	17.674	1181.472	888.008
235.942	17.581	1180.796	886.943
236.957	17.574	1179.684	885.988
237.972	17.661	1179.089	885.915
238.986	17.622	1178.849	885.456
240.001	17.664	1178.028	884.977
241.015	17.728	1176.996	884.455
242.030	17.772	1176.379	884.142
243.045	17.824	1175.386	883.586
244.059	17.811	1174.889	883.067
245.074	17.830	1173.827	882.291
246.088	17.973	1172.863	882.229
247.103	18.028	1172.429	882.106
248.117	18.027	1171.802	881.549
249.132	18.162	1171.021	881.584
250.147	18.423	1170.244	882.265
251.161	18.387	1169.912	881.751
252.176	18.483	1168.891	881.395
253.190	18.474	1168.341	880.856
254.205	18.595	1167.996	881.140
255.220	18.644	1167.195	880.711
256.234	18.561	1166.507	879.688
257.249	18.548	1165.867	879.060
258.263	18.491	1165.303	878.263
259.278	18.514	1164.951	878.039
260.293	18.537	1164.192	877.509
261.307	18.490	1163.813	876.904
262.322	18.633	1162.805	876.798
263.336	18.650	1162.051	876.239
264.351	18.682	1161.686	876.047
265.366	18.746	1160.636	875.507
266.380	18.731	1160.058	874.916
267.395	18.651	1159.464	873.982
268.409	18.616	1158.166	872.750
269.424	18.504	1158.057	872.020
270.439	18.532	1157.211	871.449
271.453	18.560	1156.141	870.706
272.468	18.496	1155.431	869.768
273.482	18.409	1154.879	868.835
274.497	18.494	1154.042	868.563
275.512	18.533	1153.613	868.356
276.526	18.581	1152.621	867.779
277.541	18.554	1151.728	866.893
278.555	18.601	1150.852	866.392
279.570	18.705	1151.033	866.977
280.585	18.827	1149.574	866.418
281.599	18.791	1148.975	865.711
282.614	18.746	1147.930	864.620
283.628	18.647	1146.503	862.970
284.643	18.648	1145.765	862.345
285.657	18.710	1144.998	861.998
286.672	18.590	1144.007	860.577
287.687	18.633	1143.288	860.174
288.701	18.636	1142.608	859.603
289.716	18.781	1141.858	859.687
290.730	18.762	1141.020	858.883
291.745	18.586	1140.687	857.678
292.760	18.682	1140.109	857.650
293.774	18.872	1138.776	857.519
294.789	18.975	1138.393	857.667
295.803	18.971	1137.999	857.274
296.818	18.843	1137.101	855.882
297.833	18.768	1136.537	855.010
298.847	18.751	1135.425	854.015
299.862	18.849	1134.548	853.765
300.876	18.973	1133.651	853.629
301.891	18.935	1133.419	853.192
302.906	19.076	1132.224	852.914
303.920	19.162	1131.969	853.076
304.935	19.188	1131.294	852.620
305.949	19.196	1130.992	852.356
306.964	19.205	1130.116	851.666
307.979	19.105	1129.526	850.650
308.993	18.996	1128.626	849.357
310.008	19.170	1128.067	849.719
311.022	19.252	1126.734	849.047
312.037	19.215	1125.937	848.190
313.052	19.197	1124.642	847.048
314.066	19.140	1123.665	845.960
315.081	18.902	1123.206	844.369
316.095	18.953	1122.665	844.138
317.110	18.900	1122.141	843.412
318.125	18.858	1121.606	842.726
319.139	19.056	1120.708	842.946
320.154	18.944	1119.724	841.584
321.168	19.001	1119.229	841.415
322.183	19.071	1118.782	841.348
323.197	19.026	1118.201	840.618
324.212	18.984	1117.500	839.812
325.227	19.065	1117.015	839.769
326.241	19.142	1116.444	839.638
327.256	19.019	1115.673	838.388
328.270	19.097	1114.416	837.748
329.285	19.071	1113.569	836.909
330.300	19.067	1112.398	835.937
331.314	19.118	1111.348	835.319
332.329	19.098	1110.628	834.610
333.343	19.245	1109.542	834.430
334.358	19.372	1108.891	834.481
335.373	19.298	1108.579	833.814
336.387	19.391	1107.783	833.594
337.402	19.379	1106.984	832.857
338.416	19.390	1106.470	832.451
339.431	19.411	1105.740	831.931
340.446	19.550	1105.055	832.009
341.460	19.581	1104.636	831.771
342.475	19.645	1103.867	831.428
343.489	19.700	1102.584	830.651
344.504	19.769	1101.686	830.230
345.519	19.763	1101.008	829.621
346.533	19.807	1100.501	829.373
347.548	19.680	1099.890	828.231
348.562	19.865	1098.518	828.012
349.577	19.740	1097.707	826.730
350.592	19.506	1097.350	825.270
351.606	19.473	1096.632	824.498
352.621	19.492	1095.415	823.598
353.635	19.439	1094.711	822.744
354.650	19.472	1094.025	822.316
355.665	19.456	1093.842	822.027
356.679	19.549	1093.311	821.997
357.694	19.527	1092.796	821.432
358.708	19.718	1091.615	821.381
359.723	19.730	1091.067	820.953
360.738	19.672	1090.715	820.339
361.752	19.727	1090.245	820.176
362.767	19.534	1089.719	818.790
363.781	19.716	1089.024	819.061
364.796	19.755	1088.674	818.908
365.810	19.908	1087.860	818.948
366.825	19.999	1087.377	818.943
367.840	20.042	1087.138	818.895
368.854	20.143	1086.206	818.594
369.869	20.092	1085.614	817.836
370.883	20.192	1084.668	817.521
371.898	20.027	1083.910	816.102
372.913	20.007	1083.291	815.468
373.927	20.021	1082.595	814.940
374.942	20.094	1082.507	815.143
375.956	20.112	1081.744	814.583
376.971	20.057	1081.011	813.701
377.986	20.209	1080.483	813.945
379.000	20.224	1079.920	813.518
380.015	20.285	1079.686	813.557
381.029	20.335	1078.789	813.041
382.044	20.318	1078.302	812.524
383.059	20.207	1077.567	811.378
384.073	20.314	1076.352	810.891
385.088	20.380	1075.639	810.590
386.102	20.400	1074.531	809.775
387.117	20.215	1073.912	808.375
388.132	20.113	1072.712	806.927
389.146	20.189	1072.041	806.702
390.161	20.160	1070.855	805.605
391.175	20.179	1070.289	805.198
392.190	20.157	1069.805	804.658
393.205	20.238	1069.575	804.791
394.219	20.360	1068.670	804.606
395.234	20.316	1067.611	803.530
396.248	20.293	1066.455	802.484
397.263	20.170	1065.692	801.273
398.278	20.118	1064.854	800.332
399.292	20.055	1064.438	799.655
400.307	20.115	1063.167	798.907
401.321	20.056	1062.430	798.011
402.336	20.026	1062.282	797.691
403.350	20.113	1061.276	797.265
404.365	20.078	1061.000	796.828
405.380	20.324	1059.947	797.095
406.394	20.260	1059.303	796.245
407.409	20.480	1058.408	796.512
408.423	20.439	1057.621	795.662
409.438	20.528	1057.110	795.614
410.453	20.647	1056.535	795.655
411.467	20.619	1056.132	795.151
412.482	20.672	1055.020	794.487
413.496	20.696	1054.450	794.098
414.511	20.812	1054.056	794.257
415.526	20.841	1053.701	794.053
416.540	20.879	1053.541	794.035
417.555	20.859	1052.620	793.183
418.569	20.775	1052.024	792.281
419.584	20.725	1051.696	791.737
420.599	20.774	1051.173	791.494
421.613	155.012	1404.802	1795.657
422.628	142.158	1456.288	1795.725
