DTS Sentinel unit serial number:	SN413079Multiplexer serial number:	ORYXHardware model number:	OX4-SRSoftware version number:	ORYX F/W v4.00 Oryx Data Collector v3.7.2.0data status	okinstallation	princeton_trtdifferential loss correction	single-endedforward channel	channel 2reverse channel	N/Adate	2019/09/18time	10:47:35forward acquisition time	60.00reverse acquisition time	0.00gamma	496.2192k internal	0.2330k external	0.2330temperature offset calibration	0.9985default loss term (dB/km)	0.3790temperature slope calibration	1.0000multiplexer offset coefficient	1.0000multiplexer slope coefficient	1.0000fibre end	0.00T internal ref (°C)	28.94T ext. ref 1 (°C)	0.37T ext. ref 2 (°C)	25.42length (m)	temperature (°C)	Stokes	anti-Stokes-747.200	26.494	0.124	-0.104
-746.185	-132.172	-0.394	0.051
-745.171	-53.451	-0.249	0.115
-744.156	255.156	-0.137	0.236
-743.142	24.988	-0.182	-0.152
-742.127	-115.502	-0.282	0.053
-741.112	-173.976	0.136	0.004
-740.098	47.974	-0.124	0.117
-739.083	180.795	0.073	-0.108
-738.069	800.000	-0.067	0.199
-737.054	800.000	0.145	-0.498
-736.039	395.800	0.137	-0.287
-735.025	-195.034	0.100	0.001
-734.010	394.173	0.108	-0.227
-732.996	78.245	0.064	0.068
-731.981	66.659	-0.121	0.124
-730.966	32.108	-0.051	-0.045
-729.952	-200.000	-0.044	0.199
-728.937	49.877	-0.293	0.278
-727.923	-92.103	-0.130	-0.037
-726.908	-200.000	-0.029	-0.248
-725.894	138.908	-0.115	0.152
-724.879	800.000	-0.057	-0.171
-723.864	800.000	-0.021	0.076
-722.850	-200.000	-0.028	0.232
-721.835	800.000	0.057	0.193
-720.821	12.633	0.243	-0.188
-719.806	800.000	0.037	-0.138
-718.791	-49.296	0.442	0.212
-717.777	-147.316	-0.324	0.028
-716.762	-89.401	0.422	-0.125
-715.748	800.000	-0.013	0.056
-714.733	-148.706	-0.325	-0.027
-713.718	346.325	0.191	-0.379
-712.704	-65.011	-0.160	0.065
-711.689	800.000	0.011	0.032
-710.675	295.586	-0.044	-0.081
-709.660	199.321	0.099	-0.153
-708.645	-2.296	0.083	0.059
-707.631	-200.000	0.043	-0.262
-706.616	-40.295	-0.075	-0.039
-705.602	91.375	0.061	-0.068
-704.587	560.875	0.039	0.094
-703.572	800.000	0.039	-0.159
-702.558	800.000	0.010	-0.037
-701.543	-56.479	-0.299	0.133
-700.529	-49.017	-0.134	-0.064
-699.514	-200.000	-0.011	-0.127
-698.499	88.728	-0.043	-0.048
-697.485	141.774	0.152	-0.203
-696.470	800.000	-0.033	-0.096
-695.456	-200.000	0.001	0.030
-694.441	129.045	0.306	-0.392
-693.426	746.147	-0.076	-0.205
-692.412	260.712	-0.060	-0.104
-691.397	-200.000	0.003	0.017
-690.383	42.066	-0.174	0.159
-689.368	66.800	-0.207	0.211
-688.354	38.721	-0.183	0.164
-687.339	-189.409	0.283	-0.003
-686.324	-109.722	-0.178	-0.038
-685.310	65.074	0.130	0.132
-684.295	1.150	-0.119	-0.086
-683.281	67.260	-0.202	-0.207
-682.266	-165.493	-0.173	0.008
-681.251	-200.000	-0.024	0.370
-680.237	-200.000	0.110	-0.490
-679.222	5.414	0.220	0.163
-678.208	-4.444	0.236	-0.164
-677.193	-39.446	0.200	-0.105
-676.178	57.065	-0.238	-0.233
-675.164	111.975	0.044	-0.053
-674.149	800.000	-0.024	0.081
-673.135	160.167	0.176	-0.246
-672.120	52.123	-0.084	0.080
-671.105	-121.562	0.132	-0.022
-670.091	8.943	0.279	0.211
-669.076	-32.780	0.054	0.030
-668.062	-45.809	0.142	0.071
-667.047	494.007	0.231	-0.533
-666.032	212.910	0.082	0.130
-665.018	-97.037	-0.120	-0.032
-664.003	-200.000	0.068	-0.457
-662.989	-200.000	-0.007	0.278
-661.974	-200.000	0.011	0.116
-660.959	-200.000	-0.029	-0.257
-659.945	-19.118	-0.026	-0.016
-658.930	-19.540	0.113	0.070
-657.916	-30.187	-0.063	-0.036
-656.901	114.074	-0.202	-0.247
-655.886	80.024	-0.104	-0.113
-654.872	125.636	-0.276	-0.350
-653.857	-200.000	-0.024	-0.236
-652.843	-104.918	-0.175	0.040
-651.828	800.000	-0.067	0.282
-650.814	235.205	-0.067	0.111
-649.799	7.926	0.152	-0.114
-648.784	158.928	-0.247	0.344
-647.770	-91.175	-0.322	0.093
-646.755	-8.574	-0.385	0.260
-645.741	-57.293	0.195	-0.086
-644.726	373.963	-0.113	0.230
-643.711	-128.922	0.168	0.024
-642.697	-88.382	0.042	-0.013
-641.682	-18.900	0.226	-0.141
-640.668	120.957	-0.016	-0.020
-639.653	8.965	-0.082	-0.062
-638.638	-200.000	-0.023	-0.188
-637.624	-53.463	-0.150	0.069
-636.609	23.769	-0.224	0.185
-635.595	-200.000	-0.124	-0.553
-634.580	-24.432	-0.200	-0.120
-633.565	-200.000	-0.003	0.194
-632.551	-200.000	0.028	0.147
-631.536	-31.247	0.127	-0.072
-630.522	-112.548	-0.104	-0.021
-629.507	-196.827	0.071	0.000
-628.492	800.000	-0.084	0.304
-627.478	-69.552	-0.196	0.075
-626.463	-55.132	-0.175	-0.079
-625.449	124.002	-0.214	-0.269
-624.434	-42.463	0.219	-0.112
-623.419	277.725	0.147	0.262
-622.405	800.000	0.034	-0.148
-621.390	2.269	-0.191	0.139
-620.376	-141.211	0.318	-0.032
-619.361	-83.506	-0.114	0.036
-618.346	18.443	-0.106	-0.085
-617.332	416.778	-0.156	0.333
-616.317	90.425	0.061	-0.068
-615.303	14.415	0.221	-0.172
-614.288	78.018	-0.207	-0.221
-613.273	22.220	0.159	-0.130
-612.259	-134.502	-0.177	0.022
-611.244	800.000	-0.083	-0.359
-610.230	48.662	-0.155	0.145
-609.215	230.464	-0.063	-0.103
-608.201	-176.506	0.203	-0.005
-607.186	40.463	-0.092	-0.083
-606.171	-200.000	0.010	0.148
-605.157	134.454	0.101	-0.131
-604.142	-64.028	-0.075	0.031
-603.128	37.709	0.062	-0.055
-602.113	534.926	-0.171	0.406
-601.098	-44.631	0.226	-0.113
-600.084	-200.000	-0.007	-0.218
-599.069	-200.000	0.006	-0.088
-598.055	598.183	0.019	-0.046
-597.040	56.161	-0.173	-0.168
-596.025	-200.000	0.026	-0.220
-595.011	-62.395	-0.263	0.109
-593.996	-86.491	-0.106	-0.033
-592.982	129.975	-0.158	0.202
-591.967	152.008	-0.182	-0.249
-590.952	322.879	-0.092	-0.175
-589.938	-200.000	0.044	-0.396
-588.923	636.454	-0.032	-0.082
-587.909	6.684	-0.127	-0.095
-586.894	119.583	-0.117	0.145
-585.879	-74.453	0.154	-0.056
-584.865	-104.202	-0.091	-0.021
-583.850	800.000	-0.010	0.029
-582.836	225.983	-0.257	-0.417
-581.821	-123.920	-0.269	-0.042
-580.806	-121.883	-0.157	-0.026
-579.792	-154.378	-0.080	-0.005
-578.777	-74.407	-0.346	0.125
-577.763	800.000	0.093	0.312
-576.748	219.470	-0.100	0.161
-575.733	158.263	0.184	0.255
-574.719	-39.196	-0.066	0.035
-573.704	800.000	-0.076	-0.212
-572.690	800.000	-0.028	-0.121
-571.675	-155.542	0.455	0.029
-570.661	344.492	0.104	0.203
-569.646	-56.054	-0.051	0.023
-568.631	-132.599	0.353	0.045
-567.617	-200.000	-0.001	-0.115
-566.602	-38.123	-0.100	-0.053
-565.588	8.476	0.240	0.180
-564.573	86.809	-0.081	0.090
-563.558	800.000	0.087	-0.258
-562.544	-28.144	0.227	-0.131
-561.529	-20.854	0.463	0.284
-560.515	-52.631	0.105	-0.049
-559.500	-200.000	0.007	0.066
-558.485	-120.563	0.335	0.057
-557.471	164.294	0.086	-0.121
-556.456	-114.799	0.197	0.038
-555.442	-87.231	-0.138	-0.042
-554.427	83.484	-0.224	-0.244
-553.412	417.304	-0.078	-0.167
-552.398	-200.000	-0.009	-0.075
-551.383	-123.559	-0.372	0.059
-550.369	-30.760	0.113	0.064
-549.354	-200.000	0.029	-0.268
-548.339	374.159	-0.122	-0.248
-547.325	239.474	0.100	-0.166
-546.310	-72.563	-0.222	-0.082
-545.296	-100.149	-0.153	-0.038
-544.281	-200.000	0.018	0.108
-543.266	239.278	0.022	-0.037
-542.252	50.052	-0.219	-0.206
-541.237	-200.000	-0.035	-0.230
-540.223	267.278	-0.108	-0.189
-539.208	49.054	-0.409	0.383
-538.193	-59.319	-0.063	0.027
-537.179	800.000	0.094	-0.260
-536.164	6.078	0.096	-0.071
-535.150	800.000	-0.138	0.417
-534.135	800.000	-0.050	-0.172
-533.121	96.081	0.192	0.219
-532.106	-165.827	-0.094	0.004
-531.091	-123.519	-0.103	-0.016
-530.077	800.000	-0.028	0.090
-529.062	153.389	-0.203	0.278
-528.048	56.431	0.108	-0.105
-527.033	800.000	-0.059	-0.193
-526.018	140.532	0.202	0.266
-525.004	-53.237	-0.100	-0.046
-523.989	-200.000	-0.010	0.238
-522.975	83.594	-0.179	0.195
-521.960	206.069	-0.114	0.177
-520.945	293.769	-0.115	0.210
-519.931	75.148	0.261	-0.275
-518.916	-60.776	0.322	-0.136
-517.902	19.410	0.301	0.242
-516.887	41.483	0.311	0.281
-515.872	800.000	0.028	-0.117
-514.858	-20.686	-0.135	0.082
-513.843	-148.808	-0.272	0.022
-512.829	372.806	0.147	0.298
-511.814	314.535	0.055	0.103
-510.799	140.615	-0.188	0.247
-509.785	24.353	0.156	-0.129
-508.770	188.672	-0.056	0.083
-507.756	-107.310	-0.235	-0.051
-506.741	26.488	-0.204	0.170
-505.726	-52.318	0.047	0.022
-504.712	-89.016	-0.441	-0.130
-503.697	-63.440	0.196	0.080
-502.683	116.793	-0.198	-0.243
-501.668	-110.128	-0.303	-0.063
-500.653	237.851	-0.181	0.300
-499.639	-22.496	-0.047	-0.029
-498.624	607.726	0.096	-0.239
-497.610	132.066	-0.080	0.102
-496.595	493.825	0.047	0.108
-495.581	800.000	0.108	0.367
-494.566	11.258	-0.124	0.095
-493.551	27.748	0.063	0.053
-492.537	132.529	-0.094	0.121
-491.522	-200.000	-0.004	0.157
-490.508	136.755	0.062	0.081
-489.493	-34.537	-0.180	-0.098
-488.478	519.997	-0.104	0.244
-487.464	107.873	-0.237	-0.282
-486.449	-27.066	-0.207	-0.120
-485.435	254.946	-0.042	0.072
-484.420	92.251	-0.184	-0.206
-483.405	97.229	0.241	-0.276
-482.391	117.429	-0.114	-0.140
-481.376	-185.054	0.407	-0.006
-480.362	46.056	0.037	-0.034
-479.347	6.579	-0.077	-0.057
-478.332	-200.000	0.046	0.307
-477.318	-167.390	-0.149	0.006
-476.303	429.936	0.117	0.252
-475.289	130.879	-0.117	0.150
-474.274	96.412	-0.068	-0.078
-473.259	-164.114	0.119	-0.005
-472.245	526.349	0.079	-0.185
-471.230	-127.875	-0.231	0.033
-470.216	800.000	-0.096	0.293
-469.201	350.946	0.093	0.184
-468.186	107.958	0.159	0.189
-467.172	33.468	0.084	0.072
-466.157	55.980	0.219	0.212
-465.143	800.000	0.022	-0.097
-464.128	-199.408	0.437	-0.002
-463.113	-22.552	-0.185	0.111
-462.099	133.171	-0.197	-0.253
-461.084	320.919	0.068	0.129
-460.070	410.961	0.111	-0.235
-459.055	56.246	-0.042	0.041
-458.040	-200.000	-0.013	0.174
-457.026	-105.961	-0.351	-0.079
-456.011	-51.258	-0.089	-0.041
-454.997	-66.110	-0.165	-0.065
-453.982	-163.436	0.303	0.014
-452.968	-46.859	-0.207	0.101
-451.953	-200.000	-0.070	-0.460
-450.938	51.675	-0.265	-0.251
-449.924	20.475	0.093	0.075
-448.909	-200.000	0.007	-0.055
-447.895	163.444	0.209	0.292
-446.880	-38.399	0.246	0.129
-445.865	800.000	0.071	0.269
-444.851	14.727	0.185	0.144
-443.836	-30.885	0.262	0.147
-442.822	-6.477	-0.136	-0.092
-441.807	-200.000	0.006	0.047
-440.792	141.052	0.036	-0.048
-439.778	-109.953	-0.475	0.099
-438.763	163.535	0.147	-0.205
-437.749	-5.923	-0.076	0.051
-436.734	65.390	0.018	0.018
-435.719	68.297	-0.175	0.179
-434.705	-200.000	-0.039	-0.235
-433.690	275.499	0.048	-0.084
-432.676	-123.245	0.164	0.026
-431.661	-49.110	0.129	0.062
-430.646	-135.854	-0.232	0.027
-429.632	70.786	-0.025	-0.026
-428.617	-200.000	-0.025	-0.172
-427.603	-22.042	0.310	0.187
-426.588	-39.262	-0.303	-0.158
-425.573	-25.902	-0.281	0.165
-424.559	-200.000	0.037	-0.171
-423.544	663.899	-0.134	-0.343
-422.530	-200.000	-0.041	-0.255
-421.515	-105.533	0.444	-0.100
-420.500	-90.657	-0.229	-0.066
-419.486	-26.469	0.248	-0.145
-418.471	-46.078	0.238	0.117
-417.457	-49.427	-0.403	-0.191
-416.442	-16.722	0.032	-0.020
-415.428	4.612	0.103	0.075
-414.413	-142.342	-0.245	-0.024
-413.398	17.677	-0.526	-0.416
-412.384	-130.701	0.109	0.015
-411.369	-91.400	0.183	-0.052
-410.355	-129.089	0.200	-0.028
-409.340	21.608	0.241	0.195
-408.325	-200.000	0.002	0.134
-407.311	-197.220	0.179	0.001
-406.296	719.692	0.053	-0.140
-405.282	-200.000	0.010	0.059
-404.267	61.498	0.293	-0.289
-403.252	13.852	0.090	-0.070
-402.238	162.235	-0.186	0.260
-401.223	-118.151	0.125	0.022
-400.209	-41.119	-0.210	-0.108
-399.194	5.048	-0.060	0.044
-398.179	510.976	0.032	-0.074
-397.165	800.000	0.096	-0.275
-396.150	-128.569	0.164	0.023
-395.136	201.995	0.256	-0.392
-394.121	-61.515	0.308	0.129
-393.106	-89.185	0.171	0.050
-392.092	35.957	0.172	-0.151
-391.077	573.854	-0.160	-0.387
-390.063	115.035	-0.224	0.272
-389.048	93.415	-0.051	-0.057
-388.033	-154.480	0.397	-0.026
-387.019	-72.574	-0.415	0.152
-386.004	-101.093	-0.119	0.029
-384.990	109.687	-0.088	-0.105
-383.975	800.000	0.056	-0.223
-382.960	119.718	-0.037	0.046
-381.946	333.756	0.067	-0.128
-380.931	158.800	-0.125	-0.173
-379.917	-47.119	-0.381	-0.185
-378.902	800.000	0.067	0.283
-377.888	-123.667	0.414	-0.065
-376.873	-126.672	0.414	-0.061
-375.858	-57.240	-0.173	-0.076
-374.844	-120.470	-0.084	0.014
-373.829	-62.580	0.314	0.129
-372.815	644.504	0.231	0.585
-371.800	-200.000	-0.033	-0.297
-370.785	70.303	0.218	-0.224
-369.771	9.114	-0.244	-0.183
-368.756	-73.880	0.294	-0.106
-367.742	159.031	-0.011	-0.015
-366.727	-40.639	0.228	-0.117
-365.712	-53.707	0.377	-0.171
-364.698	800.000	0.035	-0.151
-363.683	-42.918	-0.100	0.050
-362.669	37.635	-0.196	-0.172
-361.654	35.397	0.202	-0.176
-360.639	-107.973	-0.155	0.033
-359.625	-200.000	0.007	0.364
-358.610	-53.272	-0.111	-0.051
-357.596	800.000	-0.055	-0.225
-356.581	23.932	0.223	-0.183
-355.566	66.235	-0.181	-0.182
-354.552	-36.636	0.237	0.127
-353.537	-27.011	0.225	0.130
-352.523	498.509	-0.063	-0.143
-351.508	-79.855	0.084	-0.028
-350.493	800.000	-0.079	-0.287
-349.479	-200.000	-0.031	0.145
-348.464	-64.482	0.074	0.030
-347.450	-4.703	0.082	0.056
-346.435	-134.497	-0.431	0.052
-345.420	-39.993	0.325	-0.168
-344.406	110.758	-0.236	-0.281
-343.391	-116.304	-0.031	-0.006
-342.377	-200.000	0.005	-0.212
-341.362	-102.587	0.265	-0.063
-340.348	-77.336	-0.154	0.053
-339.333	369.164	0.127	0.255
-338.318	11.388	-0.068	0.052
-337.304	-184.088	-0.205	-0.003
-336.289	-71.001	-0.300	-0.112
-335.275	-200.000	-0.023	-0.193
-334.260	36.265	-0.130	0.113
-333.245	180.353	-0.120	0.174
-332.231	63.630	0.063	-0.062
-331.216	59.927	-0.277	0.271
-330.202	15.991	-0.278	0.217
-329.187	354.651	-0.143	0.281
-328.172	21.851	0.152	0.123
-327.158	-9.938	0.207	-0.136
-326.143	1.916	0.197	-0.140
-325.129	-21.665	0.101	-0.061
-324.114	-200.000	-0.026	0.145
-323.099	-132.931	0.017	0.002
-322.085	-200.000	-0.003	0.179
-321.070	228.028	0.201	0.324
-320.056	3.687	0.355	0.256
-319.041	-66.781	-0.195	-0.076
-318.026	-200.000	0.032	0.201
-317.012	298.614	0.058	-0.106
-315.997	36.059	-0.055	0.048
-314.983	800.000	-0.116	0.430
-313.968	82.763	0.103	-0.111
-312.953	800.000	0.109	-0.335
-311.939	-198.778	0.315	0.002
-310.924	-115.342	-0.149	0.028
-309.910	390.115	-0.057	0.116
-308.895	-200.000	0.029	-0.329
-307.880	800.000	-0.033	-0.108
-306.866	-200.000	0.056	-0.389
-305.851	-126.714	0.339	-0.050
-304.837	111.608	0.076	0.090
-303.822	595.580	0.050	-0.123
-302.807	535.944	-0.093	0.219
-301.793	-146.177	-0.347	0.030
-300.778	129.321	0.139	-0.176
-299.764	-31.440	-0.099	0.055
-298.749	96.107	0.150	-0.170
-297.735	116.067	0.068	-0.082
-296.720	800.000	-0.033	-0.138
-295.705	73.406	0.189	0.196
-294.691	-145.562	-0.232	-0.021
-293.676	-91.941	0.218	-0.061
-292.662	-32.648	0.301	0.166
-291.647	-106.122	-0.223	-0.050
-290.632	546.247	-0.096	-0.228
-289.618	12.360	-0.180	0.137
-288.603	35.741	0.222	0.193
-287.589	-48.999	-0.369	-0.175
-286.574	-57.544	0.210	0.091
-285.559	227.749	0.064	0.102
-284.545	207.061	0.115	-0.178
-283.530	234.982	-0.094	-0.153
-282.516	-176.367	-0.116	0.003
-281.501	13.611	-0.142	0.109
-280.486	-107.768	-0.180	0.039
-279.472	-53.298	-0.149	-0.067
-278.457	-129.401	-0.153	-0.021
-277.443	153.801	-0.101	0.137
-276.428	-44.004	0.333	-0.165
-275.413	-200.000	0.031	-0.275
-274.399	-125.741	0.384	0.057
-273.384	-118.317	0.325	0.057
-272.370	-200.000	0.030	0.206
-271.355	-33.135	-0.151	0.082
-270.340	80.310	-0.291	0.309
-269.326	-200.000	-0.039	-0.333
-268.311	496.040	0.066	-0.149
-267.297	800.000	0.021	0.084
-266.282	-66.332	-0.044	0.017
-265.267	-59.780	0.286	0.121
-264.253	-58.978	-0.102	-0.044
-263.238	191.820	0.116	-0.172
-262.224	406.254	-0.044	0.091
-261.209	-32.549	-0.086	-0.047
-260.195	226.397	0.102	-0.164
-259.180	425.055	0.036	-0.078
-258.165	-81.081	0.128	-0.042
-257.151	-159.928	0.292	-0.016
-256.136	13.362	-0.090	0.069
-255.122	800.000	0.146	-0.505
-254.107	-200.000	-0.027	0.145
-253.092	-200.000	0.002	-0.124
-252.078	-200.000	-0.010	0.180
-251.063	800.000	-0.082	-0.287
-250.049	800.000	0.026	0.100
-249.034	140.065	0.141	-0.184
-248.019	-143.665	-0.114	-0.011
-247.005	-24.478	-0.125	-0.074
-245.990	-200.000	0.052	0.304
-244.976	-121.435	-0.213	0.035
-243.961	-23.985	-0.194	0.114
-242.946	-200.000	-0.102	0.507
-241.932	-125.205	0.179	0.027
-240.917	-200.000	-0.014	0.294
-239.903	-200.000	0.006	0.118
-238.888	-200.000	-0.018	-0.093
-237.873	234.626	0.153	-0.250
-236.859	716.911	-0.127	-0.332
-235.844	31.038	-0.287	0.243
-234.830	-200.000	-0.001	-0.347
-233.815	-118.985	-0.281	-0.049
-232.800	800.000	0.096	0.314
-231.786	-200.000	0.051	0.243
-230.771	-200.000	0.008	0.055
-229.757	-70.249	-0.178	-0.067
-228.742	-146.775	-0.134	0.011
-227.727	-0.856	-0.229	-0.160
-226.713	-53.701	0.255	-0.115
-225.698	-8.092	-0.043	-0.029
-224.684	-109.402	0.038	-0.008
-223.669	538.686	0.039	0.092
-222.655	800.000	0.021	0.079
-221.640	-55.494	-0.168	-0.074
-220.625	-156.496	-0.376	0.023
-219.611	-200.000	0.049	0.320
-218.596	-188.645	0.273	-0.003
-217.582	97.252	0.130	0.148
-216.567	690.262	0.069	-0.177
-215.552	-92.701	-0.170	0.047
-214.538	130.924	-0.114	0.144
-213.523	-200.000	0.022	0.127
-212.509	-200.000	-0.014	0.168
-211.494	-200.000	-0.043	0.287
-210.479	346.606	0.130	0.252
-209.465	79.681	0.134	0.142
-208.450	-200.000	-0.011	0.155
-207.436	573.308	0.038	-0.091
-206.421	-160.495	-0.036	0.002
-205.406	150.818	0.143	0.191
-204.392	-11.502	0.153	-0.099
-203.377	148.639	0.065	0.086
-202.363	37.631	-0.094	0.083
-201.348	2.730	0.228	-0.163
-200.333	-121.477	-0.097	-0.016
-199.319	29.774	-0.179	0.150
-198.304	-200.000	-0.025	-0.166
-197.290	-3.560	0.074	0.051
-196.275	-200.000	-0.026	-0.358
-195.260	587.304	-0.038	-0.092
-194.246	-200.000	-0.029	-0.155
-193.231	-200.000	-0.020	0.124
-192.217	21.378	-0.129	0.103
-191.202	800.000	0.050	-0.154
-190.187	-149.168	0.300	-0.024
-189.173	-200.000	-0.036	0.167
-188.158	255.742	-0.072	-0.122
-187.144	-200.000	-0.044	0.199
-186.129	-140.182	-0.089	0.009
-185.114	-139.857	0.200	-0.021
-184.100	-124.287	0.061	-0.009
-183.085	49.860	-0.242	0.225
-182.071	177.900	0.095	0.136
-181.056	-93.717	-0.304	-0.083
-180.042	-200.000	-0.010	0.066
-179.027	-200.000	-0.001	-0.030
-178.012	-76.875	-0.124	0.043
-176.998	-34.544	0.410	0.221
-175.983	-157.239	0.133	-0.008
-174.969	-200.000	-0.055	0.384
-173.954	-108.516	0.142	-0.030
-172.939	134.059	-0.199	-0.254
-171.925	-116.597	0.305	-0.055
-170.910	20.801	-0.047	-0.037
-169.896	-139.689	0.434	-0.045
-168.881	157.604	-0.290	0.396
-167.866	-134.842	0.349	0.042
-166.852	-39.669	0.254	0.131
-165.837	30.415	-0.091	0.077
-164.823	-200.000	0.074	0.322
-163.808	-200.000	0.054	-0.275
-162.793	-200.000	-0.028	0.129
-161.779	-200.000	-0.010	-0.129
-160.764	79.500	0.017	-0.018
-159.750	-110.726	0.277	-0.056
-158.735	-148.751	0.253	-0.020
-157.720	800.000	0.057	0.160
-156.706	302.300	-0.060	-0.108
-155.691	-200.000	-0.081	0.494
-154.677	238.645	0.208	-0.340
-153.662	180.004	-0.133	-0.192
-152.647	120.669	0.287	0.351
-151.633	35.223	0.262	0.226
-150.618	-1.030	0.285	-0.198
-149.604	-200.000	-0.006	-0.155
-148.589	33.254	0.056	0.048
-147.574	361.813	0.063	0.124
-146.560	-15.722	0.416	0.261
-145.545	350.717	0.065	-0.126
-144.531	-116.618	-0.236	-0.043
-143.516	556.380	-0.117	-0.277
-142.502	154.076	0.035	0.048
-141.487	-200.000	0.004	0.024
-140.472	4.802	0.031	0.022
-139.458	-119.240	-0.263	0.045
-138.443	-18.354	0.115	0.071
-137.429	-183.935	-0.326	-0.005
-136.414	196.970	0.112	-0.168
-135.399	-200.000	0.021	-0.242
-134.385	800.000	-0.088	-0.256
-133.370	-25.027	-0.196	0.114
-132.356	28.968	0.116	-0.097
-131.341	-115.557	0.044	0.008
-130.326	-200.000	-0.067	-0.401
-129.312	-200.000	0.034	0.187
-128.297	-32.289	0.177	0.097
-127.283	-83.793	-0.097	-0.030
-126.268	-53.527	-0.318	-0.143
-125.253	800.000	-0.037	-0.118
-124.239	-105.194	0.295	-0.066
-123.224	800.000	0.100	0.312
-122.210	282.077	-0.095	0.166
-121.195	-87.164	0.151	-0.045
-120.180	-141.049	-0.229	0.023
-119.166	-58.941	0.241	0.102
-118.151	157.220	-0.094	0.127
-117.137	800.000	-0.067	-0.276
-116.122	58.535	0.071	0.069
-115.107	-65.811	-0.305	0.120
-114.093	355.239	0.159	0.311
-113.078	-200.000	-0.008	0.330
-112.064	-161.802	-0.312	-0.016
-111.049	-200.000	-0.014	-0.149
-110.034	106.644	-0.031	-0.036
-109.020	-200.000	0.046	0.213
-108.005	0.430	0.277	0.194
-106.991	-31.162	0.176	0.097
-105.976	213.761	0.088	0.136
-104.962	54.088	-0.146	-0.138
-103.947	-97.179	-0.099	0.025
-102.932	-24.830	0.264	0.154
-101.918	-191.379	-0.241	0.002
-100.903	-97.684	-0.130	-0.033
-99.889	-142.175	-0.304	0.030
-98.874	135.964	0.035	-0.045
-97.859	197.966	0.167	0.251
-96.845	-200.000	0.073	-0.346
-95.830	-32.581	0.407	0.223
-94.816	-146.233	0.371	0.032
-93.801	-200.000	-0.001	0.149
-92.786	-45.817	0.351	0.170
-91.772	86.296	0.070	-0.076
-90.757	506.478	-0.056	0.126
-89.743	488.170	-0.233	-0.521
-88.728	617.412	0.025	-0.062
-87.713	75.111	0.330	0.341
-86.699	-29.253	0.098	0.055
-85.684	-200.000	-0.027	0.190
-84.670	-5.295	-0.147	0.099
-83.655	-162.353	-0.176	-0.009
-82.640	57.231	0.199	-0.190
-81.626	83.942	0.083	0.089
-80.611	-200.000	0.070	-0.313
-79.597	-76.203	-0.051	0.018
-78.582	-41.171	0.306	-0.155
-77.567	46.670	0.146	-0.133
-76.553	-200.000	0.020	-0.181
-75.538	102.199	-0.088	-0.101
-74.524	-136.376	0.054	0.006
-73.509	800.000	-0.036	0.115
-72.494	192.124	0.233	-0.344
-71.480	305.698	-0.073	0.133
-70.465	53.675	-0.156	0.147
-69.451	-24.801	0.254	0.148
-68.436	-200.000	0.008	-0.076
-67.422	69.563	0.180	0.181
-66.407	14.664	0.133	0.102
-65.392	-40.204	-0.221	0.113
-64.378	-41.635	0.257	0.129
-63.363	-31.726	-0.086	-0.047
-62.349	-200.000	0.006	0.084
-61.334	170.671	-0.874	-1.227
-60.319	-25.135	0.539	0.313
-59.305	240.993	-0.411	-0.672
-58.290	452.054	0.431	0.933
-57.276	549.194	0.669	1.570
-56.261	-200.000	107.841	575.445
-55.246	412.556	1517.086	3158.944
-54.232	139.447	2730.717	3521.761
-53.217	96.204	2334.459	2615.177
-52.203	37.608	1936.962	1684.229
-51.188	32.007	1722.660	1454.565
-50.173	29.383	1680.302	1398.875
-49.159	47.771	1733.544	1585.344
-48.144	47.911	1749.085	1600.571
-47.130	31.686	1706.248	1438.019
-46.115	28.938	1691.873	1404.881
-45.100	28.888	1686.541	1400.019
-44.086	28.791	1684.336	1397.395
-43.071	28.870	1680.770	1394.982
-42.057	28.737	1678.806	1392.288
-41.042	28.787	1676.891	1391.027
-40.027	28.842	1674.694	1389.566
-39.013	28.677	1673.202	1387.023
-37.998	28.701	1671.536	1385.766
-36.984	28.802	1669.795	1385.033
-35.969	28.935	1668.181	1384.642
-34.954	29.099	1666.581	1384.488
-33.940	28.915	1665.097	1381.821
-32.925	28.866	1664.027	1380.510
-31.911	28.894	1661.811	1378.826
-30.896	28.956	1659.788	1377.557
-29.881	28.932	1658.745	1376.456
-28.867	28.947	1656.857	1374.947
-27.852	28.858	1655.529	1373.128
-26.838	28.960	1653.928	1372.503
-25.823	28.955	1652.494	1371.221
-24.809	28.971	1651.156	1370.175
-23.794	29.034	1649.809	1369.472
-22.779	29.020	1647.772	1367.623
-21.765	28.991	1646.115	1365.980
-20.750	28.975	1644.373	1364.365
-19.736	28.955	1643.382	1363.341
-18.721	29.045	1641.739	1362.587
-17.706	28.956	1640.399	1360.759
-16.692	28.983	1638.938	1359.696
-15.677	29.002	1636.867	1358.067
-14.663	28.965	1636.263	1357.239
-13.648	28.956	1635.254	1356.275
-12.633	28.992	1633.174	1354.766
-11.619	28.973	1631.447	1353.138
-10.604	28.969	1629.952	1351.816
-9.590	28.914	1629.216	1350.750
-8.575	28.995	1627.502	1349.864
-7.560	28.972	1626.763	1349.031
-6.546	28.995	1625.319	1347.950
-5.531	28.950	1624.195	1346.633
-4.517	28.880	1623.688	1345.646
-3.502	28.951	1621.602	1344.386
-2.487	29.086	1619.941	1343.944
-1.473	28.959	1607.971	1333.035
-0.458	26.436	1589.078	1299.221
0.556	21.616	1590.804	1269.737
1.571	19.258	1616.262	1272.550
2.586	18.655	1629.351	1278.251
3.600	16.873	1575.306	1222.901
4.615	9.416	1462.761	1085.301
5.629	1.896	1397.983	988.527
6.644	0.431	1389.891	973.272
7.659	0.389	1388.217	971.743
8.673	0.342	1387.406	970.783
9.688	0.328	1385.495	969.272
10.702	0.162	1382.201	965.820
11.717	3.630	1387.469	991.716
12.731	11.469	1400.559	1051.655
13.746	16.556	1406.678	1088.984
14.761	16.959	1406.192	1091.106
15.775	16.372	1403.706	1085.314
16.790	15.286	1401.949	1076.885
17.804	14.485	1399.701	1069.925
18.819	14.175	1397.940	1066.496
19.834	13.860	1396.911	1063.600
20.848	13.641	1395.582	1061.090
21.863	13.435	1393.751	1058.292
22.877	13.261	1392.790	1056.357
23.892	13.165	1391.661	1054.794
24.907	13.127	1390.892	1053.872
25.921	13.206	1390.275	1053.815
26.936	13.247	1389.054	1053.061
27.950	13.220	1388.261	1052.190
28.965	13.309	1387.136	1051.814
29.980	13.435	1386.207	1051.814
30.994	13.411	1385.163	1050.776
32.009	13.486	1384.130	1050.380
33.023	13.433	1383.421	1049.412
34.038	13.329	1382.548	1047.999
35.053	13.338	1381.058	1046.832
36.067	13.375	1379.960	1046.143
37.082	13.385	1378.837	1045.258
38.096	13.473	1377.719	1044.874
39.111	13.437	1377.076	1044.066
40.126	13.371	1376.122	1042.835
41.140	13.333	1375.363	1041.927
42.155	13.206	1375.364	1041.036
43.169	13.213	1374.848	1040.597
44.184	13.148	1374.948	1040.177
45.199	13.168	1374.682	1040.005
46.213	13.225	1373.623	1039.472
47.228	13.266	1372.761	1038.985
48.242	13.289	1371.527	1038.103
49.257	13.281	1370.132	1036.906
50.271	13.332	1368.895	1036.196
51.286	13.349	1367.596	1035.231
52.301	13.327	1366.051	1033.833
53.315	13.255	1364.946	1032.452
54.330	13.302	1363.872	1031.840
55.344	13.171	1362.886	1030.186
56.359	13.246	1361.332	1029.390
57.374	13.192	1360.815	1028.569
58.388	13.136	1360.406	1027.823
59.403	13.095	1359.683	1026.930
60.417	13.158	1358.496	1026.333
61.432	13.162	1357.759	1025.711
62.447	13.161	1356.598	1024.737
63.461	13.085	1355.273	1023.174
64.476	13.156	1354.307	1022.795
65.490	13.094	1353.223	1021.502
66.505	13.174	1351.444	1020.566
67.520	13.161	1350.138	1019.407
68.534	13.208	1349.003	1018.751
69.549	13.179	1347.832	1017.599
70.563	13.182	1347.179	1017.030
71.578	13.118	1345.963	1015.629
72.593	13.077	1345.300	1014.790
73.607	13.093	1343.859	1013.708
74.622	13.132	1343.096	1013.281
75.636	13.044	1342.778	1012.416
76.651	13.084	1342.103	1012.061
77.666	13.006	1341.472	1011.017
78.680	13.191	1340.629	1011.428
79.695	13.120	1339.497	1010.047
80.709	13.094	1338.863	1009.321
81.724	13.158	1338.063	1009.023
82.739	13.157	1336.846	1008.005
83.753	13.260	1335.917	1007.843
84.768	13.223	1335.309	1007.074
85.782	13.347	1333.900	1006.675
86.797	13.320	1332.598	1005.441
87.812	13.340	1331.085	1004.329
88.826	13.286	1330.215	1003.259
89.841	13.229	1328.933	1001.855
90.855	13.341	1327.663	1001.488
91.870	13.301	1327.410	1000.963
92.884	13.356	1326.314	1000.381
93.899	13.425	1325.267	999.924
94.914	13.436	1324.615	999.411
95.928	13.372	1323.645	998.204
96.943	13.396	1322.773	997.603
97.957	13.326	1322.201	996.661
98.972	13.321	1320.895	995.560
99.987	13.365	1320.191	995.206
101.001	13.365	1319.000	994.217
102.016	13.295	1318.024	992.976
103.030	13.338	1316.974	992.354
104.045	13.426	1315.836	991.934
105.060	13.296	1314.732	990.234
106.074	13.225	1313.578	988.856
107.089	13.256	1312.167	987.891
108.103	13.178	1311.253	986.646
109.118	13.185	1309.567	985.333
110.133	13.151	1308.580	984.299
111.147	13.216	1306.965	983.388
112.162	13.307	1305.474	982.720
113.176	13.271	1304.594	981.753
114.191	13.245	1303.380	980.602
115.206	13.367	1302.221	980.364
116.220	13.266	1301.049	978.800
117.235	13.227	1300.077	977.749
118.249	13.245	1299.244	977.142
119.264	13.313	1297.701	976.298
120.279	13.161	1297.337	975.039
121.293	13.288	1295.832	974.574
122.308	13.194	1294.704	973.083
123.322	13.240	1293.658	972.479
124.337	13.231	1292.299	971.324
125.352	13.187	1291.437	970.329
126.366	13.159	1290.207	969.157
127.381	13.270	1289.348	969.075
128.395	13.293	1287.645	967.844
129.410	13.232	1286.807	966.771
130.424	13.297	1286.220	966.623
131.439	13.225	1285.287	965.415
132.454	13.225	1284.386	964.654
133.468	13.314	1283.225	964.217
134.483	13.322	1282.568	963.687
135.497	13.247	1281.351	962.246
136.512	13.414	1279.527	961.763
137.527	13.324	1278.509	960.390
138.541	13.275	1276.774	958.718
139.556	13.287	1275.189	957.513
140.570	13.444	1274.002	957.446
141.585	13.393	1273.368	956.587
142.600	13.532	1271.356	955.794
143.614	13.478	1270.968	955.105
144.629	13.461	1269.981	954.182
145.643	13.479	1268.682	953.224
146.658	13.427	1267.637	952.060
147.673	13.365	1265.982	950.377
148.687	13.424	1265.033	949.916
149.702	13.445	1263.682	948.942
150.716	13.372	1261.926	947.117
151.731	13.405	1261.418	946.845
152.746	13.386	1259.811	945.443
153.760	13.412	1258.705	944.677
154.775	13.488	1257.700	944.277
155.789	13.584	1256.538	943.866
156.804	13.544	1255.448	942.734
157.819	13.469	1254.205	941.290
158.833	13.572	1253.609	941.347
159.848	13.681	1252.552	941.089
160.862	13.623	1251.270	939.715
161.877	13.540	1250.675	938.715
162.892	13.531	1249.391	937.615
163.906	13.513	1248.478	936.748
164.921	13.595	1247.389	936.310
165.935	13.633	1246.138	935.503
166.950	13.469	1245.877	934.298
167.964	13.557	1245.042	934.087
168.979	13.587	1244.364	933.664
169.994	13.622	1243.547	933.165
171.008	13.600	1242.611	932.253
172.023	13.736	1241.867	932.378
173.037	13.674	1241.096	931.371
174.052	13.661	1240.290	930.610
175.067	13.715	1238.853	929.751
176.081	13.476	1238.260	927.887
177.096	13.637	1237.533	928.159
178.110	13.646	1235.869	926.881
179.125	13.714	1234.337	926.028
180.140	13.643	1233.692	925.067
181.154	13.687	1232.645	924.443
182.169	13.708	1231.171	923.373
183.183	13.731	1229.969	922.521
184.198	13.881	1228.314	922.031
185.213	13.795	1227.355	920.752
186.227	13.840	1226.253	920.093
187.242	13.824	1225.438	919.310
188.256	13.950	1224.289	919.065
189.271	13.970	1223.321	918.369
190.286	13.720	1222.694	916.431
191.300	13.726	1221.681	915.629
192.315	13.674	1221.243	914.931
193.329	13.835	1220.054	914.844
194.344	13.881	1219.239	914.407
195.359	13.841	1219.069	913.981
196.373	13.954	1218.161	913.841
197.388	13.938	1217.853	913.441
198.402	13.979	1217.372	913.223
199.417	14.040	1216.865	913.098
200.432	14.097	1215.373	912.209
201.446	14.097	1214.884	911.762
202.461	14.113	1213.813	910.964
203.475	14.185	1212.904	910.596
204.490	14.064	1211.850	909.065
205.504	14.074	1210.925	908.343
206.519	14.088	1209.097	906.965
207.534	14.020	1208.300	905.918
208.548	14.096	1207.176	905.408
209.563	14.127	1206.490	904.986
210.577	14.085	1205.941	904.262
211.592	14.092	1204.450	903.103
212.607	14.186	1203.512	902.831
213.621	14.116	1203.214	902.145
214.636	14.263	1202.031	901.977
215.650	14.135	1201.595	900.878
216.665	14.325	1200.221	900.794
217.680	14.281	1199.405	899.865
218.694	14.274	1198.758	899.263
219.709	14.310	1197.947	898.771
220.723	14.316	1196.722	897.800
221.738	14.341	1196.429	897.637
222.753	14.411	1195.535	897.261
223.767	14.425	1194.592	896.551
224.782	14.354	1194.316	895.883
225.796	14.424	1193.820	895.811
226.811	14.474	1192.790	895.223
227.826	14.494	1192.058	894.702
228.840	14.382	1191.707	893.763
229.855	14.418	1190.950	893.309
230.869	14.369	1190.155	892.371
231.884	14.443	1189.330	892.069
232.899	14.400	1188.622	891.226
233.913	14.468	1187.746	890.853
234.928	14.404	1186.838	889.756
235.942	14.294	1186.061	888.505
236.957	14.393	1185.401	888.459
237.972	14.427	1184.802	888.113
238.986	14.440	1184.033	887.526
240.001	14.393	1183.439	886.755
241.015	14.583	1182.007	886.610
242.030	14.566	1181.522	886.080
243.045	14.480	1180.880	885.065
244.059	14.540	1179.847	884.531
245.074	14.617	1179.012	884.235
246.088	14.574	1178.144	883.276
247.103	14.594	1177.193	882.591
248.117	14.694	1176.398	882.447
249.132	14.814	1175.457	882.297
250.147	14.829	1174.880	881.865
251.161	14.828	1174.349	881.383
252.176	14.885	1173.934	881.291
253.190	14.763	1173.317	880.109
254.205	14.839	1172.665	879.939
255.220	14.950	1171.821	879.815
256.234	14.987	1171.244	879.499
257.249	14.863	1170.618	878.299
258.263	14.987	1169.994	878.404
259.278	15.003	1168.939	877.618
260.293	14.906	1168.531	876.726
261.307	15.025	1168.193	877.015
262.322	14.994	1167.568	876.308
263.336	15.006	1166.921	875.809
264.351	15.040	1165.980	875.204
265.366	15.093	1165.536	875.070
266.380	15.057	1164.867	874.303
267.395	15.150	1163.614	873.769
268.409	15.069	1163.204	872.959
269.424	15.080	1162.564	872.460
270.439	15.070	1161.959	871.874
271.453	15.030	1161.499	871.247
272.468	15.108	1160.025	870.469
273.482	14.981	1159.724	869.508
274.497	15.092	1159.150	869.576
275.512	15.052	1158.564	868.852
276.526	15.100	1157.682	868.363
277.541	15.152	1156.739	867.846
278.555	15.128	1155.945	867.049
279.570	15.246	1155.206	867.031
280.585	15.303	1154.403	866.646
281.599	15.266	1153.545	865.735
282.614	15.295	1152.054	864.689
283.628	15.279	1151.372	864.018
284.643	15.331	1150.202	863.331
285.657	15.325	1149.496	862.694
286.672	15.338	1148.745	862.118
287.687	15.307	1147.750	861.137
288.701	15.399	1146.772	860.799
289.716	15.402	1146.381	860.443
290.730	15.430	1145.459	859.820
291.745	15.407	1144.702	859.059
292.760	15.454	1144.162	858.817
293.774	15.430	1143.737	858.299
294.789	15.486	1143.332	858.204
295.803	15.512	1142.279	857.473
296.818	15.534	1141.258	856.743
297.833	15.543	1140.879	856.430
298.847	15.420	1140.306	855.293
299.862	15.505	1138.979	854.659
300.876	15.604	1138.487	854.718
301.891	15.467	1138.197	853.725
302.906	15.534	1137.397	853.392
303.920	15.710	1136.516	853.549
304.935	15.656	1135.914	852.746
305.949	15.807	1135.034	852.773
306.964	15.783	1134.733	852.352
307.979	15.687	1133.560	850.910
308.993	15.739	1132.653	850.416
310.008	15.831	1131.932	850.262
311.022	15.760	1131.469	849.484
312.037	15.796	1130.556	848.902
313.052	15.762	1129.702	848.017
314.066	15.768	1128.515	847.081
315.081	15.768	1127.831	846.490
316.095	15.650	1127.278	845.409
317.110	15.751	1126.504	845.259
318.125	15.761	1125.972	844.835
319.139	15.745	1125.476	844.307
320.154	15.708	1124.765	843.516
321.168	15.655	1124.375	842.885
322.183	15.781	1123.170	842.536
323.197	15.816	1122.606	842.212
324.212	15.796	1121.990	841.579
325.227	15.760	1121.544	840.989
326.241	15.854	1120.661	840.721
327.256	15.918	1119.617	840.183
328.270	15.843	1119.089	839.337
329.285	15.818	1117.831	838.195
330.300	15.854	1116.750	837.489
331.314	15.920	1115.907	837.111
332.329	15.879	1114.868	836.054
333.343	15.969	1114.324	836.019
334.358	16.044	1113.279	835.534
335.373	15.985	1112.704	834.735
336.387	15.913	1112.241	833.960
337.402	15.977	1111.333	833.521
338.416	16.076	1111.032	833.711
339.431	16.088	1110.114	833.008
340.446	16.079	1108.975	832.035
341.460	16.133	1108.543	831.902
342.475	16.099	1107.982	831.240
343.489	16.119	1107.141	830.632
344.504	16.276	1105.798	830.324
345.519	16.363	1104.858	829.974
346.533	16.206	1104.171	828.612
347.548	16.442	1103.376	829.101
348.562	16.363	1102.878	828.266
349.577	16.289	1102.093	827.241
350.592	16.222	1101.351	826.282
351.606	16.163	1100.481	825.269
352.621	16.258	1100.004	825.303
353.635	16.224	1099.155	824.427
354.650	16.313	1098.330	824.170
355.665	16.320	1098.038	823.910
356.679	16.427	1097.175	823.711
357.694	16.402	1096.535	823.036
358.708	16.409	1095.945	822.555
359.723	16.492	1095.104	822.257
360.738	16.406	1094.521	821.324
361.752	16.347	1094.350	820.840
362.767	16.496	1093.351	820.739
363.781	16.401	1093.145	820.050
364.796	16.430	1092.370	819.540
365.810	16.466	1091.757	819.179
366.825	16.576	1091.292	819.290
367.840	16.674	1090.602	819.178
368.854	16.581	1090.095	818.270
369.869	16.636	1089.206	817.797
370.883	16.672	1088.394	817.290
371.898	16.629	1087.647	816.451
372.913	16.713	1086.975	816.279
373.927	16.595	1086.771	815.484
374.942	16.743	1085.823	815.413
375.956	16.794	1085.162	815.090
376.971	16.749	1084.945	814.640
377.986	16.710	1084.499	814.042
379.000	16.791	1083.881	813.898
380.015	16.795	1083.484	813.545
381.029	16.737	1082.945	812.793
382.044	16.839	1081.986	812.486
383.059	16.835	1081.339	811.910
384.073	16.882	1079.796	810.904
385.088	16.885	1079.206	810.406
386.102	16.961	1078.466	810.140
387.117	16.809	1077.528	808.639
388.132	16.924	1076.455	808.311
389.146	16.883	1075.619	807.416
390.161	16.875	1075.197	806.991
391.175	16.919	1074.573	806.661
392.190	16.984	1073.466	806.067
393.205	16.980	1072.863	805.524
394.219	16.914	1072.302	804.719
395.234	17.036	1071.264	804.443
396.248	16.893	1070.596	803.197
397.263	17.029	1069.553	802.984
398.278	16.966	1068.845	802.084
399.292	17.037	1068.165	801.839
400.307	16.920	1067.464	800.692
401.321	17.045	1066.522	800.501
402.336	17.048	1065.872	799.957
403.350	17.091	1065.433	799.761
404.365	17.149	1064.581	799.322
405.380	17.090	1063.855	798.430
406.394	17.025	1062.997	797.408
407.409	17.147	1062.169	797.288
408.423	17.213	1061.672	797.156
409.438	17.049	1061.098	795.887
410.453	17.316	1060.353	796.510
411.467	17.364	1059.505	796.023
412.482	17.283	1058.962	795.167
413.496	17.369	1058.514	795.163
414.511	17.343	1057.829	794.457
415.526	17.356	1057.601	794.274
416.540	17.476	1056.743	794.119
417.555	17.408	1056.614	793.635
418.569	17.468	1055.570	793.061
419.584	17.351	1055.388	792.310
420.599	17.338	1055.180	792.021
421.613	103.968	1326.435	1473.937
422.628	95.790	1365.893	1474.022
