DTS Sentinel unit serial number:	SN413079Multiplexer serial number:	ORYXHardware model number:	OX4-SRSoftware version number:	ORYX F/W v4.00 Oryx Data Collector v3.7.2.0data status	okinstallation	princeton_trtdifferential loss correction	single-endedforward channel	channel 2reverse channel	N/Adate	2019/09/10time	17:37:11forward acquisition time	60.00reverse acquisition time	0.00gamma	496.2192k internal	0.2310k external	0.2310temperature offset calibration	0.9937default loss term (dB/km)	0.3790temperature slope calibration	1.0000multiplexer offset coefficient	1.0000multiplexer slope coefficient	1.0000fibre end	0.00T internal ref (°C)	37.62T ext. ref 1 (°C)	-0.34T ext. ref 2 (°C)	31.31length (m)	temperature (°C)	Stokes	anti-Stokes-747.200	-143.402	-0.121	0.012
-746.185	69.497	0.025	0.026
-745.171	-200.000	-0.036	0.327
-744.156	143.615	0.126	-0.171
-743.142	8.499	0.128	-0.098
-742.127	-45.781	-0.212	-0.106
-741.112	-200.000	-0.004	-0.062
-740.098	-18.071	-0.039	0.025
-739.083	-71.977	0.215	0.081
-738.069	800.000	-0.072	0.316
-737.054	216.120	-0.174	-0.282
-736.039	666.090	-0.128	0.336
-735.025	377.892	0.150	0.310
-734.010	178.516	-0.207	-0.307
-732.996	612.534	-0.118	-0.299
-731.981	-107.129	0.067	-0.015
-730.966	91.046	-0.161	0.183
-729.952	800.000	-0.108	-0.377
-728.937	19.695	0.057	0.047
-727.923	169.319	-0.017	-0.024
-726.908	-200.000	0.018	0.183
-725.894	800.000	-0.059	-0.256
-724.879	800.000	-0.067	-0.216
-723.864	-92.550	-0.231	0.066
-722.850	-106.759	0.119	-0.027
-721.835	800.000	-0.068	-0.227
-720.821	478.084	0.052	-0.120
-719.806	-141.365	-0.210	-0.022
-718.791	-200.000	-0.004	-0.347
-717.777	-200.000	-0.024	0.109
-716.762	49.552	-0.146	0.139
-715.748	59.810	-0.122	0.123
-714.733	-200.000	0.027	0.334
-713.718	-200.000	0.023	-0.289
-712.704	-200.000	-0.026	-0.119
-711.689	488.518	-0.141	-0.327
-710.675	241.536	0.202	0.342
-709.660	800.000	0.079	0.244
-708.645	425.426	-0.071	0.155
-707.631	91.299	-0.054	-0.061
-706.616	28.768	-0.215	0.184
-705.602	14.081	-0.302	0.238
-704.587	-51.326	0.044	-0.021
-703.572	-90.631	-0.302	0.089
-702.558	-200.000	0.058	-0.351
-701.543	648.745	-0.168	-0.436
-700.529	-29.964	0.323	-0.186
-699.514	-200.000	0.015	0.228
-698.499	20.404	0.180	-0.147
-697.485	-200.000	0.029	-0.265
-696.470	141.354	0.048	-0.065
-695.456	-200.000	0.020	-0.213
-694.441	765.070	0.064	-0.177
-693.426	325.775	0.184	0.357
-692.412	-50.830	0.069	0.033
-691.397	-114.504	0.190	0.037
-690.383	396.645	-0.081	-0.172
-689.368	-161.295	0.027	0.001
-688.354	-200.000	-0.026	-0.279
-687.339	-200.000	0.030	-0.139
-686.324	-200.000	-0.020	0.349
-685.310	225.577	-0.179	0.293
-684.295	-200.000	-0.007	-0.201
-683.281	65.269	-0.160	-0.164
-682.266	-121.815	-0.203	0.034
-681.251	-200.000	0.071	-0.372
-680.237	-124.594	-0.251	-0.039
-679.222	18.521	0.197	0.160
-678.208	183.143	-0.277	0.414
-677.193	-9.967	0.106	0.071
-676.178	-200.000	-0.049	-0.444
-675.164	-120.568	-0.163	0.028
-674.149	75.240	0.166	0.178
-673.135	-161.091	-0.310	-0.016
-672.120	38.190	0.417	-0.376
-671.105	800.000	0.067	-0.256
-670.091	-50.082	0.146	0.070
-669.076	746.860	0.013	0.036
-668.062	-200.000	-0.001	-0.098
-667.047	92.264	0.127	0.145
-666.032	356.703	0.009	-0.018
-665.018	423.544	-0.128	-0.279
-664.003	311.706	-0.177	-0.335
-662.989	-96.993	0.170	-0.045
-661.974	-146.013	-0.040	0.004
-660.959	-89.693	0.090	0.027
-659.945	-48.213	0.348	-0.170
-658.930	19.607	0.066	-0.054
-657.916	216.119	-0.176	-0.283
-656.901	65.440	-0.377	-0.386
-655.886	-117.193	-0.130	0.024
-654.872	199.704	0.182	-0.282
-653.857	800.000	0.048	-0.147
-652.843	-200.000	0.036	-0.173
-651.828	800.000	-0.066	-0.238
-650.814	-200.000	0.034	-0.266
-649.799	-146.220	0.113	-0.010
-648.784	80.027	0.079	-0.086
-647.770	-200.000	0.026	-0.157
-646.755	-200.000	-0.054	-0.249
-645.741	800.000	0.141	0.439
-644.726	-75.909	0.264	0.095
-643.711	226.287	0.115	0.189
-642.697	-115.339	0.362	-0.069
-641.682	113.226	0.313	-0.384
-640.668	342.495	0.116	0.230
-639.653	289.168	-0.131	-0.241
-638.638	800.000	-0.040	0.163
-637.624	110.867	0.201	-0.245
-636.609	-70.324	0.150	-0.058
-635.595	-200.000	-0.021	-0.185
-634.580	-108.777	-0.252	0.055
-633.565	-0.420	-0.192	-0.138
-632.551	106.821	0.154	0.185
-631.536	65.478	-0.210	0.215
-630.522	121.950	0.373	0.471
-629.507	138.261	-0.106	-0.141
-628.492	-200.000	0.364	0.000
-627.478	50.725	-0.194	0.185
-626.463	23.312	-0.154	0.128
-625.449	-200.000	0.041	-0.225
-624.434	800.000	-0.058	-0.197
-623.419	183.447	0.168	-0.251
-622.405	-40.593	0.270	-0.142
-621.390	459.147	-0.131	-0.295
-620.376	-200.000	-0.020	-0.172
-619.361	-110.935	-0.127	-0.026
-618.346	63.513	-0.181	0.183
-617.332	347.387	-0.137	0.273
-616.317	134.300	0.021	0.027
-615.303	-16.763	0.123	0.079
-614.288	345.829	-0.043	0.085
-613.273	-81.618	0.223	0.074
-612.259	-200.000	-0.007	-0.172
-611.244	179.245	-0.270	-0.398
-610.230	-137.864	0.258	-0.029
-609.215	-38.383	-0.131	0.070
-608.201	-74.452	0.173	0.063
-607.186	800.000	-0.055	0.193
-606.171	0.000	-0.121	0.087
-605.157	-185.310	-0.296	0.005
-604.142	-55.761	-0.278	-0.126
-603.128	8.936	-0.174	-0.133
-602.113	-90.580	-0.244	0.071
-601.098	800.000	-0.050	-0.175
-600.084	-200.000	0.021	0.173
-599.069	-33.870	-0.253	-0.141
-598.055	-200.000	0.022	-0.173
-597.040	800.000	-0.023	0.067
-596.025	205.961	0.090	-0.141
-595.011	9.539	0.088	0.067
-593.996	334.865	-0.125	0.244
-592.982	-59.836	-0.050	-0.022
-591.967	-97.990	-0.066	0.017
-590.952	120.164	-0.028	0.035
-589.938	86.080	0.097	-0.108
-588.923	367.367	0.121	0.248
-587.909	-200.000	0.001	0.184
-586.894	-114.353	-0.203	0.039
-585.879	-99.143	-0.105	-0.027
-584.865	157.635	0.156	-0.219
-583.850	800.000	-0.071	-0.313
-582.836	200.434	-0.020	-0.031
-581.821	360.839	0.132	-0.267
-580.806	-181.047	-0.221	0.004
-579.792	44.808	-0.248	-0.231
-578.777	-79.506	-0.390	-0.133
-577.763	-21.262	0.158	-0.097
-576.748	-96.805	0.060	0.016
-575.733	-76.753	-0.556	-0.196
-574.719	101.764	-0.260	-0.306
-573.704	-200.000	0.017	0.178
-572.690	800.000	-0.102	0.434
-571.675	-80.959	0.319	-0.107
-570.661	-18.583	-0.298	0.187
-569.646	-119.938	-0.252	-0.044
-568.631	313.968	-0.203	-0.385
-567.617	32.058	-0.100	-0.087
-566.602	-114.356	-0.380	0.074
-565.588	-83.815	0.075	-0.024
-564.573	493.459	0.081	0.187
-563.558	529.219	-0.055	-0.130
-562.544	298.232	-0.030	-0.055
-561.529	-157.365	0.387	0.024
-560.515	-200.000	-0.020	0.130
-559.500	-69.928	-0.396	-0.152
-558.485	800.000	-0.119	-0.457
-557.471	629.292	-0.077	0.196
-556.456	444.682	-0.062	0.137
-555.442	800.000	0.059	0.220
-554.427	-200.000	-0.013	-0.083
-553.412	-82.277	-0.286	0.094
-552.398	-141.599	-0.298	-0.030
-551.383	-21.444	-0.123	-0.076
-550.369	156.569	0.039	0.055
-549.354	-200.000	-0.043	-0.398
-548.339	-73.882	-0.207	-0.076
-547.325	-120.455	0.138	0.024
-546.310	14.456	-0.234	-0.184
-545.296	121.259	-0.190	-0.238
-544.281	-101.745	-0.233	0.057
-543.266	564.111	0.092	-0.225
-542.252	-4.268	-0.184	-0.128
-541.237	-114.178	-0.346	0.067
-540.223	-135.346	-0.093	0.011
-539.208	461.904	0.231	-0.520
-538.193	148.133	-0.058	-0.079
-537.179	800.000	-0.038	0.111
-536.164	69.892	-0.362	0.377
-535.150	-200.000	-0.029	-0.157
-534.135	-134.727	0.359	-0.044
-533.121	25.125	-0.248	-0.207
-532.106	-169.471	-0.036	-0.001
-531.091	38.436	-0.345	-0.309
-530.077	800.000	-0.036	0.121
-529.062	175.569	-0.087	0.128
-528.048	-200.000	-0.001	-0.072
-527.033	195.994	-0.188	0.287
-526.018	-200.000	0.016	-0.195
-525.004	-181.203	0.205	-0.004
-523.989	-152.676	0.110	0.008
-522.975	-89.359	0.319	0.095
-521.960	-92.240	-0.069	0.020
-520.945	-200.000	-0.047	0.231
-519.931	106.393	0.118	-0.141
-518.916	-120.678	-0.139	0.024
-517.902	-131.433	0.291	-0.039
-516.887	-200.000	-0.001	0.037
-515.872	800.000	0.063	-0.201
-514.858	480.542	-0.027	-0.062
-513.843	-200.000	0.005	-0.059
-512.829	-104.127	0.276	-0.065
-511.814	-200.000	0.004	0.102
-510.799	280.821	0.098	0.176
-509.785	-198.450	0.157	0.001
-508.770	92.597	0.135	-0.153
-507.756	-187.786	-0.260	0.003
-506.741	144.358	-0.082	0.110
-505.726	52.417	0.141	0.135
-504.712	-22.617	-0.087	0.053
-503.697	-200.000	-0.000	0.331
-502.683	2.572	-0.292	-0.213
-501.668	-200.000	-0.001	0.156
-500.653	-200.000	0.026	0.137
-499.639	-68.482	-0.177	-0.069
-498.624	-200.000	0.027	0.148
-497.610	-95.471	0.144	0.039
-496.595	543.639	0.057	0.136
-495.581	112.899	-0.097	0.118
-494.566	-14.882	-0.218	-0.141
-493.551	-3.328	-0.344	-0.241
-492.537	139.103	-0.128	0.169
-491.522	-200.000	-0.004	-0.048
-490.508	107.244	-0.149	-0.178
-489.493	568.566	-0.193	-0.472
-488.478	147.821	-0.151	0.205
-487.464	-33.089	-0.196	0.109
-486.449	210.622	-0.137	0.216
-485.435	633.854	-0.040	-0.103
-484.420	800.000	-0.029	-0.084
-483.405	139.903	0.242	0.320
-482.391	242.034	-0.143	-0.241
-481.376	800.000	-0.043	0.119
-480.362	-200.000	-0.020	0.126
-479.347	-121.730	0.022	0.004
-478.332	299.810	0.133	-0.246
-477.318	-200.000	-0.002	-0.201
-476.303	103.257	0.079	0.093
-475.289	800.000	-0.090	0.304
-474.274	647.502	-0.081	0.208
-473.259	800.000	0.076	0.214
-472.245	-200.000	-0.004	0.057
-471.230	121.158	0.053	-0.067
-470.216	132.401	-0.135	0.175
-469.201	-27.388	0.102	0.060
-468.186	-102.540	0.197	0.047
-467.172	-200.000	-0.006	-0.053
-466.157	79.525	-0.262	0.282
-465.143	-107.118	0.184	-0.041
-464.128	-169.529	0.452	-0.017
-463.113	-39.561	-0.195	0.102
-462.099	34.842	-0.068	0.060
-461.084	-42.849	0.260	-0.133
-460.070	39.899	0.059	-0.053
-459.055	710.655	0.025	-0.065
-458.040	800.000	0.080	0.280
-457.026	11.813	-0.097	-0.075
-456.011	-90.080	0.195	0.057
-454.997	-200.000	0.000	-0.145
-453.982	32.597	0.219	-0.190
-452.968	64.662	-0.187	-0.189
-451.953	-78.170	-0.273	-0.094
-450.938	-200.000	0.019	-0.175
-449.924	121.111	0.375	0.469
-448.909	227.294	0.092	-0.151
-447.895	-103.584	-0.500	0.118
-446.880	-142.920	0.227	0.022
-445.865	800.000	-0.044	-0.132
-444.851	-200.000	-0.022	0.357
-443.836	-14.148	-0.083	0.054
-442.822	-200.000	0.009	0.240
-441.807	-55.662	0.119	0.054
-440.792	-200.000	0.028	-0.175
-439.778	-116.291	0.248	-0.046
-438.763	-91.740	-0.252	-0.072
-437.749	591.423	0.161	-0.399
-436.734	-102.917	0.204	-0.049
-435.719	-200.000	-0.015	0.191
-434.705	425.538	-0.101	0.217
-433.690	-200.000	-0.021	-0.195
-432.676	85.728	0.207	0.228
-431.661	-12.188	0.193	-0.127
-430.646	-200.000	0.018	0.183
-429.632	800.000	0.061	-0.238
-428.617	-200.000	-0.049	0.312
-427.603	37.698	-0.211	0.188
-426.588	-200.000	0.009	-0.270
-425.573	167.418	0.142	0.202
-424.559	366.709	-0.075	0.153
-423.544	123.344	0.051	0.064
-422.530	33.854	0.177	-0.155
-421.515	-2.353	-0.040	-0.028
-420.500	-150.828	-0.233	0.018
-419.486	-200.000	0.014	-0.100
-418.471	309.898	-0.029	-0.054
-417.457	359.671	-0.105	0.211
-416.442	-16.593	0.103	-0.066
-415.428	-147.365	-0.347	-0.029
-414.413	170.736	0.015	0.021
-413.398	92.005	0.103	-0.116
-412.384	800.000	0.128	-0.441
-411.369	-16.639	0.024	0.015
-410.355	-122.739	-0.096	-0.016
-409.340	44.621	-0.028	-0.025
-408.325	-111.268	0.072	-0.015
-407.311	800.000	-0.060	0.176
-406.296	-121.156	0.369	0.062
-405.282	271.984	0.194	-0.342
-404.267	-151.501	0.366	0.027
-403.252	230.866	0.045	0.073
-402.238	800.000	-0.086	0.288
-401.223	-82.290	-0.076	0.025
-400.209	30.598	0.034	-0.029
-399.194	-36.799	0.011	-0.006
-398.179	297.937	0.127	-0.234
-397.165	-26.364	-0.331	0.195
-396.150	-200.000	0.047	0.311
-395.136	34.506	-0.051	0.044
-394.121	10.043	-0.125	0.095
-393.106	156.306	0.130	-0.180
-392.092	800.000	-0.007	-0.027
-391.077	800.000	-0.090	-0.334
-390.063	-83.033	-0.164	-0.053
-389.048	-200.000	-0.046	0.210
-388.033	-200.000	-0.022	0.267
-387.019	360.219	0.192	0.385
-386.004	224.602	0.135	0.218
-384.990	-17.423	0.081	-0.051
-383.975	-107.539	0.303	-0.067
-382.960	800.000	0.021	-0.089
-381.946	689.544	-0.038	0.098
-380.931	-6.841	0.294	-0.200
-379.917	-59.550	-0.200	-0.086
-378.902	20.199	-0.212	-0.171
-377.888	-148.231	-0.202	0.017
-376.873	-200.000	-0.020	0.291
-375.858	-0.410	-0.040	-0.028
-374.844	141.514	0.195	-0.259
-373.829	-115.862	0.384	0.072
-372.815	-101.707	-0.262	0.063
-371.800	-169.164	-0.044	-0.002
-370.785	326.426	-0.176	-0.338
-369.771	-140.052	-0.087	0.009
-368.756	-91.967	-0.410	-0.116
-367.742	46.172	0.191	-0.177
-366.727	387.613	0.120	0.248
-365.712	-200.000	-0.010	-0.256
-364.698	-47.889	0.093	-0.045
-363.683	-87.059	-0.223	-0.068
-362.669	-50.761	-0.293	0.138
-361.654	-200.000	0.006	0.030
-360.639	30.656	-0.139	0.119
-359.625	800.000	0.086	-0.294
-358.610	217.022	0.126	-0.201
-357.596	92.254	0.034	-0.038
-356.581	-80.980	0.166	0.055
-355.566	800.000	0.062	0.173
-354.552	-73.161	0.224	0.082
-353.537	-113.327	0.038	0.007
-352.523	800.000	-0.089	-0.307
-351.508	-13.103	0.182	-0.118
-350.493	208.083	0.075	0.118
-349.479	-200.000	-0.034	-0.277
-348.464	61.683	0.295	-0.294
-347.450	-93.339	0.192	0.053
-346.435	-47.618	0.251	-0.122
-345.420	-69.699	0.094	-0.036
-344.406	284.773	0.094	0.169
-343.391	108.534	-0.180	0.215
-342.377	-91.802	0.225	-0.064
-341.362	688.697	0.065	0.170
-340.348	174.852	0.192	-0.277
-339.333	-51.642	0.139	-0.065
-338.318	9.585	0.268	-0.203
-337.304	-200.000	-0.038	0.274
-336.289	-70.753	0.210	-0.079
-335.275	-200.000	-0.085	0.393
-334.260	-160.041	-0.121	0.007
-333.245	36.959	0.297	-0.262
-332.231	-200.000	0.026	0.132
-331.216	-85.247	0.247	0.077
-330.202	-168.323	-0.160	0.006
-329.187	-57.620	-0.259	0.114
-328.172	257.052	-0.341	0.586
-327.158	-72.154	0.098	-0.036
-326.143	-79.729	-0.163	-0.055
-325.129	-74.089	0.359	0.130
-324.114	-106.591	-0.126	0.028
-323.099	-200.000	-0.011	0.316
-322.085	262.433	0.104	0.180
-321.070	348.709	0.170	0.336
-320.056	-67.125	0.143	-0.056
-319.041	-119.364	-0.153	-0.027
-318.026	154.371	0.048	-0.066
-317.012	-167.313	0.347	0.014
-315.997	-164.089	0.393	0.018
-314.983	-77.614	-0.161	-0.056
-313.968	18.719	0.116	0.092
-312.953	-145.349	0.115	-0.010
-311.939	-131.080	0.288	0.038
-310.924	-25.389	-0.167	0.098
-309.910	-123.722	0.227	-0.036
-308.895	158.867	0.071	0.099
-307.880	58.982	-0.120	-0.118
-306.866	-107.397	0.251	-0.055
-305.851	8.312	0.146	-0.110
-304.837	-200.000	0.016	-0.162
-303.822	-30.391	-0.306	-0.174
-302.807	-200.000	-0.045	0.323
-301.793	432.837	-0.052	-0.113
-300.778	100.950	0.167	-0.194
-299.764	241.230	-0.168	-0.280
-298.749	-25.534	0.052	0.030
-297.735	125.585	-0.093	0.118
-296.720	-200.000	0.052	0.311
-295.705	-98.902	-0.119	-0.030
-294.691	-200.000	-0.001	0.233
-293.676	-76.090	0.298	-0.105
-292.662	-74.303	0.230	0.083
-291.647	158.451	0.163	-0.225
-290.632	31.012	0.172	-0.147
-289.618	12.439	-0.161	0.124
-288.603	-16.758	0.070	-0.044
-287.589	-200.000	0.012	-0.056
-286.574	241.692	0.115	-0.191
-285.559	129.214	0.190	0.243
-284.545	117.603	-0.039	-0.048
-283.530	-104.964	-0.298	0.068
-282.516	3.395	-0.077	0.056
-281.501	-40.832	0.162	-0.084
-280.486	-79.002	-0.196	0.066
-279.472	-116.918	-0.323	-0.059
-278.457	800.000	0.099	0.351
-277.443	-44.885	0.266	0.132
-276.428	209.397	-0.036	0.056
-275.413	-200.000	0.004	0.119
-274.399	249.703	0.152	-0.257
-273.384	254.912	0.151	-0.258
-272.370	-95.147	0.269	0.072
-271.355	34.862	-0.178	0.155
-270.340	175.673	0.020	0.029
-269.326	596.154	-0.192	0.473
-268.311	-57.973	-0.233	-0.101
-267.297	-84.533	-0.274	0.086
-266.282	-200.000	-0.008	0.180
-265.267	-86.030	0.535	-0.165
-264.253	-94.977	0.110	-0.030
-263.238	800.000	-0.093	-0.305
-262.224	213.810	0.181	-0.286
-261.209	-184.697	-0.201	-0.003
-260.195	-77.345	0.231	-0.080
-259.180	-104.657	0.097	-0.022
-258.165	-33.965	-0.210	0.115
-257.151	12.362	-0.154	0.118
-256.136	-26.567	-0.204	0.119
-255.122	-28.899	-0.126	0.072
-254.107	-117.531	-0.153	-0.028
-253.092	563.787	0.236	0.570
-252.078	28.333	-0.276	0.232
-251.063	-71.388	-0.136	-0.051
-250.049	77.226	-0.098	-0.104
-249.034	-176.982	0.199	-0.005
-248.019	800.000	-0.053	-0.204
-247.005	-132.531	0.235	0.030
-245.990	800.000	-0.024	0.092
-244.976	-81.930	0.052	-0.017
-243.961	800.000	0.073	-0.291
-242.946	57.764	0.299	0.292
-241.932	-200.000	0.004	-0.223
-240.917	-2.505	-0.401	-0.280
-239.903	-200.000	-0.009	-0.170
-238.888	-82.729	0.117	0.038
-237.873	253.722	-0.058	-0.099
-236.859	7.716	0.267	0.199
-235.844	-145.108	0.254	-0.023
-234.830	-113.162	0.162	-0.032
-233.815	-9.802	0.321	0.213
-232.800	62.890	-0.149	0.148
-231.786	247.875	0.057	0.097
-230.771	661.426	0.067	-0.172
-229.757	254.394	-0.182	0.310
-228.742	194.281	-0.022	-0.033
-227.727	-120.847	0.413	-0.069
-226.713	233.906	-0.052	-0.085
-225.698	-138.076	-0.278	0.031
-224.684	147.177	-0.149	0.200
-223.669	147.529	-0.205	0.275
-222.655	-200.000	-0.022	0.142
-221.640	-102.890	-0.415	0.098
-220.625	-10.199	0.046	-0.030
-219.611	87.819	0.098	-0.109
-218.596	75.317	0.071	0.074
-217.582	-2.709	-0.091	-0.063
-216.567	-200.000	0.020	0.149
-215.552	342.412	0.108	-0.210
-214.538	46.447	-0.103	-0.095
-213.523	40.123	-0.189	0.169
-212.509	176.591	0.158	-0.228
-211.494	-49.479	0.174	0.082
-210.479	800.000	0.103	0.299
-209.465	-43.495	-0.174	0.087
-208.450	56.265	-0.288	0.279
-207.436	800.000	0.046	0.183
-206.421	-200.000	0.011	0.078
-205.406	61.515	0.163	-0.162
-204.392	309.546	-0.081	0.151
-203.377	743.896	0.081	0.216
-202.363	41.322	-0.036	-0.033
-201.348	69.992	0.087	0.089
-200.333	99.007	0.082	0.094
-199.319	-31.104	-0.288	-0.162
-198.304	-140.963	0.250	-0.025
-197.290	800.000	-0.109	-0.363
-196.275	800.000	-0.026	0.107
-195.260	201.936	0.018	-0.028
-194.246	77.421	-0.277	0.293
-193.231	57.456	0.030	0.029
-192.217	9.253	-0.135	0.101
-191.202	-200.000	-0.053	0.353
-190.187	-23.710	-0.018	0.011
-189.173	-119.479	0.283	-0.049
-188.158	800.000	0.026	-0.079
-187.144	-132.846	0.390	-0.049
-186.129	-200.000	-0.036	-0.207
-185.114	348.487	0.117	-0.230
-184.100	800.000	-0.035	-0.099
-183.085	79.041	0.163	0.173
-182.071	-48.961	-0.362	0.172
-181.056	-70.079	0.260	-0.098
-180.042	74.431	0.245	0.255
-179.027	-87.907	0.159	0.047
-178.012	1.569	0.113	-0.081
-176.998	360.887	0.101	-0.200
-175.983	-96.368	-0.213	0.056
-174.969	219.655	0.041	-0.064
-173.954	645.573	-0.054	-0.138
-172.939	-117.539	-0.188	0.034
-171.925	-52.913	0.151	0.069
-170.910	-115.631	-0.150	-0.028
-169.896	452.877	-0.109	-0.239
-168.881	103.212	0.130	-0.152
-167.866	-45.659	-0.093	-0.046
-166.852	-49.412	-0.183	-0.087
-165.837	-182.900	-0.355	-0.006
-164.823	21.686	-0.155	0.125
-163.808	417.824	0.060	-0.127
-162.793	23.723	0.121	-0.099
-161.779	-200.000	-0.060	-0.298
-160.764	-144.910	0.290	0.026
-159.750	43.539	0.370	-0.336
-158.735	-200.000	0.037	0.298
-157.720	-200.000	0.016	0.158
-156.706	461.578	-0.154	-0.340
-155.691	-94.549	-0.039	0.011
-154.677	51.581	-0.134	-0.126
-153.662	160.997	-0.041	-0.057
-152.647	800.000	0.046	0.179
-151.633	202.544	-0.092	-0.141
-150.618	130.164	-0.134	-0.170
-149.604	-71.400	-0.084	0.031
-148.589	-130.010	-0.160	-0.022
-147.574	61.908	-0.346	-0.342
-146.560	168.389	-0.212	-0.300
-145.545	-58.709	-0.210	-0.090
-144.531	106.996	0.068	-0.080
-143.516	34.745	0.187	0.163
-142.502	-125.850	-0.348	0.052
-141.487	-119.467	0.212	0.036
-140.472	800.000	0.009	0.034
-139.458	-50.137	0.320	0.150
-138.443	800.000	0.047	0.163
-137.429	-142.931	-0.172	0.017
-136.414	21.950	0.113	0.091
-135.399	-200.000	-0.041	0.292
-134.385	-19.034	-0.384	0.237
-133.370	100.378	0.139	-0.160
-132.356	-73.386	0.209	0.076
-131.341	762.098	-0.095	-0.257
-130.326	-200.000	0.011	0.144
-129.312	800.000	-0.053	-0.155
-128.297	-58.913	0.108	-0.046
-127.283	-101.801	-0.080	0.019
-126.268	115.263	0.123	-0.149
-125.253	800.000	0.044	-0.180
-124.239	-200.000	-0.010	0.057
-123.224	543.481	0.060	0.142
-122.210	-7.989	-0.189	-0.127
-121.195	-117.534	-0.235	-0.042
-120.180	-106.196	-0.147	0.033
-119.166	-200.000	-0.025	0.201
-118.151	-200.000	-0.000	0.094
-117.137	-164.296	0.194	0.009
-116.122	53.973	-0.363	-0.346
-115.107	-50.403	-0.211	0.099
-114.093	-7.414	-0.136	-0.091
-113.078	246.121	-0.046	-0.076
-112.064	178.932	-0.215	0.311
-111.049	800.000	0.073	0.236
-110.034	139.602	0.102	0.133
-109.020	-104.527	-0.133	0.030
-108.005	23.399	-0.154	-0.125
-106.991	-5.059	0.228	0.155
-105.976	800.000	0.095	0.271
-104.962	-200.000	0.053	0.254
-103.947	800.000	-0.048	0.153
-102.932	-200.000	-0.039	-0.319
-101.918	23.582	0.239	0.195
-100.903	195.600	-0.097	0.146
-99.889	-200.000	0.015	0.385
-98.874	-157.517	0.257	-0.015
-97.859	216.707	0.023	0.036
-96.845	299.976	0.100	-0.183
-95.830	800.000	-0.086	-0.346
-94.816	-96.158	-0.093	-0.024
-93.801	800.000	-0.162	0.625
-92.786	-37.209	0.366	-0.194
-91.772	-77.395	-0.048	0.016
-90.757	143.475	-0.108	-0.142
-89.743	-77.978	-0.271	0.093
-88.728	-127.739	-0.146	0.021
-87.713	-132.005	0.016	-0.002
-86.699	-141.965	0.195	0.019
-85.684	442.732	0.117	-0.253
-84.670	-79.123	0.026	0.009
-83.655	-90.970	-0.457	-0.130
-82.640	-200.000	0.033	0.247
-81.626	268.609	-0.131	0.227
-80.611	-200.000	-0.048	0.304
-79.597	-200.000	0.061	-0.467
-78.582	-8.753	-0.218	0.145
-77.567	95.986	0.150	-0.170
-76.553	-51.217	0.047	0.022
-75.538	-200.000	0.019	0.268
-74.524	-200.000	0.046	0.221
-73.509	-59.185	-0.130	-0.056
-72.494	44.300	0.176	-0.160
-71.480	-6.448	-0.166	-0.112
-70.465	-7.331	0.218	-0.146
-69.451	9.999	0.109	0.082
-68.436	2.711	0.112	-0.080
-67.422	-162.350	0.212	0.010
-66.407	-39.249	0.230	0.120
-65.392	14.215	0.111	0.085
-64.378	-66.857	0.271	0.106
-63.363	453.843	0.188	0.411
-62.349	-39.228	0.426	0.221
-61.334	-26.735	-1.318	-0.762
-60.319	249.346	0.258	0.432
-59.305	-200.000	-0.199	-1.060
-58.290	123.291	0.609	0.755
-57.276	198.930	0.865	1.309
-56.261	-200.000	86.897	504.286
-55.246	553.686	1378.187	3275.637
-54.232	181.234	2633.887	3827.593
-53.217	113.943	2371.039	2849.719
-52.203	46.640	1978.107	1815.217
-51.188	40.822	1762.530	1571.485
-50.173	38.086	1716.278	1509.072
-49.159	53.217	1758.078	1664.354
-48.144	56.851	1776.153	1709.785
-47.130	40.470	1736.931	1545.671
-46.115	37.737	1721.640	1510.841
-45.100	37.558	1716.965	1505.289
-44.086	37.519	1714.523	1502.788
-43.071	37.508	1711.515	1500.009
-42.057	37.412	1709.149	1497.135
-41.042	37.431	1707.042	1495.377
-40.027	37.506	1704.970	1494.076
-39.013	37.587	1702.363	1492.353
-37.998	37.374	1701.762	1490.135
-36.984	37.516	1699.767	1489.420
-35.969	37.560	1698.341	1488.449
-34.954	37.727	1695.966	1487.585
-33.940	37.609	1695.021	1485.790
-32.925	37.568	1693.315	1483.924
-31.911	37.650	1690.797	1482.288
-30.896	37.599	1689.055	1480.313
-29.881	37.556	1688.083	1479.071
-28.867	37.567	1686.342	1477.574
-27.852	37.636	1684.659	1476.564
-26.838	37.657	1683.220	1475.403
-25.823	37.627	1681.648	1473.736
-24.809	37.769	1680.071	1473.371
-23.794	37.629	1679.108	1471.414
-22.779	37.731	1677.096	1470.357
-21.765	37.671	1675.390	1468.356
-20.750	37.595	1673.815	1466.345
-19.736	37.566	1672.878	1465.246
-18.721	37.695	1671.077	1464.578
-17.706	37.677	1669.199	1462.744
-16.692	37.615	1668.148	1461.300
-15.677	37.608	1667.093	1460.260
-14.663	37.707	1665.580	1459.617
-13.648	37.681	1663.927	1457.922
-12.633	37.600	1662.731	1456.206
-11.619	37.659	1660.812	1454.908
-10.604	37.704	1659.093	1453.681
-9.590	37.580	1658.230	1451.946
-8.575	37.731	1656.201	1451.237
-7.560	37.675	1655.340	1450.007
-6.546	37.753	1653.802	1449.183
-5.531	37.633	1652.734	1447.297
-4.517	37.674	1651.433	1446.406
-3.502	37.585	1650.380	1444.759
-2.487	37.722	1648.779	1444.317
-1.473	37.454	1637.479	1432.388
-0.458	34.611	1616.232	1393.039
0.556	28.014	1615.175	1354.381
1.571	25.220	1639.310	1353.447
2.586	24.306	1654.136	1358.607
3.600	21.635	1600.790	1294.956
4.615	11.551	1482.638	1129.855
5.629	1.841	1410.006	1010.283
6.644	-0.203	1400.344	989.804
7.659	-0.331	1398.344	987.456
8.673	-0.375	1397.334	986.370
9.688	-0.460	1395.610	984.505
10.702	-0.643	1392.404	980.961
11.717	2.767	1399.816	1008.535
12.731	12.046	1417.659	1082.845
13.746	17.481	1426.458	1125.501
14.761	17.025	1423.835	1120.319
15.775	16.767	1423.356	1118.141
16.790	16.846	1422.797	1118.126
17.804	16.969	1421.853	1118.093
18.819	17.207	1421.976	1119.662
19.834	17.163	1420.983	1118.492
20.848	17.145	1419.806	1117.345
21.863	17.135	1418.882	1116.457
22.877	17.164	1418.095	1115.928
23.892	17.077	1417.536	1114.818
24.907	17.147	1416.306	1114.212
25.921	17.263	1415.181	1113.990
26.936	17.132	1414.522	1112.511
27.950	17.168	1413.297	1111.684
28.965	17.127	1412.437	1110.643
29.980	17.152	1410.441	1109.142
30.994	17.132	1409.532	1108.198
32.009	17.075	1408.341	1106.789
33.023	17.142	1406.640	1105.791
34.038	17.126	1405.734	1104.873
35.053	17.141	1404.843	1104.178
36.067	17.135	1403.069	1102.644
37.082	17.151	1402.247	1102.003
38.096	17.170	1400.933	1100.998
39.111	17.231	1399.804	1100.411
40.126	17.074	1399.896	1099.364
41.140	17.088	1399.028	1098.677
42.155	17.116	1398.319	1098.207
43.169	17.067	1398.589	1098.004
44.184	17.178	1398.309	1098.404
45.199	17.143	1397.999	1097.838
46.213	17.137	1396.921	1096.857
47.228	17.110	1396.223	1096.034
48.242	17.151	1394.775	1095.064
49.257	17.093	1393.294	1093.431
50.271	17.098	1391.931	1092.299
51.286	17.121	1390.448	1091.184
52.301	17.053	1389.369	1089.808
53.315	17.046	1388.437	1088.936
54.330	17.034	1387.797	1088.261
55.344	17.061	1386.353	1087.203
56.359	17.045	1385.235	1086.128
57.374	16.954	1384.307	1084.721
58.388	17.139	1383.458	1085.143
59.403	17.101	1383.301	1084.680
60.417	17.098	1382.363	1083.831
61.432	17.049	1381.397	1082.665
62.447	17.118	1380.333	1082.173
63.461	17.041	1379.474	1080.912
64.476	17.107	1378.089	1080.155
65.490	17.001	1377.323	1078.787
66.505	17.240	1375.070	1078.440
67.520	17.078	1374.006	1076.484
68.534	17.095	1372.661	1075.442
69.549	17.095	1371.683	1074.583
70.563	17.042	1370.939	1073.568
71.578	17.128	1369.280	1072.715
72.593	17.081	1368.845	1071.982
73.607	17.099	1367.765	1071.159
74.622	17.121	1366.874	1070.506
75.636	17.194	1366.106	1070.266
76.651	17.049	1365.341	1068.660
77.666	17.100	1364.674	1068.362
78.680	17.152	1363.887	1067.981
79.695	17.029	1363.473	1066.791
80.709	17.098	1362.221	1066.152
81.724	17.145	1361.330	1065.649
82.739	17.055	1360.455	1064.308
83.753	17.091	1359.361	1063.583
84.768	17.099	1358.372	1062.764
85.782	17.021	1356.887	1061.022
86.797	17.155	1355.384	1060.590
87.812	17.219	1354.039	1059.842
88.826	17.164	1352.536	1058.232
89.841	17.137	1351.779	1057.379
90.855	17.059	1351.106	1056.270
91.870	17.147	1349.568	1055.524
92.884	17.259	1348.392	1055.206
93.899	17.064	1347.948	1053.552
94.914	17.146	1347.120	1053.319
95.928	17.130	1346.131	1052.355
96.943	17.158	1345.265	1051.756
97.957	17.172	1344.734	1051.338
98.972	17.127	1343.196	1049.764
99.987	17.085	1342.369	1048.768
101.001	17.206	1340.752	1048.154
102.016	17.150	1339.876	1047.032
103.030	17.069	1339.029	1045.779
104.045	17.211	1337.889	1045.668
105.060	17.220	1336.469	1044.526
106.074	17.243	1335.527	1043.835
107.089	17.188	1334.153	1042.335
108.103	17.231	1332.751	1041.407
109.118	17.318	1331.439	1040.825
110.133	17.261	1329.980	1039.242
111.147	17.219	1328.925	1038.069
112.162	17.252	1327.052	1036.717
113.176	17.202	1326.654	1036.007
114.191	17.173	1325.527	1034.858
115.206	17.187	1324.094	1033.738
116.220	17.261	1322.895	1033.157
117.235	17.157	1322.404	1032.052
118.249	17.201	1320.625	1030.836
119.264	17.261	1320.021	1030.642
120.279	17.325	1318.525	1029.769
121.293	17.322	1317.565	1028.906
122.308	17.261	1316.973	1027.988
123.322	17.326	1315.587	1027.207
124.337	17.344	1314.310	1026.229
125.352	17.359	1313.213	1025.368
126.366	17.283	1312.153	1023.991
127.381	17.330	1310.657	1023.016
128.395	17.277	1310.199	1022.251
129.410	17.215	1309.116	1020.946
130.424	17.190	1308.297	1020.067
131.439	17.375	1306.878	1019.976
132.454	17.297	1306.113	1018.823
133.468	17.270	1305.139	1017.810
134.483	17.336	1304.529	1017.639
135.497	17.144	1303.838	1015.862
136.512	17.266	1302.265	1015.274
137.527	17.337	1300.634	1014.341
138.541	17.253	1299.260	1012.678
139.556	17.244	1298.077	1011.610
140.570	17.220	1296.723	1010.323
141.585	17.337	1295.381	1009.883
142.600	17.292	1294.266	1008.658
143.614	17.261	1293.309	1007.637
144.629	17.237	1292.045	1006.425
145.643	17.257	1290.345	1005.130
146.658	17.138	1289.929	1004.012
147.673	17.188	1288.614	1003.195
148.687	17.210	1287.316	1002.226
149.702	17.169	1286.037	1000.899
150.716	17.152	1285.172	1000.040
151.731	17.171	1284.094	999.225
152.746	17.161	1282.660	997.957
153.760	17.287	1281.743	997.895
154.775	17.180	1280.547	996.248
155.789	17.187	1279.467	995.365
156.804	17.208	1278.370	994.543
157.819	17.315	1277.267	994.221
158.833	17.285	1276.264	993.179
159.848	17.352	1275.407	992.816
160.862	17.236	1274.808	991.585
161.877	17.303	1273.689	991.017
162.892	17.258	1272.970	990.110
163.906	17.349	1271.818	989.657
164.921	17.356	1270.475	988.563
165.935	17.261	1270.254	987.750
166.950	17.365	1269.412	987.614
167.964	17.270	1269.104	986.736
168.979	17.300	1268.277	986.179
169.994	17.333	1267.760	985.880
171.008	17.394	1266.499	985.163
172.023	17.330	1265.914	984.254
173.037	17.304	1265.066	983.358
174.052	17.331	1264.226	982.771
175.067	17.365	1263.243	982.120
176.081	17.412	1262.245	981.525
177.096	17.427	1261.234	980.742
178.110	17.363	1260.477	979.693
179.125	17.287	1259.505	978.413
180.140	17.399	1258.048	977.843
181.154	17.312	1257.067	976.494
182.169	17.326	1256.200	975.814
183.183	17.318	1255.119	974.841
184.198	17.369	1254.320	974.424
185.213	17.348	1253.301	973.426
186.227	17.449	1251.953	972.870
187.242	17.380	1251.015	971.663
188.256	17.468	1250.125	971.391
189.271	17.438	1249.053	970.296
190.286	17.473	1248.498	969.981
191.300	17.446	1247.827	969.222
192.315	17.471	1247.143	968.744
193.329	17.423	1246.793	968.116
194.344	17.371	1246.008	967.126
195.359	17.437	1245.958	967.377
196.373	17.467	1244.997	966.713
197.388	17.393	1244.581	965.887
198.402	17.362	1244.581	965.625
199.417	17.353	1243.681	964.787
200.432	17.409	1243.098	964.566
201.446	17.473	1242.010	964.001
202.461	17.369	1241.434	962.878
203.475	17.380	1240.238	961.930
204.490	17.397	1239.162	961.107
205.504	17.454	1238.385	960.741
206.519	17.392	1237.161	959.353
207.534	17.451	1236.316	958.946
208.548	17.404	1235.311	957.819
209.563	17.545	1233.923	957.454
210.577	17.527	1233.243	956.739
211.592	17.406	1232.727	955.570
212.607	17.436	1231.908	955.020
213.621	17.429	1231.462	954.553
214.636	17.629	1229.949	954.414
215.650	17.574	1229.305	953.522
216.665	17.567	1228.195	952.539
217.680	17.532	1227.265	951.538
218.694	17.460	1226.601	950.536
219.709	17.541	1226.117	950.529
220.723	17.504	1225.227	949.552
221.738	17.532	1224.157	948.790
222.753	17.527	1223.260	947.987
223.767	17.552	1223.348	948.109
224.782	17.576	1222.258	947.313
225.796	17.678	1221.904	947.521
226.811	17.599	1220.928	946.241
227.826	17.615	1220.166	945.659
228.840	17.715	1219.424	945.553
229.855	17.604	1218.935	944.473
230.869	17.611	1218.601	944.170
231.884	17.666	1217.456	943.507
232.899	17.610	1216.997	942.754
233.913	17.651	1216.622	942.606
234.928	17.666	1215.656	941.858
235.942	17.624	1215.108	941.121
236.957	17.729	1214.199	940.914
237.972	17.711	1213.448	940.147
238.986	17.712	1212.932	939.668
240.001	17.616	1212.643	938.836
241.015	17.715	1211.266	938.229
242.030	17.633	1210.675	937.240
243.045	17.774	1209.856	937.296
244.059	17.759	1209.200	936.622
245.074	17.793	1207.962	935.767
246.088	17.753	1207.209	934.882
247.103	17.786	1206.452	934.393
248.117	17.653	1206.031	933.258
249.132	17.710	1205.229	932.865
250.147	17.894	1204.128	932.934
251.161	17.790	1203.904	932.109
252.176	17.801	1202.836	931.263
253.190	17.786	1202.183	930.592
254.205	17.835	1201.847	930.517
255.220	17.819	1201.107	929.776
256.234	17.764	1200.480	928.907
257.249	17.792	1199.749	928.415
258.263	17.776	1199.438	928.004
259.278	17.800	1198.505	927.330
260.293	17.885	1197.988	927.311
261.307	17.832	1197.526	926.583
262.322	17.922	1196.714	926.360
263.336	17.856	1195.509	924.984
264.351	17.825	1195.235	924.524
265.366	17.819	1194.766	924.047
266.380	17.928	1193.644	923.685
267.395	17.819	1193.123	922.616
268.409	17.800	1192.663	922.074
269.424	17.896	1191.992	921.993
270.439	17.882	1191.623	921.548
271.453	17.872	1190.530	920.567
272.468	17.873	1189.845	919.965
273.482	17.822	1189.321	919.203
274.497	17.972	1188.563	919.342
275.512	18.013	1187.947	919.004
276.526	17.977	1186.989	917.991
277.541	17.931	1186.675	917.417
278.555	18.034	1185.774	917.195
279.570	18.034	1185.003	916.516
280.585	17.904	1184.560	915.393
281.599	17.934	1182.961	914.239
282.614	17.966	1182.232	913.766
283.628	18.003	1181.315	913.175
284.643	17.989	1180.674	912.525
285.657	18.033	1179.696	911.921
286.672	17.931	1179.138	910.866
287.687	18.098	1178.015	910.804
288.701	18.106	1177.349	910.253
289.716	18.060	1176.545	909.305
290.730	18.061	1175.951	908.773
291.745	18.128	1175.018	908.329
292.760	18.144	1174.606	908.011
293.774	18.109	1174.070	907.335
294.789	18.104	1173.660	906.909
295.803	18.123	1172.618	906.122
296.818	18.120	1171.980	905.533
297.833	18.121	1171.277	904.917
298.847	18.132	1170.930	904.626
299.862	18.210	1169.460	903.824
300.876	18.189	1169.271	903.484
301.891	18.227	1168.269	902.832
302.906	18.142	1167.805	901.944
303.920	18.281	1166.875	901.879
304.935	18.232	1166.431	901.200
305.949	18.255	1165.241	900.323
306.964	18.299	1164.921	900.225
307.979	18.351	1164.249	899.901
308.993	18.190	1163.787	898.617
310.008	18.253	1163.005	898.263
311.022	18.207	1162.301	897.400
312.037	18.205	1161.785	896.914
313.052	18.341	1160.507	896.561
314.066	18.208	1159.489	894.999
315.081	18.321	1158.912	895.064
316.095	18.208	1158.345	893.956
317.110	18.411	1157.291	894.124
318.125	18.322	1156.903	893.278
319.139	18.404	1156.001	892.931
320.154	18.388	1155.347	892.261
321.168	18.302	1155.269	891.674
322.183	18.369	1154.276	891.182
323.197	18.400	1153.673	890.798
324.212	18.266	1153.311	889.742
325.227	18.390	1152.817	889.928
326.241	18.330	1151.835	888.777
327.256	18.467	1151.301	888.997
328.270	18.408	1150.386	887.906
329.285	18.295	1149.750	886.749
330.300	18.379	1148.536	886.170
331.314	18.368	1147.795	885.465
332.329	18.400	1146.860	884.829
333.343	18.450	1145.933	884.294
334.358	18.480	1145.126	883.748
335.373	18.516	1144.154	883.104
336.387	18.448	1143.699	882.329
337.402	18.519	1143.079	882.136
338.416	18.492	1142.647	881.582
339.431	18.477	1141.644	880.659
340.446	18.482	1141.190	880.255
341.460	18.553	1140.482	879.993
342.475	18.527	1139.893	879.328
343.489	18.542	1138.789	878.476
344.504	18.494	1137.992	877.540
345.519	18.468	1137.070	876.616
346.533	18.590	1136.318	876.583
347.548	18.552	1135.464	875.651
348.562	18.576	1134.768	875.158
349.577	18.617	1134.040	874.729
350.592	18.476	1133.203	873.289
351.606	18.593	1132.365	873.159
352.621	18.634	1131.826	872.878
353.635	18.638	1131.552	872.607
354.650	18.627	1130.684	871.805
355.665	18.782	1129.743	871.792
356.679	18.609	1129.608	870.733
357.694	18.694	1129.006	870.623
358.708	18.658	1127.832	869.454
359.723	18.615	1127.368	868.803
360.738	18.858	1126.148	869.017
361.752	18.706	1126.248	868.246
362.767	18.813	1125.568	868.185
363.781	18.816	1125.158	867.812
364.796	18.824	1124.258	867.080
365.810	18.730	1123.906	866.258
366.825	18.723	1123.323	865.693
367.840	18.903	1122.804	866.126
368.854	18.830	1121.971	865.039
369.869	18.805	1121.165	864.215
370.883	18.847	1120.479	863.822
371.898	18.879	1119.733	863.328
372.913	18.795	1119.247	862.456
373.927	18.866	1118.827	862.415
374.942	18.871	1118.123	861.821
375.956	18.954	1117.566	861.728
376.971	18.795	1116.966	860.394
377.986	18.876	1116.243	860.169
379.000	19.002	1116.009	860.541
380.015	19.044	1115.178	860.033
381.029	18.925	1114.649	858.955
382.044	18.921	1114.175	858.493
383.059	18.938	1113.273	857.810
384.073	18.980	1112.486	857.337
385.088	18.961	1111.503	856.406
386.102	18.998	1110.510	855.752
387.117	19.044	1109.452	855.087
388.132	19.043	1108.732	854.452
389.146	19.039	1108.037	853.823
390.161	19.100	1107.152	853.365
391.175	18.966	1106.902	852.432
392.190	19.098	1105.857	852.207
393.205	18.972	1105.767	851.438
394.219	19.046	1104.379	850.661
395.234	19.153	1103.369	850.337
396.248	19.142	1102.155	849.273
397.263	19.076	1101.584	848.433
398.278	19.132	1101.206	848.338
399.292	19.231	1100.228	848.001
400.307	19.152	1099.830	847.227
401.321	19.268	1099.152	847.204
402.336	19.287	1098.100	846.411
403.350	19.172	1097.548	845.343
404.365	19.214	1096.846	844.937
405.380	19.324	1096.155	844.865
406.394	19.245	1095.235	843.698
407.409	19.208	1094.757	843.072
408.423	19.193	1094.088	842.410
409.438	19.256	1093.378	842.095
410.453	19.345	1092.262	841.596
411.467	19.278	1091.732	840.787
412.482	19.368	1091.129	840.685
413.496	19.468	1090.072	840.283
414.511	19.277	1089.685	838.982
415.526	19.300	1089.438	838.831
416.540	19.386	1088.430	838.399
417.555	19.358	1088.603	838.320
418.569	19.409	1087.861	837.920
419.584	19.306	1087.454	837.037
420.599	19.449	1086.735	837.099
421.613	143.973	1393.063	1780.164
422.628	133.248	1437.703	1780.272
