DTS Sentinel unit serial number:	SN413079Multiplexer serial number:	ORYXHardware model number:	OX4-SRSoftware version number:	ORYX F/W v4.00 Oryx Data Collector v3.7.2.0data status	okinstallation	princeton_trtdifferential loss correction	single-endedforward channel	channel 2reverse channel	N/Adate	2019/09/15time	19:43:35forward acquisition time	60.00reverse acquisition time	0.00gamma	496.2192k internal	0.2323k external	0.2323temperature offset calibration	0.9934default loss term (dB/km)	0.3790temperature slope calibration	1.0000multiplexer offset coefficient	1.0000multiplexer slope coefficient	1.0000fibre end	0.00T internal ref (°C)	37.31T ext. ref 1 (°C)	7.41T ext. ref 2 (°C)	27.23length (m)	temperature (°C)	Stokes	anti-Stokes-747.200	41.075	0.074	0.068
-746.185	-200.000	0.044	0.244
-745.171	495.398	-0.096	-0.224
-744.156	-82.745	0.077	0.025
-743.142	-118.838	-0.117	-0.021
-742.127	11.289	-0.073	-0.056
-741.112	-85.969	0.112	-0.035
-740.098	66.784	-0.257	-0.264
-739.083	-136.333	-0.209	-0.025
-738.069	743.647	-0.116	0.315
-737.054	-13.330	0.041	0.027
-736.039	101.068	-0.251	0.295
-735.025	-114.294	0.320	-0.062
-734.010	412.090	0.058	0.124
-732.996	123.990	0.178	-0.226
-731.981	-25.837	-0.195	0.116
-730.966	800.000	-0.026	0.080
-729.952	-23.867	0.412	0.249
-728.937	-104.188	-0.399	-0.094
-727.923	-79.173	0.122	0.042
-726.908	110.705	-0.093	0.113
-725.894	194.301	-0.211	-0.322
-724.879	-200.000	0.000	-0.188
-723.864	-17.810	0.139	-0.088
-722.850	-96.284	-0.212	-0.057
-721.835	-41.492	-0.493	-0.256
-720.821	-6.201	-0.243	-0.167
-719.806	-200.000	0.005	-0.080
-718.791	-62.070	-0.069	0.029
-717.777	-200.000	-0.012	-0.061
-716.762	-5.207	-0.152	0.106
-715.748	-34.649	-0.099	0.055
-714.733	-200.000	-0.000	-0.109
-713.718	131.737	0.265	-0.343
-712.704	7.752	0.212	0.160
-711.689	156.071	-0.122	0.170
-710.675	-68.985	0.079	-0.031
-709.660	-200.000	0.007	-0.155
-708.645	322.757	0.064	-0.122
-707.631	202.256	-0.181	-0.281
-706.616	-41.674	-0.102	0.053
-705.602	-122.101	-0.172	-0.028
-704.587	-200.000	0.048	-0.619
-703.572	-140.254	-0.241	-0.025
-702.558	-19.069	-0.061	0.038
-701.543	-144.303	0.105	-0.010
-700.529	-200.000	0.003	-0.369
-699.514	55.417	0.083	-0.081
-698.499	639.404	0.128	-0.329
-697.485	-81.894	-0.046	0.015
-696.470	-200.000	-0.012	-0.064
-695.456	-37.692	-0.329	-0.177
-694.441	-200.000	-0.019	0.213
-693.426	800.000	0.042	-0.162
-692.412	9.872	-0.183	-0.140
-691.397	67.510	0.185	-0.190
-690.383	9.229	0.130	0.099
-689.368	800.000	0.010	-0.029
-688.354	-200.000	0.009	0.351
-687.339	-151.816	-0.091	-0.007
-686.324	-95.356	0.207	0.056
-685.310	365.210	0.168	0.341
-684.295	-138.362	0.196	-0.022
-683.281	-68.759	0.083	-0.032
-682.266	-200.000	0.039	0.256
-681.251	-200.000	-0.065	-0.288
-680.237	-80.748	-0.320	-0.107
-679.222	-200.000	-0.002	-0.337
-678.208	-200.000	-0.051	-0.707
-677.193	95.817	-0.067	-0.077
-676.178	-94.725	-0.056	0.015
-675.164	800.000	-0.093	0.319
-674.149	-78.543	-0.317	-0.109
-673.135	107.645	-0.123	0.147
-672.120	-200.000	0.008	-0.435
-671.105	-119.595	0.274	0.048
-670.091	-86.679	-0.277	-0.086
-669.076	-163.334	-0.421	0.020
-668.062	-59.599	-0.431	-0.186
-667.047	-200.000	0.012	0.138
-666.032	575.500	-0.089	-0.218
-665.018	368.903	-0.082	-0.167
-664.003	800.000	0.069	-0.273
-662.989	-150.136	-0.069	-0.005
-661.974	-25.591	0.128	0.076
-660.959	40.130	0.221	0.200
-659.945	-112.353	-0.132	0.027
-658.930	-200.000	-0.002	-0.099
-657.916	-134.994	-0.235	0.029
-656.901	14.349	0.189	-0.149
-655.886	321.834	-0.141	-0.271
-654.872	14.424	0.136	0.107
-653.857	-101.316	0.083	0.020
-652.843	800.000	0.057	-0.166
-651.828	-169.386	-0.353	0.013
-650.814	235.257	-0.025	-0.042
-649.799	-200.000	-0.004	-0.167
-648.784	-66.135	0.097	0.039
-647.770	-83.202	0.099	-0.032
-646.755	-1.990	-0.202	-0.143
-645.741	40.329	0.076	-0.069
-644.726	-63.969	0.129	0.053
-643.711	13.416	0.271	-0.212
-642.697	-7.893	-0.209	0.142
-641.682	-37.211	-0.309	-0.166
-640.668	229.971	0.217	0.356
-639.653	105.149	-0.185	0.220
-638.638	410.058	-0.039	0.083
-637.624	-55.790	-0.043	0.019
-636.609	21.003	-0.242	-0.197
-635.595	-127.155	0.416	-0.061
-634.580	-200.000	-0.340	0.001
-633.565	-169.791	-0.229	-0.008
-632.551	-92.702	0.219	-0.062
-631.536	49.062	0.197	-0.187
-630.522	12.424	-0.157	0.121
-629.507	-78.445	-0.485	-0.167
-628.492	28.232	0.041	-0.035
-627.478	213.363	0.166	0.264
-626.463	558.444	0.042	0.102
-625.449	-114.866	-0.380	0.073
-624.434	293.449	-0.108	-0.199
-623.419	16.451	0.142	0.113
-622.405	-160.191	0.168	0.009
-621.390	-135.044	-0.318	-0.039
-620.376	224.629	0.150	0.244
-619.361	291.156	-0.218	-0.398
-618.346	-17.612	0.170	0.107
-617.332	800.000	0.072	0.275
-616.317	176.275	0.068	0.100
-615.303	181.266	-0.165	-0.243
-614.288	-200.000	0.023	0.162
-613.273	192.945	0.103	0.157
-612.259	-107.717	-0.264	0.058
-611.244	-143.195	-0.271	-0.026
-610.230	454.422	-0.124	0.276
-609.215	-200.000	-0.013	0.184
-608.201	-65.860	0.401	-0.161
-607.186	800.000	-0.020	-0.080
-606.171	-116.654	0.323	-0.060
-605.157	-39.203	0.054	-0.028
-604.142	-37.099	0.113	-0.061
-603.128	-6.010	-0.236	0.162
-602.113	-16.507	-0.268	0.171
-601.098	-200.000	-0.003	0.188
-600.084	800.000	0.037	-0.139
-599.069	-31.199	-0.365	-0.206
-598.055	74.991	0.083	0.088
-597.040	-112.548	-0.495	-0.099
-596.025	-200.000	-0.002	-0.101
-595.011	-92.517	-0.131	0.037
-593.996	-140.489	0.259	-0.027
-592.982	-200.000	-0.050	-0.274
-591.967	-5.820	-0.259	-0.178
-590.952	314.387	-0.104	-0.196
-589.938	-200.000	-0.001	0.133
-588.923	-90.936	0.287	-0.083
-587.909	-200.000	-0.017	-0.561
-586.894	-120.091	-0.248	0.043
-585.879	557.857	-0.077	0.187
-584.865	30.214	-0.327	-0.280
-583.850	-127.112	-0.099	-0.015
-582.836	-200.000	0.045	0.338
-581.821	-200.000	-0.002	0.244
-580.806	-27.752	-0.162	0.094
-579.792	288.414	0.172	0.312
-578.777	800.000	0.075	0.222
-577.763	479.517	0.080	-0.181
-576.748	800.000	-0.043	0.167
-575.733	-200.000	0.010	-0.114
-574.719	-101.256	-0.399	-0.098
-573.704	-200.000	0.011	0.238
-572.690	-200.000	0.038	-0.199
-571.675	-77.493	-0.252	0.088
-570.661	800.000	-0.063	-0.232
-569.646	131.714	0.060	-0.077
-568.631	69.016	-0.162	0.167
-567.617	-33.200	-0.250	-0.139
-566.602	-64.217	-0.277	-0.113
-565.588	-144.352	-0.357	0.033
-564.573	800.000	-0.023	-0.089
-563.558	150.291	-0.204	0.278
-562.544	-200.000	0.006	0.145
-561.529	53.587	0.104	0.100
-560.515	542.231	-0.042	0.101
-559.500	-116.194	-0.370	-0.069
-558.485	47.195	-0.203	-0.190
-557.471	-16.799	0.117	0.074
-556.456	800.000	-0.032	0.097
-555.442	143.327	-0.079	0.106
-554.427	-200.000	0.025	-0.189
-553.412	-27.417	-0.211	0.123
-552.398	-200.000	0.038	0.192
-551.383	-153.870	-0.263	0.018
-550.369	-200.000	-0.013	-0.117
-549.354	74.302	0.286	-0.301
-548.339	377.914	0.136	0.279
-547.325	-200.000	0.036	0.401
-546.310	-2.644	0.220	-0.154
-545.296	800.000	-0.018	-0.072
-544.281	8.620	-0.287	0.216
-543.266	58.057	0.180	0.177
-542.252	-144.477	0.275	0.026
-541.237	-23.111	-0.061	-0.037
-540.223	-87.463	-0.169	-0.051
-539.208	12.047	0.218	-0.168
-538.193	-200.000	-0.035	-0.157
-537.179	41.440	0.039	-0.035
-536.164	-1.354	-0.320	-0.226
-535.150	-69.593	0.112	-0.043
-534.135	-200.000	-0.033	0.591
-533.121	-163.993	-0.110	0.005
-532.106	170.533	-0.110	-0.158
-531.091	-68.434	-0.332	-0.129
-530.077	-66.249	0.061	0.024
-529.062	800.000	-0.154	-0.663
-528.048	-34.725	-0.369	-0.202
-527.033	-200.000	0.031	-0.156
-526.018	-33.498	-0.047	0.026
-525.004	-151.300	-0.211	0.016
-523.989	800.000	-0.046	-0.135
-522.975	-80.579	0.283	-0.094
-521.960	151.300	0.108	0.148
-520.945	72.180	0.095	-0.099
-519.931	293.050	0.145	0.264
-518.916	-200.000	-0.010	0.345
-517.902	74.849	0.360	-0.379
-516.887	581.551	-0.172	-0.421
-515.872	118.179	0.200	-0.247
-514.858	800.000	0.023	-0.075
-513.843	402.309	0.173	-0.365
-512.829	800.000	-0.052	0.173
-511.814	-178.053	0.094	0.002
-510.799	276.513	-0.155	-0.276
-509.785	-106.058	-0.103	0.023
-508.770	-86.075	0.275	0.085
-507.756	263.065	0.057	0.099
-506.741	-200.000	0.013	-0.236
-505.726	800.000	-0.116	-0.397
-504.712	800.000	-0.067	0.212
-503.697	-200.000	-0.011	-0.153
-502.683	20.569	0.031	-0.025
-501.668	-200.000	-0.027	-0.352
-500.653	-73.044	-0.117	0.043
-499.639	-119.983	-0.126	0.022
-498.624	-86.428	-0.290	0.089
-497.610	-47.086	0.148	-0.072
-496.595	-135.116	0.330	0.040
-495.581	-188.849	0.061	0.001
-494.566	-200.000	0.026	-0.311
-493.551	-109.436	-0.102	0.022
-492.537	98.744	-0.179	-0.207
-491.522	-66.675	0.329	-0.130
-490.508	-134.955	-0.133	-0.016
-489.493	84.063	0.294	0.321
-488.478	144.804	-0.182	-0.243
-487.464	643.384	-0.144	0.368
-486.449	52.326	0.073	-0.069
-485.435	216.347	0.044	0.069
-484.420	227.464	-0.148	0.241
-483.405	15.597	0.192	-0.151
-482.391	-58.894	0.029	0.013
-481.376	307.503	0.075	0.139
-480.362	-146.441	-0.336	0.029
-479.347	-33.972	0.352	-0.194
-478.332	-35.891	-0.226	-0.122
-477.318	-51.664	-0.331	0.154
-476.303	-114.180	-0.267	-0.052
-475.289	74.844	0.250	0.263
-474.274	282.174	-0.136	0.243
-473.259	-158.574	0.136	-0.008
-472.245	100.634	0.143	-0.166
-471.230	-105.507	-0.111	0.025
-470.216	78.142	-0.140	-0.149
-469.201	-168.071	-0.084	0.003
-468.186	800.000	0.060	0.183
-467.172	371.737	0.134	0.272
-466.157	-200.000	-0.013	-0.090
-465.143	96.423	0.161	-0.184
-464.128	56.010	0.284	0.275
-463.113	181.499	-0.200	-0.294
-462.099	204.107	0.017	-0.026
-461.084	-21.295	0.184	0.113
-460.070	-66.969	0.175	0.069
-459.055	-200.000	0.020	-0.230
-458.040	-84.756	0.272	0.085
-457.026	-23.620	0.263	-0.157
-456.011	248.143	-0.130	-0.220
-454.997	31.896	-0.286	0.246
-453.982	-115.999	0.117	-0.022
-452.968	-95.927	0.194	-0.052
-451.953	800.000	-0.175	-0.517
-450.938	6.531	-0.314	-0.233
-449.924	-200.000	-0.019	-0.287
-448.909	-124.903	0.261	0.040
-447.895	-143.932	-0.163	0.015
-446.880	126.759	0.063	0.079
-445.865	55.749	-0.108	-0.104
-444.851	-124.069	0.275	-0.043
-443.836	-145.557	-0.138	0.012
-442.822	283.525	-0.015	0.026
-441.807	-31.007	-0.152	-0.085
-440.792	800.000	0.005	-0.021
-439.778	209.907	0.142	-0.222
-438.763	210.054	0.128	0.200
-437.749	318.029	-0.027	-0.052
-436.734	-168.251	-0.292	0.011
-435.719	-54.954	-0.318	-0.143
-434.705	-200.000	0.034	0.158
-433.690	11.465	0.184	0.140
-432.676	223.791	0.107	-0.172
-431.661	800.000	-0.065	0.194
-430.646	159.612	-0.335	0.465
-429.632	-168.034	0.276	0.011
-428.617	-55.792	-0.047	-0.021
-427.603	385.683	0.235	0.484
-426.588	-200.000	0.003	-0.230
-425.573	-185.522	-0.346	-0.005
-424.559	454.448	0.137	0.302
-423.544	48.858	-0.182	0.170
-422.530	-34.193	-0.114	-0.063
-421.515	-200.000	0.093	0.456
-420.500	-121.454	-0.200	0.033
-419.486	-200.000	0.025	-0.128
-418.471	46.460	-0.058	0.054
-417.457	-200.000	-0.063	0.278
-416.442	-33.196	-0.145	0.080
-415.428	-200.000	0.011	0.259
-414.413	71.614	-0.049	-0.050
-413.398	-38.075	-0.330	-0.174
-412.384	-200.000	-0.031	-0.228
-411.369	148.457	-0.260	0.350
-410.355	12.326	0.208	0.160
-409.340	-7.444	0.085	-0.057
-408.325	-200.000	-0.041	0.278
-407.311	188.699	-0.174	0.259
-406.296	177.712	0.125	-0.182
-405.282	-200.000	0.013	-0.160
-404.267	-25.902	-0.063	0.037
-403.252	800.000	0.116	0.427
-402.238	-96.502	0.339	-0.089
-401.223	800.000	0.039	-0.155
-400.209	800.000	-0.070	-0.229
-399.194	-111.759	0.319	0.064
-398.179	-88.149	-0.237	-0.071
-397.165	28.090	0.165	-0.139
-396.150	-138.008	-0.410	0.046
-395.136	15.105	0.285	-0.222
-394.121	-7.440	0.261	0.176
-393.106	-145.790	0.143	0.013
-392.092	-200.000	-0.005	0.207
-391.077	-160.046	0.173	-0.009
-390.063	520.495	-0.085	-0.197
-389.048	800.000	0.089	0.284
-388.033	29.680	0.161	-0.136
-387.019	-143.954	0.189	0.018
-386.004	-2.332	0.206	0.144
-384.990	-143.105	0.190	-0.018
-383.975	-103.799	-0.088	-0.020
-382.960	205.657	-0.250	-0.387
-381.946	-200.000	-0.037	-0.324
-380.931	597.516	-0.041	-0.102
-379.917	-82.411	0.130	0.042
-378.902	-200.000	0.016	0.238
-377.888	800.000	0.062	0.232
-376.873	800.000	0.056	0.202
-375.858	359.207	0.085	0.169
-374.844	306.055	0.107	-0.198
-373.829	-53.036	-0.209	0.096
-372.815	800.000	-0.085	-0.237
-371.800	148.444	-0.108	-0.145
-370.785	-2.117	0.150	-0.105
-369.771	800.000	0.082	-0.350
-368.756	-200.000	-0.073	-0.362
-367.742	384.892	0.194	0.398
-366.727	67.245	0.102	-0.104
-365.712	-5.690	-0.076	0.052
-364.698	474.824	0.057	0.128
-363.683	175.011	0.066	0.095
-362.669	-8.607	-0.142	-0.095
-361.654	-200.000	-0.041	0.235
-360.639	-111.800	0.181	-0.037
-359.625	47.419	-0.245	-0.227
-358.610	163.389	-0.070	-0.099
-357.596	-39.764	0.115	-0.060
-356.581	-42.226	-0.268	0.136
-355.566	478.694	0.115	0.259
-354.552	-102.456	0.177	0.042
-353.537	179.499	-0.130	0.190
-352.523	800.000	0.100	0.296
-351.508	-200.000	0.036	-0.162
-350.493	-200.000	-0.075	-0.389
-349.479	-39.361	0.467	-0.244
-348.464	-99.248	0.225	0.057
-347.450	306.951	-0.106	-0.196
-346.435	3.359	-0.203	-0.147
-345.420	800.000	0.029	0.093
-344.406	-170.631	-0.183	-0.006
-343.391	111.456	0.219	-0.263
-342.377	685.202	-0.018	-0.046
-341.362	18.651	-0.136	0.109
-340.348	-38.237	0.220	-0.116
-339.333	-62.884	0.145	0.060
-338.318	-107.203	-0.468	-0.103
-337.304	-200.000	-0.010	-0.410
-336.289	185.645	0.258	-0.380
-335.275	-113.138	-0.106	-0.021
-334.260	-200.000	-0.009	0.183
-333.245	-200.000	-0.019	-0.098
-332.231	291.791	0.201	0.364
-331.216	739.538	0.039	0.104
-330.202	-99.367	-0.112	-0.028
-329.187	-17.316	-0.035	0.022
-328.172	-200.000	-0.018	-0.167
-327.158	84.059	0.217	-0.236
-326.143	-200.000	-0.028	-0.181
-325.129	-57.492	0.106	0.046
-324.114	375.070	-0.010	0.020
-323.099	-79.024	0.332	0.112
-322.085	174.637	-0.019	0.027
-321.070	800.000	-0.117	0.398
-320.056	221.421	-0.125	-0.199
-319.041	66.536	0.151	0.153
-318.026	89.007	0.225	-0.248
-317.012	43.733	-0.178	-0.162
-315.997	-150.609	-0.302	-0.023
-314.983	800.000	-0.062	-0.236
-313.968	-81.785	-0.276	-0.090
-312.953	-200.000	0.033	0.162
-311.939	4.619	0.161	0.118
-310.924	121.997	0.243	-0.302
-309.910	-93.075	0.228	0.063
-308.895	197.645	0.165	0.250
-307.880	143.557	0.094	0.124
-306.866	-136.133	-0.075	0.009
-305.851	-53.970	-0.025	-0.011
-304.837	137.696	-0.295	-0.383
-303.822	-149.694	0.343	0.027
-302.807	73.286	0.170	0.177
-301.793	140.490	-0.091	0.120
-300.778	-58.324	-0.179	0.077
-299.764	-200.000	0.064	-0.310
-298.749	217.072	0.115	-0.181
-297.735	339.395	-0.112	-0.217
-296.720	-200.000	0.008	0.039
-295.705	-54.200	0.093	-0.042
-294.691	207.724	-0.152	0.235
-293.676	800.000	0.098	0.314
-292.662	800.000	-0.073	0.206
-291.647	-200.000	-0.052	0.315
-290.632	-20.280	0.174	0.107
-289.618	47.646	0.097	-0.090
-288.603	800.000	-0.037	-0.148
-287.589	-200.000	0.017	0.083
-286.574	-200.000	-0.016	-0.172
-285.559	278.368	-0.136	0.241
-284.545	-200.000	-0.005	0.048
-283.530	-55.081	-0.097	-0.044
-282.516	149.471	-0.190	-0.256
-281.501	-200.000	0.047	0.363
-280.486	-34.945	0.300	0.163
-279.472	-200.000	0.022	-0.175
-278.457	-71.080	0.151	0.056
-277.443	88.134	-0.253	-0.279
-276.428	-200.000	-0.003	0.130
-275.413	197.627	-0.073	0.111
-274.399	-200.000	-0.024	0.184
-273.384	-11.412	0.194	0.127
-272.370	157.543	-0.132	0.181
-271.355	245.348	0.070	0.116
-270.340	8.612	-0.172	0.128
-269.326	41.355	0.216	-0.194
-268.311	-79.463	-0.183	0.061
-267.297	-55.237	-0.023	0.010
-266.282	-74.369	0.178	0.064
-265.267	800.000	-0.060	0.221
-264.253	-25.583	-0.144	0.084
-263.238	613.565	0.010	-0.025
-262.224	80.908	-0.087	-0.093
-261.209	-172.776	0.227	-0.007
-260.195	40.900	0.208	0.186
-259.180	-29.453	0.286	-0.162
-258.165	-200.000	-0.012	-0.124
-257.151	105.461	0.142	0.166
-256.136	-59.807	0.099	-0.042
-255.122	142.747	-0.200	0.264
-254.107	-150.721	-0.462	-0.035
-253.092	-30.973	0.304	-0.170
-252.078	-70.404	0.282	0.106
-251.063	-99.693	0.157	0.039
-250.049	-200.000	0.074	-0.369
-249.034	604.132	-0.052	-0.128
-248.019	-200.000	-0.023	0.235
-247.005	69.388	0.086	-0.088
-245.990	123.296	0.233	0.290
-244.976	-70.358	-0.145	-0.054
-243.961	393.783	-0.087	-0.179
-242.946	213.865	0.059	0.092
-241.932	54.232	0.094	0.090
-240.917	77.179	0.147	-0.155
-239.903	-200.000	-0.013	-0.213
-238.888	-67.258	0.345	0.135
-237.873	227.057	-0.076	-0.122
-236.859	43.761	0.370	0.335
-235.844	524.775	-0.088	-0.206
-234.830	-112.255	0.168	-0.033
-233.815	-27.014	-0.077	0.044
-232.800	125.953	-0.019	0.024
-231.786	-200.000	0.019	0.196
-230.771	800.000	0.116	0.371
-229.757	-37.908	0.374	0.197
-228.742	111.522	0.071	-0.084
-227.727	-146.932	0.272	0.023
-226.713	328.437	0.018	-0.033
-225.698	7.172	0.134	-0.099
-224.684	401.355	0.116	-0.242
-223.669	-58.436	0.248	-0.106
-222.655	800.000	-0.019	0.076
-221.640	-142.549	-0.267	0.026
-220.625	-35.972	-0.192	0.103
-219.611	72.650	-0.067	-0.070
-218.596	-87.125	-0.265	0.080
-217.582	146.739	0.214	-0.284
-216.567	60.850	0.091	0.089
-215.552	546.302	0.057	-0.135
-214.538	302.881	-0.113	-0.207
-213.523	-109.514	0.206	-0.043
-212.509	-37.300	-0.143	0.075
-211.494	-5.349	-0.090	0.061
-210.479	-2.467	0.163	-0.113
-209.465	237.727	-0.077	0.126
-208.450	65.768	0.160	0.160
-207.436	12.770	0.286	-0.218
-206.421	32.554	0.339	0.290
-205.406	286.250	-0.082	0.147
-204.392	-160.035	0.199	-0.011
-203.377	105.652	0.123	-0.144
-202.363	131.012	0.071	0.091
-201.348	137.924	-0.304	0.393
-200.333	163.431	0.247	0.344
-199.319	-200.000	-0.026	0.200
-198.304	-56.857	-0.253	0.111
-197.290	-200.000	-0.053	-0.385
-196.275	370.652	0.151	-0.303
-195.260	309.497	0.082	0.151
-194.246	125.163	0.105	-0.131
-193.231	114.743	0.140	-0.168
-192.217	51.785	0.056	-0.053
-191.202	800.000	0.048	-0.155
-190.187	332.996	-0.119	0.228
-189.173	61.232	-0.125	0.123
-188.158	-200.000	-0.405	0.000
-187.144	166.661	-0.167	0.233
-186.129	-91.363	-0.067	-0.019
-185.114	800.000	0.053	0.192
-184.100	-143.941	-0.170	0.016
-183.085	77.446	0.122	0.128
-182.071	59.717	-0.282	-0.275
-181.056	139.761	0.151	0.197
-180.042	-59.278	0.261	-0.111
-179.027	800.000	0.039	-0.152
-178.012	-200.000	-0.046	0.404
-176.998	-38.735	0.085	0.044
-175.983	-128.128	-0.265	0.037
-174.969	160.358	0.077	0.106
-173.954	71.197	-0.209	-0.214
-172.939	4.112	0.167	-0.121
-171.925	368.801	-0.105	-0.210
-170.910	-8.718	0.129	0.085
-169.896	-1.939	0.254	0.176
-168.881	-200.000	0.068	0.361
-167.866	51.712	0.024	-0.022
-166.852	-200.000	-0.019	0.303
-165.837	-64.318	-0.375	0.151
-164.823	10.316	-0.262	-0.197
-163.808	-115.165	-0.101	-0.019
-162.793	157.331	-0.119	-0.162
-161.779	-200.000	-0.016	-0.417
-160.764	40.520	0.088	0.078
-159.750	-128.110	-0.016	-0.002
-158.735	-200.000	0.021	0.149
-157.720	-12.111	-0.131	-0.084
-156.706	800.000	-0.059	-0.233
-155.691	-76.515	0.275	0.095
-154.677	-185.010	0.067	0.001
-153.662	335.553	0.122	-0.233
-152.647	94.154	0.133	0.148
-151.633	-200.000	-0.010	0.133
-150.618	-12.731	-0.372	-0.240
-149.604	-200.000	-0.029	0.197
-148.589	355.195	-0.166	0.325
-147.574	-114.999	-0.083	0.016
-146.560	-99.496	0.142	-0.035
-145.545	-125.901	0.199	-0.030
-144.531	-200.000	0.009	-0.110
-143.516	26.269	0.324	0.267
-142.502	423.486	-0.182	0.385
-141.487	-134.450	0.128	0.016
-140.472	-51.274	-0.076	0.035
-139.458	-200.000	-0.067	-0.446
-138.443	-22.704	0.332	0.198
-137.429	-135.881	-0.301	-0.035
-136.414	-200.000	0.079	0.360
-135.399	603.472	0.130	0.318
-134.385	-7.602	-0.087	-0.058
-133.370	-62.181	0.224	0.092
-132.356	309.243	0.039	-0.072
-131.341	-129.934	0.261	0.035
-130.326	67.567	-0.079	0.080
-129.312	-59.204	-0.184	-0.078
-128.297	29.065	0.199	-0.167
-127.283	800.000	-0.083	-0.251
-126.268	-123.536	0.292	-0.046
-125.253	-200.000	0.041	-0.300
-124.239	-43.050	-0.204	-0.102
-123.224	10.079	-0.360	0.269
-122.210	158.844	-0.144	0.197
-121.195	-133.383	0.093	-0.011
-120.180	-200.000	-0.025	0.249
-119.166	242.141	0.044	-0.073
-118.151	-146.374	0.394	-0.034
-117.137	449.995	-0.051	-0.112
-116.122	-152.039	-0.176	-0.013
-115.107	-57.557	-0.077	0.033
-114.093	-17.458	0.267	0.165
-113.078	-164.589	0.204	-0.009
-112.064	-81.044	0.268	-0.087
-111.049	-200.000	-0.010	0.188
-110.034	143.981	-0.202	-0.265
-109.020	101.048	-0.121	0.139
-108.005	-200.000	0.013	-0.163
-106.991	768.772	-0.029	-0.078
-105.976	-7.166	0.174	0.116
-104.962	-43.893	-0.365	0.181
-103.947	-0.645	-0.191	-0.133
-102.932	-9.195	-0.370	0.244
-101.918	-200.000	0.015	-0.260
-100.903	-200.000	-0.002	-0.164
-99.889	-38.579	-0.141	0.073
-98.874	800.000	-0.015	-0.044
-97.859	108.880	0.136	-0.160
-96.845	597.388	0.069	-0.168
-95.830	800.000	0.058	-0.199
-94.816	-200.000	0.084	-0.435
-93.801	32.266	-0.123	0.104
-92.786	-200.000	-0.011	0.092
-91.772	-200.000	-0.012	0.369
-90.757	-35.023	0.168	-0.090
-89.743	-20.019	-0.208	0.126
-88.728	-90.745	0.156	-0.044
-87.713	763.188	0.044	0.116
-86.699	800.000	0.051	0.161
-85.684	-132.661	0.263	-0.033
-84.670	-200.000	0.007	0.260
-83.655	-72.130	0.338	0.124
-82.640	-200.000	0.071	0.335
-81.626	800.000	0.045	-0.171
-80.611	800.000	0.038	-0.126
-79.597	-200.000	0.005	-0.077
-78.582	5.440	-0.102	-0.074
-77.567	-173.369	0.318	0.009
-76.553	-100.104	0.214	-0.052
-75.538	48.980	0.138	0.127
-74.524	70.815	-0.146	-0.148
-73.509	191.767	0.027	0.040
-72.494	147.416	-0.039	-0.051
-71.480	88.961	-0.217	0.237
-70.465	185.243	0.086	0.125
-69.451	-20.798	0.088	0.053
-68.436	-130.176	-0.029	-0.004
-67.422	-200.000	0.083	0.392
-66.407	-200.000	-0.005	-0.209
-65.392	-85.393	-0.258	-0.079
-64.378	-39.058	-0.323	-0.167
-63.363	-4.100	-0.242	-0.165
-62.349	-200.000	-0.007	0.325
-61.334	40.413	-1.013	-0.897
-60.319	531.961	0.336	0.781
-59.305	-200.000	0.013	-1.039
-58.290	71.143	0.543	0.554
-57.276	623.814	0.623	1.543
-56.261	-200.000	92.461	543.088
-55.246	535.845	1370.168	3196.495
-54.232	154.951	2570.948	3475.075
-53.217	111.915	2296.139	2726.405
-52.203	47.174	1916.769	1754.009
-51.188	40.740	1708.171	1514.211
-50.173	37.809	1663.724	1452.937
-49.159	54.624	1711.042	1621.673
-48.144	58.155	1728.661	1664.950
-47.130	40.438	1685.803	1491.872
-46.115	37.478	1670.911	1456.506
-45.100	37.277	1665.948	1450.620
-44.086	37.252	1663.380	1448.140
-43.071	37.180	1660.637	1445.155
-42.057	37.111	1658.459	1442.694
-41.042	37.161	1656.740	1441.512
-40.027	37.258	1654.814	1440.497
-39.013	37.108	1652.931	1437.691
-37.998	37.125	1651.371	1436.401
-36.984	37.256	1649.430	1435.622
-35.969	37.320	1647.862	1434.676
-34.954	37.341	1646.693	1433.754
-33.940	37.368	1644.706	1432.170
-32.925	37.325	1643.562	1430.796
-31.911	37.261	1641.715	1428.663
-30.896	37.310	1639.747	1427.254
-29.881	37.242	1638.087	1425.249
-28.867	37.385	1636.268	1424.659
-27.852	37.371	1634.937	1423.342
-26.838	37.428	1633.261	1422.243
-25.823	37.307	1632.334	1420.500
-24.809	37.317	1631.054	1419.397
-23.794	37.356	1629.230	1418.044
-22.779	37.214	1627.875	1415.768
-21.765	37.292	1626.292	1414.902
-20.750	37.307	1624.818	1413.672
-19.736	37.450	1623.165	1413.220
-18.721	37.410	1621.751	1411.644
-17.706	37.366	1620.456	1410.142
-16.692	37.406	1618.757	1408.898
-15.677	37.362	1617.073	1407.054
-14.663	37.357	1616.373	1406.354
-13.648	37.395	1614.762	1405.174
-12.633	37.346	1613.299	1403.493
-11.619	37.256	1612.086	1401.726
-10.604	37.246	1610.330	1400.078
-9.590	37.337	1608.695	1399.253
-8.575	37.307	1607.617	1398.047
-7.560	37.357	1606.455	1397.340
-6.546	37.318	1605.322	1396.017
-5.531	37.332	1604.323	1395.189
-4.517	37.379	1603.033	1394.350
-3.502	37.427	1601.772	1393.542
-2.487	37.465	1600.335	1392.512
-1.473	36.617	1587.396	1375.168
-0.458	32.304	1564.309	1324.811
0.556	24.446	1559.336	1275.498
1.571	20.875	1581.002	1267.184
2.586	19.829	1593.073	1269.077
3.600	18.118	1543.589	1217.373
4.615	13.265	1441.755	1104.607
5.629	8.617	1379.932	1027.362
6.644	7.542	1371.491	1014.125
7.659	7.451	1369.907	1012.283
8.673	7.380	1369.605	1011.520
9.688	7.268	1367.812	1009.394
10.702	7.204	1364.559	1006.496
11.717	9.334	1367.977	1022.484
12.731	14.204	1376.942	1060.188
13.746	17.225	1381.166	1082.624
14.761	16.889	1379.839	1079.353
15.775	15.942	1376.920	1070.955
16.790	14.850	1374.435	1061.991
17.804	14.105	1372.196	1055.439
18.819	13.537	1370.643	1050.552
19.834	13.374	1369.201	1048.321
20.848	13.088	1368.083	1045.561
21.863	12.904	1366.499	1043.091
22.877	12.649	1365.730	1040.804
23.892	12.745	1364.431	1040.324
24.907	12.707	1364.029	1039.688
25.921	12.670	1362.800	1038.427
26.936	12.844	1361.209	1038.220
27.950	12.746	1361.204	1037.503
28.965	12.757	1360.163	1036.687
29.980	12.896	1358.676	1036.338
30.994	12.904	1357.783	1035.616
32.009	13.020	1356.168	1035.018
33.023	12.992	1355.095	1033.934
34.038	12.994	1353.857	1032.910
35.053	12.787	1352.721	1030.660
36.067	12.857	1351.393	1029.994
37.082	12.840	1350.396	1029.033
38.096	12.809	1349.687	1028.210
39.111	12.959	1348.700	1028.300
40.126	12.828	1347.968	1026.837
41.140	12.681	1346.955	1025.057
42.155	12.569	1346.635	1024.027
43.169	12.571	1346.486	1023.837
44.184	12.613	1346.235	1023.816
45.199	12.569	1345.873	1023.175
46.213	12.797	1344.376	1023.366
47.228	12.898	1343.676	1023.368
48.242	12.815	1342.651	1021.980
49.257	12.733	1341.712	1020.670
50.271	12.785	1339.825	1019.464
51.286	12.934	1338.148	1019.019
52.301	12.791	1337.302	1017.398
53.315	12.770	1336.250	1016.384
54.330	12.676	1335.137	1014.867
55.344	12.668	1333.895	1013.782
56.359	12.673	1333.371	1013.325
57.374	12.642	1331.969	1011.981
58.388	12.655	1330.836	1011.109
59.403	12.608	1330.797	1010.699
60.417	12.607	1329.891	1009.916
61.432	12.535	1329.460	1009.058
62.447	12.553	1328.021	1007.987
63.461	12.584	1326.855	1007.201
64.476	12.529	1325.577	1005.810
65.490	12.459	1324.838	1004.728
66.505	12.520	1323.404	1003.927
67.520	12.536	1322.027	1002.892
68.534	12.593	1321.111	1002.451
69.549	12.536	1319.900	1001.099
70.563	12.622	1318.630	1000.573
71.578	12.541	1317.684	999.270
72.593	12.400	1316.842	997.692
73.607	12.395	1316.332	997.183
74.622	12.361	1315.860	996.533
75.636	12.415	1315.119	996.211
76.651	12.421	1314.242	995.491
77.666	12.463	1314.018	995.494
78.680	12.442	1313.427	994.827
79.695	12.506	1312.357	994.317
80.709	12.587	1311.666	994.191
81.724	12.615	1310.694	993.539
82.739	12.630	1309.675	992.772
83.753	12.651	1308.739	992.097
84.768	12.752	1308.167	992.185
85.782	12.842	1306.897	991.678
86.797	12.904	1305.525	990.920
87.812	12.755	1304.285	988.998
88.826	12.814	1302.921	988.231
89.841	12.667	1302.625	987.032
90.855	12.698	1301.673	986.414
91.870	12.734	1300.747	985.840
92.884	12.868	1299.593	985.677
93.899	12.754	1298.901	984.383
94.914	12.897	1298.125	984.563
95.928	12.945	1297.175	984.040
96.943	12.851	1296.301	982.730
97.957	12.807	1295.128	981.494
98.972	12.720	1294.608	980.494
99.987	12.900	1292.980	980.245
101.001	12.945	1291.831	979.552
102.016	12.831	1291.536	978.570
103.030	12.850	1290.683	977.946
104.045	12.927	1289.424	977.365
105.060	12.910	1287.758	975.915
106.074	12.626	1286.749	973.385
107.089	12.658	1285.660	972.663
108.103	12.665	1283.714	971.143
109.118	12.559	1283.027	969.915
110.133	12.637	1281.595	969.206
111.147	12.672	1280.113	968.205
112.162	12.609	1278.973	966.889
113.176	12.626	1278.069	966.214
114.191	12.699	1277.557	966.172
115.206	12.672	1275.886	964.665
116.220	12.651	1274.531	963.435
117.235	12.561	1274.390	962.714
118.249	12.656	1272.596	961.830
119.264	12.579	1271.526	960.484
120.279	12.579	1270.529	959.650
121.293	12.608	1269.759	959.149
122.308	12.581	1268.657	958.076
123.322	12.559	1267.675	957.121
124.337	12.492	1266.651	955.877
125.352	12.575	1265.027	955.049
126.366	12.543	1264.459	954.349
127.381	12.522	1263.387	953.334
128.395	12.537	1261.847	952.171
129.410	12.536	1261.298	951.668
130.424	12.680	1260.329	951.683
131.439	12.681	1259.326	950.846
132.454	12.765	1258.401	950.551
133.468	12.734	1257.108	949.309
134.483	12.655	1257.129	948.787
135.497	12.766	1255.761	948.312
136.512	12.794	1254.551	947.476
137.527	12.736	1252.618	945.596
138.541	12.791	1251.496	944.982
139.556	12.692	1250.266	943.404
140.570	12.784	1249.677	943.400
141.585	12.868	1248.337	942.788
142.600	12.878	1247.228	941.922
143.614	12.940	1245.806	941.122
144.629	12.916	1245.413	940.603
145.643	13.023	1243.827	939.930
146.658	12.700	1243.063	937.434
147.673	12.753	1241.526	936.491
148.687	12.626	1240.763	935.112
149.702	12.645	1239.087	933.875
150.716	12.740	1237.203	932.910
151.731	12.729	1236.100	931.933
152.746	12.873	1235.003	931.836
153.760	12.839	1234.102	930.882
154.775	12.821	1233.286	930.083
155.789	12.940	1231.911	929.633
156.804	12.818	1231.394	928.477
157.819	12.920	1230.089	927.982
158.833	13.038	1229.162	927.864
159.848	13.003	1228.446	927.046
160.862	12.971	1227.602	926.147
161.877	12.912	1226.201	924.675
162.892	12.892	1225.188	923.717
163.906	12.837	1224.388	922.727
164.921	12.814	1223.530	921.872
165.935	12.837	1222.623	921.234
166.950	12.903	1222.187	921.193
167.964	12.999	1221.058	920.796
168.979	12.944	1220.571	920.041
169.994	12.877	1219.887	919.072
171.008	12.990	1219.003	918.950
172.023	12.986	1218.258	918.287
173.037	13.008	1217.354	917.648
174.052	13.046	1216.548	917.167
175.067	13.006	1215.305	915.928
176.081	12.976	1214.073	914.751
177.096	13.009	1213.257	914.238
178.110	12.918	1212.450	913.048
179.125	13.043	1210.897	912.489
180.140	12.968	1210.404	911.622
181.154	13.079	1208.640	910.825
182.169	13.093	1207.697	910.112
183.183	13.187	1206.207	909.423
184.198	13.157	1204.959	908.236
185.213	13.258	1204.256	908.181
186.227	13.281	1203.043	907.313
187.242	13.278	1201.604	906.134
188.256	13.487	1200.860	906.635
189.271	13.264	1200.073	904.741
190.286	13.131	1199.136	903.227
191.300	12.986	1197.976	901.483
192.315	12.951	1197.097	900.547
193.329	13.055	1196.581	900.650
194.344	13.110	1195.938	900.382
195.359	13.122	1195.569	900.093
196.373	13.306	1194.504	900.214
197.388	13.265	1194.587	899.970
198.402	13.494	1193.802	900.545
199.417	13.292	1193.387	899.057
200.432	13.455	1192.384	899.103
201.446	13.461	1191.903	898.698
202.461	13.437	1190.935	897.759
203.475	13.607	1189.688	897.655
204.490	13.510	1188.856	896.425
205.504	13.397	1187.209	894.491
206.519	13.448	1186.202	893.929
207.534	13.435	1185.441	893.207
208.548	13.343	1184.345	891.807
209.563	13.413	1183.474	891.449
210.577	13.486	1182.755	891.222
211.592	13.474	1181.699	890.281
212.607	13.591	1180.888	890.224
213.621	13.536	1179.662	888.924
214.636	13.608	1179.043	888.764
215.650	13.694	1177.682	888.119
216.665	13.587	1177.138	887.061
217.680	13.660	1175.994	886.512
218.694	13.651	1175.706	886.165
219.709	13.565	1174.986	885.088
220.723	13.645	1174.236	884.871
221.738	13.623	1173.458	884.090
222.753	13.660	1172.545	883.518
223.767	13.641	1171.989	882.921
224.782	13.779	1171.447	883.168
225.796	13.819	1170.437	882.542
226.811	13.832	1169.787	882.045
227.826	13.850	1169.215	881.628
228.840	13.603	1168.510	879.709
229.855	13.650	1167.898	879.418
230.869	13.592	1167.177	878.491
231.884	13.644	1166.042	877.832
232.899	13.737	1165.245	877.646
233.913	13.731	1164.665	877.101
234.928	13.677	1164.197	876.386
235.942	13.744	1162.869	875.661
236.957	13.721	1162.237	874.990
237.972	13.599	1161.656	873.830
238.986	13.741	1160.750	873.819
240.001	13.747	1160.078	873.265
241.015	13.730	1159.427	872.611
242.030	13.824	1158.673	872.462
243.045	13.807	1158.023	871.806
244.059	13.745	1157.216	870.795
245.074	13.882	1156.241	870.702
246.088	13.910	1155.251	870.025
247.103	13.899	1154.538	869.357
248.117	13.984	1154.002	869.319
249.132	13.996	1153.560	868.970
250.147	14.091	1152.880	868.878
251.161	14.245	1152.249	869.131
252.176	14.264	1151.450	868.548
253.190	14.153	1151.013	867.565
254.205	14.221	1150.349	867.343
255.220	14.299	1149.600	867.108
256.234	14.259	1149.039	866.400
257.249	14.376	1148.412	866.460
258.263	14.337	1147.773	865.696
259.278	14.422	1147.054	865.518
260.293	14.267	1146.809	864.455
261.307	14.414	1146.323	864.775
262.322	14.375	1145.452	863.835
263.336	14.471	1144.191	863.305
264.351	14.433	1143.959	862.860
265.366	14.412	1143.365	862.227
266.380	14.504	1142.481	861.958
267.395	14.444	1141.609	860.916
268.409	14.388	1141.208	860.249
269.424	14.265	1140.846	859.262
270.439	14.395	1139.697	858.990
271.453	14.365	1139.047	858.270
272.468	14.388	1137.865	857.422
273.482	14.443	1137.455	857.324
274.497	14.488	1136.745	856.944
275.512	14.510	1135.878	856.323
276.526	14.368	1135.578	855.294
277.541	14.423	1134.757	854.883
278.555	14.513	1134.250	854.886
279.570	14.622	1133.476	854.784
280.585	14.598	1132.654	853.969
281.599	14.725	1131.075	853.351
282.614	14.565	1130.769	852.224
283.628	14.551	1129.662	851.247
284.643	14.594	1128.413	850.448
285.657	14.551	1127.941	849.799
286.672	14.672	1126.682	849.391
287.687	14.710	1125.682	848.753
288.701	14.681	1125.329	848.264
289.716	14.662	1124.436	847.422
290.730	14.702	1123.896	847.141
291.745	14.738	1123.422	846.890
292.760	14.745	1122.862	846.429
293.774	14.782	1122.025	845.912
294.789	14.898	1121.447	845.986
295.803	14.802	1120.764	844.912
296.818	14.750	1119.932	843.949
297.833	14.751	1119.391	843.470
298.847	14.844	1118.285	843.030
299.862	14.780	1117.647	842.154
300.876	14.759	1117.536	841.891
301.891	14.833	1116.689	841.548
302.906	14.817	1115.767	840.702
303.920	14.939	1114.970	840.639
304.935	15.021	1114.374	840.524
305.949	14.995	1114.060	840.085
306.964	14.947	1113.279	839.182
307.979	15.022	1112.416	838.833
308.993	15.099	1111.228	838.245
310.008	15.127	1110.797	837.988
311.022	15.054	1110.102	837.022
312.037	15.194	1108.679	836.575
313.052	15.135	1108.081	835.757
314.066	14.993	1107.274	834.364
315.081	15.041	1106.699	834.098
316.095	14.949	1106.289	833.256
317.110	15.019	1104.981	832.546
318.125	15.013	1104.258	831.899
319.139	14.998	1103.683	831.317
320.154	15.001	1102.958	830.713
321.168	15.040	1102.577	830.543
322.183	15.032	1101.741	829.801
323.197	15.104	1101.047	829.564
324.212	15.092	1100.755	829.210
325.227	15.078	1100.138	828.603
326.241	15.110	1099.360	828.100
327.256	15.048	1098.855	827.341
328.270	15.044	1097.614	826.313
329.285	15.143	1096.640	825.998
330.300	15.237	1095.544	825.559
331.314	15.113	1094.727	824.260
332.329	15.230	1093.844	824.099
333.343	15.212	1092.846	823.184
334.358	15.307	1091.969	822.921
335.373	15.248	1091.733	822.377
336.387	15.234	1091.111	821.766
337.402	15.256	1090.281	821.179
338.416	15.244	1089.725	820.630
339.431	15.403	1088.419	820.347
340.446	15.414	1087.874	819.919
341.460	15.468	1087.515	819.842
342.475	15.377	1086.484	818.548
343.489	15.446	1085.810	818.301
344.504	15.548	1084.803	817.969
345.519	15.607	1083.787	817.418
346.533	15.662	1082.931	816.966
347.548	15.644	1082.496	816.478
348.562	15.619	1081.942	815.865
349.577	15.613	1080.872	814.960
350.592	15.496	1079.951	813.627
351.606	15.551	1079.098	813.176
352.621	15.502	1078.428	812.363
353.635	15.550	1077.791	812.046
354.650	15.462	1077.317	811.189
355.665	15.538	1076.217	810.658
356.679	15.557	1075.563	810.185
357.694	15.605	1075.360	810.191
358.708	15.614	1074.826	809.762
359.723	15.781	1073.828	809.738
360.738	15.556	1073.286	808.177
361.752	15.670	1072.635	808.161
362.767	15.676	1072.360	807.914
363.781	15.702	1071.489	807.309
364.796	15.739	1071.137	807.152
365.810	15.735	1070.758	806.774
366.825	15.924	1069.778	806.873
367.840	15.904	1069.458	806.462
368.854	16.006	1068.674	806.289
369.869	15.965	1068.338	805.765
370.883	15.927	1067.160	804.628
371.898	16.001	1066.092	804.103
372.913	15.953	1065.943	803.690
373.927	15.870	1065.396	802.809
374.942	15.990	1064.683	802.772
375.956	15.973	1064.177	802.241
376.971	16.073	1063.963	802.484
377.986	16.023	1063.364	801.722
379.000	16.115	1062.712	801.600
380.015	16.017	1062.474	800.884
381.029	16.127	1061.423	800.543
382.044	16.175	1060.590	800.071
383.059	16.265	1059.657	799.721
384.073	16.184	1058.758	798.590
385.088	16.136	1058.308	797.951
386.102	16.201	1057.359	797.475
387.117	16.226	1056.093	796.564
388.132	16.120	1055.411	795.483
389.146	16.126	1054.682	794.891
390.161	15.963	1054.022	793.554
391.175	16.224	1053.035	793.967
392.190	16.116	1052.677	793.118
393.205	16.129	1052.170	792.732
394.219	16.177	1051.200	792.156
395.234	16.312	1050.341	792.069
396.248	16.252	1049.340	790.964
397.263	16.241	1048.382	790.120
398.278	16.130	1047.547	788.903
399.292	16.090	1047.240	788.414
400.307	16.117	1046.296	787.759
401.321	16.160	1045.683	787.431
402.336	16.104	1045.119	786.673
403.350	16.238	1044.208	786.543
404.365	16.256	1043.155	785.765
405.380	16.297	1042.944	785.728
406.394	16.332	1042.018	785.123
407.409	16.275	1041.444	784.355
408.423	16.441	1040.522	784.360
409.438	16.447	1039.913	783.860
410.453	16.510	1039.363	783.669
411.467	16.503	1038.707	783.074
412.482	16.409	1038.415	782.349
413.496	16.547	1037.348	782.113
414.511	16.710	1036.857	782.424
415.526	16.753	1036.334	782.163
416.540	16.657	1036.128	781.495
417.555	16.612	1035.449	780.705
418.569	16.620	1034.855	780.226
419.584	16.645	1034.434	779.953
420.599	16.710	1033.866	779.754
421.613	95.971	1310.160	1427.008
422.628	87.895	1350.401	1427.142
