DTS Sentinel unit serial number:	SN413079Multiplexer serial number:	ORYXHardware model number:	OX4-SRSoftware version number:	ORYX F/W v4.00 Oryx Data Collector v3.7.2.0data status	okinstallation	princeton_trtdifferential loss correction	single-endedforward channel	channel 2reverse channel	N/Adate	2019/09/18time	21:55:35forward acquisition time	60.00reverse acquisition time	0.00gamma	496.2192k internal	0.2347k external	0.2347temperature offset calibration	1.0019default loss term (dB/km)	0.3790temperature slope calibration	1.0000multiplexer offset coefficient	1.0000multiplexer slope coefficient	1.0000fibre end	0.00T internal ref (°C)	24.67T ext. ref 1 (°C)	0.81T ext. ref 2 (°C)	18.25length (m)	temperature (°C)	Stokes	anti-Stokes-747.200	-43.148	-0.176	0.089
-746.185	-25.313	0.228	0.135
-745.171	-138.127	0.206	-0.023
-744.156	800.000	0.089	0.286
-743.142	-127.347	-0.218	0.032
-742.127	40.318	-0.431	0.388
-741.112	-200.000	-0.018	0.126
-740.098	-88.093	0.205	0.061
-739.083	-200.000	-0.067	-0.463
-738.069	676.653	-0.154	0.401
-737.054	-200.000	0.020	0.339
-736.039	-155.016	-0.523	-0.034
-735.025	-200.000	0.013	0.129
-734.010	184.813	-0.141	-0.209
-732.996	-25.108	0.143	-0.085
-731.981	-76.252	-0.212	-0.075
-730.966	-200.000	0.062	-0.355
-729.952	-117.935	-0.298	0.053
-728.937	62.889	0.049	0.049
-727.923	-200.000	-0.015	0.360
-726.908	547.460	0.093	-0.223
-725.894	-33.322	-0.102	-0.056
-724.879	113.363	0.178	-0.216
-723.864	-200.000	-0.058	0.323
-722.850	-147.531	0.309	-0.026
-721.835	-69.541	0.077	0.029
-720.821	-200.000	0.035	0.296
-719.806	-14.630	-0.389	-0.250
-718.791	-200.000	0.014	-0.156
-717.777	-29.803	-0.096	0.055
-716.762	-199.631	-0.211	-0.001
-715.748	100.291	0.200	-0.232
-714.733	800.000	0.095	0.367
-713.718	-200.000	-0.019	-0.096
-712.704	31.131	-0.028	-0.024
-711.689	-200.000	-0.047	-0.400
-710.675	432.111	-0.020	0.044
-709.660	165.395	-0.220	-0.311
-708.645	199.568	0.053	0.081
-707.631	139.316	-0.182	-0.239
-706.616	155.249	-0.339	-0.465
-705.602	197.628	0.049	-0.075
-704.587	125.051	0.144	0.182
-703.572	-65.077	0.171	-0.069
-702.558	511.438	-0.039	0.090
-701.543	800.000	0.085	-0.297
-700.529	22.241	-0.172	-0.140
-699.514	-200.000	0.012	0.263
-698.499	9.225	-0.229	-0.172
-697.485	253.298	0.062	-0.106
-696.470	87.562	0.059	0.066
-695.456	-110.679	-0.100	-0.021
-694.441	-200.000	-0.050	-0.376
-693.426	-138.878	0.173	-0.019
-692.412	-144.530	-0.196	0.018
-691.397	402.274	0.081	0.169
-690.383	-83.749	-0.096	-0.030
-689.368	119.077	-0.142	-0.176
-688.354	530.917	0.164	-0.386
-687.339	-51.681	-0.442	0.206
-686.324	-172.426	-0.128	-0.004
-685.310	-200.000	-0.033	0.159
-684.295	-200.000	0.036	-0.181
-683.281	546.252	0.117	-0.279
-682.266	272.573	-0.153	0.269
-681.251	239.714	0.147	0.244
-680.237	800.000	0.073	-0.211
-679.222	-47.923	0.130	-0.063
-678.208	295.730	-0.042	0.077
-677.193	217.926	-0.070	-0.111
-676.178	536.732	0.173	0.410
-675.164	-167.133	-0.302	-0.012
-674.149	291.172	0.116	-0.210
-673.135	104.552	-0.172	-0.202
-672.120	23.369	0.187	-0.153
-671.105	184.734	0.115	-0.171
-670.091	83.411	-0.178	-0.193
-669.076	67.141	0.101	-0.102
-668.062	-51.391	0.247	0.115
-667.047	-200.000	0.000	0.030
-666.032	-200.000	0.040	0.191
-665.018	160.294	-0.107	0.149
-664.003	800.000	0.029	0.084
-662.989	-38.425	0.343	0.181
-661.974	-79.283	-0.239	-0.081
-660.959	169.135	0.111	0.158
-659.945	-106.446	-0.353	0.079
-658.930	276.659	-0.147	0.260
-657.916	14.136	-0.121	-0.094
-656.901	-138.020	0.209	-0.023
-655.886	-98.690	0.429	0.109
-654.872	-101.134	-0.018	0.004
-653.857	800.000	-0.065	-0.228
-652.843	212.125	-0.051	-0.080
-651.828	-114.196	-0.243	-0.047
-650.814	382.761	0.053	-0.109
-649.799	-69.921	-0.468	0.178
-648.784	-175.140	0.433	0.012
-647.770	378.993	-0.047	0.097
-646.755	800.000	-0.033	0.105
-645.741	-113.217	-0.235	0.046
-644.726	-108.563	-0.199	0.043
-643.711	316.466	-0.091	-0.170
-642.697	800.000	0.041	0.163
-641.682	-200.000	-0.108	-0.485
-640.668	-91.348	-0.312	-0.089
-639.653	388.068	-0.066	0.136
-638.638	-200.000	0.014	0.101
-637.624	-9.292	0.333	-0.222
-636.609	75.704	0.221	-0.232
-635.595	-87.644	-0.126	-0.038
-634.580	-63.274	-0.275	-0.113
-633.565	-200.000	-0.000	-0.142
-632.551	69.123	-0.097	-0.099
-631.536	49.649	0.223	0.209
-630.522	-123.309	-0.156	0.025
-629.507	-26.494	0.141	-0.082
-628.492	800.000	0.051	-0.141
-627.478	800.000	-0.072	0.204
-626.463	432.853	0.112	-0.243
-625.449	83.252	0.221	0.239
-624.434	-200.000	-0.005	-0.120
-623.419	12.552	0.389	-0.299
-622.405	-151.479	-0.395	0.029
-621.390	145.735	-0.182	-0.243
-620.376	-200.000	0.005	-0.024
-619.361	600.524	-0.128	-0.316
-618.346	377.142	0.103	-0.210
-617.332	-200.000	-0.010	0.095
-616.317	-32.628	-0.084	0.047
-615.303	63.659	0.223	0.222
-614.288	124.618	-0.135	0.169
-613.273	-51.938	-0.193	0.089
-612.259	-70.276	0.255	-0.096
-611.244	-69.159	-0.306	0.117
-610.230	497.898	-0.192	0.439
-609.215	145.359	0.263	0.350
-608.201	43.430	0.102	0.093
-607.186	-68.600	0.255	0.098
-606.171	425.944	-0.120	-0.257
-605.157	-200.000	-0.075	-0.402
-604.142	276.589	0.142	0.252
-603.128	529.029	-0.186	-0.436
-602.113	-101.681	-0.199	-0.048
-601.098	800.000	0.056	-0.159
-600.084	-200.000	0.045	-0.361
-599.069	-11.105	-0.099	-0.065
-598.055	-111.302	-0.427	-0.087
-597.040	-160.695	0.082	-0.004
-596.025	44.745	0.085	0.077
-595.011	-200.000	0.020	-0.232
-593.996	-200.000	-0.000	-0.039
-592.982	-200.000	0.002	0.202
-591.967	253.796	0.035	-0.060
-590.952	-76.934	-0.074	-0.026
-589.938	7.929	0.183	-0.137
-588.923	345.157	0.077	-0.150
-587.909	-25.359	0.109	-0.064
-586.894	800.000	-0.070	0.263
-585.879	118.736	0.165	-0.202
-584.865	117.281	-0.064	-0.078
-583.850	178.931	-0.199	-0.289
-582.836	-87.854	0.108	0.032
-581.821	378.477	0.066	0.135
-580.806	800.000	0.146	-0.483
-579.792	-108.374	0.137	0.029
-578.777	-57.679	-0.409	0.178
-577.763	-114.217	0.149	-0.029
-576.748	-46.763	-0.184	0.090
-575.733	86.530	0.123	-0.135
-574.719	95.783	-0.044	0.050
-573.704	-14.264	-0.468	-0.299
-572.690	-200.000	-0.025	-0.144
-571.675	230.498	0.202	0.328
-570.661	407.445	-0.037	0.077
-569.646	-89.238	-0.210	-0.062
-568.631	-18.027	-0.118	-0.073
-567.617	-22.809	0.068	-0.041
-566.602	144.005	-0.157	0.208
-565.588	42.388	-0.187	-0.169
-564.573	233.481	0.179	0.293
-563.558	-200.000	0.014	-0.138
-562.544	800.000	0.090	-0.271
-561.529	64.472	-0.062	-0.062
-560.515	-80.064	0.346	0.115
-559.500	-200.000	-0.272	0.000
-558.485	800.000	-0.079	0.232
-557.471	-154.461	-0.017	-0.001
-556.456	-59.786	0.087	-0.037
-555.442	800.000	-0.017	-0.061
-554.427	683.357	-0.064	0.165
-553.412	695.708	0.153	0.399
-552.398	-200.000	-0.043	-0.193
-551.383	-200.000	-0.101	0.454
-550.369	275.944	-0.142	0.250
-549.354	166.061	0.193	-0.271
-548.339	491.564	0.062	-0.141
-547.325	308.389	-0.115	-0.213
-546.310	-200.000	0.028	0.171
-545.296	374.796	-0.187	0.379
-544.281	91.261	0.090	-0.100
-543.266	-52.988	-0.385	-0.176
-542.252	154.872	-0.106	0.144
-541.237	432.643	0.261	0.561
-540.223	-84.529	0.281	-0.088
-539.208	800.000	0.086	-0.295
-538.193	-53.795	-0.146	-0.066
-537.179	-72.344	0.219	0.080
-536.164	696.150	-0.061	0.160
-535.150	61.608	0.112	-0.111
-534.135	6.149	-0.145	0.106
-533.121	-200.000	0.011	0.146
-532.106	177.335	0.135	0.195
-531.091	-31.822	-0.114	-0.063
-530.077	-200.000	0.001	-0.083
-529.062	-35.963	-0.383	0.205
-528.048	-200.000	0.026	-0.431
-527.033	-83.481	0.273	-0.087
-526.018	172.061	-0.035	0.051
-525.004	800.000	-0.058	-0.186
-523.989	-126.404	0.103	0.015
-522.975	57.173	-0.137	0.132
-521.960	-27.676	0.282	0.162
-520.945	93.700	-0.079	0.089
-519.931	-200.000	0.009	-0.161
-518.916	232.367	-0.048	-0.078
-517.902	21.386	-0.158	-0.127
-516.887	800.000	0.056	-0.232
-515.872	-53.811	-0.241	-0.109
-514.858	-115.042	0.525	-0.099
-513.843	305.813	0.074	-0.135
-512.829	-200.000	0.029	-0.243
-511.814	-200.000	0.014	-0.388
-510.799	-125.087	-0.029	-0.004
-509.785	-19.063	0.213	0.131
-508.770	628.423	-0.054	-0.134
-507.756	-118.691	-0.190	-0.033
-506.741	800.000	0.090	0.363
-505.726	-200.000	-0.292	-0.001
-504.712	-181.109	0.252	0.005
-503.697	-98.943	-0.156	0.039
-502.683	-53.900	0.039	0.017
-501.668	13.198	-0.150	0.115
-500.653	53.717	0.189	0.180
-499.639	517.570	-0.035	-0.081
-498.624	-200.000	-0.027	0.140
-497.610	-177.410	0.069	-0.002
-496.595	-115.027	0.302	-0.057
-495.581	172.371	0.110	0.157
-494.566	122.608	0.302	-0.374
-493.551	-50.763	-0.365	0.170
-492.537	225.366	0.067	0.107
-491.522	-1.354	-0.023	0.016
-490.508	-60.375	-0.065	-0.028
-489.493	-32.136	0.128	0.071
-488.478	-105.467	-0.294	-0.066
-487.464	800.000	0.105	0.345
-486.449	95.679	0.046	0.052
-485.435	-200.000	0.073	-0.367
-484.420	-106.286	-0.111	0.025
-483.405	-93.970	0.312	-0.085
-482.391	-200.000	0.072	0.365
-481.376	330.273	0.134	-0.256
-480.362	-77.223	-0.134	-0.046
-479.347	-67.875	0.407	0.157
-478.332	233.575	-0.294	-0.478
-477.318	-83.377	-0.217	0.069
-476.303	-200.000	0.003	0.141
-475.289	-200.000	-0.020	-0.146
-474.274	-25.840	0.176	0.103
-473.259	-0.918	0.297	-0.208
-472.245	-59.900	-0.112	0.047
-471.230	-58.949	0.348	0.149
-470.216	800.000	0.125	0.430
-469.201	323.150	-0.125	-0.236
-468.186	800.000	-0.060	0.194
-467.172	-51.206	-0.340	0.157
-466.157	-200.000	0.005	0.035
-465.143	617.322	-0.018	0.044
-464.128	-29.805	-0.159	-0.090
-463.113	800.000	0.023	-0.096
-462.099	-39.186	-0.051	-0.027
-461.084	-56.874	0.119	0.052
-460.070	524.665	0.185	-0.430
-459.055	-200.000	0.008	0.170
-458.040	-200.000	-0.022	0.162
-457.026	-200.000	-0.054	0.234
-456.011	9.806	-0.351	-0.263
-454.997	461.396	0.020	-0.044
-453.982	197.886	-0.141	0.213
-452.968	155.146	0.171	0.233
-451.953	257.047	0.028	-0.048
-450.938	338.828	0.188	0.362
-449.924	800.000	-0.111	-0.346
-448.909	35.430	-0.255	-0.221
-447.895	6.259	0.167	0.122
-446.880	-128.513	-0.284	-0.040
-445.865	25.025	0.228	0.187
-444.851	299.270	-0.078	0.141
-443.836	341.561	0.128	-0.248
-442.822	264.869	-0.106	-0.182
-441.807	-136.269	0.427	0.049
-440.792	189.407	0.196	-0.290
-439.778	124.618	0.320	0.398
-438.763	-170.948	0.133	-0.004
-437.749	379.943	-0.121	-0.244
-436.734	800.000	0.148	-0.408
-435.719	-109.751	0.188	-0.039
-434.705	800.000	-0.065	0.200
-433.690	39.148	0.132	-0.117
-432.676	448.274	0.098	-0.213
-431.661	-128.296	-0.042	0.006
-430.646	-49.848	0.241	-0.113
-429.632	-200.000	-0.013	0.069
-428.617	176.343	-0.147	0.210
-427.603	-200.000	0.001	-0.227
-426.588	-72.060	-0.210	0.077
-425.573	-179.651	0.329	0.007
-424.559	512.072	-0.137	-0.316
-423.544	-56.103	0.215	-0.094
-422.530	-200.000	-0.013	-0.222
-421.515	800.000	-0.112	0.398
-420.500	-128.398	0.116	-0.016
-419.486	-67.688	0.040	-0.015
-418.471	-38.417	0.240	0.125
-417.457	-100.578	-0.167	-0.041
-416.442	-73.365	-0.374	0.135
-415.428	-134.334	0.168	0.020
-414.413	-19.646	-0.146	0.089
-413.398	-167.116	0.168	-0.007
-412.384	-35.399	0.181	0.097
-411.369	13.130	-0.119	-0.091
-410.355	103.487	-0.185	-0.214
-409.340	467.153	-0.164	0.362
-408.325	-90.286	0.335	0.096
-407.311	225.504	0.094	0.149
-406.296	-71.768	-0.090	-0.033
-405.282	57.859	0.149	0.144
-404.267	-0.151	0.227	0.159
-403.252	-20.674	0.132	0.080
-402.238	-200.000	0.086	0.439
-401.223	-153.568	-0.325	-0.022
-400.209	329.822	0.086	-0.163
-399.194	-18.195	-0.033	0.020
-398.179	61.150	-0.196	0.192
-397.165	-200.000	0.012	0.180
-396.150	-109.253	0.234	0.049
-395.136	43.435	-0.183	-0.165
-394.121	147.684	0.067	-0.088
-393.106	525.382	-0.104	0.240
-392.092	-200.000	-0.060	0.328
-391.077	89.511	0.022	0.025
-390.063	-19.393	0.037	-0.023
-389.048	-111.235	-0.088	-0.018
-388.033	424.235	-0.103	0.218
-387.019	-55.486	0.261	0.115
-386.004	153.284	0.203	0.274
-384.990	4.802	0.379	0.274
-383.975	-7.896	0.146	-0.097
-382.960	23.539	0.166	0.135
-381.946	-24.242	0.172	-0.101
-380.931	66.520	0.064	-0.064
-379.917	159.484	-0.139	0.190
-378.902	-200.000	0.018	-0.526
-377.888	386.871	0.067	0.136
-376.873	-106.888	0.613	0.134
-375.858	-29.744	0.361	-0.203
-374.844	42.059	-0.109	-0.098
-373.829	-23.837	0.260	-0.153
-372.815	-10.526	-0.276	-0.180
-371.800	-200.000	0.065	-0.313
-370.785	-49.319	0.330	-0.155
-369.771	516.035	-0.052	-0.119
-368.756	23.557	-0.308	-0.250
-367.742	-200.000	-0.035	-0.237
-366.727	-200.000	-0.016	0.096
-365.712	100.366	0.105	-0.120
-364.698	800.000	-0.011	-0.045
-363.683	292.482	-0.148	-0.266
-362.669	-39.217	-0.195	-0.101
-361.654	174.838	0.114	0.163
-360.639	-200.000	0.006	-0.242
-359.625	522.135	-0.080	-0.186
-358.610	-88.554	0.058	0.017
-357.596	-13.168	-0.107	-0.068
-356.581	365.727	-0.084	0.168
-355.566	15.570	0.148	0.114
-354.552	263.351	0.012	0.021
-353.537	76.178	0.153	-0.160
-352.523	-200.000	-0.057	-0.263
-351.508	62.080	-0.015	-0.015
-350.493	-121.961	0.235	0.038
-349.479	800.000	0.016	-0.049
-348.464	280.554	-0.063	-0.111
-347.450	504.926	0.065	0.148
-346.435	103.861	-0.207	-0.239
-345.420	203.850	-0.072	0.110
-344.406	120.154	0.066	-0.080
-343.391	373.157	0.016	0.032
-342.377	-121.997	0.076	-0.012
-341.362	-183.962	0.299	-0.005
-340.348	78.366	0.084	-0.088
-339.333	-161.021	0.153	-0.008
-338.318	-88.926	0.260	-0.076
-337.304	-153.984	-0.254	0.017
-336.289	-139.495	-0.243	0.026
-335.275	-89.306	-0.246	0.071
-334.260	-5.414	-0.279	0.188
-333.245	-24.040	-0.202	0.119
-332.231	-109.137	-0.170	-0.036
-331.216	-200.000	-0.004	0.170
-330.202	-26.839	-0.156	-0.090
-329.187	60.731	-0.173	0.169
-328.172	-93.506	-0.292	0.079
-327.158	-99.876	-0.260	0.064
-326.143	-200.000	-0.013	-0.235
-325.129	800.000	-0.005	-0.019
-324.114	-4.064	0.082	0.056
-323.099	119.466	-0.140	0.171
-322.085	292.352	-0.131	0.234
-321.070	-200.000	0.012	0.066
-320.056	138.581	-0.157	-0.202
-319.041	-187.507	0.241	-0.003
-318.026	-33.562	0.111	-0.060
-317.012	50.332	-0.266	0.247
-315.997	-6.646	0.052	0.035
-314.983	407.970	-0.138	-0.287
-313.968	92.861	0.183	-0.203
-312.953	-177.743	0.121	-0.003
-311.939	24.219	0.302	-0.245
-310.924	67.566	0.144	-0.144
-309.910	52.763	-0.112	0.105
-308.895	471.997	-0.096	-0.213
-307.880	354.221	0.117	0.227
-306.866	-7.592	0.264	-0.176
-305.851	144.627	0.405	0.531
-304.837	-200.000	0.055	0.251
-303.822	800.000	-0.046	-0.156
-302.807	-169.729	0.287	0.010
-301.793	-47.283	-0.176	0.084
-300.778	245.028	-0.205	-0.339
-299.764	800.000	-0.134	0.401
-298.749	-41.937	0.287	0.144
-297.735	8.244	0.068	-0.050
-296.720	475.298	0.024	-0.054
-295.705	-94.977	-0.224	-0.059
-294.691	88.182	-0.156	0.170
-293.676	67.754	-0.121	-0.121
-292.662	-23.639	-0.094	-0.055
-291.647	475.353	0.126	0.279
-290.632	800.000	-0.037	-0.140
-289.618	-200.000	-0.075	-0.385
-288.603	60.717	0.200	0.194
-287.589	-151.881	-0.189	0.014
-286.574	-200.000	-0.010	0.076
-285.559	-31.742	-0.298	0.164
-284.545	-125.567	0.069	-0.010
-283.530	351.263	-0.169	0.329
-282.516	680.624	-0.045	0.116
-281.501	186.640	-0.142	-0.208
-280.486	-200.000	0.030	-0.146
-279.472	291.798	-0.010	-0.018
-278.457	144.339	-0.170	0.222
-277.443	-102.453	0.397	0.093
-276.428	103.579	-0.155	-0.179
-275.413	-42.748	0.031	0.016
-274.399	278.695	0.125	-0.219
-273.384	36.577	-0.203	0.176
-272.370	42.716	-0.194	-0.173
-271.355	-200.000	-0.006	0.034
-270.340	352.880	-0.082	-0.161
-269.326	367.738	-0.100	0.198
-268.311	-0.408	0.048	-0.033
-267.297	183.596	0.112	0.162
-266.282	103.271	-0.050	-0.058
-265.267	800.000	0.055	0.233
-264.253	-200.000	0.013	-0.322
-263.238	-46.107	0.083	-0.040
-262.224	-200.000	0.223	0.000
-261.209	-30.739	-0.455	-0.252
-260.195	800.000	-0.116	0.349
-259.180	-141.099	-0.354	0.036
-258.165	-80.614	0.130	-0.042
-257.151	167.214	-0.214	0.297
-256.136	-89.768	-0.074	-0.021
-255.122	-47.610	-0.192	0.091
-254.107	-52.208	-0.235	-0.107
-253.092	-200.000	-0.055	-0.312
-252.078	367.059	0.221	-0.438
-251.063	-18.912	0.156	-0.095
-250.049	-200.000	-0.003	-0.150
-249.034	-101.642	-0.304	-0.072
-248.019	358.520	0.121	-0.238
-247.005	-200.000	-0.007	-0.195
-245.990	66.854	0.186	-0.186
-244.976	309.225	0.154	0.282
-243.961	-86.717	-0.255	-0.076
-242.946	-124.088	0.228	0.035
-241.932	-24.056	-0.052	0.031
-240.917	-60.516	0.129	-0.054
-239.903	321.269	0.028	0.052
-238.888	-145.603	0.503	0.044
-237.873	-200.000	0.027	-0.146
-236.859	30.348	-0.105	0.088
-235.844	60.335	0.100	-0.097
-234.830	198.260	0.182	-0.273
-233.815	86.908	-0.172	-0.186
-232.800	800.000	-0.038	0.134
-231.786	800.000	-0.110	0.396
-230.771	-81.054	0.341	0.110
-229.757	-200.000	0.021	0.237
-228.742	-54.710	0.301	0.133
-227.727	800.000	-0.081	0.239
-226.713	-45.023	-0.157	-0.077
-225.698	6.747	0.168	0.122
-224.684	800.000	-0.078	-0.255
-223.669	42.377	0.098	0.087
-222.655	705.003	0.075	0.193
-221.640	-120.206	-0.178	-0.030
-220.625	59.287	-0.196	-0.189
-219.611	-200.000	-0.089	0.474
-218.596	324.324	-0.045	-0.084
-217.582	-8.136	0.356	-0.235
-216.567	-77.381	-0.265	0.090
-215.552	91.006	-0.187	0.205
-214.538	-135.193	-0.071	0.008
-213.523	5.305	0.170	0.122
-212.509	254.251	0.145	0.243
-211.494	800.000	-0.173	-0.469
-210.479	437.647	0.161	-0.343
-209.465	-106.488	-0.189	-0.041
-208.450	91.463	-0.058	0.064
-207.436	-82.067	0.364	0.116
-206.421	-200.000	0.036	0.238
-205.406	476.484	0.090	0.200
-204.392	-200.000	-0.001	-0.123
-203.377	800.000	-0.044	0.159
-202.363	-168.257	0.072	-0.003
-201.348	717.175	-0.048	0.125
-200.333	-92.363	0.052	0.014
-199.319	97.701	0.077	-0.086
-198.304	-200.000	-0.017	0.387
-197.290	-152.242	-0.112	-0.008
-196.275	364.568	0.131	0.258
-195.260	400.194	-0.125	0.257
-194.246	60.435	0.292	-0.283
-193.231	-3.401	-0.102	-0.069
-192.217	105.795	0.145	0.168
-191.202	244.227	-0.106	0.174
-190.187	-9.746	-0.290	-0.189
-189.173	-200.000	-0.047	0.436
-188.158	-118.244	-0.081	0.014
-187.144	27.910	-0.277	-0.228
-186.129	-103.887	0.141	0.032
-185.114	10.716	0.145	0.108
-184.100	2.606	0.286	0.203
-183.085	77.248	0.120	0.124
-182.071	800.000	0.033	-0.092
-181.056	-13.855	0.171	0.108
-180.042	-98.480	-0.133	-0.033
-179.027	-135.524	0.214	-0.025
-178.012	-92.746	-0.218	-0.060
-176.998	58.246	0.079	0.075
-175.983	528.409	0.132	0.305
-174.969	161.649	-0.090	-0.123
-173.954	-53.725	-0.134	0.060
-172.939	-82.441	-0.240	0.076
-171.925	-44.354	0.053	0.026
-170.910	-39.209	-0.206	0.106
-169.896	313.707	-0.088	-0.163
-168.881	-200.000	-0.009	-0.128
-167.866	151.474	-0.200	-0.267
-166.852	120.480	0.217	0.264
-165.837	14.954	-0.178	0.136
-164.823	327.711	-0.049	0.092
-163.808	634.776	0.083	0.205
-162.793	-33.235	-0.192	-0.104
-161.779	-79.433	0.226	-0.075
-160.764	800.000	-0.060	0.229
-159.750	177.257	-0.083	-0.117
-158.735	353.957	-0.071	0.138
-157.720	-200.000	0.024	-0.240
-156.706	-174.609	-0.446	0.012
-155.691	-200.000	-0.053	0.293
-154.677	243.542	-0.057	-0.093
-153.662	-103.513	-0.098	-0.022
-152.647	-200.000	-0.025	-0.185
-151.633	-17.927	-0.323	-0.197
-150.618	29.849	-0.314	0.261
-149.604	-118.207	-0.102	-0.018
-148.589	-200.000	0.017	-0.169
-147.574	-39.284	-0.287	0.147
-146.560	-90.362	0.236	0.067
-145.545	55.112	0.102	0.097
-144.531	800.000	-0.048	-0.174
-143.516	21.083	-0.028	0.022
-142.502	-55.643	0.273	-0.119
-141.487	285.805	-0.087	0.154
-140.472	-0.614	0.081	-0.056
-139.458	219.349	-0.063	0.098
-138.443	-200.000	0.042	0.451
-137.429	800.000	0.097	-0.290
-136.414	1.050	-0.154	0.107
-135.399	-34.045	0.150	0.081
-134.385	-186.383	-0.261	0.004
-133.370	-50.017	0.142	-0.066
-132.356	192.428	0.147	0.217
-131.341	800.000	0.045	0.183
-130.326	-26.866	-0.076	0.044
-129.312	-200.000	-0.007	0.169
-128.297	-82.995	0.113	-0.035
-127.283	800.000	-0.126	-0.363
-126.268	-51.289	0.218	0.099
-125.253	-2.590	-0.132	-0.090
-124.239	-67.691	0.291	-0.111
-123.224	-151.378	-0.132	0.010
-122.210	800.000	-0.063	-0.176
-121.195	99.534	0.193	-0.218
-120.180	-127.058	0.096	0.014
-119.166	-15.773	0.226	-0.140
-118.151	-103.246	-0.306	0.071
-117.137	-200.000	0.058	0.251
-116.122	364.556	0.051	0.100
-115.107	-152.944	0.346	-0.024
-114.093	-64.475	0.089	-0.035
-113.078	279.030	0.274	0.477
-112.064	-106.176	-0.057	0.013
-111.049	414.906	-0.207	-0.430
-110.034	-200.000	-0.000	-0.231
-109.020	-115.014	0.441	0.082
-108.005	800.000	0.066	0.198
-106.991	-200.000	0.017	0.196
-105.976	-200.000	0.063	-0.341
-104.962	69.200	0.119	0.120
-103.947	800.000	0.051	-0.154
-102.932	-135.186	-0.409	0.048
-101.918	9.360	-0.074	-0.055
-100.903	-83.647	-0.184	0.057
-99.889	-166.724	-0.093	-0.004
-98.874	-200.000	0.031	0.250
-97.859	-123.595	0.197	0.031
-96.845	-200.000	-0.014	-0.078
-95.830	-139.188	-0.387	-0.041
-94.816	28.696	0.102	0.084
-93.801	-38.287	-0.282	-0.145
-92.786	15.306	0.044	-0.033
-91.772	-42.302	-0.196	-0.097
-90.757	22.288	0.142	0.113
-89.743	-67.385	0.171	-0.065
-88.728	800.000	0.066	-0.199
-87.713	-102.597	0.239	-0.056
-86.699	-127.248	0.143	-0.020
-85.684	-200.000	0.033	-0.210
-84.670	166.571	0.045	0.062
-83.655	34.260	-0.033	-0.028
-82.640	334.421	0.125	0.237
-81.626	145.156	0.223	0.290
-80.611	-200.000	0.011	0.106
-79.597	97.307	0.227	-0.254
-78.582	-96.808	-0.368	-0.094
-77.567	246.515	0.079	-0.130
-76.553	-68.600	-0.152	0.057
-75.538	-85.946	-0.224	-0.067
-74.524	-200.000	-0.036	0.154
-73.509	-85.412	-0.322	-0.098
-72.494	-200.000	0.022	-0.304
-71.480	-200.000	-0.059	-0.296
-70.465	-200.000	-0.039	-0.441
-69.451	-17.633	0.038	0.023
-68.436	-2.161	0.443	-0.303
-67.422	-200.000	0.021	-0.342
-66.407	3.589	0.267	0.190
-65.392	-200.000	-0.038	0.369
-64.378	-13.067	0.294	0.186
-63.363	800.000	0.081	0.333
-62.349	-72.738	0.507	0.182
-61.334	50.342	-1.257	-1.156
-60.319	59.843	0.575	0.552
-59.305	800.000	-0.439	-1.530
-58.290	201.487	0.910	1.364
-57.276	497.122	0.686	1.535
-56.261	-200.000	120.620	633.256
-55.246	431.329	1530.010	3224.780
-54.232	149.253	2685.609	3536.309
-53.217	93.003	2268.627	2493.875
-52.203	33.490	1886.715	1594.310
-51.188	27.681	1684.253	1379.379
-50.173	25.516	1644.801	1331.005
-49.159	45.785	1711.650	1539.295
-48.144	43.808	1724.636	1535.934
-47.130	27.091	1676.664	1368.505
-46.115	24.738	1661.452	1338.446
-45.100	24.600	1656.040	1333.009
-44.086	24.518	1654.375	1331.004
-43.071	24.502	1652.004	1328.925
-42.057	24.519	1649.265	1326.792
-41.042	24.640	1646.694	1325.566
-40.027	24.571	1645.102	1323.726
-39.013	24.530	1643.212	1321.848
-37.998	24.552	1641.613	1320.670
-36.984	24.546	1640.838	1319.948
-35.969	24.758	1638.988	1319.974
-34.954	24.731	1637.382	1318.426
-33.940	24.724	1635.379	1316.714
-32.925	24.532	1634.559	1314.585
-31.911	24.739	1632.161	1314.127
-30.896	24.763	1630.270	1312.729
-29.881	24.698	1629.251	1311.383
-28.867	24.657	1627.954	1309.982
-27.852	24.697	1626.184	1308.799
-26.838	24.613	1625.115	1307.276
-25.823	24.650	1623.885	1306.505
-24.809	24.736	1622.181	1305.710
-23.794	24.632	1620.976	1303.929
-22.779	24.716	1619.240	1303.089
-21.765	24.670	1617.809	1301.555
-20.750	24.639	1616.247	1300.016
-19.736	24.666	1615.013	1299.171
-18.721	24.699	1613.842	1298.417
-17.706	24.692	1611.990	1296.827
-16.692	24.723	1610.914	1296.132
-15.677	24.701	1608.904	1294.303
-14.663	24.657	1607.838	1293.080
-13.648	24.796	1606.311	1292.801
-12.633	24.714	1605.232	1291.293
-11.619	24.666	1604.132	1290.006
-10.604	24.692	1602.067	1288.483
-9.590	24.683	1600.640	1287.222
-8.575	24.760	1599.170	1286.544
-7.560	24.651	1598.220	1284.943
-6.546	24.675	1597.311	1284.332
-5.531	24.712	1596.470	1283.873
-4.517	24.703	1595.610	1283.062
-3.502	24.692	1594.590	1282.115
-2.487	24.714	1592.668	1280.674
-1.473	24.243	1580.945	1267.846
-0.458	21.344	1560.742	1231.207
0.556	16.548	1562.541	1198.245
1.571	13.995	1586.531	1198.155
2.586	13.876	1598.548	1206.255
3.600	13.025	1545.633	1160.241
4.615	7.600	1440.841	1045.848
5.629	1.956	1380.926	966.578
6.644	1.001	1373.568	955.318
7.659	0.772	1372.694	953.185
8.673	0.753	1371.867	952.405
9.688	0.705	1370.133	950.812
10.702	0.621	1366.444	947.643
11.717	3.522	1370.205	968.399
12.731	10.341	1380.439	1018.554
13.746	15.965	1388.512	1059.903
14.761	17.407	1390.135	1070.119
15.775	16.755	1388.144	1064.398
16.790	15.761	1385.612	1056.128
17.804	15.103	1382.830	1049.786
18.819	14.636	1381.490	1045.754
19.834	14.426	1380.741	1043.779
20.848	14.133	1379.536	1040.938
21.863	14.035	1377.752	1038.892
22.877	13.728	1376.838	1036.193
23.892	13.669	1376.119	1035.189
24.907	13.673	1375.262	1034.479
25.921	13.735	1374.079	1033.884
26.936	13.803	1372.953	1033.369
27.950	13.830	1371.940	1032.683
28.965	13.778	1371.241	1031.740
29.980	13.869	1370.734	1031.832
30.994	13.847	1369.972	1031.032
32.009	13.963	1368.541	1030.586
33.023	13.923	1367.781	1029.674
34.038	13.862	1366.437	1028.189
35.053	13.908	1364.832	1027.177
36.067	13.843	1364.201	1026.212
37.082	13.909	1363.095	1025.694
38.096	13.878	1362.261	1024.785
39.111	13.947	1361.317	1024.410
40.126	13.754	1360.539	1022.543
41.140	13.762	1359.545	1021.757
42.155	13.763	1359.238	1021.441
43.169	13.760	1358.732	1020.955
44.184	13.743	1358.782	1020.794
45.199	13.725	1358.449	1020.341
46.213	13.847	1357.594	1020.360
47.228	13.830	1356.733	1019.520
48.242	13.783	1355.554	1018.254
49.257	13.792	1354.009	1017.057
50.271	13.869	1352.558	1016.350
51.286	13.769	1351.618	1014.942
52.301	13.821	1349.808	1013.810
53.315	13.793	1349.036	1012.969
54.330	13.779	1348.152	1012.135
55.344	13.697	1346.948	1010.639
56.359	13.796	1345.530	1010.087
57.374	13.713	1345.091	1009.167
58.388	13.662	1344.240	1008.126
59.403	13.587	1343.993	1007.398
60.417	13.584	1342.888	1006.463
61.432	13.698	1341.408	1005.954
62.447	13.629	1340.807	1004.994
63.461	13.616	1339.548	1003.882
64.476	13.590	1338.668	1002.981
65.490	13.695	1337.542	1002.684
66.505	13.687	1335.592	1001.081
67.520	13.620	1334.573	999.828
68.534	13.761	1333.184	999.548
69.549	13.624	1332.583	998.182
70.563	13.628	1331.343	997.189
71.578	13.661	1329.773	996.124
72.593	13.494	1329.500	994.829
73.607	13.527	1328.366	994.090
74.622	13.540	1327.671	993.559
75.636	13.560	1327.160	993.209
76.651	13.455	1326.759	992.189
77.666	13.605	1325.817	992.298
78.680	13.616	1325.163	991.786
79.695	13.669	1324.244	991.326
80.709	13.588	1323.212	989.986
81.724	13.657	1322.741	989.956
82.739	13.722	1321.815	989.560
83.753	13.818	1320.603	989.142
84.768	13.810	1319.358	988.070
85.782	13.834	1318.322	987.350
86.797	13.872	1316.872	986.403
87.812	13.704	1316.145	984.775
88.826	13.773	1314.937	984.194
89.841	13.711	1314.118	983.125
90.855	13.794	1312.842	982.575
91.870	13.826	1311.763	981.871
92.884	13.720	1311.281	980.797
93.899	13.871	1310.174	980.771
94.914	13.834	1309.822	980.201
95.928	13.926	1308.178	979.432
96.943	13.841	1307.520	978.348
97.957	13.860	1306.887	977.900
98.972	13.822	1305.605	976.633
99.987	13.770	1304.755	975.606
101.001	13.898	1303.785	975.541
102.016	13.894	1302.612	974.558
103.030	13.906	1301.422	973.651
104.045	13.846	1300.763	972.719
105.060	13.852	1299.335	971.602
106.074	13.659	1298.558	969.805
107.089	13.770	1297.276	969.411
108.103	13.694	1296.195	968.074
109.118	13.714	1295.091	967.281
110.133	13.666	1293.631	965.821
111.147	13.754	1292.152	965.144
112.162	13.732	1290.921	964.014
113.176	13.815	1289.619	963.437
114.191	13.790	1288.871	962.646
115.206	13.769	1287.644	961.523
116.220	13.775	1286.393	960.540
117.235	13.826	1284.859	959.607
118.249	13.797	1284.437	959.035
119.264	13.780	1282.912	957.718
120.279	13.806	1282.059	957.148
121.293	13.719	1281.093	955.837
122.308	13.750	1280.288	955.328
123.322	13.837	1278.543	954.443
124.337	13.699	1278.017	953.175
125.352	13.730	1276.334	952.011
126.366	13.747	1275.540	951.434
127.381	13.794	1274.254	950.657
128.395	13.635	1273.648	949.215
129.410	13.854	1272.314	949.389
130.424	13.816	1271.441	948.433
131.439	13.768	1270.523	947.389
132.454	13.867	1269.719	947.271
133.468	13.828	1268.850	946.321
134.483	13.854	1267.969	945.727
135.497	13.847	1266.828	944.752
136.512	13.838	1265.676	943.758
137.527	13.776	1263.923	942.016
138.541	13.773	1262.837	941.107
139.556	13.877	1261.366	940.516
140.570	13.846	1260.690	939.754
141.585	13.904	1259.219	938.901
142.600	13.918	1258.136	938.087
143.614	14.014	1256.910	937.637
144.629	14.002	1256.137	936.908
145.643	13.967	1255.258	935.968
146.658	13.934	1254.043	934.798
147.673	13.966	1252.512	933.754
148.687	13.852	1251.892	932.570
149.702	13.950	1249.640	931.355
150.716	13.826	1248.914	930.041
151.731	13.953	1247.434	929.563
152.746	13.870	1246.729	928.493
153.760	13.847	1245.647	927.477
154.775	13.933	1244.679	927.155
155.789	14.021	1243.642	926.792
156.804	14.012	1242.348	925.696
157.819	14.032	1241.379	925.002
158.833	14.114	1240.253	924.534
159.848	14.141	1239.310	923.900
160.862	14.218	1238.116	923.355
161.877	14.122	1237.304	922.135
162.892	14.025	1236.361	920.818
163.906	14.042	1234.904	919.740
164.921	14.132	1233.926	919.430
165.935	13.996	1233.418	918.221
166.950	14.126	1232.541	918.204
167.964	14.099	1231.787	917.409
168.979	14.071	1231.250	916.773
169.994	14.178	1230.246	916.534
171.008	14.089	1229.393	915.332
172.023	14.283	1228.618	915.738
173.037	14.257	1227.768	914.882
174.052	14.174	1226.929	913.718
175.067	14.240	1225.776	913.143
176.081	14.141	1225.174	912.070
177.096	14.140	1224.068	911.161
178.110	14.142	1223.035	910.323
179.125	14.241	1221.646	909.750
180.140	14.183	1220.468	908.476
181.154	14.352	1219.402	908.524
182.169	14.257	1218.505	907.259
183.183	14.241	1217.412	906.276
184.198	14.284	1216.286	905.591
185.213	14.397	1214.535	904.818
186.227	14.360	1213.960	904.113
187.242	14.473	1212.460	903.526
188.256	14.404	1211.851	902.619
189.271	14.324	1211.211	901.628
190.286	14.363	1209.950	900.820
191.300	14.222	1209.444	899.604
192.315	14.311	1208.635	899.403
193.329	14.352	1208.171	899.200
194.344	14.360	1207.556	898.702
195.359	14.409	1206.561	898.148
196.373	14.428	1206.218	897.918
197.388	14.448	1205.510	897.416
198.402	14.439	1205.612	897.367
199.417	14.489	1204.862	896.995
200.432	14.627	1203.304	896.500
201.446	14.658	1202.883	896.272
202.461	14.658	1201.805	895.388
203.475	14.683	1200.819	894.712
204.490	14.682	1199.280	893.481
205.504	14.580	1198.370	892.178
206.519	14.717	1197.189	891.950
207.534	14.534	1196.443	890.339
208.548	14.672	1195.122	890.015
209.563	14.625	1194.837	889.471
210.577	14.675	1193.558	888.707
211.592	14.699	1192.551	888.007
212.607	14.627	1192.205	887.286
213.621	14.653	1190.950	886.412
214.636	14.856	1189.851	886.594
215.650	14.771	1189.191	885.570
216.665	14.756	1188.147	884.635
217.680	14.906	1187.130	884.597
218.694	14.852	1186.366	883.660
219.709	14.842	1185.979	883.241
220.723	14.750	1185.101	882.023
221.738	14.952	1183.843	882.078
222.753	14.920	1183.233	881.375
223.767	14.864	1182.767	880.653
224.782	14.929	1182.289	880.562
225.796	15.094	1181.424	880.707
226.811	15.016	1180.582	879.592
227.826	14.921	1180.209	878.738
228.840	14.830	1179.821	877.891
229.855	14.960	1178.562	877.561
230.869	14.929	1177.721	876.695
231.884	14.988	1176.553	876.056
232.899	14.952	1176.202	875.530
233.913	14.980	1175.242	874.882
234.928	14.942	1174.526	874.073
235.942	14.917	1173.755	873.293
236.957	15.019	1172.670	872.938
237.972	14.918	1172.265	872.035
238.986	14.990	1171.684	871.902
240.001	15.075	1170.818	871.622
241.015	15.064	1169.877	870.785
242.030	15.007	1169.215	869.919
243.045	15.078	1168.361	869.575
244.059	15.074	1167.566	868.891
245.074	15.141	1166.629	868.460
246.088	15.110	1165.956	867.723
247.103	15.170	1165.161	867.364
248.117	15.166	1164.418	866.715
249.132	15.277	1163.585	866.593
250.147	15.323	1163.184	866.453
251.161	15.251	1162.499	865.496
252.176	15.365	1161.906	865.566
253.190	15.361	1160.848	864.681
254.205	15.437	1160.396	864.657
255.220	15.379	1159.768	863.815
256.234	15.439	1159.238	863.650
257.249	15.409	1158.406	862.801
258.263	15.435	1157.912	862.491
259.278	15.423	1157.355	861.939
260.293	15.407	1156.906	861.448
261.307	15.593	1155.738	861.453
262.322	15.450	1155.448	860.430
263.336	15.380	1154.741	859.467
264.351	15.642	1153.844	860.067
265.366	15.545	1153.481	859.221
266.380	15.710	1152.678	859.390
267.395	15.646	1151.868	858.385
268.409	15.581	1151.370	857.606
269.424	15.674	1150.383	857.270
270.439	15.542	1150.071	856.288
271.453	15.626	1149.157	855.957
272.468	15.624	1148.211	855.170
273.482	15.551	1147.807	854.422
274.497	15.624	1147.138	854.216
275.512	15.607	1146.423	853.522
276.526	15.718	1145.392	853.241
277.541	15.607	1145.037	852.342
278.555	15.557	1144.690	851.752
279.570	15.760	1143.608	851.901
280.585	15.660	1142.905	850.797
281.599	15.766	1141.626	850.304
282.614	15.811	1140.637	849.721
283.628	15.778	1139.895	848.925
284.643	15.903	1138.504	848.442
285.657	15.720	1138.028	847.090
286.672	15.805	1136.960	846.651
287.687	15.867	1136.195	846.317
288.701	15.916	1135.369	845.876
289.716	15.986	1134.219	845.292
290.730	15.942	1134.165	844.955
291.745	15.939	1133.523	844.388
292.760	15.838	1132.833	843.292
293.774	16.046	1131.788	843.481
294.789	16.077	1131.091	843.044
295.803	16.051	1130.610	842.480
296.818	15.925	1129.996	841.317
297.833	16.153	1128.614	841.352
298.847	16.059	1128.222	840.520
299.862	15.973	1127.484	839.467
300.876	16.143	1127.188	840.017
301.891	16.048	1126.691	839.098
302.906	16.086	1125.754	838.517
303.920	16.210	1124.922	838.438
304.935	16.186	1124.154	837.675
305.949	16.246	1123.609	837.493
306.964	16.242	1123.127	837.035
307.979	16.269	1122.094	836.329
308.993	16.350	1121.589	836.277
310.008	16.191	1120.615	834.690
311.022	16.304	1119.705	834.498
312.037	16.282	1118.991	833.785
313.052	16.320	1117.696	832.933
314.066	16.305	1116.873	832.173
315.081	16.262	1116.344	831.494
316.095	16.234	1115.558	830.696
317.110	16.354	1115.218	830.958
318.125	16.224	1114.091	829.408
319.139	16.381	1113.160	829.408
320.154	16.354	1112.510	828.722
321.168	16.374	1112.295	828.587
322.183	16.384	1111.597	828.040
323.197	16.372	1110.950	827.429
324.212	16.224	1110.732	826.469
325.227	16.334	1109.926	826.332
326.241	16.338	1109.401	825.889
327.256	16.327	1108.598	825.162
328.270	16.361	1107.053	824.107
329.285	16.392	1106.617	823.861
330.300	16.435	1105.598	823.240
331.314	16.392	1104.485	822.124
332.329	16.308	1104.223	821.448
333.343	16.495	1102.588	821.067
334.358	16.427	1102.380	820.510
335.373	16.638	1100.945	820.396
336.387	16.465	1100.630	819.247
337.402	16.486	1099.978	818.791
338.416	16.565	1099.340	818.626
339.431	16.621	1098.360	818.094
340.446	16.770	1097.676	818.235
341.460	16.728	1097.118	817.542
342.475	16.726	1096.382	816.910
343.489	16.801	1095.522	816.560
344.504	16.742	1094.608	815.523
345.519	16.845	1093.720	815.283
346.533	16.701	1093.149	814.092
347.548	16.748	1092.339	813.647
348.562	16.823	1091.873	813.588
349.577	16.835	1090.809	812.778
350.592	16.719	1090.335	811.800
351.606	16.687	1089.386	810.865
352.621	16.845	1088.579	810.952
353.635	16.818	1088.118	810.406
354.650	16.840	1086.945	809.566
355.665	16.908	1086.566	809.536
356.679	16.858	1086.001	808.807
357.694	16.809	1085.408	808.058
358.708	16.881	1084.596	807.723
359.723	16.844	1083.621	806.752
360.738	16.867	1083.497	806.697
361.752	16.935	1082.985	806.568
362.767	16.929	1082.028	805.756
363.781	17.048	1081.529	805.876
364.796	17.078	1080.630	805.278
365.810	17.029	1080.439	804.834
366.825	16.969	1079.861	804.048
367.840	17.073	1079.349	804.087
368.854	17.118	1078.749	803.780
369.869	17.231	1077.811	803.547
370.883	17.231	1076.864	802.770
371.898	17.093	1076.384	801.687
372.913	17.188	1075.706	801.560
373.927	17.316	1075.105	801.643
374.942	17.252	1074.625	800.915
375.956	17.192	1074.213	800.257
376.971	17.266	1073.660	800.120
377.986	17.325	1072.728	799.633
379.000	17.285	1072.757	799.397
380.015	17.324	1071.970	798.919
381.029	17.432	1071.189	798.776
382.044	17.327	1070.441	797.655
383.059	17.342	1070.103	797.403
384.073	17.253	1069.424	796.408
385.088	17.391	1068.301	796.146
386.102	17.539	1066.926	795.743
387.117	17.483	1066.160	794.841
388.132	17.351	1065.546	793.696
389.146	17.390	1064.714	793.188
390.161	17.400	1064.132	792.731
391.175	17.498	1063.290	792.490
392.190	17.498	1062.600	791.906
393.205	17.433	1061.844	790.971
394.219	17.468	1061.172	790.562
395.234	17.519	1060.216	790.017
396.248	17.420	1059.156	788.701
397.263	17.429	1058.169	787.934
398.278	17.425	1057.836	787.597
399.292	17.443	1057.132	787.089
400.307	17.547	1055.980	786.642
401.321	17.408	1055.810	785.805
402.336	17.571	1054.908	785.815
403.350	17.493	1054.153	784.825
404.365	17.578	1053.476	784.642
405.380	17.591	1052.495	783.901
406.394	17.658	1051.803	783.622
407.409	17.651	1051.152	783.039
408.423	17.772	1050.431	782.987
409.438	17.721	1050.152	782.474
410.453	17.905	1048.871	782.295
411.467	17.786	1048.124	781.123
412.482	17.794	1047.630	780.721
413.496	17.852	1046.982	780.435
414.511	17.807	1046.719	779.967
415.526	17.873	1046.302	779.888
416.540	17.795	1045.765	779.063
417.555	17.859	1045.168	778.841
418.569	17.914	1044.495	778.522
419.584	17.955	1044.267	778.469
420.599	17.911	1044.174	778.131
421.613	109.506	1328.683	1488.990
422.628	100.706	1370.075	1489.088
