DTS Sentinel unit serial number:	SN413079Multiplexer serial number:	ORYXHardware model number:	OX4-SRSoftware version number:	ORYX F/W v4.00 Oryx Data Collector v3.7.2.0data status	okinstallation	princeton_trtdifferential loss correction	single-endedforward channel	channel 2reverse channel	N/Adate	2019/09/18time	22:47:34forward acquisition time	60.00reverse acquisition time	0.00gamma	496.2192k internal	0.2349k external	0.2349temperature offset calibration	1.0016default loss term (dB/km)	0.3790temperature slope calibration	1.0000multiplexer offset coefficient	1.0000multiplexer slope coefficient	1.0000fibre end	0.00T internal ref (°C)	24.11T ext. ref 1 (°C)	0.79T ext. ref 2 (°C)	18.00length (m)	temperature (°C)	Stokes	anti-Stokes-747.200	-51.207	-0.291	-0.136
-746.185	800.000	-0.146	0.483
-745.171	121.693	-0.243	0.303
-744.156	-10.102	-0.339	0.225
-743.142	-102.814	-0.283	0.067
-742.127	-200.000	-0.001	0.104
-741.112	446.098	0.172	0.378
-740.098	-127.883	-0.151	0.022
-739.083	800.000	0.052	0.215
-738.069	-44.899	0.217	0.108
-737.054	-200.000	-0.007	-0.208
-736.039	158.586	-0.079	-0.109
-735.025	-47.621	0.182	-0.088
-734.010	-200.000	0.034	-0.269
-732.996	-96.066	-0.345	-0.092
-731.981	-200.000	-0.016	-0.097
-730.966	-200.000	0.030	-0.175
-729.952	125.525	-0.160	-0.202
-728.937	449.056	-0.145	-0.319
-727.923	800.000	-0.078	-0.246
-726.908	-109.814	-0.168	-0.035
-725.894	-103.831	-0.190	-0.044
-724.879	635.324	-0.137	-0.347
-723.864	-200.000	0.015	0.247
-722.850	-14.991	-0.260	0.166
-721.835	-200.000	-0.019	-0.275
-720.821	-200.000	0.022	-0.247
-719.806	-200.000	0.031	-0.195
-718.791	161.902	0.133	-0.186
-717.777	-200.000	0.028	0.507
-716.762	-200.000	0.046	-0.238
-715.748	-94.238	-0.208	-0.057
-714.733	-197.749	-0.227	0.001
-713.718	171.996	-0.103	0.147
-712.704	-179.777	-0.312	0.007
-711.689	-79.944	-0.292	0.098
-710.675	-116.783	-0.153	0.028
-709.660	88.956	0.124	0.138
-708.645	-82.506	0.230	-0.075
-707.631	-200.000	0.011	-0.071
-706.616	508.391	-0.041	-0.095
-705.602	354.320	-0.089	-0.175
-704.587	-93.932	0.416	0.114
-703.572	-139.950	-0.383	-0.040
-702.558	-86.531	-0.168	-0.051
-701.543	-120.005	0.516	-0.088
-700.529	-31.659	-0.092	-0.051
-699.514	-91.303	-0.139	0.040
-698.499	492.323	0.018	0.042
-697.485	112.788	0.145	-0.175
-696.470	-52.837	-0.177	0.081
-695.456	800.000	-0.022	0.096
-694.441	101.809	-0.177	0.206
-693.426	133.572	-0.164	0.212
-692.412	-55.339	0.199	0.089
-691.397	-156.606	0.226	-0.014
-690.383	233.032	-0.083	-0.136
-689.368	-77.244	0.126	0.044
-688.354	-200.000	-0.014	-0.230
-687.339	451.279	0.167	-0.366
-686.324	-135.927	-0.354	0.042
-685.310	33.631	-0.168	-0.146
-684.295	-200.000	0.011	-0.250
-683.281	-160.280	0.192	0.010
-682.266	-200.000	-0.014	0.065
-681.251	-92.467	0.210	-0.059
-680.237	469.575	0.164	-0.367
-679.222	-91.707	0.104	-0.029
-678.208	147.079	-0.074	-0.099
-677.193	800.000	-0.054	-0.156
-676.178	348.921	-0.148	-0.290
-675.164	-200.000	0.018	-0.156
-674.149	-25.378	-0.153	-0.090
-673.135	-3.738	0.464	-0.321
-672.120	6.202	0.050	-0.037
-671.105	-200.000	-0.003	-0.107
-670.091	591.689	0.081	0.199
-669.076	-200.000	-0.028	-0.279
-668.062	-128.563	-0.292	-0.041
-667.047	625.137	0.091	-0.229
-666.032	73.542	0.147	-0.153
-665.018	104.770	-0.236	-0.277
-664.003	-5.920	0.223	-0.152
-662.989	-200.000	0.010	0.149
-661.974	81.250	-0.255	0.274
-660.959	514.165	0.024	0.056
-659.945	-63.459	-0.112	-0.046
-658.930	800.000	0.065	0.217
-657.916	10.697	-0.251	-0.190
-656.901	-67.620	-0.030	-0.012
-655.886	-200.000	0.026	-0.175
-654.872	-200.000	-0.024	-0.435
-653.857	-13.926	-0.152	-0.098
-652.843	-200.000	0.010	0.100
-651.828	-112.022	0.475	-0.095
-650.814	687.545	-0.061	0.157
-649.799	353.484	-0.067	-0.133
-648.784	-98.232	0.116	0.030
-647.770	-81.977	0.423	0.138
-646.755	33.493	-0.246	0.213
-645.741	-200.000	-0.034	-0.371
-644.726	28.195	-0.190	0.160
-643.711	27.313	-0.176	-0.147
-642.697	238.891	0.079	0.131
-641.682	123.488	-0.067	0.084
-640.668	800.000	0.088	-0.310
-639.653	-200.000	-0.013	0.123
-638.638	218.926	-0.177	-0.281
-637.624	-85.158	-0.091	0.028
-636.609	-200.000	-0.006	0.094
-635.595	-14.167	-0.117	-0.075
-634.580	800.000	0.078	0.233
-633.565	566.341	-0.016	0.037
-632.551	-119.236	-0.005	0.001
-631.536	171.138	-0.149	0.213
-630.522	-103.856	0.096	0.022
-629.507	-200.000	-0.041	-0.253
-628.492	-89.566	-0.320	-0.093
-627.478	272.560	0.211	0.370
-626.463	-10.491	0.203	0.134
-625.449	-157.862	-0.240	0.014
-624.434	28.123	-0.109	-0.091
-623.419	466.793	-0.147	-0.327
-622.405	-200.000	0.166	0.001
-621.390	-128.924	-0.377	0.053
-620.376	80.649	-0.222	0.238
-619.361	-143.281	-0.235	0.022
-618.346	133.386	0.109	0.140
-617.332	-26.831	-0.154	-0.090
-616.317	800.000	0.043	-0.176
-615.303	-71.761	-0.250	-0.092
-614.288	520.331	0.043	0.100
-613.273	-12.693	0.229	-0.149
-612.259	-200.000	-0.043	-0.416
-611.244	-26.453	0.138	-0.080
-610.230	200.000	-0.300	0.458
-609.215	-170.343	0.090	0.003
-608.201	-121.458	-0.029	0.005
-607.186	-114.124	0.180	-0.035
-606.171	-140.356	-0.364	0.038
-605.157	-200.000	0.019	0.097
-604.142	103.772	0.084	-0.098
-603.128	-93.276	0.132	-0.036
-602.113	-86.461	-0.169	0.052
-601.098	68.751	0.125	-0.127
-600.084	-36.914	0.115	0.062
-599.069	-47.775	0.119	-0.057
-598.055	-200.000	-0.011	0.095
-597.040	-13.369	0.444	0.286
-596.025	64.780	0.310	0.310
-595.011	-166.439	-0.197	0.008
-593.996	-24.881	0.089	0.053
-592.982	4.946	-0.062	0.045
-591.967	-40.801	0.136	0.070
-590.952	279.188	-0.169	0.300
-589.938	494.766	-0.114	-0.260
-588.923	-200.000	0.038	-0.536
-587.909	55.603	0.223	0.214
-586.894	21.332	-0.134	0.108
-585.879	-27.914	0.118	-0.068
-584.865	283.652	0.183	0.326
-583.850	54.487	0.109	0.104
-582.836	111.073	-0.062	0.074
-581.821	-200.000	0.017	-0.127
-580.806	289.218	0.081	-0.145
-579.792	328.754	-0.254	-0.484
-578.777	-200.000	-0.003	-0.123
-577.763	46.282	-0.268	0.247
-576.748	229.264	-0.035	0.057
-575.733	-77.311	-0.179	0.062
-574.719	-200.000	-0.094	-0.545
-573.704	344.083	0.036	-0.071
-572.690	-99.176	0.286	0.072
-571.675	-200.000	0.030	-0.362
-570.661	556.194	0.148	-0.353
-569.646	-22.518	0.184	-0.111
-568.631	-200.000	-0.067	-0.324
-567.617	619.673	-0.036	-0.090
-566.602	-25.535	0.194	0.113
-565.588	225.213	-0.101	-0.162
-564.573	2.914	0.319	-0.230
-563.558	-44.811	0.234	0.116
-562.544	80.728	-0.225	0.240
-561.529	-141.118	0.399	0.040
-560.515	-93.201	0.258	-0.071
-559.500	-96.328	-0.177	0.047
-558.485	119.843	0.155	0.191
-557.471	-132.586	-0.161	-0.021
-556.456	68.202	-0.041	-0.041
-555.442	800.000	-0.092	-0.284
-554.427	800.000	-0.072	-0.228
-553.412	24.944	0.132	-0.109
-552.398	-200.000	-0.014	-0.318
-551.383	169.332	-0.156	-0.221
-550.369	-200.000	0.022	-0.179
-549.354	379.578	0.113	0.229
-548.339	800.000	-0.052	0.176
-547.325	800.000	-0.114	0.396
-546.310	800.000	-0.029	0.081
-545.296	-200.000	0.015	-0.235
-544.281	300.982	-0.167	-0.306
-543.266	-6.963	-0.119	-0.080
-542.252	-115.424	0.322	-0.060
-541.237	-81.183	0.177	0.058
-540.223	800.000	-0.068	0.246
-539.208	64.434	-0.239	-0.239
-538.193	-125.794	0.194	0.029
-537.179	-200.000	0.002	0.060
-536.164	40.590	0.067	0.059
-535.150	38.578	0.141	0.125
-534.135	800.000	-0.047	-0.137
-533.121	43.475	-0.125	-0.113
-532.106	29.052	0.060	0.050
-531.091	-80.883	-0.025	-0.008
-530.077	800.000	0.037	0.100
-529.062	-200.000	-0.017	0.142
-528.048	-41.215	-0.158	-0.081
-527.033	800.000	0.053	0.196
-526.018	335.288	-0.192	-0.368
-525.004	-136.371	-0.182	-0.021
-523.989	-7.459	0.110	0.074
-522.975	218.883	0.108	-0.171
-521.960	326.545	-0.074	0.141
-520.945	22.028	0.104	0.084
-519.931	118.170	0.068	-0.083
-518.916	-176.427	-0.080	0.002
-517.902	800.000	-0.057	-0.218
-516.887	595.726	-0.108	0.263
-515.872	10.443	-0.091	0.068
-514.858	-150.557	0.159	-0.012
-513.843	-123.101	0.192	-0.031
-512.829	-105.868	-0.301	0.067
-511.814	-200.000	0.103	0.553
-510.799	92.357	0.075	-0.084
-509.785	33.963	-0.180	-0.155
-508.770	59.907	-0.270	0.264
-507.756	66.204	-0.119	0.119
-506.741	-200.000	0.027	0.130
-505.726	157.500	-0.138	-0.189
-504.712	-44.471	-0.277	-0.137
-503.697	-81.934	0.239	-0.077
-502.683	54.708	-0.413	0.394
-501.668	212.821	0.116	-0.182
-500.653	-9.049	0.183	-0.121
-499.639	545.050	0.023	0.053
-498.624	136.513	0.163	-0.210
-497.610	-32.114	-0.103	0.057
-496.595	-63.617	-0.093	0.038
-495.581	23.911	-0.235	0.191
-494.566	-19.016	0.252	-0.155
-493.551	-41.791	-0.100	-0.051
-492.537	-171.463	-0.247	0.008
-491.522	-200.000	0.041	-0.194
-490.508	-138.459	-0.090	0.010
-489.493	-144.182	0.168	-0.016
-488.478	320.713	0.119	0.224
-487.464	323.328	0.119	0.224
-486.449	-163.198	-0.137	0.006
-485.435	-11.226	0.221	0.144
-484.420	104.100	-0.230	0.268
-483.405	-45.045	0.072	0.036
-482.391	-69.875	-0.261	0.098
-481.376	-149.924	-0.351	-0.027
-480.362	7.302	0.142	0.105
-479.347	137.830	0.040	-0.052
-478.332	800.000	0.090	-0.383
-477.318	-87.871	0.293	0.087
-476.303	73.933	0.046	-0.048
-475.289	113.771	0.323	-0.388
-474.274	299.964	-0.140	0.255
-473.259	-31.321	0.091	0.051
-472.245	-173.041	0.262	0.008
-471.230	-108.230	-0.137	-0.029
-470.216	-110.073	0.048	-0.010
-469.201	-200.000	-0.023	0.387
-468.186	89.675	0.125	-0.138
-467.172	437.695	0.075	0.161
-466.157	-79.331	0.284	-0.095
-465.143	-24.902	0.092	0.054
-464.128	248.036	0.097	0.162
-463.113	-37.888	0.106	-0.056
-462.099	-149.720	0.126	-0.010
-461.084	133.694	0.068	-0.087
-460.070	800.000	0.115	-0.339
-459.055	-200.000	-0.007	-0.381
-458.040	-34.343	0.055	-0.030
-457.026	-86.640	0.108	0.033
-456.011	71.901	0.222	-0.228
-454.997	525.574	0.075	0.174
-453.982	800.000	0.039	-0.141
-452.968	800.000	-0.025	0.088
-451.953	290.368	-0.096	-0.173
-450.938	4.261	0.227	-0.164
-449.924	624.865	-0.059	-0.147
-448.909	-200.000	0.003	0.037
-447.895	106.720	0.145	-0.170
-446.880	401.668	0.236	0.488
-445.865	800.000	0.021	0.061
-444.851	111.044	-0.094	0.112
-443.836	-200.000	-0.006	0.039
-442.822	167.872	-0.180	-0.253
-441.807	800.000	0.031	0.129
-440.792	800.000	0.114	0.373
-439.778	-51.620	-0.239	-0.110
-438.763	76.822	0.079	-0.083
-437.749	433.198	0.041	-0.089
-436.734	-200.000	0.043	0.302
-435.719	-131.882	-0.141	0.018
-434.705	-95.422	-0.145	0.038
-433.690	-200.000	-0.026	0.241
-432.676	800.000	-0.049	-0.167
-431.661	-200.000	-0.004	-0.619
-430.646	-200.000	0.004	0.110
-429.632	-113.403	0.203	-0.039
-428.617	-200.000	0.011	0.325
-427.603	125.638	-0.079	0.098
-426.588	-200.000	0.079	-0.387
-425.573	54.105	-0.303	-0.288
-424.559	-200.000	-0.239	0.001
-423.544	-104.039	0.318	-0.073
-422.530	-42.565	-0.252	-0.127
-421.515	800.000	0.091	0.325
-420.500	545.377	0.157	0.370
-419.486	800.000	-0.065	0.185
-418.471	423.470	-0.037	-0.078
-417.457	224.653	-0.152	0.243
-416.442	-200.000	-0.008	0.131
-415.428	360.050	0.057	-0.112
-414.413	170.408	-0.113	-0.159
-413.398	385.329	0.034	-0.070
-412.384	-200.000	0.011	0.091
-411.369	358.476	0.106	-0.210
-410.355	-200.000	-0.065	0.303
-409.340	-200.000	0.001	-0.185
-408.325	33.665	-0.290	0.248
-407.311	81.690	0.078	0.083
-406.296	-53.212	-0.215	0.097
-405.282	164.772	-0.052	0.073
-404.267	-175.231	-0.195	-0.005
-403.252	-19.592	-0.125	0.076
-402.238	800.000	-0.099	0.307
-401.223	-135.346	-0.151	-0.018
-400.209	-73.732	0.266	-0.095
-399.194	635.993	0.090	0.226
-398.179	-200.000	-0.002	-0.130
-397.165	-126.340	-0.170	0.025
-396.150	-200.000	0.033	-0.168
-395.136	-200.000	0.011	0.155
-394.121	-40.944	-0.071	0.036
-393.106	316.969	0.004	0.008
-392.092	-185.666	-0.137	-0.002
-391.077	-11.045	-0.192	0.125
-390.063	63.590	0.154	-0.152
-389.048	65.297	0.039	0.039
-388.033	0.244	-0.120	0.085
-387.019	-51.537	0.030	-0.014
-386.004	-47.230	-0.074	0.035
-384.990	56.536	-0.302	-0.290
-383.975	192.127	0.198	-0.295
-382.960	82.053	0.151	-0.161
-381.946	-154.467	-0.104	0.007
-380.931	254.358	0.136	-0.229
-379.917	46.007	0.230	-0.210
-378.902	-84.092	0.105	-0.033
-377.888	137.997	-0.117	-0.151
-376.873	-200.000	0.003	-0.185
-375.858	75.517	0.188	0.196
-374.844	-200.000	0.015	-0.068
-373.829	-82.471	-0.177	-0.057
-372.815	46.747	0.087	0.079
-371.800	800.000	0.057	0.232
-370.785	-200.000	0.005	-0.101
-369.771	-47.083	0.187	0.090
-368.756	-111.206	0.340	-0.069
-367.742	800.000	-0.021	-0.089
-366.727	198.853	-0.075	-0.112
-365.712	234.554	0.027	-0.043
-364.698	-59.930	-0.072	-0.030
-363.683	-74.642	0.319	0.113
-362.669	392.252	-0.189	0.386
-361.654	-200.000	-0.010	-0.152
-360.639	49.524	0.207	0.192
-359.625	754.551	-0.157	-0.418
-358.610	-14.298	0.198	0.125
-357.596	-129.581	0.204	-0.028
-356.581	-157.429	0.179	-0.011
-355.566	324.778	-0.202	0.379
-354.552	217.381	-0.249	-0.391
-353.537	-124.677	0.270	0.041
-352.523	-105.660	0.280	0.062
-351.508	-44.537	0.268	-0.132
-350.493	68.206	0.051	-0.052
-349.479	552.299	0.119	0.280
-348.464	-200.000	-0.001	-0.109
-347.450	-104.375	0.277	-0.063
-346.435	-65.985	-0.102	-0.040
-345.420	267.665	0.153	-0.263
-344.406	473.803	-0.093	-0.206
-343.391	-77.196	-0.031	-0.011
-342.377	-127.126	0.144	-0.021
-341.362	800.000	-0.092	0.314
-340.348	3.733	-0.176	0.126
-339.333	16.213	-0.143	-0.111
-338.318	85.452	-0.113	0.122
-337.304	350.511	-0.012	-0.022
-336.289	527.770	0.058	0.134
-335.275	-68.379	-0.198	-0.076
-334.260	-179.028	0.133	0.003
-333.245	-24.489	0.196	0.115
-332.231	-200.000	-0.021	-0.121
-331.216	-37.348	-0.318	0.167
-330.202	-84.922	0.129	-0.040
-329.187	-200.000	-0.044	-0.207
-328.172	-0.792	-0.230	-0.160
-327.158	189.200	-0.066	-0.098
-326.143	-200.000	-0.014	-0.150
-325.129	-200.000	0.034	0.147
-324.114	-200.000	0.031	0.274
-323.099	104.209	-0.122	0.141
-322.085	-91.996	0.241	0.067
-321.070	-200.000	-0.023	0.102
-320.056	500.404	-0.017	-0.038
-319.041	-191.560	0.253	-0.002
-318.026	-200.000	0.046	0.249
-317.012	253.233	-0.091	0.152
-315.997	800.000	-0.012	0.034
-314.983	-135.820	-0.259	-0.030
-313.968	-69.572	-0.085	0.032
-312.953	-93.487	0.232	-0.063
-311.939	142.302	-0.189	0.246
-310.924	72.064	-0.211	-0.215
-309.910	-22.132	0.076	0.045
-308.895	23.087	-0.111	-0.090
-307.880	12.050	-0.097	-0.073
-306.866	-124.793	-0.154	0.023
-305.851	-143.125	0.293	0.028
-304.837	-86.699	0.170	-0.051
-303.822	433.829	0.039	-0.083
-302.807	-200.000	0.030	0.333
-301.793	22.160	0.303	-0.242
-300.778	-31.545	0.061	0.033
-299.764	800.000	-0.114	0.378
-298.749	-200.000	-0.007	-0.096
-297.735	-45.471	0.230	0.112
-296.720	126.767	-0.221	-0.274
-295.705	-74.429	0.179	-0.064
-294.691	-200.000	0.027	-0.132
-293.676	-44.419	-0.065	-0.032
-292.662	211.898	-0.073	-0.113
-291.647	-200.000	0.005	-0.036
-290.632	-200.000	0.085	0.407
-289.618	-200.000	-0.033	0.341
-288.603	489.261	0.164	-0.368
-287.589	418.047	-0.120	0.252
-286.574	-200.000	-0.027	0.426
-285.559	49.602	0.281	-0.260
-284.545	-72.626	0.232	-0.084
-283.530	124.242	-0.176	-0.217
-282.516	800.000	0.147	0.416
-281.501	208.126	-0.182	0.279
-280.486	-200.000	0.010	0.127
-279.472	800.000	0.030	0.105
-278.457	-200.000	-0.046	-0.261
-277.443	-53.190	0.374	-0.168
-276.428	4.714	-0.243	-0.175
-275.413	-21.271	0.072	-0.043
-274.399	153.666	-0.204	-0.274
-273.384	640.980	0.133	0.331
-272.370	577.604	-0.061	0.146
-271.355	-200.000	-0.017	0.240
-270.340	-119.496	0.223	0.038
-269.326	126.364	0.074	-0.091
-268.311	-76.293	-0.110	-0.038
-267.297	13.979	0.121	0.092
-266.282	181.548	0.180	-0.260
-265.267	334.993	-0.040	-0.076
-264.253	-100.356	0.323	0.078
-263.238	-200.000	0.003	-0.334
-262.224	-31.184	-0.147	0.081
-261.209	-29.329	0.040	-0.022
-260.195	-100.216	-0.223	-0.054
-259.180	62.495	-0.186	0.182
-258.165	-60.912	0.087	0.036
-257.151	-200.000	-0.021	-0.176
-256.136	-193.797	-0.435	0.004
-255.122	210.957	0.140	0.216
-254.107	615.658	-0.078	0.193
-253.092	-87.216	0.112	-0.033
-252.078	89.416	-0.053	0.057
-251.063	-200.000	0.002	-0.132
-250.049	-108.996	0.130	0.027
-249.034	206.471	-0.044	0.067
-248.019	7.925	-0.277	0.203
-247.005	-40.172	0.263	-0.134
-245.990	-200.000	0.001	-0.105
-244.976	298.122	0.172	0.310
-243.961	653.059	0.062	0.155
-242.946	-74.611	-0.267	0.094
-241.932	216.771	-0.205	-0.319
-240.917	464.637	0.051	-0.112
-239.903	-90.792	0.048	-0.013
-238.888	-200.000	0.041	0.300
-237.873	52.610	-0.091	-0.085
-236.859	133.902	0.227	0.287
-235.844	740.301	0.070	0.185
-234.830	633.379	-0.141	0.349
-233.815	423.496	-0.130	0.273
-232.800	-44.283	-0.124	-0.061
-231.786	-200.000	0.026	0.122
-230.771	138.129	0.232	0.298
-229.757	-4.049	-0.173	-0.118
-228.742	-40.451	-0.171	0.087
-227.727	-128.678	-0.176	-0.024
-226.713	-34.597	0.176	-0.094
-225.698	-92.970	-0.395	-0.108
-224.684	-200.000	-0.037	-0.219
-223.669	-85.009	-0.178	0.055
-222.655	32.411	0.227	-0.192
-221.640	-200.000	0.026	0.312
-220.625	36.335	-0.318	-0.275
-219.611	60.104	0.152	-0.147
-218.596	-77.963	0.248	-0.084
-217.582	-165.222	0.363	-0.016
-216.567	800.000	0.032	-0.123
-215.552	579.746	-0.102	0.245
-214.538	644.521	0.027	0.067
-213.523	-200.000	-0.017	0.187
-212.509	-149.320	-0.631	0.049
-211.494	-128.727	-0.321	0.044
-210.479	225.780	0.040	-0.064
-209.465	229.591	-0.032	0.051
-208.450	-200.000	-0.031	-0.200
-207.436	-103.158	0.175	-0.041
-206.421	-200.000	-0.014	0.090
-205.406	-111.602	0.263	-0.052
-204.392	320.105	0.061	-0.114
-203.377	-200.000	0.011	0.067
-202.363	15.369	0.135	-0.103
-201.348	-159.171	-0.322	-0.018
-200.333	800.000	0.065	-0.189
-199.319	63.152	-0.280	-0.275
-198.304	-186.444	0.172	-0.002
-197.290	476.114	0.197	-0.434
-196.275	-200.000	0.007	-0.086
-195.260	-49.869	0.272	0.126
-194.246	-184.924	-0.348	-0.005
-193.231	102.235	-0.056	0.064
-192.217	-171.675	0.116	-0.004
-191.202	-12.754	-0.208	0.132
-190.187	-32.376	-0.289	-0.158
-189.173	188.433	0.051	0.075
-188.158	39.319	-0.146	0.128
-187.144	-120.418	0.254	-0.042
-186.129	-200.000	0.036	0.192
-185.114	-25.609	-0.356	-0.205
-184.100	461.256	0.112	0.243
-183.085	-48.016	0.282	0.133
-182.071	134.285	-0.235	-0.298
-181.056	-119.778	-0.325	0.055
-180.042	-51.168	0.120	-0.055
-179.027	800.000	0.054	-0.180
-178.012	-116.140	-0.327	-0.059
-176.998	800.000	0.087	0.237
-175.983	728.266	0.080	-0.208
-174.969	800.000	0.036	0.152
-173.954	225.338	0.105	0.166
-172.939	-125.767	0.110	-0.016
-171.925	-71.146	-0.429	0.157
-170.910	800.000	0.054	0.174
-169.896	-200.000	0.001	-0.120
-168.881	800.000	0.081	-0.331
-167.866	-174.001	0.280	-0.008
-166.852	-200.000	0.071	0.317
-165.837	-79.074	-0.311	0.103
-164.823	136.987	-0.100	-0.127
-163.808	-124.038	0.350	-0.054
-162.793	-200.000	-0.007	0.162
-161.779	-200.000	-0.010	0.074
-160.764	302.998	0.124	-0.224
-159.750	286.809	-0.127	-0.223
-158.735	-95.490	-0.217	-0.057
-157.720	-114.314	-0.155	0.029
-156.706	800.000	0.011	0.044
-155.691	-11.703	-0.065	0.042
-154.677	308.843	-0.039	0.072
-153.662	-88.808	0.321	0.093
-152.647	800.000	0.088	-0.327
-151.633	-114.103	-0.358	-0.068
-150.618	-200.000	-0.025	-0.181
-149.604	800.000	0.043	-0.145
-148.589	-82.172	0.132	0.042
-147.574	-76.549	0.355	0.122
-146.560	44.110	0.097	0.087
-145.545	-29.955	-0.155	-0.086
-144.531	-200.000	0.029	-0.243
-143.516	-43.717	0.047	-0.023
-142.502	23.363	-0.120	0.096
-141.487	3.811	-0.330	0.235
-140.472	254.055	-0.069	0.114
-139.458	-144.643	0.391	-0.035
-138.443	260.883	0.210	-0.354
-137.429	0.675	0.156	-0.109
-136.414	-1.929	0.115	-0.079
-135.399	-143.024	-0.125	-0.012
-134.385	8.744	-0.205	0.151
-133.370	-43.731	-0.133	0.066
-132.356	79.171	-0.108	0.113
-131.341	-200.000	0.022	-0.111
-130.326	362.549	0.096	0.187
-129.312	-13.411	-0.278	0.176
-128.297	-56.743	0.116	-0.050
-127.283	81.541	-0.187	0.197
-126.268	186.806	-0.172	0.250
-125.253	800.000	0.062	0.248
-124.239	86.309	-0.080	0.085
-123.224	-200.000	0.009	-0.051
-122.210	-87.492	0.155	-0.046
-121.195	-50.062	-0.126	-0.058
-120.180	800.000	-0.073	-0.290
-119.166	63.263	0.154	0.151
-118.151	69.364	0.173	-0.173
-117.137	101.064	-0.151	-0.171
-116.122	-23.002	-0.143	-0.084
-115.107	800.000	0.043	-0.127
-114.093	-101.257	0.091	0.022
-113.078	216.912	-0.099	0.153
-112.064	-56.882	-0.402	0.173
-111.049	218.017	0.198	-0.308
-110.034	398.287	0.073	-0.148
-109.020	-5.932	0.348	0.232
-108.005	-106.064	0.146	0.032
-106.991	-175.931	0.219	-0.006
-105.976	800.000	-0.040	-0.127
-104.962	-112.913	-0.104	-0.020
-103.947	-58.277	-0.126	0.053
-102.932	-200.000	0.103	-0.447
-101.918	-200.000	-0.022	-0.112
-100.903	-16.572	0.439	-0.271
-99.889	-28.874	0.212	0.118
-98.874	-176.203	0.306	0.008
-97.859	800.000	0.005	-0.022
-96.845	-200.000	-0.002	0.198
-95.830	-165.718	0.246	-0.010
-94.816	6.506	0.248	0.179
-93.801	-200.000	-0.046	-0.209
-92.786	89.377	-0.048	0.052
-91.772	-200.000	0.009	-0.137
-90.757	-49.186	0.231	0.108
-89.743	688.412	0.069	0.175
-88.728	4.380	0.285	-0.203
-87.713	-200.000	0.007	-0.096
-86.699	-127.098	0.360	-0.051
-85.684	-127.907	0.123	0.017
-84.670	15.631	-0.285	-0.218
-83.655	528.101	-0.119	0.273
-82.640	-55.673	0.099	0.043
-81.626	-92.688	0.093	0.025
-80.611	-20.063	0.237	0.142
-79.597	36.104	-0.235	-0.201
-78.582	-75.881	0.237	-0.082
-77.567	-111.966	0.350	-0.069
-76.553	-200.000	-0.025	0.170
-75.538	19.022	0.042	-0.032
-74.524	119.188	-0.124	-0.149
-73.509	415.184	0.171	-0.354
-72.494	-61.408	0.059	0.024
-71.480	-23.757	-0.313	-0.183
-70.465	-200.000	-0.038	-0.231
-69.451	-155.000	-0.048	-0.003
-68.436	-138.742	0.259	0.028
-67.422	91.626	-0.055	0.060
-66.407	387.067	-0.105	-0.211
-65.392	800.000	-0.048	0.145
-64.378	257.691	-0.196	-0.328
-63.363	800.000	0.073	-0.197
-62.349	-84.389	0.116	0.036
-61.334	143.174	-1.010	-1.307
-60.319	800.000	0.286	0.829
-59.305	430.213	-0.583	-1.227
-58.290	277.134	0.784	1.355
-57.276	281.396	0.760	1.324
-56.261	-200.000	121.628	646.786
-55.246	437.554	1541.229	3265.799
-54.232	147.388	2701.906	3536.324
-53.217	92.510	2280.508	2500.276
-52.203	33.186	1896.203	1598.418
-51.188	27.168	1693.144	1381.607
-50.173	24.953	1653.613	1332.831
-49.159	46.035	1722.107	1549.291
-48.144	44.010	1733.918	1544.446
-47.130	26.705	1685.459	1371.617
-46.115	24.142	1670.734	1340.317
-45.100	24.081	1665.234	1335.393
-44.086	24.003	1662.798	1332.804
-43.071	23.963	1660.597	1330.685
-42.057	24.000	1658.213	1329.000
-41.042	24.029	1655.961	1327.361
-40.027	24.016	1654.052	1325.684
-39.013	23.929	1652.647	1323.851
-37.998	23.852	1651.113	1322.003
-36.984	23.871	1650.086	1321.266
-35.969	24.061	1648.367	1321.245
-34.954	24.168	1646.417	1320.428
-33.940	24.133	1644.729	1318.759
-32.925	24.178	1642.992	1317.646
-31.911	24.098	1641.533	1315.837
-30.896	24.160	1639.823	1314.871
-29.881	24.140	1638.436	1313.555
-28.867	24.109	1636.694	1311.883
-27.852	24.106	1635.080	1310.510
-26.838	24.125	1634.119	1309.828
-25.823	24.126	1632.582	1308.553
-24.809	24.270	1630.890	1308.200
-23.794	24.118	1629.912	1306.255
-22.779	24.156	1628.679	1305.489
-21.765	24.120	1626.714	1303.602
-20.750	24.147	1625.570	1302.827
-19.736	24.073	1624.307	1301.225
-18.721	24.182	1622.523	1300.542
-17.706	24.102	1621.556	1299.127
-16.692	24.123	1619.984	1297.971
-15.677	24.218	1618.243	1297.214
-14.663	24.162	1616.878	1295.661
-13.648	24.133	1616.248	1294.898
-12.633	24.157	1613.836	1293.085
-11.619	24.214	1612.468	1292.349
-10.604	24.166	1610.957	1290.741
-9.590	24.104	1609.767	1289.287
-8.575	24.135	1608.657	1288.574
-7.560	24.161	1607.464	1287.750
-6.546	24.055	1606.571	1286.220
-5.531	24.107	1605.365	1285.580
-4.517	24.074	1604.266	1284.411
-3.502	24.151	1602.707	1283.668
-2.487	24.252	1601.400	1283.293
-1.473	23.806	1588.737	1269.909
-0.458	20.909	1569.713	1234.167
0.556	16.256	1572.148	1202.896
1.571	14.144	1595.238	1205.163
2.586	13.870	1607.189	1212.086
3.600	12.862	1552.481	1163.615
4.615	7.401	1445.707	1047.510
5.629	1.926	1386.354	969.671
6.644	0.831	1379.345	957.748
7.659	0.807	1378.428	956.879
8.673	0.730	1377.183	955.441
9.688	0.782	1374.935	954.129
10.702	0.575	1371.390	950.278
11.717	3.273	1375.118	969.786
12.731	10.254	1385.287	1021.035
13.746	15.750	1393.953	1062.128
14.761	17.292	1395.432	1072.901
15.775	16.616	1393.598	1067.138
16.790	15.641	1391.037	1058.943
17.804	14.913	1388.736	1052.512
18.819	14.528	1387.093	1048.756
19.834	14.358	1386.049	1046.803
20.848	14.175	1384.382	1044.308
21.863	13.925	1383.208	1041.759
22.877	13.728	1382.015	1039.537
23.892	13.628	1381.268	1038.255
24.907	13.646	1380.259	1037.514
25.921	13.632	1379.484	1036.752
26.936	13.556	1378.706	1035.601
27.950	13.764	1377.506	1035.908
28.965	13.738	1376.505	1034.903
29.980	13.829	1375.637	1034.724
30.994	13.843	1374.679	1033.999
32.009	13.839	1373.552	1033.034
33.023	13.835	1372.703	1032.280
34.038	13.793	1371.346	1030.907
35.053	13.795	1370.477	1030.177
36.067	13.791	1369.163	1029.075
37.082	13.765	1368.381	1028.232
38.096	13.831	1367.261	1027.712
39.111	13.787	1366.535	1026.800
40.126	13.799	1365.241	1025.812
41.140	13.643	1364.499	1024.199
42.155	13.665	1364.483	1024.230
43.169	13.656	1364.017	1023.735
44.184	13.654	1363.939	1023.576
45.199	13.633	1363.601	1023.102
46.213	13.669	1362.614	1022.493
47.228	13.780	1361.167	1022.001
48.242	13.683	1360.323	1020.677
49.257	13.590	1359.167	1019.150
50.271	13.727	1357.159	1018.396
51.286	13.723	1356.156	1017.529
52.301	13.786	1354.471	1016.561
53.315	13.730	1353.768	1015.601
54.330	13.675	1352.945	1014.554
55.344	13.629	1351.589	1013.164
56.359	13.684	1350.176	1012.353
57.374	13.537	1349.895	1011.154
58.388	13.549	1349.064	1010.519
59.403	13.615	1348.259	1010.226
60.417	13.629	1347.412	1009.591
61.432	13.697	1346.258	1009.049
62.447	13.600	1345.566	1007.850
63.461	13.459	1344.251	1005.917
64.476	13.481	1343.600	1005.474
65.490	13.493	1342.188	1004.406
66.505	13.640	1340.213	1003.729
67.520	13.607	1339.197	1002.677
68.534	13.499	1338.276	1001.248
69.549	13.596	1337.000	1000.790
70.563	13.541	1336.495	999.993
71.578	13.484	1335.067	998.488
72.593	13.557	1333.600	997.746
73.607	13.430	1333.541	996.845
74.622	13.474	1332.598	996.319
75.636	13.456	1332.040	995.704
76.651	13.581	1330.713	995.377
77.666	13.669	1330.214	995.443
78.680	13.511	1329.762	994.068
79.695	13.421	1328.752	992.686
80.709	13.588	1327.925	992.979
81.724	13.636	1327.575	992.921
82.739	13.579	1326.376	991.591
83.753	13.532	1325.566	990.622
84.768	13.705	1324.013	990.404
85.782	13.789	1322.941	990.017
86.797	13.692	1321.788	988.484
87.812	13.741	1320.334	987.606
88.826	13.675	1319.185	986.264
89.841	13.760	1318.133	985.893
90.855	13.741	1317.483	985.208
91.870	13.797	1316.537	984.745
92.884	13.705	1315.320	983.204
93.899	13.777	1314.696	983.076
94.914	13.690	1313.960	981.926
95.928	13.798	1313.041	981.790
96.943	13.766	1312.185	980.874
97.957	13.746	1311.423	980.101
98.972	13.769	1310.119	979.177
99.987	13.725	1308.993	977.988
101.001	13.705	1308.250	977.229
102.016	13.666	1307.245	976.162
103.030	13.797	1306.040	975.947
104.045	13.753	1305.389	975.112
105.060	13.710	1304.398	974.033
106.074	13.572	1302.837	971.976
107.089	13.711	1301.199	971.479
108.103	13.644	1300.186	970.247
109.118	13.616	1299.099	969.183
110.133	13.713	1297.319	968.335
111.147	13.726	1296.168	967.466
112.162	13.643	1294.940	965.980
113.176	13.618	1294.055	965.088
114.191	13.706	1292.930	964.680
115.206	13.681	1292.076	963.808
116.220	13.774	1290.340	962.970
117.235	13.662	1289.262	961.433
118.249	13.802	1288.179	961.352
119.264	13.674	1287.312	959.873
120.279	13.693	1286.030	958.946
121.293	13.628	1285.443	958.044
122.308	13.737	1284.051	957.556
123.322	13.786	1282.645	956.701
124.337	13.613	1282.554	955.554
125.352	13.630	1281.236	954.586
126.366	13.526	1280.363	953.253
127.381	13.553	1279.172	952.435
128.395	13.597	1277.771	951.561
129.410	13.584	1276.827	950.701
130.424	13.731	1276.018	950.854
131.439	13.657	1275.030	949.611
132.454	13.654	1274.088	948.810
133.468	13.794	1272.863	948.613
134.483	13.697	1272.714	947.864
135.497	13.718	1271.087	946.690
136.512	13.647	1269.445	944.976
137.527	13.766	1268.282	944.706
138.541	13.669	1267.062	943.161
139.556	13.706	1265.424	942.065
140.570	13.717	1264.811	941.593
141.585	13.803	1263.400	940.942
142.600	13.739	1262.641	939.933
143.614	13.797	1261.680	939.466
144.629	13.953	1260.031	939.036
145.643	13.998	1258.789	938.280
146.658	13.846	1257.764	936.574
147.673	13.854	1256.486	935.588
148.687	13.884	1255.298	934.790
149.702	13.800	1254.387	933.554
150.716	13.753	1252.922	932.119
151.731	13.846	1251.547	931.536
152.746	13.835	1250.535	930.638
153.760	13.724	1249.559	929.205
154.775	13.851	1248.250	928.859
155.789	13.909	1247.540	928.576
156.804	13.942	1246.186	927.668
157.819	13.961	1245.060	926.856
158.833	14.072	1243.749	926.417
159.848	14.070	1242.877	925.670
160.862	13.984	1242.446	924.790
161.877	14.017	1240.925	923.759
162.892	13.960	1240.119	922.764
163.906	13.859	1239.037	921.317
164.921	14.061	1238.192	921.726
165.935	13.981	1237.645	920.793
166.950	13.961	1236.762	919.945
167.964	14.077	1235.679	919.701
168.979	13.955	1235.432	918.760
169.994	13.931	1234.657	917.970
171.008	14.131	1233.356	918.026
172.023	14.008	1232.394	916.550
173.037	14.119	1231.892	916.704
174.052	14.032	1231.262	915.677
175.067	14.109	1230.067	915.129
176.081	14.042	1229.143	913.993
177.096	13.965	1228.232	912.810
178.110	14.196	1226.824	912.954
179.125	14.115	1225.669	911.570
180.140	14.144	1224.515	910.790
181.154	14.238	1222.901	910.023
182.169	14.184	1221.815	908.836
183.183	14.101	1221.058	907.743
184.198	14.211	1219.932	907.422
185.213	14.213	1218.401	906.215
186.227	14.239	1217.544	905.639
187.242	14.356	1216.275	905.252
188.256	14.428	1215.197	904.757
189.271	14.258	1214.627	903.332
190.286	14.231	1213.715	902.430
191.300	14.183	1212.783	901.396
192.315	13.997	1212.479	900.083
193.329	14.159	1211.675	900.282
194.344	14.206	1210.650	899.695
195.359	14.206	1210.098	899.205
196.373	14.284	1209.743	899.284
197.388	14.367	1209.146	899.209
198.402	14.407	1208.952	899.199
199.417	14.495	1208.089	898.951
200.432	14.488	1207.489	898.392
201.446	14.525	1206.295	897.623
202.461	14.546	1204.991	896.683
203.475	14.526	1204.165	895.882
204.490	14.641	1202.804	895.406
205.504	14.496	1202.127	894.048
206.519	14.450	1200.748	892.699
207.534	14.465	1199.941	892.096
208.548	14.540	1198.748	891.531
209.563	14.538	1197.703	890.666
210.577	14.476	1197.302	889.957
211.592	14.751	1195.918	890.319
212.607	14.579	1195.929	889.327
213.621	14.637	1194.503	888.496
214.636	14.608	1193.800	887.741
215.650	14.687	1192.435	887.067
216.665	14.677	1191.092	885.937
217.680	14.761	1190.457	885.835
218.694	14.726	1190.421	885.541
219.709	14.667	1189.254	884.281
220.723	14.766	1188.013	883.806
221.738	14.703	1187.919	883.323
222.753	14.822	1186.477	882.802
223.767	14.705	1186.427	882.070
224.782	14.746	1185.557	881.563
225.796	14.706	1184.948	880.820
226.811	14.964	1183.728	881.193
227.826	14.890	1183.232	880.359
228.840	14.848	1182.843	879.767
229.855	14.771	1182.150	878.770
230.869	14.794	1181.396	878.253
231.884	14.824	1180.594	877.739
232.899	14.765	1180.246	877.091
233.913	14.922	1178.713	876.698
234.928	14.838	1177.927	875.594
235.942	14.759	1177.630	874.880
236.957	14.919	1176.333	874.680
237.972	14.771	1176.039	873.608
238.986	14.819	1175.337	873.261
240.001	14.786	1174.513	872.397
241.015	14.849	1173.667	872.023
242.030	14.964	1172.751	871.866
243.045	14.990	1171.991	871.356
244.059	15.081	1171.045	871.050
245.074	15.096	1170.442	870.601
246.088	15.075	1169.533	869.738
247.103	14.988	1168.581	868.505
248.117	15.178	1168.030	869.000
249.132	15.131	1167.287	868.129
250.147	15.195	1166.735	867.974
251.161	15.195	1165.747	867.160
252.176	15.278	1164.939	866.915
253.190	15.303	1164.351	866.530
254.205	15.314	1163.952	866.214
255.220	15.311	1163.086	865.477
256.234	15.277	1162.796	865.006
257.249	15.325	1162.089	864.653
258.263	15.327	1161.433	864.098
259.278	15.397	1160.264	863.510
260.293	15.410	1160.230	863.477
261.307	15.399	1159.567	862.850
262.322	15.441	1158.801	862.421
263.336	15.340	1158.306	861.456
264.351	15.414	1157.566	861.210
265.366	15.551	1157.062	861.462
266.380	15.469	1156.370	860.450
267.395	15.464	1155.532	859.722
268.409	15.516	1154.582	859.209
269.424	15.451	1154.127	858.458
270.439	15.538	1153.303	858.216
271.453	15.497	1152.922	857.645
272.468	15.572	1152.035	857.294
273.482	15.486	1151.396	856.305
274.497	15.524	1150.300	855.609
275.512	15.485	1149.611	854.818
276.526	15.505	1149.191	854.532
277.541	15.494	1148.819	854.127
278.555	15.535	1148.018	853.663
279.570	15.604	1146.831	853.054
280.585	15.660	1145.786	852.488
281.599	15.644	1145.129	851.842
282.614	15.666	1144.060	851.081
283.628	15.812	1142.234	850.385
284.643	15.725	1142.409	850.001
285.657	15.747	1141.113	849.074
286.672	15.813	1140.603	848.953
287.687	15.766	1139.564	847.866
288.701	15.738	1138.612	846.942
289.716	15.877	1137.547	846.776
290.730	15.798	1137.056	845.934
291.745	15.801	1136.862	845.731
292.760	15.853	1135.560	844.950
293.774	15.921	1135.039	844.828
294.789	15.955	1134.664	844.647
295.803	15.894	1134.066	843.822
296.818	15.856	1133.438	843.085
297.833	15.976	1132.656	843.033
298.847	15.923	1131.718	841.993
299.862	15.895	1130.988	841.239
300.876	15.937	1130.103	840.712
301.891	15.985	1129.644	840.535
302.906	15.978	1128.766	839.776
303.920	16.055	1128.163	839.637
304.935	16.047	1127.506	839.034
305.949	16.109	1127.114	838.975
306.964	16.105	1126.620	838.513
307.979	16.184	1125.454	837.962
308.993	16.239	1124.543	837.485
310.008	16.289	1123.790	837.099
311.022	16.119	1123.337	835.843
312.037	16.259	1122.091	835.532
313.052	16.239	1121.441	834.876
314.066	16.223	1120.220	833.817
315.081	16.149	1119.753	833.028
316.095	16.182	1118.947	832.517
317.110	16.077	1118.399	831.519
318.125	16.199	1117.764	831.573
319.139	16.233	1117.100	831.173
320.154	16.211	1116.343	830.432
321.168	16.137	1115.583	829.429
322.183	16.304	1114.477	829.352
323.197	16.185	1114.555	828.752
324.212	16.326	1113.769	828.789
325.227	16.249	1113.288	827.978
326.241	16.217	1112.854	827.422
327.256	16.223	1111.776	826.581
328.270	16.254	1110.757	825.902
329.285	16.192	1109.882	824.874
330.300	16.253	1108.807	824.299
331.314	16.401	1107.789	824.190
332.329	16.457	1106.969	823.783
333.343	16.284	1106.273	822.349
334.358	16.409	1105.341	822.188
335.373	16.462	1104.451	821.711
336.387	16.337	1104.032	820.723
337.402	16.514	1102.904	820.671
338.416	16.429	1102.101	819.586
339.431	16.452	1101.600	819.253
340.446	16.504	1101.163	819.107
341.460	16.558	1100.554	818.845
342.475	16.612	1099.664	818.373
343.489	16.645	1098.464	817.565
344.504	16.649	1097.533	816.818
345.519	16.706	1096.608	816.332
346.533	16.626	1096.145	815.529
347.548	16.712	1095.221	815.186
348.562	16.675	1094.421	814.342
349.577	16.669	1093.894	813.847
350.592	16.673	1092.995	813.124
351.606	16.663	1092.397	812.561
352.621	16.654	1091.670	811.902
353.635	16.788	1090.908	811.907
354.650	16.599	1090.274	810.460
355.665	16.619	1089.649	810.016
356.679	16.775	1089.165	810.332
357.694	16.750	1088.755	809.835
358.708	16.946	1087.324	809.637
359.723	16.820	1087.129	808.820
360.738	16.727	1086.756	808.026
361.752	16.925	1085.891	808.257
362.767	16.760	1085.828	807.350
363.781	16.840	1084.603	806.748
364.796	16.988	1083.440	806.517
365.810	16.933	1083.598	806.301
366.825	16.911	1082.994	805.673
367.840	17.016	1082.176	805.495
368.854	17.116	1081.432	805.344
369.869	17.103	1080.469	804.494
370.883	17.018	1080.030	803.693
371.898	17.133	1079.323	803.640
372.913	17.011	1079.150	802.860
373.927	17.060	1078.288	802.383
374.942	17.145	1077.883	802.411
375.956	17.221	1077.144	802.149
376.971	17.158	1076.756	801.493
377.986	17.218	1076.072	801.193
379.000	17.240	1075.391	800.721
380.015	17.264	1074.706	800.253
381.029	17.198	1074.286	799.556
382.044	17.234	1073.390	798.987
383.059	17.207	1072.917	798.441
384.073	17.334	1071.859	798.179
385.088	17.369	1070.638	797.363
386.102	17.241	1070.186	796.357
387.117	17.372	1069.036	796.043
388.132	17.328	1068.327	795.237
389.146	17.352	1067.752	794.851
390.161	17.244	1067.089	793.785
391.175	17.419	1066.096	793.792
392.190	17.413	1065.429	793.196
393.205	17.497	1064.468	792.801
394.219	17.468	1063.761	792.068
395.234	17.452	1062.715	791.146
396.248	17.329	1062.137	790.075
397.263	17.307	1061.155	789.172
398.278	17.366	1060.658	789.006
399.292	17.321	1060.215	788.398
400.307	17.380	1059.141	787.803
401.321	17.431	1058.399	787.420
402.336	17.385	1057.975	786.821
403.350	17.416	1056.997	786.167
404.365	17.512	1056.221	785.961
405.380	17.361	1055.884	784.945
406.394	17.548	1054.955	785.046
407.409	17.617	1053.944	784.545
408.423	17.666	1053.252	784.186
409.438	17.615	1052.780	783.531
410.453	17.580	1052.401	783.019
411.467	17.642	1051.735	782.736
412.482	17.736	1050.685	782.316
413.496	17.653	1049.775	781.192
414.511	17.694	1049.532	781.129
415.526	17.811	1049.045	781.232
416.540	17.824	1048.369	780.719
417.555	17.888	1047.447	780.254
418.569	17.749	1047.666	779.714
419.584	17.840	1047.490	779.929
420.599	17.847	1046.598	779.229
421.613	109.590	1329.018	1488.998
422.628	100.842	1370.146	1489.093
