DTS Sentinel unit serial number:	SN413079Multiplexer serial number:	ORYXHardware model number:	OX4-SRSoftware version number:	ORYX F/W v4.00 Oryx Data Collector v3.7.2.0data status	okinstallation	princeton_trtdifferential loss correction	single-endedforward channel	channel 2reverse channel	N/Adate	2019/09/17time	15:43:34forward acquisition time	60.00reverse acquisition time	0.00gamma	496.2192k internal	0.2301k external	0.2301temperature offset calibration	0.9983default loss term (dB/km)	0.3790temperature slope calibration	1.0000multiplexer offset coefficient	1.0000multiplexer slope coefficient	1.0000fibre end	0.00T internal ref (°C)	38.89T ext. ref 1 (°C)	0.37T ext. ref 2 (°C)	36.60length (m)	temperature (°C)	Stokes	anti-Stokes-747.200	-105.951	0.117	0.027
-746.185	-121.717	0.106	-0.018
-745.171	-19.904	0.354	-0.223
-744.156	343.526	0.124	0.247
-743.142	800.000	-0.076	0.240
-742.127	-4.255	-0.223	0.158
-741.112	-200.000	0.039	-0.241
-740.098	-117.048	-0.102	-0.019
-739.083	53.466	0.140	0.136
-738.069	-180.074	-0.179	0.004
-737.054	-17.623	0.188	0.120
-736.039	379.645	0.116	0.243
-735.025	36.490	-0.120	0.108
-734.010	-200.000	-0.032	-0.342
-732.996	-90.079	-0.147	0.044
-731.981	54.499	-0.188	-0.184
-730.966	272.062	-0.021	0.037
-729.952	-111.255	-0.275	-0.057
-728.937	-79.259	-0.259	0.090
-727.923	-72.561	-0.323	-0.122
-726.908	-106.495	0.268	-0.061
-725.894	-28.700	-0.336	-0.197
-724.879	36.251	0.082	0.073
-723.864	-96.678	-0.332	-0.089
-722.850	-182.830	-0.051	-0.001
-721.835	-60.067	-0.234	0.102
-720.821	-8.540	-0.212	-0.145
-719.806	163.865	-0.188	0.270
-718.791	16.605	0.343	0.276
-717.777	187.155	0.169	-0.257
-716.762	2.598	0.004	-0.003
-715.748	-19.850	-0.156	0.098
-714.733	-200.000	-0.015	0.257
-713.718	7.227	0.038	0.029
-712.704	800.000	-0.105	0.297
-711.689	168.732	-0.051	0.074
-710.675	-200.000	0.028	0.204
-709.660	-200.000	0.038	-0.217
-708.645	-83.234	-0.237	0.077
-707.631	301.969	-0.166	0.312
-706.616	-34.202	-0.189	-0.106
-705.602	800.000	0.048	-0.171
-704.587	-74.562	-0.214	0.079
-703.572	137.748	-0.114	-0.152
-702.558	163.915	0.096	-0.138
-701.543	34.897	0.313	0.279
-700.529	-50.322	0.156	-0.075
-699.514	521.180	-0.039	-0.092
-698.499	-40.964	-0.097	0.051
-697.485	45.843	-0.015	0.014
-696.470	-45.596	-0.136	-0.069
-695.456	-136.311	0.214	0.025
-694.441	-79.873	0.267	-0.091
-693.426	226.536	0.069	-0.115
-692.412	38.765	0.062	0.056
-691.397	401.728	0.122	-0.261
-690.383	-200.000	0.011	0.146
-689.368	800.000	-0.033	-0.136
-688.354	800.000	0.060	-0.237
-687.339	800.000	0.017	0.060
-686.324	-200.000	0.008	-0.181
-685.310	-200.000	-0.022	-0.128
-684.295	-200.000	0.001	-0.149
-683.281	-153.421	-0.189	-0.013
-682.266	207.211	-0.149	-0.236
-681.251	-179.439	-0.458	0.010
-680.237	-17.255	-0.187	-0.120
-679.222	-28.636	-0.137	0.080
-678.208	593.827	-0.063	-0.158
-677.193	-152.114	-0.462	0.034
-676.178	800.000	0.024	0.098
-675.164	-200.000	-0.005	-0.274
-674.149	-31.528	-0.289	-0.165
-673.135	150.924	0.033	0.046
-672.120	460.848	-0.111	-0.251
-671.105	-165.382	0.137	0.006
-670.091	-200.000	0.069	-0.362
-669.076	320.163	0.040	-0.078
-668.062	800.000	-0.075	0.233
-667.047	-200.000	0.009	0.349
-666.032	458.527	0.101	0.229
-665.018	-29.162	0.222	-0.130
-664.003	161.350	0.254	-0.361
-662.989	186.971	-0.238	-0.361
-661.974	-25.336	0.148	0.089
-660.959	-13.862	-0.105	-0.069
-659.945	-200.000	-0.039	-0.189
-658.930	108.041	-0.064	0.078
-657.916	71.942	0.171	-0.180
-656.901	-4.473	0.140	-0.099
-655.886	-55.703	0.057	-0.026
-654.872	-98.892	-0.360	0.093
-653.857	-200.000	-0.017	-0.334
-652.843	800.000	0.037	0.144
-651.828	33.868	-0.226	0.199
-650.814	302.830	0.054	-0.101
-649.799	-130.389	-0.434	-0.060
-648.784	-134.314	0.309	-0.039
-647.770	29.686	-0.121	0.104
-646.755	-22.209	-0.160	-0.098
-645.741	-200.000	-0.017	-0.178
-644.726	294.398	0.073	0.136
-643.711	-36.416	0.143	0.078
-642.697	-71.738	0.144	0.055
-641.682	38.078	-0.278	0.251
-640.668	126.639	-0.211	0.272
-639.653	102.544	-0.179	-0.213
-638.638	244.053	0.047	-0.080
-637.624	-200.000	-0.042	0.226
-636.609	800.000	0.030	-0.123
-635.595	-200.000	0.001	0.027
-634.580	-120.569	0.221	-0.038
-633.565	-34.982	0.195	-0.108
-632.551	285.903	-0.060	-0.110
-631.536	149.827	-0.263	-0.362
-630.522	12.492	0.239	-0.187
-629.507	-55.554	0.049	-0.022
-628.492	76.377	-0.170	0.183
-627.478	-75.488	0.190	-0.069
-626.463	-200.000	0.032	-0.271
-625.449	800.000	0.042	-0.170
-624.434	800.000	-0.088	0.260
-623.419	-160.770	0.125	-0.007
-622.405	-39.022	0.090	0.048
-621.390	-122.398	0.052	-0.009
-620.376	-200.000	-0.010	-0.431
-619.361	-94.963	-0.207	0.057
-618.346	-36.158	0.128	0.070
-617.332	20.957	-0.082	-0.067
-616.317	-102.343	-0.150	-0.037
-615.303	-47.350	0.204	0.101
-614.288	-148.321	-0.144	0.012
-613.273	-1.114	-0.147	-0.105
-612.259	12.830	-0.171	-0.134
-611.244	54.681	0.049	0.048
-610.230	-37.346	0.048	0.026
-609.215	-19.495	-0.144	-0.090
-608.201	-200.000	0.010	-0.241
-607.186	-103.556	0.275	-0.065
-606.171	22.194	-0.127	-0.105
-605.157	126.231	0.049	0.063
-604.142	44.334	-0.257	-0.239
-603.128	-29.964	-0.222	0.128
-602.113	-127.369	-0.262	-0.039
-601.098	228.020	-0.136	-0.224
-600.084	-115.089	0.161	0.031
-599.069	800.000	0.069	-0.240
-598.055	135.052	0.066	0.087
-597.040	20.166	-0.287	0.235
-596.025	-65.948	-0.178	0.072
-595.011	-180.401	-0.059	-0.001
-593.996	-50.727	0.348	0.166
-592.982	168.258	-0.118	-0.171
-591.967	-150.114	0.079	0.006
-590.952	90.700	-0.207	0.235
-589.938	-120.883	-0.272	-0.046
-588.923	-3.829	0.292	-0.205
-587.909	-200.000	0.000	-0.185
-586.894	59.840	-0.176	-0.176
-585.879	-145.183	0.208	0.019
-584.865	-197.044	0.325	-0.002
-583.850	75.316	-0.076	0.081
-582.836	94.199	0.097	0.111
-581.821	-200.000	-0.031	0.239
-580.806	31.167	0.216	-0.187
-579.792	-90.826	0.215	0.063
-578.777	-29.692	0.066	-0.038
-577.763	-7.228	-0.115	0.079
-576.748	10.035	-0.229	-0.176
-575.733	-153.636	-0.178	-0.012
-574.719	2.807	-0.289	-0.212
-573.704	-200.000	0.011	-0.203
-572.690	-17.052	0.286	0.183
-571.675	62.737	-0.261	0.265
-570.661	-139.424	-0.126	-0.014
-569.646	-138.782	0.270	-0.030
-568.631	-12.510	-0.198	-0.131
-567.617	-200.000	0.008	0.147
-566.602	340.305	-0.197	-0.390
-565.588	252.325	-0.158	0.272
-564.573	-9.460	0.090	-0.061
-563.558	12.834	0.120	0.094
-562.544	800.000	-0.089	0.293
-561.529	-34.781	-0.091	0.050
-560.515	300.891	-0.032	0.060
-559.500	-115.125	-0.086	-0.016
-558.485	-64.384	-0.478	-0.197
-557.471	-105.938	-0.282	-0.064
-556.456	237.776	-0.044	0.073
-555.442	-200.000	0.104	-0.475
-554.427	192.446	0.349	-0.534
-553.412	36.438	-0.121	-0.108
-552.398	-200.000	0.034	-0.151
-551.383	-8.177	-0.230	0.157
-550.369	258.230	0.057	0.099
-549.354	11.565	0.126	-0.098
-548.339	-142.230	-0.051	0.005
-547.325	-200.000	-0.001	-0.252
-546.310	-96.503	0.309	-0.083
-545.296	-115.733	-0.218	-0.041
-544.281	-92.362	-0.198	0.056
-543.266	-156.464	0.160	-0.010
-542.252	51.136	-0.189	-0.181
-541.237	69.703	-0.112	-0.117
-540.223	52.266	0.280	0.270
-539.208	-68.686	-0.100	-0.039
-538.193	-200.000	-0.084	0.394
-537.179	620.415	-0.028	-0.072
-536.164	164.003	0.200	-0.284
-535.150	-200.000	-0.042	-0.393
-534.135	31.152	-0.056	0.049
-533.121	800.000	0.062	0.234
-532.106	-200.000	0.005	-0.113
-531.091	-0.413	-0.243	-0.175
-530.077	-77.411	-0.170	0.060
-529.062	-200.000	0.038	-0.179
-528.048	-200.000	0.019	-0.155
-527.033	-111.338	-0.159	-0.033
-526.018	47.200	0.265	-0.249
-525.004	-23.810	-0.264	-0.160
-523.989	194.569	-0.234	0.358
-522.975	-129.278	0.220	0.031
-521.960	53.726	-0.073	-0.071
-520.945	147.904	0.097	0.132
-519.931	65.467	0.168	0.172
-518.916	94.811	-0.179	-0.205
-517.902	-56.112	-0.121	0.055
-516.887	28.649	0.231	-0.198
-515.872	-159.514	-0.179	0.010
-514.858	-131.236	-0.195	0.026
-513.843	-110.029	0.187	0.040
-512.829	-152.132	-0.356	-0.026
-511.814	-129.101	0.254	0.036
-510.799	71.261	0.019	0.020
-509.785	-149.415	-0.319	0.026
-508.770	321.383	0.130	-0.249
-507.756	800.000	0.055	0.180
-506.741	800.000	-0.158	0.485
-505.726	206.655	-0.074	0.117
-504.712	567.950	0.110	0.271
-503.697	800.000	-0.051	-0.174
-502.683	-87.902	-0.072	-0.022
-501.668	209.303	-0.065	-0.103
-500.653	20.457	0.061	-0.050
-499.639	53.479	0.142	0.137
-498.624	-84.236	0.147	0.047
-497.610	-200.000	-0.006	0.129
-496.595	-11.189	0.214	-0.142
-495.581	-200.000	-0.014	-0.089
-494.566	-200.000	0.054	0.241
-493.551	233.010	-0.144	-0.238
-492.537	-128.439	0.269	0.039
-491.522	-173.051	-0.160	0.005
-490.508	17.643	0.102	-0.082
-489.493	-125.838	-0.382	0.058
-488.478	-32.231	0.101	0.057
-487.464	32.062	0.035	0.030
-486.449	135.191	-0.089	-0.117
-485.435	-83.847	0.150	-0.048
-484.420	800.000	0.057	-0.240
-483.405	-122.088	-0.066	-0.011
-482.391	66.590	-0.136	-0.140
-481.376	-100.530	-0.253	0.063
-480.362	-39.375	-0.170	-0.090
-479.347	-74.593	-0.239	-0.087
-478.332	-103.793	-0.166	0.039
-477.318	-43.047	-0.178	-0.091
-476.303	52.640	0.069	0.067
-475.289	-68.835	-0.165	0.064
-474.274	183.113	-0.170	-0.253
-473.259	216.001	-0.093	0.150
-472.245	-44.360	0.213	-0.108
-471.230	-115.792	-0.155	0.029
-470.216	728.837	-0.040	-0.108
-469.201	139.045	-0.106	-0.140
-468.186	-200.000	-0.044	0.199
-467.172	55.047	0.053	0.052
-466.157	-103.770	0.238	0.056
-465.143	-200.000	0.069	0.395
-464.128	64.750	-0.215	-0.219
-463.113	-40.174	-0.132	-0.069
-462.099	8.211	0.166	-0.126
-461.084	-153.897	-0.385	0.026
-460.070	-154.542	0.260	0.018
-459.055	364.125	-0.149	0.302
-458.040	-200.000	0.025	0.178
-457.026	-200.000	-0.016	0.201
-456.011	83.659	-0.117	-0.128
-454.997	300.012	0.058	0.107
-453.982	580.501	-0.086	0.212
-452.968	126.632	0.177	0.227
-451.953	-17.093	0.200	0.127
-450.938	-138.687	-0.183	-0.020
-449.924	130.337	0.201	0.259
-448.909	118.416	0.083	0.104
-447.895	48.008	0.168	0.158
-446.880	-131.785	0.051	0.007
-445.865	376.448	-0.119	0.244
-444.851	800.000	0.105	-0.307
-443.836	444.875	-0.069	-0.153
-442.822	-108.440	-0.488	-0.106
-441.807	112.867	-0.081	0.099
-440.792	-86.406	0.112	0.035
-439.778	204.709	0.040	0.063
-438.763	-150.832	0.093	0.007
-437.749	138.843	-0.274	0.363
-436.734	-23.936	0.203	0.122
-435.719	142.742	0.115	-0.154
-434.705	-148.359	-0.124	-0.010
-433.690	800.000	-0.055	-0.225
-432.676	-34.948	0.089	0.049
-431.661	171.455	0.152	-0.220
-430.646	-143.765	-0.184	-0.018
-429.632	569.657	-0.070	-0.172
-428.617	120.919	-0.115	0.144
-427.603	12.581	0.190	-0.147
-426.588	800.000	-0.062	0.238
-425.573	749.440	0.102	0.276
-424.559	647.169	-0.045	0.116
-423.544	691.602	0.036	0.094
-422.530	9.195	-0.004	-0.003
-421.515	11.598	0.212	0.164
-420.500	-73.638	0.252	-0.092
-419.486	-35.840	0.135	-0.074
-418.471	-200.000	0.005	0.043
-417.457	-200.000	0.031	-0.268
-416.442	-8.814	-0.177	0.119
-415.428	29.813	0.109	-0.094
-414.413	25.529	0.168	0.141
-413.398	577.855	0.047	-0.115
-412.384	527.120	0.064	-0.152
-411.369	-57.340	-0.097	-0.043
-410.355	202.870	0.275	0.427
-409.340	-200.000	0.094	-0.454
-408.325	-200.000	0.012	0.071
-407.311	27.858	-0.097	0.082
-406.296	39.000	0.136	-0.122
-405.282	8.168	0.175	0.132
-404.267	-88.444	0.184	0.055
-403.252	-175.639	-0.350	0.010
-402.238	-33.801	-0.204	-0.113
-401.223	49.748	-0.185	-0.175
-400.209	-182.150	-0.131	0.002
-399.194	-69.155	0.431	0.167
-398.179	-200.000	0.006	-0.240
-397.165	-51.218	-0.212	-0.100
-396.150	-21.040	0.352	-0.216
-395.136	233.096	-0.228	-0.377
-394.121	-23.248	0.363	0.220
-393.106	42.498	0.059	0.054
-392.092	322.771	0.078	0.149
-391.077	184.560	0.182	0.271
-390.063	86.884	-0.092	-0.102
-389.048	22.321	0.081	-0.066
-388.033	323.581	0.125	-0.240
-387.019	-76.720	0.312	0.110
-386.004	300.786	-0.133	0.246
-384.990	197.779	-0.136	-0.209
-383.975	193.323	-0.087	-0.132
-382.960	-58.648	0.151	0.066
-381.946	661.411	-0.016	0.041
-380.931	51.519	-0.158	-0.151
-379.917	-130.988	-0.188	-0.025
-378.902	452.202	-0.064	0.142
-377.888	-172.525	0.096	0.003
-376.873	160.992	-0.046	-0.065
-375.858	347.108	0.173	-0.342
-374.844	-200.000	0.003	0.016
-373.829	-131.228	0.313	-0.042
-372.815	66.685	0.128	0.130
-371.800	-114.472	0.062	0.012
-370.785	-87.006	0.145	0.044
-369.771	397.657	0.157	0.331
-368.756	230.201	0.057	0.093
-367.742	-119.902	0.095	-0.016
-366.727	-200.000	-0.046	-0.368
-365.712	-147.769	-0.110	0.009
-364.698	-183.146	-0.099	-0.002
-363.683	202.876	-0.065	-0.101
-362.669	-194.706	0.149	-0.001
-361.654	415.060	-0.130	0.279
-360.639	-50.716	0.198	0.094
-359.625	662.335	0.050	-0.130
-358.610	734.756	0.040	-0.108
-357.596	-200.000	0.011	-0.252
-356.581	-200.000	-0.002	0.085
-355.566	-81.466	0.203	-0.067
-354.552	134.059	-0.142	0.185
-353.537	60.012	-0.031	-0.031
-352.523	-106.454	0.484	-0.108
-351.508	-125.407	-0.126	-0.019
-350.493	-200.000	-0.028	-0.168
-349.479	800.000	-0.116	0.334
-348.464	-86.936	-0.270	0.083
-347.450	-200.000	-0.052	0.350
-346.435	144.030	0.134	0.179
-345.420	-142.668	0.227	-0.022
-344.406	256.761	-0.018	-0.031
-343.391	215.123	-0.053	0.084
-342.377	-149.606	0.258	-0.020
-341.362	120.868	-0.065	0.081
-340.348	-200.000	-0.027	0.216
-339.333	217.311	0.282	0.451
-338.318	-126.062	0.372	0.056
-337.304	459.534	0.074	0.166
-336.289	-1.874	-0.124	-0.087
-335.275	-95.424	-0.426	-0.115
-334.260	-121.727	0.236	0.039
-333.245	574.809	0.066	-0.161
-332.231	119.995	-0.118	0.147
-331.216	-92.055	0.317	-0.090
-330.202	-196.440	0.085	-0.001
-329.187	773.968	-0.074	0.202
-328.172	262.566	0.054	0.093
-327.158	73.976	0.102	0.107
-326.143	-104.071	-0.176	-0.041
-325.129	121.063	0.088	0.110
-324.114	-76.858	-0.109	0.038
-323.099	-90.913	-0.508	0.147
-322.085	-149.642	-0.028	0.002
-321.070	-149.839	-0.067	-0.005
-320.056	-200.000	0.022	0.155
-319.041	-164.950	0.190	-0.009
-318.026	-94.158	-0.144	-0.040
-317.012	93.225	-0.191	0.217
-315.997	189.435	-0.161	0.242
-314.983	800.000	-0.071	-0.254
-313.968	-200.000	-0.042	-0.000
-312.953	-12.611	0.265	-0.174
-311.939	-200.000	0.057	0.322
-310.924	-103.930	0.527	-0.123
-309.910	304.444	0.146	-0.272
-308.895	255.767	-0.009	0.016
-307.880	-200.000	-0.044	-0.269
-306.866	-200.000	-0.013	0.066
-305.851	-98.127	-0.150	0.039
-304.837	383.981	0.114	-0.235
-303.822	31.245	0.224	0.193
-302.807	-6.346	-0.317	0.217
-301.793	63.747	0.089	-0.090
-300.778	-200.000	0.022	-0.225
-299.764	-90.163	0.419	-0.122
-298.749	-41.552	0.218	0.112
-297.735	800.000	0.038	-0.165
-296.720	165.568	0.108	-0.153
-295.705	-78.096	-0.370	0.128
-294.691	-68.197	-0.117	-0.046
-293.676	-109.929	-0.248	-0.052
-292.662	49.496	-0.041	-0.038
-291.647	43.666	-0.154	-0.141
-290.632	52.137	0.113	-0.107
-289.618	800.000	0.092	0.270
-288.603	37.500	0.128	0.113
-287.589	-47.441	-0.157	0.076
-286.574	19.237	0.201	0.162
-285.559	-200.000	-0.022	-0.220
-284.545	-170.382	-0.117	0.004
-283.530	-135.482	0.110	-0.013
-282.516	-148.131	0.486	-0.040
-281.501	157.205	-0.019	-0.027
-280.486	212.878	-0.053	-0.084
-279.472	-93.431	-0.408	0.113
-278.457	800.000	-0.034	0.122
-277.443	-130.088	0.173	-0.024
-276.428	4.907	-0.310	-0.228
-275.413	687.505	-0.054	0.141
-274.399	-142.319	0.377	-0.037
-273.384	36.334	0.121	-0.107
-272.370	-145.937	-0.285	0.025
-271.355	88.422	0.052	0.058
-270.340	16.752	0.051	0.041
-269.326	-4.350	0.327	0.226
-268.311	-147.506	-0.249	0.021
-267.297	-37.599	0.365	-0.195
-266.282	-200.000	0.001	-0.025
-265.267	-123.227	-0.179	-0.029
-264.253	128.569	0.028	-0.036
-263.238	-32.190	-0.215	0.120
-262.224	-115.963	-0.286	0.053
-261.209	97.529	-0.082	0.094
-260.195	140.095	0.120	0.158
-259.180	-25.566	0.125	-0.074
-258.165	56.068	-0.326	0.317
-257.151	-112.316	0.212	0.043
-256.136	-117.649	0.168	-0.030
-255.122	-200.000	-0.045	0.345
-254.107	-110.958	-0.321	0.066
-253.092	122.228	-0.037	-0.046
-252.078	-200.000	0.029	0.271
-251.063	695.751	0.149	0.392
-250.049	-200.000	0.029	0.240
-249.034	289.090	0.036	0.065
-248.019	-200.000	0.457	0.001
-247.005	260.698	0.172	0.298
-245.990	-171.179	-0.054	-0.002
-244.976	-200.000	0.023	-0.186
-243.961	371.447	-0.013	0.027
-242.946	-144.828	-0.113	-0.010
-241.932	60.136	0.141	0.139
-240.917	-19.140	0.273	-0.170
-239.903	8.897	-0.116	-0.088
-238.888	-133.432	0.196	-0.025
-237.873	72.870	-0.202	-0.210
-236.859	730.869	-0.025	-0.067
-235.844	62.534	-0.262	-0.261
-234.830	-128.536	-0.197	-0.028
-233.815	800.000	0.102	0.298
-232.800	-182.126	-0.127	0.002
-231.786	-78.143	0.273	-0.094
-230.771	-149.510	-0.210	0.017
-229.757	-5.221	0.233	-0.160
-228.742	244.061	-0.252	0.422
-227.727	800.000	-0.047	-0.148
-226.713	-135.069	0.308	0.037
-225.698	-200.000	0.038	-0.315
-224.684	800.000	0.067	-0.188
-223.669	154.503	0.179	0.246
-222.655	61.856	-0.060	-0.059
-221.640	28.761	0.294	0.248
-220.625	-200.000	-0.000	0.151
-219.611	130.412	0.129	-0.165
-218.596	681.458	0.191	0.496
-217.582	800.000	0.078	0.275
-216.567	800.000	-0.128	-0.443
-215.552	-12.021	-0.349	0.228
-214.538	-60.969	0.137	0.058
-213.523	139.570	-0.140	-0.184
-212.509	-200.000	-0.012	-0.115
-211.494	-200.000	0.042	-0.299
-210.479	16.613	0.079	0.062
-209.465	800.000	-0.011	0.045
-208.450	346.932	-0.159	0.312
-207.436	-62.232	-0.112	-0.047
-206.421	-60.392	-0.189	0.080
-205.406	80.843	0.127	0.137
-204.392	-87.817	-0.202	0.061
-203.377	244.892	-0.122	-0.205
-202.363	83.361	0.020	0.022
-201.348	33.542	0.317	-0.275
-200.333	-200.000	0.022	-0.127
-199.319	800.000	0.053	-0.222
-198.304	-30.969	-0.132	0.075
-197.290	-78.100	-0.201	-0.069
-196.275	800.000	-0.085	-0.257
-195.260	64.114	-0.206	-0.207
-194.246	800.000	0.066	0.227
-193.231	-138.298	0.135	-0.015
-192.217	-200.000	0.063	-0.427
-191.202	-129.217	0.621	0.086
-190.187	800.000	-0.072	0.206
-189.173	800.000	0.061	0.236
-188.158	-88.218	-0.176	0.053
-187.144	50.777	0.058	-0.054
-186.129	27.256	-0.264	-0.221
-185.114	-77.589	-0.040	-0.014
-184.100	-114.661	-0.232	0.044
-183.085	93.253	0.151	-0.171
-182.071	-121.219	0.266	0.044
-181.056	513.129	-0.124	0.288
-180.042	104.348	0.050	-0.059
-179.027	198.976	0.163	-0.249
-178.012	-65.559	-0.143	-0.057
-176.998	81.247	0.144	0.155
-175.983	-155.554	0.153	0.010
-174.969	800.000	-0.076	0.264
-173.954	-122.367	-0.207	0.034
-172.939	-67.458	0.142	0.056
-171.925	-86.555	0.161	0.049
-170.910	161.752	-0.161	0.225
-169.896	-99.891	0.274	0.068
-168.881	102.817	0.105	0.122
-167.866	-61.782	-0.212	-0.089
-166.852	-56.733	-0.206	-0.091
-165.837	-102.931	0.399	0.094
-164.823	800.000	0.045	-0.138
-163.808	800.000	-0.066	0.220
-162.793	256.571	-0.067	-0.114
-161.779	5.220	-0.240	0.176
-160.764	100.399	0.146	-0.169
-159.750	-200.000	-0.010	-0.070
-158.735	344.548	0.143	-0.280
-157.720	-63.587	-0.055	-0.023
-156.706	-135.050	0.370	-0.044
-155.691	-169.491	-0.131	0.005
-154.677	150.243	0.155	-0.210
-153.662	-151.706	-0.382	0.028
-152.647	-163.128	-0.214	-0.010
-151.633	80.558	-0.082	0.087
-150.618	-108.024	-0.326	-0.070
-149.604	197.632	-0.043	-0.065
-148.589	800.000	0.078	0.233
-147.574	-110.738	-0.217	-0.045
-146.560	-161.296	0.099	-0.005
-145.545	275.628	-0.113	0.199
-144.531	-176.012	0.277	-0.007
-143.516	241.774	0.148	0.246
-142.502	122.112	0.092	0.114
-141.487	-42.600	-0.471	0.239
-140.472	9.722	0.244	0.184
-139.458	48.935	0.129	0.121
-138.443	86.238	-0.219	-0.240
-137.429	483.410	0.141	0.320
-136.414	-109.376	0.340	0.072
-135.399	-200.000	0.023	-0.125
-134.385	-200.000	0.026	0.302
-133.370	-145.026	0.314	0.028
-132.356	490.783	0.143	0.326
-131.341	160.513	-0.194	-0.269
-130.326	251.182	-0.088	-0.148
-129.312	40.834	0.103	0.092
-128.297	-133.256	-0.127	0.016
-127.283	-200.000	-0.057	-0.274
-126.268	560.783	0.192	-0.461
-125.253	-67.695	-0.094	0.037
-124.239	103.653	-0.214	-0.250
-123.224	-178.973	-0.153	0.003
-122.210	800.000	-0.029	0.106
-121.195	681.747	0.083	0.214
-120.180	-200.000	-0.010	-0.138
-119.166	800.000	-0.033	-0.132
-118.151	-68.519	-0.114	-0.044
-117.137	-81.058	-0.043	0.014
-116.122	800.000	0.066	0.216
-115.107	-56.136	0.216	0.096
-114.093	450.905	0.109	0.239
-113.078	119.698	0.047	-0.058
-112.064	800.000	-0.047	-0.174
-111.049	800.000	0.085	-0.303
-110.034	-199.297	-0.376	-0.002
-109.020	-91.607	0.158	-0.045
-108.005	-115.964	0.443	-0.082
-106.991	186.439	-0.158	-0.234
-105.976	0.200	0.231	0.163
-104.962	-82.278	0.144	-0.047
-103.947	-133.435	0.376	0.047
-102.932	155.406	-0.046	0.063
-101.918	93.520	0.176	0.198
-100.903	800.000	0.051	-0.198
-99.889	38.027	0.194	-0.171
-98.874	-77.055	-0.234	0.081
-97.859	-110.615	-0.162	-0.033
-96.845	401.762	-0.055	0.114
-95.830	90.662	0.162	-0.180
-94.816	-54.154	-0.279	0.126
-93.801	678.290	0.017	0.044
-92.786	-108.206	0.102	-0.022
-91.772	-65.571	0.284	-0.113
-90.757	-166.786	0.192	0.008
-89.743	-84.580	0.232	0.073
-88.728	-200.000	-0.001	0.192
-87.713	-95.842	0.171	-0.045
-86.699	800.000	-0.081	0.295
-85.684	-115.513	-0.288	0.054
-84.670	-122.595	0.012	-0.002
-83.655	199.872	0.139	-0.211
-82.640	-93.185	-0.094	0.026
-81.626	13.951	-0.264	0.204
-80.611	-200.000	-0.007	0.181
-79.597	800.000	0.058	0.227
-78.582	110.919	-0.249	0.298
-77.567	-200.000	-0.004	0.114
-76.553	302.803	-0.080	0.146
-75.538	-18.775	0.104	-0.064
-74.524	-98.682	0.086	0.022
-73.509	207.053	0.132	0.204
-72.494	-82.420	0.229	0.074
-71.480	-200.000	0.059	-0.315
-70.465	-200.000	0.013	-0.181
-69.451	314.597	-0.125	-0.234
-68.436	-200.000	-0.001	-0.185
-67.422	-200.000	0.033	-0.222
-66.407	800.000	-0.049	0.212
-65.392	-200.000	-0.011	0.130
-64.378	-106.248	0.134	0.030
-63.363	-185.352	-0.324	-0.005
-62.349	-1.180	-0.182	-0.128
-61.334	43.535	-0.763	-0.692
-60.319	-52.622	0.533	0.244
-59.305	-200.000	0.062	-0.881
-58.290	24.049	0.614	0.503
-57.276	-200.000	0.337	1.600
-56.261	-200.000	78.531	507.211
-55.246	481.201	1365.902	3075.998
-54.232	142.279	2617.202	3446.003
-53.217	105.702	2380.882	2793.286
-52.203	47.603	1987.604	1839.308
-51.188	42.106	1768.954	1593.338
-50.173	39.386	1723.021	1530.790
-49.159	53.407	1760.195	1674.072
-48.144	57.812	1778.413	1725.888
-47.130	41.999	1741.435	1567.471
-46.115	38.969	1726.843	1530.690
-45.100	38.794	1722.292	1525.239
-44.086	38.823	1719.660	1523.072
-43.071	38.730	1717.038	1519.969
-42.057	38.737	1714.623	1517.821
-41.042	38.726	1712.585	1515.875
-40.027	38.721	1710.863	1514.250
-39.013	38.760	1708.125	1512.066
-37.998	38.705	1706.878	1510.484
-36.984	38.809	1705.035	1509.589
-35.969	38.951	1703.418	1509.195
-34.954	39.044	1701.492	1508.139
-33.940	38.948	1699.909	1505.939
-32.925	38.879	1698.472	1504.080
-31.911	38.958	1696.273	1502.674
-30.896	38.918	1694.121	1500.405
-29.881	38.795	1693.122	1498.521
-28.867	38.928	1691.032	1497.629
-27.852	38.986	1689.604	1496.747
-26.838	38.900	1688.061	1494.661
-25.823	38.956	1687.381	1494.427
-24.809	38.868	1685.933	1492.414
-23.794	38.965	1683.726	1491.143
-22.779	38.902	1682.410	1489.440
-21.765	38.948	1680.808	1488.307
-20.750	38.824	1679.294	1485.966
-19.736	38.843	1677.850	1484.780
-18.721	38.955	1675.922	1483.862
-17.706	38.987	1673.983	1482.322
-16.692	38.833	1672.968	1480.207
-15.677	38.894	1671.667	1479.455
-14.663	38.947	1669.840	1478.181
-13.648	38.814	1668.429	1475.869
-12.633	38.930	1666.442	1474.925
-11.619	38.851	1665.502	1473.439
-10.604	38.890	1663.669	1472.054
-9.590	38.860	1662.510	1470.743
-8.575	38.936	1661.124	1470.033
-7.560	38.921	1660.256	1469.091
-6.546	38.950	1658.931	1468.077
-5.531	38.882	1657.992	1466.684
-4.517	38.869	1656.281	1465.008
-3.502	38.907	1655.118	1464.207
-2.487	38.940	1653.511	1462.975
-1.473	39.221	1642.678	1455.413
-0.458	37.446	1623.587	1425.442
0.556	31.854	1622.565	1387.886
1.571	28.326	1644.866	1380.304
2.586	26.949	1657.908	1380.661
3.600	23.861	1603.760	1312.684
4.615	13.277	1483.652	1141.574
5.629	2.841	1408.470	1014.918
6.644	0.594	1398.286	992.726
7.659	0.455	1396.504	990.467
8.673	0.283	1395.884	988.810
9.688	0.168	1394.673	987.111
10.702	0.053	1391.380	983.942
11.717	4.051	1398.884	1015.409
12.731	13.592	1413.935	1089.229
13.746	18.350	1420.401	1125.458
14.761	17.510	1416.690	1116.915
15.775	16.436	1413.750	1107.459
16.790	15.404	1410.984	1098.444
17.804	14.546	1409.577	1091.638
18.819	14.252	1407.237	1087.810
19.834	13.871	1405.953	1084.229
20.848	13.628	1404.799	1081.659
21.863	13.462	1403.346	1079.366
22.877	13.239	1402.178	1076.915
23.892	13.157	1401.625	1075.860
24.907	13.151	1400.211	1074.646
25.921	13.194	1399.415	1074.214
26.936	13.230	1398.401	1073.580
27.950	13.208	1397.640	1072.753
28.965	13.294	1396.371	1072.243
29.980	13.342	1396.117	1072.263
30.994	13.422	1394.865	1071.725
32.009	13.437	1393.857	1070.956
33.023	13.427	1392.634	1069.855
34.038	13.424	1391.380	1068.782
35.053	13.359	1390.674	1067.721
36.067	13.398	1388.906	1066.521
37.082	13.331	1388.286	1065.517
38.096	13.245	1387.713	1064.430
39.111	13.414	1386.797	1064.722
40.126	13.212	1386.311	1062.956
41.140	13.313	1384.915	1062.441
42.155	13.327	1384.576	1062.173
43.169	13.224	1384.309	1061.219
44.184	13.153	1384.220	1060.598
45.199	13.200	1383.805	1060.488
46.213	13.227	1383.195	1060.101
47.228	13.399	1381.967	1060.170
48.242	13.283	1380.442	1058.159
49.257	13.229	1379.318	1056.861
50.271	13.248	1377.837	1055.754
51.286	13.399	1376.027	1055.235
52.301	13.332	1375.452	1054.275
53.315	13.255	1373.933	1052.526
54.330	13.227	1373.300	1051.770
55.344	13.193	1371.657	1050.203
56.359	13.201	1370.650	1049.392
57.374	13.181	1369.965	1048.648
58.388	13.118	1369.430	1047.742
59.403	13.099	1368.886	1047.115
60.417	13.239	1367.031	1046.491
61.432	13.133	1366.776	1045.533
62.447	13.149	1365.814	1044.806
63.461	13.061	1364.694	1043.296
64.476	13.110	1363.483	1042.589
65.490	13.159	1361.999	1041.673
66.505	13.110	1360.322	1039.991
67.520	13.121	1359.425	1039.282
68.534	13.151	1358.143	1038.399
69.549	13.126	1357.191	1037.419
70.563	13.177	1355.745	1036.544
71.578	12.992	1355.042	1034.752
72.593	13.029	1353.879	1034.008
73.607	13.065	1352.857	1033.361
74.622	13.079	1352.438	1033.033
75.636	13.028	1351.720	1032.074
76.651	13.059	1350.996	1031.623
77.666	13.051	1350.487	1031.094
78.680	13.048	1349.679	1030.366
79.695	13.009	1348.931	1029.465
80.709	13.046	1348.192	1029.038
81.724	13.075	1347.191	1028.367
82.739	13.209	1345.889	1028.116
83.753	13.253	1345.193	1027.762
84.768	13.283	1344.045	1026.980
85.782	13.327	1342.859	1026.258
86.797	13.282	1341.476	1024.832
87.812	13.189	1340.004	1023.043
88.826	13.225	1339.072	1022.461
89.841	13.257	1338.131	1021.848
90.855	13.359	1336.812	1021.383
91.870	13.375	1336.530	1021.176
92.884	13.379	1335.016	1019.952
93.899	13.332	1334.483	1019.169
94.914	13.469	1333.772	1019.375
95.928	13.420	1332.818	1018.254
96.943	13.407	1331.879	1017.367
97.957	13.354	1331.081	1016.346
98.972	13.315	1330.409	1015.501
99.987	13.375	1329.164	1014.826
101.001	13.338	1328.180	1013.759
102.016	13.383	1327.006	1013.053
103.030	13.276	1326.491	1011.912
104.045	13.326	1325.303	1011.220
105.060	13.367	1324.435	1010.721
106.074	13.277	1322.851	1008.874
107.089	13.146	1321.845	1007.219
108.103	13.163	1320.723	1006.382
109.118	13.226	1319.190	1005.505
110.133	13.181	1317.637	1003.956
111.147	13.230	1316.567	1003.351
112.162	13.266	1315.197	1002.435
113.176	13.275	1314.051	1001.530
114.191	13.267	1313.070	1000.645
115.206	13.282	1311.808	999.685
116.220	13.249	1310.694	998.547
117.235	13.239	1309.393	997.411
118.249	13.315	1308.202	996.871
119.264	13.195	1307.633	995.629
120.279	13.115	1306.294	994.035
121.293	13.242	1305.203	993.883
122.308	13.218	1304.456	993.081
123.322	13.184	1303.276	991.891
124.337	13.235	1302.404	991.445
125.352	13.193	1301.130	990.137
126.366	13.176	1299.891	989.005
127.381	13.177	1298.948	988.206
128.395	13.187	1297.921	987.399
129.410	13.264	1296.499	986.689
130.424	13.245	1296.089	986.175
131.439	13.300	1294.997	985.582
132.454	13.379	1293.701	984.980
133.468	13.267	1293.381	983.985
134.483	13.385	1292.345	983.810
135.497	13.289	1291.600	982.589
136.512	13.373	1290.086	981.847
137.527	13.339	1288.831	980.600
138.541	13.451	1287.094	979.855
139.556	13.359	1285.970	978.371
140.570	13.398	1284.885	977.691
141.585	13.507	1283.639	977.295
142.600	13.419	1282.661	975.947
143.614	13.445	1281.959	975.477
144.629	13.519	1280.308	974.572
145.643	13.507	1279.150	973.536
146.658	13.469	1277.899	972.275
147.673	13.428	1276.636	970.988
148.687	13.408	1275.885	970.210
149.702	13.279	1274.563	968.368
150.716	13.330	1272.453	966.976
151.731	13.342	1271.758	966.432
152.746	13.368	1270.521	965.556
153.760	13.360	1269.310	964.504
154.775	13.463	1267.947	963.981
155.789	13.513	1267.129	963.568
156.804	13.548	1265.487	962.436
157.819	13.560	1264.891	961.968
158.833	13.480	1264.250	960.930
159.848	13.544	1263.067	960.318
160.862	13.590	1262.167	959.816
161.877	13.462	1260.924	958.042
162.892	13.376	1259.908	956.688
163.906	13.431	1259.085	956.297
164.921	13.523	1258.267	956.121
165.935	13.558	1257.305	955.508
166.950	13.548	1256.382	954.664
167.964	13.456	1255.761	953.581
168.979	13.498	1255.238	953.340
169.994	13.630	1253.870	952.976
171.008	13.675	1253.191	952.636
172.023	13.645	1252.538	951.882
173.037	13.611	1251.664	950.937
174.052	13.723	1250.371	950.516
175.067	13.609	1249.956	949.460
176.081	13.577	1248.741	948.270
177.096	13.486	1248.420	947.425
178.110	13.607	1246.647	946.685
179.125	13.590	1245.270	945.459
180.140	13.654	1244.266	944.975
181.154	13.707	1243.155	944.352
182.169	13.678	1241.885	943.136
183.183	13.716	1240.520	942.234
184.198	13.774	1239.154	941.444
185.213	13.873	1238.100	941.118
186.227	13.777	1237.231	939.834
187.242	13.797	1236.196	939.077
188.256	13.863	1235.066	938.507
189.271	13.851	1234.337	937.803
190.286	13.768	1232.941	936.188
191.300	13.676	1232.394	935.171
192.315	13.581	1231.620	933.968
193.329	13.671	1230.642	933.652
194.344	13.679	1230.306	933.359
195.359	13.703	1230.147	933.289
196.373	13.823	1229.235	933.193
197.388	13.878	1228.783	933.073
198.402	13.887	1228.021	932.463
199.417	14.064	1227.276	932.805
200.432	13.963	1226.603	931.647
201.446	14.036	1225.548	931.173
202.461	14.103	1224.567	930.718
203.475	14.028	1224.009	929.795
204.490	14.009	1222.425	928.401
205.504	14.037	1221.322	927.636
206.519	14.142	1219.702	926.910
207.534	13.986	1218.935	925.375
208.548	13.988	1218.058	924.641
209.563	14.052	1217.148	924.225
210.577	14.036	1216.350	923.447
211.592	14.135	1215.564	923.316
212.607	14.103	1214.561	922.295
213.621	14.097	1213.724	921.547
214.636	14.120	1212.584	920.726
215.650	14.057	1211.682	919.615
216.665	14.169	1210.497	919.250
217.680	14.254	1210.142	919.370
218.694	14.254	1208.954	918.388
219.709	14.312	1208.071	917.955
220.723	14.298	1207.628	917.458
221.738	14.212	1206.943	916.385
222.753	14.318	1206.243	916.353
223.767	14.314	1205.591	915.754
224.782	14.306	1204.892	915.102
225.796	14.297	1204.322	914.534
226.811	14.443	1203.092	914.320
227.826	14.316	1202.859	913.369
228.840	14.406	1201.851	913.014
229.855	14.343	1201.420	912.261
230.869	14.324	1200.183	911.139
231.884	14.400	1199.271	910.781
232.899	14.317	1198.789	909.881
233.913	14.376	1197.702	909.296
234.928	14.368	1197.155	908.755
235.942	14.320	1196.150	907.654
236.957	14.352	1195.634	907.354
237.972	14.445	1194.880	907.208
238.986	14.326	1194.171	905.944
240.001	14.425	1193.563	905.939
241.015	14.482	1192.484	905.349
242.030	14.475	1191.526	904.505
243.045	14.481	1191.089	904.124
244.059	14.521	1189.785	903.272
245.074	14.536	1188.958	902.645
246.088	14.601	1188.258	902.383
247.103	14.548	1187.709	901.601
248.117	14.577	1186.989	901.134
249.132	14.668	1186.314	901.030
250.147	14.614	1185.721	900.208
251.161	14.830	1184.419	900.307
252.176	14.868	1184.216	900.278
253.190	14.820	1183.500	899.396
254.205	14.808	1182.769	898.696
255.220	14.950	1181.898	898.715
256.234	14.826	1181.853	897.934
257.249	14.944	1180.656	897.583
258.263	14.927	1180.135	897.013
259.278	14.964	1179.380	896.559
260.293	14.921	1178.552	895.621
261.307	14.963	1178.322	895.590
262.322	14.938	1177.557	894.798
263.336	15.027	1176.944	894.724
264.351	15.048	1176.314	894.283
265.366	14.943	1175.892	893.322
266.380	15.038	1174.980	893.056
267.395	15.044	1174.136	892.368
268.409	15.046	1173.355	891.702
269.424	14.983	1172.443	890.599
270.439	15.039	1172.206	890.638
271.453	15.115	1170.787	889.884
272.468	15.071	1170.131	889.072
273.482	14.930	1169.505	887.770
274.497	15.165	1168.781	888.387
275.512	15.000	1168.502	887.225
276.526	15.045	1167.421	886.563
277.541	14.961	1166.842	885.599
278.555	15.174	1165.877	885.913
279.570	15.270	1165.015	885.687
280.585	15.247	1164.340	884.974
281.599	15.230	1163.573	884.226
282.614	15.221	1162.812	883.521
283.628	15.183	1161.589	882.314
284.643	15.201	1160.155	881.242
285.657	15.242	1159.637	880.984
286.672	15.159	1158.955	879.954
287.687	15.146	1157.873	878.986
288.701	15.229	1157.209	878.838
289.716	15.290	1156.005	878.165
290.730	15.279	1155.674	877.779
291.745	15.225	1155.389	877.202
292.760	15.419	1154.349	877.351
293.774	15.460	1153.645	876.949
294.789	15.430	1153.045	876.262
295.803	15.418	1152.812	875.945
296.818	15.404	1151.808	875.030
297.833	15.423	1150.897	874.361
298.847	15.412	1150.166	873.669
299.862	15.346	1149.762	872.942
300.876	15.490	1148.271	872.480
301.891	15.502	1147.793	872.105
302.906	15.501	1147.433	871.749
303.920	15.690	1146.186	871.700
304.935	15.587	1145.569	870.621
305.949	15.577	1145.031	870.084
306.964	15.686	1144.296	870.014
307.979	15.701	1143.668	869.539
308.993	15.674	1142.875	868.719
310.008	15.694	1141.913	868.012
311.022	15.658	1141.184	867.195
312.037	15.686	1140.702	866.896
313.052	15.624	1139.435	865.539
314.066	15.653	1138.640	865.006
315.081	15.654	1137.277	863.900
316.095	15.629	1137.311	863.719
317.110	15.701	1136.268	863.222
318.125	15.606	1135.623	862.169
319.139	15.670	1134.518	861.582
320.154	15.659	1133.911	860.990
321.168	15.754	1133.226	860.877
322.183	15.687	1132.979	860.270
323.197	15.774	1132.103	859.976
324.212	15.815	1131.502	859.653
325.227	15.706	1130.722	858.428
326.241	15.735	1130.078	858.009
327.256	15.670	1129.376	857.071
328.270	15.732	1128.265	856.468
329.285	15.803	1127.184	855.932
330.300	15.719	1126.755	855.103
331.314	15.833	1125.309	854.506
332.329	15.861	1124.265	853.779
333.343	15.782	1123.939	853.057
334.358	15.858	1122.731	852.450
335.373	15.808	1122.090	851.636
336.387	15.798	1121.733	851.241
337.402	15.929	1120.760	851.084
338.416	15.862	1120.170	850.225
339.431	15.914	1119.690	850.048
340.446	15.913	1119.035	849.471
341.460	16.079	1117.928	849.392
342.475	16.191	1116.782	849.008
343.489	16.133	1116.035	848.073
344.504	16.205	1115.216	847.736
345.519	16.172	1114.301	846.800
346.533	16.211	1113.400	846.236
347.548	16.263	1112.618	845.830
348.562	16.165	1112.131	844.896
349.577	16.086	1111.427	843.888
350.592	16.162	1110.544	843.524
351.606	16.140	1109.606	842.628
352.621	16.114	1108.801	841.810
353.635	16.168	1108.137	841.501
354.650	16.236	1107.527	841.301
355.665	16.294	1106.855	841.006
356.679	16.171	1106.367	839.948
357.694	16.273	1105.515	839.734
358.708	16.222	1105.177	839.150
359.723	16.189	1104.293	838.243
360.738	16.321	1103.166	837.968
361.752	16.320	1102.873	837.666
362.767	16.329	1102.598	837.425
363.781	16.359	1101.790	836.889
364.796	16.372	1101.175	836.409
365.810	16.403	1100.579	836.039
366.825	16.387	1100.083	835.507
367.840	16.396	1099.830	835.289
368.854	16.535	1098.987	835.257
369.869	16.558	1098.328	834.800
370.883	16.590	1097.129	833.972
371.898	16.468	1096.368	832.716
372.913	16.494	1095.891	832.409
373.927	16.520	1095.549	832.203
374.942	16.622	1095.022	832.230
375.956	16.646	1094.437	831.830
376.971	16.607	1093.387	830.766
377.986	16.577	1093.326	830.498
379.000	16.646	1093.223	830.687
380.015	16.652	1092.292	829.934
381.029	16.721	1091.257	829.414
382.044	16.749	1090.632	829.001
383.059	16.656	1089.891	827.914
384.073	16.733	1089.208	827.694
385.088	16.772	1088.133	826.998
386.102	16.824	1087.178	826.449
387.117	16.747	1086.225	825.278
388.132	16.710	1085.282	824.310
389.146	16.686	1084.523	823.542
390.161	16.720	1083.729	823.033
391.175	16.792	1083.333	823.008
392.190	17.015	1081.997	823.002
393.205	16.859	1081.428	821.739
394.219	16.820	1080.695	820.920
395.234	16.897	1079.781	820.529
396.248	16.818	1078.943	819.437
397.263	16.854	1077.905	818.749
398.278	16.937	1077.117	818.479
399.292	16.764	1076.674	817.233
400.307	16.836	1075.712	816.777
401.321	16.878	1074.980	816.354
402.336	16.895	1074.573	816.052
403.350	17.003	1073.610	815.770
404.365	16.814	1073.247	814.511
405.380	16.926	1072.498	814.412
406.394	17.111	1071.395	814.388
407.409	17.061	1070.729	813.570
408.423	17.024	1070.569	813.198
409.438	17.106	1069.662	812.830
410.453	17.062	1068.713	811.830
411.467	17.039	1068.000	811.106
412.482	17.193	1067.394	811.310
413.496	17.143	1066.321	810.184
414.511	17.317	1065.598	810.392
415.526	17.229	1065.700	809.975
416.540	17.315	1065.498	810.162
417.555	17.296	1064.527	809.262
418.569	17.114	1064.377	808.208
419.584	17.199	1063.795	808.101
420.599	17.267	1063.245	807.934
421.613	90.387	1304.771	1397.951
422.628	83.488	1339.938	1398.094
