DTS Sentinel unit serial number:	SN413079Multiplexer serial number:	ORYXHardware model number:	OX4-SRSoftware version number:	ORYX F/W v4.00 Oryx Data Collector v3.7.2.0data status	okinstallation	princeton_trtdifferential loss correction	single-endedforward channel	channel 2reverse channel	N/Adate	2019/09/13time	03:51:34forward acquisition time	60.00reverse acquisition time	0.00gamma	496.2192k internal	0.2336k external	0.2336temperature offset calibration	1.0187default loss term (dB/km)	0.3790temperature slope calibration	1.0000multiplexer offset coefficient	1.0000multiplexer slope coefficient	1.0000fibre end	0.00T internal ref (°C)	27.12T ext. ref 1 (°C)	4.07T ext. ref 2 (°C)	21.41length (m)	temperature (°C)	Stokes	anti-Stokes-747.200	-200.000	0.011	0.205
-746.185	-200.000	-0.043	0.313
-745.171	-115.469	0.433	-0.082
-744.156	12.709	0.093	-0.072
-743.142	-7.736	0.371	0.251
-742.127	681.852	0.021	-0.054
-741.112	-26.658	0.351	-0.206
-740.098	284.214	0.112	-0.202
-739.083	485.061	0.049	0.111
-738.069	-200.000	0.008	0.067
-737.054	195.856	-0.056	-0.086
-736.039	-9.791	-0.212	-0.142
-735.025	-72.925	-0.210	0.078
-734.010	-38.118	-0.541	-0.288
-732.996	-200.000	-0.051	-0.285
-731.981	-9.999	-0.256	-0.171
-730.966	317.388	0.147	0.279
-729.952	800.000	0.068	-0.209
-728.937	-200.000	-0.034	-0.208
-727.923	120.626	0.100	0.125
-726.908	345.704	-0.143	-0.281
-725.894	-135.589	-0.052	0.006
-724.879	-87.907	0.217	0.066
-723.864	-147.019	-0.199	-0.017
-722.850	-200.000	-0.016	0.285
-721.835	-106.674	-0.080	-0.018
-720.821	116.285	-0.013	0.016
-719.806	409.246	-0.046	-0.097
-718.791	104.393	-0.068	0.080
-717.777	165.481	-0.076	-0.108
-716.762	310.616	0.063	0.119
-715.748	800.000	-0.047	0.139
-714.733	800.000	0.048	-0.158
-713.718	486.645	-0.048	0.111
-712.704	-200.000	-0.039	-0.275
-711.689	-160.740	0.246	-0.013
-710.675	67.930	0.136	0.139
-709.660	24.367	-0.117	0.097
-708.645	58.749	0.185	-0.182
-707.631	-69.640	0.131	0.050
-706.616	548.937	-0.145	-0.348
-705.602	-108.790	-0.194	0.042
-704.587	-11.108	0.102	0.067
-703.572	-90.589	0.294	0.085
-702.558	-200.000	-0.021	0.096
-701.543	-165.907	-0.196	0.008
-700.529	-167.164	0.046	-0.002
-699.514	174.934	0.026	0.038
-698.499	-200.000	-0.085	-0.000
-697.485	228.244	-0.099	-0.161
-696.470	-125.991	-0.177	0.027
-695.456	131.378	0.170	0.218
-694.441	-30.219	0.193	0.110
-693.426	800.000	-0.012	0.043
-692.412	41.039	-0.194	0.176
-691.397	68.010	-0.078	-0.080
-690.383	52.049	0.211	0.201
-689.368	128.361	-0.181	-0.231
-688.354	-200.000	-0.007	0.114
-687.339	26.624	-0.294	-0.247
-686.324	372.257	0.047	0.096
-685.310	-2.288	0.300	-0.211
-684.295	-200.000	0.043	0.366
-683.281	416.541	0.142	0.304
-682.266	133.995	-0.150	-0.195
-681.251	260.415	0.094	-0.163
-680.237	78.600	0.325	-0.348
-679.222	-52.456	-0.274	-0.127
-678.208	-7.510	0.229	0.155
-677.193	130.080	0.122	-0.156
-676.178	-196.304	0.269	0.002
-675.164	-200.000	0.004	-0.093
-674.149	-200.000	-0.047	-0.346
-673.135	96.806	-0.053	-0.060
-672.120	800.000	-0.053	-0.205
-671.105	-200.000	0.029	-0.135
-670.091	800.000	0.110	-0.361
-669.076	-28.955	-0.105	-0.061
-668.062	-53.385	-0.494	-0.227
-667.047	-162.284	0.171	0.009
-666.032	-200.000	-0.029	-0.139
-665.018	410.780	0.182	0.387
-664.003	-169.198	0.066	0.002
-662.989	375.946	0.127	0.259
-661.974	800.000	0.114	0.401
-660.959	-5.816	-0.189	-0.130
-659.945	625.315	-0.044	-0.112
-658.930	48.435	0.152	-0.142
-657.916	47.747	-0.097	0.091
-656.901	219.749	0.107	-0.171
-655.886	-49.680	-0.122	-0.058
-654.872	166.815	0.117	0.167
-653.857	485.155	-0.106	-0.242
-652.843	-134.545	-0.287	-0.035
-651.828	-200.000	0.037	0.186
-650.814	108.467	0.244	0.292
-649.799	88.585	-0.163	-0.181
-648.784	5.501	-0.175	-0.129
-647.770	115.852	-0.157	-0.192
-646.755	98.811	-0.303	-0.350
-645.741	61.581	0.071	0.071
-644.726	-78.740	0.222	-0.076
-643.711	9.120	-0.050	-0.038
-642.697	49.174	0.232	0.218
-641.682	-38.507	-0.222	0.117
-640.668	23.429	-0.103	0.085
-639.653	177.514	0.169	0.246
-638.638	-64.610	0.164	0.066
-637.624	800.000	-0.066	-0.264
-636.609	-106.326	-0.354	-0.079
-635.595	-108.858	0.208	-0.045
-634.580	-116.709	-0.150	-0.028
-633.565	540.792	-0.055	-0.130
-632.551	-66.290	0.149	-0.059
-631.536	-113.351	0.025	-0.005
-630.522	-53.675	0.049	0.023
-629.507	-200.000	0.031	0.264
-628.492	-200.000	-0.045	0.216
-627.478	-139.332	0.264	-0.028
-626.463	-146.247	-0.214	0.019
-625.449	-161.859	0.256	-0.013
-624.434	-148.077	-0.158	-0.013
-623.419	-200.000	0.007	-0.140
-622.405	-86.573	0.187	-0.057
-621.390	800.000	-0.044	-0.179
-620.376	-200.000	0.028	0.171
-619.361	284.591	-0.106	-0.190
-618.346	-103.230	-0.334	0.079
-617.332	800.000	-0.054	-0.151
-616.317	78.590	-0.103	-0.110
-615.303	369.835	-0.091	-0.184
-614.288	-95.287	0.257	0.069
-613.273	-200.000	-0.061	-0.312
-612.259	-68.174	0.235	-0.091
-611.244	-151.094	0.121	0.009
-610.230	-200.000	0.074	-0.329
-609.215	0.589	-0.122	0.087
-608.201	209.584	0.048	-0.076
-607.186	122.308	-0.107	0.134
-606.171	650.714	-0.083	-0.212
-605.157	50.043	-0.132	-0.124
-604.142	-200.000	-0.003	-0.112
-603.128	-64.992	-0.223	0.090
-602.113	466.899	0.098	0.220
-601.098	53.878	0.107	-0.103
-600.084	800.000	-0.080	-0.318
-599.069	390.425	-0.043	-0.089
-598.055	-110.880	-0.013	-0.003
-597.040	638.346	-0.088	-0.223
-596.025	399.012	-0.050	0.105
-595.011	17.153	-0.336	0.266
-593.996	-200.000	0.004	-0.138
-592.982	-200.000	0.010	-0.355
-591.967	-200.000	-0.032	-0.147
-590.952	-200.000	-0.034	-0.157
-589.938	-200.000	-0.014	-0.154
-588.923	46.671	-0.091	-0.085
-587.909	-200.000	0.009	0.134
-586.894	36.242	0.051	-0.045
-585.879	800.000	-0.082	-0.305
-584.865	800.000	0.052	-0.168
-583.850	-145.421	0.121	-0.011
-582.836	640.734	-0.056	0.142
-581.821	95.575	-0.295	-0.336
-580.806	-87.342	-0.276	0.083
-579.792	-104.732	-0.261	-0.060
-578.777	16.148	-0.150	-0.118
-577.763	761.487	0.065	0.176
-576.748	800.000	0.097	0.392
-575.733	316.905	0.034	-0.064
-574.719	-100.635	0.138	0.034
-573.704	-17.808	-0.138	0.087
-572.690	50.918	-0.081	-0.077
-571.675	116.316	-0.120	-0.146
-570.661	-124.811	-0.149	0.023
-569.646	-112.418	-0.331	0.066
-568.631	-53.137	-0.166	0.076
-567.617	504.617	-0.086	0.198
-566.602	122.141	-0.472	0.587
-565.588	192.807	-0.077	0.115
-564.573	48.678	-0.105	0.098
-563.558	-115.974	-0.223	-0.041
-562.544	-185.463	-0.346	-0.005
-561.529	9.543	-0.205	-0.155
-560.515	9.889	-0.154	-0.117
-559.500	800.000	-0.062	-0.201
-558.485	-200.000	-0.028	-0.127
-557.471	89.780	0.210	-0.233
-556.456	118.284	0.224	0.275
-555.442	-200.000	0.034	0.357
-554.427	560.509	0.116	0.279
-553.412	443.384	0.039	0.086
-552.398	800.000	0.063	0.211
-551.383	-96.553	-0.169	-0.044
-550.369	237.754	0.063	-0.104
-549.354	44.189	0.149	-0.136
-548.339	-150.307	-0.059	0.005
-547.325	800.000	-0.016	0.065
-546.310	239.683	-0.163	0.271
-545.296	-46.284	0.177	0.087
-544.281	-200.000	-0.005	0.438
-543.266	-50.099	-0.088	-0.042
-542.252	488.735	0.146	-0.332
-541.237	800.000	0.021	-0.085
-540.223	-200.000	0.001	0.020
-539.208	-200.000	-0.018	0.272
-538.193	-124.631	-0.048	-0.007
-537.179	272.794	-0.137	0.242
-536.164	-50.767	0.106	-0.050
-535.150	-200.000	-0.006	-0.074
-534.135	-111.586	-0.165	-0.033
-533.121	-135.043	-0.333	0.040
-532.106	-156.451	-0.142	0.009
-531.091	-133.745	-0.157	0.020
-530.077	-200.000	-0.000	-0.294
-529.062	121.289	0.142	-0.176
-528.048	-200.000	0.022	-0.142
-527.033	200.581	-0.098	-0.150
-526.018	141.874	0.030	0.039
-525.004	-16.543	0.186	0.117
-523.989	800.000	0.143	0.396
-522.975	-116.811	-0.264	-0.048
-521.960	370.679	-0.037	-0.075
-520.945	-74.179	0.262	0.094
-519.931	-15.987	0.172	-0.109
-518.916	-200.000	0.022	-0.143
-517.902	41.568	-0.093	-0.084
-516.887	154.435	0.045	0.062
-515.872	-122.203	-0.169	0.028
-514.858	-200.000	-0.014	0.417
-513.843	-195.473	0.151	0.001
-512.829	-200.000	-0.041	-0.202
-511.814	-81.268	-0.284	-0.093
-510.799	380.122	-0.043	-0.087
-509.785	-1.806	-0.273	-0.191
-508.770	220.030	-0.124	-0.198
-507.756	-152.331	0.427	0.031
-506.741	-76.819	-0.207	0.072
-505.726	4.289	0.118	0.086
-504.712	368.881	0.102	-0.205
-503.697	-200.000	-0.040	-0.197
-502.683	80.393	0.099	0.106
-501.668	-66.451	0.252	-0.100
-500.653	221.247	-0.033	-0.052
-499.639	183.435	-0.131	-0.192
-498.624	-64.197	-0.075	0.030
-497.610	180.356	0.217	0.317
-496.595	212.505	0.216	0.339
-495.581	-78.813	-0.110	0.037
-494.566	-200.000	0.097	0.425
-493.551	31.026	-0.197	-0.168
-492.537	-200.000	0.024	0.133
-491.522	-200.000	-0.001	-0.212
-490.508	-38.737	0.184	0.097
-489.493	127.705	-0.155	-0.196
-488.478	800.000	-0.099	-0.277
-487.464	-17.765	-0.180	0.112
-486.449	566.449	0.066	-0.159
-485.435	423.900	0.081	0.173
-484.420	-167.767	-0.350	0.014
-483.405	800.000	-0.119	-0.394
-482.391	-200.000	0.013	-0.099
-481.376	800.000	-0.079	0.221
-480.362	-159.747	-0.293	-0.016
-479.347	23.606	0.118	-0.096
-478.332	-200.000	0.021	0.189
-477.318	-20.461	0.176	0.108
-476.303	95.139	-0.157	-0.177
-475.289	-200.000	-0.011	0.435
-474.274	-63.996	-0.151	0.061
-473.259	0.090	0.196	0.139
-472.245	-6.081	0.143	-0.097
-471.230	17.520	0.189	0.149
-470.216	172.054	-0.072	-0.104
-469.201	6.955	0.139	-0.103
-468.186	-115.260	0.213	-0.040
-467.172	140.210	-0.201	-0.264
-466.157	42.055	0.308	-0.278
-465.143	76.868	-0.141	-0.149
-464.128	-171.067	0.300	-0.010
-463.113	800.000	0.088	0.300
-462.099	800.000	-0.042	0.122
-461.084	800.000	-0.032	-0.109
-460.070	800.000	0.064	-0.191
-459.055	607.557	-0.070	0.173
-458.040	264.431	-0.072	-0.125
-457.026	-12.521	-0.355	0.230
-456.011	-135.546	0.199	-0.023
-454.997	173.945	0.179	-0.257
-453.982	-85.348	0.362	0.112
-452.968	-130.939	0.093	0.012
-451.953	222.981	0.137	-0.220
-450.938	9.257	-0.093	-0.070
-449.924	-200.000	-0.038	0.290
-448.909	116.353	0.128	-0.155
-447.895	-200.000	-0.005	0.072
-446.880	-115.818	-0.176	0.033
-445.865	-110.160	-0.110	-0.023
-444.851	-200.000	-0.006	-0.026
-443.836	-56.733	0.514	0.226
-442.822	-11.992	-0.405	0.264
-441.807	-200.000	0.008	-0.135
-440.792	800.000	0.075	-0.301
-439.778	-133.538	0.162	0.020
-438.763	279.085	-0.196	0.346
-437.749	800.000	0.033	-0.136
-436.734	431.577	0.159	-0.342
-435.719	289.356	-0.103	0.185
-434.705	247.781	-0.136	0.228
-433.690	-200.000	0.009	-0.467
-432.676	213.727	-0.053	-0.084
-431.661	230.082	-0.088	-0.142
-430.646	-171.065	0.473	0.016
-429.632	31.901	0.024	0.020
-428.617	718.378	0.040	-0.105
-427.603	67.798	0.200	-0.202
-426.588	474.648	-0.074	0.166
-425.573	688.975	0.114	0.296
-424.559	-92.301	0.275	-0.077
-423.544	550.010	-0.016	0.037
-422.530	23.847	-0.161	-0.131
-421.515	800.000	-0.063	-0.204
-420.500	-70.662	0.144	-0.054
-419.486	-138.049	-0.397	-0.044
-418.471	343.092	0.105	-0.203
-417.457	-45.635	0.213	0.104
-416.442	-200.000	-0.017	0.118
-415.428	-98.496	-0.179	-0.045
-414.413	-200.000	-0.090	0.403
-413.398	-200.000	-0.056	-0.278
-412.384	28.773	0.165	0.138
-411.369	3.582	-0.244	0.177
-410.355	-1.669	-0.143	-0.100
-409.340	-135.694	0.367	0.043
-408.325	-200.000	-0.012	0.228
-407.311	-22.889	0.058	0.035
-406.296	-200.000	-0.030	-0.172
-405.282	67.523	-0.060	0.061
-404.267	-200.000	0.013	-0.205
-403.252	-200.000	0.013	0.253
-402.238	-45.819	0.075	0.037
-401.223	53.218	0.208	-0.197
-400.209	-98.004	0.282	-0.072
-399.194	287.646	0.090	-0.161
-398.179	-200.000	-0.051	-0.570
-397.165	-51.385	0.274	-0.127
-396.150	44.405	-0.362	0.330
-395.136	-21.974	0.183	-0.110
-394.121	129.057	0.096	0.122
-393.106	-125.045	0.084	0.013
-392.092	97.678	0.080	0.091
-391.077	-69.440	-0.210	0.080
-390.063	800.000	0.047	-0.196
-389.048	259.620	0.185	0.316
-388.033	-200.000	-0.004	-0.354
-387.019	-147.405	0.284	0.024
-386.004	-133.010	-0.080	0.010
-384.990	-92.568	-0.208	0.058
-383.975	-132.889	0.024	-0.003
-382.960	95.496	-0.124	0.140
-381.946	196.443	0.171	-0.258
-380.931	73.747	-0.049	-0.050
-379.917	-200.000	-0.031	0.154
-378.902	-200.000	0.001	0.128
-377.888	-31.991	-0.159	-0.088
-376.873	-80.875	-0.282	0.092
-375.858	549.326	0.114	0.270
-374.844	-200.000	-0.000	0.098
-373.829	58.417	0.294	0.286
-372.815	42.429	-0.224	-0.202
-371.800	-107.585	0.046	0.010
-370.785	320.299	-0.109	-0.205
-369.771	800.000	-0.036	-0.105
-368.756	102.574	-0.082	0.095
-367.742	96.057	0.103	0.116
-366.727	22.710	-0.103	0.083
-365.712	-39.888	-0.052	-0.027
-364.698	-140.239	0.179	-0.019
-363.683	-50.195	-0.108	-0.051
-362.669	-113.349	0.276	-0.054
-361.654	-200.000	-0.001	0.067
-360.639	-200.000	0.016	-0.140
-359.625	-69.968	-0.242	0.091
-358.610	-5.704	-0.142	0.096
-357.596	21.880	-0.110	0.089
-356.581	-200.000	-0.020	-0.146
-355.566	800.000	0.015	-0.046
-354.552	-121.920	-0.166	-0.027
-353.537	-87.725	0.125	0.037
-352.523	-33.169	-0.338	-0.185
-351.508	800.000	-0.073	0.277
-350.493	-1.656	0.170	0.119
-349.479	245.851	-0.095	0.158
-348.464	179.099	0.137	0.199
-347.450	-32.857	0.138	0.076
-346.435	706.063	0.121	-0.316
-345.420	434.593	-0.030	0.065
-344.406	265.167	-0.118	0.203
-343.391	-200.000	-0.043	-0.280
-342.377	-200.000	0.014	-0.207
-341.362	-60.848	0.193	0.081
-340.348	29.400	0.117	-0.098
-339.333	-52.072	-0.251	-0.115
-338.318	-59.845	0.368	0.156
-337.304	81.537	-0.049	0.053
-336.289	340.876	0.048	0.093
-335.275	-80.883	0.539	0.177
-334.260	442.361	-0.085	0.183
-333.245	157.116	0.282	0.385
-332.231	-200.000	0.017	0.108
-331.216	-91.202	0.372	0.105
-330.202	729.916	-0.094	0.247
-329.187	-29.237	0.073	0.041
-328.172	-116.002	-0.216	-0.040
-327.158	-35.016	0.117	-0.063
-326.143	126.062	-0.150	-0.187
-325.129	272.574	-0.073	-0.128
-324.114	154.051	-0.118	0.160
-323.099	-118.732	0.124	0.022
-322.085	-97.694	0.130	0.033
-321.070	121.629	0.111	0.137
-320.056	-9.304	-0.201	-0.133
-319.041	-97.247	-0.098	0.025
-318.026	219.637	0.123	0.195
-317.012	-65.890	-0.178	0.070
-315.997	98.966	0.082	-0.094
-314.983	36.218	-0.059	0.052
-313.968	-74.665	-0.093	0.033
-312.953	800.000	0.076	0.221
-311.939	568.524	0.133	-0.320
-310.924	-200.000	0.006	0.177
-309.910	-83.480	0.202	0.064
-308.895	150.031	0.227	0.304
-307.880	296.596	-0.190	0.344
-306.866	-54.854	0.265	-0.118
-305.851	-16.138	0.157	-0.099
-304.837	-200.000	0.033	-0.180
-303.822	-134.087	-0.414	-0.050
-302.807	-14.276	0.164	0.104
-301.793	-74.286	-0.298	0.106
-300.778	83.395	0.149	-0.160
-299.764	-48.848	-0.015	0.007
-298.749	-136.501	-0.091	0.010
-297.735	273.194	-0.171	-0.297
-296.720	257.281	-0.020	0.034
-295.705	14.507	-0.144	-0.111
-294.691	128.910	0.115	0.144
-293.676	-125.685	-0.216	0.032
-292.662	152.557	-0.186	-0.251
-291.647	-200.000	0.007	0.052
-290.632	227.334	-0.170	-0.272
-289.618	-34.656	0.222	-0.120
-288.603	638.952	0.008	0.020
-287.589	119.643	-0.177	0.216
-286.574	-47.750	0.265	-0.127
-285.559	38.960	-0.150	0.133
-284.545	800.000	-0.116	-0.349
-283.530	800.000	0.055	-0.164
-282.516	-200.000	0.002	0.228
-281.501	125.734	-0.028	0.035
-280.486	387.517	0.129	-0.264
-279.472	800.000	-0.025	-0.105
-278.457	54.633	-0.091	-0.086
-277.443	625.526	0.082	-0.203
-276.428	-139.960	0.217	-0.023
-275.413	-25.795	0.166	-0.097
-274.399	194.158	0.217	0.325
-273.384	-200.000	0.003	-0.234
-272.370	-40.085	-0.190	-0.098
-271.355	17.961	-0.205	-0.161
-270.340	-200.000	-0.018	-0.315
-269.326	-25.935	0.341	0.198
-268.311	-200.000	0.034	-0.198
-267.297	800.000	0.130	-0.386
-266.282	-45.485	-0.099	-0.048
-265.267	-106.543	-0.174	0.038
-264.253	-106.480	-0.327	-0.072
-263.238	209.605	0.162	0.251
-262.224	146.498	-0.105	0.139
-261.209	105.646	0.288	0.336
-260.195	-126.168	0.245	-0.036
-259.180	-187.023	0.145	-0.002
-258.165	105.064	0.188	0.219
-257.151	-93.987	-0.142	-0.038
-256.136	-200.000	0.012	-0.158
-255.122	40.281	-0.246	-0.218
-254.107	-83.291	0.157	-0.050
-253.092	181.792	-0.145	0.211
-252.078	800.000	0.040	-0.117
-251.063	415.949	-0.088	0.185
-250.049	-109.170	-0.294	-0.062
-249.034	33.905	0.159	-0.137
-248.019	-6.989	-0.220	0.147
-247.005	-76.137	0.259	-0.090
-245.990	-125.211	0.250	0.038
-244.976	-200.000	0.005	0.286
-243.961	153.608	0.075	-0.101
-242.946	442.377	0.087	-0.187
-241.932	-9.120	-0.136	0.090
-240.917	800.000	-0.070	0.233
-239.903	19.435	-0.182	0.144
-238.888	371.521	0.104	-0.208
-237.873	-200.000	0.046	-0.231
-236.859	5.557	-0.084	-0.061
-235.844	522.473	-0.121	-0.281
-234.830	364.645	-0.129	0.255
-233.815	-26.985	-0.200	-0.115
-232.800	-121.696	-0.173	-0.028
-231.786	242.369	0.195	-0.321
-230.771	800.000	-0.062	0.173
-229.757	149.903	-0.159	0.213
-228.742	-200.000	-0.012	-0.112
-227.727	-200.000	-0.011	-0.053
-226.713	23.072	0.384	0.310
-225.698	324.014	0.063	0.119
-224.684	-43.678	-0.160	-0.079
-223.669	-70.402	0.229	-0.085
-222.655	43.619	-0.205	-0.184
-221.640	623.282	-0.085	-0.211
-220.625	90.289	0.283	0.312
-219.611	-138.648	0.338	-0.036
-218.596	116.845	0.155	0.187
-217.582	37.722	-0.285	0.249
-216.567	-116.337	0.364	0.066
-215.552	-79.738	-0.048	-0.016
-214.538	-200.000	-0.004	0.294
-213.523	71.392	0.182	0.186
-212.509	-26.301	0.213	0.123
-211.494	-79.717	0.315	-0.104
-210.479	18.158	-0.241	-0.189
-209.465	-42.222	-0.350	0.176
-208.450	800.000	-0.033	0.131
-207.436	330.410	-0.075	0.141
-206.421	-200.000	0.023	-0.234
-205.406	-116.735	0.376	0.068
-204.392	273.907	0.101	0.176
-203.377	800.000	-0.033	0.123
-202.363	166.790	0.300	0.418
-201.348	-23.915	-0.156	0.092
-200.333	350.104	-0.099	0.193
-199.319	800.000	0.087	0.332
-198.304	497.180	0.138	0.311
-197.290	35.104	-0.177	0.153
-196.275	-200.000	0.015	-0.232
-195.260	119.571	-0.053	-0.064
-194.246	-200.000	0.054	0.374
-193.231	-200.000	-0.084	0.365
-192.217	122.080	-0.222	0.272
-191.202	780.901	0.093	0.251
-190.187	-28.604	-0.164	0.093
-189.173	-200.000	-0.021	-0.271
-188.158	47.343	-0.012	-0.011
-187.144	-200.000	0.009	-0.185
-186.129	-190.070	0.253	0.003
-185.114	-97.792	0.253	-0.064
-184.100	233.985	0.151	-0.244
-183.085	-30.774	-0.098	0.054
-182.071	125.002	0.162	0.200
-181.056	-200.000	0.017	-0.142
-180.042	-104.112	-0.069	-0.016
-179.027	22.479	0.137	-0.110
-178.012	-69.180	0.258	-0.097
-176.998	-27.848	0.039	-0.022
-175.983	455.786	0.055	-0.119
-174.969	800.000	-0.045	-0.175
-173.954	60.072	0.315	-0.306
-172.939	-26.800	0.152	0.087
-171.925	-105.655	-0.148	0.033
-170.910	-17.384	0.067	0.042
-169.896	190.623	-0.075	-0.110
-168.881	137.758	-0.074	-0.095
-167.866	-91.460	-0.050	-0.014
-166.852	66.075	-0.081	0.081
-165.837	800.000	-0.058	-0.174
-164.823	314.979	-0.044	-0.081
-163.808	-200.000	0.034	0.233
-162.793	48.647	0.162	-0.149
-161.779	320.864	-0.139	0.260
-160.764	430.571	-0.059	0.125
-159.750	160.598	-0.203	0.279
-158.735	329.285	-0.044	0.083
-157.720	69.898	0.132	-0.133
-156.706	217.154	0.087	0.136
-155.691	87.860	0.138	-0.151
-154.677	-101.138	-0.207	-0.050
-153.662	-131.346	0.089	0.012
-152.647	-13.748	0.180	0.115
-151.633	800.000	-0.074	-0.222
-150.618	800.000	0.051	0.149
-149.604	-140.644	0.329	-0.033
-148.589	-24.156	-0.142	-0.083
-147.574	800.000	-0.010	-0.032
-146.560	164.744	-0.205	0.284
-145.545	-131.387	0.291	-0.038
-144.531	-200.000	0.024	-0.248
-143.516	123.895	-0.206	0.254
-142.502	-200.000	0.046	0.226
-141.487	-200.000	-0.026	-0.510
-140.472	-200.000	-0.024	-0.411
-139.458	372.705	-0.159	0.316
-138.443	301.929	-0.102	0.185
-137.429	-66.390	-0.165	0.064
-136.414	-92.577	-0.100	0.028
-135.399	-109.463	0.087	0.018
-134.385	312.309	-0.077	-0.142
-133.370	800.000	-0.047	-0.190
-132.356	-158.097	-0.084	0.005
-131.341	-200.000	-0.027	-0.160
-130.326	154.808	0.114	0.154
-129.312	-116.231	0.140	-0.026
-128.297	149.083	-0.132	0.175
-127.283	7.655	-0.192	0.141
-126.268	424.286	-0.042	0.088
-125.253	422.727	0.065	-0.136
-124.239	273.761	-0.134	-0.233
-123.224	631.164	-0.059	0.146
-122.210	243.626	0.041	-0.067
-121.195	-59.815	-0.268	-0.112
-120.180	-15.667	0.125	-0.078
-119.166	-200.000	-0.064	0.298
-118.151	486.930	0.104	-0.233
-117.137	-171.622	-0.310	0.010
-116.122	0.665	0.146	-0.103
-115.107	17.907	0.323	0.253
-114.093	-95.259	0.409	0.108
-113.078	-200.000	-0.003	-0.045
-112.064	26.282	0.251	-0.206
-111.049	-75.601	0.184	-0.064
-110.034	-32.737	0.276	0.150
-109.020	-160.053	0.305	0.016
-108.005	146.409	0.058	0.077
-106.991	38.202	-0.134	-0.117
-105.976	400.119	0.025	0.052
-104.962	234.781	0.142	0.229
-103.947	-200.000	-0.012	0.102
-102.932	800.000	-0.036	-0.119
-101.918	-83.975	0.279	-0.087
-100.903	52.871	-0.189	-0.177
-99.889	12.715	0.065	0.049
-98.874	-18.273	-0.126	-0.077
-97.859	269.451	0.073	0.126
-96.845	800.000	0.068	0.281
-95.830	174.544	-0.099	0.140
-94.816	-78.572	-0.195	0.065
-93.801	21.231	-0.111	-0.088
-92.786	-86.231	-0.078	0.023
-91.772	800.000	0.017	0.054
-90.757	-78.244	0.264	0.089
-89.743	307.274	-0.043	-0.079
-88.728	-39.107	0.272	-0.140
-87.713	175.950	-0.051	-0.072
-86.699	-162.877	0.275	-0.013
-85.684	-74.511	-0.428	0.151
-84.670	29.400	0.213	0.177
-83.655	-50.066	0.267	0.124
-82.640	800.000	0.018	-0.067
-81.626	709.323	-0.059	0.153
-80.611	551.752	0.069	0.162
-79.597	133.809	0.233	-0.296
-78.582	-24.337	-0.015	-0.009
-77.567	800.000	0.063	0.254
-76.553	-200.000	0.045	0.325
-75.538	268.973	-0.042	-0.072
-74.524	-2.238	0.126	0.087
-73.509	614.807	0.134	0.328
-72.494	-200.000	-0.032	-0.247
-71.480	-37.768	-0.178	0.092
-70.465	-19.677	-0.103	0.063
-69.451	-15.144	0.204	-0.128
-68.436	-134.258	-0.048	0.006
-67.422	20.676	-0.117	0.092
-66.407	-12.047	-0.089	-0.057
-65.392	488.182	-0.013	-0.028
-64.378	140.552	-0.103	-0.134
-63.363	133.461	0.186	-0.236
-62.349	-96.809	0.243	0.063
-61.334	-31.005	-1.212	-0.669
-60.319	14.145	0.826	0.629
-59.305	692.087	-0.401	-1.027
-58.290	576.814	0.640	1.530
-57.276	663.342	0.631	1.592
-56.261	-200.000	116.118	662.055
-55.246	533.881	1530.715	3545.877
-54.232	176.043	2708.591	3844.407
-53.217	102.072	2290.487	2614.664
-52.203	36.364	1895.714	1634.239
-51.188	30.170	1686.989	1407.405
-50.173	27.725	1644.815	1354.047
-49.159	50.047	1700.780	1568.979
-48.144	48.319	1714.487	1568.558
-47.130	29.841	1672.270	1392.424
-46.115	27.190	1657.980	1360.659
-45.100	27.026	1652.968	1355.269
-44.086	26.970	1650.371	1352.668
-43.071	27.021	1647.977	1351.033
-42.057	27.000	1645.204	1348.548
-41.042	26.994	1643.058	1346.693
-40.027	27.028	1641.483	1345.600
-39.013	26.975	1639.370	1343.425
-37.998	26.965	1637.810	1342.021
-36.984	27.064	1636.447	1341.578
-35.969	27.100	1635.172	1340.745
-34.954	27.207	1632.938	1339.654
-33.940	27.040	1631.734	1337.379
-32.925	26.970	1630.152	1335.516
-31.911	27.071	1628.282	1334.673
-30.896	27.146	1626.325	1333.566
-29.881	27.032	1624.677	1331.323
-28.867	27.089	1623.135	1330.429
-27.852	27.126	1621.300	1329.142
-26.838	27.071	1619.988	1327.612
-25.823	27.049	1618.934	1326.534
-24.809	27.213	1617.331	1326.363
-23.794	27.168	1615.644	1324.600
-22.779	27.145	1614.509	1323.452
-21.765	27.083	1613.424	1322.053
-20.750	27.082	1611.685	1320.574
-19.736	27.146	1609.694	1319.349
-18.721	27.193	1608.427	1318.600
-17.706	27.118	1607.375	1317.141
-16.692	27.189	1605.410	1315.995
-15.677	27.165	1604.568	1315.076
-14.663	27.285	1602.471	1314.178
-13.648	27.220	1601.591	1312.931
-12.633	27.160	1600.026	1311.165
-11.619	27.156	1598.148	1309.548
-10.604	27.166	1597.065	1308.680
-9.590	27.248	1595.662	1308.069
-8.575	27.259	1594.067	1306.787
-7.560	27.221	1593.253	1305.795
-6.546	27.205	1592.077	1304.664
-5.531	27.172	1591.121	1303.593
-4.517	27.108	1589.988	1302.153
-3.502	27.110	1589.144	1301.423
-2.487	27.173	1587.359	1300.358
-1.473	26.810	1575.308	1287.862
-0.458	23.829	1555.640	1250.788
0.556	22.071	1556.291	1217.971
1.571	19.486	1580.107	1218.272
2.586	18.974	1592.154	1223.811
3.600	17.270	1538.295	1170.585
4.615	10.736	1433.151	1048.427
5.629	4.976	1373.457	968.949
6.644	3.978	1365.667	957.196
7.659	4.004	1364.297	956.314
8.673	4.130	1363.866	956.705
9.688	4.168	1361.985	955.533
10.702	4.078	1358.960	952.773
11.717	6.708	1363.866	972.348
12.731	14.317	1377.775	1029.373
13.746	21.028	1389.011	1079.353
14.761	22.921	1391.096	1092.595
15.775	22.395	1388.697	1087.369
16.790	21.459	1386.715	1079.943
17.804	20.789	1384.664	1074.122
18.819	20.458	1383.892	1071.387
19.834	20.440	1382.490	1070.092
20.848	20.415	1382.048	1069.503
21.863	20.226	1380.765	1067.254
22.877	20.188	1379.624	1066.043
23.892	20.171	1378.454	1064.938
24.907	20.107	1377.502	1063.716
25.921	20.027	1376.958	1062.713
26.936	20.150	1375.971	1062.610
27.950	20.063	1374.767	1061.054
28.965	20.233	1373.827	1061.274
29.980	20.333	1373.288	1061.374
30.994	20.467	1372.281	1061.323
32.009	20.553	1371.427	1061.090
33.023	20.472	1370.240	1059.590
34.038	20.299	1368.917	1057.415
35.053	20.304	1367.440	1056.213
36.067	20.213	1366.269	1054.659
37.082	20.331	1365.463	1054.663
38.096	20.424	1364.495	1054.387
39.111	20.394	1364.095	1053.801
40.126	20.236	1362.926	1051.845
41.140	19.935	1361.977	1049.198
42.155	19.723	1360.951	1047.031
43.169	19.744	1360.709	1046.877
44.184	19.796	1360.048	1046.592
45.199	19.838	1360.303	1046.949
46.213	20.125	1359.860	1048.253
47.228	20.235	1359.347	1048.428
48.242	20.267	1357.683	1047.246
49.257	20.116	1356.545	1045.367
50.271	20.105	1355.354	1044.289
51.286	20.193	1353.786	1043.519
52.301	20.104	1352.550	1041.940
53.315	19.911	1351.735	1040.055
54.330	19.842	1350.624	1038.695
55.344	19.906	1348.881	1037.649
56.359	19.823	1348.234	1036.560
57.374	19.699	1347.543	1035.193
58.388	19.634	1346.595	1033.984
59.403	19.647	1345.881	1033.424
60.417	19.581	1345.106	1032.346
61.432	19.444	1344.411	1030.902
62.447	19.367	1343.641	1029.758
63.461	19.399	1341.995	1028.598
64.476	19.280	1341.271	1027.240
65.490	19.383	1339.507	1026.410
66.505	19.482	1337.997	1025.755
67.520	19.531	1336.802	1025.038
68.534	19.509	1335.759	1024.018
69.549	19.398	1334.828	1022.556
70.563	19.313	1333.626	1021.040
71.578	19.281	1332.562	1019.943
72.593	19.168	1331.517	1018.386
73.607	19.179	1330.287	1017.421
74.622	19.251	1330.368	1017.818
75.636	19.314	1329.638	1017.540
76.651	19.323	1328.784	1016.850
77.666	19.310	1328.891	1016.768
78.680	19.432	1328.243	1016.900
79.695	19.432	1327.528	1016.262
80.709	19.664	1327.001	1017.133
81.724	19.791	1326.594	1017.480
82.739	20.035	1325.128	1017.698
83.753	20.026	1325.026	1017.479
84.768	20.176	1324.216	1017.645
85.782	20.279	1323.112	1017.312
86.797	20.381	1321.919	1016.905
87.812	20.215	1320.604	1014.828
88.826	20.142	1319.630	1013.565
89.841	20.253	1318.680	1013.395
90.855	20.364	1318.011	1013.439
91.870	20.436	1317.073	1013.046
92.884	20.386	1316.163	1011.967
93.899	20.457	1315.533	1011.803
94.914	20.475	1314.537	1011.052
95.928	20.498	1314.105	1010.765
96.943	20.312	1313.228	1008.923
97.957	20.335	1312.017	1008.037
98.972	20.337	1311.305	1007.413
99.987	20.301	1309.806	1005.963
101.001	20.281	1308.993	1005.135
102.016	20.265	1308.239	1004.371
103.030	20.323	1307.173	1003.802
104.045	20.269	1306.428	1002.829
105.060	20.167	1304.850	1000.936
106.074	19.826	1302.742	997.268
107.089	19.466	1301.591	994.226
108.103	19.396	1300.401	992.822
109.118	19.444	1298.894	991.861
110.133	19.455	1297.457	990.742
111.147	19.359	1296.334	989.242
112.162	19.510	1295.527	989.407
113.176	19.579	1294.315	988.787
114.191	19.657	1293.794	988.748
115.206	19.685	1292.362	987.726
116.220	19.611	1291.198	986.324
117.235	19.462	1290.626	984.954
118.249	19.492	1289.021	983.813
119.264	19.447	1287.417	982.244
120.279	19.318	1286.641	980.829
121.293	19.260	1285.423	979.484
122.308	19.097	1284.614	977.857
123.322	19.134	1283.475	977.115
124.337	19.142	1282.414	976.264
125.352	19.048	1281.186	974.714
126.366	19.129	1280.072	974.237
127.381	19.110	1278.805	973.075
128.395	19.063	1277.851	971.998
129.410	19.176	1276.856	971.796
130.424	19.181	1276.713	971.632
131.439	19.377	1275.695	971.872
132.454	19.546	1274.867	972.106
133.468	19.493	1274.347	971.326
134.483	19.464	1273.812	970.669
135.497	19.570	1272.542	970.213
136.512	19.590	1271.420	969.386
137.527	19.635	1269.937	968.418
138.541	19.604	1269.290	967.669
139.556	19.727	1267.713	967.067
140.570	19.767	1267.050	966.698
141.585	19.877	1266.409	966.741
142.600	20.162	1264.782	967.002
143.614	20.328	1264.213	967.407
144.629	20.252	1263.296	966.194
145.643	20.232	1262.405	965.317
146.658	20.030	1260.700	962.805
147.673	19.717	1259.244	959.871
148.687	19.708	1257.834	958.659
149.702	19.644	1256.702	957.357
150.716	19.575	1254.917	955.530
151.731	19.514	1253.884	954.326
152.746	19.620	1253.290	954.374
153.760	19.729	1251.380	953.435
154.775	19.825	1250.795	953.436
155.789	19.900	1250.340	953.414
156.804	20.029	1248.749	952.828
157.819	20.037	1248.393	952.519
158.833	20.084	1247.726	952.182
159.848	20.340	1246.883	952.860
160.862	20.176	1245.712	950.982
161.877	19.895	1244.403	948.360
162.892	19.591	1242.958	945.509
163.906	19.638	1242.018	944.966
164.921	19.590	1241.058	943.888
165.935	19.642	1240.608	943.750
166.950	19.869	1239.636	944.166
167.964	19.708	1239.425	943.042
168.979	19.652	1238.562	941.995
169.994	19.650	1237.912	941.408
171.008	19.742	1237.239	941.315
172.023	19.893	1235.973	941.088
173.037	20.034	1235.705	941.565
174.052	20.104	1234.747	941.137
175.067	19.866	1233.305	938.662
176.081	19.654	1231.995	936.430
177.096	19.629	1231.380	935.748
178.110	19.600	1230.486	934.830
179.125	19.709	1229.332	934.458
180.140	19.989	1228.133	934.977
181.154	20.097	1227.225	934.782
182.169	20.082	1226.419	934.006
183.183	20.155	1225.459	933.587
184.198	20.290	1224.052	933.160
185.213	20.270	1223.361	932.440
186.227	20.290	1222.342	931.689
187.242	20.205	1222.032	930.913
188.256	20.346	1221.218	930.970
189.271	20.416	1219.905	930.260
190.286	20.230	1218.413	928.045
191.300	19.683	1217.240	924.142
192.315	19.494	1216.598	922.567
193.329	19.740	1215.674	923.099
194.344	19.639	1215.495	922.339
195.359	19.797	1214.964	922.700
196.373	19.910	1214.294	922.708
197.388	20.095	1213.995	923.386
198.402	20.236	1214.147	924.175
199.417	20.510	1213.357	924.950
200.432	20.651	1212.967	925.321
201.446	20.743	1212.141	925.098
202.461	20.721	1211.844	924.671
203.475	20.775	1210.692	923.994
204.490	20.434	1208.859	920.710
205.504	20.256	1207.616	918.736
206.519	20.140	1206.282	917.027
207.534	20.093	1205.361	915.999
208.548	20.130	1204.509	915.466
209.563	20.141	1203.960	915.026
210.577	20.241	1202.704	914.517
211.592	20.343	1202.062	914.486
212.607	20.487	1201.614	914.821
213.621	20.505	1200.639	914.094
214.636	20.445	1199.486	912.817
215.650	20.448	1198.563	912.049
216.665	20.488	1198.221	911.921
217.680	20.625	1197.430	911.958
218.694	20.732	1196.671	911.856
219.709	20.716	1195.588	910.870
220.723	20.705	1194.856	910.172
221.738	20.623	1194.161	909.133
222.753	20.537	1193.537	908.128
223.767	20.516	1193.010	907.537
224.782	20.783	1192.110	908.166
225.796	20.915	1192.058	908.735
226.811	20.798	1190.900	907.160
227.826	20.517	1190.411	905.248
228.840	20.446	1189.375	904.010
229.855	20.570	1188.256	903.723
230.869	20.603	1187.354	903.128
231.884	20.395	1186.550	901.359
232.899	20.338	1185.551	900.223
233.913	20.263	1184.459	898.923
234.928	20.268	1183.993	898.519
235.942	20.058	1183.371	896.881
236.957	20.102	1182.474	896.350
237.972	20.091	1182.069	895.903
238.986	20.243	1181.343	896.061
240.001	20.188	1180.406	894.988
241.015	20.304	1179.380	894.728
242.030	20.354	1179.178	894.755
243.045	20.471	1178.389	894.678
244.059	20.381	1178.258	894.033
245.074	20.549	1176.627	893.582
246.088	20.643	1176.188	893.652
247.103	20.840	1175.622	894.155
248.117	20.919	1174.883	893.920
249.132	21.055	1174.940	894.583
250.147	21.330	1174.363	895.474
251.161	21.493	1173.541	895.600
252.176	21.602	1172.633	895.387
253.190	21.663	1172.365	895.416
254.205	21.629	1172.325	895.132
255.220	21.737	1171.491	894.965
256.234	21.781	1170.618	894.441
257.249	21.577	1170.183	892.992
258.263	21.620	1169.380	892.518
259.278	21.604	1168.956	892.036
260.293	21.626	1168.479	891.704
261.307	21.689	1167.607	891.282
262.322	21.699	1167.183	890.929
263.336	21.896	1166.240	891.130
264.351	21.710	1165.954	889.890
265.366	21.847	1165.294	889.999
266.380	21.659	1164.416	888.300
267.395	21.703	1163.109	887.444
268.409	21.460	1162.471	885.649
269.424	21.483	1162.111	885.415
270.439	21.444	1161.725	884.847
271.453	21.402	1160.420	883.559
272.468	21.313	1158.914	881.885
273.482	21.128	1158.778	880.772
274.497	21.233	1158.211	880.790
275.512	21.246	1157.023	879.877
276.526	21.382	1156.213	879.867
277.541	21.246	1156.034	878.966
278.555	21.451	1155.342	879.394
279.570	21.685	1155.070	880.284
280.585	21.827	1154.019	880.122
281.599	21.651	1153.602	878.843
282.614	21.486	1152.293	876.941
283.628	21.504	1151.030	875.992
284.643	21.382	1149.858	874.411
285.657	21.479	1149.258	874.362
286.672	21.511	1148.086	873.555
287.687	21.442	1147.865	872.965
288.701	21.338	1146.753	871.520
289.716	21.418	1145.849	871.155
290.730	21.374	1145.546	870.627
291.745	21.601	1144.254	870.699
292.760	21.587	1144.167	870.488
293.774	21.833	1143.317	870.986
294.789	21.861	1142.922	870.746
295.803	21.802	1142.564	870.102
296.818	21.548	1141.780	868.170
297.833	21.508	1140.596	866.995
298.847	21.537	1139.628	866.326
299.862	21.581	1138.859	865.880
300.876	21.533	1138.646	865.407
301.891	21.650	1138.263	865.617
302.906	21.773	1137.576	865.623
303.920	21.942	1137.108	866.025
304.935	22.038	1136.547	865.995
305.949	22.086	1135.793	865.583
306.964	22.220	1135.020	865.573
307.979	21.898	1134.111	863.219
308.993	21.783	1134.019	862.507
310.008	22.010	1132.758	862.587
311.022	22.051	1132.220	862.304
312.037	22.030	1131.456	861.542
313.052	21.874	1129.890	859.512
314.066	21.624	1128.985	857.521
315.081	21.444	1127.814	855.674
316.095	21.367	1126.976	854.586
317.110	21.451	1126.374	854.467
318.125	21.459	1125.795	853.990
319.139	21.376	1125.428	853.233
320.154	21.517	1124.059	852.806
321.168	21.433	1123.607	851.976
322.183	21.464	1123.246	851.779
323.197	21.546	1122.864	851.814
324.212	21.671	1121.867	851.587
325.227	21.637	1121.687	851.213
326.241	21.888	1120.630	851.551
327.256	21.550	1120.090	849.425
328.270	21.652	1118.796	848.863
329.285	21.537	1117.908	847.558
330.300	21.561	1117.209	847.069
331.314	21.555	1116.253	846.241
332.329	21.694	1115.174	846.021
333.343	21.654	1114.703	845.397
334.358	21.698	1114.223	845.166
335.373	21.838	1113.754	845.411
336.387	21.929	1112.633	844.928
337.402	21.956	1111.970	844.479
338.416	22.057	1111.298	844.380
339.431	22.310	1110.729	845.086
340.446	22.351	1110.173	844.786
341.460	22.522	1109.833	845.272
342.475	22.641	1109.056	845.176
343.489	22.617	1108.210	844.342
344.504	22.658	1107.302	843.772
345.519	22.742	1106.611	843.573
346.533	22.825	1105.551	843.087
347.548	22.743	1105.339	842.456
348.562	22.772	1104.109	841.584
349.577	22.517	1103.417	839.766
350.592	22.127	1102.088	836.824
351.606	21.977	1101.254	835.404
352.621	22.023	1100.653	835.090
353.635	21.935	1099.660	833.847
354.650	21.959	1099.268	833.589
355.665	22.097	1098.534	833.614
356.679	22.174	1097.886	833.412
357.694	22.174	1097.546	833.082
358.708	22.379	1096.942	833.521
359.723	22.360	1096.299	832.867
360.738	22.371	1095.303	832.091
361.752	22.190	1095.183	831.068
362.767	22.303	1094.828	831.262
363.781	22.402	1093.770	830.850
364.796	22.644	1093.417	831.651
365.810	22.716	1093.105	831.677
366.825	22.839	1092.441	831.681
367.840	22.990	1092.415	832.300
368.854	23.113	1091.871	832.387
369.869	23.021	1090.972	831.197
370.883	22.871	1089.980	829.661
371.898	22.679	1088.974	827.920
372.913	22.634	1088.477	827.261
373.927	22.700	1088.155	827.252
374.942	22.947	1087.778	828.051
375.956	22.913	1086.850	827.111
376.971	22.871	1085.941	826.150
377.986	22.921	1085.797	826.201
379.000	23.075	1085.249	826.430
380.015	23.109	1084.944	826.285
381.029	23.169	1084.199	825.922
382.044	23.199	1083.599	825.533
383.059	23.114	1082.586	824.293
384.073	23.095	1082.380	823.975
385.088	23.119	1080.820	822.824
386.102	23.046	1079.757	821.606
387.117	22.983	1078.675	820.416
388.132	22.744	1077.448	818.302
389.146	22.648	1076.646	817.177
390.161	22.604	1075.927	816.355
391.175	22.680	1075.233	816.108
392.190	22.806	1074.983	816.427
393.205	23.022	1074.366	816.884
394.219	22.950	1073.830	816.072
395.234	22.838	1072.536	814.499
396.248	22.727	1071.228	812.923
397.263	22.738	1070.443	812.306
398.278	22.649	1069.592	811.177
399.292	22.495	1069.037	809.980
400.307	22.454	1067.874	808.838
401.321	22.367	1067.400	808.007
402.336	22.457	1066.862	807.940
403.350	22.466	1065.848	807.143
404.365	22.679	1065.602	807.860
405.380	22.681	1065.271	807.549
406.394	22.717	1064.447	807.018
407.409	22.920	1063.655	807.270
408.423	23.251	1062.867	808.113
409.438	23.200	1062.931	807.858
410.453	23.269	1062.010	807.400
411.467	23.383	1061.721	807.630
412.482	23.298	1061.059	806.668
413.496	23.401	1060.384	806.553
414.511	23.364	1060.186	806.164
415.526	23.599	1059.523	806.654
416.540	23.756	1059.006	806.904
417.555	23.635	1058.456	805.863
418.569	23.450	1057.557	804.266
419.584	23.551	1056.990	804.225
420.599	23.467	1056.759	803.594
421.613	157.669	1404.368	1798.148
422.628	144.871	1454.973	1798.236
