DTS Sentinel unit serial number:	SN413079Multiplexer serial number:	ORYXHardware model number:	OX4-SRSoftware version number:	ORYX F/W v4.00 Oryx Data Collector v3.7.2.0data status	okinstallation	princeton_trtdifferential loss correction	single-endedforward channel	channel 2reverse channel	N/Adate	2019/09/12time	18:33:49forward acquisition time	15.00reverse acquisition time	0.00gamma	496.2192k internal	0.2324k external	0.2324temperature offset calibration	1.0135default loss term (dB/km)	0.3790temperature slope calibration	1.0000multiplexer offset coefficient	1.0000multiplexer slope coefficient	1.0000fibre end	0.00T internal ref (°C)	33.19T ext. ref 1 (°C)	2.96T ext. ref 2 (°C)	27.72length (m)	temperature (°C)	Stokes	anti-Stokes-747.200	11.258	0.666	0.514
-746.185	420.177	0.560	-1.212
-745.171	3.281	-0.501	-0.368
-744.156	-73.566	-0.705	0.259
-743.142	-138.353	-0.778	-0.087
-742.127	14.556	-0.353	-0.278
-741.112	-113.670	0.231	0.045
-740.098	-113.076	-1.193	0.238
-739.083	59.467	-0.625	0.622
-738.069	228.407	0.160	-0.263
-737.054	-120.118	-0.480	-0.083
-736.039	-106.407	-0.936	-0.211
-735.025	-71.005	-0.490	-0.186
-734.010	-1.637	0.543	0.386
-732.996	21.967	-0.100	0.082
-731.981	-117.969	-0.564	0.102
-730.966	170.371	-0.186	0.269
-729.952	237.724	-0.263	-0.440
-728.937	25.532	0.342	-0.287
-727.923	-95.736	0.318	0.086
-726.908	-200.000	0.003	0.536
-725.894	-55.223	-0.050	0.023
-724.879	-200.000	0.098	0.510
-723.864	-166.753	-0.572	0.024
-722.850	-89.559	-0.663	0.196
-721.835	-117.358	0.401	0.073
-720.821	800.000	0.027	-0.099
-719.806	800.000	0.039	-0.121
-718.791	560.392	-0.212	-0.517
-717.777	9.947	0.377	-0.289
-716.762	-181.596	-0.116	0.002
-715.748	-200.000	-0.078	-0.682
-714.733	-90.806	0.501	0.146
-713.718	212.709	0.526	0.837
-712.704	-88.277	0.409	0.123
-711.689	-156.593	-0.622	0.039
-710.675	-200.000	0.099	-1.085
-709.660	335.036	-0.074	0.146
-708.645	-109.248	-0.107	-0.023
-707.631	-5.556	0.611	-0.422
-706.616	36.345	-0.533	0.474
-705.602	-75.530	-0.713	0.256
-704.587	-119.330	-0.407	-0.071
-703.572	534.476	0.238	-0.568
-702.558	800.000	-0.139	-0.590
-701.543	678.662	0.192	0.503
-700.529	31.620	0.716	0.621
-699.514	23.863	-0.412	-0.342
-698.499	-200.000	-0.012	-1.048
-697.485	-25.433	0.427	-0.255
-696.470	394.057	0.293	-0.615
-695.456	514.820	0.299	-0.704
-694.441	31.836	0.082	-0.071
-693.426	-200.000	-0.072	-0.346
-692.412	67.383	-0.466	0.479
-691.397	382.756	-0.269	-0.557
-690.383	91.540	-0.361	-0.409
-689.368	-63.205	-0.240	0.099
-688.354	-153.205	0.265	0.019
-687.339	-126.221	-0.355	-0.053
-686.324	496.284	0.162	-0.376
-685.310	-145.127	0.501	-0.046
-684.295	386.132	0.055	0.115
-683.281	-172.960	-0.825	0.026
-682.266	-200.000	-0.132	-0.631
-681.251	-164.975	0.796	-0.036
-680.237	14.247	-0.436	0.342
-679.222	800.000	-0.136	-0.418
-678.208	-166.652	-0.594	-0.025
-677.193	-165.971	0.252	0.011
-676.178	120.189	-0.090	0.112
-675.164	-18.922	-0.479	-0.300
-674.149	207.316	0.202	0.317
-673.135	-200.000	0.002	-0.139
-672.120	-37.708	-0.608	0.326
-671.105	-200.000	-0.008	-0.371
-670.091	-21.411	-0.481	0.295
-669.076	-142.701	0.460	-0.045
-668.062	-200.000	-0.070	0.350
-667.047	-200.000	-0.035	-1.024
-666.032	71.265	-0.095	0.099
-665.018	-153.062	0.953	0.067
-664.003	-134.175	1.040	-0.129
-662.989	118.185	-0.247	-0.307
-661.974	48.727	0.577	0.545
-660.959	-80.694	-0.582	0.195
-659.945	69.996	-0.055	0.057
-658.930	-200.000	-0.035	-1.041
-657.916	530.617	0.076	0.180
-656.901	800.000	0.160	0.571
-655.886	-200.000	-0.107	0.807
-654.872	-8.524	0.351	0.237
-653.857	-118.621	-0.496	0.088
-652.843	800.000	-0.122	0.497
-651.828	-200.000	0.012	-0.715
-650.814	325.796	-0.292	-0.561
-649.799	800.000	-0.063	0.202
-648.784	-112.424	-0.349	0.070
-647.770	-46.847	-0.443	0.218
-646.755	60.541	0.197	-0.196
-645.741	-27.340	-0.631	0.369
-644.726	-169.530	0.479	0.018
-643.711	211.767	0.454	0.720
-642.697	397.096	0.262	0.550
-641.682	-142.146	0.280	0.028
-640.668	293.764	-0.291	0.534
-639.653	800.000	-0.274	-1.202
-638.638	-151.973	0.471	-0.035
-637.624	-11.323	0.903	0.597
-636.609	-158.427	0.080	-0.005
-635.595	-74.351	-0.559	-0.203
-634.580	-167.025	0.396	-0.016
-633.565	-96.621	-0.767	-0.203
-632.551	39.438	-0.133	-0.119
-631.536	-111.801	-1.634	0.332
-630.522	800.000	-0.096	-0.272
-629.507	-200.000	-0.010	0.255
-628.492	11.829	0.301	0.232
-627.478	57.143	-0.189	0.186
-626.463	213.037	-0.398	0.631
-625.449	96.947	0.292	-0.336
-624.434	800.000	0.138	-0.585
-623.419	-9.376	-0.419	-0.281
-622.405	-79.929	-0.137	0.046
-621.390	-200.000	0.054	-0.434
-620.376	230.324	-0.286	0.470
-619.361	-80.623	0.604	-0.202
-618.346	321.937	-0.104	0.199
-617.332	-41.058	-0.237	-0.123
-616.317	-39.270	-0.493	0.260
-615.303	-124.944	-0.633	-0.098
-614.288	167.008	0.176	0.252
-613.273	9.436	0.282	-0.215
-612.259	178.484	0.195	-0.286
-611.244	-102.595	0.664	-0.159
-610.230	-200.000	0.035	-0.573
-609.215	6.422	0.701	-0.523
-608.201	-90.519	0.359	0.104
-607.186	38.881	0.702	-0.630
-606.171	800.000	0.134	0.557
-605.157	16.189	0.371	0.293
-604.142	44.198	-0.121	-0.112
-603.128	-7.132	-0.719	-0.490
-602.113	651.316	-0.156	-0.401
-601.098	-122.681	-0.978	-0.159
-600.084	154.902	-0.254	-0.350
-599.069	-160.701	0.375	0.020
-598.055	391.035	0.323	0.673
-597.040	202.845	-0.359	0.557
-596.025	328.666	-0.131	-0.252
-595.011	-96.526	-0.359	0.095
-593.996	96.555	-0.489	0.562
-592.982	-200.000	0.024	-0.183
-591.967	800.000	-0.051	0.200
-590.952	31.839	-0.141	0.122
-589.938	800.000	-0.124	-0.376
-588.923	-200.000	0.033	-0.261
-587.909	-146.406	-0.234	-0.021
-586.894	-104.461	-0.109	0.025
-585.879	-137.368	-0.541	0.061
-584.865	-127.456	0.314	-0.046
-583.850	-50.732	-0.964	0.455
-582.836	21.159	-0.710	-0.578
-581.821	-200.000	-0.047	0.509
-580.806	-137.769	-0.409	0.046
-579.792	135.982	0.321	0.419
-578.777	-200.000	-0.009	-0.715
-577.763	83.429	0.171	0.186
-576.748	148.946	0.330	-0.448
-575.733	-57.741	-0.596	-0.262
-574.719	-130.834	0.687	-0.092
-573.704	-93.774	0.907	0.251
-572.690	-71.046	0.216	0.082
-571.675	-9.433	0.426	0.285
-570.661	-61.503	-0.592	0.249
-569.646	91.622	0.236	0.266
-568.631	222.736	-0.192	-0.310
-567.617	800.000	0.051	-0.150
-566.602	-200.000	0.037	0.328
-565.588	-86.663	0.155	0.048
-564.573	572.844	-0.064	-0.157
-563.558	800.000	0.225	0.632
-562.544	26.863	0.146	0.123
-561.529	-63.255	0.314	0.130
-560.515	585.055	-0.129	0.318
-559.500	-166.955	-0.565	0.023
-558.485	-92.056	0.472	-0.134
-557.471	-200.000	-0.105	-0.573
-556.456	532.352	0.370	0.878
-555.442	-51.133	0.343	-0.161
-554.427	-108.842	-0.765	0.164
-553.412	35.358	0.770	0.677
-552.398	-200.000	0.113	0.653
-551.383	86.782	0.720	0.796
-550.369	-200.000	-0.022	0.175
-549.354	396.358	0.048	-0.101
-548.339	-200.000	0.046	-0.505
-547.325	-158.225	0.774	0.045
-546.310	387.799	-0.209	-0.433
-545.296	-38.513	-0.700	-0.371
-544.281	-200.000	-0.115	-0.614
-543.266	-120.522	-0.750	0.127
-542.252	-136.009	0.542	-0.064
-541.237	-156.934	-0.363	0.022
-540.223	-66.237	-0.185	-0.074
-539.208	222.615	0.130	-0.210
-538.193	-8.401	-0.128	0.086
-537.179	-107.793	-0.710	0.155
-536.164	-1.938	0.263	0.185
-535.150	-112.000	-0.939	0.189
-534.135	-200.000	-0.078	0.617
-533.121	-200.000	0.096	-0.428
-532.106	67.696	0.287	-0.293
-531.091	88.959	0.324	0.362
-530.077	33.392	-0.406	0.353
-529.062	-140.454	-0.592	-0.062
-528.048	-113.330	-0.333	0.065
-527.033	54.849	0.485	0.469
-526.018	38.747	0.674	-0.603
-525.004	800.000	-0.046	-0.141
-523.989	268.940	0.115	0.202
-522.975	800.000	-0.170	-0.487
-521.960	-134.792	-1.105	-0.134
-520.945	-164.666	0.496	-0.022
-519.931	-73.751	0.405	0.148
-518.916	-44.843	-0.562	-0.280
-517.902	-126.119	-0.165	-0.025
-516.887	273.841	0.087	0.154
-515.872	202.579	0.697	1.077
-514.858	-200.000	0.004	-0.652
-513.843	-128.432	-0.323	0.046
-512.829	-66.138	-0.548	0.219
-511.814	-156.712	-0.500	0.031
-510.799	22.676	0.296	-0.243
-509.785	104.322	-0.332	0.391
-508.770	-67.761	-0.891	-0.349
-507.756	-17.595	0.514	0.323
-506.741	-165.557	-0.823	0.036
-505.726	13.060	-0.727	-0.562
-504.712	-154.508	-0.282	0.019
-503.697	61.071	0.383	0.380
-502.683	-138.926	-0.849	0.092
-501.668	-200.000	0.010	-0.179
-500.653	14.471	0.711	-0.555
-499.639	-200.000	-0.031	0.761
-498.624	-200.000	-0.019	0.109
-497.610	409.853	-0.266	-0.563
-496.595	-16.788	0.321	-0.203
-495.581	-200.000	0.017	0.432
-494.566	-24.737	-0.444	0.264
-493.551	-133.162	-0.581	0.074
-492.537	-58.800	-0.392	-0.170
-491.522	369.293	0.270	0.546
-490.508	-161.080	0.888	-0.046
-489.493	-107.020	-0.527	-0.116
-488.478	-200.000	-0.050	0.395
-487.464	-102.009	0.617	-0.149
-486.449	-30.034	0.098	-0.056
-485.435	-32.743	-0.475	-0.264
-484.420	800.000	-0.031	-0.089
-483.405	-187.671	-0.872	-0.012
-482.391	-148.099	-0.279	-0.023
-481.376	127.813	-0.731	0.929
-480.362	800.000	-0.255	0.846
-479.347	-78.125	-0.483	0.166
-478.332	11.057	0.452	-0.345
-477.318	800.000	0.063	-0.184
-476.303	-200.000	-0.064	-0.596
-475.289	-11.264	0.641	-0.422
-474.274	149.632	0.183	-0.248
-473.259	-51.354	0.656	-0.307
-472.245	-91.532	0.352	-0.100
-471.230	-87.611	0.116	-0.035
-470.216	36.384	0.105	0.092
-469.201	28.351	0.144	0.121
-468.186	800.000	0.167	-0.590
-467.172	-53.137	0.582	-0.267
-466.157	-105.460	0.440	0.100
-465.143	-34.541	0.150	0.082
-464.128	-91.782	-0.753	-0.214
-463.113	-200.000	-0.067	-0.429
-462.099	81.286	-0.432	-0.466
-461.084	-117.949	-0.784	-0.140
-460.070	-21.803	-0.415	0.252
-459.055	115.144	0.651	0.793
-458.040	-9.874	-0.109	-0.072
-457.026	-143.386	0.374	0.036
-456.011	-63.142	-0.396	0.163
-454.997	-142.860	0.147	-0.014
-453.982	319.775	-0.338	-0.640
-452.968	7.892	-0.388	0.291
-451.953	38.617	0.245	-0.218
-450.938	-4.848	1.212	0.833
-449.924	56.026	-0.485	0.470
-448.909	-7.356	0.648	0.438
-447.895	-81.682	-0.701	-0.229
-446.880	103.614	-0.296	0.347
-445.865	-2.318	0.228	0.160
-444.851	72.797	-0.121	0.126
-443.836	-134.612	-0.066	0.008
-442.822	79.173	0.289	0.309
-441.807	-200.000	0.030	0.165
-440.792	95.601	-0.202	0.230
-439.778	605.490	-0.271	-0.672
-438.763	-25.467	0.454	0.268
-437.749	-135.904	-0.356	0.042
-436.734	-45.051	-0.201	0.100
-435.719	75.873	-0.876	-0.924
-434.705	3.292	-0.384	0.279
-433.690	-200.000	0.031	0.849
-432.676	-43.375	0.191	-0.096
-431.661	-200.000	0.036	0.624
-430.646	-12.345	-0.563	0.367
-429.632	160.922	0.252	0.350
-428.617	15.924	-1.023	-0.803
-427.603	800.000	0.073	0.229
-426.588	800.000	0.063	0.237
-425.573	-171.941	0.280	-0.009
-424.559	-142.673	-0.599	0.058
-423.544	117.189	-0.461	0.564
-422.530	104.328	-0.045	0.053
-421.515	-45.121	0.418	0.207
-420.500	88.498	0.655	-0.726
-419.486	-108.700	-0.320	0.068
-418.471	-103.904	0.634	0.148
-417.457	132.919	-0.584	0.752
-416.442	183.994	0.141	0.208
-415.428	143.274	0.201	0.267
-414.413	247.907	-0.066	0.111
-413.398	-142.207	-0.620	-0.061
-412.384	41.078	-0.279	-0.251
-411.369	-200.000	-0.103	-0.516
-410.355	189.130	-0.262	0.391
-409.340	-109.149	-0.724	-0.153
-408.325	-22.476	0.079	-0.048
-407.311	-127.900	0.177	-0.025
-406.296	-173.484	-1.336	-0.040
-405.282	584.607	-0.287	0.702
-404.267	39.255	-0.487	0.434
-403.252	1.959	-0.450	0.323
-402.238	-12.060	0.445	-0.291
-401.223	-39.638	0.441	0.230
-400.209	41.674	0.593	0.535
-399.194	-59.749	0.346	-0.147
-398.179	800.000	-0.101	-0.356
-397.165	431.775	-0.175	0.377
-396.150	-88.732	0.420	0.124
-395.136	-179.723	0.176	0.004
-394.121	800.000	0.221	-0.609
-393.106	60.038	0.980	0.964
-392.092	-200.000	0.050	-0.248
-391.077	-59.270	-0.312	-0.134
-390.063	318.263	0.119	-0.225
-389.048	-200.000	0.090	-0.834
-388.033	45.687	0.515	-0.474
-387.019	40.379	0.286	0.257
-386.004	-114.287	-0.229	0.044
-384.990	103.630	-0.189	0.221
-383.975	170.797	-0.098	0.139
-382.960	-110.852	-0.218	0.045
-381.946	54.011	-0.169	0.162
-380.931	585.743	-0.253	-0.618
-379.917	164.062	-0.558	-0.782
-378.902	8.993	0.619	-0.465
-377.888	-24.293	0.384	-0.228
-376.873	-200.000	-0.031	0.578
-375.858	129.037	0.505	-0.641
-374.844	-200.000	0.083	0.516
-373.829	209.188	0.414	0.645
-372.815	-26.050	-0.075	0.044
-371.800	800.000	0.113	-0.340
-370.785	2.473	0.192	0.138
-369.771	57.110	0.680	0.660
-368.756	284.211	0.112	0.200
-367.742	37.509	0.900	0.794
-366.727	122.940	0.347	0.432
-365.712	-200.000	0.067	-0.488
-364.698	800.000	0.145	-0.509
-363.683	-200.000	-0.003	0.775
-362.669	800.000	0.214	-0.639
-361.654	800.000	0.258	-0.735
-360.639	-6.209	0.666	-0.452
-359.625	-7.764	0.076	-0.051
-358.610	289.133	-0.225	0.406
-357.596	207.701	0.280	0.435
-356.581	334.177	-0.396	-0.762
-355.566	-200.000	0.059	-0.268
-354.552	-24.702	0.834	-0.493
-353.537	99.708	-0.462	-0.532
-352.523	-140.101	0.382	-0.040
-351.508	61.677	-0.233	0.231
-350.493	603.848	-0.178	-0.439
-349.479	308.132	-0.220	-0.408
-348.464	107.148	-0.210	0.248
-347.450	112.254	0.216	0.259
-346.435	353.611	0.241	0.476
-345.420	-200.000	0.031	0.253
-344.406	93.396	-0.510	-0.573
-343.391	800.000	0.108	-0.366
-342.377	3.917	-0.505	-0.366
-341.362	-200.000	0.004	0.416
-340.348	-117.627	1.043	-0.187
-339.333	-155.619	-0.320	-0.020
-338.318	-49.683	0.475	-0.225
-337.304	-11.506	0.312	-0.204
-336.289	-7.978	0.809	-0.542
-335.275	-50.255	0.373	0.175
-334.260	-68.449	0.140	0.054
-333.245	119.115	0.244	-0.300
-332.231	-200.000	-0.092	0.833
-331.216	-200.000	0.101	0.891
-330.202	-3.929	0.382	0.263
-329.187	52.861	0.145	0.137
-328.172	-15.405	0.579	0.367
-327.158	-200.000	0.041	-1.028
-326.143	-154.332	-0.199	-0.013
-325.129	-44.639	-0.770	-0.382
-324.114	591.297	0.138	-0.338
-323.099	-200.000	0.043	-0.230
-322.085	-140.144	0.409	-0.043
-321.070	-134.146	-1.002	0.123
-320.056	42.961	-0.039	-0.036
-319.041	132.594	0.100	-0.128
-318.026	-33.198	-1.330	0.732
-317.012	-85.467	0.441	0.136
-315.997	344.043	-0.187	0.364
-314.983	-200.000	-0.008	0.683
-313.968	800.000	0.150	-0.518
-312.953	689.683	-0.076	-0.197
-311.939	-103.493	-0.515	0.120
-310.924	93.383	0.454	0.510
-309.910	-200.000	0.141	0.788
-308.895	-200.000	-0.065	0.603
-307.880	195.315	0.216	-0.325
-306.866	-45.190	-0.373	0.184
-305.851	800.000	-0.107	0.324
-304.837	209.762	-0.376	0.585
-303.822	-23.041	-0.475	0.284
-302.807	-200.000	0.027	-0.403
-301.793	3.139	-0.313	-0.226
-300.778	-75.390	0.953	-0.337
-299.764	-200.000	0.075	0.644
-298.749	197.098	0.235	-0.356
-297.735	-200.000	-0.036	0.385
-296.720	-200.000	0.010	0.189
-295.705	-200.000	-0.163	-0.855
-294.691	-22.987	-0.344	0.206
-293.676	-165.254	0.233	0.010
-292.662	-139.952	0.332	0.035
-291.647	48.202	-0.491	-0.455
-290.632	-200.000	-0.080	-0.460
-289.618	-35.309	-0.110	0.059
-288.603	32.463	0.442	-0.379
-287.589	-200.000	-0.025	-0.264
-286.574	-200.000	0.119	-0.808
-285.559	137.511	0.458	-0.594
-284.545	-200.000	0.007	-0.411
-283.530	-200.000	-0.066	0.323
-282.516	800.000	-0.105	-0.416
-281.501	124.696	0.018	0.023
-280.486	-136.385	0.832	0.096
-279.472	-78.124	-0.532	-0.181
-278.457	35.096	0.184	-0.160
-277.443	160.599	-0.304	-0.420
-276.428	-200.000	0.016	-0.414
-275.413	-59.236	-0.616	-0.263
-274.399	19.679	0.444	-0.354
-273.384	209.342	0.153	0.238
-272.370	-82.853	-0.141	0.045
-271.355	250.516	0.031	0.053
-270.340	-160.490	-0.609	0.032
-269.326	247.441	0.181	-0.303
-268.311	141.315	0.122	-0.161
-267.297	-200.000	-0.031	0.232
-266.282	-17.350	0.114	-0.071
-265.267	-200.000	-0.017	-0.562
-264.253	-125.754	-0.642	-0.096
-263.238	-50.248	0.777	-0.364
-262.224	-200.000	0.155	-0.789
-261.209	-200.000	-0.066	-0.517
-260.195	-4.488	-0.245	-0.168
-259.180	-70.423	0.435	0.163
-258.165	2.358	-0.167	0.120
-257.151	90.431	0.370	0.410
-256.136	159.963	-0.511	-0.706
-255.122	-140.063	0.640	-0.067
-254.107	800.000	-0.095	0.274
-253.092	-97.872	0.330	-0.085
-252.078	-96.237	0.715	0.188
-251.063	39.898	-0.123	0.110
-250.049	-200.000	0.077	0.622
-249.034	-200.000	0.006	-0.274
-248.019	-124.975	-0.648	0.099
-247.005	-24.137	0.346	-0.204
-245.990	254.703	0.180	-0.305
-244.976	204.206	0.292	0.447
-243.961	716.377	-0.262	-0.688
-242.946	-148.747	-0.335	0.027
-241.932	-65.753	0.144	-0.057
-240.917	-53.076	-0.296	-0.135
-239.903	-19.336	-0.273	0.168
-238.888	84.674	0.468	-0.508
-237.873	594.730	0.123	0.302
-236.859	780.926	-0.062	0.167
-235.844	-5.510	-0.840	-0.571
-234.830	42.300	0.374	0.337
-233.815	-200.000	-0.189	0.990
-232.800	127.482	0.387	-0.486
-231.786	-122.358	0.551	0.089
-230.771	-200.000	0.046	0.718
-229.757	-124.426	0.432	0.067
-228.742	-54.140	-0.239	-0.108
-227.727	63.940	-0.127	-0.126
-226.713	71.457	0.175	-0.179
-225.698	800.000	-0.255	0.827
-224.684	-200.000	0.161	0.938
-223.669	492.021	-0.186	0.422
-222.655	-10.253	0.288	-0.189
-221.640	40.534	0.460	-0.409
-220.625	-200.000	-0.101	0.545
-219.611	-4.435	-1.002	-0.685
-218.596	785.331	-0.171	-0.464
-217.582	340.496	-0.196	-0.377
-216.567	668.441	-0.307	-0.785
-215.552	-200.000	0.037	-0.220
-214.538	-123.338	-0.450	0.071
-213.523	407.948	-0.213	-0.446
-212.509	-67.867	0.628	0.242
-211.494	-200.000	0.009	0.259
-210.479	-200.000	-0.116	-1.167
-209.465	13.659	0.461	0.354
-208.450	-51.453	0.268	-0.124
-207.436	-185.787	-0.279	-0.004
-206.421	440.075	0.171	0.369
-205.406	53.536	0.773	-0.733
-204.392	395.589	-0.083	0.170
-203.377	-10.424	0.683	0.447
-202.363	204.861	0.362	0.555
-201.348	-7.511	-0.377	0.252
-200.333	-136.679	-0.567	-0.065
-199.319	-159.556	-0.372	-0.020
-198.304	5.236	0.446	0.325
-197.290	-26.988	0.281	-0.162
-196.275	-159.148	0.214	0.012
-195.260	800.000	-0.168	0.469
-194.246	73.201	0.427	-0.441
-193.231	-71.560	0.501	0.185
-192.217	77.874	0.384	0.404
-191.202	45.488	0.515	0.469
-190.187	-200.000	0.140	1.195
-189.173	-200.000	0.107	0.497
-188.158	147.760	-0.498	-0.663
-187.144	108.590	-0.368	0.435
-186.129	-200.000	-0.010	-0.409
-185.114	20.419	-0.663	0.530
-184.100	-82.562	0.809	-0.259
-183.085	-74.357	-0.535	0.191
-182.071	-10.251	0.430	-0.282
-181.056	-71.336	-0.682	0.253
-180.042	-15.381	0.609	-0.385
-179.027	-17.616	0.896	0.556
-178.012	-128.701	0.579	-0.081
-176.998	-200.000	-0.042	0.183
-175.983	74.098	-0.340	-0.352
-174.969	-123.245	0.181	0.029
-173.954	356.247	-0.555	-1.091
-172.939	-59.771	0.504	0.213
-171.925	0.273	0.728	-0.513
-170.910	487.821	-0.074	0.166
-169.896	-161.751	-0.481	0.024
-168.881	-200.000	0.013	-0.173
-167.866	128.571	-0.104	-0.130
-166.852	119.813	0.437	-0.534
-165.837	-167.691	-0.368	-0.014
-164.823	-181.095	0.444	0.009
-163.808	702.810	-0.095	0.246
-162.793	-200.000	-0.016	-0.609
-161.779	54.509	-0.361	0.344
-160.764	82.984	0.138	-0.148
-159.750	43.670	0.098	-0.088
-158.735	-85.119	0.456	0.141
-157.720	-10.041	0.519	-0.340
-156.706	-113.546	0.332	0.064
-155.691	-200.000	-0.075	-0.500
-154.677	76.196	-0.694	-0.725
-153.662	231.323	-0.285	0.461
-152.647	443.335	0.247	-0.533
-151.633	21.993	-0.124	-0.100
-150.618	-114.476	-0.680	-0.129
-149.604	-197.580	0.497	0.003
-148.589	800.000	-0.122	-0.362
-147.574	466.121	-0.038	0.084
-146.560	-200.000	0.019	0.405
-145.545	-73.357	-0.211	-0.076
-144.531	-178.486	-0.421	-0.010
-143.516	-200.000	0.087	-0.503
-142.502	367.993	-0.574	-1.144
-141.487	352.135	0.233	0.455
-140.472	319.033	-0.337	-0.631
-139.458	-50.503	-0.783	-0.364
-138.443	-71.946	-0.545	-0.200
-137.429	-53.239	0.503	-0.228
-136.414	-107.741	0.417	0.090
-135.399	-200.000	0.004	0.776
-134.385	-85.110	-0.154	0.048
-133.370	-14.732	-0.212	0.135
-132.356	-121.832	-0.577	0.094
-131.341	-58.330	-0.328	-0.141
-130.326	-132.118	0.219	0.028
-129.312	-12.791	-0.220	0.141
-128.297	473.385	0.179	0.399
-127.283	147.347	-0.332	-0.441
-126.268	126.992	-0.533	-0.666
-125.253	-79.184	0.314	0.105
-124.239	-76.702	0.689	-0.238
-123.224	277.732	-0.070	0.122
-122.210	-23.793	-0.513	0.303
-121.195	-21.883	0.615	-0.368
-120.180	658.028	-0.333	-0.844
-119.166	-110.291	0.480	-0.098
-118.151	-95.749	-0.689	-0.181
-117.137	609.080	0.064	-0.156
-116.122	-84.323	-1.304	0.407
-115.107	159.233	-0.061	-0.083
-114.093	5.294	0.329	0.239
-113.078	-200.000	0.184	1.032
-112.064	-200.000	0.007	-0.496
-111.049	-200.000	0.040	0.637
-110.034	800.000	-0.136	-0.523
-109.020	255.515	-0.247	0.416
-108.005	-86.554	0.505	0.152
-106.991	-174.594	-0.281	-0.008
-105.976	-56.534	-0.112	0.049
-104.962	800.000	0.259	0.782
-103.947	-92.612	0.856	-0.236
-102.932	800.000	0.101	0.298
-101.918	-48.361	-0.982	-0.466
-100.903	229.137	-0.149	-0.240
-99.889	26.477	0.697	-0.574
-98.874	800.000	-0.027	-0.107
-97.859	-136.004	0.763	-0.088
-96.845	2.075	-0.731	-0.520
-95.830	800.000	0.218	-0.670
-94.816	-35.095	-0.295	0.158
-93.801	-32.732	-0.325	-0.178
-92.786	1.278	0.334	-0.236
-91.772	-89.784	0.791	-0.228
-90.757	-68.970	0.720	0.273
-89.743	16.523	0.471	-0.366
-88.728	99.808	0.511	-0.582
-87.713	62.402	0.524	-0.515
-86.699	13.212	-0.503	0.383
-85.684	499.090	-0.165	0.375
-84.670	-63.484	-0.416	0.168
-83.655	800.000	-0.354	-1.133
-82.640	800.000	-0.125	0.402
-81.626	11.885	-0.761	-0.576
-80.611	-178.559	-0.225	0.005
-79.597	-126.878	0.712	-0.103
-78.582	275.718	0.524	0.914
-77.567	331.021	-0.203	0.385
-76.553	-200.000	0.005	0.197
-75.538	140.502	-0.331	-0.430
-74.524	125.046	-0.560	0.694
-73.509	-30.416	0.521	-0.291
-72.494	-129.795	0.242	-0.033
-71.480	800.000	0.159	-0.602
-70.465	314.416	0.194	-0.359
-69.451	-200.000	-0.018	0.198
-68.436	338.448	0.240	0.460
-67.422	133.397	0.085	-0.107
-66.407	800.000	0.094	0.362
-65.392	800.000	-0.293	0.839
-64.378	-68.785	-0.420	0.160
-63.363	-200.000	0.099	0.638
-62.349	-40.939	-0.680	0.346
-61.334	10.502	-1.170	-0.876
-60.319	-67.028	0.876	0.340
-59.305	117.978	-0.707	-0.856
-58.290	800.000	0.321	1.140
-57.276	800.000	0.500	1.518
-56.261	-200.000	95.731	569.799
-55.246	646.997	1366.589	3431.523
-54.232	200.331	2542.765	3838.791
-53.217	112.053	2255.802	2678.330
-52.203	42.433	1884.943	1684.312
-51.188	36.395	1676.402	1452.664
-50.173	33.911	1632.143	1396.037
-49.159	52.103	1681.589	1574.329
-48.144	52.866	1698.092	1595.402
-47.130	35.957	1657.479	1432.784
-46.115	33.601	1641.472	1401.504
-45.100	33.358	1637.502	1396.262
-44.086	33.413	1634.052	1393.668
-43.071	33.057	1632.259	1389.473
-42.057	32.932	1631.101	1387.514
-41.042	32.986	1628.394	1385.547
-40.027	32.744	1626.451	1382.068
-39.013	32.959	1625.246	1382.564
-37.998	33.133	1622.408	1381.362
-36.984	33.161	1620.660	1380.030
-35.969	33.221	1620.129	1379.959
-34.954	33.131	1618.815	1378.130
-33.940	33.204	1617.200	1377.228
-32.925	32.983	1614.950	1373.652
-31.911	33.141	1613.867	1373.823
-30.896	33.297	1611.227	1372.653
-29.881	33.250	1609.052	1370.407
-28.867	33.142	1608.185	1368.829
-27.852	33.261	1606.715	1368.385
-26.838	33.271	1605.998	1367.793
-25.823	33.091	1603.830	1364.591
-24.809	33.086	1602.879	1363.694
-23.794	33.236	1601.461	1363.517
-22.779	33.220	1599.871	1361.988
-21.765	33.168	1598.470	1360.374
-20.750	33.257	1596.264	1359.082
-19.736	33.139	1594.665	1356.815
-18.721	33.174	1593.183	1355.755
-17.706	33.341	1591.829	1355.746
-16.692	33.142	1590.579	1353.198
-15.677	33.422	1588.557	1353.427
-14.663	33.026	1588.421	1350.428
-13.648	33.347	1585.632	1350.291
-12.633	33.385	1584.676	1349.697
-11.619	33.132	1584.252	1347.481
-10.604	33.254	1581.827	1346.231
-9.590	33.266	1580.420	1345.063
-8.575	33.041	1578.993	1342.201
-7.560	33.228	1577.746	1342.413
-6.546	33.374	1576.000	1341.908
-5.531	33.131	1576.282	1340.376
-4.517	33.176	1574.516	1339.138
-3.502	33.000	1574.176	1337.551
-2.487	33.160	1572.016	1336.793
-1.473	32.852	1560.155	1324.492
-0.458	29.795	1541.047	1286.987
0.556	27.396	1540.761	1254.982
1.571	24.859	1562.789	1255.044
2.586	24.279	1575.663	1261.168
3.600	21.325	1523.950	1199.429
4.615	12.532	1414.402	1056.847
5.629	4.482	1348.598	958.102
6.644	3.106	1340.994	944.171
7.659	2.913	1339.445	941.813
8.673	3.098	1338.856	942.447
9.688	2.724	1337.287	938.974
10.702	2.595	1334.481	936.133
11.717	6.361	1340.118	963.074
12.731	15.804	1358.257	1034.326
13.746	23.334	1370.539	1090.109
14.761	25.408	1372.717	1104.512
15.775	25.485	1372.841	1104.984
16.790	25.728	1371.349	1105.180
17.804	25.756	1370.954	1104.933
18.819	25.782	1372.279	1106.062
19.834	26.245	1369.263	1106.372
20.848	25.888	1369.771	1104.497
21.863	25.992	1368.837	1104.282
22.877	26.030	1367.443	1103.293
23.892	26.030	1367.035	1102.866
24.907	26.036	1367.457	1103.144
25.921	26.323	1364.364	1102.304
26.936	26.021	1364.606	1100.558
27.950	25.932	1364.111	1099.517
28.965	25.975	1363.493	1099.183
29.980	26.152	1361.165	1098.287
30.994	26.161	1359.739	1097.096
32.009	26.054	1358.784	1095.582
33.023	26.252	1358.281	1096.275
34.038	26.302	1356.494	1095.041
35.053	26.325	1355.841	1094.557
36.067	26.152	1355.002	1092.736
37.082	25.981	1354.862	1091.494
38.096	26.191	1353.220	1091.341
39.111	25.931	1352.388	1089.001
40.126	26.047	1352.344	1089.570
41.140	26.170	1351.382	1089.441
42.155	26.165	1350.669	1088.743
43.169	26.113	1349.883	1087.697
44.184	26.120	1350.235	1087.927
45.199	26.303	1349.356	1088.223
46.213	26.104	1348.948	1086.603
47.228	26.217	1348.633	1086.934
48.242	26.096	1347.639	1085.307
49.257	26.340	1344.553	1084.190
50.271	26.299	1343.801	1083.244
51.286	26.380	1342.623	1082.680
52.301	26.199	1341.817	1080.853
53.315	26.211	1340.456	1079.732
54.330	26.354	1339.846	1079.997
55.344	26.176	1339.620	1078.656
56.359	26.314	1337.377	1077.579
57.374	26.099	1336.800	1075.739
58.388	25.918	1337.840	1075.402
59.403	26.157	1336.363	1075.540
60.417	26.191	1336.085	1075.423
61.432	26.096	1334.465	1073.460
62.447	26.245	1333.308	1073.320
63.461	26.431	1332.292	1073.514
64.476	26.269	1331.401	1071.741
65.490	26.192	1329.685	1069.809
66.505	26.313	1328.004	1069.076
67.520	26.138	1327.249	1067.338
68.534	26.244	1326.722	1067.448
69.549	26.433	1325.825	1067.748
70.563	26.214	1325.090	1065.769
71.578	26.352	1324.384	1065.918
72.593	26.440	1322.744	1065.023
73.607	26.236	1321.491	1062.719
74.622	26.435	1320.408	1062.922
75.636	26.299	1320.299	1061.941
76.651	26.258	1319.813	1061.216
77.666	26.155	1319.508	1060.276
78.680	26.512	1318.792	1061.700
79.695	26.118	1318.272	1058.878
80.709	26.487	1316.683	1059.669
81.724	26.587	1315.007	1058.810
82.739	26.260	1315.183	1056.942
83.753	26.408	1314.491	1057.158
84.768	26.497	1312.361	1055.876
85.782	26.550	1311.522	1055.417
86.797	26.498	1310.207	1053.960
87.812	26.546	1308.110	1052.456
88.826	26.443	1307.695	1051.433
89.841	26.389	1307.069	1050.523
90.855	26.458	1306.291	1050.208
91.870	26.427	1305.336	1049.162
92.884	26.560	1303.923	1048.708
93.899	26.527	1303.294	1047.918
94.914	26.418	1303.486	1047.349
95.928	26.542	1301.553	1046.415
96.943	26.631	1300.936	1046.344
97.957	26.471	1300.607	1045.063
98.972	26.525	1298.974	1043.968
99.987	26.573	1297.703	1043.131
101.001	26.785	1296.642	1043.405
102.016	26.548	1295.789	1041.267
103.030	26.521	1295.151	1040.504
104.045	26.730	1293.318	1040.143
105.060	26.584	1294.012	1039.770
106.074	26.444	1292.646	1037.778
107.089	26.685	1291.234	1037.928
108.103	26.529	1289.930	1035.899
109.118	26.590	1288.978	1035.389
110.133	26.685	1288.232	1035.243
111.147	26.316	1287.653	1032.577
112.162	26.552	1286.701	1033.067
113.176	26.640	1283.857	1031.199
114.191	26.494	1284.017	1030.401
115.206	26.447	1282.075	1028.485
116.220	26.766	1280.310	1028.789
117.235	26.690	1280.212	1028.190
118.249	26.698	1279.458	1027.536
119.264	26.509	1278.407	1025.531
120.279	26.717	1277.651	1026.013
121.293	26.503	1277.133	1024.296
122.308	26.787	1275.825	1024.758
123.322	26.894	1275.043	1024.645
124.337	26.846	1274.763	1024.061
125.352	26.707	1272.411	1021.293
126.366	26.689	1272.923	1021.514
127.381	26.863	1271.041	1020.893
128.395	26.827	1270.199	1019.923
129.410	26.788	1268.856	1018.538
130.424	26.691	1269.375	1018.319
131.439	26.788	1268.190	1017.820
132.454	26.652	1267.215	1016.187
133.468	26.626	1266.362	1015.267
134.483	26.610	1266.473	1015.177
135.497	26.939	1264.628	1015.449
136.512	26.838	1263.350	1013.766
137.527	26.871	1261.916	1012.712
138.541	26.837	1260.651	1011.416
139.556	26.687	1261.070	1010.825
140.570	26.688	1260.202	1010.045
141.585	26.628	1258.923	1008.599
142.600	26.875	1256.649	1008.058
143.614	26.724	1256.278	1006.837
144.629	26.561	1255.424	1005.158
145.643	26.893	1254.184	1005.915
146.658	26.671	1253.503	1004.053
147.673	26.663	1252.117	1002.805
148.687	27.078	1250.333	1003.585
149.702	26.689	1251.106	1001.963
150.716	26.551	1250.012	1000.235
151.731	26.688	1248.440	999.648
152.746	26.628	1247.747	998.672
153.760	26.869	1245.597	998.191
154.775	26.717	1245.250	996.988
155.789	26.847	1244.069	996.665
156.804	26.895	1243.477	996.369
157.819	26.989	1242.131	995.720
158.833	27.058	1240.181	994.447
159.848	27.022	1241.076	994.879
160.862	26.631	1240.484	992.173
161.877	26.847	1238.925	992.019
162.892	26.852	1239.436	992.365
163.906	26.999	1236.636	990.842
164.921	26.868	1236.968	990.303
165.935	27.030	1236.089	990.394
166.950	26.958	1235.332	989.311
167.964	26.807	1235.382	988.438
168.979	26.892	1234.109	987.797
169.994	26.852	1233.574	987.065
171.008	26.923	1233.058	986.948
172.023	27.103	1231.993	986.987
173.037	27.127	1232.134	987.143
174.052	27.203	1230.992	986.552
175.067	27.015	1229.606	984.333
176.081	27.122	1228.639	984.055
177.096	27.097	1228.946	984.076
178.110	26.700	1228.719	981.660
179.125	26.966	1227.291	981.867
180.140	27.158	1225.825	981.649
181.154	27.009	1224.489	979.689
182.169	26.662	1223.478	976.918
183.183	26.915	1221.777	976.836
184.198	27.102	1220.556	976.782
185.213	26.782	1220.691	975.079
186.227	27.222	1218.944	975.963
187.242	27.144	1218.991	975.495
188.256	27.116	1218.045	974.503
189.271	26.964	1217.271	972.983
190.286	26.909	1216.636	972.090
191.300	27.015	1216.134	972.171
192.315	26.943	1216.265	971.805
193.329	26.987	1215.085	971.013
194.344	26.966	1215.107	970.831
195.359	27.014	1214.125	970.216
196.373	27.016	1213.853	969.924
197.388	27.062	1212.860	969.293
198.402	27.162	1212.566	969.501
199.417	27.089	1212.639	969.089
200.432	27.135	1211.461	968.307
201.446	27.078	1210.740	967.339
202.461	26.737	1212.123	966.539
203.475	27.183	1209.861	967.026
204.490	26.996	1209.232	965.440
205.504	27.171	1207.489	964.894
206.519	27.228	1206.758	964.527
207.534	27.145	1205.281	962.822
208.548	27.424	1203.641	962.903
209.563	27.145	1204.868	962.321
210.577	27.128	1203.151	960.774
211.592	27.216	1202.122	960.331
212.607	27.088	1201.970	959.450
213.621	27.093	1201.400	958.935
214.636	27.372	1199.732	958.992
215.650	27.090	1199.470	957.210
216.665	27.365	1197.198	956.761
217.680	27.508	1196.462	956.840
218.694	27.280	1196.305	955.431
219.709	27.260	1196.011	955.008
220.723	27.110	1196.412	954.455
221.738	27.042	1195.524	953.306
222.753	27.260	1193.577	952.808
223.767	27.220	1193.462	952.423
224.782	27.600	1192.786	953.790
225.796	27.241	1192.617	951.692
226.811	27.183	1191.890	950.723
227.826	27.369	1191.903	951.624
228.840	27.100	1191.799	950.049
229.855	27.386	1190.067	950.074
230.869	27.202	1190.240	949.172
231.884	27.237	1188.810	948.129
232.899	27.025	1188.698	946.849
233.913	27.244	1188.084	947.418
234.928	26.873	1187.542	944.971
235.942	27.228	1185.968	945.478
236.957	27.472	1185.981	946.674
237.972	27.300	1185.510	945.321
238.986	27.330	1184.417	944.522
240.001	27.187	1184.469	943.738
241.015	27.420	1182.037	942.925
242.030	27.347	1181.946	942.391
243.045	27.620	1181.135	943.073
244.059	27.258	1180.976	940.990
245.074	27.432	1179.891	940.942
246.088	27.089	1180.529	939.592
247.103	27.604	1177.291	939.586
248.117	27.673	1176.897	939.544
249.132	27.563	1177.153	939.100
250.147	27.576	1176.622	938.659
251.161	27.491	1175.114	936.935
252.176	27.608	1174.817	937.217
253.190	27.583	1174.343	936.626
254.205	27.213	1173.880	934.277
255.220	27.270	1173.987	934.569
256.234	27.330	1171.745	933.012
257.249	27.250	1172.466	933.090
258.263	27.317	1171.085	932.253
259.278	27.725	1169.989	933.388
260.293	27.401	1169.992	931.647
261.307	27.426	1169.843	931.573
262.322	27.690	1168.156	931.499
263.336	27.471	1168.899	930.887
264.351	27.454	1167.354	929.489
265.366	27.462	1166.474	928.750
266.380	27.372	1166.893	928.539
267.395	27.245	1165.977	927.082
268.409	27.319	1164.848	926.479
269.424	27.168	1165.512	926.153
270.439	27.371	1164.208	926.069
271.453	27.432	1163.971	926.109
272.468	27.622	1162.474	925.799
273.482	27.419	1161.018	923.532
274.497	27.457	1161.002	923.630
275.512	27.424	1161.854	924.057
276.526	27.489	1160.405	923.151
277.541	27.594	1158.762	922.296
278.555	27.343	1159.128	921.235
279.570	27.516	1157.438	920.682
280.585	27.418	1157.238	919.949
281.599	27.666	1155.972	920.113
282.614	27.452	1155.566	918.627
283.628	27.599	1154.178	918.186
284.643	27.207	1154.661	916.512
285.657	27.415	1152.736	915.947
286.672	27.299	1152.356	914.981
287.687	27.330	1152.262	914.984
288.701	27.606	1150.915	915.217
289.716	27.493	1150.161	913.971
290.730	27.755	1148.873	914.181
291.745	27.563	1149.464	913.604
292.760	27.267	1149.136	911.780
293.774	27.594	1147.744	912.230
294.789	27.631	1147.360	912.034
295.803	27.832	1146.735	912.457
296.818	27.536	1145.662	910.044
297.833	27.520	1145.075	909.417
298.847	27.728	1144.382	909.826
299.862	27.708	1143.792	909.174
300.876	27.557	1143.391	908.025
301.891	27.337	1143.164	906.669
302.906	27.550	1141.915	906.655
303.920	27.532	1141.483	906.145
304.935	27.668	1140.652	906.082
305.949	27.582	1140.640	905.566
306.964	27.538	1139.158	904.089
307.979	27.680	1138.014	903.805
308.993	27.383	1138.265	902.453
310.008	27.540	1137.907	902.864
311.022	27.745	1136.874	902.983
312.037	27.554	1136.268	901.474
313.052	27.618	1134.550	900.348
314.066	27.603	1134.441	900.110
315.081	27.794	1133.280	900.052
316.095	27.561	1131.857	897.695
317.110	27.538	1132.253	897.813
318.125	27.910	1131.448	898.928
319.139	27.782	1130.451	897.425
320.154	27.574	1130.004	895.968
321.168	27.657	1129.042	895.534
322.183	27.655	1128.500	895.016
323.197	27.506	1128.592	894.277
324.212	27.572	1127.850	893.934
325.227	27.606	1127.888	894.053
326.241	27.451	1127.292	892.739
327.256	27.486	1126.488	892.195
328.270	27.744	1124.916	892.135
329.285	27.733	1124.181	891.421
330.300	27.705	1123.835	890.930
331.314	27.624	1122.994	889.789
332.329	27.823	1121.091	889.169
333.343	27.989	1120.743	889.624
334.358	27.842	1120.419	888.572
335.373	27.836	1119.678	887.880
336.387	27.622	1120.235	887.198
337.402	27.907	1118.846	887.406
338.416	27.612	1117.862	885.114
339.431	27.417	1118.573	884.650
340.446	27.958	1116.009	885.169
341.460	27.885	1116.172	884.864
342.475	27.708	1115.398	883.316
343.489	27.698	1114.465	882.451
344.504	27.615	1113.632	881.313
345.519	27.984	1111.683	881.472
346.533	27.743	1111.774	880.305
347.548	27.617	1112.073	879.853
348.562	27.841	1110.000	879.218
349.577	27.600	1110.365	878.266
350.592	27.716	1109.064	877.714
351.606	27.570	1109.166	877.019
352.621	27.477	1108.445	875.922
353.635	27.604	1106.928	875.253
354.650	27.794	1106.791	875.984
355.665	27.806	1105.218	874.718
356.679	27.698	1104.687	873.700
357.694	27.871	1103.809	873.761
358.708	27.672	1104.783	873.496
359.723	27.869	1102.928	872.899
360.738	27.729	1102.837	872.079
361.752	27.707	1101.180	870.587
362.767	27.624	1101.255	870.171
363.781	27.691	1101.237	870.400
364.796	27.770	1100.370	870.015
365.810	27.651	1099.760	868.887
366.825	27.535	1099.748	868.248
367.840	27.734	1097.733	867.530
368.854	27.578	1098.007	866.927
369.869	27.650	1097.753	866.991
370.883	27.556	1096.037	865.114
371.898	27.928	1095.979	866.754
372.913	28.132	1094.493	866.470
373.927	27.643	1094.511	864.092
374.942	27.617	1093.876	863.388
375.956	27.648	1094.323	863.813
376.971	27.556	1094.009	863.052
377.986	27.914	1091.770	862.902
379.000	27.574	1092.828	862.054
380.015	27.856	1091.120	861.963
381.029	27.780	1091.114	861.524
382.044	27.768	1090.800	861.144
383.059	27.869	1088.963	860.093
384.073	27.450	1089.035	858.096
385.088	27.741	1087.658	858.307
386.102	27.609	1087.679	857.624
387.117	27.915	1085.838	857.537
388.132	27.866	1084.845	856.446
389.146	27.745	1084.423	855.467
390.161	27.565	1083.836	854.086
391.175	27.654	1083.213	853.937
392.190	27.594	1082.981	853.399
393.205	27.761	1081.964	853.301
394.219	27.860	1081.434	853.271
395.234	27.669	1080.312	851.420
396.248	27.540	1079.775	850.320
397.263	27.641	1078.710	849.877
398.278	27.444	1079.050	849.149
399.292	27.274	1077.989	847.446
400.307	27.527	1076.927	847.715
401.321	27.424	1076.721	846.996
402.336	27.371	1076.875	846.797
403.350	27.565	1075.707	846.707
404.365	27.715	1074.776	846.592
405.380	27.661	1073.342	845.137
406.394	27.719	1072.756	844.871
407.409	27.771	1072.281	844.666
408.423	27.640	1071.184	843.117
409.438	27.738	1070.366	842.852
410.453	27.726	1070.057	842.482
411.467	27.906	1068.502	842.010
412.482	27.504	1068.784	840.306
413.496	27.711	1067.407	840.101
414.511	27.528	1067.577	839.316
415.526	27.556	1067.102	839.001
416.540	27.639	1066.279	838.660
417.555	27.644	1065.691	838.144
418.569	27.680	1065.390	837.999
419.584	27.630	1064.640	837.108
420.599	27.376	1064.646	835.872
421.613	152.880	1403.744	1792.387
422.628	140.640	1453.168	1792.499
