DTS Sentinel unit serial number:	SN413079Multiplexer serial number:	ORYXHardware model number:	OX4-SRSoftware version number:	ORYX F/W v4.00 Oryx Data Collector v3.7.2.0data status	okinstallation	princeton_trtdifferential loss correction	single-endedforward channel	channel 2reverse channel	N/Adate	2019/09/11time	14:13:11forward acquisition time	60.00reverse acquisition time	0.00gamma	496.2192k internal	0.2292k external	0.2292temperature offset calibration	1.0007default loss term (dB/km)	0.3790temperature slope calibration	1.0000multiplexer offset coefficient	1.0000multiplexer slope coefficient	1.0000fibre end	0.00T internal ref (°C)	41.91T ext. ref 1 (°C)	0.88T ext. ref 2 (°C)	37.56length (m)	temperature (°C)	Stokes	anti-Stokes-747.200	-89.430	-0.112	0.034
-746.185	800.000	0.068	0.250
-745.171	33.741	0.180	0.161
-744.156	-200.000	-0.072	0.470
-743.142	632.866	-0.102	-0.265
-742.127	217.725	-0.065	0.107
-741.112	-141.104	-0.252	0.026
-740.098	-200.000	0.015	0.265
-739.083	651.854	0.108	-0.283
-738.069	800.000	0.066	0.215
-737.054	43.591	0.140	-0.131
-736.039	-113.152	0.050	-0.010
-735.025	-200.000	0.012	0.177
-734.010	4.371	-0.292	0.219
-732.996	800.000	0.092	-0.307
-731.981	-57.758	-0.249	0.112
-730.966	256.780	0.056	0.098
-729.952	-54.828	-0.330	-0.153
-728.937	-131.396	0.168	0.023
-727.923	-200.000	-0.003	-0.145
-726.908	21.395	-0.107	-0.089
-725.894	298.827	-0.291	0.547
-724.879	72.615	-0.186	0.198
-723.864	511.595	0.125	-0.297
-722.850	7.536	0.227	-0.174
-721.835	88.300	-0.122	0.139
-720.821	-48.152	0.069	-0.034
-719.806	128.626	0.160	0.208
-718.791	146.821	0.156	-0.214
-717.777	11.167	0.061	-0.048
-716.762	-156.439	0.245	0.016
-715.748	-200.000	0.052	-0.311
-714.733	205.898	-0.086	-0.137
-713.718	-51.001	-0.129	-0.062
-712.704	-120.634	-0.099	0.017
-711.689	341.003	-0.102	0.203
-710.675	-74.008	-0.250	-0.093
-709.660	505.730	-0.056	0.132
-708.645	800.000	0.018	0.066
-707.631	31.285	-0.224	0.196
-706.616	-200.000	0.000	-0.037
-705.602	172.836	-0.068	0.100
-704.587	-62.537	-0.061	-0.026
-703.572	-12.651	0.243	0.162
-702.558	-200.000	-0.011	0.062
-701.543	282.188	0.183	-0.336
-700.529	91.575	-0.108	0.124
-699.514	63.228	-0.069	-0.071
-698.499	650.439	0.099	0.260
-697.485	-6.483	0.265	0.185
-696.470	-19.453	0.223	0.141
-695.456	-200.000	-0.017	0.169
-694.441	294.589	0.045	0.084
-693.426	-140.337	-0.022	-0.002
-692.412	349.223	-0.174	-0.351
-691.397	-36.742	0.071	-0.039
-690.383	314.570	-0.018	-0.035
-689.368	236.259	-0.157	-0.265
-688.354	563.464	0.084	-0.209
-687.339	-36.631	-0.217	-0.119
-686.324	28.370	-0.326	-0.282
-685.310	133.472	-0.051	-0.067
-684.295	-200.000	-0.013	-0.086
-683.281	-95.782	-0.344	-0.094
-682.266	-55.528	-0.174	-0.080
-681.251	800.000	0.104	0.305
-680.237	-32.378	0.041	-0.023
-679.222	-200.000	0.009	-0.302
-678.208	-139.294	-0.125	0.014
-677.193	-200.000	0.091	-0.518
-676.178	-149.276	0.052	-0.004
-675.164	20.209	0.089	-0.073
-674.149	800.000	0.020	0.081
-673.135	-200.000	-0.014	-0.197
-672.120	141.322	-0.300	0.406
-671.105	-119.054	-0.140	0.025
-670.091	267.916	-0.200	0.357
-669.076	503.049	0.070	-0.165
-668.062	-200.000	0.020	-0.232
-667.047	29.022	0.144	0.125
-666.032	31.929	0.159	-0.140
-665.018	-123.495	-0.303	0.049
-664.003	-151.004	-0.286	0.022
-662.989	74.548	-0.051	-0.055
-661.974	-97.197	0.266	-0.071
-660.959	-109.648	0.297	-0.064
-659.945	-105.611	0.172	-0.040
-658.930	575.468	0.139	-0.347
-657.916	-61.325	-0.364	-0.156
-656.901	267.065	0.144	-0.257
-655.886	-44.509	-0.048	0.025
-654.872	-47.735	-0.205	-0.101
-653.857	91.989	0.261	-0.300
-652.843	460.422	-0.025	-0.057
-651.828	112.620	0.081	0.101
-650.814	-102.019	-0.233	-0.057
-649.799	-200.000	0.008	-0.113
-648.784	-89.245	0.361	0.109
-647.770	-126.710	0.350	0.053
-646.755	-51.848	0.196	0.093
-645.741	-179.139	0.257	0.006
-644.726	57.850	0.244	-0.243
-643.711	54.341	0.133	-0.130
-642.697	273.502	0.096	0.173
-641.682	755.961	0.069	0.191
-640.668	315.690	-0.113	0.217
-639.653	108.103	-0.111	-0.135
-638.638	800.000	0.050	-0.206
-637.624	137.812	0.114	-0.152
-636.609	800.000	-0.168	-0.528
-635.595	31.788	-0.333	-0.292
-634.580	41.855	-0.127	-0.117
-633.565	-29.918	0.027	-0.016
-632.551	-36.850	-0.082	0.045
-631.536	-23.117	-0.025	-0.015
-630.522	-81.524	0.081	0.027
-629.507	62.061	-0.093	0.095
-628.492	-61.176	-0.278	-0.119
-627.478	406.692	0.158	-0.341
-626.463	-60.214	-0.339	0.147
-625.449	800.000	0.058	0.169
-624.434	800.000	-0.073	0.218
-623.419	252.406	-0.166	-0.288
-622.405	309.524	0.080	-0.152
-621.390	8.125	-0.325	-0.248
-620.376	67.760	-0.128	0.133
-619.361	-32.016	-0.029	0.017
-618.346	-200.000	0.028	-0.394
-617.332	-57.513	0.104	0.047
-616.317	800.000	0.050	0.187
-615.303	12.796	-0.077	0.061
-614.288	27.323	-0.058	-0.050
-613.273	-124.246	0.285	0.045
-612.259	766.926	-0.021	0.058
-611.244	210.952	-0.104	-0.167
-610.230	-130.886	-0.165	-0.023
-609.215	-110.219	0.251	-0.053
-608.201	800.000	0.019	0.085
-607.186	-158.098	-0.205	-0.012
-606.171	-101.934	0.135	0.033
-605.157	800.000	-0.066	0.185
-604.142	595.623	0.087	0.218
-603.128	-119.565	-0.202	-0.036
-602.113	-15.358	0.107	0.070
-601.098	-54.361	0.186	-0.086
-600.084	133.408	-0.074	-0.098
-599.069	-86.182	-0.380	0.119
-598.055	364.419	0.068	-0.140
-597.040	-130.014	0.392	0.055
-596.025	-184.584	0.197	-0.003
-595.011	-61.988	0.082	-0.035
-593.996	-179.452	0.165	-0.004
-592.982	151.873	-0.184	0.255
-591.967	52.019	-0.163	-0.158
-590.952	-35.040	0.512	0.284
-589.938	75.981	-0.106	0.114
-588.923	95.496	-0.140	-0.162
-587.909	-200.000	0.028	-0.128
-586.894	-200.000	-0.010	-0.178
-585.879	57.807	-0.151	-0.151
-584.865	137.574	-0.029	-0.039
-583.850	387.069	0.209	0.440
-582.836	228.856	0.049	0.081
-581.821	-200.000	-0.083	-0.452
-580.806	317.376	-0.148	-0.285
-579.792	-13.486	-0.382	0.252
-578.777	35.792	-0.224	0.201
-577.763	-200.000	-0.064	-0.413
-576.748	-3.080	0.244	-0.173
-575.733	60.380	0.153	0.154
-574.719	-97.087	0.144	-0.038
-573.704	78.927	0.109	0.118
-572.690	6.545	-0.172	-0.130
-571.675	461.519	0.069	-0.157
-570.661	33.473	0.219	-0.193
-569.646	-200.000	-0.068	0.322
-568.631	95.817	-0.138	-0.160
-567.617	-7.019	-0.084	0.058
-566.602	-74.697	-0.319	-0.116
-565.588	300.412	0.078	0.146
-564.573	-200.000	-0.019	0.219
-563.558	-17.149	-0.222	-0.142
-562.544	800.000	0.040	-0.169
-561.529	344.201	-0.124	-0.247
-560.515	-200.000	-0.054	0.276
-559.500	-48.511	0.126	-0.062
-558.485	-43.833	0.143	-0.073
-557.471	444.527	-0.138	-0.307
-556.456	297.738	0.159	0.297
-555.442	78.874	0.120	0.130
-554.427	-133.777	0.097	-0.012
-553.412	627.655	0.005	-0.013
-552.398	-21.508	0.085	-0.053
-551.383	121.228	-0.179	0.226
-550.369	673.030	-0.041	0.108
-549.354	56.057	0.141	0.139
-548.339	-200.000	-0.034	-0.155
-547.325	800.000	-0.052	-0.179
-546.310	-156.825	-0.184	0.012
-545.296	435.931	-0.028	0.062
-544.281	596.163	-0.116	0.291
-543.266	39.596	-0.146	-0.133
-542.252	-200.000	0.010	0.201
-541.237	-200.000	-0.037	-0.254
-540.223	151.930	-0.262	-0.362
-539.208	-83.067	-0.269	0.088
-538.193	-200.000	0.032	0.218
-537.179	-200.000	0.075	0.544
-536.164	-86.842	-0.269	-0.083
-535.150	-188.790	0.250	-0.003
-534.135	47.454	0.056	0.053
-533.121	118.371	-0.078	-0.098
-532.106	-93.986	-0.298	-0.083
-531.091	257.343	0.209	0.365
-530.077	-200.000	0.002	-0.111
-529.062	-200.000	-0.018	-0.304
-528.048	4.077	-0.197	0.146
-527.033	-141.281	-0.151	-0.016
-526.018	78.649	-0.098	-0.106
-525.004	800.000	-0.039	-0.122
-523.989	255.075	-0.042	0.073
-522.975	262.754	-0.077	0.136
-521.960	-200.000	0.023	0.251
-520.945	-69.668	-0.143	0.056
-519.931	93.051	-0.166	-0.190
-518.916	-27.768	-0.309	-0.182
-517.902	10.552	0.142	-0.109
-516.887	-200.000	0.070	-0.371
-515.872	-89.674	0.306	-0.091
-514.858	149.124	-0.118	0.162
-513.843	-126.752	-0.129	-0.019
-512.829	-94.922	0.307	-0.084
-511.814	-130.959	-0.549	0.074
-510.799	-111.377	-0.171	-0.035
-509.785	-97.586	-0.150	-0.040
-508.770	284.276	-0.197	0.359
-507.756	-57.615	-0.120	-0.053
-506.741	70.313	0.026	-0.027
-505.726	-77.510	-0.347	0.122
-504.712	-113.494	0.065	-0.013
-503.697	546.806	-0.160	-0.389
-502.683	352.030	-0.059	-0.119
-501.668	283.576	-0.075	0.137
-500.653	-200.000	0.019	0.104
-499.639	-82.446	0.101	-0.033
-498.624	800.000	-0.016	0.051
-497.610	632.872	-0.195	0.500
-496.595	584.094	0.066	0.164
-495.581	-2.600	-0.360	-0.255
-494.566	116.409	-0.115	0.142
-493.551	-140.010	-0.156	-0.017
-492.537	-79.767	-0.074	-0.025
-491.522	14.428	-0.121	-0.096
-490.508	135.482	-0.107	-0.141
-489.493	91.127	-0.094	-0.107
-488.478	-153.548	-0.187	0.013
-487.464	-95.796	0.193	0.052
-486.449	-200.000	0.002	0.310
-485.435	-200.000	0.044	-0.265
-484.420	-68.517	-0.204	-0.080
-483.405	479.111	0.138	0.317
-482.391	-191.546	0.367	0.004
-481.376	76.497	0.268	0.288
-480.362	-15.190	-0.430	0.279
-479.347	47.455	-0.018	-0.017
-478.332	-86.377	-0.415	-0.129
-477.318	-200.000	-0.023	-0.301
-476.303	456.319	0.065	0.147
-475.289	-200.000	0.037	0.244
-474.274	-92.204	-0.282	0.081
-473.259	346.436	-0.083	0.165
-472.245	-81.268	0.434	-0.145
-471.230	6.797	-0.156	-0.118
-470.216	-76.724	0.180	-0.064
-469.201	-39.946	0.199	-0.105
-468.186	307.664	0.191	0.361
-467.172	60.102	0.269	0.270
-466.157	-200.000	-0.049	0.449
-465.143	-146.917	0.212	-0.018
-464.128	255.120	0.067	-0.116
-463.113	309.759	-0.028	-0.053
-462.099	800.000	-0.089	-0.297
-461.084	-2.660	0.086	0.061
-460.070	265.609	-0.050	0.087
-459.055	30.842	0.076	0.066
-458.040	22.841	0.372	-0.309
-457.026	-89.937	0.196	-0.058
-456.011	82.191	0.032	0.035
-454.997	-200.000	0.004	0.284
-453.982	800.000	-0.063	0.184
-452.968	18.734	-0.200	0.162
-451.953	59.747	0.162	0.162
-450.938	800.000	0.064	0.195
-449.924	25.291	-0.200	0.168
-448.909	-27.912	0.083	-0.049
-447.895	-143.126	0.202	0.020
-446.880	7.484	0.113	0.086
-445.865	300.312	-0.036	0.066
-444.851	-179.635	-0.159	0.003
-443.836	-161.121	0.256	0.014
-442.822	-120.293	0.035	-0.006
-441.807	-91.166	-0.257	0.075
-440.792	800.000	-0.134	-0.415
-439.778	-72.158	-0.173	0.065
-438.763	72.526	-0.138	0.146
-437.749	-102.191	0.176	-0.043
-436.734	163.701	-0.024	-0.034
-435.719	16.777	-0.168	-0.134
-434.705	-20.648	0.357	0.222
-433.690	124.689	-0.006	0.007
-432.676	-77.045	0.189	-0.067
-431.661	-21.793	0.203	-0.125
-430.646	-89.020	-0.215	-0.064
-429.632	-200.000	0.054	-0.250
-428.617	-200.000	-0.016	0.268
-427.603	186.458	0.133	0.200
-426.588	3.927	-0.051	0.037
-425.573	-200.000	0.015	-0.158
-424.559	-26.401	0.305	-0.181
-423.544	18.796	0.140	-0.113
-422.530	348.294	-0.094	-0.186
-421.515	-200.000	0.008	-0.276
-420.500	-83.028	0.409	-0.133
-419.486	45.076	-0.105	-0.098
-418.471	-179.809	0.270	0.006
-417.457	800.000	-0.116	-0.343
-416.442	-69.614	-0.191	0.074
-415.428	-24.414	0.179	-0.108
-414.413	-127.765	0.451	-0.066
-413.398	-88.595	0.328	0.099
-412.384	-24.519	-0.294	-0.177
-411.369	267.732	-0.090	-0.160
-410.355	-21.047	0.251	-0.155
-409.340	-100.118	0.307	-0.077
-408.325	-12.314	0.153	-0.101
-407.311	127.499	-0.256	0.329
-406.296	8.186	0.094	-0.071
-405.282	17.411	0.233	-0.187
-404.267	-15.192	0.280	0.181
-403.252	-200.000	0.027	-0.152
-402.238	-89.219	-0.092	0.028
-401.223	-142.315	-0.179	0.018
-400.209	235.978	-0.026	-0.044
-399.194	313.520	-0.073	-0.138
-398.179	217.007	0.153	-0.246
-397.165	-200.000	-0.035	-0.169
-396.150	229.682	0.237	-0.392
-395.136	-138.205	-0.187	-0.021
-394.121	5.467	0.073	-0.054
-393.106	-200.000	0.013	-0.281
-392.092	-112.872	0.245	0.049
-391.077	-200.000	0.005	-0.154
-390.063	212.572	0.259	-0.412
-389.048	225.677	-0.009	-0.014
-388.033	-200.000	0.028	0.295
-387.019	85.936	-0.116	0.129
-386.004	413.439	-0.071	0.153
-384.990	800.000	0.113	0.384
-383.975	-200.000	0.009	0.076
-382.960	-200.000	-0.013	0.126
-381.946	52.518	0.099	-0.095
-380.931	133.894	-0.233	-0.304
-379.917	-99.478	-0.241	0.061
-378.902	370.795	0.078	0.160
-377.888	15.962	-0.178	0.141
-376.873	-43.238	-0.410	0.210
-375.858	-200.000	0.094	-0.431
-374.844	-109.791	0.089	-0.019
-373.829	729.154	-0.024	-0.065
-372.815	673.736	-0.116	0.302
-371.800	-90.398	-0.311	0.091
-370.785	800.000	-0.063	-0.177
-369.771	124.865	0.099	0.125
-368.756	800.000	0.034	0.142
-367.742	-17.462	-0.121	0.077
-366.727	198.247	0.152	0.234
-365.712	-26.013	-0.080	-0.047
-364.698	-67.259	0.301	-0.120
-363.683	56.994	0.186	0.182
-362.669	800.000	0.083	0.280
-361.654	418.890	0.057	0.123
-360.639	662.214	-0.084	0.219
-359.625	-200.000	0.231	0.000
-358.610	68.376	0.217	0.224
-357.596	-113.106	-0.189	0.038
-356.581	-88.202	-0.270	0.082
-355.566	-200.000	0.095	-0.437
-354.552	-200.000	-0.006	-0.363
-353.537	66.854	-0.158	0.162
-352.523	-25.215	0.226	-0.135
-351.508	-110.298	-0.133	-0.028
-350.493	133.874	-0.142	0.186
-349.479	-72.113	0.167	0.062
-348.464	798.612	-0.050	0.138
-347.450	-106.556	-0.313	0.070
-346.435	-200.000	-0.004	-0.216
-345.420	-155.040	-0.104	0.007
-344.406	800.000	0.220	0.868
-343.391	-200.000	0.032	0.279
-342.377	301.327	-0.084	0.156
-341.362	-200.000	-0.006	0.064
-340.348	-81.816	-0.138	-0.045
-339.333	-30.982	0.221	-0.126
-338.318	-157.348	0.217	-0.013
-337.304	-79.994	0.220	-0.075
-336.289	-21.499	0.105	-0.064
-335.275	-129.546	-0.006	-0.001
-334.260	-90.470	0.353	-0.103
-333.245	260.716	0.235	0.409
-332.231	168.507	-0.088	-0.126
-331.216	542.421	-0.064	-0.154
-330.202	61.346	0.057	-0.057
-329.187	164.181	-0.225	0.319
-328.172	-127.527	0.285	-0.042
-327.158	-72.865	-0.208	0.077
-326.143	38.333	-0.210	-0.189
-325.129	-53.791	-0.369	0.169
-324.114	-35.554	0.131	-0.072
-323.099	800.000	0.055	0.156
-322.085	-74.757	0.221	-0.080
-321.070	-102.255	0.076	0.018
-320.056	-200.000	-0.025	0.154
-319.041	-48.474	0.201	-0.098
-318.026	-89.153	0.260	-0.077
-317.012	-22.187	0.186	-0.114
-315.997	800.000	-0.057	-0.230
-314.983	279.537	0.036	0.064
-313.968	-200.000	-0.029	-0.196
-312.953	-194.097	-0.385	0.003
-311.939	800.000	0.045	0.127
-310.924	-49.978	0.182	0.087
-309.910	-76.811	0.136	0.048
-308.895	800.000	0.060	-0.206
-307.880	-148.379	0.121	0.010
-306.866	-89.952	0.082	-0.024
-305.851	-99.092	-0.198	-0.051
-304.837	671.526	-0.016	0.042
-303.822	128.094	0.135	0.173
-302.807	-119.848	0.315	-0.055
-301.793	-98.475	0.141	-0.036
-300.778	-200.000	0.011	0.114
-299.764	-200.000	-0.030	-0.153
-298.749	-82.939	-0.162	0.053
-297.735	17.719	-0.192	-0.153
-296.720	-63.006	0.120	0.050
-295.705	152.943	0.066	-0.091
-294.691	-10.640	0.037	0.025
-293.676	800.000	-0.013	0.044
-292.662	284.570	-0.186	-0.336
-291.647	800.000	-0.169	-0.526
-290.632	-154.941	-0.216	0.014
-289.618	-200.000	0.080	0.407
-288.603	17.861	0.242	-0.194
-287.589	-96.519	-0.238	0.063
-286.574	9.888	0.166	-0.126
-285.559	284.216	0.004	0.007
-284.545	103.118	-0.158	0.186
-283.530	-35.926	-0.214	0.116
-282.516	-89.111	-0.059	-0.017
-281.501	74.973	0.205	0.218
-280.486	-200.000	0.008	0.098
-279.472	-114.864	0.597	0.114
-278.457	49.280	0.247	0.233
-277.443	-200.000	0.027	0.203
-276.428	750.308	-0.107	0.292
-275.413	-200.000	0.005	0.230
-274.399	4.674	0.022	0.016
-273.384	-155.341	0.170	-0.011
-272.370	483.102	-0.070	-0.160
-271.355	-145.982	0.199	0.018
-270.340	244.751	-0.094	-0.159
-269.326	663.750	0.080	-0.207
-268.311	-1.934	-0.091	-0.065
-267.297	11.592	-0.218	0.168
-266.282	-168.465	-0.079	0.003
-265.267	-200.000	-0.038	-0.268
-264.253	800.000	-0.029	0.095
-263.238	74.180	-0.126	0.133
-262.224	88.821	0.062	0.069
-261.209	-137.946	-0.369	0.041
-260.195	-163.594	-0.536	0.025
-259.180	20.860	0.115	0.094
-258.165	-20.888	-0.312	0.192
-257.151	-200.000	0.041	-0.205
-256.136	-112.793	-0.218	0.043
-255.122	-83.954	0.032	0.010
-254.107	201.720	-0.017	0.026
-253.092	5.983	-0.191	0.142
-252.078	477.363	0.147	-0.333
-251.063	399.063	0.116	0.243
-250.049	244.394	-0.128	-0.216
-249.034	-200.000	-0.018	-0.149
-248.019	-17.422	-0.129	-0.081
-247.005	721.891	-0.115	-0.307
-245.990	-139.303	0.599	-0.065
-244.976	3.474	0.286	-0.209
-243.961	-145.415	0.385	-0.035
-242.946	-200.000	-0.018	0.308
-241.932	-39.269	-0.194	0.102
-240.917	58.658	0.253	0.250
-239.903	-200.000	-0.013	0.118
-238.888	-39.731	-0.141	-0.074
-237.873	-200.000	0.010	0.298
-236.859	195.835	0.149	0.227
-235.844	-34.086	-0.235	-0.129
-234.830	-48.368	-0.335	0.162
-233.815	52.409	0.057	-0.054
-232.800	352.757	-0.059	0.118
-231.786	111.245	-0.018	0.022
-230.771	-90.877	0.061	-0.018
-229.757	800.000	-0.035	-0.128
-228.742	-86.765	-0.133	0.041
-227.727	30.394	-0.188	0.161
-226.713	-62.445	-0.242	0.101
-225.698	-200.000	-0.017	-0.178
-224.684	-7.483	-0.150	0.102
-223.669	-19.251	-0.281	0.175
-222.655	456.620	0.075	0.167
-221.640	113.157	0.068	-0.082
-220.625	-126.431	0.248	-0.037
-219.611	36.141	-0.329	-0.291
-218.596	-93.524	0.153	0.042
-217.582	-200.000	0.063	0.313
-216.567	10.660	-0.132	-0.101
-215.552	-2.018	0.174	-0.123
-214.538	800.000	0.025	-0.089
-213.523	-47.749	-0.242	-0.118
-212.509	800.000	0.082	-0.351
-211.494	800.000	0.159	-0.492
-210.479	-121.972	0.163	0.027
-209.465	-200.000	-0.017	-0.228
-208.450	800.000	0.030	0.088
-207.436	800.000	-0.111	-0.347
-206.421	210.215	-0.133	-0.210
-205.406	198.762	0.097	0.148
-204.392	127.506	0.120	0.152
-203.377	-145.941	0.241	-0.021
-202.363	-53.707	-0.097	0.044
-201.348	62.991	0.079	-0.080
-200.333	162.700	-0.071	0.100
-199.319	299.775	0.163	0.302
-198.304	233.852	-0.177	-0.291
-197.290	-200.000	-0.042	0.196
-196.275	94.844	-0.013	0.015
-195.260	147.387	0.216	0.292
-194.246	42.087	-0.279	-0.253
-193.231	-74.312	0.334	0.121
-192.217	515.063	0.155	-0.361
-191.202	77.429	0.022	0.024
-190.187	-51.604	-0.355	-0.166
-189.173	164.206	-0.117	-0.166
-188.158	37.553	-0.266	0.236
-187.144	20.747	0.069	0.056
-186.129	800.000	-0.080	-0.260
-185.114	-117.290	0.151	-0.027
-184.100	-44.066	-0.077	-0.039
-183.085	168.546	-0.138	-0.197
-182.071	-66.560	0.269	-0.107
-181.056	-110.084	-0.132	0.028
-180.042	-105.780	-0.189	-0.043
-179.027	189.046	0.148	0.223
-178.012	-105.578	0.133	-0.030
-176.998	-116.158	0.383	0.071
-175.983	33.882	0.174	0.151
-174.969	-200.000	-0.030	0.258
-173.954	-200.000	0.039	-0.314
-172.939	-163.967	-0.174	-0.008
-171.925	6.563	-0.293	-0.218
-170.910	198.234	-0.079	-0.122
-169.896	341.540	0.160	-0.313
-168.881	40.613	0.165	0.149
-167.866	765.581	-0.010	-0.027
-166.852	-38.542	-0.148	0.078
-165.837	247.001	0.111	0.187
-164.823	172.285	0.163	-0.234
-163.808	-124.838	0.254	-0.039
-162.793	222.076	0.143	-0.229
-161.779	-200.000	-0.009	-0.129
-160.764	117.990	-0.143	0.176
-159.750	268.676	-0.184	0.324
-158.735	196.588	-0.058	0.088
-157.720	49.637	0.124	0.117
-156.706	800.000	-0.154	0.466
-155.691	-108.407	0.205	-0.044
-154.677	-21.337	-0.113	0.069
-153.662	90.807	-0.059	0.067
-152.647	800.000	-0.040	0.124
-151.633	421.825	0.057	0.123
-150.618	-147.847	0.255	-0.021
-149.604	-200.000	-0.051	-0.280
-148.589	-200.000	0.007	-0.598
-147.574	218.719	0.112	-0.179
-146.560	191.955	0.116	0.175
-145.545	303.304	-0.042	-0.077
-144.531	-2.660	-0.160	0.112
-143.516	429.423	-0.059	0.129
-142.502	-106.300	0.071	-0.016
-141.487	27.340	0.125	0.105
-140.472	171.781	0.034	0.048
-139.458	-200.000	-0.061	-0.315
-138.443	499.185	0.120	0.277
-137.429	-89.855	0.040	-0.012
-136.414	-151.754	-0.302	0.022
-135.399	442.937	-0.096	0.210
-134.385	64.966	-0.191	0.193
-133.370	-3.410	0.166	0.115
-132.356	24.901	0.134	-0.111
-131.341	249.360	0.150	0.254
-130.326	-200.000	-0.018	0.252
-129.312	-173.949	-0.303	0.009
-128.297	140.611	-0.175	0.231
-127.283	-0.108	-0.286	0.203
-126.268	55.551	0.088	-0.085
-125.253	-200.000	0.025	0.269
-124.239	-43.894	0.150	0.076
-123.224	800.000	-0.067	-0.287
-122.210	-177.734	-0.519	-0.013
-121.195	800.000	-0.079	0.284
-120.180	-200.000	0.006	0.271
-119.166	800.000	0.051	0.155
-118.151	-167.524	-0.296	-0.012
-117.137	-200.000	0.013	-0.062
-116.122	39.812	-0.106	0.095
-115.107	-93.817	-0.056	-0.015
-114.093	128.706	0.066	0.084
-113.078	455.658	-0.128	0.283
-112.064	173.067	0.094	0.135
-111.049	22.876	-0.295	-0.242
-110.034	146.360	-0.122	0.163
-109.020	-200.000	0.059	-0.295
-108.005	-200.000	0.031	-0.188
-106.991	564.225	0.095	0.230
-105.976	-124.251	-0.173	-0.027
-104.962	166.915	-0.097	0.138
-103.947	135.849	0.237	-0.308
-102.932	-124.827	0.179	0.028
-101.918	-57.888	0.122	-0.053
-100.903	-19.049	-0.108	0.067
-99.889	-100.307	-0.088	0.022
-98.874	800.000	0.104	0.316
-97.859	-54.418	0.071	-0.032
-96.845	76.674	0.229	-0.242
-95.830	-73.156	0.268	0.098
-94.816	800.000	0.094	-0.307
-93.801	-104.079	-0.263	-0.061
-92.786	77.845	0.146	-0.155
-91.772	215.008	0.126	0.200
-90.757	800.000	0.123	0.481
-89.743	192.859	-0.138	-0.208
-88.728	711.128	-0.073	0.194
-87.713	120.867	-0.084	0.104
-86.699	3.898	-0.205	0.149
-85.684	115.628	0.053	0.065
-84.670	-83.522	0.119	-0.038
-83.655	-128.769	0.338	0.048
-82.640	-132.784	-0.277	-0.035
-81.626	-69.685	-0.110	0.042
-80.611	-200.000	0.008	0.170
-79.597	-40.910	0.151	0.078
-78.582	80.482	-0.195	0.209
-77.567	-200.000	-0.014	0.064
-76.553	-53.497	0.249	0.114
-75.538	800.000	-0.051	0.188
-74.524	114.426	-0.076	0.092
-73.509	75.481	0.138	-0.145
-72.494	-66.112	-0.121	0.048
-71.480	290.249	0.215	-0.389
-70.465	-67.008	0.331	-0.130
-69.451	-200.000	-0.038	0.189
-68.436	35.245	-0.200	0.175
-67.422	-46.447	0.166	0.081
-66.407	35.217	-0.149	0.130
-65.392	427.946	-0.144	-0.310
-64.378	-69.202	0.144	-0.055
-63.363	-200.000	0.010	-0.325
-62.349	-88.901	-0.157	0.046
-61.334	35.492	-0.942	-0.824
-60.319	-200.000	0.010	0.173
-59.305	-200.000	-0.112	-0.692
-58.290	-200.000	0.071	1.007
-57.276	800.000	0.653	1.963
-56.261	-200.000	76.066	529.706
-55.246	550.134	1310.198	3131.048
-54.232	145.414	2552.894	3406.144
-53.217	112.903	2349.624	2836.952
-52.203	51.601	1963.816	1860.217
-51.188	45.490	1751.901	1611.489
-50.173	42.463	1705.498	1545.484
-49.159	56.860	1740.067	1688.695
-48.144	62.624	1758.584	1751.225
-47.130	45.273	1721.798	1581.866
-46.115	42.046	1708.214	1544.489
-45.100	41.805	1704.143	1538.887
-44.086	41.929	1700.612	1536.594
-43.071	41.874	1698.097	1533.841
-42.057	41.802	1695.839	1531.184
-41.042	41.758	1694.030	1529.156
-40.027	41.808	1692.254	1527.874
-39.013	41.733	1689.765	1524.996
-37.998	41.772	1688.140	1523.762
-36.984	41.864	1686.558	1522.979
-35.969	41.931	1685.467	1522.439
-34.954	42.020	1682.988	1520.814
-33.940	41.961	1681.003	1518.513
-32.925	41.988	1679.376	1517.191
-31.911	41.935	1677.775	1515.283
-30.896	41.898	1675.754	1513.115
-29.881	41.835	1674.678	1511.612
-28.867	41.845	1672.770	1509.902
-27.852	41.920	1671.233	1509.024
-26.838	41.849	1669.784	1507.116
-25.823	41.957	1668.119	1506.371
-24.809	41.942	1666.495	1504.732
-23.794	41.956	1665.087	1503.500
-22.779	41.923	1663.636	1501.884
-21.765	41.910	1662.000	1500.255
-20.750	41.943	1660.262	1498.870
-19.736	41.965	1658.711	1497.576
-18.721	41.999	1657.068	1496.285
-17.706	42.004	1655.766	1495.090
-16.692	41.911	1654.444	1493.140
-15.677	41.913	1652.969	1491.767
-14.663	41.983	1651.256	1490.683
-13.648	41.872	1650.636	1489.240
-12.633	41.862	1648.856	1487.501
-11.619	41.839	1646.958	1485.553
-10.604	41.902	1645.631	1484.764
-9.590	41.869	1644.459	1483.404
-8.575	41.927	1642.949	1482.411
-7.560	41.946	1641.620	1481.296
-6.546	41.977	1640.237	1480.222
-5.531	41.919	1639.176	1478.776
-4.517	41.898	1638.034	1477.533
-3.502	41.907	1637.246	1476.830
-2.487	42.032	1634.998	1475.661
-1.473	41.921	1624.773	1465.561
-0.458	39.777	1605.346	1432.443
0.556	35.222	1604.595	1399.696
1.571	32.650	1629.375	1402.077
2.586	32.092	1644.435	1410.720
3.600	28.302	1590.059	1336.358
4.615	15.293	1466.682	1144.368
5.629	3.284	1389.796	1006.198
6.644	1.116	1379.539	984.612
7.659	0.866	1377.938	981.760
8.673	0.841	1376.889	980.767
9.688	0.708	1375.127	978.566
10.702	0.527	1372.655	975.549
11.717	4.639	1381.267	1008.282
12.731	16.194	1403.883	1100.472
13.746	23.966	1416.401	1161.123
14.761	24.531	1415.541	1164.002
15.775	24.457	1415.721	1163.559
16.790	24.511	1415.145	1163.337
17.804	24.582	1414.497	1163.162
18.819	24.838	1413.986	1164.309
19.834	24.803	1413.300	1163.413
20.848	24.734	1412.788	1162.439
21.863	24.883	1411.435	1162.192
22.877	24.863	1410.686	1161.343
23.892	24.773	1409.967	1160.062
24.907	24.863	1408.415	1159.263
25.921	24.765	1408.323	1158.450
26.936	24.773	1407.242	1157.513
27.950	24.840	1405.930	1156.767
28.965	24.862	1404.819	1155.893
29.980	24.869	1403.177	1154.479
30.994	24.886	1402.073	1153.581
32.009	24.910	1400.765	1152.560
33.023	24.818	1399.669	1150.961
34.038	24.863	1398.577	1150.251
35.053	24.763	1397.632	1148.731
36.067	24.824	1396.254	1147.889
37.082	24.898	1395.244	1147.428
38.096	24.766	1394.513	1145.879
39.111	24.825	1394.061	1145.783
40.126	24.877	1392.991	1145.140
41.140	24.805	1392.832	1144.445
42.155	24.803	1392.247	1143.851
43.169	24.792	1392.392	1143.798
44.184	24.763	1392.127	1143.290
45.199	24.829	1391.623	1143.202
46.213	24.760	1390.739	1141.929
47.228	24.891	1389.789	1141.886
48.242	24.827	1388.835	1140.597
49.257	24.916	1387.240	1139.748
50.271	24.848	1385.610	1137.877
51.286	24.900	1384.137	1136.900
52.301	24.710	1383.397	1134.983
53.315	24.774	1382.447	1134.508
54.330	24.809	1381.530	1133.880
55.344	24.822	1380.303	1132.853
56.359	24.811	1379.573	1132.085
57.374	24.877	1378.659	1131.652
58.388	24.835	1377.694	1130.492
59.403	24.849	1377.491	1130.316
60.417	24.800	1376.867	1129.393
61.432	24.813	1375.691	1128.410
62.447	24.895	1374.715	1128.027
63.461	24.841	1374.142	1127.116
64.476	24.765	1372.925	1125.540
65.490	24.872	1371.491	1124.939
66.505	24.931	1369.926	1123.927
67.520	24.936	1368.654	1122.813
68.534	24.917	1367.930	1122.001
69.549	24.931	1366.949	1121.185
70.563	24.897	1366.038	1120.125
71.578	24.897	1365.009	1119.186
72.593	24.925	1363.831	1118.294
73.607	24.894	1363.668	1117.865
74.622	24.829	1362.673	1116.547
75.636	24.847	1362.235	1116.202
76.651	24.918	1360.894	1115.449
77.666	24.815	1360.984	1114.781
78.680	24.829	1360.613	1114.467
79.695	24.821	1359.459	1113.370
80.709	24.854	1358.707	1112.865
81.724	24.728	1357.907	1111.323
82.739	24.845	1356.829	1111.068
83.753	24.831	1355.878	1110.106
84.768	24.883	1354.494	1109.196
85.782	24.981	1353.587	1108.964
86.797	24.905	1352.400	1107.423
87.812	24.869	1351.420	1106.298
88.826	24.859	1350.223	1105.159
89.841	24.883	1349.456	1104.583
90.855	24.825	1348.007	1102.942
91.870	24.842	1347.309	1102.379
92.884	24.958	1346.476	1102.312
93.899	24.876	1345.965	1101.293
94.914	24.942	1344.926	1100.751
95.928	24.824	1344.708	1099.752
96.943	24.956	1343.428	1099.415
97.957	24.954	1342.543	1098.585
98.972	24.967	1341.903	1098.044
99.987	24.770	1341.271	1096.217
101.001	24.824	1339.845	1095.290
102.016	24.908	1338.805	1094.857
103.030	24.855	1338.018	1093.791
104.045	24.888	1337.264	1093.280
105.060	24.959	1335.971	1092.556
106.074	24.932	1335.239	1091.700
107.089	24.887	1334.646	1090.841
108.103	24.993	1333.096	1090.126
109.118	24.946	1332.085	1088.912
110.133	24.929	1331.340	1088.107
111.147	24.965	1329.834	1086.996
112.162	25.043	1328.546	1086.322
113.176	24.995	1327.414	1085.007
114.191	25.016	1326.423	1084.229
115.206	24.942	1325.829	1083.201
116.220	24.921	1324.467	1081.864
117.235	24.877	1324.005	1081.128
118.249	24.994	1322.629	1080.615
119.264	24.975	1321.795	1079.720
120.279	24.892	1321.458	1078.850
121.293	25.045	1320.307	1078.739
122.308	24.985	1319.570	1077.676
123.322	25.021	1318.485	1076.915
124.337	25.033	1317.730	1076.271
125.352	24.990	1317.035	1075.354
126.366	25.136	1315.707	1075.050
127.381	25.045	1315.033	1073.854
128.395	25.023	1314.026	1072.806
129.410	24.967	1313.459	1071.915
130.424	24.977	1312.947	1071.462
131.439	25.147	1311.614	1071.296
132.454	25.121	1311.007	1070.548
133.468	25.103	1310.306	1069.776
134.483	25.067	1309.760	1069.019
135.497	25.026	1309.336	1068.336
136.512	24.985	1308.118	1066.999
137.527	25.087	1306.434	1066.139
138.541	25.014	1305.921	1065.194
139.556	25.066	1304.540	1064.284
140.570	25.041	1303.335	1063.055
141.585	25.032	1302.420	1062.160
142.600	25.035	1301.353	1061.217
143.614	25.088	1300.194	1060.493
144.629	25.088	1299.209	1059.591
145.643	24.824	1298.625	1057.465
146.658	24.967	1296.936	1056.836
147.673	24.917	1296.324	1055.952
148.687	24.971	1295.179	1055.245
149.702	24.922	1294.317	1054.158
150.716	24.962	1293.157	1053.355
151.731	24.982	1291.884	1052.342
152.746	24.940	1290.821	1051.138
153.760	24.992	1289.934	1050.630
154.775	25.056	1288.584	1049.813
155.789	25.061	1287.742	1049.060
156.804	24.968	1287.185	1047.970
157.819	24.961	1286.455	1047.242
158.833	25.087	1285.320	1046.964
159.848	25.091	1284.675	1046.367
160.862	25.003	1283.930	1045.152
161.877	25.069	1282.997	1044.686
162.892	25.169	1281.905	1044.290
163.906	25.047	1281.377	1043.058
164.921	25.090	1281.041	1042.940
165.935	25.030	1279.991	1041.647
166.950	25.047	1279.500	1041.250
167.964	25.089	1278.807	1040.837
168.979	25.055	1278.349	1040.177
169.994	25.138	1277.670	1040.014
171.008	25.129	1277.105	1039.409
172.023	25.041	1276.414	1038.247
173.037	25.157	1275.285	1037.906
174.052	25.224	1274.216	1037.334
175.067	25.246	1273.279	1036.606
176.081	25.125	1272.765	1035.396
177.096	25.182	1271.954	1034.971
178.110	25.261	1270.605	1034.241
179.125	25.058	1270.047	1032.526
180.140	25.012	1269.186	1031.467
181.154	25.102	1268.145	1031.050
182.169	25.176	1266.727	1030.230
183.183	25.228	1265.193	1029.189
184.198	25.152	1264.513	1028.110
185.213	25.237	1263.901	1028.004
186.227	25.218	1262.998	1027.072
187.242	25.264	1262.052	1026.478
188.256	25.195	1261.499	1025.539
189.271	25.192	1260.479	1024.606
190.286	25.233	1259.429	1023.896
191.300	25.193	1258.850	1023.104
192.315	25.226	1258.365	1022.807
193.329	25.219	1258.319	1022.638
194.344	25.196	1257.899	1022.077
195.359	25.198	1257.469	1021.651
196.373	25.236	1256.780	1021.217
197.388	25.127	1256.718	1020.453
198.402	25.042	1256.213	1019.470
199.417	25.138	1255.789	1019.581
200.432	25.210	1254.778	1019.077
201.446	25.252	1253.966	1018.566
202.461	25.262	1253.383	1018.062
203.475	25.254	1252.542	1017.242
204.490	25.177	1251.834	1016.140
205.504	25.177	1250.736	1015.160
206.519	25.275	1249.833	1014.891
207.534	25.234	1248.823	1013.749
208.548	25.246	1248.224	1013.241
209.563	25.292	1247.285	1012.650
210.577	25.234	1246.770	1011.816
211.592	25.257	1245.569	1010.883
212.607	25.206	1244.913	1009.971
213.621	25.322	1244.380	1010.101
214.636	25.315	1243.325	1009.116
215.650	25.309	1242.434	1008.270
216.665	25.322	1241.508	1007.502
217.680	25.361	1240.334	1006.677
218.694	25.297	1239.802	1005.802
219.709	25.271	1239.668	1005.458
220.723	25.354	1238.157	1004.604
221.738	25.342	1237.214	1003.684
222.753	25.279	1236.447	1002.623
223.767	25.273	1236.378	1002.443
224.782	25.325	1236.028	1002.363
225.796	25.497	1234.837	1002.269
226.811	25.494	1234.537	1001.919
227.826	25.287	1233.944	1000.196
228.840	25.498	1233.099	1000.597
229.855	25.418	1232.580	999.638
230.869	25.409	1232.020	999.046
231.884	25.317	1231.403	997.947
232.899	25.369	1230.776	997.638
233.913	25.328	1229.944	996.648
234.928	25.503	1229.172	996.909
235.942	25.554	1228.380	996.458
236.957	25.540	1227.969	995.958
237.972	25.471	1227.438	995.061
238.986	25.509	1226.582	994.485
240.001	25.493	1226.282	994.066
241.015	25.621	1225.323	993.909
242.030	25.594	1224.564	993.059
243.045	25.708	1223.766	992.953
244.059	25.602	1222.992	991.653
245.074	25.616	1222.021	990.854
246.088	25.727	1221.264	990.760
247.103	25.680	1220.347	989.670
248.117	25.590	1219.733	988.589
249.132	25.585	1219.065	987.936
250.147	25.617	1218.437	987.517
251.161	25.627	1217.817	986.978
252.176	25.649	1217.116	986.447
253.190	25.724	1216.507	986.276
254.205	25.685	1215.587	985.227
255.220	25.621	1215.260	984.527
256.234	25.717	1214.716	984.526
257.249	25.710	1214.124	983.917
258.263	25.731	1213.474	983.421
259.278	25.768	1212.617	982.839
260.293	25.806	1212.339	982.737
261.307	25.794	1211.697	982.062
262.322	25.756	1211.177	981.345
263.336	25.709	1210.795	980.694
264.351	25.618	1210.091	979.539
265.366	25.743	1209.055	979.294
266.380	25.654	1208.469	978.253
267.395	25.744	1207.631	977.975
268.409	25.716	1207.276	977.449
269.424	25.796	1206.326	977.027
270.439	25.796	1206.206	976.845
271.453	25.775	1205.750	976.273
272.468	25.731	1204.398	974.856
273.482	25.716	1204.172	974.506
274.497	25.712	1203.616	973.948
275.512	25.888	1202.960	974.279
276.526	25.833	1202.312	973.370
277.541	25.811	1201.430	972.455
278.555	25.807	1200.964	971.971
279.570	25.910	1199.761	971.466
280.585	25.919	1199.057	970.859
281.599	25.891	1198.417	970.101
282.614	25.816	1197.586	968.938
283.628	26.004	1196.260	968.791
284.643	25.902	1195.722	967.724
285.657	25.910	1195.010	967.101
286.672	25.880	1193.916	965.972
287.687	25.944	1193.482	965.880
288.701	25.939	1193.158	965.506
289.716	25.952	1192.233	964.740
290.730	26.031	1190.898	963.996
291.745	25.953	1190.510	963.181
292.760	26.020	1189.999	963.040
293.774	25.991	1189.405	962.316
294.789	26.050	1189.000	962.221
295.803	25.944	1188.597	961.246
296.818	26.121	1187.437	961.161
297.833	26.028	1186.856	960.115
298.847	25.980	1186.458	959.452
299.862	26.031	1185.518	958.878
300.876	26.146	1184.574	958.638
301.891	26.040	1184.566	957.982
302.906	26.162	1183.698	957.844
303.920	26.181	1182.717	957.069
304.935	26.142	1182.389	956.514
305.949	26.138	1181.604	955.767
306.964	26.172	1181.057	955.421
307.979	26.163	1180.606	954.925
308.993	26.107	1180.034	954.080
310.008	26.191	1179.022	953.624
311.022	26.238	1177.991	952.954
312.037	26.227	1177.307	952.256
313.052	26.186	1177.081	951.776
314.066	26.281	1176.001	951.319
315.081	26.307	1174.695	950.314
316.095	26.146	1174.738	949.416
317.110	26.276	1173.750	949.217
318.125	26.177	1172.891	947.919
319.139	26.199	1172.702	947.796
320.154	26.278	1171.977	947.541
321.168	26.262	1171.127	946.687
322.183	26.227	1170.825	946.176
323.197	26.267	1170.182	945.783
324.212	26.154	1169.699	944.717
325.227	26.353	1169.251	945.310
326.241	26.393	1168.489	944.822
327.256	26.353	1167.916	944.066
328.270	26.267	1167.356	943.083
329.285	26.394	1166.246	942.762
330.300	26.405	1165.232	941.915
331.314	26.426	1164.463	941.322
332.329	26.384	1163.575	940.305
333.343	26.431	1162.839	939.870
334.358	26.480	1162.113	939.453
335.373	26.485	1161.304	938.740
336.387	26.504	1160.903	938.433
337.402	26.456	1160.464	937.748
338.416	26.554	1159.646	937.507
339.431	26.369	1158.908	935.874
340.446	26.447	1158.612	935.955
341.460	26.479	1157.981	935.527
342.475	26.492	1157.055	934.765
343.489	26.516	1156.051	933.992
344.504	26.606	1154.765	933.334
345.519	26.541	1153.968	932.273
346.533	26.498	1153.801	931.834
347.548	26.564	1152.830	931.310
348.562	26.603	1151.848	930.634
349.577	26.569	1150.900	929.609
350.592	26.544	1150.446	929.035
351.606	26.542	1149.732	928.365
352.621	26.628	1149.591	928.608
353.635	26.549	1149.298	927.884
354.650	26.589	1148.048	927.000
355.665	26.621	1147.555	926.682
356.679	26.684	1147.078	926.539
357.694	26.658	1146.284	925.683
358.708	26.586	1145.640	924.710
359.723	26.545	1145.082	923.969
360.738	26.528	1144.709	923.503
361.752	26.671	1143.542	923.206
362.767	26.709	1143.052	922.925
363.781	26.719	1142.682	922.593
364.796	26.790	1141.654	922.040
365.810	26.726	1141.467	921.486
366.825	26.801	1140.627	921.103
367.840	26.969	1140.019	921.385
368.854	26.776	1139.861	920.195
369.869	26.877	1138.907	919.856
370.883	26.759	1138.319	918.702
371.898	26.855	1137.498	918.446
372.913	26.815	1137.007	917.764
373.927	26.892	1136.388	917.573
374.942	26.776	1136.060	916.641
375.956	26.811	1135.472	916.263
376.971	26.810	1134.793	915.629
377.986	26.968	1134.146	915.824
379.000	26.983	1133.803	915.539
380.015	27.047	1133.166	915.267
381.029	26.939	1132.738	914.295
382.044	26.853	1131.858	913.075
383.059	26.968	1130.879	912.781
384.073	26.967	1130.259	912.194
385.088	27.067	1129.498	912.001
386.102	26.991	1128.847	911.016
387.117	27.042	1127.878	910.406
388.132	26.975	1127.270	909.499
389.146	26.953	1126.675	908.831
390.161	27.078	1125.855	908.713
391.175	27.085	1124.760	907.782
392.190	27.061	1124.640	907.485
393.205	26.989	1123.835	906.395
394.219	26.993	1122.924	905.605
395.234	27.109	1121.886	905.261
396.248	27.127	1121.233	904.745
397.263	27.141	1120.103	903.823
398.278	27.224	1119.817	903.927
399.292	27.196	1119.003	903.050
400.307	27.178	1118.734	902.661
401.321	27.223	1117.855	902.097
402.336	27.034	1117.829	901.056
403.350	27.277	1116.702	901.275
404.365	27.294	1116.215	900.887
405.380	27.343	1115.235	900.257
406.394	27.167	1115.008	899.124
407.409	27.222	1113.906	898.430
408.423	27.361	1112.793	898.138
409.438	27.290	1112.734	897.660
410.453	27.223	1112.286	896.889
411.467	27.327	1111.077	896.349
412.482	27.282	1110.261	895.386
413.496	27.424	1109.439	895.343
414.511	27.303	1109.159	894.446
415.526	27.307	1108.893	894.170
416.540	27.323	1108.655	893.978
417.555	27.288	1108.202	893.359
418.569	27.413	1107.580	893.395
419.584	27.454	1106.656	892.771
420.599	27.446	1106.338	892.395
421.613	84.586	1293.533	1358.067
422.628	79.328	1320.825	1358.202
