DTS Sentinel unit serial number:	SN413079Multiplexer serial number:	ORYXHardware model number:	OX4-SRSoftware version number:	ORYX F/W v4.00 Oryx Data Collector v3.7.2.0data status	okinstallation	princeton_trtdifferential loss correction	single-endedforward channel	channel 2reverse channel	N/Adate	2019/09/18time	20:39:35forward acquisition time	60.00reverse acquisition time	0.00gamma	496.2192k internal	0.2339k external	0.2339temperature offset calibration	1.0032default loss term (dB/km)	0.3790temperature slope calibration	1.0000multiplexer offset coefficient	1.0000multiplexer slope coefficient	1.0000fibre end	0.00T internal ref (°C)	27.69T ext. ref 1 (°C)	1.01T ext. ref 2 (°C)	18.67length (m)	temperature (°C)	Stokes	anti-Stokes-747.200	-130.667	-0.305	-0.041
-746.185	800.000	0.068	0.255
-745.171	456.126	0.168	0.373
-744.156	33.205	-0.093	0.081
-743.142	-47.717	0.154	0.075
-742.127	-10.163	0.127	-0.085
-741.112	-200.000	-0.031	-0.146
-740.098	155.561	-0.213	0.294
-739.083	-175.657	0.313	0.008
-738.069	-200.000	0.006	-0.076
-737.054	-43.564	-0.016	-0.008
-736.039	322.834	-0.258	-0.494
-735.025	287.112	0.078	0.141
-734.010	61.586	0.176	0.176
-732.996	-49.976	-0.261	0.124
-731.981	408.148	0.115	-0.245
-730.966	607.175	-0.045	0.114
-729.952	-75.088	-0.214	0.077
-728.937	29.802	0.187	0.160
-727.923	-2.814	0.117	0.082
-726.908	800.000	0.023	-0.093
-725.894	217.387	0.203	0.324
-724.879	167.247	-0.134	-0.191
-723.864	292.794	-0.194	-0.354
-722.850	475.243	-0.111	0.252
-721.835	-200.000	-0.004	0.093
-720.821	212.686	-0.235	0.372
-719.806	-200.000	-0.002	-0.167
-718.791	320.724	-0.222	-0.423
-717.777	800.000	0.092	0.373
-716.762	106.281	0.153	0.181
-715.748	227.919	0.129	-0.210
-714.733	-117.997	-0.280	-0.050
-713.718	-109.520	0.164	-0.035
-712.704	132.284	-0.086	-0.112
-711.689	-177.707	-0.035	-0.001
-710.675	75.514	0.307	-0.325
-709.660	-126.276	-0.183	0.027
-708.645	131.019	0.087	-0.112
-707.631	-155.695	0.135	0.009
-706.616	22.755	0.170	0.140
-705.602	-139.705	-0.337	-0.036
-704.587	-42.930	-0.170	-0.087
-703.572	-59.101	-0.177	0.077
-702.558	800.000	0.050	0.187
-701.543	395.991	-0.065	0.135
-700.529	-172.358	-0.224	0.007
-699.514	10.354	0.256	-0.195
-698.499	800.000	0.034	0.143
-697.485	231.900	-0.019	0.031
-696.470	239.025	-0.073	-0.122
-695.456	-200.000	0.002	-0.096
-694.441	-200.000	-0.017	-0.126
-693.426	431.779	0.137	-0.297
-692.412	-0.209	0.209	0.149
-691.397	-58.190	0.126	-0.055
-690.383	800.000	0.072	0.204
-689.368	66.633	-0.297	0.302
-688.354	800.000	0.076	-0.316
-687.339	-174.561	-0.038	0.001
-686.324	800.000	0.020	0.057
-685.310	46.482	-0.180	0.167
-684.295	-200.000	0.055	-0.332
-683.281	157.752	0.060	-0.083
-682.266	14.282	-0.013	-0.010
-681.251	45.420	-0.057	-0.052
-680.237	-101.366	0.235	0.057
-679.222	162.333	-0.177	-0.249
-678.208	-36.837	-0.204	-0.109
-677.193	64.577	0.237	-0.239
-676.178	-133.164	-0.513	0.065
-675.164	800.000	-0.028	0.106
-674.149	-101.264	0.020	0.005
-673.135	-77.912	-0.169	-0.058
-672.120	-57.251	0.099	0.044
-671.105	41.201	0.221	-0.200
-670.091	-56.386	-0.155	-0.069
-669.076	-49.131	0.074	0.035
-668.062	800.000	-0.076	-0.246
-667.047	6.305	-0.146	-0.109
-666.032	-200.000	-0.060	-0.321
-665.018	259.086	0.202	0.349
-664.003	76.779	-0.208	0.221
-662.989	1.604	-0.173	-0.125
-661.974	17.647	0.067	-0.053
-660.959	302.681	-0.178	0.330
-659.945	434.795	-0.107	0.233
-658.930	304.035	-0.074	0.137
-657.916	-103.052	-0.099	-0.023
-656.901	231.306	0.059	0.096
-655.886	329.529	-0.134	0.257
-654.872	-167.711	-0.329	-0.013
-653.857	28.203	0.209	-0.176
-652.843	-42.497	-0.200	0.102
-651.828	409.810	-0.077	0.163
-650.814	-130.230	-0.162	0.022
-649.799	-60.147	-0.270	-0.115
-648.784	-10.553	-0.227	-0.150
-647.770	-133.620	0.377	-0.047
-646.755	-200.000	-0.012	-0.157
-645.741	-32.645	-0.246	0.137
-644.726	-157.174	-0.262	0.016
-643.711	35.513	0.260	0.228
-642.697	-62.929	-0.038	-0.016
-641.682	-200.000	0.001	0.057
-640.668	-89.463	0.217	-0.064
-639.653	390.548	0.206	-0.427
-638.638	800.000	0.037	0.108
-637.624	800.000	0.048	-0.137
-636.609	800.000	-0.079	-0.326
-635.595	434.371	-0.171	-0.370
-634.580	-49.144	0.141	0.067
-633.565	44.478	0.229	0.210
-632.551	-10.728	0.357	-0.235
-631.536	-200.000	0.049	0.421
-630.522	-48.230	-0.333	0.160
-629.507	-154.515	-0.271	0.018
-628.492	-123.541	0.361	-0.057
-627.478	92.610	-0.090	0.101
-626.463	85.245	0.170	-0.187
-625.449	-99.253	-0.104	0.026
-624.434	-100.514	-0.194	-0.048
-623.419	-33.598	0.165	0.091
-622.405	-200.000	0.003	-0.014
-621.390	-200.000	0.000	0.310
-620.376	-58.440	-0.190	0.082
-619.361	-200.000	-0.031	-0.142
-618.346	-74.549	-0.283	0.102
-617.332	-200.000	-0.010	-0.256
-616.317	-178.489	0.277	0.006
-615.303	43.295	-0.128	0.117
-614.288	800.000	-0.063	0.181
-613.273	18.558	0.153	0.122
-612.259	-39.642	-0.235	0.123
-611.244	404.205	0.098	0.206
-610.230	29.597	0.137	0.116
-609.215	-200.000	-0.026	0.171
-608.201	53.528	-0.311	0.297
-607.186	-47.090	0.035	0.017
-606.171	-131.841	0.088	-0.012
-605.157	-51.820	0.044	0.021
-604.142	-64.095	0.340	-0.139
-603.128	73.543	-0.124	-0.130
-602.113	94.209	0.108	0.122
-601.098	-45.918	-0.092	-0.045
-600.084	110.083	-0.196	-0.235
-599.069	-65.083	0.063	-0.025
-598.055	439.398	0.043	0.093
-597.040	-200.000	-0.012	0.210
-596.025	31.847	-0.228	-0.196
-595.011	42.599	-0.103	0.094
-593.996	-200.000	0.021	0.238
-592.982	144.198	0.028	-0.037
-591.967	-134.617	-0.203	-0.025
-590.952	-116.656	0.234	-0.043
-589.938	338.558	0.184	-0.358
-588.923	-138.969	0.174	-0.019
-587.909	-57.990	-0.291	-0.127
-586.894	-19.023	-0.151	0.094
-585.879	-200.000	0.032	-0.199
-584.865	-200.000	-0.008	0.100
-583.850	76.750	-0.125	-0.133
-582.836	-75.173	0.184	-0.066
-581.821	63.058	0.063	0.063
-580.806	-200.000	-0.018	-0.345
-579.792	141.426	0.165	-0.217
-578.777	-191.470	0.209	0.002
-577.763	-79.225	-0.100	-0.034
-576.748	673.802	-0.124	-0.320
-575.733	42.637	0.167	0.152
-574.719	-33.250	0.126	0.069
-573.704	800.000	0.029	-0.096
-572.690	-200.000	0.055	-0.373
-571.675	-200.000	-0.035	0.336
-570.661	-185.427	-0.407	-0.006
-569.646	58.007	-0.108	0.105
-568.631	93.890	0.258	-0.292
-567.617	-107.148	-0.342	-0.075
-566.602	326.984	0.080	0.153
-565.588	123.762	0.179	0.224
-564.573	2.491	0.029	-0.021
-563.558	485.223	0.131	-0.297
-562.544	191.329	0.224	-0.335
-561.529	128.133	-0.093	0.118
-560.515	69.946	0.041	0.042
-559.500	87.996	-0.387	0.427
-558.485	-131.424	0.153	-0.020
-557.471	-0.888	-0.239	0.168
-556.456	800.000	-0.090	0.268
-555.442	-124.960	-0.307	-0.047
-554.427	-123.171	-0.073	-0.012
-553.412	800.000	-0.091	-0.385
-552.398	-200.000	0.054	-0.503
-551.383	-56.715	-0.139	0.061
-550.369	-65.174	0.012	0.005
-549.354	-19.836	0.242	-0.149
-548.339	-97.009	-0.398	0.104
-547.325	308.955	0.103	0.192
-546.310	-117.043	-0.260	-0.047
-545.296	-200.000	0.014	0.110
-544.281	-200.000	0.011	-0.065
-543.266	-189.517	-0.164	-0.002
-542.252	800.000	-0.021	0.065
-541.237	369.541	0.033	0.066
-540.223	-48.524	-0.252	0.121
-539.208	18.955	-0.131	-0.105
-538.193	469.001	0.124	-0.277
-537.179	324.611	0.124	0.235
-536.164	-54.221	-0.240	-0.109
-535.150	800.000	0.060	0.188
-534.135	55.299	0.080	0.077
-533.121	-18.481	0.227	-0.141
-532.106	-143.396	-0.248	-0.024
-531.091	-200.000	-0.032	0.284
-530.077	741.656	0.080	0.214
-529.062	-80.914	-0.215	0.071
-528.048	-189.505	-0.220	0.003
-527.033	447.671	0.064	-0.140
-526.018	20.483	0.173	-0.139
-525.004	-16.152	0.094	-0.059
-523.989	-56.952	-0.189	0.083
-522.975	37.752	-0.266	-0.235
-521.960	166.214	-0.108	-0.152
-520.945	-93.209	-0.299	-0.083
-519.931	-87.916	-0.017	0.005
-518.916	-200.000	0.000	-0.034
-517.902	271.297	0.199	0.348
-516.887	-106.168	0.262	0.058
-515.872	426.319	0.152	-0.327
-514.858	-200.000	0.024	-0.140
-513.843	-200.000	0.006	0.143
-512.829	-107.758	-0.164	-0.036
-511.814	-200.000	0.015	-0.237
-510.799	534.843	0.050	0.119
-509.785	-164.814	-0.292	-0.013
-508.770	-200.000	-0.030	0.213
-507.756	85.301	0.239	0.261
-506.741	661.254	-0.085	-0.219
-505.726	-7.560	0.193	-0.129
-504.712	84.064	0.146	0.159
-503.697	342.053	0.113	0.219
-502.683	-200.000	-0.022	-0.095
-501.668	135.184	0.348	-0.449
-500.653	-149.496	0.128	-0.010
-499.639	228.104	0.146	-0.237
-498.624	-200.000	0.031	-0.216
-497.610	-43.743	0.190	-0.095
-496.595	-200.000	-0.058	0.403
-495.581	-89.646	0.154	0.045
-494.566	-200.000	0.378	0.002
-493.551	206.214	-0.076	0.117
-492.537	175.475	0.183	0.264
-491.522	108.661	-0.092	0.109
-490.508	179.596	0.084	0.122
-489.493	471.119	0.089	-0.199
-488.478	-200.000	0.005	-0.074
-487.464	-75.826	-0.266	0.093
-486.449	-87.215	0.182	-0.055
-485.435	527.208	0.079	0.186
-484.420	79.381	-0.065	0.069
-483.405	335.418	-0.033	0.064
-482.391	152.178	0.020	0.027
-481.376	-168.041	-0.271	-0.011
-480.362	115.364	-0.132	-0.160
-479.347	-58.470	-0.210	0.091
-478.332	162.091	-0.121	0.168
-477.318	223.874	-0.235	0.376
-476.303	258.626	0.050	-0.085
-475.289	-91.502	-0.064	-0.018
-474.274	329.203	0.117	0.224
-473.259	-2.383	0.379	0.264
-472.245	591.181	0.021	-0.052
-471.230	218.286	-0.203	-0.321
-470.216	-51.420	-0.118	0.055
-469.201	-68.632	-0.444	0.171
-468.186	188.384	0.125	0.186
-467.172	-200.000	-0.020	-0.217
-466.157	-127.780	-0.265	0.038
-465.143	16.568	-0.320	0.251
-464.128	-145.284	0.196	-0.018
-463.113	-153.259	-0.135	-0.009
-462.099	-200.000	-0.021	0.180
-461.084	-200.000	0.026	0.179
-460.070	-200.000	0.022	0.178
-459.055	127.285	-0.263	0.332
-458.040	-145.425	-0.206	-0.018
-457.026	142.287	0.080	-0.105
-456.011	535.675	-0.089	-0.208
-454.997	264.312	-0.108	-0.187
-453.982	800.000	0.093	-0.352
-452.968	716.106	-0.108	-0.283
-451.953	-126.470	0.327	0.048
-450.938	197.530	-0.137	0.208
-449.924	-200.000	0.018	0.267
-448.909	-200.000	-0.017	-0.086
-447.895	-200.000	-0.013	0.209
-446.880	194.604	0.080	-0.120
-445.865	-200.000	0.036	-0.162
-444.851	308.806	-0.022	-0.041
-443.836	94.202	0.206	0.232
-442.822	800.000	-0.032	0.117
-441.807	-200.000	0.024	0.119
-440.792	95.680	0.395	0.447
-439.778	713.113	-0.112	0.294
-438.763	321.150	-0.034	0.065
-437.749	-83.280	0.017	0.006
-436.734	-148.839	-0.216	-0.017
-435.719	106.861	-0.220	0.259
-434.705	336.229	0.031	0.059
-433.690	35.721	-0.227	0.198
-432.676	164.769	0.297	0.415
-431.661	-200.000	0.037	0.372
-430.646	-8.281	-0.149	0.100
-429.632	-123.095	-0.357	0.057
-428.617	35.313	-0.125	0.108
-427.603	-200.000	-0.034	-0.289
-426.588	22.947	0.152	0.124
-425.573	-86.966	-0.121	-0.037
-424.559	55.207	-0.089	0.085
-423.544	-83.058	-0.319	0.102
-422.530	-59.747	0.032	-0.014
-421.515	197.595	0.062	0.094
-420.500	32.181	0.117	-0.100
-419.486	-80.300	0.185	0.061
-418.471	-97.570	-0.016	-0.004
-417.457	-200.000	-0.026	0.272
-416.442	-129.417	0.377	0.052
-415.428	800.000	0.136	0.439
-414.413	-200.000	0.010	0.277
-413.398	661.099	0.103	0.263
-412.384	73.088	0.277	-0.287
-411.369	-200.000	0.054	0.286
-410.355	800.000	-0.042	-0.150
-409.340	-181.749	-0.201	-0.004
-408.325	800.000	-0.090	-0.350
-407.311	-27.580	-0.264	0.152
-406.296	-200.000	0.075	0.335
-405.282	133.214	-0.116	-0.149
-404.267	-85.589	0.234	-0.072
-403.252	800.000	0.123	-0.428
-402.238	177.767	0.076	-0.110
-401.223	398.451	0.174	-0.361
-400.209	800.000	0.059	0.209
-399.194	-126.814	-0.258	0.038
-398.179	800.000	0.066	0.195
-397.165	146.065	-0.064	-0.085
-396.150	-134.605	-0.104	-0.013
-395.136	-134.901	0.285	-0.034
-394.121	546.720	-0.085	-0.201
-393.106	-20.312	0.043	0.026
-392.092	-93.871	-0.159	0.043
-391.077	-85.043	0.151	0.047
-390.063	-101.382	-0.134	0.032
-389.048	-53.994	0.183	0.082
-388.033	-51.001	-0.249	-0.116
-387.019	-190.441	-0.141	0.002
-386.004	233.642	-0.320	-0.521
-384.990	-200.000	0.027	-0.420
-383.975	459.073	0.072	-0.159
-382.960	-85.394	0.105	0.033
-381.946	698.504	0.156	0.405
-380.931	151.128	-0.219	0.295
-379.917	-37.774	0.246	-0.130
-378.902	-82.048	0.349	-0.113
-377.888	75.072	-0.182	-0.189
-376.873	-56.091	0.317	-0.140
-375.858	-150.353	-0.133	0.010
-374.844	800.000	-0.057	0.186
-373.829	-200.000	0.069	0.356
-372.815	100.298	0.074	0.085
-371.800	303.703	-0.067	0.123
-370.785	-200.000	0.019	-0.108
-369.771	37.680	-0.287	0.252
-368.756	16.633	-0.120	-0.094
-367.742	42.897	0.195	0.176
-366.727	-200.000	0.055	0.346
-365.712	800.000	0.032	-0.120
-364.698	40.403	-0.128	-0.114
-363.683	-200.000	-0.022	0.198
-362.669	-200.000	-0.022	-0.112
-361.654	-138.380	-0.283	0.031
-360.639	-200.000	-0.007	0.237
-359.625	-72.279	-0.115	-0.042
-358.610	635.267	0.109	-0.274
-357.596	-111.696	0.310	-0.062
-356.581	-128.742	0.250	-0.035
-355.566	800.000	-0.022	0.074
-354.552	-200.000	0.032	-0.397
-353.537	800.000	0.077	0.316
-352.523	495.928	-0.078	-0.178
-351.508	87.579	-0.159	-0.174
-350.493	-106.518	-0.281	-0.062
-349.479	-46.563	0.172	0.083
-348.464	219.380	-0.069	-0.109
-347.450	-43.375	0.080	-0.040
-346.435	101.326	0.054	-0.062
-345.420	103.649	0.303	-0.352
-344.406	800.000	-0.081	-0.285
-343.391	-106.722	-0.076	-0.017
-342.377	41.236	0.279	-0.249
-341.362	-147.852	0.349	-0.029
-340.348	-200.000	0.039	0.314
-339.333	800.000	-0.067	0.214
-338.318	800.000	0.056	0.223
-337.304	-11.404	-0.231	-0.150
-336.289	800.000	-0.095	0.300
-335.275	-200.000	-0.010	-0.362
-334.260	126.259	0.139	0.173
-333.245	-66.364	-0.175	0.069
-332.231	-92.058	-0.219	0.061
-331.216	229.754	-0.068	0.110
-330.202	83.456	-0.192	-0.207
-329.187	-200.000	-0.002	-0.327
-328.172	-200.000	0.022	-0.186
-327.158	77.050	0.121	0.127
-326.143	-34.360	-0.202	-0.110
-325.129	11.556	0.316	0.239
-324.114	-100.185	-0.307	0.075
-323.099	494.547	0.146	-0.330
-322.085	-70.419	-0.313	0.117
-321.070	275.707	0.158	0.277
-320.056	-98.902	0.189	-0.047
-319.041	-77.292	-0.092	-0.032
-318.026	91.306	0.240	0.266
-317.012	-181.629	-0.304	0.006
-315.997	118.509	0.044	0.054
-314.983	220.842	-0.112	0.177
-313.968	-38.337	0.105	0.055
-312.953	332.222	-0.146	0.279
-311.939	800.000	-0.093	0.384
-310.924	800.000	0.063	-0.201
-309.910	2.596	-0.242	-0.173
-308.895	653.934	0.082	-0.207
-307.880	800.000	0.050	0.152
-306.866	-200.000	0.058	0.335
-305.851	-200.000	0.045	-0.231
-304.837	56.298	-0.149	0.143
-303.822	7.371	0.050	-0.037
-302.807	356.423	-0.032	0.063
-301.793	-26.509	-0.324	0.187
-300.778	-200.000	-0.025	0.113
-299.764	673.668	-0.104	-0.266
-298.749	114.825	-0.181	-0.217
-297.735	74.683	-0.017	0.018
-296.720	-107.919	0.217	0.047
-295.705	374.601	-0.075	-0.150
-294.691	-30.033	0.253	0.142
-293.676	-112.969	0.052	0.010
-292.662	-85.678	0.230	0.070
-291.647	-163.414	-0.532	0.025
-290.632	-125.235	0.173	-0.026
-289.618	460.405	-0.182	0.399
-288.603	322.872	-0.187	-0.351
-287.589	47.259	-0.127	0.117
-286.574	42.938	0.270	0.243
-285.559	439.094	0.063	0.136
-284.545	-9.905	0.069	0.045
-283.530	-147.105	0.480	-0.040
-282.516	-76.746	-0.343	-0.118
-281.501	12.921	0.283	-0.215
-280.486	-139.512	0.186	0.020
-279.472	-56.785	0.332	-0.145
-278.457	222.272	-0.209	-0.332
-277.443	-9.688	0.103	-0.067
-276.428	-33.371	-0.071	0.039
-275.413	-200.000	0.012	-0.079
-274.399	-53.948	-0.239	-0.107
-273.384	-200.000	0.005	-0.136
-272.370	-82.783	-0.188	0.060
-271.355	34.230	0.130	-0.112
-270.340	-141.371	0.260	-0.026
-269.326	87.358	-0.123	0.134
-268.311	-133.916	-0.255	-0.031
-267.297	-144.570	-0.162	0.015
-266.282	-189.765	-0.091	-0.001
-265.267	84.206	0.111	-0.119
-264.253	-102.835	0.388	-0.091
-263.238	-200.000	-0.010	-0.064
-262.224	379.300	0.100	-0.202
-261.209	-200.000	-0.015	-0.366
-260.195	565.713	-0.082	-0.195
-259.180	-102.821	-0.344	0.081
-258.165	-200.000	0.014	0.230
-257.151	-200.000	-0.008	-0.181
-256.136	-56.432	-0.234	-0.102
-255.122	192.533	-0.172	-0.255
-254.107	262.891	0.152	0.260
-253.092	368.731	-0.049	-0.097
-252.078	-200.000	0.027	-0.203
-251.063	88.168	-0.006	-0.007
-250.049	-148.716	-0.152	-0.012
-249.034	-120.850	0.151	-0.025
-248.019	-15.956	-0.099	0.062
-247.005	-116.362	0.047	0.009
-245.990	26.655	0.264	-0.217
-244.976	126.061	0.165	-0.206
-243.961	-126.357	0.434	0.064
-242.946	-200.000	0.034	0.159
-241.932	-27.053	-0.419	-0.241
-240.917	-110.258	-0.226	-0.046
-239.903	466.564	0.106	0.233
-238.888	344.829	0.096	-0.186
-237.873	-12.754	0.120	-0.077
-236.859	-52.333	0.056	0.025
-235.844	800.000	0.096	-0.309
-234.830	800.000	0.039	-0.126
-233.815	-200.000	0.014	-0.114
-232.800	-200.000	-0.022	-0.156
-231.786	800.000	-0.045	-0.192
-230.771	-200.000	-0.032	-0.173
-229.757	-152.583	-0.323	-0.023
-228.742	-96.940	0.369	-0.095
-227.727	-200.000	-0.040	0.177
-226.713	-200.000	-0.007	-0.166
-225.698	-162.991	-0.131	0.006
-224.684	-99.246	-0.084	-0.021
-223.669	-200.000	-0.011	-0.079
-222.655	-137.690	0.199	0.022
-221.640	263.066	-0.067	0.114
-220.625	-15.806	0.216	0.135
-219.611	-139.576	-0.516	0.054
-218.596	53.872	0.171	-0.161
-217.582	-200.000	-0.003	0.160
-216.567	396.490	0.151	-0.309
-215.552	158.503	0.058	-0.079
-214.538	370.658	-0.229	0.456
-213.523	24.823	0.189	-0.154
-212.509	-79.564	-0.050	-0.017
-211.494	537.801	0.132	-0.308
-210.479	-91.123	0.216	-0.061
-209.465	-21.438	0.164	-0.098
-208.450	-130.516	0.563	0.075
-207.436	-161.629	0.180	0.009
-206.421	-22.832	0.176	0.104
-205.406	28.938	-0.245	0.204
-204.392	68.068	-0.051	-0.051
-203.377	86.754	-0.231	0.250
-202.363	-27.240	0.282	0.161
-201.348	-200.000	0.027	-0.342
-200.333	-153.282	0.448	0.031
-199.319	549.342	0.036	-0.086
-198.304	-119.941	0.238	0.040
-197.290	-200.000	0.124	0.609
-196.275	-200.000	0.051	-0.246
-195.260	-72.877	0.301	-0.109
-194.246	-87.556	-0.349	-0.103
-193.231	-21.664	0.135	-0.081
-192.217	-33.929	0.135	-0.073
-191.202	-125.527	-0.227	-0.034
-190.187	-200.000	-0.024	-0.150
-189.173	-72.840	-0.255	-0.092
-188.158	542.624	0.052	0.121
-187.144	-117.193	-0.254	-0.045
-186.129	108.112	0.088	0.103
-185.114	-20.129	-0.227	-0.137
-184.100	-200.000	-0.041	0.211
-183.085	408.185	0.029	-0.060
-182.071	800.000	0.022	-0.093
-181.056	800.000	0.041	0.146
-180.042	-200.000	-0.050	-0.231
-179.027	-136.046	0.202	-0.023
-178.012	109.651	0.154	-0.181
-176.998	2.486	-0.087	-0.062
-175.983	249.357	0.061	-0.102
-174.969	-163.356	0.276	0.013
-173.954	-98.697	-0.260	-0.065
-172.939	-54.943	0.299	-0.132
-171.925	-200.000	-0.072	0.312
-170.910	-200.000	0.021	0.179
-169.896	-24.716	-0.070	0.041
-168.881	800.000	0.050	0.191
-167.866	-200.000	-0.007	0.089
-166.852	-34.924	-0.287	-0.154
-165.837	66.709	0.149	-0.148
-164.823	-30.426	0.246	-0.137
-163.808	-48.841	-0.138	-0.065
-162.793	125.232	0.231	0.286
-161.779	-117.686	0.106	0.019
-160.764	174.338	0.100	-0.142
-159.750	7.097	-0.087	0.064
-158.735	52.472	-0.163	-0.153
-157.720	636.207	-0.090	-0.225
-156.706	323.903	0.179	0.335
-155.691	-38.156	-0.088	-0.046
-154.677	-48.790	0.188	0.089
-153.662	-3.747	0.101	0.069
-152.647	33.253	-0.048	-0.041
-151.633	-177.850	-0.228	0.005
-150.618	237.763	0.130	0.211
-149.604	-117.961	0.339	-0.059
-148.589	21.009	-0.386	-0.307
-147.574	-107.169	0.063	0.014
-146.560	800.000	-0.007	0.021
-145.545	-49.403	-0.185	-0.086
-144.531	-158.025	-0.139	-0.008
-143.516	-125.298	0.222	0.033
-142.502	-200.000	-0.001	0.065
-141.487	129.436	-0.275	0.344
-140.472	-194.576	-0.303	-0.002
-139.458	56.991	-0.119	-0.114
-138.443	800.000	-0.043	-0.128
-137.429	-200.000	0.038	-0.190
-136.414	19.885	-0.310	-0.245
-135.399	109.343	0.096	0.112
-134.385	35.421	0.135	0.116
-133.370	413.264	-0.065	0.135
-132.356	-106.960	-0.265	-0.057
-131.341	-200.000	-0.007	-0.055
-130.326	-57.499	0.239	0.103
-129.312	119.714	0.179	0.217
-128.297	800.000	-0.057	0.207
-127.283	-63.973	0.032	0.013
-126.268	285.858	-0.127	-0.225
-125.253	-200.000	0.053	-0.241
-124.239	-200.000	0.028	-0.198
-123.224	-66.833	0.261	-0.101
-122.210	3.184	-0.090	0.064
-121.195	800.000	-0.064	0.198
-120.180	95.570	0.137	-0.152
-119.166	272.599	-0.082	0.141
-118.151	153.161	-0.228	0.305
-117.137	-118.358	-0.023	-0.004
-116.122	168.720	0.186	0.260
-115.107	-158.928	-0.143	-0.008
-114.093	-43.992	0.139	0.069
-113.078	139.177	-0.168	-0.217
-112.064	800.000	0.064	0.198
-111.049	-29.704	-0.079	-0.044
-110.034	97.621	-0.109	0.123
-109.020	-123.147	-0.087	0.014
-108.005	63.454	-0.123	0.121
-106.991	-130.458	-0.163	0.022
-105.976	-200.000	-0.067	0.378
-104.962	-200.000	0.035	-0.225
-103.947	93.450	-0.240	-0.266
-102.932	-17.061	-0.127	0.078
-101.918	-200.000	0.015	0.094
-100.903	800.000	-0.082	0.290
-99.889	-200.000	0.064	0.357
-98.874	-159.469	0.171	-0.009
-97.859	-59.245	0.094	0.040
-96.845	-21.226	0.227	-0.136
-95.830	12.242	-0.063	-0.047
-94.816	0.455	-0.229	-0.160
-93.801	-52.636	-0.113	0.051
-92.786	-87.395	-0.183	0.054
-91.772	-2.980	-0.163	-0.111
-90.757	-20.861	-0.051	-0.031
-89.743	-190.245	0.150	-0.002
-88.728	146.263	0.099	0.130
-87.713	173.292	-0.047	-0.067
-86.699	800.000	-0.037	-0.146
-85.684	800.000	0.027	-0.110
-84.670	-112.865	0.020	-0.004
-83.655	260.613	0.131	-0.221
-82.640	-71.408	-0.077	0.028
-81.626	-8.582	0.247	-0.162
-80.611	-200.000	-0.015	0.172
-79.597	306.980	0.021	-0.038
-78.582	-200.000	0.017	-0.122
-77.567	-26.043	-0.258	0.148
-76.553	38.800	0.082	-0.071
-75.538	800.000	-0.079	0.215
-74.524	-55.898	0.287	0.125
-73.509	-200.000	-0.024	-0.141
-72.494	169.860	-0.177	0.247
-71.480	-200.000	0.026	0.475
-70.465	123.267	-0.072	0.088
-69.451	500.676	0.143	0.323
-68.436	800.000	-0.067	-0.222
-67.422	-115.324	0.153	-0.028
-66.407	-84.200	0.276	0.086
-65.392	-131.030	0.057	0.007
-64.378	-19.836	0.177	-0.107
-63.363	-143.910	-0.144	0.013
-62.349	800.000	-0.046	0.140
-61.334	287.692	-0.881	-1.556
-60.319	7.306	0.707	0.516
-59.305	111.129	-0.823	-0.968
-58.290	223.287	0.750	1.180
-57.276	557.281	0.680	1.601
-56.261	-200.000	112.671	638.173
-55.246	481.581	1476.405	3272.829
-54.232	152.885	2644.450	3529.681
-53.217	94.434	2268.584	2515.955
-52.203	36.350	1889.544	1626.526
-51.188	30.891	1686.472	1410.467
-50.173	28.375	1645.658	1357.662
-49.159	46.986	1702.652	1545.649
-48.144	46.422	1716.831	1554.199
-47.130	30.235	1674.623	1395.407
-46.115	27.792	1659.792	1364.747
-45.100	27.660	1654.947	1359.728
-44.086	27.545	1653.184	1357.369
-43.071	27.593	1650.425	1355.403
-42.057	27.548	1647.667	1352.751
-41.042	27.553	1645.917	1351.302
-40.027	27.541	1644.674	1350.139
-39.013	27.513	1642.489	1348.085
-37.998	27.435	1641.077	1346.292
-36.984	27.695	1638.907	1346.376
-35.969	27.663	1637.978	1345.326
-34.954	27.743	1636.445	1344.601
-33.940	27.680	1634.804	1342.736
-32.925	27.751	1632.638	1341.431
-31.911	27.684	1631.206	1339.710
-30.896	27.711	1629.627	1338.551
-29.881	27.677	1628.098	1336.996
-28.867	27.765	1626.373	1336.170
-27.852	27.643	1625.465	1334.481
-26.838	27.616	1623.604	1332.704
-25.823	27.672	1622.342	1332.021
-24.809	27.727	1620.743	1331.059
-23.794	27.659	1619.999	1329.898
-22.779	27.717	1618.188	1328.779
-21.765	27.784	1616.111	1327.509
-20.750	27.618	1615.581	1325.814
-19.736	27.682	1613.809	1324.770
-18.721	27.742	1612.225	1323.856
-17.706	27.715	1610.574	1322.252
-16.692	27.730	1608.778	1320.830
-15.677	27.665	1607.596	1319.341
-14.663	27.675	1606.673	1318.602
-13.648	27.748	1605.223	1317.886
-12.633	27.732	1603.466	1316.273
-11.619	27.742	1602.175	1315.237
-10.604	27.796	1600.351	1314.076
-9.590	27.741	1599.520	1312.947
-8.575	27.713	1598.623	1311.959
-7.560	27.733	1596.981	1310.701
-6.546	27.712	1595.810	1309.538
-5.531	27.725	1594.631	1308.609
-4.517	27.708	1593.715	1307.681
-3.502	27.642	1592.574	1306.222
-2.487	27.799	1590.311	1305.436
-1.473	27.132	1577.846	1290.417
-0.458	23.211	1556.497	1245.381
0.556	17.935	1555.510	1205.324
1.571	14.966	1576.864	1200.488
2.586	14.267	1589.022	1204.581
3.600	13.122	1536.434	1156.602
4.615	7.765	1432.333	1043.082
5.629	2.253	1372.482	964.691
6.644	1.121	1365.287	952.440
7.659	1.011	1363.831	950.651
8.673	0.917	1362.776	949.239
9.688	1.002	1361.005	948.454
10.702	0.752	1357.818	944.587
11.717	3.392	1361.008	963.244
12.731	10.385	1371.100	1014.206
13.746	16.024	1379.187	1055.512
14.761	17.582	1381.011	1066.577
15.775	17.009	1378.955	1061.312
16.790	16.030	1376.278	1053.039
17.804	15.227	1374.163	1046.317
18.819	14.803	1373.425	1043.018
19.834	14.535	1371.634	1039.895
20.848	14.338	1370.270	1037.543
21.863	14.110	1369.239	1035.252
22.877	14.035	1367.375	1033.280
23.892	13.781	1367.161	1031.450
24.907	13.793	1366.421	1030.878
25.921	13.931	1365.024	1030.590
26.936	13.926	1364.429	1030.016
27.950	13.957	1363.327	1029.283
28.965	14.054	1362.056	1028.837
29.980	13.969	1361.534	1027.822
30.994	14.053	1360.936	1027.800
32.009	14.140	1359.502	1027.165
33.023	14.081	1358.704	1026.104
34.038	14.101	1357.082	1024.916
35.053	14.029	1356.121	1023.653
36.067	14.025	1354.906	1022.622
37.082	14.031	1353.982	1021.869
38.096	13.993	1352.891	1020.722
39.111	14.023	1352.556	1020.565
40.126	13.953	1351.464	1019.220
41.140	13.932	1350.933	1018.604
42.155	13.872	1350.252	1017.629
43.169	13.913	1350.154	1017.716
44.184	13.803	1350.084	1016.900
45.199	13.824	1349.866	1016.775
46.213	14.039	1348.756	1017.161
47.228	13.979	1347.816	1015.996
48.242	13.982	1346.718	1015.102
49.257	13.870	1345.719	1013.570
50.271	13.919	1343.810	1012.342
51.286	13.993	1342.630	1011.814
52.301	13.932	1341.340	1010.384
53.315	13.998	1339.974	1009.664
54.330	13.959	1339.331	1008.856
55.344	13.778	1338.510	1007.052
56.359	13.934	1336.972	1006.745
57.374	13.860	1336.267	1005.680
58.388	13.853	1335.801	1005.196
59.403	13.851	1335.161	1004.617
60.417	13.916	1333.745	1003.854
61.432	13.870	1333.308	1003.156
62.447	13.784	1332.540	1001.972
63.461	13.851	1330.848	1001.013
64.476	13.795	1330.188	1000.092
65.490	13.744	1328.932	998.755
66.505	13.819	1327.333	997.915
67.520	13.771	1326.215	996.695
68.534	13.891	1325.060	996.459
69.549	13.841	1324.307	995.507
70.563	13.852	1322.490	994.119
71.578	13.719	1321.736	992.667
72.593	13.679	1320.942	991.744
73.607	13.766	1319.963	991.442
74.622	13.710	1319.190	990.439
75.636	13.809	1318.393	990.342
76.651	13.798	1317.435	989.470
77.666	13.780	1316.587	988.639
78.680	13.710	1316.767	988.267
79.695	13.756	1315.876	987.787
80.709	13.853	1314.790	987.462
81.724	13.769	1314.519	986.674
82.739	13.961	1312.632	986.308
83.753	13.920	1311.884	985.413
84.768	13.974	1310.987	984.976
85.782	14.024	1309.833	984.318
86.797	13.964	1308.390	982.789
87.812	13.913	1307.620	981.825
88.826	13.923	1306.594	981.022
89.841	13.935	1305.325	980.057
90.855	14.000	1304.104	979.433
91.870	14.021	1303.406	978.951
92.884	13.999	1302.664	978.174
93.899	14.078	1301.729	977.848
94.914	14.050	1301.016	977.067
95.928	14.104	1299.581	976.219
96.943	14.050	1299.415	975.686
97.957	14.059	1298.516	974.980
98.972	14.045	1296.911	973.607
99.987	14.023	1296.145	972.819
101.001	14.036	1295.389	972.237
102.016	14.078	1294.030	971.380
103.030	13.968	1293.358	970.148
104.045	14.060	1292.115	969.663
105.060	14.041	1291.231	968.804
106.074	13.888	1290.244	967.086
107.089	13.912	1288.435	965.786
108.103	13.896	1287.591	964.974
109.118	13.840	1286.056	963.414
110.133	13.894	1285.019	962.864
111.147	13.808	1283.640	961.250
112.162	13.871	1282.261	960.498
113.176	13.949	1280.920	959.856
114.191	13.877	1280.310	958.897
115.206	13.979	1278.914	958.357
116.220	13.986	1277.471	957.233
117.235	13.964	1276.989	956.660
118.249	14.053	1275.656	956.086
119.264	13.938	1274.795	954.696
120.279	13.959	1273.812	953.995
121.293	13.897	1272.618	952.664
122.308	13.895	1271.583	951.790
123.322	13.893	1270.535	950.914
124.337	13.759	1269.880	949.570
125.352	13.995	1268.119	949.516
126.366	13.892	1267.115	948.095
127.381	13.902	1266.088	947.300
128.395	13.876	1265.054	946.294
129.410	13.862	1264.080	945.400
130.424	13.869	1263.577	944.980
131.439	13.942	1262.188	944.276
132.454	13.945	1261.559	943.739
133.468	13.944	1260.416	942.793
134.483	13.967	1259.553	942.194
135.497	14.013	1258.531	941.606
136.512	13.989	1257.325	940.485
137.527	13.949	1256.058	939.226
138.541	13.849	1254.872	937.694
139.556	13.946	1253.549	937.168
140.570	14.115	1251.892	936.803
141.585	14.047	1250.761	935.487
142.600	13.998	1249.896	934.483
143.614	14.095	1249.058	934.317
144.629	14.112	1248.036	933.567
145.643	14.210	1246.404	932.815
146.658	14.131	1245.196	931.385
147.673	14.037	1244.059	929.923
148.687	14.101	1243.117	929.495
149.702	14.059	1241.942	928.300
150.716	14.069	1240.232	926.997
151.731	14.066	1238.897	925.902
152.746	14.022	1238.393	925.197
153.760	14.091	1236.775	924.292
154.775	14.143	1235.475	923.524
155.789	14.188	1234.569	923.017
156.804	14.154	1233.692	922.091
157.819	14.201	1232.477	921.361
158.833	14.112	1232.012	920.439
159.848	14.287	1231.042	920.603
160.862	14.261	1230.225	919.764
161.877	14.162	1228.692	917.992
162.892	14.123	1227.577	916.864
163.906	14.205	1226.895	916.725
164.921	14.221	1225.718	915.848
165.935	14.220	1224.917	915.167
166.950	14.218	1224.011	914.394
167.964	14.345	1223.400	914.556
168.979	14.189	1222.737	913.124
169.994	14.212	1221.990	912.611
171.008	14.337	1221.011	912.483
172.023	14.317	1220.633	912.009
173.037	14.408	1219.322	911.449
174.052	14.380	1218.197	910.373
175.067	14.311	1217.501	909.397
176.081	14.322	1216.774	908.832
177.096	14.273	1215.889	907.826
178.110	14.403	1214.399	907.339
179.125	14.330	1213.352	906.078
180.140	14.302	1211.958	904.807
181.154	14.393	1211.131	904.603
182.169	14.413	1209.937	903.741
183.183	14.335	1208.862	902.437
184.198	14.505	1207.200	902.035
185.213	14.512	1205.867	900.996
186.227	14.499	1204.949	900.162
187.242	14.478	1204.204	899.410
188.256	14.518	1203.220	898.811
189.271	14.565	1202.222	898.240
190.286	14.401	1201.278	896.571
191.300	14.257	1201.028	895.534
192.315	14.447	1199.732	895.506
193.329	14.399	1199.542	895.028
194.344	14.485	1198.477	894.615
195.359	14.542	1197.966	894.459
196.373	14.502	1197.404	893.750
197.388	14.540	1197.304	893.800
198.402	14.603	1196.600	893.530
199.417	14.707	1195.772	893.391
200.432	14.723	1194.397	892.371
201.446	14.608	1194.259	891.572
202.461	14.754	1192.839	891.215
203.475	14.792	1191.891	890.626
204.490	14.812	1190.661	889.736
205.504	14.705	1189.509	888.227
206.519	14.634	1188.662	887.138
207.534	14.757	1187.203	886.623
208.548	14.700	1186.434	885.670
209.563	14.753	1185.702	885.328
210.577	14.796	1184.719	884.739
211.592	14.857	1183.727	884.244
212.607	14.756	1183.421	883.405
213.621	14.830	1182.726	883.198
214.636	14.895	1181.176	882.304
215.650	14.971	1180.417	882.059
216.665	14.860	1179.519	880.727
217.680	14.842	1178.552	879.835
218.694	14.942	1177.678	879.627
219.709	15.009	1176.723	879.191
220.723	15.014	1176.205	878.751
221.738	15.067	1175.147	878.161
222.753	14.889	1174.716	876.829
223.767	15.047	1173.876	876.950
224.782	15.081	1173.393	876.688
225.796	15.044	1172.806	875.983
226.811	15.008	1172.024	875.133
227.826	14.980	1171.746	874.697
228.840	15.062	1170.302	873.971
229.855	15.152	1169.961	874.108
230.869	15.038	1169.166	872.843
231.884	15.068	1168.323	872.291
232.899	15.128	1167.268	871.740
233.913	15.109	1166.417	870.929
234.928	15.136	1166.098	870.757
235.942	15.070	1165.095	869.583
236.957	15.121	1164.123	869.049
237.972	15.075	1163.663	868.390
238.986	15.102	1163.166	868.082
240.001	15.166	1162.432	867.788
241.015	15.095	1161.653	866.762
242.030	15.189	1160.847	866.572
243.045	15.198	1159.722	865.701
244.059	15.188	1158.882	864.945
245.074	15.258	1158.200	864.722
246.088	15.191	1157.244	863.587
247.103	15.289	1156.250	863.273
248.117	15.224	1155.746	862.486
249.132	15.292	1155.127	862.296
250.147	15.409	1154.579	862.412
251.161	15.368	1153.859	861.587
252.176	15.508	1153.099	861.661
253.190	15.449	1152.292	860.683
254.205	15.471	1152.105	860.575
255.220	15.553	1151.155	860.212
256.234	15.612	1150.434	859.897
257.249	15.618	1149.685	859.292
258.263	15.634	1148.951	858.751
259.278	15.541	1148.801	858.088
260.293	15.534	1148.622	857.844
261.307	15.649	1147.295	857.363
262.322	15.709	1146.674	857.129
263.336	15.760	1146.351	857.071
264.351	15.786	1145.380	856.401
265.366	15.834	1144.674	856.039
266.380	15.683	1144.185	854.834
267.395	15.665	1143.415	854.088
268.409	15.760	1142.809	854.046
269.424	15.743	1141.919	853.216
270.439	15.790	1141.431	853.013
271.453	15.848	1140.312	852.396
272.468	15.715	1140.147	851.522
273.482	15.652	1139.378	850.555
274.497	15.730	1138.750	850.404
275.512	15.763	1137.795	849.785
276.526	15.707	1137.247	849.017
277.541	15.924	1135.850	848.992
278.555	15.889	1135.571	848.534
279.570	15.881	1134.591	847.687
280.585	16.064	1133.460	847.685
281.599	15.875	1133.346	846.576
282.614	15.951	1131.956	845.845
283.628	15.929	1130.933	844.894
284.643	15.969	1130.110	844.403
285.657	15.859	1129.227	843.122
286.672	15.966	1128.606	843.118
287.687	15.935	1127.755	842.253
288.701	16.003	1126.911	841.887
289.716	15.928	1126.488	841.124
290.730	15.977	1125.605	840.631
291.745	16.021	1124.826	840.197
292.760	15.938	1124.508	839.469
293.774	16.016	1123.793	839.252
294.789	16.091	1122.945	838.918
295.803	16.309	1122.072	839.276
296.818	16.155	1121.560	838.053
297.833	16.168	1120.492	837.242
298.847	16.158	1120.270	836.954
299.862	16.177	1119.339	836.280
300.876	16.042	1118.883	835.197
301.891	16.030	1118.127	834.498
302.906	16.213	1117.071	834.543
303.920	16.256	1116.390	834.172
304.935	16.353	1115.401	833.837
305.949	16.371	1115.195	833.699
306.964	16.393	1114.796	833.434
307.979	16.458	1113.472	832.693
308.993	16.292	1113.225	831.613
310.008	16.405	1112.529	831.578
311.022	16.400	1111.941	831.037
312.037	16.419	1110.806	830.212
313.052	16.379	1110.318	829.578
314.066	16.377	1109.136	828.611
315.081	16.308	1108.298	827.575
316.095	16.392	1107.276	827.145
317.110	16.349	1106.718	826.449
318.125	16.460	1105.928	826.324
319.139	16.417	1105.199	825.498
320.154	16.399	1104.799	825.041
321.168	16.465	1104.178	824.825
322.183	16.427	1103.566	824.108
323.197	16.510	1102.402	823.572
324.212	16.459	1102.418	823.260
325.227	16.382	1101.657	822.247
326.241	16.413	1101.354	822.097
327.256	16.450	1100.352	821.459
328.270	16.578	1099.077	821.055
329.285	16.450	1098.133	819.657
330.300	16.518	1097.243	819.247
331.314	16.585	1096.526	818.965
332.329	16.441	1095.925	817.747
333.343	16.622	1094.829	817.729
334.358	16.540	1094.035	816.673
335.373	16.698	1093.016	816.598
336.387	16.780	1091.837	816.043
337.402	16.765	1091.634	815.746
338.416	16.693	1091.207	815.006
339.431	16.762	1090.179	814.500
340.446	16.725	1089.359	813.635
341.460	16.813	1089.222	813.886
342.475	16.771	1088.346	812.954
343.489	16.959	1087.464	813.129
344.504	16.946	1086.584	812.336
345.519	16.916	1085.768	811.508
346.533	16.872	1084.984	810.639
347.548	16.837	1084.529	810.062
348.562	16.948	1083.697	809.901
349.577	16.830	1082.829	808.618
350.592	16.868	1081.929	808.052
351.606	16.887	1081.289	807.595
352.621	16.848	1081.068	807.171
353.635	16.852	1080.291	806.540
354.650	16.845	1079.494	805.839
355.665	16.860	1078.693	805.240
356.679	16.891	1078.334	805.048
357.694	17.055	1077.757	805.327
358.708	17.066	1076.828	804.615
359.723	17.111	1076.098	804.207
360.738	17.005	1075.642	803.295
361.752	16.988	1075.421	802.977
362.767	17.078	1074.482	802.632
363.781	17.111	1073.902	802.285
364.796	17.177	1073.324	802.094
365.810	17.068	1072.804	801.119
366.825	17.278	1071.954	801.402
367.840	17.231	1071.369	800.675
368.854	17.345	1070.702	800.643
369.869	17.263	1070.071	799.711
370.883	17.406	1069.396	799.812
371.898	17.158	1068.475	797.885
372.913	17.249	1068.226	798.057
373.927	17.351	1067.438	797.877
374.942	17.302	1067.093	797.318
375.956	17.286	1066.416	796.664
376.971	17.474	1065.612	796.873
377.986	17.455	1065.034	796.283
379.000	17.486	1064.613	796.041
380.015	17.381	1064.662	795.519
381.029	17.556	1063.435	795.348
382.044	17.380	1063.303	794.356
383.059	17.601	1061.799	794.192
384.073	17.495	1060.898	792.957
385.088	17.502	1060.691	792.765
386.102	17.479	1059.455	791.661
387.117	17.538	1058.521	791.171
388.132	17.443	1057.558	789.938
389.146	17.604	1056.614	789.908
390.161	17.599	1055.930	789.304
391.175	17.387	1055.754	788.122
392.190	17.488	1054.771	787.785
393.205	17.586	1053.698	787.366
394.219	17.562	1053.211	786.823
395.234	17.563	1052.170	785.982
396.248	17.668	1051.137	785.624
397.263	17.573	1050.279	784.474
398.278	17.619	1049.893	784.329
399.292	17.536	1049.233	783.385
400.307	17.643	1048.531	783.282
401.321	17.686	1047.300	782.494
402.336	17.763	1046.704	782.329
403.350	17.706	1046.207	781.630
404.365	17.711	1045.623	781.147
405.380	17.718	1044.842	780.528
406.394	17.790	1044.360	780.428
407.409	17.863	1043.461	780.017
408.423	17.830	1043.072	779.507
409.438	17.912	1042.097	779.084
410.453	17.804	1041.513	778.087
411.467	17.972	1040.649	778.137
412.482	17.833	1039.811	776.808
413.496	17.988	1039.431	777.162
414.511	17.856	1039.047	776.205
415.526	18.068	1038.778	776.902
416.540	18.014	1038.025	776.024
417.555	18.009	1037.420	775.478
418.569	18.053	1037.113	775.378
419.584	18.079	1036.590	775.040
420.599	18.135	1035.991	774.775
421.613	108.045	1326.473	1482.457
422.628	99.112	1368.759	1482.541
