DTS Sentinel unit serial number:	SN413079Multiplexer serial number:	ORYXHardware model number:	OX4-SRSoftware version number:	ORYX F/W v4.00 Oryx Data Collector v3.7.2.0data status	okinstallation	princeton_trtdifferential loss correction	single-endedforward channel	channel 2reverse channel	N/Adate	2019/09/12time	06:09:11forward acquisition time	60.00reverse acquisition time	0.00gamma	496.2192k internal	0.2324k external	0.2324temperature offset calibration	1.0061default loss term (dB/km)	0.3790temperature slope calibration	1.0000multiplexer offset coefficient	1.0000multiplexer slope coefficient	1.0000fibre end	0.00T internal ref (°C)	32.12T ext. ref 1 (°C)	1.56T ext. ref 2 (°C)	27.37length (m)	temperature (°C)	Stokes	anti-Stokes-747.200	-52.530	0.271	-0.126
-746.185	-200.000	0.005	0.217
-745.171	207.423	-0.234	0.369
-744.156	-188.864	-0.559	0.007
-743.142	-3.068	0.245	-0.173
-742.127	74.930	-0.212	0.225
-741.112	-24.410	0.414	0.249
-740.098	370.412	-0.139	0.284
-739.083	-156.467	0.089	-0.006
-738.069	-113.118	-0.211	-0.042
-737.054	41.282	0.264	0.241
-736.039	-89.660	-0.220	0.065
-735.025	13.930	0.054	0.042
-734.010	586.069	0.119	0.295
-732.996	-2.943	-0.086	-0.061
-731.981	36.412	-0.187	0.167
-730.966	99.961	0.045	-0.053
-729.952	-200.000	-0.014	-0.130
-728.937	-132.190	-0.111	-0.015
-727.923	800.000	0.085	0.287
-726.908	-18.176	0.271	-0.171
-725.894	320.809	-0.118	-0.226
-724.879	-200.000	-0.020	-0.413
-723.864	507.721	-0.090	0.210
-722.850	-22.068	0.295	0.181
-721.835	54.698	0.083	0.080
-720.821	-35.188	0.228	-0.125
-719.806	-200.000	0.005	0.172
-718.791	-60.238	-0.061	0.026
-717.777	196.996	-0.124	-0.191
-716.762	25.617	-0.148	-0.125
-715.748	-127.179	0.116	-0.017
-714.733	20.121	-0.293	0.238
-713.718	-119.658	0.128	0.022
-712.704	-106.336	-0.128	0.029
-711.689	396.270	0.110	-0.232
-710.675	-114.836	0.204	-0.039
-709.660	-54.827	0.046	-0.021
-708.645	-200.000	-0.008	0.211
-707.631	-81.077	0.123	0.041
-706.616	420.311	-0.095	0.206
-705.602	362.875	0.170	0.343
-704.587	-200.000	-0.052	0.275
-703.572	182.328	-0.066	0.097
-702.558	-19.754	0.226	-0.141
-701.543	145.190	-0.125	0.168
-700.529	800.000	-0.040	-0.158
-699.514	-86.992	-0.464	-0.142
-698.499	-200.000	-0.005	-0.100
-697.485	324.620	-0.051	0.097
-696.470	-156.632	-0.318	-0.020
-695.456	-158.369	-0.235	-0.014
-694.441	-200.000	-0.021	-0.181
-693.426	161.898	0.166	-0.234
-692.412	372.826	0.049	-0.100
-691.397	-124.479	0.159	0.025
-690.383	73.370	-0.052	-0.055
-689.368	484.066	0.054	0.124
-688.354	-71.278	0.075	0.028
-687.339	471.922	-0.023	-0.051
-686.324	-123.407	0.240	0.039
-685.310	-17.968	0.178	-0.112
-684.295	-137.639	0.338	0.038
-683.281	319.173	-0.064	-0.122
-682.266	31.173	0.262	-0.226
-681.251	385.064	0.011	-0.023
-680.237	-200.000	0.039	-0.326
-679.222	114.613	-0.142	-0.174
-678.208	150.681	0.293	0.401
-677.193	6.367	0.121	-0.091
-676.178	266.744	-0.020	-0.034
-675.164	-200.000	-0.008	0.125
-674.149	-194.570	0.261	0.002
-673.135	-200.000	-0.018	0.108
-672.120	-116.039	-0.227	0.043
-671.105	-10.270	0.228	-0.152
-670.091	-101.246	-0.141	0.035
-669.076	800.000	0.097	0.328
-668.062	-81.778	-0.178	0.059
-667.047	-111.077	-0.130	0.027
-666.032	81.967	0.204	-0.222
-665.018	373.158	-0.054	-0.111
-664.003	-20.913	-0.145	0.090
-662.989	-96.349	0.112	-0.030
-661.974	-54.058	-0.094	0.043
-660.959	462.865	-0.075	-0.167
-659.945	681.910	-0.068	-0.178
-658.930	101.307	-0.100	0.117
-657.916	-200.000	0.044	0.218
-656.901	-70.332	-0.349	0.133
-655.886	126.313	-0.108	-0.137
-654.872	-82.963	-0.257	0.083
-653.857	-116.147	-0.122	-0.023
-652.843	-75.936	0.145	0.052
-651.828	402.277	0.113	0.239
-650.814	-86.956	0.051	-0.016
-649.799	800.000	0.006	-0.020
-648.784	296.113	-0.100	0.184
-647.770	-200.000	-0.055	-0.246
-646.755	31.535	-0.185	-0.160
-645.741	-200.000	0.007	-0.170
-644.726	-44.446	-0.190	0.096
-643.711	534.494	0.042	-0.101
-642.697	800.000	0.101	-0.326
-641.682	800.000	-0.022	-0.063
-640.668	223.236	0.178	0.288
-639.653	0.820	0.366	0.264
-638.638	594.112	-0.122	-0.302
-637.624	-97.216	0.131	-0.034
-636.609	-67.145	0.182	-0.072
-635.595	-99.574	-0.103	-0.026
-634.580	62.998	-0.256	0.258
-633.565	27.638	-0.174	-0.147
-632.551	180.576	-0.057	-0.083
-631.536	363.785	-0.047	0.095
-630.522	113.693	0.198	-0.241
-629.507	-123.394	0.083	0.013
-628.492	-115.862	0.230	-0.043
-627.478	532.568	0.181	-0.431
-626.463	142.539	0.099	0.132
-625.449	-168.860	-0.361	0.014
-624.434	159.798	-0.208	-0.291
-623.419	340.531	-0.192	-0.377
-622.405	-95.707	-0.051	-0.014
-621.390	800.000	0.007	-0.023
-620.376	-200.000	0.001	0.332
-619.361	251.058	0.133	0.226
-618.346	98.036	0.275	-0.318
-617.332	800.000	-0.029	-0.093
-616.317	616.395	0.097	-0.245
-615.303	-116.649	-0.028	0.005
-614.288	-200.000	0.121	0.000
-613.273	-200.000	0.013	-0.130
-612.259	-200.000	-0.029	-0.150
-611.244	193.460	-0.182	0.277
-610.230	-23.022	-0.439	-0.266
-609.215	25.479	0.207	0.173
-608.201	-56.666	0.138	-0.061
-607.186	-122.843	0.105	0.017
-606.171	37.113	0.315	0.280
-605.157	250.952	-0.160	0.273
-604.142	-67.524	-0.298	0.117
-603.128	-74.616	-0.034	-0.012
-602.113	800.000	-0.068	0.248
-601.098	-51.966	-0.166	-0.078
-600.084	-159.332	0.234	-0.013
-599.069	-200.000	-0.005	-0.128
-598.055	126.574	-0.261	0.331
-597.040	255.597	-0.144	0.248
-596.025	64.243	-0.200	0.202
-595.011	-200.000	-0.024	0.213
-593.996	-155.979	0.160	-0.010
-592.982	293.554	0.127	-0.233
-591.967	-110.701	0.074	-0.015
-590.952	39.566	-0.265	0.238
-589.938	176.421	-0.172	0.251
-588.923	-17.435	-0.439	0.277
-587.909	-97.806	0.080	-0.021
-586.894	129.971	-0.057	-0.073
-585.879	-4.520	0.116	0.080
-584.865	-15.305	0.073	0.047
-583.850	-187.736	-0.323	-0.004
-582.836	-200.000	0.007	0.253
-581.821	-103.499	0.043	0.010
-580.806	-77.252	0.196	0.068
-579.792	40.074	0.145	0.130
-578.777	-88.068	0.474	-0.143
-577.763	108.932	0.277	0.332
-576.748	800.000	0.096	0.302
-575.733	349.302	-0.180	0.356
-574.719	308.949	-0.059	0.111
-573.704	137.635	0.115	0.151
-572.690	-42.375	0.101	-0.051
-571.675	2.586	0.137	0.100
-570.661	-115.039	-0.262	0.050
-569.646	156.169	-0.098	0.135
-568.631	-200.000	-0.005	-0.042
-567.617	535.942	0.129	0.308
-566.602	208.140	0.072	0.113
-565.588	-105.173	-0.117	0.027
-564.573	147.111	-0.072	0.097
-563.558	-107.357	-0.293	0.064
-562.544	-89.771	-0.024	0.007
-561.529	194.470	-0.220	-0.335
-560.515	800.000	-0.033	-0.118
-559.500	-121.330	-0.099	-0.017
-558.485	-31.634	-0.041	0.023
-557.471	-200.000	0.029	0.431
-556.456	-86.695	0.356	0.109
-555.442	-103.662	0.104	0.025
-554.427	329.154	0.047	0.090
-553.412	-71.676	0.287	-0.107
-552.398	278.923	-0.058	-0.103
-551.383	-20.157	0.337	0.208
-550.369	527.652	-0.111	-0.262
-549.354	-129.060	0.529	0.074
-548.339	-93.755	0.248	-0.069
-547.325	-14.043	-0.341	-0.220
-546.310	38.472	0.031	0.027
-545.296	800.000	-0.049	-0.153
-544.281	739.739	0.161	0.432
-543.266	405.302	0.209	0.441
-542.252	-200.000	0.007	-0.245
-541.237	-119.223	0.100	0.017
-540.223	404.607	-0.041	-0.086
-539.208	664.307	-0.032	0.082
-538.193	-200.000	-0.003	-0.174
-537.179	-200.000	0.067	-0.402
-536.164	98.009	0.078	0.090
-535.150	-200.000	0.004	-0.299
-534.135	-24.569	0.102	0.061
-533.121	-27.671	-0.334	-0.194
-532.106	-107.482	0.220	0.048
-531.091	340.268	-0.091	0.177
-530.077	-49.272	-0.185	-0.089
-529.062	-118.605	0.513	0.091
-528.048	-107.841	-0.320	-0.070
-527.033	800.000	0.026	0.092
-526.018	300.722	0.219	-0.405
-525.004	-126.146	-0.005	-0.001
-523.989	18.471	-0.167	-0.134
-522.975	-144.255	0.294	-0.027
-521.960	88.382	0.274	-0.305
-520.945	-99.175	0.312	-0.079
-519.931	-5.680	-0.063	-0.043
-518.916	-71.882	0.134	0.050
-517.902	-200.000	-0.018	0.204
-516.887	-200.000	0.031	0.290
-515.872	57.458	-0.199	0.195
-514.858	-20.221	0.119	0.073
-513.843	238.461	-0.052	-0.086
-512.829	218.191	-0.149	-0.238
-511.814	206.726	-0.060	-0.094
-510.799	49.231	0.172	0.161
-509.785	-200.000	-0.013	0.210
-508.770	539.588	0.148	0.352
-507.756	-36.695	-0.314	0.169
-506.741	318.599	-0.092	-0.173
-505.726	-200.000	0.013	-0.155
-504.712	800.000	0.028	-0.106
-503.697	123.407	-0.184	-0.231
-502.683	7.019	0.306	0.228
-501.668	-200.000	0.019	-0.267
-500.653	-33.843	0.093	-0.051
-499.639	-200.000	0.022	-0.172
-498.624	-200.000	-0.011	-0.130
-497.610	-60.936	0.200	-0.084
-496.595	115.632	-0.099	0.121
-495.581	397.371	0.052	-0.109
-494.566	243.577	-0.177	-0.297
-493.551	73.309	0.198	0.207
-492.537	-8.229	0.385	-0.259
-491.522	148.682	-0.146	0.198
-490.508	-180.719	-0.133	0.003
-489.493	-119.232	-0.243	-0.042
-488.478	151.210	0.204	-0.277
-487.464	-97.751	-0.204	0.053
-486.449	800.000	0.092	0.336
-485.435	-200.000	0.052	-0.415
-484.420	165.573	0.007	0.010
-483.405	-200.000	-0.005	-0.168
-482.391	-200.000	0.005	-0.309
-481.376	-93.376	-0.248	0.069
-480.362	-179.645	-0.063	0.001
-479.347	800.000	-0.031	-0.122
-478.332	87.101	-0.194	0.214
-477.318	-200.000	-0.025	0.254
-476.303	-22.569	-0.125	-0.075
-475.289	4.475	-0.040	-0.029
-474.274	630.491	0.099	-0.250
-473.259	-120.288	-0.484	0.082
-472.245	-200.000	-0.027	-0.298
-471.230	59.061	-0.150	0.148
-470.216	800.000	-0.033	-0.141
-469.201	131.720	-0.182	0.234
-468.186	-200.000	-0.054	0.305
-467.172	422.419	-0.095	-0.204
-466.157	-200.000	0.052	-0.365
-465.143	47.479	0.249	-0.231
-464.128	-87.113	-0.310	0.094
-463.113	-200.000	0.003	-0.147
-462.099	800.000	0.034	0.123
-461.084	800.000	0.046	0.170
-460.070	154.277	-0.270	0.370
-459.055	159.245	0.032	0.044
-458.040	-116.244	-0.560	-0.104
-457.026	-150.447	-0.309	-0.024
-456.011	689.785	0.092	-0.240
-454.997	800.000	-0.089	-0.295
-453.982	123.819	0.144	0.181
-452.968	-200.000	0.042	0.281
-451.953	-37.193	-0.061	-0.033
-450.938	-200.000	0.154	0.001
-449.924	-123.481	-0.242	-0.038
-448.909	12.643	-0.302	-0.233
-447.895	38.125	-0.051	-0.045
-446.880	-48.882	0.243	-0.116
-445.865	-44.282	-0.365	0.183
-444.851	31.356	0.415	0.356
-443.836	151.927	-0.271	-0.369
-442.822	-200.000	0.033	-0.434
-441.807	-200.000	0.032	0.357
-440.792	94.612	0.121	0.137
-439.778	9.902	0.297	0.225
-438.763	-173.983	0.112	0.003
-437.749	-87.863	0.286	0.086
-436.734	-42.568	-0.056	-0.029
-435.719	-200.000	0.001	-0.285
-434.705	-200.000	0.005	-0.133
-433.690	-200.000	0.017	0.136
-432.676	-30.335	0.256	-0.145
-431.661	99.954	-0.213	0.247
-430.646	800.000	-0.024	0.067
-429.632	-64.183	-0.176	0.072
-428.617	-200.000	0.002	0.147
-427.603	-200.000	-0.010	0.141
-426.588	249.976	-0.106	-0.180
-425.573	-12.532	-0.216	-0.140
-424.559	3.150	0.067	-0.049
-423.544	-94.595	0.188	0.051
-422.530	-160.203	-0.489	-0.026
-421.515	761.831	0.063	-0.170
-420.500	507.492	-0.100	-0.232
-419.486	13.736	-0.039	0.030
-418.471	-87.149	-0.210	0.064
-417.457	-30.475	-0.169	-0.095
-416.442	800.000	0.076	0.220
-415.428	-44.900	-0.253	0.125
-414.413	118.218	0.182	-0.224
-413.398	552.310	0.076	0.183
-412.384	147.604	-0.152	-0.204
-411.369	42.760	-0.259	-0.235
-410.355	-74.318	0.296	0.107
-409.340	357.936	-0.131	-0.260
-408.325	800.000	-0.015	0.060
-407.311	-119.738	-0.285	-0.049
-406.296	-136.041	-0.207	0.024
-405.282	-24.512	-0.372	-0.220
-404.267	46.636	-0.167	-0.155
-403.252	174.262	0.208	-0.300
-402.238	800.000	0.035	0.105
-401.223	-200.000	-0.018	-0.096
-400.209	-200.000	-0.046	0.387
-399.194	800.000	0.043	-0.137
-398.179	19.161	-0.194	-0.155
-397.165	-36.520	-0.192	-0.103
-396.150	-137.281	0.206	0.023
-395.136	182.550	-0.124	-0.182
-394.121	-144.003	0.195	-0.018
-393.106	-52.966	0.276	-0.126
-392.092	263.577	0.229	-0.395
-391.077	-200.000	0.026	-0.265
-390.063	-11.754	-0.121	0.079
-389.048	-103.977	-0.117	0.027
-388.033	-2.722	-0.106	-0.074
-387.019	25.078	0.128	-0.106
-386.004	123.086	0.182	-0.226
-384.990	11.243	-0.134	-0.102
-383.975	23.016	0.133	0.109
-382.960	130.777	0.181	-0.232
-381.946	414.715	-0.125	0.264
-380.931	184.175	0.044	0.065
-379.917	-79.218	-0.203	-0.069
-378.902	-36.340	0.139	-0.074
-377.888	209.534	0.052	0.081
-376.873	54.487	0.222	-0.212
-375.858	-200.000	-0.032	-0.210
-374.844	114.271	0.299	0.362
-373.829	-58.168	-0.187	-0.081
-372.815	-38.892	0.413	0.216
-371.800	-200.000	-0.001	0.220
-370.785	-128.149	-0.056	0.008
-369.771	-200.000	0.035	-0.423
-368.756	11.129	-0.040	-0.030
-367.742	-16.344	0.130	-0.082
-366.727	-200.000	-0.008	0.187
-365.712	-115.686	-0.095	0.018
-364.698	102.886	0.080	-0.093
-363.683	-200.000	0.014	0.191
-362.669	800.000	-0.018	-0.066
-361.654	-171.927	0.202	0.007
-360.639	-21.989	0.037	-0.022
-359.625	-200.000	-0.006	-0.079
-358.610	1.790	-0.086	0.062
-357.596	-16.430	-0.257	0.162
-356.581	-87.026	0.309	0.094
-355.566	-175.457	0.246	0.007
-354.552	-130.977	0.265	0.035
-353.537	161.670	0.090	-0.125
-352.523	-200.000	0.028	-0.131
-351.508	-141.856	0.418	0.042
-350.493	800.000	0.071	0.221
-349.479	-23.425	0.177	-0.106
-348.464	-89.057	-0.193	-0.057
-347.450	800.000	0.048	-0.177
-346.435	-120.913	0.168	-0.028
-345.420	197.001	0.061	0.092
-344.406	95.560	0.047	-0.053
-343.391	800.000	0.037	-0.149
-342.377	99.597	-0.176	-0.203
-341.362	312.840	0.122	-0.227
-340.348	-200.000	0.003	-0.163
-339.333	-200.000	0.036	0.193
-338.318	-23.600	-0.088	0.053
-337.304	204.196	-0.067	0.104
-336.289	-84.696	0.154	-0.048
-335.275	483.115	-0.076	0.172
-334.260	-188.178	-0.167	0.002
-333.245	800.000	0.085	-0.326
-332.231	22.643	0.001	-0.001
-331.216	-119.899	-0.137	-0.023
-330.202	-200.000	0.000	-0.041
-329.187	-10.563	-0.322	0.211
-328.172	557.974	-0.116	0.277
-327.158	277.270	0.103	0.182
-326.143	-97.081	0.340	-0.088
-325.129	141.221	-0.046	-0.061
-324.114	-200.000	0.000	-0.315
-323.099	-200.000	0.030	0.322
-322.085	800.000	-0.059	0.239
-321.070	415.957	-0.128	0.272
-320.056	-81.770	-0.141	0.046
-319.041	746.631	-0.074	0.197
-318.026	209.997	-0.145	0.226
-317.012	189.685	0.055	0.081
-315.997	171.257	0.040	-0.057
-314.983	24.712	0.171	0.140
-313.968	-88.317	-0.125	-0.037
-312.953	-118.349	-0.109	0.019
-311.939	-70.395	-0.173	-0.065
-310.924	11.559	0.155	0.118
-309.910	4.431	0.150	0.109
-308.895	-180.812	0.302	0.006
-307.880	-56.247	0.168	-0.074
-306.866	-200.000	0.039	0.173
-305.851	566.223	0.147	-0.355
-304.837	286.870	-0.105	-0.189
-303.822	-120.025	0.163	-0.028
-302.807	55.977	0.162	0.156
-301.793	112.832	-0.006	0.008
-300.778	-120.416	-0.067	0.011
-299.764	-91.413	0.107	0.030
-298.749	-57.873	-0.337	-0.146
-297.735	-71.713	-0.249	-0.092
-296.720	800.000	0.133	-0.385
-295.705	404.927	-0.039	-0.081
-294.691	94.665	-0.067	0.075
-293.676	-59.044	-0.255	0.109
-292.662	800.000	0.053	-0.193
-291.647	-27.392	-0.031	0.018
-290.632	800.000	-0.020	-0.062
-289.618	-10.761	-0.071	-0.046
-288.603	-23.275	-0.194	0.116
-287.589	-173.138	-0.104	0.003
-286.574	-200.000	0.107	0.478
-285.559	-125.134	0.165	0.025
-284.545	158.269	-0.086	-0.118
-283.530	-72.900	0.130	-0.047
-282.516	-200.000	0.016	-0.131
-281.501	363.951	0.102	0.204
-280.486	-112.762	-0.071	0.014
-279.472	11.557	-0.131	-0.099
-278.457	-200.000	0.010	-0.209
-277.443	-142.537	-0.317	-0.031
-276.428	-103.807	0.092	0.021
-275.413	-98.553	-0.310	-0.078
-274.399	426.002	-0.044	-0.094
-273.384	76.042	-0.180	0.189
-272.370	-169.472	0.119	0.004
-271.355	-200.000	-0.033	-0.186
-270.340	-200.000	-0.017	-0.120
-269.326	-115.911	-0.091	0.017
-268.311	-57.261	0.171	0.075
-267.297	-51.435	0.192	-0.089
-266.282	-44.574	-0.484	0.240
-265.267	-49.582	0.240	-0.113
-264.253	131.144	-0.154	0.196
-263.238	-38.021	0.308	-0.162
-262.224	272.804	0.323	-0.565
-261.209	205.926	0.178	0.275
-260.195	81.269	-0.204	-0.218
-259.180	-50.372	0.237	-0.111
-258.165	199.601	-0.279	-0.424
-257.151	800.000	-0.052	-0.179
-256.136	355.307	-0.235	0.463
-255.122	-5.287	0.094	-0.064
-254.107	800.000	-0.012	0.038
-253.092	607.818	0.106	0.262
-252.078	-106.952	0.215	0.047
-251.063	156.139	0.034	0.046
-250.049	-200.000	-0.053	0.410
-249.034	115.567	0.127	-0.154
-248.019	1.727	-0.055	0.039
-247.005	-200.000	0.061	0.355
-245.990	-72.768	0.193	-0.070
-244.976	-200.000	0.045	0.442
-243.961	-60.834	0.306	0.128
-242.946	689.302	-0.126	0.326
-241.932	800.000	0.038	0.149
-240.917	-200.000	-0.002	0.139
-239.903	800.000	-0.039	0.140
-238.888	5.746	-0.096	0.070
-237.873	46.160	0.105	0.096
-236.859	70.714	-0.069	-0.071
-235.844	3.939	0.047	-0.034
-234.830	-44.276	-0.254	0.126
-233.815	-106.951	-0.202	-0.044
-232.800	123.052	-0.092	0.114
-231.786	366.642	0.116	0.231
-230.771	23.157	0.287	-0.233
-229.757	117.136	-0.097	-0.118
-228.742	-40.589	0.096	-0.049
-227.727	217.708	-0.092	-0.145
-226.713	-66.707	-0.034	-0.013
-225.698	-107.766	-0.227	-0.049
-224.684	-20.657	0.203	-0.123
-223.669	-80.318	-0.231	-0.076
-222.655	-5.808	-0.194	-0.131
-221.640	2.296	-0.206	-0.147
-220.625	-200.000	0.091	0.428
-219.611	-170.066	-0.186	0.007
-218.596	-200.000	-0.012	-0.065
-217.582	-54.760	0.098	-0.044
-216.567	-34.636	-0.147	0.079
-215.552	381.178	0.034	-0.068
-214.538	-17.589	0.082	-0.051
-213.523	-200.000	-0.035	0.272
-212.509	800.000	-0.069	0.262
-211.494	-54.079	0.081	-0.037
-210.479	-200.000	0.030	0.136
-209.465	373.894	0.087	0.175
-208.450	139.178	-0.159	-0.207
-207.436	-103.082	0.156	0.036
-206.421	-103.597	-0.358	-0.083
-205.406	147.185	0.183	-0.244
-204.392	-97.148	-0.322	0.083
-203.377	46.393	0.171	-0.156
-202.363	-53.016	-0.063	0.029
-201.348	67.756	-0.153	0.155
-200.333	26.096	-0.216	-0.178
-199.319	-200.000	-0.009	0.174
-198.304	-200.000	0.018	0.189
-197.290	124.192	0.087	0.108
-196.275	425.398	-0.106	0.226
-195.260	-35.581	0.246	-0.132
-194.246	97.429	-0.254	-0.288
-193.231	22.637	0.201	-0.162
-192.217	21.674	0.111	0.089
-191.202	32.153	0.079	0.067
-190.187	-88.294	0.186	-0.055
-189.173	96.881	-0.247	0.280
-188.158	-137.857	0.453	0.050
-187.144	-152.556	-0.179	0.013
-186.129	-181.269	-0.313	0.006
-185.114	-71.617	0.132	0.049
-184.100	383.700	-0.133	0.271
-183.085	-116.395	0.025	0.005
-182.071	607.596	0.142	-0.349
-181.056	-106.741	0.163	0.036
-180.042	166.488	-0.034	-0.047
-179.027	-101.993	0.187	-0.044
-178.012	-16.265	-0.406	-0.255
-176.998	-124.614	0.093	0.014
-175.983	423.900	0.163	0.345
-174.969	-6.022	-0.109	-0.074
-173.954	29.537	-0.367	-0.308
-172.939	337.359	0.141	0.270
-171.925	-200.000	0.059	-0.266
-170.910	-181.809	0.157	0.003
-169.896	47.065	0.211	0.193
-168.881	-1.311	0.054	0.038
-167.866	572.390	0.127	-0.306
-166.852	-4.724	0.219	-0.149
-165.837	88.466	-0.192	-0.210
-164.823	647.663	0.024	0.061
-163.808	-23.762	-0.160	0.095
-162.793	273.852	-0.064	0.112
-161.779	104.339	0.226	0.263
-160.764	-200.000	0.024	-0.139
-159.750	-61.594	-0.231	-0.096
-158.735	117.560	0.125	0.152
-157.720	-200.000	-0.007	0.242
-156.706	-200.000	0.095	0.431
-155.691	-14.573	0.304	-0.193
-154.677	-57.636	0.181	0.078
-153.662	-71.803	0.114	-0.042
-152.647	-78.558	-0.146	-0.049
-151.633	-189.133	0.142	0.002
-150.618	15.500	-0.144	0.111
-149.604	-200.000	-0.034	-0.246
-148.589	80.636	-0.199	0.212
-147.574	-69.752	-0.101	-0.038
-146.560	36.433	-0.171	0.148
-145.545	-69.113	0.174	0.066
-144.531	-200.000	-0.029	-0.140
-143.516	-55.040	-0.057	-0.025
-142.502	0.214	-0.256	-0.180
-141.487	-124.768	0.229	-0.035
-140.472	-200.000	0.035	0.194
-139.458	734.011	0.046	0.123
-138.443	-200.000	-0.007	0.228
-137.429	800.000	0.111	0.470
-136.414	117.496	0.237	-0.288
-135.399	130.979	-0.217	-0.275
-134.385	-200.000	0.008	0.198
-133.370	399.961	-0.115	0.238
-132.356	-200.000	0.086	0.401
-131.341	-200.000	0.039	-0.209
-130.326	680.602	-0.054	-0.137
-129.312	-170.043	0.124	0.004
-128.297	40.751	0.080	-0.071
-127.283	-126.150	0.069	0.010
-126.268	31.934	0.123	0.104
-125.253	83.630	-0.162	-0.174
-124.239	-32.802	0.182	-0.099
-123.224	-71.728	-0.273	0.100
-122.210	-200.000	-0.051	0.283
-121.195	322.893	0.023	0.042
-120.180	162.174	-0.087	-0.120
-119.166	-6.838	0.283	0.189
-118.151	-200.000	0.016	0.203
-117.137	291.829	-0.033	-0.059
-116.122	410.263	0.064	-0.133
-115.107	226.557	-0.184	-0.294
-114.093	-200.000	0.005	-0.145
-113.078	204.093	0.076	0.116
-112.064	-100.701	0.128	0.031
-111.049	-74.669	0.182	-0.065
-110.034	-82.528	0.089	0.028
-109.020	139.407	-0.156	-0.202
-108.005	-30.644	0.164	-0.091
-106.991	4.082	0.182	0.131
-105.976	249.610	0.095	0.159
-104.962	-58.074	-0.208	-0.089
-103.947	23.283	-0.102	0.083
-102.932	-141.415	-0.213	0.021
-101.918	71.883	0.200	0.205
-100.903	-119.405	0.166	0.028
-99.889	337.165	-0.267	0.511
-98.874	-7.185	0.242	0.161
-97.859	46.642	0.186	0.170
-96.845	-97.337	0.038	0.010
-95.830	3.616	0.252	0.181
-94.816	-105.713	-0.191	0.043
-93.801	-200.000	0.012	-0.141
-92.786	-200.000	0.019	-0.102
-91.772	800.000	0.015	0.053
-90.757	48.642	0.132	0.122
-89.743	68.484	0.050	0.050
-88.728	-74.286	-0.159	0.057
-87.713	-63.630	0.248	0.100
-86.699	-76.002	-0.425	-0.148
-85.684	66.049	0.166	-0.166
-84.670	-200.000	-0.022	0.175
-83.655	275.890	-0.096	0.167
-82.640	71.375	-0.192	0.196
-81.626	101.596	0.121	-0.139
-80.611	-149.091	0.329	0.026
-79.597	-22.137	-0.344	0.205
-78.582	-200.000	0.030	0.337
-77.567	-19.453	0.088	0.054
-76.553	-108.092	0.413	-0.088
-75.538	104.435	-0.080	0.093
-74.524	800.000	0.046	-0.138
-73.509	-119.571	-0.359	-0.061
-72.494	438.552	-0.053	-0.113
-71.480	-57.124	-0.055	0.024
-70.465	132.596	0.092	-0.117
-69.451	-200.000	-0.040	-0.198
-68.436	19.514	-0.193	0.152
-67.422	149.320	0.045	0.060
-66.407	-120.567	0.122	-0.020
-65.392	-77.593	0.184	-0.063
-64.378	18.868	0.132	0.104
-63.363	-96.694	0.201	0.052
-62.349	-43.231	-0.060	-0.030
-61.334	77.574	-0.948	-0.992
-60.319	145.548	0.625	0.823
-59.305	800.000	-0.231	-0.913
-58.290	201.325	0.765	1.157
-57.276	709.018	0.540	1.404
-56.261	-200.000	96.136	592.973
-55.246	567.984	1371.910	3273.949
-54.232	160.586	2558.164	3507.575
-53.217	106.683	2270.543	2646.561
-52.203	41.585	1897.262	1687.757
-51.188	35.407	1686.737	1453.798
-50.173	32.752	1642.377	1395.886
-49.159	50.173	1689.678	1567.191
-48.144	51.815	1705.457	1594.082
-47.130	35.029	1666.294	1433.118
-46.115	32.250	1652.034	1400.133
-45.100	32.183	1646.819	1395.163
-44.086	32.038	1643.709	1391.394
-43.071	32.055	1641.176	1389.318
-42.057	31.996	1639.437	1387.358
-41.042	31.982	1637.657	1385.691
-40.027	32.052	1635.229	1384.098
-39.013	31.990	1633.347	1381.998
-37.998	31.908	1632.368	1380.507
-36.984	32.038	1630.699	1379.997
-35.969	32.123	1629.344	1379.419
-34.954	32.201	1627.482	1378.359
-33.940	32.079	1625.917	1376.086
-32.925	32.126	1624.116	1374.852
-31.911	32.110	1622.625	1373.418
-30.896	32.046	1621.123	1371.629
-29.881	32.046	1619.081	1369.845
-28.867	32.129	1617.241	1368.840
-27.852	32.087	1615.665	1367.142
-26.838	32.048	1614.503	1365.819
-25.823	32.226	1612.419	1365.300
-24.809	32.093	1611.693	1363.666
-23.794	32.170	1609.689	1362.471
-22.779	32.108	1608.534	1360.989
-21.765	32.152	1606.912	1359.884
-20.750	32.166	1605.474	1358.714
-19.736	32.195	1604.314	1357.885
-18.721	32.243	1602.609	1356.740
-17.706	32.219	1601.739	1355.771
-16.692	32.088	1599.952	1353.265
-15.677	32.172	1598.084	1352.234
-14.663	32.198	1596.633	1351.142
-13.648	32.125	1595.875	1349.917
-12.633	32.151	1594.266	1348.689
-11.619	32.197	1592.380	1347.375
-10.604	32.154	1591.355	1346.147
-9.590	32.189	1589.637	1344.890
-8.575	32.214	1588.314	1343.897
-7.560	32.162	1587.685	1342.935
-6.546	32.165	1586.367	1341.792
-5.531	32.189	1584.697	1340.499
-4.517	32.155	1583.605	1339.278
-3.502	32.162	1582.906	1338.683
-2.487	32.294	1580.747	1337.745
-1.473	31.994	1569.276	1325.861
-0.458	29.336	1550.551	1291.402
0.556	25.783	1551.496	1261.444
1.571	23.587	1574.922	1264.742
2.586	23.184	1588.384	1272.542
3.600	20.363	1533.874	1209.145
4.615	10.896	1422.439	1059.772
5.629	3.016	1357.365	962.032
6.644	1.749	1349.258	948.311
7.659	1.643	1347.863	946.592
8.673	1.475	1347.472	945.186
9.688	1.364	1345.215	942.829
10.702	1.198	1342.216	939.620
11.717	4.659	1349.304	966.016
12.731	14.767	1368.559	1043.123
13.746	23.348	1383.203	1108.105
14.761	25.795	1386.172	1125.704
15.775	26.064	1386.666	1127.685
16.790	26.292	1385.874	1128.363
17.804	26.362	1384.789	1127.821
18.819	26.607	1384.833	1129.281
19.834	26.702	1383.953	1129.058
20.848	26.678	1383.586	1128.512
21.863	26.666	1382.561	1127.501
22.877	26.659	1381.881	1126.798
23.892	26.743	1380.723	1126.279
24.907	26.693	1380.035	1125.304
25.921	26.633	1379.054	1124.036
26.936	26.742	1377.695	1123.503
27.950	26.703	1376.888	1122.508
28.965	26.773	1375.739	1121.900
29.980	26.670	1374.515	1120.171
30.994	26.617	1373.354	1118.797
32.009	26.584	1372.428	1117.738
33.023	26.719	1371.047	1117.349
34.038	26.711	1370.385	1116.662
35.053	26.670	1369.389	1115.498
36.067	26.776	1367.882	1114.820
37.082	26.682	1366.989	1113.420
38.096	26.832	1366.133	1113.543
39.111	26.730	1365.612	1112.393
40.126	26.714	1365.230	1111.886
41.140	26.735	1364.388	1111.230
42.155	26.743	1363.944	1110.822
43.169	26.704	1363.940	1110.477
44.184	26.701	1363.654	1110.130
45.199	26.718	1363.188	1109.759
46.213	26.665	1362.859	1109.065
47.228	26.642	1361.784	1107.952
48.242	26.676	1360.698	1107.176
49.257	26.668	1359.052	1105.693
50.271	26.658	1357.869	1104.569
51.286	26.679	1356.744	1103.686
52.301	26.671	1355.355	1102.411
53.315	26.675	1354.915	1101.977
54.330	26.695	1354.019	1101.272
55.344	26.675	1352.677	1099.961
56.359	26.697	1351.662	1099.175
57.374	26.658	1350.741	1098.090
58.388	26.651	1349.951	1097.308
59.403	26.691	1349.873	1097.392
60.417	26.743	1348.750	1096.699
61.432	26.692	1348.060	1095.731
62.447	26.833	1347.256	1095.834
63.461	26.661	1346.510	1094.092
64.476	26.746	1345.604	1093.769
65.490	26.662	1344.152	1091.986
66.505	26.687	1343.026	1091.127
67.520	26.718	1341.092	1089.645
68.534	26.664	1341.011	1089.158
69.549	26.714	1339.748	1088.335
70.563	26.737	1338.939	1087.721
71.578	26.725	1337.775	1086.609
72.593	26.735	1336.841	1085.813
73.607	26.713	1336.324	1085.163
74.622	26.818	1335.491	1085.019
75.636	26.786	1334.743	1084.123
76.651	26.781	1333.897	1083.310
77.666	26.748	1333.795	1082.933
78.680	26.712	1333.616	1082.478
79.695	26.633	1332.375	1080.907
80.709	26.617	1332.153	1080.531
81.724	26.751	1330.576	1079.957
82.739	26.684	1330.185	1079.146
83.753	26.689	1329.221	1078.300
84.768	26.813	1327.681	1077.691
85.782	26.669	1326.960	1076.152
86.797	26.655	1325.960	1075.167
87.812	26.685	1324.834	1074.331
88.826	26.792	1323.757	1073.998
89.841	26.795	1322.441	1072.853
90.855	26.684	1321.924	1071.684
91.870	26.826	1320.897	1071.598
92.884	26.821	1320.013	1070.753
93.899	26.712	1319.235	1069.384
94.914	26.788	1318.364	1069.032
95.928	26.790	1317.611	1068.341
96.943	26.754	1317.207	1067.707
97.957	26.726	1316.267	1066.682
98.972	26.776	1315.387	1066.168
99.987	26.801	1314.607	1065.588
101.001	26.706	1313.797	1064.282
102.016	26.610	1312.727	1062.758
103.030	26.737	1311.927	1062.760
104.045	26.709	1311.150	1061.875
105.060	26.733	1310.588	1061.462
106.074	26.816	1309.052	1060.609
107.089	26.798	1308.313	1059.811
108.103	26.840	1306.745	1058.697
109.118	26.791	1306.260	1057.925
110.133	26.790	1305.133	1056.910
111.147	26.853	1303.540	1055.896
112.162	26.856	1302.863	1055.269
113.176	26.835	1301.949	1054.311
114.191	26.812	1301.001	1053.316
115.206	26.785	1299.783	1052.083
116.220	26.832	1298.840	1051.499
117.235	26.906	1297.626	1050.851
118.249	26.813	1297.294	1049.949
119.264	26.830	1296.188	1049.060
120.279	26.905	1295.507	1048.854
121.293	26.972	1294.737	1048.524
122.308	26.880	1294.095	1047.377
123.322	26.807	1293.727	1046.568
124.337	26.893	1292.579	1046.039
125.352	27.012	1291.126	1045.458
126.366	26.900	1290.333	1044.078
127.381	26.755	1289.772	1042.699
128.395	26.914	1288.814	1042.743
129.410	27.043	1287.832	1042.597
130.424	26.986	1287.490	1041.902
131.439	26.832	1286.487	1040.115
132.454	26.885	1285.960	1039.903
133.468	26.945	1284.875	1039.275
134.483	26.864	1284.443	1038.372
135.497	26.859	1283.873	1037.790
136.512	26.880	1282.954	1037.076
137.527	26.983	1281.454	1036.356
138.541	26.926	1280.409	1035.100
139.556	26.804	1279.062	1033.219
140.570	26.932	1277.628	1032.702
141.585	26.877	1277.018	1031.805
142.600	26.919	1276.149	1031.247
143.614	26.943	1275.475	1030.751
144.629	26.843	1274.330	1029.163
145.643	26.727	1273.457	1027.709
146.658	26.796	1272.342	1027.108
147.673	26.821	1271.326	1026.344
148.687	26.810	1270.506	1025.527
149.702	26.807	1268.908	1024.128
150.716	26.882	1268.137	1023.840
151.731	26.800	1267.702	1022.936
152.746	26.834	1266.653	1022.187
153.760	26.928	1265.056	1021.339
154.775	26.887	1264.154	1020.288
155.789	26.806	1263.414	1019.147
156.804	26.743	1263.012	1018.377
157.819	26.804	1262.044	1017.853
158.833	26.868	1261.182	1017.427
159.848	26.926	1260.527	1017.134
160.862	26.934	1259.788	1016.487
161.877	26.826	1259.467	1015.537
162.892	26.922	1258.142	1014.915
163.906	26.957	1257.315	1014.356
164.921	27.043	1256.252	1013.889
165.935	27.054	1255.769	1013.470
166.950	27.005	1255.314	1012.738
167.964	27.092	1254.363	1012.364
168.979	27.151	1253.956	1012.274
169.994	27.006	1253.567	1011.065
171.008	27.012	1252.581	1010.216
172.023	27.007	1252.239	1009.820
173.037	26.940	1251.767	1008.980
174.052	26.937	1250.770	1008.067
175.067	27.006	1249.565	1007.393
176.081	27.133	1248.666	1007.285
177.096	26.896	1248.762	1005.958
178.110	27.005	1247.223	1005.233
179.125	27.088	1246.221	1004.794
180.140	27.001	1245.668	1003.778
181.154	27.089	1244.529	1003.259
182.169	26.913	1243.581	1001.435
183.183	27.005	1242.189	1000.731
184.198	26.945	1241.370	999.650
185.213	27.178	1240.197	999.899
186.227	27.095	1239.384	998.703
187.242	27.047	1238.749	997.836
188.256	27.133	1237.508	997.218
189.271	27.071	1237.102	996.465
190.286	27.096	1236.383	995.937
191.300	27.063	1235.843	995.232
192.315	26.965	1235.520	994.345
193.329	27.074	1234.944	994.394
194.344	27.067	1234.757	994.115
195.359	27.182	1233.685	993.793
196.373	27.010	1233.470	992.589
197.388	26.974	1233.223	992.107
198.402	26.901	1233.027	991.461
199.417	27.153	1232.216	992.099
200.432	27.096	1231.502	991.126
201.446	26.982	1231.207	990.178
202.461	27.128	1229.897	989.834
203.475	27.074	1229.302	988.972
204.490	27.108	1228.068	988.077
205.504	27.112	1227.476	987.534
206.519	27.205	1226.662	987.296
207.534	27.125	1225.705	986.004
208.548	27.172	1224.551	985.247
209.563	27.149	1224.133	984.696
210.577	27.247	1223.359	984.515
211.592	27.255	1222.101	983.462
212.607	27.187	1222.024	982.946
213.621	27.242	1220.968	982.305
214.636	27.296	1220.050	981.773
215.650	27.255	1219.376	980.924
216.665	27.168	1218.658	979.788
217.680	27.216	1217.480	979.010
218.694	27.216	1216.772	978.359
219.709	27.304	1215.766	977.935
220.723	27.314	1215.196	977.441
221.738	27.256	1214.844	976.762
222.753	27.320	1213.655	976.065
223.767	27.280	1212.961	975.206
224.782	27.386	1212.721	975.494
225.796	27.388	1212.315	975.092
226.811	27.312	1211.795	974.179
227.826	27.425	1210.948	974.017
228.840	27.299	1210.579	972.959
229.855	27.250	1209.808	971.992
230.869	27.418	1208.967	972.129
231.884	27.295	1208.691	971.163
232.899	27.257	1208.131	970.423
233.913	27.275	1207.569	969.982
234.928	27.374	1206.928	969.907
235.942	27.352	1206.167	969.094
236.957	27.328	1205.422	968.282
237.972	27.473	1204.560	968.277
238.986	27.479	1204.015	967.783
240.001	27.402	1203.658	967.000
241.015	27.383	1202.758	966.095
242.030	27.526	1201.648	965.875
243.045	27.674	1200.773	965.872
244.059	27.565	1199.844	964.460
245.074	27.516	1199.918	964.172
246.088	27.529	1198.755	963.225
247.103	27.582	1197.879	962.715
248.117	27.564	1197.007	961.834
249.132	27.571	1196.221	961.156
250.147	27.528	1196.066	960.719
251.161	27.517	1195.199	959.878
252.176	27.573	1194.314	959.376
253.190	27.559	1193.989	958.956
254.205	27.596	1193.160	958.401
255.220	27.511	1192.983	957.726
256.234	27.489	1192.478	957.122
257.249	27.578	1191.853	957.005
258.263	27.610	1190.812	956.249
259.278	27.584	1190.718	955.954
260.293	27.564	1190.169	955.322
261.307	27.612	1189.696	955.110
262.322	27.698	1188.606	954.602
263.336	27.607	1188.006	953.557
264.351	27.650	1187.448	953.251
265.366	27.629	1186.846	952.576
266.380	27.773	1185.602	952.243
267.395	27.622	1185.181	951.030
268.409	27.592	1184.846	950.526
269.424	27.635	1184.187	950.135
270.439	27.559	1184.261	949.711
271.453	27.642	1183.327	949.311
272.468	27.708	1182.306	948.755
273.482	27.706	1181.198	947.772
274.497	27.639	1181.488	947.572
275.512	27.724	1180.815	947.386
276.526	27.590	1180.321	946.210
277.541	27.706	1179.214	945.843
278.555	27.812	1178.672	945.872
279.570	27.694	1177.968	944.615
280.585	27.674	1177.281	943.875
281.599	27.693	1176.459	943.234
282.614	27.741	1175.735	942.815
283.628	27.716	1174.768	941.826
284.643	27.878	1173.286	941.394
285.657	27.771	1173.108	940.616
286.672	27.828	1172.084	940.003
287.687	27.903	1171.403	939.761
288.701	27.896	1170.701	939.077
289.716	27.918	1170.051	938.584
290.730	27.894	1169.235	937.727
291.745	27.794	1168.939	936.889
292.760	27.978	1168.100	937.080
293.774	27.851	1168.275	936.484
294.789	27.800	1167.448	935.481
295.803	27.851	1166.787	935.129
296.818	27.970	1165.726	934.802
297.833	28.006	1165.157	934.448
298.847	27.966	1164.791	933.870
299.862	28.015	1163.629	933.103
300.876	27.927	1163.478	932.448
301.891	28.092	1162.380	932.328
302.906	27.942	1162.164	931.311
303.920	28.063	1161.226	931.092
304.935	28.122	1160.574	930.785
305.949	28.121	1159.738	930.030
306.964	28.126	1159.336	929.650
307.979	28.085	1158.914	929.018
308.993	28.016	1158.321	928.111
310.008	28.216	1157.220	928.160
311.022	28.244	1156.322	927.500
312.037	28.104	1156.015	926.465
313.052	28.112	1154.913	925.539
314.066	28.049	1154.452	924.772
315.081	28.074	1153.738	924.240
316.095	28.058	1153.205	923.655
317.110	28.013	1152.623	922.878
318.125	28.127	1151.532	922.499
319.139	28.066	1151.190	921.836
320.154	28.211	1150.322	921.788
321.168	28.231	1149.957	921.513
322.183	28.036	1149.673	920.225
323.197	28.155	1148.816	920.053
324.212	28.194	1148.184	919.661
325.227	28.254	1147.681	919.481
326.241	28.302	1147.148	919.210
327.256	28.255	1146.562	918.425
328.270	28.070	1145.989	916.960
329.285	28.209	1145.072	916.839
330.300	28.357	1143.720	916.414
331.314	28.356	1142.953	915.718
332.329	28.216	1142.769	914.786
333.343	28.269	1141.834	914.221
334.358	28.419	1140.970	914.199
335.373	28.351	1140.422	913.342
336.387	28.356	1140.229	913.131
337.402	28.348	1139.228	912.206
338.416	28.322	1138.697	911.573
339.431	28.457	1138.046	911.642
340.446	28.443	1137.376	910.953
341.460	28.531	1136.802	910.851
342.475	28.516	1135.653	909.778
343.489	28.420	1134.945	908.653
344.504	28.394	1133.901	907.605
345.519	28.456	1133.415	907.446
346.533	28.493	1132.325	906.675
347.548	28.547	1131.757	906.405
348.562	28.526	1131.118	905.712
349.577	28.495	1130.295	904.817
350.592	28.461	1129.653	904.058
351.606	28.497	1129.036	903.659
352.621	28.550	1128.492	903.405
353.635	28.529	1127.878	902.729
354.650	28.436	1127.596	901.968
355.665	28.489	1126.837	901.543
356.679	28.602	1126.332	901.612
357.694	28.576	1125.540	900.773
358.708	28.568	1124.877	900.123
359.723	28.542	1124.241	899.407
360.738	28.548	1123.207	898.528
361.752	28.623	1123.094	898.727
362.767	28.573	1122.896	898.241
363.781	28.694	1122.023	898.057
364.796	28.676	1121.271	897.289
365.810	28.683	1121.145	897.143
366.825	28.815	1120.219	896.965
367.840	28.767	1119.965	896.447
368.854	28.749	1119.400	895.829
369.869	28.684	1118.035	894.340
370.883	28.745	1117.582	894.196
371.898	28.705	1116.999	893.456
372.913	28.794	1115.995	893.009
373.927	28.872	1115.770	893.129
374.942	28.904	1115.332	892.851
375.956	28.849	1114.911	892.170
376.971	28.774	1114.481	891.384
377.986	28.849	1113.633	890.988
379.000	28.876	1113.265	890.746
380.015	29.001	1112.170	890.399
381.029	28.921	1111.877	889.699
382.044	28.878	1111.425	889.049
383.059	28.923	1110.721	888.622
384.073	28.866	1109.904	887.616
385.088	29.016	1108.926	887.479
386.102	28.984	1108.342	886.779
387.117	28.853	1107.721	885.570
388.132	28.942	1106.692	885.098
389.146	28.918	1106.303	884.594
390.161	29.074	1105.209	884.392
391.175	28.877	1105.243	883.392
392.190	29.033	1104.249	883.270
393.205	28.939	1103.812	882.390
394.219	28.976	1103.147	881.959
395.234	29.036	1102.061	881.299
396.248	29.032	1101.531	880.778
397.263	29.063	1100.639	880.137
398.278	29.127	1100.378	880.157
399.292	29.219	1099.393	879.729
400.307	29.088	1098.704	878.474
401.321	29.300	1098.156	878.970
402.336	29.065	1097.733	877.433
403.350	29.176	1097.098	877.379
404.365	29.190	1096.376	876.789
405.380	29.144	1095.515	875.803
406.394	29.094	1094.921	875.014
407.409	29.284	1093.922	875.041
408.423	29.324	1093.260	874.624
409.438	29.281	1092.749	873.933
410.453	29.251	1091.959	873.084
411.467	29.234	1091.575	872.615
412.482	29.209	1090.734	871.747
413.496	29.169	1090.445	871.250
414.511	29.382	1089.734	871.611
415.526	29.230	1089.687	870.782
416.540	29.242	1088.788	870.040
417.555	29.406	1088.043	870.143
418.569	29.289	1087.884	869.387
419.584	29.355	1087.415	869.249
420.599	29.383	1086.899	868.891
421.613	103.488	1322.353	1459.615
422.628	96.357	1356.613	1459.710
