DTS Sentinel unit serial number:	SN413079Multiplexer serial number:	ORYXHardware model number:	OX4-SRSoftware version number:	ORYX F/W v4.00 Oryx Data Collector v3.7.2.0data status	okinstallation	princeton_trtdifferential loss correction	single-endedforward channel	channel 2reverse channel	N/Adate	2019/09/13time	18:47:35forward acquisition time	60.00reverse acquisition time	0.00gamma	496.2192k internal	0.2324k external	0.2324temperature offset calibration	1.0183default loss term (dB/km)	0.3790temperature slope calibration	1.0000multiplexer offset coefficient	1.0000multiplexer slope coefficient	1.0000fibre end	0.00T internal ref (°C)	32.53T ext. ref 1 (°C)	4.08T ext. ref 2 (°C)	25.73length (m)	temperature (°C)	Stokes	anti-Stokes-747.200	337.950	0.131	-0.258
-746.185	-58.853	0.385	-0.168
-745.171	-200.000	-0.058	-0.265
-744.156	455.561	0.097	0.217
-743.142	-88.898	0.128	-0.038
-742.127	26.259	-0.184	0.155
-741.112	800.000	0.150	0.485
-740.098	-200.000	-0.023	0.353
-739.083	800.000	0.054	-0.177
-738.069	22.329	0.099	0.082
-737.054	5.495	0.209	-0.156
-736.039	344.353	-0.159	0.315
-735.025	51.057	0.043	0.041
-734.010	-77.130	-0.122	-0.043
-732.996	279.651	0.230	-0.414
-731.981	-40.869	-0.301	0.157
-730.966	-200.000	0.031	0.146
-729.952	-91.355	-0.230	0.066
-728.937	269.475	-0.174	0.308
-727.923	-78.290	0.150	-0.052
-726.908	160.035	-0.030	0.043
-725.894	93.268	-0.263	-0.300
-724.879	-114.798	-0.033	0.006
-723.864	57.219	0.116	0.114
-722.850	-24.261	0.271	-0.163
-721.835	-10.969	0.102	0.068
-720.821	800.000	0.082	0.235
-719.806	67.191	-0.129	-0.132
-718.791	-80.846	-0.138	-0.046
-717.777	45.751	0.088	0.082
-716.762	27.925	0.198	0.169
-715.748	-39.503	-0.111	-0.059
-714.733	-102.527	-0.264	-0.064
-713.718	-86.260	-0.220	-0.068
-712.704	-4.531	-0.289	0.201
-711.689	524.080	0.107	-0.254
-710.675	-147.111	0.213	-0.018
-709.660	50.838	0.323	0.309
-708.645	464.153	0.149	0.335
-707.631	288.597	-0.107	-0.196
-706.616	-200.000	-0.016	-0.105
-705.602	143.846	0.165	-0.222
-704.587	64.680	-0.049	-0.050
-703.572	40.698	0.030	0.027
-702.558	-1.177	0.149	0.106
-701.543	800.000	-0.036	0.110
-700.529	-143.964	-0.336	-0.032
-699.514	-109.348	-0.256	-0.055
-698.499	18.642	-0.155	-0.125
-697.485	240.323	0.336	0.565
-696.470	288.679	0.191	0.349
-695.456	-200.000	0.011	-0.091
-694.441	-125.994	0.130	0.020
-693.426	-134.182	0.250	-0.031
-692.412	-81.358	0.189	-0.063
-691.397	-86.633	-0.245	-0.076
-690.383	-200.000	0.032	0.342
-689.368	-24.164	-0.055	0.033
-688.354	-111.739	0.134	0.027
-687.339	800.000	-0.044	-0.163
-686.324	66.379	0.144	0.147
-685.310	-22.539	-0.055	-0.034
-684.295	443.298	0.054	0.119
-683.281	800.000	-0.154	-0.563
-682.266	-84.471	-0.098	-0.031
-681.251	141.009	-0.152	-0.202
-680.237	-172.716	0.464	-0.015
-679.222	54.480	-0.196	-0.190
-678.208	525.099	0.106	-0.251
-677.193	-200.000	0.021	-0.103
-676.178	-63.346	0.276	-0.114
-675.164	146.487	-0.124	-0.168
-674.149	89.732	-0.004	-0.005
-673.135	270.090	-0.073	0.128
-672.120	-7.299	-0.188	-0.128
-671.105	567.253	0.111	-0.271
-670.091	-10.268	-0.112	-0.075
-669.076	-114.170	-0.171	-0.033
-668.062	-1.663	0.109	0.077
-667.047	-200.000	-0.001	0.217
-666.032	-150.482	0.089	0.007
-665.018	-103.626	0.205	-0.048
-664.003	167.708	0.152	0.218
-662.989	800.000	-0.102	0.328
-661.974	451.268	0.077	-0.170
-660.959	-17.548	-0.199	-0.126
-659.945	111.196	0.268	0.325
-658.930	800.000	0.132	0.393
-657.916	32.731	-0.155	-0.135
-656.901	8.276	-0.084	-0.063
-655.886	-50.955	0.348	-0.164
-654.872	-39.324	0.403	-0.213
-653.857	-73.239	-0.150	-0.055
-652.843	-89.237	-0.258	0.077
-651.828	776.752	-0.026	-0.071
-650.814	-107.196	0.240	0.053
-649.799	-178.884	-0.056	-0.001
-648.784	-28.315	0.189	-0.110
-647.770	-200.000	-0.054	-0.278
-646.755	97.678	0.029	-0.034
-645.741	-200.000	-0.037	-0.282
-644.726	-200.000	-0.003	0.225
-643.711	-200.000	0.009	0.299
-642.697	159.099	0.211	-0.294
-641.682	800.000	-0.049	0.156
-640.668	800.000	-0.023	-0.079
-639.653	-114.177	-0.176	0.034
-638.638	-122.138	0.101	-0.017
-637.624	800.000	-0.028	-0.120
-636.609	1.392	0.145	0.105
-635.595	150.262	0.049	-0.067
-634.580	-40.788	0.162	0.084
-633.565	-41.738	0.210	0.108
-632.551	800.000	0.074	0.265
-631.536	-68.201	-0.164	0.064
-630.522	-58.293	0.169	-0.074
-629.507	800.000	-0.031	-0.124
-628.492	-93.716	-0.162	0.045
-627.478	202.000	0.129	0.201
-626.463	26.158	-0.220	-0.185
-625.449	210.169	0.262	-0.413
-624.434	-43.810	0.149	0.075
-623.419	-121.793	0.050	0.008
-622.405	22.257	-0.313	-0.257
-621.390	713.115	0.083	-0.221
-620.376	800.000	0.048	-0.194
-619.361	-15.072	0.189	-0.122
-618.346	-64.487	-0.094	-0.038
-617.332	555.160	0.072	0.175
-616.317	-141.820	-0.351	0.035
-615.303	414.435	-0.152	0.326
-614.288	-127.879	-0.211	0.031
-613.273	663.484	-0.118	-0.305
-612.259	800.000	0.089	-0.303
-611.244	-4.555	0.219	0.152
-610.230	23.880	-0.173	0.143
-609.215	800.000	-0.010	-0.032
-608.201	-200.000	-0.051	0.323
-607.186	-168.963	-0.215	0.008
-606.171	-164.878	0.122	-0.005
-605.157	155.778	-0.089	0.123
-604.142	183.176	-0.105	0.155
-603.128	800.000	-0.021	0.071
-602.113	711.146	0.092	0.245
-601.098	-100.811	-0.159	0.039
-600.084	15.158	-0.255	-0.201
-599.069	-105.308	0.173	-0.040
-598.055	-7.038	0.192	0.131
-597.040	-194.919	0.410	0.003
-596.025	-26.040	-0.071	0.042
-595.011	-182.919	-0.152	0.003
-593.996	169.360	-0.117	-0.168
-592.982	-22.529	0.082	-0.050
-591.967	-103.530	0.231	0.054
-590.952	-200.000	-0.055	-0.282
-589.938	29.327	-0.125	-0.107
-588.923	-153.892	0.083	0.006
-587.909	296.875	-0.070	0.128
-586.894	736.013	-0.073	-0.195
-585.879	453.828	0.101	0.225
-584.865	-200.000	-0.010	-0.127
-583.850	-200.000	-0.045	-0.220
-582.836	-16.882	0.218	-0.138
-581.821	-38.874	0.274	-0.145
-580.806	401.680	0.121	-0.255
-579.792	-31.432	-0.102	-0.058
-578.777	111.029	0.086	-0.103
-577.763	-200.000	-0.004	0.365
-576.748	266.864	0.119	-0.208
-575.733	-200.000	-0.063	-0.306
-574.719	-195.171	-0.575	0.004
-573.704	252.035	0.093	-0.159
-572.690	113.212	-0.120	-0.146
-571.675	-200.000	0.001	-0.077
-570.661	157.000	-0.057	-0.079
-569.646	800.000	-0.138	-0.469
-568.631	111.601	-0.120	-0.145
-567.617	-82.037	-0.014	-0.005
-566.602	-47.645	0.093	0.045
-565.588	87.906	0.194	0.216
-564.573	-133.490	0.268	-0.034
-563.558	800.000	-0.054	0.158
-562.544	177.747	0.092	-0.134
-561.529	58.412	0.269	-0.264
-560.515	-200.000	0.013	-0.258
-559.500	-23.314	0.081	0.049
-558.485	-200.000	0.213	-0.001
-557.471	-138.528	0.096	-0.011
-556.456	10.524	-0.212	0.162
-555.442	-200.000	0.005	0.321
-554.427	-30.290	0.218	-0.124
-553.412	315.380	-0.155	-0.293
-552.398	111.697	0.251	0.303
-551.383	-9.181	-0.150	-0.100
-550.369	-92.938	0.098	-0.028
-549.354	-136.009	-0.079	0.009
-548.339	16.253	0.224	0.177
-547.325	628.465	-0.132	0.334
-546.310	-19.870	0.180	0.111
-545.296	-141.157	-0.629	-0.064
-544.281	32.618	0.020	0.018
-543.266	11.484	-0.388	-0.298
-542.252	62.937	-0.215	-0.216
-541.237	166.516	-0.213	0.302
-540.223	-6.917	0.268	0.182
-539.208	118.078	-0.081	-0.100
-538.193	-112.075	-0.138	-0.028
-537.179	25.982	0.111	0.093
-536.164	-118.692	0.073	0.013
-535.150	-32.124	-0.292	-0.163
-534.135	-200.000	-0.037	0.186
-533.121	-145.500	0.229	0.021
-532.106	-126.660	0.325	-0.048
-531.091	-89.099	0.236	-0.070
-530.077	-109.730	-0.160	-0.034
-529.062	91.051	-0.147	0.165
-528.048	-200.000	0.005	0.069
-527.033	-200.000	-0.211	0.001
-526.018	-115.810	-0.169	-0.032
-525.004	800.000	-0.109	0.341
-523.989	-200.000	-0.219	0.000
-522.975	39.147	0.042	0.037
-521.960	-39.446	0.361	-0.189
-520.945	86.388	0.233	-0.257
-519.931	-38.902	-0.214	-0.113
-518.916	336.046	0.091	0.176
-517.902	123.580	0.113	0.142
-516.887	800.000	-0.054	0.182
-515.872	340.897	-0.083	0.162
-514.858	-200.000	-0.025	-0.424
-513.843	102.083	0.260	0.304
-512.829	-133.420	-0.152	-0.019
-511.814	-86.306	-0.308	0.095
-510.799	143.354	-0.074	0.099
-509.785	-103.666	-0.145	-0.034
-508.770	-200.000	-0.011	-0.151
-507.756	-200.000	-0.009	0.198
-506.741	16.922	-0.184	0.146
-505.726	104.394	-0.189	0.223
-504.712	-200.000	-0.002	0.099
-503.697	-41.378	-0.228	-0.118
-502.683	-160.443	0.390	-0.021
-501.668	-40.287	-0.260	0.135
-500.653	-57.160	0.307	0.135
-499.639	465.281	0.047	0.104
-498.624	173.632	-0.160	-0.231
-497.610	-183.696	-0.281	0.005
-496.595	-200.000	-0.358	0.001
-495.581	-200.000	-0.055	-0.469
-494.566	18.163	0.155	0.124
-493.551	254.854	-0.041	0.069
-492.537	-30.399	0.242	0.137
-491.522	112.799	-0.123	0.148
-490.508	486.256	0.168	0.383
-489.493	128.339	-0.071	-0.090
-488.478	800.000	0.028	0.095
-487.464	-200.000	-0.010	-0.141
-486.449	29.361	-0.022	-0.019
-485.435	-30.022	-0.117	0.067
-484.420	70.447	-0.119	-0.123
-483.405	52.136	0.057	-0.054
-482.391	800.000	-0.102	-0.285
-481.376	-76.268	0.460	0.162
-480.362	137.858	0.098	0.129
-479.347	-57.000	-0.195	-0.086
-478.332	800.000	-0.097	-0.288
-477.318	174.836	0.080	-0.115
-476.303	-200.000	0.041	0.243
-475.289	-200.000	-0.074	0.384
-474.274	134.443	-0.143	0.185
-473.259	238.374	-0.093	-0.154
-472.245	-47.475	0.547	0.265
-471.230	-94.827	-0.205	0.055
-470.216	-200.000	-0.024	0.175
-469.201	182.000	0.177	0.260
-468.186	76.681	-0.137	0.145
-467.172	800.000	-0.039	0.156
-466.157	800.000	-0.030	0.096
-465.143	-61.161	-0.324	0.137
-464.128	648.977	-0.134	-0.341
-463.113	77.195	-0.207	-0.220
-462.099	-44.170	0.200	-0.100
-461.084	-12.558	0.239	0.156
-460.070	-9.743	-0.114	-0.075
-459.055	-95.720	-0.159	-0.043
-458.040	-41.583	0.094	0.048
-457.026	-80.280	-0.082	-0.027
-456.011	190.497	-0.137	-0.205
-454.997	31.503	-0.204	-0.175
-453.982	-164.670	0.365	0.016
-452.968	800.000	0.101	-0.339
-451.953	67.029	0.084	-0.085
-450.938	800.000	0.125	-0.360
-449.924	-200.000	0.026	0.121
-448.909	513.304	0.147	-0.341
-447.895	-42.215	0.206	-0.105
-446.880	17.467	0.294	0.233
-445.865	-83.148	0.218	-0.070
-444.851	-200.000	0.014	0.193
-443.836	28.330	0.085	0.072
-442.822	-54.605	0.315	-0.142
-441.807	287.731	0.043	-0.078
-440.792	44.223	0.116	-0.106
-439.778	200.133	0.097	-0.148
-438.763	-200.000	-0.019	-0.091
-437.749	63.821	0.175	0.175
-436.734	478.457	0.109	-0.246
-435.719	-200.000	0.017	-0.212
-434.705	-16.264	-0.030	-0.019
-433.690	-200.000	-0.004	-0.129
-432.676	-49.980	-0.173	0.082
-431.661	-77.535	0.073	-0.025
-430.646	234.291	0.141	0.232
-429.632	-200.000	0.029	-0.354
-428.617	577.597	0.087	0.211
-427.603	-200.000	0.022	-0.172
-426.588	41.890	-0.281	0.254
-425.573	-36.520	0.161	-0.087
-424.559	89.226	-0.097	0.108
-423.544	-83.554	-0.153	-0.049
-422.530	-164.684	0.249	-0.011
-421.515	27.050	0.240	-0.200
-420.500	-93.191	-0.248	0.069
-419.486	-66.253	0.497	0.197
-418.471	44.316	-0.172	0.157
-417.457	38.968	-0.217	0.194
-416.442	-200.000	0.022	0.152
-415.428	800.000	-0.089	0.331
-414.413	-200.000	0.001	-0.168
-413.398	153.726	0.131	-0.179
-412.384	800.000	0.094	0.260
-411.369	30.570	0.177	-0.151
-410.355	-92.462	-0.249	-0.070
-409.340	-107.537	0.139	-0.030
-408.325	-200.000	0.016	-0.173
-407.311	217.319	0.086	0.136
-406.296	-200.000	-0.058	-0.324
-405.282	53.600	-0.025	-0.024
-404.267	-200.000	0.050	-0.444
-403.252	-3.628	-0.050	0.035
-402.238	-31.730	0.155	0.087
-401.223	-123.132	-0.092	-0.015
-400.209	222.435	-0.193	-0.310
-399.194	-200.000	-0.052	0.382
-398.179	78.820	-0.176	-0.187
-397.165	-200.000	-0.005	-0.269
-396.150	-200.000	0.150	-0.000
-395.136	-166.949	0.189	-0.008
-394.121	-78.985	-0.245	-0.083
-393.106	800.000	-0.069	0.284
-392.092	-112.776	0.035	-0.007
-391.077	-106.832	-0.108	0.024
-390.063	24.422	-0.114	-0.094
-389.048	433.006	0.019	0.040
-388.033	140.958	-0.016	-0.021
-387.019	-200.000	0.053	0.260
-386.004	95.290	0.077	-0.087
-384.990	155.402	-0.152	-0.208
-383.975	800.000	0.044	-0.145
-382.960	606.788	-0.152	-0.376
-381.946	-71.256	0.187	-0.070
-380.931	-123.838	-0.223	0.035
-379.917	-200.000	-0.053	-0.251
-378.902	295.854	0.084	-0.153
-377.888	34.543	0.091	0.079
-376.873	-200.000	0.042	-0.350
-375.858	-54.120	-0.081	-0.037
-374.844	-42.377	0.178	-0.090
-373.829	581.209	0.044	-0.106
-372.815	148.897	-0.063	0.085
-371.800	69.176	-0.061	-0.063
-370.785	-145.091	0.239	0.022
-369.771	251.758	-0.111	-0.188
-368.756	410.939	0.085	-0.179
-367.742	-200.000	0.033	-0.219
-366.727	-111.393	0.094	0.019
-365.712	73.998	-0.308	0.321
-364.698	800.000	-0.062	-0.239
-363.683	107.115	-0.162	0.191
-362.669	-200.000	-0.008	-0.095
-361.654	-97.029	-0.384	-0.100
-360.639	-49.714	0.247	-0.117
-359.625	10.019	-0.232	-0.176
-358.610	-200.000	0.005	0.059
-357.596	226.090	-0.127	0.205
-356.581	-200.000	-0.012	0.177
-355.566	-22.886	0.322	0.193
-354.552	-158.779	-0.180	0.010
-353.537	95.183	0.300	0.340
-352.523	-162.721	0.231	-0.011
-351.508	223.771	-0.031	0.050
-350.493	-200.000	0.005	0.102
-349.479	-138.758	-0.383	0.042
-348.464	-200.000	0.040	0.190
-347.450	800.000	-0.018	0.069
-346.435	5.741	0.193	-0.142
-345.420	23.889	0.236	-0.193
-344.406	617.461	0.057	-0.143
-343.391	-89.837	-0.232	0.068
-342.377	-152.595	0.303	-0.021
-341.362	-49.925	0.037	0.017
-340.348	516.430	-0.037	0.087
-339.333	-200.000	0.069	0.309
-338.318	-24.098	0.306	0.182
-337.304	-200.000	0.018	0.152
-336.289	-72.525	0.211	0.078
-335.275	-168.790	-0.386	-0.014
-334.260	63.410	-0.104	-0.104
-333.245	799.682	-0.063	-0.172
-332.231	-107.493	0.287	0.062
-331.216	350.475	0.168	-0.331
-330.202	800.000	-0.131	0.393
-329.187	800.000	-0.048	-0.152
-328.172	427.371	-0.149	0.318
-327.158	-80.679	-0.196	0.065
-326.143	507.327	-0.044	0.102
-325.129	373.414	0.081	0.163
-324.114	-55.593	-0.243	0.108
-323.099	-47.420	0.139	0.067
-322.085	27.146	0.217	0.181
-321.070	-3.353	-0.103	-0.071
-320.056	-200.000	-0.017	-0.216
-319.041	800.000	-0.062	-0.187
-318.026	610.654	0.084	-0.207
-317.012	-200.000	0.008	-0.320
-315.997	-53.189	-0.374	-0.171
-314.983	-200.000	0.006	-0.059
-313.968	-84.039	-0.127	0.040
-312.953	20.357	0.023	0.018
-311.939	25.997	0.104	0.086
-310.924	8.135	-0.194	-0.145
-309.910	33.878	0.292	0.252
-308.895	43.092	-0.263	0.238
-307.880	278.645	-0.050	0.089
-306.866	7.655	-0.177	0.131
-305.851	-200.000	-0.054	-0.345
-304.837	800.000	0.080	0.306
-303.822	196.129	0.227	0.343
-302.807	-35.852	0.293	-0.157
-301.793	261.584	-0.116	0.199
-300.778	800.000	-0.087	-0.256
-299.764	507.372	-0.152	-0.351
-298.749	55.550	-0.223	-0.215
-297.735	800.000	-0.062	0.224
-296.720	-7.234	0.130	-0.087
-295.705	-62.354	0.074	-0.030
-294.691	16.036	-0.484	0.378
-293.676	79.626	-0.130	0.138
-292.662	-72.153	0.231	0.085
-291.647	-200.000	-0.072	0.336
-290.632	-200.000	-0.004	0.291
-289.618	34.642	-0.079	0.069
-288.603	275.109	-0.078	0.136
-287.589	800.000	0.056	0.189
-286.574	-200.000	-0.015	0.319
-285.559	496.677	-0.067	-0.152
-284.545	-27.540	-0.160	-0.092
-283.530	298.936	-0.135	-0.247
-282.516	-200.000	0.005	-0.103
-281.501	-61.318	0.109	-0.046
-280.486	-48.161	0.243	0.116
-279.472	18.416	-0.189	0.150
-278.457	-146.224	0.108	0.009
-277.443	-100.551	-0.176	-0.043
-276.428	-73.256	0.241	0.087
-275.413	-158.483	-0.189	0.011
-274.399	-94.937	-0.039	0.011
-273.384	-109.821	-0.300	0.062
-272.370	-38.538	0.214	-0.112
-271.355	-98.164	0.182	-0.046
-270.340	732.155	-0.162	-0.430
-269.326	-104.258	0.065	0.015
-268.311	-200.000	-0.001	0.365
-267.297	-124.952	-0.214	0.033
-266.282	-25.134	0.287	0.169
-265.267	617.547	-0.036	0.089
-264.253	60.967	0.133	-0.130
-263.238	-102.703	-0.259	-0.061
-262.224	19.482	-0.172	0.137
-261.209	-34.799	-0.100	-0.054
-260.195	-150.993	-0.052	0.004
-259.180	-200.000	-0.019	-0.089
-258.165	148.535	0.199	0.266
-257.151	-128.766	-0.175	0.024
-256.136	-141.972	0.286	0.028
-255.122	-68.223	-0.065	-0.025
-254.107	800.000	-0.096	0.278
-253.092	-91.242	0.153	0.043
-252.078	167.756	0.243	-0.342
-251.063	-200.000	-0.012	0.130
-250.049	86.146	0.057	0.062
-249.034	58.299	0.129	-0.125
-248.019	-200.000	0.035	0.224
-247.005	-200.000	-0.026	0.172
-245.990	193.419	0.178	-0.267
-244.976	-137.416	-0.257	0.029
-243.961	-51.838	-0.246	0.113
-242.946	-48.789	-0.164	0.078
-241.932	85.973	0.097	0.106
-240.917	-200.000	0.005	-0.267
-239.903	-9.680	-0.185	0.122
-238.888	-77.299	-0.180	-0.062
-237.873	-191.670	0.217	0.002
-236.859	-200.000	-0.064	0.279
-235.844	800.000	0.067	0.213
-234.830	280.283	0.063	0.112
-233.815	-47.227	0.236	0.114
-232.800	-200.000	0.033	0.179
-231.786	-158.157	0.081	-0.005
-230.771	514.761	-0.094	-0.216
-229.757	9.680	0.017	0.013
-228.742	120.084	-0.113	-0.139
-227.727	-19.014	0.176	0.108
-226.713	-200.000	0.010	0.304
-225.698	-200.000	0.023	-0.121
-224.684	330.310	0.158	-0.301
-223.669	-200.000	-0.041	0.347
-222.655	23.359	-0.005	0.004
-221.640	70.375	0.145	0.148
-220.625	-200.000	0.065	-0.302
-219.611	636.791	-0.077	0.194
-218.596	-123.010	-0.186	-0.030
-217.582	41.274	0.143	0.128
-216.567	289.600	-0.073	0.132
-215.552	-170.125	0.298	0.010
-214.538	800.000	-0.018	0.076
-213.523	-81.233	-0.264	0.086
-212.509	245.052	0.176	-0.293
-211.494	800.000	-0.025	-0.081
-210.479	-69.078	0.253	0.096
-209.465	-200.000	-0.418	0.001
-208.450	-151.226	0.078	-0.006
-207.436	63.113	-0.083	-0.082
-206.421	-200.000	0.057	-0.313
-205.406	-200.000	0.028	-0.141
-204.392	185.875	0.274	-0.403
-203.377	89.227	0.077	0.085
-202.363	-108.655	0.241	0.051
-201.348	800.000	0.012	-0.051
-200.333	363.554	0.148	-0.295
-199.319	82.690	0.084	0.090
-198.304	-181.138	0.189	0.004
-197.290	208.941	0.139	0.215
-196.275	-66.556	-0.108	-0.042
-195.260	409.768	0.129	-0.270
-194.246	-147.711	-0.177	0.015
-193.231	-200.000	-0.003	0.069
-192.217	-200.000	-0.031	0.146
-191.202	800.000	-0.047	0.186
-190.187	252.642	-0.088	-0.148
-189.173	70.392	0.091	-0.093
-188.158	413.597	0.207	0.435
-187.144	117.841	-0.111	-0.135
-186.129	-31.999	-0.291	-0.161
-185.114	-200.000	-0.016	-0.142
-184.100	-22.324	-0.126	-0.075
-183.085	-73.663	-0.284	0.102
-182.071	-95.473	-0.479	0.127
-181.056	-127.299	-0.150	0.022
-180.042	-55.227	0.141	-0.062
-179.027	61.673	-0.013	-0.013
-178.012	-187.205	-0.198	-0.003
-176.998	433.701	0.086	-0.183
-175.983	184.373	-0.164	-0.240
-174.969	417.113	-0.097	-0.204
-173.954	210.075	0.028	-0.043
-172.939	-200.000	0.012	0.613
-171.925	-200.000	0.041	0.187
-170.910	-124.522	0.345	0.053
-169.896	-200.000	0.025	-0.170
-168.881	190.542	-0.184	-0.273
-167.866	45.228	-0.136	0.124
-166.852	327.356	0.094	0.178
-165.837	-200.000	0.026	0.320
-164.823	158.810	-0.067	0.092
-163.808	-18.024	0.119	-0.074
-162.793	18.008	-0.073	0.058
-161.779	-200.000	-0.001	0.068
-160.764	-68.336	0.215	-0.082
-159.750	174.807	-0.127	-0.181
-158.735	-111.959	0.459	0.091
-157.720	-85.278	-0.191	-0.059
-156.706	-35.184	0.069	-0.037
-155.691	-64.729	-0.154	0.062
-154.677	101.920	0.167	0.193
-153.662	-82.056	0.185	0.060
-152.647	431.429	-0.172	-0.367
-151.633	619.053	0.192	0.475
-150.618	94.691	0.287	-0.322
-149.604	800.000	-0.114	-0.437
-148.589	-64.881	0.152	0.061
-147.574	-7.667	0.041	-0.027
-146.560	120.032	0.233	0.285
-145.545	-121.995	0.069	-0.011
-144.531	23.290	-0.152	-0.123
-143.516	-200.000	0.006	0.046
-142.502	-200.000	0.108	-0.679
-141.487	-200.000	-0.003	0.196
-140.472	-200.000	-0.017	0.162
-139.458	469.277	-0.049	0.108
-138.443	-200.000	0.012	0.000
-137.429	-117.877	0.420	-0.074
-136.414	-200.000	0.048	-0.273
-135.399	800.000	-0.021	0.070
-134.385	127.953	-0.145	0.182
-133.370	-48.255	-0.152	0.072
-132.356	109.484	-0.021	-0.025
-131.341	83.350	0.122	-0.131
-130.326	710.883	-0.090	-0.234
-129.312	-200.000	-0.013	0.309
-128.297	61.499	0.122	0.120
-127.283	14.281	0.116	0.089
-126.268	60.959	0.101	-0.099
-125.253	733.516	0.035	-0.092
-124.239	-61.274	0.210	0.087
-123.224	800.000	-0.041	-0.119
-122.210	-77.698	-0.137	-0.047
-121.195	-45.222	-0.246	0.120
-120.180	248.963	-0.092	0.154
-119.166	-69.062	0.277	-0.105
-118.151	-110.992	0.194	-0.039
-117.137	-7.508	0.032	-0.021
-116.122	-54.658	0.204	0.091
-115.107	211.224	0.223	0.345
-114.093	800.000	-0.070	0.273
-113.078	800.000	0.045	-0.133
-112.064	395.404	0.082	-0.169
-111.049	-152.853	-0.385	-0.027
-110.034	-147.482	-0.137	-0.011
-109.020	-179.417	0.178	-0.004
-108.005	-200.000	-0.002	-0.047
-106.991	-200.000	-0.005	0.085
-105.976	148.893	0.102	-0.136
-104.962	60.466	0.084	0.082
-103.947	-200.000	0.051	-0.255
-102.932	-15.830	0.046	0.029
-101.918	42.375	-0.128	-0.114
-100.903	-181.887	-0.126	-0.002
-99.889	177.294	-0.178	-0.255
-98.874	71.870	-0.205	0.210
-97.859	800.000	0.071	0.198
-96.845	31.283	0.175	0.148
-95.830	637.827	-0.042	-0.105
-94.816	76.076	-0.109	-0.114
-93.801	12.429	0.159	-0.121
-92.786	77.645	0.129	0.135
-91.772	59.316	-0.186	0.181
-90.757	-103.536	0.173	-0.040
-89.743	531.030	0.092	0.213
-88.728	800.000	-0.025	-0.093
-87.713	-5.068	0.139	0.094
-86.699	-33.730	0.203	-0.110
-85.684	285.646	-0.151	0.267
-84.670	125.488	-0.180	0.224
-83.655	800.000	-0.045	-0.179
-82.640	0.589	-0.053	0.037
-81.626	-200.000	0.017	0.072
-80.611	61.326	-0.108	0.106
-79.597	348.672	-0.041	-0.080
-78.582	-200.000	-0.011	0.111
-77.567	-136.326	0.041	-0.005
-76.553	-46.807	0.371	-0.178
-75.538	197.981	0.044	-0.066
-74.524	-43.392	0.162	-0.081
-73.509	101.054	0.139	0.159
-72.494	635.082	-0.023	-0.058
-71.480	-53.775	0.126	-0.057
-70.465	-59.297	0.329	0.139
-69.451	800.000	-0.096	0.263
-68.436	70.736	0.200	0.203
-67.422	39.663	0.149	-0.132
-66.407	-85.442	-0.315	-0.097
-65.392	-200.000	-0.025	-0.314
-64.378	-200.000	-0.006	-0.065
-63.363	-9.466	0.269	0.176
-62.349	-100.373	-0.166	0.040
-61.334	145.397	-0.758	-0.998
-60.319	727.734	0.273	0.716
-59.305	786.940	-0.346	-0.932
-58.290	800.000	0.417	1.405
-57.276	545.923	0.620	1.458
-56.261	-200.000	95.613	598.996
-55.246	664.952	1367.274	3468.244
-54.232	200.009	2547.268	3842.161
-53.217	114.777	2262.889	2710.675
-52.203	42.035	1895.080	1689.716
-51.188	35.770	1687.823	1457.568
-50.173	33.144	1643.831	1400.104
-49.159	50.798	1690.015	1572.246
-48.144	52.375	1706.822	1599.644
-47.130	35.471	1667.777	1437.786
-46.115	32.737	1653.330	1404.938
-45.100	32.527	1648.867	1399.527
-44.086	32.500	1645.873	1396.733
-43.071	32.413	1643.423	1393.956
-42.057	32.454	1641.331	1392.431
-41.042	32.429	1639.536	1390.663
-40.027	32.473	1637.066	1388.837
-39.013	32.358	1635.626	1386.713
-37.998	32.395	1633.875	1385.447
-36.984	32.430	1632.294	1384.307
-35.969	32.533	1631.049	1383.958
-34.954	32.521	1629.382	1382.398
-33.940	32.505	1627.342	1380.497
-32.925	32.474	1625.633	1378.766
-31.911	32.467	1624.401	1377.617
-30.896	32.420	1622.588	1375.681
-29.881	32.575	1620.707	1375.159
-28.867	32.614	1618.899	1373.859
-27.852	32.554	1617.643	1372.298
-26.838	32.443	1616.826	1370.743
-25.823	32.497	1614.603	1369.194
-24.809	32.601	1613.064	1368.593
-23.794	32.565	1611.651	1367.077
-22.779	32.606	1610.392	1366.254
-21.765	32.533	1608.845	1364.358
-20.750	32.526	1607.156	1362.822
-19.736	32.545	1605.979	1361.906
-18.721	32.614	1604.233	1360.867
-17.706	32.526	1603.240	1359.334
-16.692	32.513	1601.934	1358.083
-15.677	32.525	1600.367	1356.787
-14.663	32.565	1598.682	1355.593
-13.648	32.598	1597.474	1354.753
-12.633	32.619	1595.992	1353.590
-11.619	32.564	1594.436	1351.827
-10.604	32.562	1592.712	1350.294
-9.590	32.643	1591.180	1349.519
-8.575	32.693	1589.901	1348.741
-7.560	32.556	1589.124	1347.051
-6.546	32.601	1587.869	1346.251
-5.531	32.571	1586.664	1344.962
-4.517	32.596	1585.461	1344.067
-3.502	32.449	1584.919	1342.509
-2.487	32.662	1582.710	1342.101
-1.473	32.006	1570.818	1327.323
-0.458	28.587	1549.297	1285.191
0.556	26.161	1548.139	1246.367
1.571	23.070	1570.394	1242.490
2.586	22.119	1583.326	1245.870
3.600	19.353	1529.337	1184.308
4.615	11.625	1421.558	1051.220
5.629	5.152	1359.897	965.600
6.644	4.110	1352.152	953.601
7.659	4.032	1350.907	952.157
8.673	4.053	1350.074	951.620
9.688	4.115	1348.886	951.080
10.702	4.155	1345.443	948.813
11.717	6.865	1350.875	969.197
12.731	14.552	1365.182	1026.864
13.746	20.802	1374.752	1072.587
14.761	21.794	1374.697	1078.562
15.775	21.027	1373.051	1072.457
16.790	19.986	1369.976	1063.569
17.804	19.163	1367.954	1056.857
18.819	18.798	1367.204	1053.944
19.834	18.712	1365.841	1052.276
20.848	18.594	1364.474	1050.408
21.863	18.361	1363.619	1048.227
22.877	18.190	1362.753	1046.422
23.892	18.168	1361.451	1045.197
24.907	18.193	1361.009	1044.919
25.921	18.147	1359.932	1043.718
26.936	18.049	1359.699	1042.847
27.950	18.213	1358.287	1042.670
28.965	18.223	1357.356	1041.928
29.980	18.470	1356.201	1042.448
30.994	18.516	1354.869	1041.616
32.009	18.502	1354.273	1040.977
33.023	18.562	1352.918	1040.210
34.038	18.443	1351.664	1038.432
35.053	18.358	1350.323	1036.794
36.067	18.299	1349.051	1035.368
37.082	18.439	1348.196	1035.471
38.096	18.486	1347.331	1034.999
39.111	18.426	1346.470	1033.882
40.126	18.302	1345.782	1032.512
41.140	18.156	1344.398	1030.481
42.155	17.976	1343.992	1028.993
43.169	17.929	1344.044	1028.660
44.184	17.931	1343.284	1028.000
45.199	17.900	1343.449	1027.846
46.213	18.102	1342.301	1028.095
47.228	18.306	1342.061	1029.045
48.242	18.423	1340.548	1028.496
49.257	18.312	1339.314	1026.794
50.271	18.284	1337.681	1025.285
51.286	18.296	1336.556	1024.404
52.301	18.290	1335.315	1023.322
53.315	18.150	1334.050	1021.426
54.330	17.921	1333.164	1019.289
55.344	18.006	1331.577	1018.498
56.359	18.084	1330.639	1018.155
57.374	18.001	1330.101	1017.154
58.388	17.917	1328.896	1015.644
59.403	17.899	1328.932	1015.475
60.417	17.926	1327.598	1014.527
61.432	17.777	1327.155	1013.216
62.447	17.843	1326.460	1012.986
63.461	17.755	1324.700	1011.027
64.476	17.711	1323.577	1009.824
65.490	17.725	1322.789	1009.216
66.505	17.786	1321.095	1008.191
67.520	17.746	1319.666	1006.780
68.534	17.857	1318.616	1006.544
69.549	17.695	1317.834	1004.899
70.563	17.765	1316.753	1004.401
71.578	17.700	1315.502	1002.975
72.593	17.625	1314.637	1001.788
73.607	17.523	1314.191	1000.759
74.622	17.605	1313.331	1000.497
75.636	17.679	1312.548	1000.247
76.651	17.635	1312.068	999.534
77.666	17.750	1311.338	999.562
78.680	17.669	1311.078	998.802
79.695	17.738	1310.536	998.706
80.709	17.944	1309.723	999.203
81.724	18.060	1308.467	998.833
82.739	18.111	1307.998	998.685
83.753	18.144	1307.830	998.660
84.768	18.310	1305.918	998.080
85.782	18.405	1305.163	997.971
86.797	18.452	1303.817	997.125
87.812	18.332	1302.524	995.350
88.826	18.234	1301.436	993.861
89.841	18.413	1300.549	994.133
90.855	18.404	1299.929	993.520
91.870	18.381	1299.052	992.629
92.884	18.489	1298.216	992.527
93.899	18.479	1297.325	991.703
94.914	18.558	1296.686	991.581
95.928	18.460	1295.822	990.270
96.943	18.538	1294.896	989.921
97.957	18.298	1293.924	987.704
98.972	18.392	1292.542	987.109
99.987	18.465	1291.491	986.636
101.001	18.445	1291.032	986.083
102.016	18.363	1290.442	985.072
103.030	18.430	1289.284	984.487
104.045	18.381	1287.872	983.039
105.060	18.248	1287.258	981.725
106.074	18.072	1285.056	978.951
107.089	17.939	1283.418	976.853
108.103	17.763	1282.827	975.313
109.118	17.756	1281.832	974.426
110.133	17.771	1280.204	973.191
111.147	17.761	1279.149	972.244
112.162	17.814	1277.734	971.387
113.176	17.904	1277.087	971.321
114.191	18.027	1275.943	971.060
115.206	17.917	1274.806	969.487
116.220	17.871	1273.793	968.368
117.235	17.935	1272.586	967.728
118.249	17.929	1271.499	966.785
119.264	17.792	1270.451	965.125
120.279	17.777	1269.153	963.967
121.293	17.686	1268.256	962.687
122.308	17.663	1267.068	961.570
123.322	17.715	1265.529	960.614
124.337	17.611	1265.105	959.618
125.352	17.616	1264.279	958.937
126.366	17.670	1262.705	957.964
127.381	17.634	1261.683	956.896
128.395	17.605	1260.899	956.055
129.410	17.723	1260.154	956.066
130.424	17.779	1259.242	955.604
131.439	17.845	1258.236	955.125
132.454	17.916	1257.380	954.792
133.468	17.872	1256.689	953.933
134.483	17.901	1255.708	953.268
135.497	17.864	1255.126	952.533
136.512	18.111	1253.332	952.467
137.527	18.013	1252.087	950.889
138.541	18.019	1250.841	949.896
139.556	18.176	1249.324	949.529
140.570	18.206	1248.542	949.016
141.585	18.168	1247.769	948.136
142.600	18.330	1246.553	948.027
143.614	18.451	1245.908	948.118
144.629	18.389	1244.634	946.723
145.643	18.366	1243.767	945.855
146.658	18.299	1242.289	944.278
147.673	18.113	1240.906	942.116
148.687	18.021	1239.496	940.457
149.702	17.987	1238.487	939.418
150.716	17.896	1237.276	937.918
151.731	18.021	1235.691	937.318
152.746	17.914	1234.981	936.112
153.760	18.064	1233.647	935.839
154.775	18.136	1232.765	935.479
155.789	18.287	1231.722	935.430
156.804	18.279	1230.674	934.507
157.819	18.256	1230.064	933.839
158.833	18.337	1229.153	933.508
159.848	18.546	1228.155	933.806
160.862	18.356	1227.483	932.176
161.877	18.278	1225.632	930.263
162.892	18.037	1224.793	928.233
163.906	17.983	1223.971	927.237
164.921	18.068	1223.224	927.053
165.935	18.094	1222.124	926.275
166.950	18.271	1221.649	926.793
167.964	18.230	1221.023	926.015
168.979	18.139	1220.223	924.833
169.994	18.097	1219.409	923.904
171.008	18.258	1218.800	924.231
172.023	18.302	1217.995	923.780
173.037	18.308	1217.571	923.405
174.052	18.399	1216.285	922.841
175.067	18.283	1215.347	921.422
176.081	18.091	1214.139	919.396
177.096	18.123	1213.052	918.662
178.110	18.199	1212.113	918.278
179.125	18.266	1211.144	917.819
180.140	18.112	1210.266	916.246
181.154	18.323	1208.656	916.075
182.169	18.448	1207.782	916.002
183.183	18.508	1207.036	915.674
184.198	18.521	1205.227	914.290
185.213	18.486	1204.407	913.403
186.227	18.528	1203.401	912.782
187.242	18.687	1202.401	912.788
188.256	18.668	1201.330	911.793
189.271	18.657	1200.610	911.110
190.286	18.508	1199.259	909.215
191.300	18.152	1198.191	906.435
192.315	18.020	1197.415	905.071
193.329	18.016	1197.313	904.889
194.344	18.217	1196.009	904.891
195.359	18.333	1195.702	905.188
196.373	18.349	1195.448	905.002
197.388	18.429	1195.149	905.117
198.402	18.622	1194.648	905.676
199.417	18.773	1194.034	905.926
200.432	18.894	1192.991	905.694
201.446	18.974	1192.151	905.396
202.461	18.994	1191.730	905.102
203.475	19.003	1190.822	904.380
204.490	18.848	1189.543	902.515
205.504	18.597	1187.976	899.929
206.519	18.598	1186.758	898.932
207.534	18.613	1185.694	898.124
208.548	18.652	1184.849	897.612
209.563	18.643	1183.667	896.586
210.577	18.686	1183.455	896.575
211.592	18.633	1182.535	895.518
212.607	18.865	1181.931	896.192
213.621	18.933	1181.100	895.840
214.636	18.810	1179.877	894.193
215.650	18.826	1179.247	893.717
216.665	18.939	1178.319	893.521
217.680	19.024	1177.650	893.380
218.694	19.073	1176.566	892.731
219.709	18.991	1176.114	891.885
220.723	19.057	1175.281	891.513
221.738	18.934	1174.614	890.292
222.753	19.050	1173.830	890.223
223.767	18.887	1173.473	889.027
224.782	19.121	1172.860	889.692
225.796	19.174	1171.916	889.172
226.811	19.129	1171.394	888.467
227.826	18.977	1170.622	887.019
228.840	19.049	1169.534	886.488
229.855	19.007	1168.734	885.583
230.869	18.953	1168.308	884.908
231.884	18.902	1167.157	883.692
232.899	18.927	1166.489	883.239
233.913	18.673	1165.860	881.380
234.928	18.787	1164.683	880.997
235.942	18.695	1164.090	879.999
236.957	18.707	1163.287	879.375
237.972	18.848	1162.591	879.494
238.986	18.793	1161.990	878.680
240.001	18.745	1161.423	877.929
241.015	18.803	1160.181	877.205
242.030	18.857	1160.072	877.323
243.045	18.971	1159.287	877.230
244.059	18.957	1158.311	876.344
245.074	19.051	1157.891	876.428
246.088	19.059	1156.574	875.396
247.103	19.200	1155.751	875.410
248.117	19.338	1155.371	875.749
249.132	19.509	1154.961	876.225
250.147	19.644	1154.101	876.181
251.161	19.737	1153.394	876.038
252.176	19.786	1153.116	875.997
253.190	19.816	1152.700	875.754
254.205	19.718	1152.545	875.063
255.220	19.920	1151.359	875.111
256.234	19.834	1151.153	874.441
257.249	19.776	1149.760	873.012
258.263	19.885	1149.371	873.188
259.278	19.810	1148.743	872.257
260.293	19.968	1147.580	872.091
261.307	19.951	1147.259	871.686
262.322	20.042	1146.901	871.795
263.336	19.897	1146.300	870.532
264.351	20.021	1145.665	870.594
265.366	20.020	1144.821	869.874
266.380	19.986	1144.045	869.033
267.395	19.841	1143.289	867.654
268.409	19.789	1142.803	866.951
269.424	19.840	1141.782	866.355
270.439	19.774	1141.466	865.705
271.453	19.830	1140.246	864.985
272.468	19.823	1139.302	864.155
273.482	19.728	1138.726	863.169
274.497	19.693	1138.421	862.687
275.512	19.715	1137.496	862.022
276.526	19.796	1136.566	861.641
277.541	19.815	1136.160	861.352
278.555	19.757	1135.506	860.492
279.570	19.843	1135.516	860.854
280.585	20.131	1134.110	861.142
281.599	20.103	1133.147	860.194
282.614	19.938	1131.844	858.309
283.628	19.966	1130.485	857.342
284.643	19.982	1129.667	856.729
285.657	19.839	1129.378	855.724
286.672	19.926	1128.065	855.084
287.687	19.847	1127.582	854.254
288.701	20.027	1126.429	854.192
289.716	19.940	1126.315	853.601
290.730	19.915	1125.308	852.637
291.745	19.974	1125.015	852.629
292.760	20.095	1124.002	852.380
293.774	20.046	1123.600	851.763
294.789	20.239	1122.822	852.046
295.803	20.166	1122.151	851.102
296.818	19.894	1121.797	849.422
297.833	19.906	1120.963	848.776
298.847	19.909	1120.115	848.073
299.862	20.027	1119.336	847.986
300.876	20.069	1118.718	847.645
301.891	20.124	1118.498	847.676
302.906	20.216	1117.579	847.353
303.920	20.259	1117.149	847.162
304.935	20.458	1116.463	847.539
305.949	20.487	1115.856	847.144
306.964	20.506	1114.988	846.503
307.979	20.344	1114.302	845.117
308.993	20.277	1113.751	844.301
310.008	20.458	1112.204	843.930
311.022	20.494	1112.391	844.174
312.037	20.417	1111.219	842.835
313.052	20.453	1109.791	841.854
314.066	20.229	1108.913	840.028
315.081	20.122	1108.156	838.861
316.095	20.128	1107.407	838.249
317.110	20.127	1106.765	837.685
318.125	20.160	1106.158	837.312
319.139	20.031	1105.454	836.082
320.154	20.149	1104.569	835.905
321.168	19.973	1104.261	834.750
322.183	20.088	1103.650	834.771
323.197	20.306	1102.796	835.097
324.212	20.224	1102.373	834.308
325.227	20.383	1101.690	834.485
326.241	20.354	1101.055	833.786
327.256	20.194	1100.347	832.413
328.270	20.211	1099.305	831.631
329.285	20.201	1098.353	830.791
330.300	20.237	1097.508	830.247
331.314	20.173	1096.623	829.197
332.329	20.166	1095.739	828.425
333.343	20.424	1095.084	829.085
334.358	20.372	1094.496	828.322
335.373	20.406	1093.820	827.898
336.387	20.539	1092.636	827.563
337.402	20.455	1092.230	826.783
338.416	20.505	1091.882	826.684
339.431	20.601	1091.032	826.425
340.446	20.803	1090.390	826.820
341.460	20.891	1089.796	826.716
342.475	20.845	1088.879	825.729
343.489	20.856	1088.413	825.353
344.504	20.900	1087.456	824.766
345.519	21.031	1086.377	824.492
346.533	21.059	1085.655	824.006
347.548	21.142	1084.925	823.767
348.562	20.984	1084.553	822.666
349.577	20.850	1083.276	820.994
350.592	20.655	1082.679	819.551
351.606	20.624	1081.586	818.503
352.621	20.621	1080.850	817.862
353.635	20.547	1080.124	816.892
354.650	20.648	1079.479	816.808
355.665	20.673	1078.794	816.333
356.679	20.706	1078.458	816.163
357.694	20.832	1077.965	816.309
358.708	20.887	1077.285	815.979
359.723	20.883	1076.734	815.470
360.738	20.980	1075.973	815.272
361.752	20.886	1075.291	814.243
362.767	20.819	1075.218	813.804
363.781	20.894	1074.185	813.302
364.796	21.066	1073.867	813.793
365.810	21.089	1073.568	813.601
366.825	21.256	1072.936	813.827
367.840	21.395	1072.185	813.835
368.854	21.442	1071.705	813.614
369.869	21.373	1071.146	812.798
370.883	21.260	1070.220	811.498
371.898	21.154	1069.514	810.399
372.913	21.062	1068.815	809.371
373.927	21.284	1068.198	809.861
374.942	21.421	1067.789	810.113
375.956	21.367	1066.745	809.002
376.971	21.284	1066.498	808.358
377.986	21.373	1066.205	808.477
379.000	21.466	1065.730	808.474
380.015	21.575	1065.104	808.432
381.029	21.575	1064.614	807.987
382.044	21.598	1063.661	807.298
383.059	21.485	1063.254	806.399
384.073	21.523	1062.198	805.701
385.088	21.420	1061.387	804.539
386.102	21.642	1059.819	804.301
387.117	21.592	1058.789	803.218
388.132	21.333	1058.214	801.522
389.146	21.357	1057.508	801.028
390.161	21.409	1056.661	800.552
391.175	21.291	1056.288	799.658
392.190	21.420	1055.250	799.391
393.205	21.454	1055.243	799.471
394.219	21.464	1054.554	798.924
395.234	21.517	1052.950	797.880
396.248	21.496	1051.660	796.738
397.263	21.430	1050.989	795.859
398.278	21.259	1050.305	794.492
399.292	21.348	1049.434	794.166
400.307	21.185	1048.824	792.893
401.321	21.144	1048.568	792.447
402.336	21.169	1047.750	791.868
403.350	21.136	1047.119	791.173
404.365	21.174	1046.630	790.908
405.380	21.408	1045.541	791.071
406.394	21.493	1045.083	791.040
407.409	21.518	1044.702	790.796
408.423	21.642	1043.810	790.607
409.438	21.683	1043.249	790.301
410.453	21.726	1042.446	789.816
411.467	21.778	1041.820	789.506
412.482	21.836	1041.316	789.314
413.496	21.946	1040.407	789.048
414.511	21.882	1040.046	788.419
415.526	22.132	1039.618	789.148
416.540	22.058	1039.581	788.716
417.555	22.093	1038.665	788.108
418.569	21.918	1038.211	786.909
419.584	21.946	1037.779	786.637
420.599	22.057	1037.111	786.561
421.613	155.693	1401.677	1794.744
422.628	142.394	1454.767	1794.847
