DTS Sentinel unit serial number:	SN413079Multiplexer serial number:	ORYXHardware model number:	OX4-SRSoftware version number:	ORYX F/W v4.00 Oryx Data Collector v3.7.2.0data status	okinstallation	princeton_trtdifferential loss correction	single-endedforward channel	channel 2reverse channel	N/Adate	2019/09/13time	05:27:35forward acquisition time	60.00reverse acquisition time	0.00gamma	496.2192k internal	0.2337k external	0.2337temperature offset calibration	1.0188default loss term (dB/km)	0.3790temperature slope calibration	1.0000multiplexer offset coefficient	1.0000multiplexer slope coefficient	1.0000fibre end	0.00T internal ref (°C)	26.30T ext. ref 1 (°C)	4.05T ext. ref 2 (°C)	20.90length (m)	temperature (°C)	Stokes	anti-Stokes-747.200	11.326	0.134	0.103
-746.185	-33.626	-0.067	-0.037
-745.171	-73.274	0.112	0.041
-744.156	-76.622	-0.732	0.258
-743.142	532.110	0.119	-0.283
-742.127	800.000	0.061	0.218
-741.112	-16.892	0.245	0.156
-740.098	-200.000	-0.008	-0.196
-739.083	-157.076	0.233	0.014
-738.069	-103.390	0.325	-0.077
-737.054	-15.723	-0.312	0.200
-736.039	408.483	0.093	-0.197
-735.025	-200.000	0.009	0.128
-734.010	-200.000	-0.013	-0.134
-732.996	-123.181	-0.388	0.062
-731.981	13.989	-0.226	-0.177
-730.966	37.929	-0.142	-0.126
-729.952	81.221	-0.169	-0.183
-728.937	-200.000	-0.074	-0.514
-727.923	-96.008	0.150	0.040
-726.908	205.362	-0.153	-0.239
-725.894	-200.000	-0.034	-0.488
-724.879	-200.000	0.005	0.026
-723.864	21.024	-0.174	0.141
-722.850	32.148	0.183	-0.159
-721.835	-200.000	0.036	-0.190
-720.821	95.850	-0.097	0.111
-719.806	-178.260	-0.584	-0.014
-718.791	-200.000	0.020	0.118
-717.777	-147.750	-0.326	0.027
-716.762	-200.000	0.006	-0.342
-715.748	-60.497	-0.417	-0.178
-714.733	22.664	-0.152	-0.125
-713.718	800.000	0.076	0.231
-712.704	69.199	0.117	0.121
-711.689	-41.383	-0.252	0.130
-710.675	-164.138	0.151	0.007
-709.660	-70.686	-0.384	-0.146
-708.645	-88.191	0.247	0.074
-707.631	14.700	-0.188	0.147
-706.616	-154.139	-0.288	-0.020
-705.602	-109.982	-0.388	-0.081
-704.587	22.410	0.198	0.163
-703.572	800.000	0.083	0.242
-702.558	-146.093	0.055	-0.005
-701.543	263.900	0.170	-0.296
-700.529	-200.000	0.012	0.066
-699.514	-135.313	0.408	0.049
-698.499	-94.591	-0.040	-0.011
-697.485	-200.000	0.012	-0.151
-696.470	32.074	0.063	-0.054
-695.456	-2.224	0.242	-0.170
-694.441	-64.159	0.358	-0.146
-693.426	-200.000	0.052	-0.394
-692.412	281.545	-0.194	0.348
-691.397	222.707	-0.108	-0.175
-690.383	-200.000	0.005	-0.283
-689.368	-73.029	-0.238	-0.088
-688.354	142.472	0.117	-0.155
-687.339	800.000	0.078	-0.316
-686.324	800.000	-0.076	-0.273
-685.310	-200.000	-0.080	0.376
-684.295	-190.082	0.344	-0.004
-683.281	-200.000	-0.025	-0.184
-682.266	-88.990	0.319	0.094
-681.251	-24.109	-0.241	0.144
-680.237	-132.485	-0.176	-0.023
-679.222	-31.648	0.186	-0.105
-678.208	126.455	0.021	0.027
-677.193	321.149	0.026	0.050
-676.178	398.201	-0.089	-0.185
-675.164	506.489	0.080	0.185
-674.149	-200.000	0.029	0.342
-673.135	-200.000	0.024	-0.152
-672.120	518.517	0.047	0.109
-671.105	790.042	-0.090	0.247
-670.091	287.277	0.045	-0.081
-669.076	-37.499	0.135	0.072
-668.062	-200.000	0.022	0.183
-667.047	116.467	-0.159	-0.195
-666.032	431.300	-0.196	-0.425
-665.018	178.420	-0.087	-0.127
-664.003	-200.000	-0.010	0.257
-662.989	800.000	0.051	0.165
-661.974	71.091	-0.224	0.232
-660.959	151.133	-0.081	0.111
-659.945	-47.485	-0.057	-0.028
-658.930	441.993	-0.018	0.040
-657.916	119.302	0.171	0.211
-656.901	-200.000	0.045	0.271
-655.886	-22.234	0.193	0.117
-654.872	272.713	0.021	-0.037
-653.857	51.470	-0.123	0.117
-652.843	246.946	0.166	-0.280
-651.828	-4.089	0.094	-0.065
-650.814	-69.689	0.413	-0.158
-649.799	48.600	0.416	-0.390
-648.784	-13.829	0.139	0.090
-647.770	-94.395	-0.137	0.037
-646.755	-200.000	-0.029	0.277
-645.741	104.789	-0.256	0.302
-644.726	470.260	0.148	-0.333
-643.711	2.159	-0.251	0.182
-642.697	463.697	0.070	0.156
-641.682	28.695	0.179	0.152
-640.668	-96.397	-0.017	-0.005
-639.653	603.097	-0.072	-0.180
-638.638	358.171	0.141	-0.281
-637.624	800.000	-0.019	0.068
-636.609	32.368	0.215	-0.186
-635.595	138.902	-0.110	-0.145
-634.580	-89.091	0.270	-0.080
-633.565	465.984	-0.113	0.254
-632.551	-60.759	0.368	-0.156
-631.536	-76.810	-0.197	-0.069
-630.522	-102.055	0.248	-0.060
-629.507	780.268	-0.030	-0.082
-628.492	448.811	0.102	-0.225
-627.478	34.037	0.070	-0.061
-626.463	87.138	-0.023	-0.025
-625.449	-200.000	-0.022	-0.222
-624.434	0.758	0.498	-0.356
-623.419	-200.000	0.016	0.140
-622.405	-200.000	0.003	0.083
-621.390	-40.832	0.421	0.217
-620.376	108.895	-0.238	-0.284
-619.361	-91.466	-0.117	0.033
-618.346	-55.054	0.170	-0.077
-617.332	106.028	-0.252	0.297
-616.317	796.365	-0.078	-0.214
-615.303	-170.574	-0.073	0.003
-614.288	87.566	-0.080	0.088
-613.273	-127.778	0.197	0.028
-612.259	84.084	-0.149	-0.162
-611.244	-83.042	-0.232	-0.075
-610.230	-200.000	0.011	-0.128
-609.215	-43.792	0.259	0.130
-608.201	-49.702	-0.234	-0.111
-607.186	1.440	0.083	-0.060
-606.171	-200.000	-0.020	0.102
-605.157	-16.429	-0.090	0.057
-604.142	-119.601	-0.130	0.022
-603.128	185.852	-0.136	-0.202
-602.113	-36.855	0.365	-0.195
-601.098	-200.000	0.046	0.333
-600.084	-200.000	0.029	-0.192
-599.069	-158.043	-0.182	0.011
-598.055	800.000	0.101	0.347
-597.040	259.353	-0.090	0.156
-596.025	-99.305	-0.095	-0.024
-595.011	-55.914	-0.202	-0.090
-593.996	249.471	-0.057	0.097
-592.982	23.370	-0.118	-0.097
-591.967	5.284	-0.169	0.124
-590.952	40.299	-0.213	0.192
-589.938	-46.701	-0.513	0.250
-588.923	200.868	0.203	-0.312
-587.909	-31.413	-0.099	0.055
-586.894	47.154	0.199	-0.185
-585.879	67.919	0.206	0.210
-584.865	800.000	-0.101	0.303
-583.850	-122.758	0.210	-0.034
-582.836	-91.187	-0.350	0.100
-581.821	-44.201	0.142	0.071
-580.806	800.000	-0.056	0.220
-579.792	-11.016	-0.178	-0.117
-578.777	120.972	-0.236	-0.293
-577.763	-113.927	0.225	-0.044
-576.748	-172.565	0.123	0.004
-575.733	169.013	-0.167	0.238
-574.719	259.523	-0.242	-0.417
-573.704	223.018	0.100	0.160
-572.690	-49.794	-0.245	0.116
-571.675	-59.362	0.250	0.107
-570.661	514.651	0.005	-0.011
-569.646	-40.954	0.229	0.118
-568.631	20.756	-0.150	0.121
-567.617	-156.914	0.142	-0.009
-566.602	473.088	-0.007	0.016
-565.588	70.526	-0.178	-0.184
-564.573	-87.575	-0.263	-0.079
-563.558	-94.461	0.100	0.027
-562.544	734.589	-0.061	-0.164
-561.529	112.803	0.053	-0.064
-560.515	726.206	-0.051	-0.136
-559.500	800.000	-0.104	-0.353
-558.485	-200.000	-0.023	-0.168
-557.471	-85.278	0.083	0.026
-556.456	-71.758	0.177	-0.066
-555.442	106.752	-0.066	-0.078
-554.427	553.096	-0.060	0.143
-553.412	-200.000	0.025	0.355
-552.398	-76.002	-0.411	-0.145
-551.383	-128.557	0.053	0.007
-550.369	-200.000	-0.022	-0.319
-549.354	391.673	-0.232	0.481
-548.339	800.000	-0.101	-0.304
-547.325	-54.675	0.140	0.063
-546.310	104.957	0.176	-0.207
-545.296	-63.621	-0.023	0.010
-544.281	-61.565	-0.339	-0.142
-543.266	75.704	0.283	-0.297
-542.252	800.000	-0.088	0.323
-541.237	21.650	0.219	0.178
-540.223	107.656	0.071	-0.085
-539.208	-13.488	-0.338	-0.218
-538.193	-200.000	-0.022	0.175
-537.179	400.050	0.090	-0.188
-536.164	200.987	-0.214	0.328
-535.150	64.325	-0.054	-0.054
-534.135	640.278	-0.091	0.230
-533.121	-163.203	0.244	-0.012
-532.106	17.440	-0.075	0.059
-531.091	-159.709	0.147	-0.008
-530.077	-12.525	0.383	0.249
-529.062	-200.000	0.026	0.211
-528.048	266.845	0.111	-0.193
-527.033	8.239	0.224	0.168
-526.018	747.920	0.162	0.435
-525.004	-75.813	-0.255	-0.090
-523.989	800.000	-0.046	0.154
-522.975	3.271	0.105	0.076
-521.960	166.036	-0.156	0.220
-520.945	97.469	0.292	0.334
-519.931	469.764	-0.139	-0.311
-518.916	21.955	0.192	-0.156
-517.902	-113.175	0.342	0.067
-516.887	-200.000	-0.003	-0.023
-515.872	800.000	0.027	-0.089
-514.858	133.725	0.106	-0.137
-513.843	-173.539	0.247	-0.007
-512.829	126.557	-0.299	0.377
-511.814	-73.941	-0.068	0.025
-510.799	264.626	0.026	0.045
-509.785	-168.386	0.446	-0.017
-508.770	-154.600	0.308	0.020
-507.756	-6.896	0.250	-0.169
-506.741	-47.953	-0.520	-0.250
-505.726	207.073	-0.186	-0.288
-504.712	148.430	0.060	-0.080
-503.697	26.767	-0.143	0.119
-502.683	800.000	-0.015	-0.050
-501.668	510.027	-0.088	-0.203
-500.653	292.839	-0.081	-0.148
-499.639	-113.820	-0.043	0.008
-498.624	-118.827	-0.163	0.029
-497.610	800.000	0.038	0.134
-496.595	-200.000	-0.038	0.269
-495.581	18.188	0.131	-0.104
-494.566	94.908	-0.094	0.106
-493.551	89.931	-0.223	0.248
-492.537	142.369	-0.063	-0.083
-491.522	57.234	-0.256	0.248
-490.508	800.000	-0.065	0.180
-489.493	-71.805	0.033	-0.012
-488.478	14.553	0.195	0.152
-487.464	-200.000	-0.003	0.208
-486.449	-200.000	0.039	-0.206
-485.435	113.541	0.204	-0.246
-484.420	-197.653	-0.181	0.001
-483.405	-84.569	0.137	0.043
-482.391	201.278	-0.020	0.030
-481.376	-34.523	-0.070	-0.038
-480.362	101.759	0.227	0.263
-479.347	-200.000	-0.024	0.177
-478.332	-132.745	0.233	-0.030
-477.318	-22.769	-0.198	-0.119
-476.303	218.084	-0.129	0.205
-475.289	800.000	-0.075	0.284
-474.274	-200.000	-0.030	0.157
-473.259	800.000	0.053	-0.206
-472.245	-200.000	-0.008	-0.077
-471.230	800.000	0.014	0.054
-470.216	-37.732	-0.206	-0.109
-469.201	313.454	0.083	0.155
-468.186	186.825	-0.081	-0.120
-467.172	-179.708	0.339	0.007
-466.157	-32.250	0.063	0.035
-465.143	-200.000	-0.024	0.261
-464.128	-200.000	-0.010	-0.300
-463.113	-114.734	-0.286	-0.054
-462.099	800.000	0.023	0.083
-461.084	-200.000	-0.028	-0.276
-460.070	-200.000	-0.363	0.002
-459.055	800.000	-0.067	0.210
-458.040	411.665	-0.076	0.161
-457.026	26.370	0.142	-0.118
-456.011	6.698	0.100	0.074
-454.997	175.728	0.146	0.210
-453.982	754.563	0.090	0.241
-452.968	-33.247	-0.321	-0.177
-451.953	170.622	0.105	0.149
-450.938	-150.348	0.326	-0.025
-449.924	-124.879	-0.207	-0.032
-448.909	774.025	-0.082	0.223
-447.895	82.200	-0.111	0.120
-446.880	-200.000	0.011	-0.085
-445.865	-23.231	0.348	0.208
-444.851	800.000	-0.048	-0.185
-443.836	-58.508	-0.257	-0.111
-442.822	431.315	0.024	-0.052
-441.807	-43.370	-0.077	-0.039
-440.792	-16.131	-0.292	-0.184
-439.778	365.819	-0.100	-0.199
-438.763	197.430	0.107	0.162
-437.749	120.826	0.137	0.169
-436.734	800.000	0.027	0.096
-435.719	35.993	-0.173	-0.151
-434.705	116.035	-0.065	-0.079
-433.690	800.000	0.104	-0.371
-432.676	-118.096	0.220	-0.039
-431.661	-73.156	0.094	0.034
-430.646	-14.222	0.229	0.146
-429.632	-39.084	-0.113	-0.059
-428.617	800.000	0.037	0.121
-427.603	-200.000	0.005	0.229
-426.588	431.116	0.091	0.194
-425.573	-68.384	-0.008	0.003
-424.559	332.527	-0.016	0.031
-423.544	-34.187	-0.181	-0.099
-422.530	78.295	-0.157	-0.166
-421.515	277.819	0.095	-0.167
-420.500	-81.178	-0.309	-0.101
-419.486	-80.164	-0.048	0.016
-418.471	-165.754	-0.153	0.007
-417.457	-98.724	0.030	-0.008
-416.442	-5.331	-0.109	-0.074
-415.428	-200.000	-0.034	0.260
-414.413	800.000	0.067	0.188
-413.398	-31.175	0.204	0.114
-412.384	-50.284	0.295	0.138
-411.369	-13.625	0.055	-0.035
-410.355	-169.510	0.135	-0.005
-409.340	-141.417	0.115	0.011
-408.325	-200.000	0.030	0.159
-407.311	632.952	-0.071	0.178
-406.296	-23.789	-0.104	-0.062
-405.282	-46.177	0.293	-0.143
-404.267	193.091	0.165	-0.247
-403.252	800.000	0.056	-0.197
-402.238	183.515	0.231	-0.339
-401.223	-161.569	-0.434	0.022
-400.209	59.398	-0.148	0.144
-399.194	800.000	-0.041	0.157
-398.179	-182.481	0.031	-0.001
-397.165	-66.451	0.082	0.032
-396.150	289.683	-0.158	0.284
-395.136	139.899	-0.027	0.035
-394.121	-200.000	0.014	0.099
-393.106	-200.000	-0.012	0.247
-392.092	-105.086	0.136	0.031
-391.077	60.345	-0.074	0.073
-390.063	-154.630	-0.083	-0.005
-389.048	-109.444	0.066	0.014
-388.033	-200.000	0.008	0.140
-387.019	-200.000	0.016	0.197
-386.004	800.000	-0.052	-0.160
-384.990	-16.269	0.376	-0.236
-383.975	-29.708	0.223	0.126
-382.960	-131.856	-0.308	0.040
-381.946	-165.841	0.210	0.009
-380.931	-158.674	-0.312	0.018
-379.917	73.453	-0.032	-0.033
-378.902	-105.810	-0.291	-0.065
-377.888	53.716	0.175	-0.166
-376.873	-20.400	-0.142	0.086
-375.858	-172.654	0.287	0.009
-374.844	800.000	0.083	0.243
-373.829	29.978	0.211	-0.178
-372.815	-9.100	-0.181	-0.120
-371.800	-111.828	-0.338	-0.068
-370.785	-200.000	-0.011	-0.186
-369.771	605.718	-0.171	-0.421
-368.756	-48.918	0.224	0.106
-367.742	-200.000	0.190	0.001
-366.727	-63.487	-0.300	0.122
-365.712	800.000	0.046	-0.130
-364.698	-136.591	-0.366	-0.042
-363.683	-78.048	0.293	-0.100
-362.669	-174.784	-0.179	-0.005
-361.654	-68.913	0.152	-0.058
-360.639	319.379	0.067	0.125
-359.625	-100.888	-0.223	-0.054
-358.610	121.908	0.044	-0.054
-357.596	68.996	-0.335	-0.340
-356.581	3.485	0.100	-0.072
-355.566	215.560	-0.231	-0.362
-354.552	-114.308	-0.187	-0.036
-353.537	-200.000	-0.001	-0.201
-352.523	-122.179	0.097	0.016
-351.508	-92.343	-0.123	-0.034
-350.493	-59.763	0.297	0.126
-349.479	565.171	-0.053	0.126
-348.464	-93.433	-0.426	0.117
-347.450	800.000	0.048	0.162
-346.435	-200.000	0.015	0.430
-345.420	23.333	-0.127	0.103
-344.406	319.742	-0.153	0.287
-343.391	110.887	-0.088	0.104
-342.377	-107.444	0.266	0.058
-341.362	-200.000	0.027	-0.150
-340.348	132.124	-0.194	-0.247
-339.333	-43.516	-0.354	0.177
-338.318	-200.000	-0.030	0.195
-337.304	-108.773	-0.116	-0.025
-336.289	-41.604	-0.286	-0.145
-335.275	-35.576	0.332	-0.178
-334.260	-185.958	-0.168	-0.002
-333.245	800.000	0.078	-0.243
-332.231	-200.000	-0.019	-0.445
-331.216	81.575	-0.037	0.039
-330.202	359.848	0.155	0.307
-329.187	800.000	0.068	0.231
-328.172	712.605	-0.042	0.109
-327.158	13.451	0.089	-0.068
-326.143	77.464	-0.134	0.141
-325.129	261.119	0.222	0.379
-324.114	410.610	0.137	0.288
-323.099	151.145	0.181	0.244
-322.085	584.642	0.043	-0.103
-321.070	0.920	-0.245	-0.173
-320.056	-104.603	0.141	0.032
-319.041	-101.971	0.301	-0.072
-318.026	-82.010	-0.255	-0.082
-317.012	800.000	-0.116	0.338
-315.997	306.651	-0.030	-0.055
-314.983	800.000	0.036	-0.151
-313.968	-144.219	-0.347	-0.032
-312.953	57.528	0.048	0.046
-311.939	-200.000	-0.034	0.193
-310.924	67.932	-0.078	0.078
-309.910	-16.635	0.199	0.124
-308.895	105.944	-0.052	-0.061
-307.880	229.111	-0.057	-0.092
-306.866	800.000	0.094	0.310
-305.851	-200.000	-0.042	0.206
-304.837	330.520	0.062	-0.118
-303.822	-145.993	-0.183	0.016
-302.807	-200.000	-0.027	0.216
-301.793	-200.000	-0.001	0.146
-300.778	308.979	-0.073	-0.135
-299.764	800.000	-0.074	-0.251
-298.749	99.041	0.126	-0.143
-297.735	88.123	-0.031	0.034
-296.720	-104.977	-0.308	-0.070
-295.705	800.000	0.049	-0.141
-294.691	101.498	0.246	0.283
-293.676	-200.000	0.000	0.355
-292.662	218.612	-0.024	-0.037
-291.647	124.657	0.110	-0.137
-290.632	-75.141	0.320	-0.113
-289.618	28.754	-0.181	0.151
-288.603	69.342	0.338	-0.343
-287.589	-200.000	0.032	0.226
-286.574	131.353	0.108	0.137
-285.559	151.302	-0.134	-0.179
-284.545	89.495	-0.292	0.322
-283.530	226.755	0.088	-0.141
-282.516	800.000	-0.107	-0.301
-281.501	-82.815	-0.123	-0.039
-280.486	800.000	0.016	0.045
-279.472	-37.076	-0.535	-0.283
-278.457	285.686	-0.115	-0.204
-277.443	454.153	-0.029	0.064
-276.428	-200.000	-0.014	0.116
-275.413	181.408	-0.119	0.172
-274.399	33.022	-0.016	0.014
-273.384	32.443	-0.164	-0.139
-272.370	192.282	-0.122	-0.182
-271.355	367.187	-0.053	0.105
-270.340	22.569	0.194	-0.156
-269.326	800.000	-0.036	-0.111
-268.311	-83.421	-0.316	-0.100
-267.297	-200.000	-0.009	-0.310
-266.282	360.641	-0.107	-0.212
-265.267	187.437	0.097	-0.143
-264.253	-15.736	0.253	0.159
-263.238	71.432	-0.157	0.161
-262.224	220.928	-0.119	-0.187
-261.209	-200.000	0.022	-0.209
-260.195	241.775	0.335	0.552
-259.180	209.343	-0.098	0.152
-258.165	582.249	0.049	0.118
-257.151	359.897	-0.174	-0.342
-256.136	274.177	-0.183	-0.318
-255.122	-200.000	0.006	-0.211
-254.107	-192.093	0.092	-0.001
-253.092	172.004	0.123	-0.174
-252.078	-62.263	0.268	-0.110
-251.063	-72.429	0.312	0.114
-250.049	800.000	-0.063	0.182
-249.034	536.962	-0.086	0.200
-248.019	800.000	-0.072	0.292
-247.005	244.483	0.034	-0.057
-245.990	-69.260	0.079	0.030
-244.976	26.517	0.185	-0.152
-243.961	346.301	0.156	-0.302
-242.946	-121.779	-0.212	-0.035
-241.932	-66.549	0.172	-0.067
-240.917	-45.612	-0.108	0.052
-239.903	-200.000	-0.044	0.331
-238.888	-126.142	0.081	0.012
-237.873	-200.000	-0.066	-0.382
-236.859	-57.622	0.183	-0.079
-235.844	800.000	0.097	0.328
-234.830	219.038	-0.011	-0.018
-233.815	382.906	0.034	-0.069
-232.800	-100.045	0.161	0.040
-231.786	-200.000	0.000	0.103
-230.771	-200.000	0.017	-0.354
-229.757	-67.511	-0.135	0.052
-228.742	-76.491	0.208	0.072
-227.727	-134.603	0.300	0.036
-226.713	800.000	-0.026	-0.108
-225.698	-71.545	0.175	0.064
-224.684	-200.000	0.029	-0.185
-223.669	-166.997	-0.239	-0.010
-222.655	800.000	0.118	-0.368
-221.640	386.046	-0.037	-0.075
-220.625	800.000	0.087	0.313
-219.611	239.240	0.145	-0.236
-218.596	-45.123	0.244	0.119
-217.582	472.404	0.077	-0.171
-216.567	-200.000	-0.041	-0.205
-215.552	800.000	0.132	-0.384
-214.538	446.112	-0.097	-0.210
-213.523	800.000	0.125	0.436
-212.509	98.508	0.135	-0.153
-211.494	-200.000	0.002	0.113
-210.479	-148.425	-0.320	-0.026
-209.465	-77.440	0.125	-0.043
-208.450	-162.662	0.333	0.016
-207.436	49.527	-0.153	0.142
-206.421	800.000	0.049	-0.137
-205.406	185.489	0.094	-0.138
-204.392	-170.764	0.393	-0.013
-203.377	64.250	0.095	-0.094
-202.363	-200.000	-0.019	0.146
-201.348	-11.853	0.421	0.271
-200.333	-156.002	0.502	0.031
-199.319	-34.187	-0.337	0.182
-198.304	58.048	0.188	-0.181
-197.290	-135.471	-0.201	-0.024
-196.275	-145.642	-0.239	0.021
-195.260	-200.000	0.053	-0.411
-194.246	-200.000	-0.021	0.096
-193.231	-138.059	0.241	0.026
-192.217	-113.887	0.287	0.055
-191.202	2.289	-0.325	-0.231
-190.187	-157.246	-0.046	0.003
-189.173	-173.606	-0.107	0.003
-188.158	-12.112	-0.144	0.093
-187.144	-81.274	0.663	0.215
-186.129	-139.759	-0.341	-0.036
-185.114	-80.161	0.136	-0.045
-184.100	8.811	-0.146	0.108
-183.085	122.304	-0.158	-0.193
-182.071	-200.000	0.007	-0.318
-181.056	-155.874	-0.154	-0.010
-180.042	-200.000	0.055	0.237
-179.027	-118.235	-0.463	-0.081
-178.012	-56.052	0.057	-0.025
-176.998	-200.000	-0.030	0.236
-175.983	-59.744	0.105	0.044
-174.969	-200.000	-0.006	0.055
-173.954	24.627	0.180	0.146
-172.939	107.411	-0.064	0.074
-171.925	126.447	0.121	-0.151
-170.910	-132.086	-0.285	-0.036
-169.896	327.743	-0.065	0.121
-168.881	-200.000	-0.043	0.406
-167.866	-200.000	-0.000	0.199
-166.852	-134.589	0.157	-0.019
-165.837	243.914	0.038	0.063
-164.823	-84.050	-0.295	0.092
-163.808	800.000	-0.002	-0.008
-162.793	-98.630	0.094	0.023
-161.779	-31.026	-0.472	-0.261
-160.764	-58.861	0.613	-0.260
-159.750	767.798	0.052	-0.138
-158.735	800.000	0.042	-0.148
-157.720	-189.809	0.179	0.002
-156.706	-49.972	0.143	-0.066
-155.691	-200.000	0.038	-0.217
-154.677	1.984	-0.228	-0.162
-153.662	-36.604	-0.160	0.085
-152.647	150.171	0.184	0.245
-151.633	-200.000	0.016	-0.082
-150.618	-200.000	0.000	0.153
-149.604	-107.938	-0.114	0.024
-148.589	-46.201	-0.323	0.156
-147.574	-200.000	-0.091	0.424
-146.560	-200.000	0.029	0.150
-145.545	-77.163	-0.112	0.038
-144.531	-200.000	-0.022	0.110
-143.516	158.598	0.120	-0.164
-142.502	184.632	0.215	-0.313
-141.487	452.193	-0.055	0.120
-140.472	-200.000	-0.010	0.304
-139.458	-129.741	0.339	-0.046
-138.443	133.979	0.114	0.145
-137.429	124.345	-0.082	-0.101
-136.414	800.000	0.066	-0.285
-135.399	37.336	0.215	-0.187
-134.385	-77.109	-0.145	-0.049
-133.370	222.797	-0.028	0.044
-132.356	-112.620	-0.135	-0.026
-131.341	-179.620	0.365	0.008
-130.326	800.000	-0.034	0.104
-129.312	800.000	0.070	-0.240
-128.297	-95.250	0.187	0.049
-127.283	-109.070	0.189	0.039
-126.268	-38.802	0.334	0.172
-125.253	-82.018	0.335	0.107
-124.239	285.819	-0.224	0.396
-123.224	-98.066	0.397	-0.100
-122.210	-35.369	-0.258	0.137
-121.195	800.000	0.034	-0.108
-120.180	800.000	0.090	0.262
-119.166	-152.053	0.253	0.018
-118.151	-56.960	0.199	0.086
-117.137	-82.489	-0.227	-0.072
-116.122	-6.038	0.259	0.173
-115.107	405.926	0.083	-0.171
-114.093	272.822	0.070	-0.122
-113.078	74.274	-0.124	-0.128
-112.064	192.734	0.112	0.166
-111.049	31.220	-0.093	0.078
-110.034	144.552	-0.138	-0.181
-109.020	-38.169	-0.043	0.022
-108.005	-93.881	-0.216	0.058
-106.991	-200.000	-0.029	-0.207
-105.976	-200.000	-0.003	0.125
-104.962	-166.146	0.055	0.002
-103.947	721.329	0.026	-0.069
-102.932	800.000	-0.074	0.279
-101.918	405.890	-0.188	0.389
-100.903	10.068	0.145	-0.108
-99.889	-97.416	0.142	0.036
-98.874	-178.224	-0.313	-0.007
-97.859	136.534	-0.114	-0.145
-96.845	-20.330	-0.114	-0.069
-95.830	-200.000	-0.045	0.306
-94.816	-17.743	0.261	0.160
-93.801	-169.536	0.209	0.007
-92.786	-0.653	0.130	0.090
-91.772	-59.735	0.201	0.084
-90.757	-150.974	0.188	0.014
-89.743	-122.634	0.190	0.030
-88.728	-113.695	-0.092	0.018
-87.713	241.255	0.101	0.164
-86.699	-131.672	0.449	0.058
-85.684	-176.979	0.216	-0.005
-84.670	56.950	-0.184	-0.176
-83.655	-94.227	0.246	0.066
-82.640	-153.746	0.145	-0.010
-81.626	-88.027	0.276	0.081
-80.611	232.140	-0.059	0.095
-79.597	-104.769	0.265	0.060
-78.582	54.867	0.219	0.207
-77.567	-200.000	-0.082	0.366
-76.553	800.000	0.046	0.155
-75.538	-200.000	-0.043	0.416
-74.524	-147.570	-0.151	-0.012
-73.509	800.000	0.119	0.325
-72.494	-169.487	-0.139	0.005
-71.480	410.612	0.096	-0.199
-70.465	526.247	-0.194	-0.447
-69.451	-97.600	0.039	0.010
-68.436	361.335	0.095	-0.187
-67.422	7.586	-0.260	0.190
-66.407	126.353	0.231	-0.286
-65.392	800.000	0.012	-0.036
-64.378	21.558	-0.143	0.114
-63.363	-26.539	-0.173	-0.099
-62.349	-99.928	0.138	-0.034
-61.334	76.437	-0.879	-0.911
-60.319	52.642	0.652	0.609
-59.305	-200.000	-0.306	-1.322
-58.290	192.968	0.923	1.363
-57.276	627.847	0.516	1.275
-56.261	-200.000	116.915	645.964
-55.246	494.976	1545.743	3468.197
-54.232	173.612	2726.060	3843.021
-53.217	98.315	2293.958	2581.829
-52.203	35.223	1900.545	1627.444
-51.188	29.398	1694.098	1406.353
-50.173	27.032	1653.090	1354.629
-49.159	47.228	1711.094	1556.102
-48.144	45.957	1724.164	1558.284
-47.130	28.957	1681.161	1392.054
-46.115	26.371	1666.703	1360.595
-45.100	26.206	1661.845	1355.343
-44.086	26.157	1659.469	1352.979
-43.071	26.135	1656.607	1350.432
-42.057	26.106	1654.847	1348.724
-41.042	26.083	1652.533	1346.616
-40.027	26.078	1650.814	1345.122
-39.013	26.114	1648.343	1343.324
-37.998	26.086	1647.027	1341.993
-36.984	26.193	1645.582	1341.553
-35.969	26.274	1644.270	1341.029
-34.954	26.254	1643.269	1340.013
-33.940	26.279	1640.718	1338.066
-32.925	26.283	1639.292	1336.880
-31.911	26.203	1637.750	1334.980
-30.896	26.292	1635.889	1334.068
-29.881	26.251	1634.495	1332.576
-28.867	26.303	1632.567	1331.334
-27.852	26.325	1631.310	1330.415
-26.838	26.305	1629.780	1328.966
-25.823	26.242	1628.576	1327.468
-24.809	26.362	1626.653	1326.732
-23.794	26.402	1625.760	1326.242
-22.779	26.333	1624.303	1324.492
-21.765	26.267	1622.908	1322.822
-20.750	26.302	1620.858	1321.355
-19.736	26.275	1619.883	1320.313
-18.721	26.309	1618.262	1319.182
-17.706	26.366	1616.492	1318.108
-16.692	26.366	1615.278	1317.061
-15.677	26.358	1613.635	1315.616
-14.663	26.325	1612.717	1314.575
-13.648	26.417	1610.674	1313.527
-12.633	26.343	1609.381	1311.881
-11.619	26.248	1608.085	1310.086
-10.604	26.390	1606.084	1309.429
-9.590	26.454	1604.285	1308.376
-8.575	26.336	1603.802	1307.076
-7.560	26.372	1602.113	1305.902
-6.546	26.354	1601.353	1305.102
-5.531	26.344	1600.512	1304.296
-4.517	26.301	1599.399	1303.022
-3.502	26.289	1598.304	1301.993
-2.487	26.329	1596.248	1300.557
-1.473	26.001	1584.294	1288.425
-0.458	23.083	1565.070	1252.109
0.556	21.513	1566.287	1220.839
1.571	19.102	1590.443	1222.452
2.586	18.665	1603.140	1228.978
3.600	17.006	1548.886	1175.791
4.615	10.714	1442.575	1054.262
5.629	5.039	1383.519	975.591
6.644	3.965	1375.987	963.513
7.659	4.031	1374.663	962.908
8.673	4.034	1374.230	962.538
9.688	4.161	1371.815	961.548
10.702	4.071	1368.689	958.715
11.717	6.740	1373.922	978.866
12.731	14.138	1387.658	1034.740
13.746	20.685	1398.676	1083.784
14.761	22.682	1401.022	1097.947
15.775	22.142	1399.085	1092.976
16.790	21.319	1396.373	1085.653
17.804	20.579	1394.347	1079.389
18.819	20.240	1393.164	1076.271
19.834	20.079	1392.680	1074.804
20.848	20.172	1391.534	1074.402
21.863	19.913	1390.276	1071.731
22.877	19.838	1389.198	1070.343
23.892	19.839	1387.994	1069.329
24.907	19.677	1387.368	1067.748
25.921	19.706	1386.120	1066.872
26.936	19.850	1385.511	1067.197
27.950	19.878	1384.510	1066.505
28.965	19.867	1383.851	1065.832
29.980	20.166	1382.175	1066.292
30.994	20.312	1381.141	1066.295
32.009	20.250	1380.863	1065.604
33.023	20.156	1379.222	1063.669
34.038	20.052	1377.929	1061.940
35.053	20.068	1376.679	1060.980
36.067	19.843	1375.817	1058.842
37.082	20.030	1374.837	1059.138
38.096	19.994	1374.093	1058.255
39.111	20.086	1373.005	1057.881
40.126	19.790	1372.479	1055.579
41.140	19.638	1371.022	1053.436
42.155	19.418	1370.227	1051.394
43.169	19.439	1370.336	1051.512
44.184	19.403	1370.091	1051.012
45.199	19.556	1369.696	1051.545
46.213	19.716	1369.227	1052.067
47.228	19.784	1368.903	1052.140
48.242	19.967	1367.658	1052.199
49.257	19.889	1365.968	1050.333
50.271	19.863	1364.593	1049.024
51.286	19.832	1363.407	1047.832
52.301	19.843	1361.798	1046.571
53.315	19.759	1360.555	1045.018
54.330	19.654	1359.875	1043.768
55.344	19.474	1358.883	1041.825
56.359	19.626	1357.109	1041.289
57.374	19.547	1356.042	1039.903
58.388	19.419	1355.655	1038.745
59.403	19.401	1355.008	1038.050
60.417	19.392	1354.213	1037.291
61.432	19.272	1353.279	1035.763
62.447	19.189	1352.670	1034.709
63.461	19.177	1351.277	1033.478
64.476	19.065	1350.244	1031.930
65.490	19.159	1348.934	1031.398
66.505	19.137	1347.948	1030.420
67.520	19.286	1345.933	1029.678
68.534	19.228	1345.503	1028.911
69.549	19.138	1344.860	1027.795
70.563	19.071	1343.239	1026.066
71.578	18.936	1342.337	1024.479
72.593	18.831	1341.380	1023.032
73.607	18.874	1340.379	1022.435
74.622	19.031	1339.387	1022.521
75.636	18.971	1339.361	1022.053
76.651	19.028	1338.538	1021.675
77.666	19.021	1338.159	1021.251
78.680	19.115	1337.618	1021.307
79.695	19.159	1336.731	1020.803
80.709	19.444	1335.999	1021.838
81.724	19.461	1335.490	1021.458
82.739	19.586	1335.087	1021.799
83.753	19.721	1333.769	1021.498
84.768	19.810	1333.506	1021.733
85.782	20.097	1332.133	1022.284
86.797	20.030	1330.932	1020.880
87.812	19.968	1329.542	1019.354
88.826	19.915	1328.749	1018.347
89.841	19.969	1327.858	1017.888
90.855	20.097	1326.553	1017.551
91.870	20.158	1326.014	1017.407
92.884	20.058	1325.366	1016.232
93.899	20.088	1324.712	1015.817
94.914	20.108	1324.004	1015.303
95.928	20.225	1322.813	1014.982
96.943	20.050	1322.234	1013.426
97.957	20.035	1320.846	1012.183
98.972	20.032	1319.685	1011.187
99.987	20.014	1318.669	1010.216
101.001	19.997	1318.051	1009.552
102.016	20.124	1316.566	1009.065
103.030	19.942	1315.889	1007.399
104.045	19.972	1315.440	1007.142
105.060	19.808	1313.975	1004.974
106.074	19.491	1311.960	1001.509
107.089	19.319	1310.567	999.357
108.103	19.156	1309.004	997.132
109.118	19.059	1308.117	995.811
110.133	19.214	1306.381	995.295
111.147	19.227	1305.137	994.336
112.162	19.225	1304.179	993.503
113.176	19.459	1302.830	993.739
114.191	19.375	1302.517	992.928
115.206	19.447	1301.205	992.255
116.220	19.386	1299.845	990.776
117.235	19.270	1299.314	989.616
118.249	19.280	1297.881	988.500
119.264	19.144	1296.197	986.348
120.279	19.100	1295.388	985.396
121.293	19.139	1294.208	984.634
122.308	18.918	1293.031	982.389
123.322	18.798	1292.821	981.455
124.337	18.838	1290.877	980.121
125.352	19.027	1289.431	980.011
126.366	18.826	1288.332	977.948
127.381	18.893	1287.556	977.654
128.395	18.884	1286.601	976.788
129.410	18.897	1285.828	976.190
130.424	18.948	1285.249	975.951
131.439	19.220	1284.053	976.503
132.454	19.170	1283.833	975.966
133.468	19.238	1282.804	975.480
134.483	19.264	1281.993	974.924
135.497	19.367	1281.065	974.714
136.512	19.290	1279.791	973.225
137.527	19.476	1278.411	973.141
138.541	19.368	1277.298	971.594
139.556	19.592	1275.722	971.569
140.570	19.646	1275.570	971.671
141.585	19.751	1274.012	970.992
142.600	19.790	1273.403	970.656
143.614	19.918	1272.543	970.636
144.629	20.033	1271.972	970.759
145.643	20.024	1270.697	969.652
146.658	19.812	1268.695	966.853
147.673	19.601	1267.449	964.639
148.687	19.502	1265.997	962.894
149.702	19.449	1264.581	961.437
150.716	19.345	1263.117	959.658
151.731	19.370	1262.008	958.869
152.746	19.467	1260.826	958.426
153.760	19.473	1260.258	957.946
154.775	19.689	1258.817	957.962
155.789	19.618	1258.174	956.992
156.804	19.820	1257.187	957.278
157.819	19.647	1256.621	955.805
158.833	19.904	1255.553	956.326
159.848	20.072	1254.489	956.362
160.862	20.042	1253.574	955.413
161.877	19.718	1251.825	952.213
162.892	19.333	1250.761	949.200
163.906	19.370	1249.870	948.639
164.921	19.386	1248.819	947.850
165.935	19.559	1248.404	948.401
166.950	19.608	1247.506	947.903
167.964	19.678	1246.757	947.631
168.979	19.498	1245.864	945.882
169.994	19.546	1245.202	945.558
171.008	19.483	1244.413	944.532
172.023	19.741	1243.616	945.253
173.037	19.828	1243.107	945.258
174.052	19.790	1242.472	944.487
175.067	19.589	1241.107	942.266
176.081	19.303	1239.756	939.601
177.096	19.337	1238.793	938.971
178.110	19.412	1237.554	938.358
179.125	19.478	1236.345	937.718
180.140	19.517	1236.105	937.665
181.154	19.773	1234.628	937.848
182.169	19.844	1233.773	937.503
183.183	19.912	1232.532	936.843
184.198	19.932	1231.473	936.063
185.213	19.969	1230.433	935.389
186.227	20.127	1229.216	935.235
187.242	20.143	1228.134	934.413
188.256	20.202	1227.782	934.383
189.271	20.202	1226.667	933.451
190.286	19.923	1225.530	931.002
191.300	19.504	1223.959	927.476
192.315	19.286	1223.619	925.964
193.329	19.424	1222.711	925.935
194.344	19.504	1222.355	926.015
195.359	19.541	1222.347	926.124
196.373	19.678	1221.689	926.281
197.388	19.768	1221.349	926.421
198.402	20.040	1220.982	927.518
199.417	20.172	1220.844	928.041
200.432	20.316	1220.216	928.248
201.446	20.455	1219.446	928.326
202.461	20.547	1218.472	927.990
203.475	20.441	1217.588	926.673
204.490	20.264	1216.018	924.451
205.504	20.094	1213.964	921.902
206.519	19.893	1213.681	920.536
207.534	19.966	1211.576	919.246
208.548	19.963	1211.245	918.896
209.563	19.949	1210.421	918.120
210.577	19.863	1210.203	917.415
211.592	20.003	1209.352	917.429
212.607	20.274	1208.244	917.945
213.621	20.261	1207.499	917.225
214.636	20.093	1206.363	915.396
215.650	20.258	1205.351	915.419
216.665	20.348	1204.863	915.439
217.680	20.455	1204.673	915.781
218.694	20.535	1203.340	915.105
219.709	20.518	1202.410	914.227
220.723	20.392	1201.990	913.168
221.738	20.447	1200.984	912.611
222.753	20.363	1200.336	911.595
223.767	20.336	1199.550	910.775
224.782	20.500	1199.130	911.238
225.796	20.731	1198.356	911.777
226.811	20.609	1197.612	910.494
227.826	20.406	1196.755	908.696
228.840	20.345	1195.536	907.372
229.855	20.290	1194.891	906.517
230.869	20.340	1194.223	906.191
231.884	20.147	1193.483	904.543
232.899	20.170	1192.344	903.721
233.913	20.004	1191.867	902.411
234.928	19.948	1190.804	901.236
235.942	19.873	1189.873	900.059
236.957	20.020	1189.029	900.107
237.972	19.903	1188.484	899.008
238.986	19.974	1188.026	898.948
240.001	19.938	1187.273	898.115
241.015	20.026	1186.390	897.822
242.030	20.179	1185.780	898.076
243.045	20.248	1184.962	897.730
244.059	20.291	1184.069	897.199
245.074	20.424	1183.369	897.277
246.088	20.419	1182.681	896.651
247.103	20.498	1182.276	896.671
248.117	20.716	1181.611	897.212
249.132	20.868	1181.251	897.642
250.147	21.045	1180.769	898.105
251.161	21.298	1179.852	898.630
252.176	21.324	1179.530	898.440
253.190	21.331	1179.113	898.079
254.205	21.425	1178.411	897.949
255.220	21.430	1177.746	897.388
256.234	21.345	1177.026	896.321
257.249	21.329	1176.645	895.872
258.263	21.307	1175.640	894.914
259.278	21.164	1175.376	893.901
260.293	21.479	1174.274	894.596
261.307	21.349	1174.494	894.021
262.322	21.430	1173.699	893.750
263.336	21.548	1172.559	893.405
264.351	21.418	1171.968	892.210
265.366	21.490	1171.604	892.225
266.380	21.446	1171.171	891.590
267.395	21.430	1169.758	890.352
268.409	21.111	1169.329	888.325
269.424	21.200	1168.383	887.983
270.439	21.248	1167.663	887.601
271.453	21.183	1166.625	886.401
272.468	21.026	1165.980	885.038
273.482	21.010	1164.794	883.976
274.497	20.999	1164.411	883.550
275.512	21.034	1163.624	883.051
276.526	20.999	1162.758	882.143
277.541	21.001	1162.556	881.922
278.555	21.141	1161.563	881.797
279.570	21.313	1161.204	882.313
280.585	21.506	1160.684	882.813
281.599	21.417	1159.650	881.504
282.614	21.302	1158.303	879.822
283.628	21.307	1156.451	878.359
284.643	21.146	1156.052	877.170
285.657	21.145	1155.484	876.656
286.672	21.195	1154.595	876.156
287.687	21.191	1153.837	875.482
288.701	21.178	1153.174	874.840
289.716	21.382	1151.621	874.603
290.730	21.120	1151.724	873.295
291.745	21.220	1150.893	873.084
292.760	21.307	1150.153	872.884
293.774	21.427	1149.660	873.027
294.789	21.665	1149.008	873.647
295.803	21.540	1148.635	872.659
296.818	21.306	1147.506	870.559
297.833	21.220	1146.594	869.360
298.847	21.234	1145.787	868.744
299.862	21.308	1145.114	868.526
300.876	21.387	1144.742	868.556
301.891	21.489	1144.164	868.547
302.906	21.677	1143.752	869.093
303.920	21.744	1142.942	868.730
304.935	21.863	1142.928	869.236
305.949	22.050	1142.322	869.623
306.964	21.875	1141.436	868.005
307.979	21.725	1140.476	866.455
308.993	21.714	1139.374	865.489
310.008	21.613	1139.462	864.982
311.022	21.735	1137.912	864.326
312.037	21.842	1137.062	864.133
313.052	21.684	1135.968	862.450
314.066	21.451	1134.893	860.408
315.081	21.253	1133.897	858.604
316.095	21.169	1133.216	857.600
317.110	21.251	1132.447	857.345
318.125	21.339	1131.829	857.231
319.139	21.234	1130.925	855.958
320.154	21.243	1130.728	855.778
321.168	21.283	1129.793	855.189
322.183	21.298	1128.988	854.576
323.197	21.384	1128.728	854.725
324.212	21.344	1128.064	853.951
325.227	21.478	1127.583	854.165
326.241	21.547	1126.927	853.929
327.256	21.465	1126.291	852.973
328.270	21.373	1125.243	851.656
329.285	21.292	1124.448	850.585
330.300	21.269	1122.967	849.277
331.314	21.355	1122.062	848.935
332.329	21.416	1121.522	848.749
333.343	21.474	1120.434	848.132
334.358	21.645	1120.384	848.845
335.373	21.659	1119.447	848.129
336.387	21.677	1119.074	847.858
337.402	21.762	1117.863	847.278
338.416	21.778	1117.556	847.048
339.431	21.866	1117.003	846.980
340.446	22.142	1115.931	847.423
341.460	22.283	1115.399	847.619
342.475	22.353	1115.131	847.678
343.489	22.371	1114.094	846.904
344.504	22.429	1113.160	846.396
345.519	22.521	1112.222	846.052
346.533	22.425	1111.581	845.027
347.548	22.438	1111.140	844.681
348.562	22.466	1110.012	843.885
349.577	22.077	1108.998	841.172
350.592	21.900	1108.022	839.514
351.606	21.804	1106.987	838.196
352.621	21.763	1106.351	837.443
353.635	21.725	1105.734	836.722
354.650	21.739	1105.042	836.190
355.665	21.893	1104.402	836.367
356.679	21.826	1103.821	835.531
357.694	22.040	1103.211	836.015
358.708	22.200	1102.564	836.212
359.723	22.034	1101.840	834.802
360.738	22.098	1101.594	834.846
361.752	22.123	1101.249	834.628
362.767	22.167	1100.577	834.252
363.781	22.188	1100.011	833.851
364.796	22.289	1099.665	833.995
365.810	22.425	1098.987	834.049
366.825	22.667	1098.283	834.585
367.840	22.845	1098.162	835.265
368.854	22.860	1097.522	834.776
369.869	22.784	1096.761	833.759
370.883	22.622	1095.768	832.170
371.898	22.531	1094.716	830.869
372.913	22.627	1093.674	830.457
373.927	22.575	1093.891	830.303
374.942	22.682	1093.763	830.637
375.956	22.648	1092.616	829.528
376.971	22.494	1092.564	828.694
377.986	22.653	1091.762	828.757
379.000	22.743	1091.580	828.969
380.015	22.881	1090.765	828.925
381.029	23.044	1090.270	829.239
382.044	22.965	1089.408	828.140
383.059	22.879	1088.626	827.073
384.073	22.856	1088.277	826.624
385.088	22.933	1086.891	825.858
386.102	22.811	1086.378	824.825
387.117	22.630	1084.578	822.540
388.132	22.394	1083.819	820.793
389.146	22.495	1082.930	820.517
390.161	22.429	1082.084	819.499
391.175	22.467	1081.472	819.139
392.190	22.598	1080.799	819.165
393.205	22.834	1080.670	820.090
394.219	22.790	1079.539	818.955
395.234	22.618	1078.593	817.370
396.248	22.575	1077.668	816.393
397.263	22.641	1076.189	815.506
398.278	22.394	1075.442	813.728
399.292	22.204	1075.022	812.462
400.307	22.222	1074.251	811.889
401.321	22.201	1073.640	811.261
402.336	22.220	1072.701	810.566
403.350	22.185	1072.441	810.134
404.365	22.361	1071.911	810.473
405.380	22.409	1070.767	809.759
406.394	22.492	1070.494	809.863
407.409	22.709	1070.095	810.484
408.423	22.838	1069.197	810.327
409.438	22.962	1068.721	810.462
410.453	23.042	1068.364	810.485
411.467	23.145	1067.419	810.169
412.482	23.072	1067.167	809.570
413.496	23.224	1065.942	809.265
414.511	23.245	1065.376	808.863
415.526	23.388	1065.053	809.197
416.540	23.464	1064.608	809.135
417.555	23.488	1064.094	808.782
418.569	23.254	1063.407	807.121
419.584	23.274	1062.891	806.749
420.599	23.197	1062.537	806.060
421.613	157.948	1404.430	1798.005
422.628	145.336	1454.190	1798.076
