DTS Sentinel unit serial number:	SN413079Multiplexer serial number:	ORYXHardware model number:	OX4-SRSoftware version number:	ORYX F/W v4.00 Oryx Data Collector v3.7.2.0data status	okinstallation	princeton_trtdifferential loss correction	single-endedforward channel	channel 2reverse channel	N/Adate	2019/09/12time	19:50:48forward acquisition time	15.00reverse acquisition time	0.00gamma	496.2192k internal	0.2328k external	0.2328temperature offset calibration	1.0161default loss term (dB/km)	0.3790temperature slope calibration	1.0000multiplexer offset coefficient	1.0000multiplexer slope coefficient	1.0000fibre end	0.00T internal ref (°C)	31.94T ext. ref 1 (°C)	3.52T ext. ref 2 (°C)	26.53length (m)	temperature (°C)	Stokes	anti-Stokes-747.200	573.229	-0.434	-1.066
-746.185	144.883	-0.286	-0.385
-745.171	-200.000	-0.012	-0.059
-744.156	342.097	-0.204	0.401
-743.142	510.468	-0.347	0.813
-742.127	296.913	0.343	-0.634
-741.112	-151.209	0.671	-0.051
-740.098	-120.201	0.358	0.062
-739.083	173.714	0.309	-0.449
-738.069	-68.754	-0.765	-0.298
-737.054	-53.740	0.803	0.369
-736.039	-200.000	0.019	-0.205
-735.025	-13.167	0.478	0.313
-734.010	42.552	0.693	0.635
-732.996	52.467	-0.135	-0.129
-731.981	116.275	0.213	0.263
-730.966	-185.623	0.233	-0.004
-729.952	578.761	0.051	-0.125
-728.937	-185.257	-0.664	0.010
-727.923	-116.414	-0.262	-0.049
-726.908	-72.280	-0.741	-0.276
-725.894	-54.423	0.663	0.303
-724.879	-33.546	-0.088	0.049
-723.864	145.819	0.259	0.350
-722.850	-114.578	0.536	0.103
-721.835	-131.444	0.494	-0.066
-720.821	53.003	0.171	-0.165
-719.806	228.222	0.067	0.110
-718.791	-106.854	0.702	0.157
-717.777	-1.220	0.489	-0.348
-716.762	115.622	-0.476	-0.586
-715.748	230.133	-0.065	-0.107
-714.733	-77.115	0.900	0.316
-713.718	-158.161	0.188	-0.011
-712.704	396.703	0.223	-0.470
-711.689	800.000	-0.155	-0.612
-710.675	461.987	-0.218	0.489
-709.660	800.000	-0.231	0.652
-708.645	-118.715	0.258	-0.046
-707.631	-29.661	-0.527	-0.303
-706.616	-57.394	0.068	-0.030
-705.602	-139.897	-0.378	0.040
-704.587	-99.805	0.187	0.047
-703.572	-35.541	0.233	0.127
-702.558	-200.000	0.151	-1.066
-701.543	-120.127	0.638	-0.110
-700.529	-92.473	0.255	-0.072
-699.514	531.452	0.272	0.648
-698.499	800.000	0.165	-0.587
-697.485	224.213	-0.099	-0.162
-696.470	-84.732	-0.175	0.055
-695.456	-113.093	0.896	-0.178
-694.441	800.000	0.161	0.664
-693.426	739.258	0.122	0.329
-692.412	548.542	-0.121	0.292
-691.397	-103.412	1.105	-0.262
-690.383	15.416	-0.299	0.236
-689.368	-41.371	-0.429	-0.222
-688.354	429.002	-0.274	-0.595
-687.339	800.000	0.271	0.859
-686.324	205.633	-0.126	0.196
-685.310	249.925	0.254	0.433
-684.295	-200.000	0.017	0.556
-683.281	-200.000	-0.079	-0.666
-682.266	-87.924	-0.634	0.192
-681.251	-72.414	-0.805	0.300
-680.237	-88.719	0.226	-0.068
-679.222	150.226	0.113	-0.154
-678.208	-110.883	0.579	0.120
-677.193	-141.927	-0.226	-0.023
-676.178	243.432	-0.150	0.252
-675.164	-90.366	0.258	0.075
-674.149	128.764	0.461	0.591
-673.135	-200.000	0.063	-0.552
-672.120	239.311	0.361	0.604
-671.105	-200.000	0.029	-0.311
-670.091	-122.151	0.826	-0.136
-669.076	-75.887	0.105	0.037
-668.062	-98.150	0.799	0.207
-667.047	-200.000	0.017	-0.355
-666.032	-32.756	-0.726	-0.406
-665.018	-22.930	0.977	-0.592
-664.003	562.813	-0.021	0.050
-662.989	800.000	0.055	0.202
-661.974	-6.483	0.475	-0.325
-660.959	-200.000	0.017	0.304
-659.945	20.099	0.507	-0.411
-658.930	279.453	-0.342	0.613
-657.916	800.000	0.067	-0.207
-656.901	274.016	-0.184	0.328
-655.886	-167.267	0.574	0.023
-654.872	-21.135	0.316	-0.194
-653.857	800.000	0.363	-1.020
-652.843	768.853	0.348	-0.951
-651.828	46.443	0.914	-0.852
-650.814	-153.602	1.012	0.070
-649.799	29.300	0.409	-0.349
-648.784	-41.161	-0.528	0.274
-647.770	2.041	0.173	-0.125
-646.755	-200.000	-0.097	0.609
-645.741	800.000	0.094	-0.410
-644.726	271.526	-0.135	-0.238
-643.711	800.000	0.265	0.792
-642.697	-105.350	-0.936	-0.214
-641.682	99.795	-0.382	0.444
-640.668	501.571	0.274	-0.635
-639.653	19.653	-0.576	0.465
-638.638	-200.000	0.017	-0.320
-637.624	118.676	0.258	0.320
-636.609	-53.738	-0.215	0.098
-635.595	-200.000	0.018	0.383
-634.580	-117.717	0.077	-0.014
-633.565	297.980	-0.136	-0.250
-632.551	202.147	0.077	-0.120
-631.536	-200.000	0.018	0.355
-630.522	-93.546	-0.808	-0.224
-629.507	39.248	0.327	-0.294
-628.492	-4.508	0.501	0.348
-627.478	-200.000	0.035	-0.350
-626.463	33.746	-0.753	-0.658
-625.449	-175.089	-0.838	0.023
-624.434	-10.199	0.393	-0.262
-623.419	708.827	0.035	-0.093
-622.405	612.773	0.141	0.355
-621.390	-108.951	-0.631	0.135
-620.376	253.020	-0.160	-0.274
-619.361	-91.023	-0.290	-0.083
-618.346	278.481	-0.350	-0.625
-617.332	2.563	-0.500	-0.363
-616.317	-154.681	0.162	0.011
-615.303	-136.321	-0.194	-0.023
-614.288	-200.000	0.072	0.365
-613.273	377.497	0.152	-0.312
-612.259	-200.000	0.063	-0.746
-611.244	126.413	0.253	-0.320
-610.230	-83.821	0.519	-0.166
-609.215	800.000	-0.153	-0.632
-608.201	800.000	0.075	-0.315
-607.186	-200.000	-0.001	-0.266
-606.171	30.807	0.605	-0.519
-605.157	456.461	-0.109	0.243
-604.142	248.204	0.146	0.247
-603.128	-200.000	-0.186	0.972
-602.113	26.852	-0.332	0.279
-601.098	-113.631	0.471	0.092
-600.084	-7.910	0.387	0.262
-599.069	800.000	0.139	0.478
-598.055	-200.000	-0.045	-0.244
-597.040	121.905	0.072	-0.090
-596.025	221.464	-0.281	-0.452
-595.011	-77.978	-0.797	-0.275
-593.996	-200.000	-0.069	0.989
-592.982	-174.957	-0.203	0.006
-591.967	-200.000	-0.008	0.135
-590.952	146.800	0.401	-0.540
-589.938	-200.000	-0.043	-0.530
-588.923	800.000	0.170	0.676
-587.909	-102.527	0.508	-0.122
-586.894	271.379	0.444	0.783
-585.879	-200.000	-0.142	-0.935
-584.865	-200.000	-0.055	-0.334
-583.850	-106.508	-0.344	-0.077
-582.836	328.699	-0.105	-0.202
-581.821	16.834	0.222	-0.176
-580.806	800.000	0.176	0.492
-579.792	-200.000	-0.018	-0.304
-578.777	43.457	0.335	0.306
-577.763	152.081	-0.340	-0.465
-576.748	174.257	-0.257	-0.372
-575.733	75.485	0.224	-0.236
-574.719	800.000	-0.121	0.465
-573.704	173.875	-0.148	-0.214
-572.690	42.632	0.037	0.034
-571.675	-27.906	0.459	0.266
-570.661	-200.000	0.026	0.449
-569.646	83.850	-0.577	0.630
-568.631	-58.251	0.266	-0.116
-567.617	2.509	0.380	0.275
-566.602	-92.076	0.876	0.248
-565.588	-200.000	0.123	0.820
-564.573	2.348	-0.416	0.301
-563.558	800.000	0.165	-0.600
-562.544	-7.672	-0.283	-0.191
-561.529	-56.435	0.243	0.108
-560.515	-200.000	0.021	-0.627
-559.500	128.532	0.119	0.152
-558.485	318.848	-0.053	0.101
-557.471	-200.000	-0.056	0.296
-556.456	-187.496	-0.509	0.007
-555.442	61.390	-0.571	0.568
-554.427	91.149	-0.348	-0.391
-553.412	-200.000	-0.035	0.560
-552.398	-128.126	0.525	0.075
-551.383	-56.853	0.696	-0.308
-550.369	-13.021	-0.476	0.310
-549.354	427.756	0.196	0.424
-548.339	-200.000	-0.081	0.418
-547.325	111.979	-0.342	-0.413
-546.310	-95.742	0.627	-0.168
-545.296	78.099	0.244	0.261
-544.281	-200.000	0.041	-0.220
-543.266	54.619	-0.398	-0.383
-542.252	-111.919	0.407	0.082
-541.237	-43.668	0.465	0.235
-540.223	-55.288	-0.588	0.264
-539.208	-4.887	-0.485	0.334
-538.193	-200.000	0.125	-0.693
-537.179	-41.763	0.797	-0.409
-536.164	-110.291	-0.790	0.164
-535.150	-29.733	0.504	-0.287
-534.135	510.855	-0.365	-0.849
-533.121	36.777	0.071	0.062
-532.106	136.278	-0.292	-0.381
-531.091	-200.000	0.135	0.713
-530.077	421.766	-0.047	-0.102
-529.062	39.850	-0.534	-0.479
-528.048	-151.630	-0.333	-0.025
-527.033	-130.812	0.630	0.085
-526.018	-200.000	0.033	0.208
-525.004	138.526	-0.322	0.422
-523.989	-200.000	-0.064	-0.312
-522.975	335.706	-0.218	0.422
-521.960	40.387	0.315	-0.283
-520.945	765.986	-0.287	-0.780
-519.931	-15.411	-0.098	0.062
-518.916	151.604	0.475	0.647
-517.902	463.619	-0.221	0.493
-516.887	-58.056	0.427	0.186
-515.872	-123.448	0.509	0.081
-514.858	-200.000	-0.230	1.146
-513.843	-69.873	0.191	-0.073
-512.829	-61.178	0.710	-0.299
-511.814	-200.000	-0.081	-0.649
-510.799	-18.540	-0.199	0.124
-509.785	24.517	-0.242	-0.200
-508.770	81.245	-0.225	0.243
-507.756	-67.426	0.120	0.047
-506.741	365.774	0.225	-0.453
-505.726	-69.687	0.378	0.144
-504.712	-68.934	0.473	-0.182
-503.697	-131.523	0.332	0.044
-502.683	44.649	0.493	-0.453
-501.668	36.606	-0.551	0.486
-500.653	-140.093	0.397	-0.042
-499.639	133.308	-0.218	-0.281
-498.624	12.341	0.520	0.400
-497.610	-55.005	0.813	-0.366
-496.595	-146.008	-1.199	0.106
-495.581	-109.786	-0.396	0.083
-494.566	800.000	-0.157	0.649
-493.551	-152.672	0.047	0.003
-492.537	-200.000	0.177	0.776
-491.522	-138.997	0.534	-0.058
-490.508	-96.199	-0.830	0.220
-489.493	800.000	0.136	0.535
-488.478	-200.000	-0.178	0.798
-487.464	-49.745	0.300	0.142
-486.449	-35.386	-0.513	-0.278
-485.435	386.223	-0.245	0.504
-484.420	58.735	-0.430	0.421
-483.405	577.205	-0.117	0.285
-482.391	198.149	-0.471	-0.719
-481.376	-90.193	-0.213	-0.062
-480.362	-165.856	-0.629	0.027
-479.347	-72.946	-0.729	0.267
-478.332	-73.301	-0.526	0.192
-477.318	178.857	0.456	-0.665
-476.303	-113.348	-0.440	-0.086
-475.289	267.833	-0.081	0.141
-474.274	-142.880	0.820	0.079
-473.259	-126.533	-0.763	0.113
-472.245	8.522	0.301	0.226
-471.230	312.586	-0.278	0.520
-470.216	-200.000	0.208	0.972
-469.201	-193.465	-0.336	0.003
-468.186	-107.314	-0.307	-0.067
-467.172	48.129	0.395	-0.368
-466.157	-200.000	-0.024	-0.155
-465.143	10.046	0.416	0.315
-464.128	155.578	-0.260	-0.357
-463.113	136.295	-0.316	0.411
-462.099	-84.913	-0.715	-0.224
-461.084	-200.000	0.130	-0.609
-460.070	-200.000	0.116	0.538
-459.055	-200.000	-0.035	-0.514
-458.040	-57.818	-0.412	-0.180
-457.026	800.000	0.133	0.441
-456.011	-78.545	0.285	-0.097
-454.997	-72.675	0.288	0.106
-453.982	800.000	-0.083	-0.287
-452.968	-159.937	0.263	-0.014
-451.953	779.346	-0.092	-0.251
-450.938	-164.344	-0.239	-0.011
-449.924	-115.544	-0.381	-0.071
-448.909	800.000	0.022	-0.078
-447.895	117.154	0.465	-0.570
-446.880	105.895	0.310	0.365
-445.865	800.000	-0.119	-0.364
-444.851	800.000	0.127	-0.393
-443.836	12.351	-0.284	-0.218
-442.822	-25.536	0.066	0.039
-441.807	-35.379	-0.742	-0.402
-440.792	14.693	0.028	0.022
-439.778	-48.671	0.516	0.247
-438.763	22.222	-0.609	0.495
-437.749	-200.000	0.071	-0.629
-436.734	-200.000	-0.076	-0.807
-435.719	36.143	-0.462	-0.405
-434.705	-53.683	0.776	0.353
-433.690	-82.983	-0.163	0.052
-432.676	80.227	0.651	0.698
-431.661	-200.000	0.165	-0.816
-430.646	-200.000	0.080	-0.420
-429.632	746.562	-0.375	1.006
-428.617	-33.953	-0.319	-0.175
-427.603	-40.804	-0.338	-0.174
-426.588	-21.800	0.328	0.198
-425.573	58.425	-0.095	-0.093
-424.559	-200.000	-0.169	0.822
-423.544	65.493	0.254	0.255
-422.530	-200.000	-0.065	-0.378
-421.515	-200.000	0.085	-0.627
-420.500	51.341	0.764	0.722
-419.486	602.419	0.102	-0.253
-418.471	107.136	0.069	0.082
-417.457	-11.819	-0.399	0.260
-416.442	-63.985	-0.629	0.256
-415.428	800.000	-0.142	0.396
-414.413	800.000	0.086	-0.370
-413.398	114.221	0.784	-0.950
-412.384	174.614	0.630	-0.907
-411.369	-119.015	0.824	-0.144
-410.355	-200.000	0.058	0.422
-409.340	-93.378	0.416	-0.115
-408.325	123.937	-0.689	-0.861
-407.311	-200.000	0.107	0.514
-406.296	319.005	-0.101	-0.190
-405.282	36.620	-0.461	0.405
-404.267	-200.000	-0.116	0.693
-403.252	197.014	0.269	0.408
-402.238	-92.294	0.744	0.208
-401.223	175.433	-0.418	0.603
-400.209	800.000	0.151	0.476
-399.194	-110.260	-0.695	0.144
-398.179	59.226	-0.400	-0.392
-397.165	-24.870	0.284	-0.168
-396.150	75.181	0.755	-0.791
-395.136	709.409	0.203	0.534
-394.121	-127.995	0.240	-0.034
-393.106	-105.260	-0.454	0.103
-392.092	-200.000	0.047	-0.519
-391.077	-137.618	-0.321	0.036
-390.063	97.450	0.324	0.370
-389.048	7.731	0.324	-0.241
-388.033	106.279	-0.026	0.031
-387.019	-200.000	0.139	-1.393
-386.004	-17.574	0.644	-0.403
-384.990	-20.818	0.383	0.233
-383.975	431.391	0.225	0.485
-382.960	800.000	-0.216	0.889
-381.946	96.037	0.336	0.382
-380.931	-151.577	0.414	0.030
-379.917	-200.000	-0.020	-0.552
-378.902	-162.203	-0.679	0.034
-377.888	800.000	-0.135	-0.516
-376.873	-29.784	-1.279	0.724
-375.858	489.623	0.238	-0.541
-374.844	17.762	-0.907	0.717
-373.829	592.155	-0.266	0.652
-372.815	144.853	-0.317	-0.420
-371.800	387.258	0.395	-0.811
-370.785	-200.000	-0.026	0.841
-369.771	165.867	0.166	-0.233
-368.756	-98.500	-0.431	0.110
-367.742	93.283	0.513	0.577
-366.727	155.520	-0.338	0.462
-365.712	-87.416	0.431	0.130
-364.698	-88.878	0.987	0.291
-363.683	38.132	0.722	0.638
-362.669	-85.441	-0.479	-0.148
-361.654	-121.672	-0.209	-0.034
-360.639	-166.991	-0.459	0.019
-359.625	-200.000	0.029	0.269
-358.610	3.123	-0.178	0.129
-357.596	-58.125	-0.814	-0.352
-356.581	-51.743	0.760	0.351
-355.566	-23.133	0.511	-0.305
-354.552	-133.443	-0.558	-0.070
-353.537	-73.208	-0.685	-0.249
-352.523	25.516	0.231	0.191
-351.508	67.575	0.329	0.333
-350.493	-20.829	-0.565	0.344
-349.479	-41.083	-0.199	0.102
-348.464	-169.530	0.370	0.013
-347.450	-200.000	0.147	-0.817
-346.435	-119.513	0.578	-0.099
-345.420	-200.000	0.041	-0.549
-344.406	-200.000	0.004	-0.209
-343.391	-42.504	0.268	0.135
-342.377	-200.000	-0.059	-0.298
-341.362	-70.900	0.556	-0.208
-340.348	800.000	-0.202	-0.664
-339.333	-23.130	-0.873	-0.521
-338.318	-101.979	1.107	0.265
-337.304	-200.000	-0.082	-0.445
-336.289	0.289	0.141	0.100
-335.275	-200.000	0.168	-0.766
-334.260	-200.000	-0.053	-0.284
-333.245	800.000	-0.155	-0.449
-332.231	800.000	0.201	-0.596
-331.216	-200.000	-0.017	-0.779
-330.202	442.669	-0.257	0.558
-329.187	-200.000	-0.092	0.680
-328.172	-40.781	0.688	-0.353
-327.158	40.310	0.315	-0.281
-326.143	111.193	-0.195	-0.233
-325.129	-70.485	0.601	0.226
-324.114	224.797	-0.380	-0.609
-323.099	-200.000	-0.009	-0.723
-322.085	99.315	0.474	-0.544
-321.070	800.000	-0.140	-0.497
-320.056	-83.246	0.277	-0.088
-319.041	800.000	-0.176	0.574
-318.026	-32.848	0.453	-0.249
-317.012	800.000	0.348	1.038
-315.997	-133.453	0.713	-0.089
-314.983	-150.403	0.498	0.038
-313.968	282.445	0.369	0.655
-312.953	-118.031	-0.237	-0.042
-311.939	-15.587	0.399	-0.252
-310.924	314.783	0.243	-0.454
-309.910	-110.947	-1.363	0.278
-308.895	140.064	0.258	-0.337
-307.880	-200.000	0.039	0.373
-306.866	-100.037	-0.772	-0.191
-305.851	-27.195	-0.578	0.334
-304.837	7.013	-0.157	0.116
-303.822	617.532	-0.185	0.459
-302.807	190.711	0.150	0.224
-301.793	-44.003	0.683	-0.340
-300.778	-46.257	-0.314	0.153
-299.764	48.854	0.394	-0.366
-298.749	-200.000	-0.046	-0.626
-297.735	32.670	-0.256	-0.219
-296.720	-81.047	-0.528	-0.173
-295.705	121.739	-0.395	-0.488
-294.691	101.181	-0.332	0.383
-293.676	71.879	0.060	0.061
-292.662	800.000	0.097	-0.276
-291.647	-98.912	0.311	-0.078
-290.632	210.479	-0.078	0.122
-289.618	88.981	-0.158	-0.174
-288.603	-200.000	0.174	-1.275
-287.589	146.432	0.136	0.181
-286.574	577.172	0.100	0.242
-285.559	520.700	-0.195	0.453
-284.545	154.468	0.183	0.248
-283.530	-47.431	-0.401	0.193
-282.516	-87.303	-0.269	-0.081
-281.501	-164.857	0.520	0.023
-280.486	523.845	0.289	0.671
-279.472	624.652	-0.264	0.658
-278.457	573.352	0.140	-0.338
-277.443	44.983	0.445	0.405
-276.428	-137.684	-0.297	-0.033
-275.413	-200.000	0.128	-0.709
-274.399	-200.000	0.029	-0.697
-273.384	800.000	-0.140	-0.417
-272.370	-99.686	-0.535	0.133
-271.355	369.068	-0.126	-0.253
-270.340	-200.000	0.033	0.181
-269.326	-43.790	-1.359	0.677
-268.311	-83.563	0.533	-0.169
-267.297	206.048	-0.424	-0.653
-266.282	-33.229	0.113	0.062
-265.267	97.192	0.470	0.533
-264.253	-41.475	0.511	0.260
-263.238	195.146	0.448	0.674
-262.224	375.380	0.228	-0.459
-261.209	293.960	-0.353	0.638
-260.195	13.547	0.600	0.461
-259.180	-120.623	-0.413	-0.069
-258.165	-11.137	-0.841	-0.548
-257.151	2.024	-0.419	0.299
-256.136	-112.559	-0.892	0.176
-255.122	-100.726	0.413	0.101
-254.107	800.000	-0.073	0.227
-253.092	-137.025	0.371	-0.042
-252.078	318.953	0.218	0.409
-251.063	-6.636	-0.426	-0.287
-250.049	-176.367	-0.806	0.021
-249.034	-125.065	-0.838	0.127
-248.019	-8.394	-0.283	-0.188
-247.005	24.238	-0.488	0.398
-245.990	694.517	0.521	1.350
-244.976	-42.785	0.120	-0.060
-243.961	-70.112	-0.714	0.269
-242.946	-117.017	0.278	0.050
-241.932	-69.984	-0.766	-0.288
-240.917	2.503	-0.603	0.432
-239.903	800.000	0.136	0.484
-238.888	186.172	0.531	-0.781
-237.873	-72.052	0.554	0.203
-236.859	201.083	0.329	0.501
-235.844	-200.000	0.068	-1.152
-234.830	318.967	0.392	-0.734
-233.815	-9.577	0.279	0.184
-232.800	225.618	0.272	-0.435
-231.786	-83.865	0.354	0.112
-230.771	35.621	0.764	-0.663
-229.757	-94.801	0.743	-0.199
-228.742	171.474	0.341	-0.483
-227.727	-31.229	0.453	0.252
-226.713	800.000	0.118	-0.423
-225.698	-43.561	-0.670	0.334
-224.684	-104.132	-0.289	-0.066
-223.669	61.960	-0.271	0.266
-222.655	576.994	0.101	0.243
-221.640	93.593	-0.143	0.160
-220.625	-146.942	0.546	0.046
-219.611	-20.102	-0.319	-0.194
-218.596	800.000	-0.043	-0.180
-217.582	-14.575	-0.212	-0.135
-216.567	-164.137	-0.397	-0.018
-215.552	61.715	0.813	-0.799
-214.538	-50.963	0.548	0.254
-213.523	604.892	-0.201	0.494
-212.509	-200.000	0.005	-0.122
-211.494	-200.000	-0.147	1.143
-210.479	800.000	-0.303	0.843
-209.465	-30.090	0.388	-0.218
-208.450	-72.723	0.652	0.237
-207.436	-58.474	1.041	0.446
-206.421	4.375	-0.566	0.409
-205.406	800.000	-0.173	0.498
-204.392	-200.000	-0.037	-0.473
-203.377	-200.000	-0.323	-0.001
-202.363	-200.000	-0.095	-0.412
-201.348	372.333	0.299	0.600
-200.333	-125.355	1.044	-0.157
-199.319	609.394	-0.238	-0.586
-198.304	-39.525	-0.505	-0.261
-197.290	-99.013	0.549	-0.137
-196.275	-20.670	0.816	0.494
-195.260	-7.520	-0.336	-0.224
-194.246	-200.000	-0.043	0.572
-193.231	-1.888	-0.904	0.628
-192.217	-200.000	0.041	-0.215
-191.202	123.700	0.369	-0.457
-190.187	-32.126	0.452	-0.249
-189.173	188.544	-0.042	0.062
-188.158	-26.942	0.357	-0.205
-187.144	86.850	0.110	-0.120
-186.129	101.358	-0.287	-0.330
-185.114	-127.858	-0.386	0.055
-184.100	-155.320	-0.216	0.014
-183.085	-89.016	-0.472	0.138
-182.071	179.885	-0.430	-0.622
-181.056	-54.935	-1.013	-0.450
-180.042	153.335	0.268	0.362
-179.027	-200.000	-0.001	0.581
-178.012	86.504	-0.395	0.429
-176.998	800.000	-0.131	-0.409
-175.983	-200.000	0.081	0.386
-174.969	-200.000	0.001	-0.243
-173.954	541.094	-0.185	-0.433
-172.939	68.484	-0.527	0.533
-171.925	-200.000	0.064	-0.295
-170.910	328.287	0.629	1.190
-169.896	-200.000	-0.032	0.486
-168.881	38.025	-1.024	0.898
-167.866	691.137	0.292	-0.755
-166.852	-54.935	-0.766	-0.340
-165.837	32.833	0.661	-0.564
-164.823	-200.000	0.019	-0.233
-163.808	213.911	0.577	0.900
-162.793	-23.854	0.028	0.017
-161.779	-63.113	0.676	-0.275
-160.764	310.141	0.593	-1.093
-159.750	800.000	0.052	0.144
-158.735	431.564	0.127	0.271
-157.720	800.000	0.086	0.350
-156.706	800.000	-0.060	0.211
-155.691	357.695	-0.301	-0.592
-154.677	-200.000	-0.009	0.182
-153.662	-4.617	0.724	-0.492
-152.647	707.949	0.021	-0.054
-151.633	800.000	-0.055	-0.184
-150.618	-200.000	-0.017	-0.620
-149.604	-105.027	0.834	-0.188
-148.589	333.689	-0.073	-0.139
-147.574	-200.000	-0.108	-0.486
-146.560	-200.000	-0.060	-0.649
-145.545	-79.633	0.808	-0.268
-144.531	53.641	0.723	0.683
-143.516	-200.000	0.118	-0.645
-142.502	-21.856	1.029	-0.616
-141.487	162.492	-0.561	-0.774
-140.472	429.434	-0.145	0.309
-139.458	92.581	-0.473	-0.526
-138.443	160.271	-0.182	-0.250
-137.429	28.718	-0.768	-0.640
-136.414	-200.000	0.084	-0.414
-135.399	-111.661	0.297	0.059
-134.385	96.576	0.258	-0.290
-133.370	-94.526	0.151	0.040
-132.356	-58.576	-0.703	-0.300
-131.341	420.420	-0.327	-0.690
-130.326	-200.000	0.036	-0.251
-129.312	-44.419	0.296	-0.146
-128.297	-132.524	0.191	-0.024
-127.283	79.904	-0.046	0.048
-126.268	800.000	-0.116	-0.358
-125.253	188.235	-0.555	0.817
-124.239	-97.879	-0.662	0.168
-123.224	196.217	-0.062	-0.092
-122.210	38.738	-0.729	0.640
-121.195	620.703	-0.137	-0.338
-120.180	-200.000	0.058	1.057
-119.166	800.000	-0.228	0.694
-118.151	800.000	-0.328	-1.072
-117.137	129.459	0.621	-0.780
-116.122	-157.647	0.230	0.013
-115.107	113.429	-0.209	0.250
-114.093	800.000	-0.144	-0.541
-113.078	-200.000	-0.096	-0.555
-112.064	154.309	0.263	0.355
-111.049	595.749	0.346	0.842
-110.034	163.885	-0.335	-0.464
-109.020	-55.999	0.878	-0.385
-108.005	-200.000	-0.030	0.134
-106.991	-158.983	-0.400	-0.022
-105.976	22.804	0.379	-0.305
-104.962	41.165	0.580	0.515
-103.947	-45.501	-0.766	0.373
-102.932	-81.870	-0.195	0.063
-101.918	142.631	-0.648	-0.846
-100.903	800.000	-0.062	-0.180
-99.889	-62.759	-0.346	0.141
-98.874	616.439	0.226	0.557
-97.859	-101.384	0.151	0.036
-96.845	800.000	0.086	0.295
-95.830	-154.802	0.342	0.022
-94.816	-26.133	0.327	0.189
-93.801	-48.073	0.464	-0.220
-92.786	-115.224	0.134	-0.025
-91.772	470.707	0.094	0.207
-90.757	-200.000	0.036	0.379
-89.743	260.867	-0.319	0.541
-88.728	387.130	0.440	-0.893
-87.713	65.236	-0.415	-0.412
-86.699	654.718	-0.282	0.710
-85.684	-54.609	-0.872	0.387
-84.670	-97.295	-0.861	-0.221
-83.655	-19.228	-0.027	-0.017
-82.640	-35.425	0.531	0.283
-81.626	134.396	0.837	1.066
-80.611	-110.305	0.582	0.119
-79.597	459.418	0.261	0.569
-78.582	-200.000	0.014	-0.215
-77.567	-183.566	-0.658	-0.011
-76.553	800.000	0.152	0.608
-75.538	134.693	0.158	0.202
-74.524	170.364	-0.109	0.153
-73.509	-144.503	0.402	0.037
-72.494	-136.203	0.305	-0.035
-71.480	23.244	-0.201	-0.162
-70.465	-86.357	1.237	0.374
-69.451	-25.413	0.854	0.496
-68.436	-21.720	-0.120	-0.071
-67.422	210.501	0.308	0.474
-66.407	166.953	-0.274	-0.382
-65.392	-62.551	0.426	-0.174
-64.378	-200.000	0.062	0.629
-63.363	-116.813	0.220	0.040
-62.349	35.598	0.127	0.110
-61.334	-47.542	-1.035	-0.493
-60.319	800.000	-0.063	0.254
-59.305	-134.280	-0.833	-0.100
-58.290	22.372	1.497	1.200
-57.276	-200.000	0.234	1.482
-56.261	-200.000	97.325	604.864
-55.246	662.098	1362.353	3445.179
-54.232	202.217	2538.405	3841.906
-53.217	114.103	2248.565	2683.626
-52.203	41.744	1880.106	1671.491
-51.188	35.103	1673.322	1437.940
-50.173	32.527	1630.756	1382.422
-49.159	51.668	1679.722	1566.814
-48.144	52.481	1696.078	1588.056
-47.130	34.928	1655.896	1421.438
-46.115	31.935	1642.007	1387.367
-45.100	31.888	1636.518	1382.324
-44.086	31.864	1634.972	1380.788
-43.071	31.850	1632.059	1378.167
-42.057	31.936	1629.899	1376.924
-41.042	31.882	1626.982	1374.010
-40.027	31.872	1625.316	1372.469
-39.013	31.626	1624.133	1369.620
-37.998	31.723	1623.206	1369.490
-36.984	31.728	1620.758	1367.410
-35.969	31.726	1619.552	1366.324
-34.954	31.865	1618.373	1366.290
-33.940	31.888	1615.072	1363.612
-32.925	32.051	1613.906	1363.755
-31.911	31.810	1612.106	1360.436
-30.896	31.965	1609.658	1359.441
-29.881	32.038	1608.089	1358.586
-28.867	31.911	1606.235	1356.047
-27.852	31.943	1605.563	1355.660
-26.838	31.959	1603.583	1354.048
-25.823	31.870	1602.595	1352.516
-24.809	31.908	1601.292	1351.636
-23.794	32.006	1599.659	1350.910
-22.779	32.015	1598.364	1349.830
-21.765	32.149	1596.431	1349.111
-20.750	32.011	1594.862	1346.735
-19.736	32.036	1594.297	1346.383
-18.721	32.132	1592.137	1345.198
-17.706	31.900	1591.684	1343.098
-16.692	32.046	1589.577	1342.314
-15.677	32.119	1588.311	1341.713
-14.663	32.051	1586.750	1339.855
-13.648	32.032	1584.886	1338.090
-12.633	31.830	1584.806	1336.532
-11.619	31.892	1583.109	1335.487
-10.604	31.938	1581.662	1334.539
-9.590	31.940	1579.555	1332.721
-8.575	32.000	1578.879	1332.531
-7.560	32.020	1578.206	1332.047
-6.546	31.963	1576.138	1329.848
-5.531	32.030	1575.265	1329.528
-4.517	32.013	1573.645	1327.990
-3.502	31.868	1573.710	1326.969
-2.487	31.857	1571.685	1325.129
-1.473	31.521	1559.976	1312.846
-0.458	28.756	1541.297	1277.871
0.556	26.620	1540.952	1244.590
1.571	24.499	1563.904	1248.210
2.586	23.747	1576.129	1252.553
3.600	21.062	1522.985	1191.896
4.615	12.750	1414.439	1053.881
5.629	4.860	1352.781	959.409
6.644	3.638	1342.792	944.765
7.659	3.398	1343.395	943.637
8.673	3.631	1341.083	943.358
9.688	3.414	1339.332	940.715
10.702	3.427	1336.417	938.667
11.717	6.683	1344.180	963.945
12.731	15.755	1359.048	1030.325
13.746	23.419	1371.177	1086.605
14.761	25.067	1374.046	1098.897
15.775	24.577	1372.940	1094.911
16.790	24.476	1370.872	1092.548
17.804	23.981	1370.259	1088.938
18.819	23.917	1369.218	1087.618
19.834	24.272	1368.639	1089.236
20.848	24.177	1368.681	1088.591
21.863	24.115	1367.677	1087.320
22.877	24.179	1367.285	1087.299
23.892	23.901	1366.015	1084.498
24.907	23.966	1364.457	1083.563
25.921	24.037	1363.038	1082.769
26.936	24.059	1363.151	1082.900
27.950	24.230	1361.509	1082.540
28.965	23.832	1361.737	1080.203
29.980	24.241	1359.426	1080.756
30.994	24.226	1358.284	1079.662
32.009	24.343	1357.723	1079.826
33.023	24.445	1355.907	1078.906
34.038	24.100	1355.804	1076.640
35.053	24.209	1353.803	1075.619
36.067	23.754	1354.655	1073.449
37.082	24.005	1352.694	1073.312
38.096	23.951	1352.045	1072.379
39.111	24.186	1350.927	1072.815
40.126	24.071	1350.548	1071.726
41.140	23.936	1349.496	1069.985
42.155	23.870	1349.160	1069.225
43.169	23.605	1348.945	1067.366
44.184	23.617	1349.127	1067.488
45.199	23.820	1347.867	1067.619
46.213	23.819	1347.546	1067.261
47.228	24.021	1346.820	1067.805
48.242	24.187	1345.459	1067.622
49.257	24.119	1345.396	1067.076
50.271	24.152	1343.249	1065.476
51.286	23.941	1342.178	1063.267
52.301	23.938	1341.122	1062.322
53.315	23.937	1340.887	1062.032
54.330	23.885	1339.365	1060.425
55.344	23.712	1337.310	1057.670
56.359	24.001	1336.644	1058.774
57.374	23.825	1335.118	1056.427
58.388	23.603	1335.730	1055.496
59.403	23.480	1335.024	1054.115
60.417	23.725	1334.058	1054.713
61.432	23.740	1332.647	1053.594
62.447	23.328	1333.122	1051.430
63.461	23.590	1331.004	1051.220
64.476	23.660	1329.510	1050.362
65.490	23.303	1329.309	1047.994
66.505	23.440	1327.676	1047.422
67.520	23.451	1326.698	1046.626
68.534	23.631	1325.142	1046.366
69.549	23.205	1324.852	1043.532
70.563	23.097	1324.137	1042.240
71.578	23.341	1323.005	1042.696
72.593	23.182	1321.173	1040.224
73.607	23.403	1320.573	1040.957
74.622	23.327	1319.659	1039.702
75.636	23.098	1319.579	1038.200
76.651	23.335	1318.829	1038.907
77.666	23.506	1318.237	1039.353
78.680	23.334	1318.482	1038.448
79.695	23.307	1317.388	1037.334
80.709	23.770	1316.703	1039.411
81.724	23.769	1316.121	1038.853
82.739	23.934	1315.662	1039.365
83.753	24.010	1314.368	1038.697
84.768	24.261	1314.331	1040.039
85.782	23.976	1314.211	1038.188
86.797	24.327	1311.063	1037.650
87.812	24.270	1310.746	1036.981
88.826	23.823	1310.467	1034.065
89.841	24.145	1308.820	1034.544
90.855	24.064	1307.582	1033.007
91.870	24.321	1306.983	1033.932
92.884	24.693	1306.057	1035.262
93.899	24.491	1305.545	1033.593
94.914	24.391	1305.394	1032.805
95.928	24.614	1303.269	1032.323
96.943	24.280	1303.530	1030.504
97.957	24.358	1302.955	1030.411
98.972	24.227	1301.566	1028.466
99.987	24.202	1300.860	1027.671
101.001	24.258	1299.212	1026.601
102.016	24.019	1299.903	1025.678
103.030	24.205	1297.980	1025.141
104.045	24.283	1297.433	1025.070
105.060	24.014	1295.704	1022.063
106.074	23.898	1294.436	1020.310
107.089	23.554	1293.604	1017.592
108.103	23.668	1290.971	1016.080
109.118	23.499	1289.418	1013.807
110.133	23.483	1288.628	1013.003
111.147	23.537	1287.745	1012.526
112.162	23.474	1287.167	1011.623
113.176	23.446	1285.801	1010.300
114.191	23.839	1284.465	1011.399
115.206	23.893	1283.669	1010.991
116.220	23.754	1283.331	1009.844
117.235	23.788	1281.798	1008.742
118.249	23.549	1280.037	1005.912
119.264	23.514	1279.630	1005.301
120.279	23.471	1279.433	1004.817
121.293	23.475	1278.120	1003.718
122.308	23.152	1276.845	1000.801
123.322	23.295	1275.420	1000.403
124.337	23.167	1274.739	999.060
125.352	23.087	1274.522	998.350
126.366	23.314	1273.257	998.549
127.381	23.304	1272.268	997.630
128.395	23.233	1270.360	995.644
129.410	22.839	1270.230	993.236
130.424	23.170	1270.357	995.111
131.439	23.234	1268.680	994.068
132.454	23.533	1267.750	994.929
133.468	23.581	1268.231	995.490
134.483	23.748	1267.059	995.417
135.497	23.494	1266.536	993.496
136.512	23.717	1265.322	993.701
137.527	23.624	1263.959	992.022
138.541	23.499	1263.957	991.235
139.556	23.895	1260.993	991.031
140.570	23.917	1261.459	991.435
141.585	23.925	1260.891	990.941
142.600	24.303	1259.852	992.143
143.614	24.275	1259.218	991.398
144.629	23.901	1258.472	988.648
145.643	24.032	1256.677	987.876
146.658	24.053	1255.758	987.184
147.673	23.863	1254.254	984.860
148.687	23.717	1253.457	983.340
149.702	23.299	1253.559	981.016
150.716	23.436	1249.923	978.840
151.731	23.125	1249.355	976.596
152.746	23.575	1247.248	977.342
153.760	23.598	1248.164	978.099
154.775	23.803	1247.446	978.580
155.789	24.189	1245.271	978.904
156.804	23.971	1244.479	977.001
157.819	23.783	1244.000	975.508
158.833	24.097	1243.573	976.806
159.848	24.210	1242.405	976.425
160.862	24.175	1242.294	976.055
161.877	23.702	1241.447	972.716
162.892	23.571	1240.127	970.877
163.906	23.639	1238.716	970.060
164.921	23.384	1236.327	966.714
165.935	23.512	1237.213	968.019
166.950	24.096	1235.451	969.735
167.964	24.021	1235.898	969.590
168.979	24.017	1233.887	967.905
169.994	23.847	1233.668	966.726
171.008	23.670	1232.839	965.025
172.023	23.630	1232.315	964.315
173.037	23.979	1232.834	966.530
174.052	24.020	1232.056	966.058
175.067	23.880	1230.301	963.839
176.081	23.429	1229.776	960.898
177.096	23.807	1227.912	961.400
178.110	23.479	1227.305	959.064
179.125	23.443	1227.261	958.753
180.140	23.690	1225.747	958.822
181.154	24.066	1224.403	959.712
182.169	23.870	1224.122	958.349
183.183	24.112	1222.817	958.547
184.198	24.240	1221.655	958.236
185.213	24.001	1221.717	956.914
186.227	24.279	1219.469	956.562
187.242	24.348	1217.902	955.617
188.256	24.168	1218.049	954.683
189.271	24.301	1217.680	955.024
190.286	24.096	1215.960	952.495
191.300	23.831	1214.321	949.710
192.315	23.513	1214.924	948.395
193.329	23.845	1214.728	949.933
194.344	23.691	1213.589	948.141
195.359	23.699	1213.289	947.864
196.373	23.622	1212.598	946.826
197.388	23.484	1212.003	945.545
198.402	23.798	1212.031	947.154
199.417	24.362	1211.824	949.913
200.432	24.490	1210.515	949.488
201.446	24.416	1210.086	948.669
202.461	24.352	1210.306	948.420
203.475	24.224	1210.235	947.601
204.490	24.129	1207.082	944.545
205.504	23.831	1205.461	941.613
206.519	23.665	1203.928	939.452
207.534	23.761	1203.526	939.568
208.548	23.275	1203.753	937.085
209.563	23.527	1202.157	937.094
210.577	23.617	1200.871	936.484
211.592	23.530	1200.430	935.596
212.607	24.112	1201.403	939.343
213.621	24.341	1200.019	939.387
214.636	23.925	1198.153	935.654
215.650	23.770	1198.075	934.695
216.665	24.160	1196.301	935.277
217.680	24.304	1196.133	935.818
218.694	24.409	1195.406	935.719
219.709	24.129	1195.398	934.158
220.723	23.931	1194.034	931.975
221.738	24.148	1192.961	932.191
222.753	24.055	1191.645	930.592
223.767	23.682	1192.080	928.899
224.782	24.146	1191.352	930.671
225.796	24.093	1190.798	929.883
226.811	24.440	1190.500	931.376
227.826	24.013	1189.380	928.192
228.840	24.117	1188.025	927.593
229.855	23.986	1187.250	926.225
230.869	23.906	1185.852	924.637
231.884	23.804	1185.415	923.688
232.899	23.752	1184.859	922.899
233.913	23.600	1183.746	921.162
234.928	23.791	1183.655	922.003
235.942	23.823	1182.016	920.810
236.957	23.598	1180.941	918.723
237.972	23.473	1180.988	918.032
238.986	23.602	1180.250	918.044
240.001	23.610	1179.594	917.497
241.015	23.672	1178.413	916.818
242.030	23.706	1177.637	916.307
243.045	23.929	1177.788	917.492
244.059	24.121	1176.243	917.197
245.074	23.924	1176.540	916.333
246.088	24.128	1175.518	916.506
247.103	24.357	1174.407	916.735
248.117	24.413	1174.121	916.718
249.132	24.448	1173.536	916.363
250.147	24.924	1173.738	918.881
251.161	25.027	1172.677	918.498
252.176	25.177	1172.261	918.858
253.190	24.803	1171.047	915.913
254.205	24.942	1170.981	916.490
255.220	25.150	1171.086	917.556
256.234	25.041	1170.779	916.677
257.249	24.912	1170.419	915.652
258.263	25.008	1169.198	915.107
259.278	24.949	1168.584	914.246
260.293	25.054	1167.919	914.181
261.307	25.093	1167.650	914.087
262.322	25.186	1166.548	913.616
263.336	25.154	1166.170	913.079
264.351	24.875	1165.684	911.195
265.366	24.885	1164.525	910.261
266.380	25.098	1164.074	910.910
267.395	24.945	1163.415	909.535
268.409	24.759	1163.076	908.249
269.424	24.624	1161.952	906.602
270.439	24.674	1162.693	907.355
271.453	24.749	1160.669	906.074
272.468	24.548	1159.828	904.323
273.482	24.458	1159.341	903.404
274.497	24.641	1158.101	903.283
275.512	24.511	1158.079	902.533
276.526	24.547	1157.111	901.880
277.541	24.937	1155.809	902.751
278.555	24.712	1155.785	901.516
279.570	24.741	1155.927	901.692
280.585	25.043	1155.610	902.891
281.599	25.144	1153.092	901.352
282.614	24.761	1152.493	898.879
283.628	24.239	1152.557	896.223
284.643	24.288	1151.069	895.232
285.657	24.728	1149.688	896.285
286.672	24.784	1148.150	895.290
287.687	25.087	1147.104	895.907
288.701	24.819	1147.167	894.539
289.716	24.742	1147.090	894.012
290.730	24.838	1145.602	893.255
291.745	24.389	1146.275	891.459
292.760	24.846	1145.051	892.708
293.774	24.870	1143.983	891.915
294.789	24.957	1143.068	891.556
295.803	24.950	1143.839	892.043
296.818	24.951	1142.403	890.847
297.833	24.900	1141.266	889.629
298.847	24.747	1140.267	888.014
299.862	24.581	1139.968	886.878
300.876	24.675	1139.072	886.568
301.891	24.828	1138.514	886.816
302.906	25.180	1138.121	888.175
303.920	25.395	1137.545	888.708
304.935	25.215	1137.167	887.446
305.949	25.214	1137.441	887.575
306.964	25.375	1136.726	887.735
307.979	25.176	1136.348	886.379
308.993	25.082	1135.739	885.358
310.008	25.125	1134.338	884.401
311.022	25.304	1132.986	884.149
312.037	25.455	1131.557	883.700
313.052	24.996	1130.730	880.721
314.066	24.621	1130.984	878.994
315.081	24.562	1128.886	876.996
316.095	24.302	1128.543	875.375
317.110	24.518	1127.970	875.917
318.125	24.321	1127.119	874.212
319.139	24.524	1125.864	874.153
320.154	24.700	1125.928	874.990
321.168	24.537	1124.348	872.885
322.183	24.829	1123.874	873.866
323.197	24.766	1123.545	873.224
324.212	24.598	1123.971	872.659
325.227	24.506	1123.586	871.832
326.241	24.494	1123.192	871.391
327.256	24.776	1121.511	871.384
328.270	24.496	1120.473	869.141
329.285	24.519	1120.401	869.116
330.300	25.030	1118.016	869.672
331.314	24.681	1117.584	867.566
332.329	24.576	1116.761	866.339
333.343	24.597	1116.522	866.182
334.358	24.727	1116.060	866.374
335.373	25.096	1115.611	867.737
336.387	25.299	1114.335	867.649
337.402	25.325	1113.877	867.339
338.416	25.283	1113.651	866.885
339.431	25.031	1113.808	865.714
340.446	25.556	1111.909	866.694
341.460	25.478	1112.803	866.935
342.475	25.551	1111.926	866.526
343.489	25.866	1109.026	865.707
344.504	25.949	1109.564	866.446
345.519	25.623	1109.844	865.023
346.533	25.766	1108.423	864.523
347.548	25.883	1107.842	864.554
348.562	25.503	1106.903	861.923
349.577	25.539	1105.814	861.174
350.592	25.205	1104.555	858.520
351.606	25.135	1104.138	857.781
352.621	24.970	1103.579	856.483
353.635	24.870	1102.647	855.206
354.650	24.763	1101.123	853.438
355.665	24.713	1101.467	853.392
356.679	25.178	1100.874	855.075
357.694	25.306	1100.268	855.138
358.708	25.462	1099.123	854.913
359.723	25.297	1099.593	854.420
360.738	25.116	1099.042	853.056
361.752	25.392	1097.527	853.113
362.767	25.074	1096.505	850.737
363.781	25.090	1096.473	850.711
364.796	25.054	1096.881	850.779
365.810	25.587	1096.645	853.052
366.825	25.682	1096.101	853.001
367.840	26.027	1095.924	854.423
368.854	26.148	1095.380	854.498
369.869	25.970	1094.203	852.662
370.883	25.692	1092.851	850.219
371.898	25.835	1091.894	850.073
372.913	25.604	1091.279	848.430
373.927	25.482	1091.898	848.263
374.942	25.667	1091.470	848.726
375.956	25.893	1089.643	848.296
376.971	25.454	1089.743	846.233
377.986	25.938	1089.539	848.274
379.000	25.960	1088.798	847.726
380.015	25.643	1089.073	846.373
381.029	25.810	1087.810	846.102
382.044	25.734	1087.387	845.344
383.059	25.748	1085.567	843.920
384.073	26.105	1084.765	844.892
385.088	25.993	1084.160	843.822
386.102	26.002	1083.587	843.344
387.117	25.598	1081.945	840.106
388.132	25.442	1081.442	838.914
389.146	25.460	1080.072	837.857
390.161	25.475	1079.274	837.234
391.175	25.375	1078.710	836.260
392.190	25.386	1079.474	836.828
393.205	26.179	1077.221	838.693
394.219	25.982	1077.040	837.563
395.234	25.833	1076.009	835.994
396.248	25.516	1075.088	833.735
397.263	25.637	1073.043	832.635
398.278	25.238	1073.761	831.271
399.292	25.508	1073.025	831.876
400.307	25.703	1072.331	832.166
401.321	25.360	1070.896	829.398
402.336	25.128	1071.178	828.469
403.350	24.977	1069.880	826.696
404.365	25.276	1069.778	827.921
405.380	25.661	1069.326	829.275
406.394	25.656	1068.706	828.699
407.409	25.643	1067.267	827.448
408.423	25.950	1067.295	828.806
409.438	26.077	1067.942	829.820
410.453	26.371	1066.599	830.056
411.467	26.185	1065.139	827.992
412.482	26.228	1064.817	827.865
413.496	26.097	1064.942	827.289
414.511	26.104	1064.365	826.799
415.526	26.158	1064.142	826.801
416.540	26.471	1062.848	827.153
417.555	26.548	1062.350	827.046
418.569	26.154	1062.338	825.163
419.584	26.054	1061.582	824.043
420.599	25.793	1060.694	822.090
421.613	154.755	1404.424	1794.947
422.628	142.253	1454.492	1795.018
