DTS Sentinel unit serial number:	SN413079Multiplexer serial number:	ORYXHardware model number:	OX4-SRSoftware version number:	ORYX F/W v4.00 Oryx Data Collector v3.7.2.0data status	okinstallation	princeton_trtdifferential loss correction	single-endedforward channel	channel 2reverse channel	N/Adate	2019/09/12time	19:55:49forward acquisition time	15.00reverse acquisition time	0.00gamma	496.2192k internal	0.2327k external	0.2327temperature offset calibration	1.0163default loss term (dB/km)	0.3790temperature slope calibration	1.0000multiplexer offset coefficient	1.0000multiplexer slope coefficient	1.0000fibre end	0.00T internal ref (°C)	31.81T ext. ref 1 (°C)	3.49T ext. ref 2 (°C)	26.42length (m)	temperature (°C)	Stokes	anti-Stokes-747.200	800.000	-0.224	-0.638
-746.185	-70.960	0.219	0.083
-745.171	10.165	0.715	0.548
-744.156	-89.776	0.130	0.038
-743.142	-200.000	0.179	-0.865
-742.127	-200.000	-0.067	0.461
-741.112	69.575	0.146	-0.152
-740.098	-200.000	0.046	-0.242
-739.083	376.570	-0.490	-1.008
-738.069	-68.695	-0.681	-0.265
-737.054	61.849	0.428	-0.430
-736.039	76.839	-0.330	0.353
-735.025	410.542	-0.214	-0.458
-734.010	-10.828	-0.581	0.387
-732.996	800.000	-0.148	-0.515
-731.981	-49.656	-0.761	0.365
-730.966	800.000	0.204	0.664
-729.952	54.300	-0.325	-0.315
-728.937	-54.639	0.435	-0.198
-727.923	-200.000	0.044	-0.259
-726.908	35.282	-0.441	-0.389
-725.894	388.903	-0.475	0.990
-724.879	123.873	0.257	0.326
-723.864	-93.934	-1.062	-0.294
-722.850	327.118	0.077	0.149
-721.835	-108.996	-0.221	0.047
-720.821	-77.402	-0.250	-0.088
-719.806	7.060	-0.554	-0.416
-718.791	800.000	-0.189	-0.815
-717.777	-200.000	-0.070	-0.887
-716.762	-83.378	-0.410	-0.132
-715.748	-200.000	0.085	0.543
-714.733	376.946	-0.163	-0.336
-713.718	106.194	0.428	-0.510
-712.704	-200.000	-0.040	0.334
-711.689	-114.944	0.199	-0.038
-710.675	28.709	0.403	-0.343
-709.660	-200.000	-0.012	0.113
-708.645	123.087	0.069	0.087
-707.631	800.000	0.163	-0.660
-706.616	-200.000	-0.002	0.064
-705.602	171.442	-0.378	0.545
-704.587	41.876	-0.237	0.216
-703.572	-200.000	0.118	0.551
-702.558	286.427	-0.183	0.333
-701.543	204.551	-0.243	-0.379
-700.529	-8.289	-0.757	-0.512
-699.514	-2.448	-0.232	0.164
-698.499	-12.445	-0.473	0.311
-697.485	31.527	0.446	0.386
-696.470	303.587	-0.230	-0.428
-695.456	-200.000	0.033	-0.505
-694.441	10.083	-1.025	-0.784
-693.426	-1.122	0.558	-0.397
-692.412	28.693	-0.379	-0.323
-691.397	289.762	-0.255	-0.465
-690.383	-200.000	-0.070	-0.472
-689.368	-200.000	0.010	0.445
-688.354	-200.000	0.052	-0.471
-687.339	-150.857	0.484	-0.037
-686.324	800.000	-0.044	-0.131
-685.310	23.391	0.581	-0.481
-684.295	643.362	-0.117	-0.299
-683.281	184.519	0.217	0.324
-682.266	22.376	-0.643	-0.528
-681.251	-0.331	0.999	-0.714
-680.237	205.394	-0.260	0.405
-679.222	-162.933	0.277	0.014
-678.208	-200.000	0.084	-0.447
-677.193	45.311	0.165	0.153
-676.178	-200.000	-0.129	-0.748
-675.164	-200.000	-0.194	0.941
-674.149	559.657	-0.167	0.406
-673.135	-200.000	0.215	-1.002
-672.120	50.502	-0.344	-0.327
-671.105	-101.332	-0.824	0.202
-670.091	-158.982	-0.729	-0.042
-669.076	-74.310	0.448	-0.163
-668.062	-200.000	0.051	-0.280
-667.047	-77.908	0.939	0.326
-666.032	109.534	-0.385	-0.463
-665.018	-26.396	-0.528	-0.311
-664.003	-8.672	-0.353	-0.238
-662.989	-119.721	0.320	0.056
-661.974	-53.726	0.454	-0.208
-660.959	800.000	0.257	-1.024
-659.945	-12.632	-0.588	0.385
-658.930	800.000	0.092	0.361
-657.916	-72.571	0.217	0.081
-656.901	-200.000	-0.085	-1.219
-655.886	-112.469	-0.367	-0.074
-654.872	-151.079	-0.450	-0.034
-653.857	-47.477	0.038	-0.019
-652.843	499.285	-0.261	0.605
-651.828	800.000	0.030	-0.127
-650.814	64.007	-0.077	0.078
-649.799	199.075	-0.254	-0.391
-648.784	-31.216	0.028	-0.016
-647.770	-139.374	-0.530	0.057
-646.755	149.386	0.068	-0.093
-645.741	41.798	0.352	-0.320
-644.726	-94.532	-1.004	0.275
-643.711	-200.000	0.067	-0.488
-642.697	-152.827	-0.375	0.027
-641.682	99.769	-0.172	-0.200
-640.668	-82.699	0.485	-0.158
-639.653	-132.910	-0.897	-0.115
-638.638	-144.208	0.438	0.041
-637.624	-40.921	0.274	0.142
-636.609	-200.000	-0.018	-0.145
-635.595	568.719	0.248	-0.606
-634.580	120.236	0.254	0.317
-633.565	49.262	-0.495	0.467
-632.551	-200.000	-0.011	-0.468
-631.536	72.638	-0.239	0.250
-630.522	9.534	0.619	-0.470
-629.507	55.210	-0.244	-0.237
-628.492	-43.131	0.242	0.123
-627.478	441.205	0.275	-0.604
-626.463	598.965	-0.065	0.161
-625.449	-132.596	-0.591	-0.076
-624.434	27.593	0.876	-0.740
-623.419	549.314	-0.327	-0.787
-622.405	124.138	-0.171	-0.216
-621.390	128.650	0.168	-0.215
-620.376	79.017	0.220	-0.236
-619.361	-167.394	0.119	0.005
-618.346	-60.307	0.270	-0.115
-617.332	189.764	0.123	-0.185
-616.317	-1.016	-0.045	-0.032
-615.303	34.165	-0.590	-0.516
-614.288	-186.818	-1.243	0.017
-613.273	-121.776	-0.254	0.042
-612.259	0.964	0.328	-0.236
-611.244	-120.260	-0.297	0.051
-610.230	258.174	0.241	0.415
-609.215	-200.000	0.132	-0.960
-608.201	-140.660	-0.481	-0.050
-607.186	58.965	0.527	0.519
-606.171	-200.000	0.010	-0.116
-605.157	235.562	-0.409	-0.678
-604.142	800.000	-0.195	-0.673
-603.128	-11.842	0.335	-0.220
-602.113	800.000	0.107	-0.343
-601.098	121.085	-0.491	-0.613
-600.084	465.253	-0.227	0.508
-599.069	166.669	-0.273	0.388
-598.055	-50.671	-0.229	-0.108
-597.040	120.464	-0.266	0.331
-596.025	-200.000	-0.058	-0.688
-595.011	-24.112	0.864	-0.517
-593.996	315.977	0.253	-0.479
-592.982	54.926	0.416	-0.402
-591.967	456.663	-0.334	0.742
-590.952	-58.419	0.400	0.174
-589.938	153.800	-0.251	0.345
-588.923	800.000	-0.177	0.644
-587.909	-200.000	0.200	-1.193
-586.894	800.000	0.009	-0.028
-585.879	-8.256	0.273	0.184
-584.865	-74.978	0.545	0.195
-583.850	-86.407	0.534	0.165
-582.836	-200.000	0.094	-0.443
-581.821	655.475	0.339	0.871
-580.806	-200.000	0.053	0.241
-579.792	35.604	0.313	0.275
-578.777	-46.383	0.196	-0.096
-577.763	-200.000	-0.134	-0.643
-576.748	82.184	-0.820	-0.891
-575.733	-149.901	-0.417	-0.033
-574.719	289.175	0.155	-0.281
-573.704	405.232	0.241	0.509
-572.690	24.366	-0.076	0.063
-571.675	206.481	0.543	0.846
-570.661	-200.000	0.089	1.045
-569.646	-35.252	1.077	0.587
-568.631	50.759	-0.464	-0.439
-567.617	190.332	-0.087	-0.131
-566.602	105.605	0.280	-0.331
-565.588	-88.944	-0.522	-0.155
-564.573	-151.769	0.629	-0.046
-563.558	196.651	0.171	-0.261
-562.544	800.000	0.105	-0.411
-561.529	-200.000	-0.008	-0.813
-560.515	-200.000	-0.079	0.499
-559.500	112.130	0.242	0.293
-558.485	-134.672	0.475	0.058
-557.471	724.415	0.287	-0.764
-556.456	-34.313	-0.566	0.311
-555.442	800.000	0.185	-0.698
-554.427	-81.053	-0.552	-0.183
-553.412	-122.443	-0.576	-0.094
-552.398	40.509	-0.436	-0.393
-551.383	484.006	-0.035	0.079
-550.369	454.058	-0.159	-0.352
-549.354	149.457	0.360	0.488
-548.339	-48.494	0.584	0.281
-547.325	-200.000	-0.101	0.456
-546.310	-12.555	-0.488	0.318
-545.296	800.000	0.095	-0.356
-544.281	55.695	-0.355	-0.344
-543.266	39.465	-0.388	-0.348
-542.252	-67.386	0.086	-0.034
-541.237	-200.000	0.114	0.511
-540.223	232.667	-0.368	-0.604
-539.208	11.532	0.382	0.293
-538.193	-10.882	-0.106	-0.070
-537.179	87.712	0.671	0.743
-536.164	-114.347	0.437	-0.084
-535.150	6.307	-0.404	0.300
-534.135	-200.000	0.035	-0.289
-533.121	54.424	0.539	0.519
-532.106	78.606	0.355	-0.380
-531.091	212.791	-0.232	0.365
-530.077	-200.000	0.042	0.678
-529.062	-200.000	-0.111	-0.809
-528.048	-40.830	-0.993	-0.514
-527.033	-102.193	-0.578	-0.139
-526.018	-200.000	-0.015	0.131
-525.004	-200.000	0.014	-0.587
-523.989	-85.996	-0.773	-0.239
-522.975	-45.714	0.711	-0.351
-521.960	-25.646	-0.363	-0.214
-520.945	-27.461	-0.479	0.278
-519.931	114.479	-0.565	0.687
-518.916	12.475	-0.582	0.448
-517.902	-200.000	0.078	-0.616
-516.887	320.597	0.142	0.270
-515.872	3.006	0.526	0.382
-514.858	-46.890	0.452	0.221
-513.843	-8.527	0.523	-0.351
-512.829	-90.153	-0.634	0.184
-511.814	-200.000	-0.013	0.061
-510.799	-102.147	0.283	-0.068
-509.785	755.881	-0.320	-0.863
-508.770	226.780	0.067	0.109
-507.756	644.956	-0.242	0.617
-506.741	-169.036	-0.327	0.012
-505.726	800.000	0.267	1.005
-504.712	800.000	0.127	0.369
-503.697	72.019	0.462	0.480
-502.683	-30.956	-0.344	0.194
-501.668	-44.204	-0.116	-0.058
-500.653	-200.000	0.120	0.579
-499.639	-165.561	-0.513	-0.022
-498.624	-84.213	0.417	-0.132
-497.610	-170.707	-0.608	-0.021
-496.595	53.062	0.305	0.292
-495.581	-200.000	-0.012	-0.078
-494.566	151.068	0.714	-0.970
-493.551	-160.272	-0.163	-0.009
-492.537	-64.295	-0.882	0.358
-491.522	75.289	-0.350	-0.369
-490.508	124.104	-0.059	0.074
-489.493	16.097	0.347	0.273
-488.478	-200.000	-0.023	-0.392
-487.464	-198.510	-0.353	-0.002
-486.449	-200.000	-0.016	0.136
-485.435	-28.004	-0.792	0.457
-484.420	-200.000	-0.036	-0.396
-483.405	-200.000	0.105	0.479
-482.391	280.084	0.210	-0.374
-481.376	800.000	0.093	0.391
-480.362	800.000	-0.175	0.609
-479.347	17.421	-0.058	-0.046
-478.332	800.000	0.189	0.574
-477.318	800.000	-0.119	0.361
-476.303	-45.798	-0.695	-0.343
-475.289	-152.403	-0.300	0.022
-474.274	76.190	-0.409	0.431
-473.259	-200.000	0.154	-0.967
-472.245	11.985	0.354	-0.272
-471.230	115.036	0.544	-0.662
-470.216	137.715	0.319	-0.417
-469.201	557.630	-0.311	0.747
-468.186	-200.000	0.006	0.072
-467.172	27.060	0.244	0.204
-466.157	253.786	0.039	-0.066
-465.143	-101.013	-0.576	0.141
-464.128	47.082	0.890	0.826
-463.113	-15.420	0.670	0.427
-462.099	-156.980	-0.724	-0.044
-461.084	800.000	-0.060	-0.187
-460.070	-28.302	0.607	-0.349
-459.055	800.000	-0.128	-0.506
-458.040	-117.745	-0.723	-0.130
-457.026	-58.872	0.413	-0.178
-456.011	-7.238	-0.269	-0.182
-454.997	-24.894	0.486	-0.287
-453.982	-200.000	0.105	0.608
-452.968	-95.198	0.363	0.097
-451.953	-153.684	0.290	0.020
-450.938	-104.526	0.464	-0.107
-449.924	-75.371	0.369	0.131
-448.909	88.603	0.265	-0.294
-447.895	189.479	-0.152	-0.228
-446.880	800.000	0.061	0.177
-445.865	-200.000	-0.053	-0.262
-444.851	-28.896	0.533	0.305
-443.836	-85.392	-0.435	-0.135
-442.822	800.000	-0.095	-0.270
-441.807	-166.625	0.385	-0.016
-440.792	-31.948	-0.441	-0.246
-439.778	140.141	-0.381	-0.500
-438.763	11.991	-0.350	0.268
-437.749	-120.889	-0.183	0.031
-436.734	-100.357	-1.111	-0.274
-435.719	76.012	-0.137	0.145
-434.705	-93.382	0.342	-0.094
-433.690	-50.241	-0.419	-0.197
-432.676	-30.262	-0.215	-0.122
-431.661	-200.000	0.015	-0.079
-430.646	5.655	0.469	-0.345
-429.632	-88.551	-0.287	0.085
-428.617	-44.388	-0.124	-0.062
-427.603	193.570	-0.345	0.519
-426.588	119.463	-0.707	0.871
-425.573	376.581	0.235	-0.477
-424.559	-159.760	0.783	-0.043
-423.544	-117.925	0.832	0.148
-422.530	-200.000	-0.016	0.439
-421.515	149.294	-0.232	0.312
-420.500	192.901	-0.675	1.015
-419.486	-175.777	0.385	0.010
-418.471	268.648	-0.251	-0.438
-417.457	18.994	-0.273	0.218
-416.442	64.927	0.529	-0.532
-415.428	273.629	0.152	-0.267
-414.413	-35.199	-0.268	-0.145
-413.398	290.067	0.249	0.449
-412.384	-100.412	0.521	0.128
-411.369	-200.000	-0.014	0.095
-410.355	-50.304	-0.300	0.141
-409.340	76.654	0.070	0.074
-408.325	670.056	0.194	0.499
-407.311	-200.000	0.135	-0.825
-406.296	-138.428	0.312	-0.034
-405.282	-200.000	0.077	-0.601
-404.267	11.119	-0.252	0.191
-403.252	-104.051	-0.828	-0.192
-402.238	-200.000	-0.016	-0.470
-401.223	16.740	-0.671	0.528
-400.209	-200.000	0.103	1.035
-399.194	-200.000	-0.012	-0.215
-398.179	-200.000	0.040	-0.189
-397.165	800.000	0.264	0.731
-396.150	-194.265	-0.358	-0.003
-395.136	-27.610	-0.227	0.131
-394.121	-82.858	0.316	0.101
-393.106	5.876	-0.231	0.170
-392.092	-41.431	0.817	-0.418
-391.077	-116.675	-0.543	0.099
-390.063	-200.000	-0.079	0.469
-389.048	6.255	0.188	-0.139
-388.033	-59.905	0.621	-0.264
-387.019	288.408	0.286	0.514
-386.004	47.038	-0.181	-0.167
-384.990	111.963	-0.507	-0.608
-383.975	33.082	-0.688	-0.593
-382.960	-8.049	1.176	-0.788
-381.946	-200.000	0.170	-0.876
-380.931	31.745	0.521	0.445
-379.917	-100.963	0.915	0.223
-378.902	-130.442	-0.518	-0.070
-377.888	303.076	-0.592	1.090
-376.873	-200.000	-0.017	-0.967
-375.858	-91.819	-0.571	0.161
-374.844	-29.913	-0.404	0.229
-373.829	58.399	-0.264	-0.257
-372.815	-51.419	0.234	0.109
-371.800	71.176	-0.539	-0.555
-370.785	-75.702	-1.050	-0.370
-369.771	-72.640	0.245	0.090
-368.756	54.811	-0.349	-0.334
-367.742	-200.000	-0.032	-0.452
-366.727	18.170	0.559	-0.443
-365.712	48.113	-0.391	-0.363
-364.698	-23.878	-0.311	-0.185
-363.683	-200.000	0.094	0.420
-362.669	-12.866	0.507	-0.328
-361.654	800.000	-0.218	0.683
-360.639	-94.590	0.674	0.182
-359.625	-159.754	0.713	0.039
-358.610	-178.036	0.289	0.007
-357.596	30.342	0.396	0.336
-356.581	171.157	-0.541	0.770
-355.566	14.724	-0.401	0.311
-354.552	-117.134	0.489	-0.088
-353.537	800.000	-0.143	0.551
-352.523	-200.000	0.037	0.293
-351.508	-200.000	0.042	-0.538
-350.493	-104.485	-0.596	0.137
-349.479	-200.000	0.059	0.383
-348.464	-76.785	-0.406	0.141
-347.450	423.466	-0.386	0.824
-346.435	56.676	-0.162	-0.157
-345.420	185.174	0.327	-0.482
-344.406	-60.705	0.512	0.215
-343.391	800.000	0.177	0.585
-342.377	350.520	-0.179	-0.352
-341.362	-7.223	0.637	-0.429
-340.348	398.711	-0.238	0.494
-339.333	-53.114	0.331	-0.151
-338.318	-200.000	-0.037	0.352
-337.304	678.273	0.154	0.398
-336.289	800.000	0.058	-0.230
-335.275	-68.390	0.635	-0.245
-334.260	-200.000	-0.041	0.764
-333.245	25.701	0.315	0.261
-332.231	73.928	-0.131	-0.136
-331.216	-200.000	-0.072	-0.435
-330.202	-62.849	-0.217	-0.089
-329.187	-200.000	-0.015	-0.850
-328.172	-2.197	0.223	-0.155
-327.158	164.406	0.052	-0.072
-326.143	20.221	-0.680	0.545
-325.129	-20.132	-0.340	-0.208
-324.114	286.033	-0.300	0.536
-323.099	-66.479	0.758	0.298
-322.085	72.365	0.283	0.293
-321.070	40.677	-0.413	-0.369
-320.056	24.567	-0.174	-0.143
-319.041	123.434	-0.127	-0.158
-318.026	800.000	0.101	0.353
-317.012	-138.539	-0.297	-0.032
-315.997	-166.885	-0.499	0.020
-314.983	-3.104	0.319	-0.220
-313.968	194.469	-0.258	-0.387
-312.953	-157.723	-0.546	-0.032
-311.939	800.000	0.106	0.400
-310.924	20.162	-0.500	-0.400
-309.910	-155.621	0.048	0.003
-308.895	531.754	-0.443	1.038
-307.880	-72.995	-0.715	-0.260
-306.866	394.349	0.344	-0.710
-305.851	-156.031	0.234	-0.015
-304.837	43.167	0.322	0.291
-303.822	-68.642	-0.911	-0.350
-302.807	682.215	-0.173	0.448
-301.793	318.491	0.612	1.149
-300.778	800.000	-0.191	0.735
-299.764	-79.247	-0.198	0.067
-298.749	-62.212	-0.579	0.239
-297.735	-65.793	-0.380	-0.151
-296.720	427.565	0.414	0.885
-295.705	90.943	-0.486	-0.540
-294.691	-59.241	-1.151	-0.491
-293.676	-68.542	0.303	-0.116
-292.662	320.728	-0.303	0.570
-291.647	-106.044	0.463	-0.103
-290.632	-37.420	0.447	0.237
-289.618	-200.000	0.039	-0.216
-288.603	-191.842	-0.564	0.005
-287.589	-37.759	0.592	-0.312
-286.574	-131.477	0.382	0.050
-285.559	26.052	-0.374	-0.309
-284.545	-200.000	0.033	0.373
-283.530	-50.240	0.245	-0.115
-282.516	-103.824	0.578	0.134
-281.501	-200.000	0.052	0.703
-280.486	35.832	-0.524	0.456
-279.472	-80.117	0.655	0.217
-278.457	-200.000	0.035	-0.544
-277.443	144.304	-0.178	0.235
-276.428	-200.000	0.012	-0.265
-275.413	-142.867	0.614	-0.059
-274.399	-123.014	0.722	-0.115
-273.384	-200.000	0.091	-1.228
-272.370	268.150	0.299	-0.518
-271.355	186.751	0.829	1.221
-270.340	-200.000	0.065	0.772
-269.326	-77.453	-0.492	0.169
-268.311	100.758	-0.303	0.349
-267.297	-87.069	0.780	-0.235
-266.282	800.000	0.093	0.373
-265.267	-48.569	-0.294	-0.140
-264.253	-200.000	0.105	-0.549
-263.238	17.820	0.223	-0.176
-262.224	462.651	0.343	0.758
-261.209	610.507	0.022	0.055
-260.195	800.000	0.243	0.720
-259.180	202.511	0.214	-0.327
-258.165	-160.751	0.581	0.030
-257.151	-157.441	-1.106	-0.066
-256.136	-161.752	0.343	0.017
-255.122	-145.832	-0.060	0.005
-254.107	532.191	0.284	0.664
-253.092	-67.997	0.290	0.112
-252.078	1.924	-0.276	-0.197
-251.063	-21.681	0.242	0.146
-250.049	252.621	-0.333	-0.561
-249.034	-35.829	-0.655	0.351
-248.019	85.161	0.380	-0.412
-247.005	-39.625	-0.116	-0.060
-245.990	637.133	-0.071	-0.177
-244.976	80.081	0.216	-0.230
-243.961	-134.511	-0.222	0.027
-242.946	42.372	-0.097	-0.088
-241.932	-189.662	-0.274	-0.003
-240.917	800.000	0.049	-0.168
-239.903	-12.540	0.510	-0.329
-238.888	170.818	0.462	0.654
-237.873	592.465	-0.156	0.381
-236.859	-120.846	-0.409	-0.068
-235.844	26.790	-0.377	0.312
-234.830	-112.409	0.591	-0.117
-233.815	551.595	0.518	1.228
-232.800	13.797	-0.432	-0.332
-231.786	-200.000	0.009	-0.056
-230.771	800.000	-0.264	-0.824
-229.757	-200.000	0.170	0.775
-228.742	19.587	-0.244	-0.194
-227.727	-106.847	-0.621	0.136
-226.713	22.931	-0.202	0.164
-225.698	78.625	0.690	-0.729
-224.684	800.000	-0.185	-0.723
-223.669	-122.376	0.824	-0.133
-222.655	-143.162	0.581	-0.055
-221.640	-200.000	0.063	-0.442
-220.625	-22.446	0.728	0.435
-219.611	-200.000	-0.186	-1.056
-218.596	-114.811	1.156	-0.218
-217.582	58.153	0.468	-0.453
-216.567	-28.448	-0.711	-0.405
-215.552	-200.000	0.033	0.397
-214.538	-200.000	0.017	0.714
-213.523	309.234	0.149	-0.275
-212.509	-111.918	0.340	-0.068
-211.494	193.889	-0.460	-0.688
-210.479	-200.000	-0.001	0.431
-209.465	-200.000	-0.053	0.459
-208.450	-155.597	0.197	0.013
-207.436	-158.139	-0.268	-0.015
-206.421	498.849	0.337	0.767
-205.406	-119.755	0.259	-0.044
-204.392	6.355	-0.921	0.675
-203.377	-14.495	0.301	0.191
-202.363	800.000	0.223	0.718
-201.348	-57.023	0.180	-0.078
-200.333	-200.000	0.109	-0.517
-199.319	29.622	0.337	-0.283
-198.304	-96.503	0.400	0.104
-197.290	-200.000	0.239	1.281
-196.275	99.911	-0.089	-0.102
-195.260	-51.480	-0.275	0.127
-194.246	-1.435	-0.611	-0.425
-193.231	800.000	-0.071	-0.252
-192.217	-122.708	-0.532	0.085
-191.202	-200.000	0.015	0.129
-190.187	-90.518	-0.559	-0.160
-189.173	151.903	0.378	-0.508
-188.158	196.497	0.143	0.215
-187.144	-200.000	0.017	0.237
-186.129	-200.000	-0.031	-0.219
-185.114	-176.858	-0.183	0.005
-184.100	341.297	0.182	0.351
-183.085	-198.647	-0.442	-0.002
-182.071	-22.476	0.335	-0.200
-181.056	85.784	-0.406	0.440
-180.042	800.000	-0.049	0.197
-179.027	-83.715	-0.506	0.159
-178.012	38.933	-0.580	-0.511
-176.998	12.769	-0.260	-0.198
-175.983	-15.096	0.007	0.004
-174.969	800.000	-0.221	0.860
-173.954	-3.840	0.135	-0.092
-172.939	-109.134	0.970	0.203
-171.925	81.221	-0.757	-0.806
-170.910	-58.526	0.430	-0.184
-169.896	-115.873	0.220	0.041
-168.881	800.000	0.126	-0.352
-167.866	90.831	-0.312	0.345
-166.852	760.507	-0.128	-0.343
-165.837	46.708	0.130	-0.119
-164.823	263.746	0.460	0.789
-163.808	56.986	-0.589	0.566
-162.793	-143.547	0.284	-0.027
-161.779	-42.154	0.886	0.446
-160.764	-90.624	0.607	-0.173
-159.750	-31.055	0.892	0.496
-158.735	-200.000	0.032	-0.721
-157.720	576.730	-0.208	-0.501
-156.706	742.846	-0.162	0.429
-155.691	29.491	0.362	-0.303
-154.677	-13.618	0.806	0.514
-153.662	-83.812	-0.748	-0.235
-152.647	-106.527	-0.472	-0.104
-151.633	301.800	0.185	-0.337
-150.618	47.837	0.169	-0.156
-149.604	-22.509	0.499	0.297
-148.589	37.751	-0.831	-0.727
-147.574	89.568	-0.400	-0.439
-146.560	-119.448	-0.179	0.031
-145.545	-200.000	0.096	-0.683
-144.531	800.000	-0.186	-0.653
-143.516	266.412	-0.387	-0.665
-142.502	-138.574	1.017	0.110
-141.487	72.895	0.274	0.282
-140.472	11.841	-0.660	-0.499
-139.458	800.000	-0.054	0.207
-138.443	-200.000	-0.153	0.994
-137.429	-113.009	0.138	0.027
-136.414	-200.000	-0.053	-1.041
-135.399	-0.519	0.914	-0.638
-134.385	-16.925	0.040	-0.025
-133.370	20.265	-0.216	-0.172
-132.356	328.417	-0.104	0.196
-131.341	800.000	0.359	-1.219
-130.326	-17.031	-0.578	0.359
-129.312	-158.679	0.891	0.050
-128.297	-112.728	0.549	-0.107
-127.283	-119.881	-0.323	0.055
-126.268	800.000	0.154	-0.511
-125.253	73.518	0.359	0.370
-124.239	-93.740	-0.222	-0.060
-123.224	-35.981	-0.774	-0.412
-122.210	-81.177	-0.442	-0.144
-121.195	800.000	-0.218	0.802
-120.180	184.846	0.252	-0.368
-119.166	131.933	0.173	-0.219
-118.151	73.244	0.341	0.351
-117.137	639.249	0.294	0.736
-116.122	15.621	-0.299	0.231
-115.107	-1.197	0.542	0.377
-114.093	-129.162	0.254	-0.035
-113.078	-119.714	1.615	0.274
-112.064	204.137	-0.476	0.725
-111.049	297.480	0.271	0.489
-110.034	800.000	0.103	-0.298
-109.020	542.848	0.466	1.093
-108.005	12.374	-0.221	-0.167
-106.991	-200.000	0.024	-0.267
-105.976	-200.000	0.066	-0.298
-104.962	-82.527	-0.137	-0.044
-103.947	442.572	-0.229	-0.493
-102.932	149.679	0.159	0.212
-101.918	-56.105	-0.503	-0.220
-100.903	156.474	-0.213	0.290
-99.889	-137.312	0.846	0.094
-98.874	164.159	0.469	-0.650
-97.859	144.565	0.219	0.287
-96.845	-123.634	-0.552	-0.086
-95.830	-157.852	-0.312	-0.018
-94.816	-94.343	-0.190	-0.051
-93.801	-106.471	-0.355	0.078
-92.786	35.851	0.403	-0.348
-91.772	-143.888	-0.182	-0.017
-90.757	156.409	0.296	-0.402
-89.743	287.633	0.286	0.509
-88.728	-34.270	-0.476	0.257
-87.713	-193.983	0.725	0.006
-86.699	199.600	0.107	0.162
-85.684	60.897	-0.592	-0.577
-84.670	-49.550	-0.456	0.213
-83.655	-200.000	0.015	-0.885
-82.640	-200.000	0.028	0.780
-81.626	112.742	-0.257	-0.306
-80.611	-78.939	0.203	-0.068
-79.597	-19.725	0.303	-0.184
-78.582	355.574	-0.025	0.049
-77.567	27.159	0.736	0.607
-76.553	-200.000	0.046	-0.245
-75.538	-200.000	0.006	-0.288
-74.524	-106.843	-0.282	0.061
-73.509	800.000	-0.217	0.744
-72.494	77.169	0.161	-0.168
-71.480	31.480	0.246	0.208
-70.465	-82.717	0.235	0.075
-69.451	-48.370	0.265	-0.125
-68.436	-200.000	0.057	0.482
-67.422	97.312	0.235	-0.264
-66.407	-66.403	-0.699	-0.273
-65.392	800.000	-0.109	-0.343
-64.378	115.887	0.367	0.441
-63.363	291.659	-0.178	-0.318
-62.349	-19.798	-0.199	-0.121
-61.334	80.089	-1.344	-1.418
-60.319	800.000	0.278	0.861
-59.305	-23.339	-0.212	-0.125
-58.290	9.672	0.648	0.482
-57.276	-200.000	0.152	1.631
-56.261	-200.000	96.951	600.629
-55.246	639.828	1366.126	3410.764
-54.232	201.459	2541.841	3841.227
-53.217	112.043	2247.654	2664.578
-52.203	41.268	1879.874	1667.530
-51.188	34.999	1672.330	1436.503
-50.173	32.650	1628.914	1381.954
-49.159	51.343	1680.004	1564.893
-48.144	51.710	1696.543	1582.968
-47.130	34.775	1656.377	1420.909
-46.115	32.051	1641.642	1388.104
-45.100	32.122	1634.967	1382.928
-44.086	31.956	1632.940	1379.935
-43.071	31.729	1631.042	1376.608
-42.057	31.700	1629.190	1374.780
-41.042	31.812	1627.003	1373.701
-40.027	31.670	1624.996	1370.910
-39.013	31.717	1623.402	1369.855
-37.998	31.718	1621.786	1368.442
-36.984	31.733	1621.004	1367.843
-35.969	31.894	1618.586	1366.916
-34.954	31.934	1616.261	1365.196
-33.940	31.911	1614.813	1363.748
-32.925	31.714	1614.542	1362.035
-31.911	31.642	1612.974	1360.136
-30.896	31.736	1609.796	1358.081
-29.881	31.975	1609.095	1359.166
-28.867	31.785	1607.322	1356.243
-27.852	31.651	1606.271	1354.330
-26.838	31.655	1604.059	1352.440
-25.823	31.770	1602.883	1352.223
-24.809	31.809	1601.024	1350.883
-23.794	31.832	1600.592	1350.630
-22.779	31.962	1598.372	1349.641
-21.765	31.789	1597.612	1347.703
-20.750	31.967	1593.932	1345.820
-19.736	32.065	1592.837	1345.541
-18.721	31.999	1591.920	1344.241
-17.706	31.659	1590.832	1340.842
-16.692	31.637	1589.637	1339.619
-15.677	31.923	1588.497	1340.651
-14.663	31.914	1586.837	1339.131
-13.648	31.848	1586.503	1338.325
-12.633	31.761	1584.701	1336.134
-11.619	31.770	1582.448	1334.246
-10.604	31.723	1581.231	1332.827
-9.590	31.866	1580.415	1333.109
-8.575	32.029	1578.590	1332.674
-7.560	31.690	1578.073	1329.775
-6.546	31.912	1576.092	1329.626
-5.531	31.871	1575.364	1328.672
-4.517	31.959	1573.282	1327.488
-3.502	31.846	1572.555	1326.021
-2.487	31.812	1570.902	1324.333
-1.473	31.631	1559.517	1313.410
-0.458	28.510	1541.020	1276.104
0.556	26.569	1540.792	1244.001
1.571	24.342	1563.986	1247.063
2.586	23.540	1576.323	1251.137
3.600	21.022	1523.084	1191.593
4.615	12.550	1415.249	1053.108
5.629	4.928	1350.870	958.387
6.644	3.342	1344.273	943.909
7.659	3.604	1342.124	943.924
8.673	3.411	1342.507	942.926
9.688	3.604	1339.490	941.900
10.702	3.363	1336.967	938.576
11.717	6.975	1343.212	964.947
12.731	15.891	1359.410	1031.345
13.746	23.060	1372.318	1085.209
14.761	24.940	1374.028	1098.004
15.775	24.681	1372.469	1095.078
16.790	24.169	1372.157	1091.592
17.804	23.790	1370.197	1087.619
18.819	23.992	1369.477	1088.189
19.834	24.162	1367.615	1087.649
20.848	24.057	1368.224	1087.398
21.863	23.840	1367.598	1085.478
22.877	24.149	1365.704	1085.765
23.892	24.158	1364.988	1085.150
24.907	23.823	1364.930	1082.967
25.921	23.855	1363.222	1081.715
26.936	24.057	1361.783	1081.702
27.950	24.076	1360.289	1080.537
28.965	23.980	1360.816	1080.277
29.980	24.007	1359.130	1079.006
30.994	24.024	1358.746	1078.711
32.009	24.415	1356.694	1079.350
33.023	24.194	1356.237	1077.552
34.038	23.965	1355.917	1075.818
35.053	24.122	1354.412	1075.478
36.067	24.126	1352.638	1073.999
37.082	23.890	1352.292	1072.209
38.096	24.063	1349.950	1071.298
39.111	24.045	1350.699	1071.688
40.126	23.802	1350.860	1070.253
41.140	23.742	1349.183	1068.471
42.155	23.566	1348.795	1067.014
43.169	23.296	1348.629	1065.165
44.184	23.354	1348.164	1065.047
45.199	23.508	1348.396	1066.066
46.213	23.633	1347.791	1066.245
47.228	23.745	1347.254	1066.398
48.242	24.071	1345.639	1066.975
49.257	23.912	1344.140	1064.745
50.271	23.995	1342.985	1064.231
51.286	23.976	1341.930	1063.184
52.301	23.918	1340.198	1061.376
53.315	24.078	1339.173	1061.425
54.330	23.776	1339.012	1059.398
55.344	23.786	1337.500	1058.170
56.359	23.840	1336.423	1057.546
57.374	23.556	1336.440	1055.777
58.388	23.636	1335.062	1055.069
59.403	23.476	1335.066	1054.028
60.417	23.596	1332.873	1052.914
61.432	23.476	1333.432	1052.552
62.447	23.537	1331.312	1051.144
63.461	23.294	1331.208	1049.532
64.476	23.609	1329.688	1050.105
65.490	23.502	1328.072	1048.101
66.505	23.337	1326.303	1045.640
67.520	23.567	1325.700	1046.426
68.534	23.589	1324.689	1045.668
69.549	23.421	1322.972	1043.230
70.563	23.612	1322.029	1043.517
71.578	23.278	1321.579	1041.107
72.593	23.205	1321.835	1040.791
73.607	23.087	1319.976	1038.541
74.622	23.125	1319.047	1037.939
75.636	23.395	1318.626	1039.101
76.651	23.470	1316.688	1037.920
77.666	23.419	1318.047	1038.599
78.680	23.288	1318.236	1037.887
79.695	23.294	1317.806	1037.491
80.709	23.697	1316.007	1038.346
81.724	23.681	1315.568	1037.811
82.739	23.773	1315.128	1037.909
83.753	23.811	1315.167	1038.072
84.768	24.365	1313.460	1039.860
85.782	24.492	1312.720	1039.922
86.797	24.264	1310.938	1037.094
87.812	24.082	1310.051	1035.244
88.826	24.049	1309.411	1034.454
89.841	24.057	1308.831	1033.953
90.855	24.116	1307.258	1032.957
91.870	24.429	1305.892	1033.598
92.884	24.588	1305.198	1033.879
93.899	24.446	1305.405	1033.130
94.914	24.281	1303.997	1030.971
95.928	24.161	1303.854	1030.075
96.943	24.424	1301.645	1029.752
97.957	24.223	1302.521	1029.193
98.972	24.199	1301.591	1028.231
99.987	24.061	1300.214	1026.258
101.001	24.267	1298.441	1025.954
102.016	24.013	1298.737	1024.635
103.030	24.211	1298.596	1025.570
104.045	24.133	1297.416	1024.101
105.060	23.986	1295.764	1021.860
106.074	23.742	1293.574	1018.642
107.089	23.435	1293.887	1017.037
108.103	23.336	1291.546	1014.540
109.118	23.247	1290.482	1013.108
110.133	23.339	1289.235	1012.565
111.147	23.342	1287.226	1010.917
112.162	23.223	1287.369	1010.255
113.176	23.558	1285.016	1010.231
114.191	23.556	1284.336	1009.595
115.206	23.629	1283.585	1009.332
116.220	23.707	1283.116	1009.318
117.235	23.631	1282.184	1008.061
118.249	23.136	1280.788	1004.066
119.264	23.331	1279.364	1003.967
120.279	23.208	1279.033	1002.923
121.293	23.493	1277.673	1003.379
122.308	23.270	1277.691	1002.042
123.322	23.237	1275.518	1000.062
124.337	23.261	1274.391	999.227
125.352	23.197	1273.246	997.882
126.366	22.921	1273.951	996.784
127.381	23.157	1272.396	996.811
128.395	23.134	1271.479	995.878
129.410	23.089	1269.210	993.756
130.424	23.041	1268.404	992.769
131.439	23.044	1268.994	993.161
132.454	23.271	1269.002	994.352
133.468	23.540	1267.459	994.566
134.483	23.308	1267.974	993.579
135.497	23.367	1266.855	992.944
136.512	23.513	1265.432	992.557
137.527	23.296	1264.380	990.431
138.541	23.572	1262.303	990.260
139.556	23.402	1261.935	988.936
140.570	23.661	1260.502	989.164
141.585	23.763	1259.992	989.245
142.600	23.860	1260.294	989.936
143.614	24.056	1258.822	989.782
144.629	24.439	1257.466	990.756
145.643	24.047	1257.032	988.151
146.658	23.939	1255.010	985.875
147.673	23.841	1254.566	984.895
148.687	23.856	1252.952	983.623
149.702	23.675	1251.232	981.187
150.716	23.459	1250.006	978.947
151.731	23.282	1249.032	977.119
152.746	23.241	1247.630	975.713
153.760	23.535	1248.401	977.849
154.775	23.571	1247.103	976.947
155.789	23.897	1246.257	977.989
156.804	23.717	1245.034	975.952
157.819	23.605	1244.250	974.638
158.833	23.939	1242.663	975.136
159.848	24.316	1241.402	976.127
160.862	24.043	1242.448	975.367
161.877	23.672	1240.058	971.378
162.892	23.438	1238.996	969.181
163.906	23.502	1236.639	967.598
164.921	23.408	1237.249	967.477
165.935	23.693	1236.107	968.051
166.950	23.717	1236.116	968.102
167.964	23.593	1236.074	967.309
168.979	23.620	1234.774	966.355
169.994	23.524	1235.400	966.234
171.008	23.493	1233.799	964.731
172.023	23.410	1232.775	963.394
173.037	23.852	1233.246	966.075
174.052	23.864	1232.261	965.287
175.067	23.760	1229.453	962.439
176.081	23.612	1227.911	960.345
177.096	23.248	1228.255	958.557
178.110	23.368	1228.324	959.174
179.125	23.611	1225.943	958.544
180.140	23.559	1225.653	957.950
181.154	23.487	1225.297	957.199
182.169	23.986	1222.658	957.742
183.183	23.848	1222.782	957.010
184.198	23.922	1221.020	955.944
185.213	23.811	1221.579	955.702
186.227	23.972	1218.918	954.396
187.242	23.877	1219.505	954.266
188.256	23.970	1218.151	953.619
189.271	24.157	1216.405	953.169
190.286	23.941	1216.378	951.907
191.300	23.532	1215.089	948.626
192.315	23.610	1213.642	947.831
193.329	23.404	1214.209	947.090
194.344	23.571	1212.749	946.757
195.359	23.377	1212.053	945.097
196.373	23.410	1211.362	944.650
197.388	23.245	1211.187	943.550
198.402	23.649	1211.676	946.000
199.417	24.022	1212.065	948.208
200.432	24.107	1211.098	947.820
201.446	24.165	1211.257	948.168
202.461	24.306	1209.218	947.240
203.475	23.962	1208.843	945.032
204.490	23.727	1207.475	942.632
205.504	23.509	1205.762	940.058
206.519	23.623	1204.264	939.411
207.534	23.500	1203.910	938.399
208.548	23.635	1201.579	937.213
209.563	23.626	1201.086	936.699
210.577	23.602	1200.603	936.110
211.592	23.714	1199.764	935.965
212.607	24.002	1200.037	937.615
213.621	24.168	1198.805	937.439
214.636	23.856	1197.501	934.698
215.650	23.754	1197.596	934.153
216.665	24.081	1196.508	934.937
217.680	23.974	1196.387	934.200
218.694	24.342	1195.230	935.144
219.709	24.191	1194.006	933.313
220.723	23.987	1193.200	931.534
221.738	24.171	1192.807	932.108
222.753	23.774	1191.702	929.084
223.767	23.883	1191.399	929.335
224.782	23.992	1191.407	929.827
225.796	24.438	1190.485	931.356
226.811	24.271	1189.942	929.977
227.826	24.088	1188.989	928.197
228.840	24.080	1187.409	926.838
229.855	23.947	1187.255	925.945
230.869	23.851	1187.420	925.491
231.884	23.740	1186.030	923.747
232.899	23.583	1184.537	921.689
233.913	23.348	1184.493	920.351
234.928	23.533	1183.946	920.808
235.942	23.501	1183.241	920.011
236.957	23.404	1181.868	918.360
237.972	23.497	1179.855	917.197
238.986	23.371	1180.304	916.813
240.001	23.454	1180.211	917.087
241.015	23.538	1178.544	916.146
242.030	23.619	1178.248	916.250
243.045	23.992	1176.970	917.097
244.059	23.813	1176.831	915.985
245.074	24.168	1176.468	917.451
246.088	23.941	1175.382	915.356
247.103	24.099	1175.014	915.799
248.117	24.149	1175.253	916.163
249.132	24.192	1174.205	915.486
250.147	24.879	1173.676	918.520
251.161	25.025	1173.494	919.045
252.176	25.153	1171.338	917.933
253.190	24.945	1171.494	916.908
254.205	24.872	1172.226	917.021
255.220	25.313	1170.433	917.795
256.234	25.231	1169.840	916.828
257.249	25.246	1169.131	916.271
258.263	25.004	1168.297	914.303
259.278	24.874	1168.444	913.669
260.293	24.859	1168.176	913.303
261.307	25.168	1166.973	913.856
262.322	24.898	1167.457	912.778
263.336	25.012	1165.748	911.941
264.351	25.008	1165.882	911.948
265.366	24.815	1165.216	910.362
266.380	25.267	1163.861	911.521
267.395	24.786	1163.222	908.496
268.409	24.568	1162.722	906.917
269.424	24.738	1161.519	906.761
270.439	24.605	1161.622	906.090
271.453	24.512	1160.639	904.769
272.468	24.428	1159.309	903.229
273.482	24.532	1157.514	902.276
274.497	24.630	1157.445	902.635
275.512	24.448	1157.064	901.343
276.526	24.423	1156.437	900.647
277.541	24.506	1155.817	900.504
278.555	24.830	1154.533	901.055
279.570	24.487	1155.312	899.854
280.585	24.953	1155.094	901.954
281.599	25.012	1153.706	901.085
282.614	24.527	1153.232	898.194
283.628	24.508	1151.993	897.055
284.643	24.397	1150.271	895.079
285.657	24.707	1147.923	894.725
286.672	24.546	1147.744	893.702
287.687	24.484	1147.270	892.944
288.701	24.477	1146.213	892.003
289.716	24.593	1145.998	892.341
290.730	24.251	1145.825	890.414
291.745	24.568	1144.970	891.255
292.760	24.549	1143.780	890.155
293.774	24.654	1143.948	890.730
294.789	25.063	1143.206	892.109
295.803	25.005	1142.480	891.178
296.818	24.846	1141.837	889.807
297.833	24.966	1141.014	889.681
298.847	24.818	1139.941	888.032
299.862	24.716	1139.654	887.225
300.876	24.655	1139.177	886.473
301.891	24.720	1138.145	885.911
302.906	24.924	1138.356	887.010
303.920	24.876	1138.649	886.923
304.935	25.085	1137.462	886.950
305.949	25.450	1136.252	887.736
306.964	25.293	1136.308	886.921
307.979	25.242	1134.783	885.402
308.993	25.020	1133.855	883.504
310.008	25.033	1133.294	883.055
311.022	25.384	1132.708	884.250
312.037	25.409	1132.024	883.756
313.052	24.906	1131.237	880.595
314.066	24.840	1129.289	878.672
315.081	24.614	1128.655	876.994
316.095	24.277	1128.195	874.904
317.110	24.517	1126.895	874.999
318.125	24.233	1127.268	873.814
319.139	24.500	1126.167	874.193
320.154	24.381	1126.237	873.587
321.168	24.634	1124.120	873.105
322.183	24.286	1124.247	871.425
323.197	24.618	1123.499	872.389
324.212	24.669	1123.300	872.405
325.227	24.624	1122.839	871.752
326.241	24.703	1122.233	871.591
327.256	24.763	1121.048	870.882
328.270	24.510	1120.211	868.927
329.285	24.255	1119.721	867.228
330.300	24.858	1118.488	869.128
331.314	24.726	1116.919	867.189
332.329	24.481	1117.103	866.069
333.343	24.736	1115.619	866.075
334.358	24.935	1115.491	866.862
335.373	24.856	1116.242	866.988
336.387	24.916	1114.844	866.115
337.402	25.232	1112.247	865.546
338.416	24.932	1113.728	865.170
339.431	24.913	1114.016	865.226
340.446	25.378	1112.708	866.379
341.460	25.437	1111.547	865.683
342.475	25.838	1110.978	867.093
343.489	25.615	1110.671	865.705
344.504	25.620	1109.037	864.379
345.519	25.780	1109.001	865.040
346.533	25.728	1108.527	864.345
347.548	25.759	1107.587	863.686
348.562	25.693	1106.057	862.098
349.577	25.617	1105.108	860.920
350.592	25.152	1104.071	857.813
351.606	24.897	1103.259	855.887
352.621	24.570	1103.235	854.229
353.635	24.914	1101.221	854.233
354.650	24.993	1100.783	854.197
355.665	24.988	1100.527	853.899
356.679	25.150	1100.183	854.327
357.694	25.011	1100.126	853.547
358.708	25.421	1098.826	854.411
359.723	25.095	1098.779	852.751
360.738	25.296	1097.401	852.560
361.752	25.150	1096.799	851.324
362.767	24.859	1097.632	850.513
363.781	25.288	1096.282	851.424
364.796	25.402	1097.035	852.474
365.810	25.483	1095.719	851.762
366.825	25.865	1094.604	852.629
367.840	26.056	1094.472	853.354
368.854	26.074	1094.603	853.463
369.869	25.899	1093.713	851.869
370.883	25.764	1092.274	850.036
371.898	25.870	1091.505	849.860
372.913	25.490	1091.422	847.928
373.927	25.470	1090.370	846.942
374.942	25.686	1090.707	848.147
375.956	25.649	1089.701	847.113
376.971	25.541	1088.413	845.531
377.986	25.897	1088.769	847.408
379.000	25.929	1088.070	846.941
380.015	26.127	1088.109	847.822
381.029	25.956	1087.350	846.356
382.044	25.991	1086.020	845.412
383.059	26.076	1085.003	844.940
384.073	25.650	1086.045	843.682
385.088	26.030	1084.335	844.056
386.102	26.114	1082.860	843.224
387.117	25.502	1082.198	839.775
388.132	25.512	1080.525	838.453
389.146	25.393	1079.913	837.349
390.161	25.302	1078.314	835.609
391.175	25.656	1077.688	836.697
392.190	25.825	1077.639	837.372
393.205	25.964	1077.713	838.001
394.219	25.771	1077.420	836.800
395.234	25.579	1076.312	834.978
396.248	25.553	1073.845	832.866
397.263	25.446	1073.027	831.666
398.278	25.491	1073.216	831.946
399.292	25.266	1072.925	830.604
400.307	25.267	1072.693	830.355
401.321	25.269	1071.624	829.464
402.336	25.342	1069.785	828.304
403.350	25.176	1069.011	826.867
404.365	25.594	1068.785	828.545
405.380	25.430	1067.877	827.015
406.394	25.521	1067.885	827.365
407.409	25.636	1067.096	827.209
408.423	26.246	1066.276	829.300
409.438	26.085	1066.056	828.319
410.453	26.013	1065.163	827.219
411.467	26.118	1064.747	827.305
412.482	26.299	1063.571	827.150
413.496	26.081	1063.907	826.336
414.511	26.473	1063.470	827.720
415.526	26.598	1062.322	827.323
416.540	26.385	1062.633	826.520
417.555	26.075	1062.114	824.626
418.569	26.354	1060.944	824.918
419.584	26.088	1060.816	823.531
420.599	26.133	1059.883	822.937
421.613	154.853	1403.869	1794.555
422.628	142.316	1454.044	1794.630
