DTS Sentinel unit serial number:	SN413079Multiplexer serial number:	ORYXHardware model number:	OX4-SRSoftware version number:	ORYX F/W v4.00 Oryx Data Collector v3.7.2.0data status	okinstallation	princeton_trtdifferential loss correction	single-endedforward channel	channel 2reverse channel	N/Adate	2019/09/17time	22:51:34forward acquisition time	60.00reverse acquisition time	0.00gamma	496.2192k internal	0.2345k external	0.2345temperature offset calibration	0.9987default loss term (dB/km)	0.3790temperature slope calibration	1.0000multiplexer offset coefficient	1.0000multiplexer slope coefficient	1.0000fibre end	0.00T internal ref (°C)	24.94T ext. ref 1 (°C)	0.17T ext. ref 2 (°C)	18.04length (m)	temperature (°C)	Stokes	anti-Stokes-747.200	11.717	-0.209	0.160
-746.185	-88.813	-0.402	-0.119
-745.171	-65.545	0.191	-0.077
-744.156	-132.632	-0.294	0.038
-743.142	64.723	-0.114	0.115
-742.127	310.699	-0.331	0.619
-741.112	17.477	0.225	0.178
-740.098	800.000	-0.109	0.450
-739.083	800.000	0.047	-0.135
-738.069	15.884	0.116	-0.091
-737.054	39.715	0.041	0.037
-736.039	-117.378	-0.277	-0.050
-735.025	-155.693	0.227	0.015
-734.010	-114.209	-0.350	-0.068
-732.996	3.513	-0.080	-0.058
-731.981	35.017	-0.137	0.120
-730.966	-72.637	-0.024	-0.009
-729.952	171.623	0.046	0.066
-728.937	125.242	-0.199	-0.251
-727.923	-47.405	0.159	-0.077
-726.908	89.406	-0.083	0.092
-725.894	800.000	0.008	0.031
-724.879	-68.019	-0.200	0.078
-723.864	-87.441	0.318	0.096
-722.850	-200.000	0.033	-0.244
-721.835	-94.796	-0.134	-0.036
-720.821	800.000	0.159	-0.489
-719.806	-98.737	-0.191	0.049
-718.791	-200.000	-0.026	0.179
-717.777	51.052	-0.298	-0.282
-716.762	138.054	-0.229	-0.300
-715.748	81.794	0.087	0.094
-714.733	112.858	0.094	0.114
-713.718	-41.949	0.188	0.096
-712.704	-103.469	0.081	-0.019
-711.689	8.826	-0.129	0.097
-710.675	-133.707	0.128	0.016
-709.660	192.770	0.030	-0.045
-708.645	-200.000	-0.016	-0.077
-707.631	140.823	-0.200	0.264
-706.616	-13.876	-0.091	-0.059
-705.602	-200.000	0.028	-0.234
-704.587	-34.304	-0.276	0.151
-703.572	184.017	0.185	-0.274
-702.558	-200.000	-0.011	-0.087
-701.543	-135.191	0.129	0.015
-700.529	207.145	0.092	-0.143
-699.514	-100.329	-0.191	-0.047
-698.499	-200.000	-0.016	0.193
-697.485	-112.333	-0.503	-0.101
-696.470	209.354	0.079	-0.124
-695.456	-106.997	-0.204	0.045
-694.441	30.245	-0.176	-0.150
-693.426	-97.609	0.064	0.016
-692.412	187.078	-0.093	-0.139
-691.397	-83.384	-0.434	-0.139
-690.383	-152.887	-0.197	-0.014
-689.368	-200.000	0.003	0.172
-688.354	800.000	0.084	-0.348
-687.339	-112.625	0.329	-0.065
-686.324	800.000	0.083	0.239
-685.310	-118.527	0.149	-0.026
-684.295	-81.256	0.092	0.030
-683.281	102.533	-0.165	-0.192
-682.266	-200.000	0.023	-0.335
-681.251	318.047	-0.185	0.350
-680.237	106.861	-0.161	-0.191
-679.222	-86.618	-0.180	-0.055
-678.208	-166.341	0.336	0.014
-677.193	-78.252	-0.134	0.046
-676.178	-200.000	-0.003	-0.180
-675.164	-200.000	-0.002	0.085
-674.149	-80.542	0.301	0.100
-673.135	314.297	-0.151	0.283
-672.120	-22.792	0.082	-0.050
-671.105	-79.009	-0.097	-0.033
-670.091	9.125	-0.036	0.027
-669.076	-111.810	0.209	-0.042
-668.062	42.194	0.272	0.247
-667.047	-170.842	-0.209	0.007
-666.032	89.961	0.122	-0.136
-665.018	4.094	-0.209	-0.153
-664.003	51.865	0.160	0.152
-662.989	10.634	0.062	0.047
-661.974	141.158	-0.152	0.201
-660.959	-200.000	0.055	0.308
-659.945	-200.000	0.043	0.259
-658.930	-36.855	-0.383	-0.205
-657.916	-80.010	0.366	-0.122
-656.901	43.304	0.090	-0.082
-655.886	-94.766	-0.142	0.038
-654.872	-200.000	0.020	0.278
-653.857	290.989	0.100	0.181
-652.843	32.006	0.188	0.162
-651.828	268.682	0.192	-0.336
-650.814	800.000	-0.036	-0.116
-649.799	-54.782	-0.248	0.112
-648.784	-111.803	0.138	0.028
-647.770	-65.823	0.359	-0.143
-646.755	-50.266	-0.171	-0.081
-645.741	800.000	0.047	0.153
-644.726	-200.000	0.067	-0.308
-643.711	-18.852	-0.085	-0.053
-642.697	-140.860	-0.120	-0.012
-641.682	35.246	-0.095	-0.083
-640.668	0.936	0.063	0.045
-639.653	-32.955	0.254	-0.140
-638.638	483.329	-0.043	0.098
-637.624	800.000	0.127	0.388
-636.609	51.277	0.186	-0.176
-635.595	-38.310	0.214	0.113
-634.580	-200.000	0.007	-0.128
-633.565	-200.000	0.003	0.014
-632.551	-28.889	-0.032	-0.018
-631.536	-173.510	0.360	-0.011
-630.522	209.941	0.102	-0.159
-629.507	-3.429	0.059	0.041
-628.492	173.168	0.277	-0.398
-627.478	-200.000	0.001	-0.010
-626.463	-198.848	0.294	-0.002
-625.449	63.988	0.147	0.147
-624.434	199.211	0.100	0.153
-623.419	-144.670	0.082	-0.008
-622.405	228.163	-0.112	-0.182
-621.390	266.478	0.093	-0.162
-620.376	428.847	0.023	-0.050
-619.361	180.955	-0.150	-0.220
-618.346	281.110	-0.097	-0.172
-617.332	-138.370	-0.235	0.026
-616.317	-28.572	-0.097	-0.055
-615.303	469.740	0.035	0.079
-614.288	800.000	-0.092	0.377
-613.273	-87.575	0.331	-0.099
-612.259	117.342	-0.104	0.127
-611.244	-200.000	-0.011	0.089
-610.230	-96.746	-0.150	-0.039
-609.215	-29.824	-0.427	-0.242
-608.201	-200.000	0.022	0.127
-607.186	-5.600	-0.082	-0.056
-606.171	800.000	0.039	0.114
-605.157	504.894	0.203	0.467
-604.142	800.000	-0.067	-0.275
-603.128	800.000	-0.022	-0.084
-602.113	-200.000	0.030	-0.400
-601.098	57.836	0.223	-0.217
-600.084	140.413	0.138	0.182
-599.069	-63.920	-0.244	0.099
-598.055	-85.237	-0.119	-0.037
-597.040	-200.000	-0.019	-0.143
-596.025	-63.748	-0.180	0.073
-595.011	82.368	-0.072	-0.078
-593.996	14.332	0.147	-0.114
-592.982	446.591	0.051	0.112
-591.967	-200.000	-0.018	0.193
-590.952	-96.735	0.128	0.033
-589.938	65.289	-0.295	0.296
-588.923	195.680	0.050	-0.075
-587.909	-98.711	0.369	-0.093
-586.894	-139.815	-0.208	-0.022
-585.879	-94.192	-0.109	-0.030
-584.865	-163.756	-0.134	0.006
-583.850	-136.205	0.176	0.020
-582.836	179.766	-0.013	-0.019
-581.821	-103.276	-0.178	-0.042
-580.806	348.069	-0.078	-0.154
-579.792	75.521	-0.058	0.060
-578.777	-81.294	-0.360	0.118
-577.763	-200.000	0.012	0.060
-576.748	-124.026	0.197	-0.031
-575.733	-200.000	-0.017	-0.299
-574.719	-129.745	0.290	0.040
-573.704	-200.000	-0.038	-0.244
-572.690	379.313	-0.061	-0.125
-571.675	104.191	0.122	-0.142
-570.661	-41.357	-0.379	-0.194
-569.646	222.274	0.086	0.138
-568.631	800.000	-0.029	-0.101
-567.617	506.352	-0.076	-0.175
-566.602	293.424	-0.065	0.118
-565.588	-86.664	-0.483	-0.147
-564.573	-200.000	0.017	-0.283
-563.558	339.197	-0.198	0.382
-562.544	36.487	0.195	0.171
-561.529	194.638	0.106	-0.160
-560.515	-64.786	0.248	0.100
-559.500	-200.000	-0.049	-0.249
-558.485	110.481	-0.165	0.197
-557.471	51.252	0.222	0.209
-556.456	228.504	0.068	-0.111
-555.442	-200.000	0.005	0.085
-554.427	86.494	0.176	-0.193
-553.412	-200.000	-0.006	-0.184
-552.398	275.424	0.062	-0.109
-551.383	-135.152	0.208	0.025
-550.369	182.665	0.168	-0.246
-549.354	400.716	-0.057	-0.119
-548.339	-200.000	-0.037	-0.337
-547.325	159.481	0.201	0.278
-546.310	195.912	-0.198	0.299
-545.296	284.632	-0.097	0.172
-544.281	-8.086	-0.246	0.165
-543.266	89.423	-0.177	0.196
-542.252	-3.086	0.251	0.174
-541.237	-200.000	0.013	0.105
-540.223	344.413	-0.108	-0.210
-539.208	-34.870	0.230	-0.124
-538.193	-17.993	0.136	0.085
-537.179	-22.900	-0.286	-0.171
-536.164	492.571	0.169	0.385
-535.150	-121.661	-0.171	0.028
-534.135	-28.707	-0.198	0.113
-533.121	423.132	-0.050	-0.106
-532.106	363.616	-0.130	0.259
-531.091	46.116	-0.250	-0.230
-530.077	-55.310	-0.322	-0.144
-529.062	-200.000	0.035	-0.353
-528.048	-119.593	-0.269	-0.046
-527.033	-55.005	0.106	0.047
-526.018	800.000	0.039	-0.150
-525.004	3.731	0.225	0.163
-523.989	-200.000	0.013	-0.164
-522.975	51.527	-0.093	-0.088
-521.960	584.092	0.066	0.160
-520.945	-72.607	0.170	0.062
-519.931	129.216	0.129	0.163
-518.916	48.931	-0.094	0.088
-517.902	362.517	0.102	0.202
-516.887	-54.848	-0.317	0.142
-515.872	-107.817	0.087	0.019
-514.858	-200.000	-0.021	-0.095
-513.843	-138.902	-0.184	-0.020
-512.829	104.768	-0.146	0.171
-511.814	800.000	-0.026	-0.082
-510.799	52.755	-0.113	-0.107
-509.785	800.000	-0.021	-0.079
-508.770	215.148	-0.118	-0.186
-507.756	-100.146	0.257	0.064
-506.741	581.377	0.100	-0.243
-505.726	-52.030	-0.288	0.133
-504.712	-13.885	0.277	-0.177
-503.697	-80.454	-0.083	0.027
-502.683	494.103	-0.157	0.358
-501.668	108.237	-0.200	0.236
-500.653	122.540	0.214	0.265
-499.639	-200.000	0.030	0.339
-498.624	-69.209	-0.204	-0.078
-497.610	132.090	0.183	-0.233
-496.595	-81.381	0.212	-0.069
-495.581	-200.000	-0.002	0.101
-494.566	46.674	-0.228	-0.210
-493.551	10.276	0.206	-0.155
-492.537	79.275	-0.044	0.046
-491.522	-54.670	0.238	0.107
-490.508	-200.000	0.005	0.315
-489.493	-68.326	0.257	0.099
-488.478	-200.000	-0.076	-0.338
-487.464	800.000	-0.078	-0.238
-486.449	213.526	-0.135	-0.211
-485.435	75.468	0.029	-0.031
-484.420	-200.000	0.028	-0.181
-483.405	-30.724	0.223	0.125
-482.391	-200.000	0.020	0.190
-481.376	13.274	-0.227	-0.174
-480.362	316.565	-0.090	-0.169
-479.347	-200.000	-0.008	-0.469
-478.332	800.000	-0.049	0.145
-477.318	8.685	0.025	0.019
-476.303	34.626	-0.070	-0.061
-475.289	-56.273	0.071	0.031
-474.274	-200.000	0.010	-0.233
-473.259	-23.354	-0.379	0.225
-472.245	-109.124	-0.199	0.042
-471.230	119.225	-0.069	0.085
-470.216	-95.650	-0.365	0.097
-469.201	370.085	0.180	-0.361
-468.186	-200.000	-0.013	-0.546
-467.172	193.150	-0.150	0.225
-466.157	-200.000	-0.013	0.266
-465.143	345.874	-0.179	-0.349
-464.128	-129.328	-0.194	0.027
-463.113	800.000	0.024	-0.070
-462.099	-200.000	-0.007	-0.311
-461.084	174.921	0.032	0.046
-460.070	-73.226	0.059	0.021
-459.055	64.329	-0.134	-0.134
-458.040	139.394	0.130	0.170
-457.026	317.349	-0.107	0.199
-456.011	697.015	-0.047	0.122
-454.997	-87.048	0.365	0.110
-453.982	-200.000	0.044	-0.252
-452.968	81.824	0.289	0.310
-451.953	539.547	-0.141	-0.332
-450.938	65.485	-0.098	-0.098
-449.924	-154.737	0.257	-0.017
-448.909	800.000	-0.062	0.221
-447.895	800.000	-0.066	-0.202
-446.880	90.823	0.029	0.032
-445.865	-153.536	0.278	0.019
-444.851	503.088	0.130	-0.296
-443.836	170.563	0.085	0.120
-442.822	189.176	0.078	-0.116
-441.807	-46.984	-0.280	0.135
-440.792	-200.000	0.066	-0.408
-439.778	-200.000	-0.051	-0.309
-438.763	156.409	-0.141	-0.193
-437.749	800.000	0.031	0.124
-436.734	96.279	-0.147	-0.167
-435.719	-200.000	0.007	0.197
-434.705	-104.309	0.036	0.008
-433.690	-95.586	0.245	-0.065
-432.676	613.949	0.056	-0.138
-431.661	-6.139	-0.272	-0.184
-430.646	-3.066	0.122	-0.084
-429.632	-7.196	0.050	-0.034
-428.617	123.789	-0.109	-0.135
-427.603	-128.550	0.088	-0.012
-426.588	-28.140	-0.257	-0.147
-425.573	354.694	-0.066	-0.130
-424.559	61.938	-0.119	-0.117
-423.544	-121.570	0.264	0.043
-422.530	264.366	0.064	0.110
-421.515	245.846	0.135	0.225
-420.500	-127.397	0.196	-0.028
-419.486	-200.000	-0.034	0.188
-418.471	-200.000	0.002	0.072
-417.457	-90.495	0.136	-0.039
-416.442	62.185	0.047	0.047
-415.428	-88.423	0.266	-0.079
-414.413	-84.097	0.316	-0.099
-413.398	800.000	-0.042	0.145
-412.384	128.585	-0.141	0.178
-411.369	41.639	-0.135	0.120
-410.355	-200.000	-0.027	0.128
-409.340	67.927	-0.044	-0.044
-408.325	-98.459	0.442	-0.112
-407.311	-200.000	-0.028	0.254
-406.296	800.000	-0.081	0.261
-405.282	711.795	0.043	-0.112
-404.267	-27.710	-0.045	0.026
-403.252	-86.793	0.109	-0.033
-402.238	-112.007	0.106	-0.021
-401.223	262.354	-0.249	0.427
-400.209	800.000	0.042	-0.115
-399.194	36.552	-0.275	0.240
-398.179	-200.000	0.021	-0.339
-397.165	-97.290	-0.281	-0.072
-396.150	-97.679	-0.137	-0.035
-395.136	-93.019	-0.048	0.013
-394.121	60.450	0.251	-0.246
-393.106	-50.264	0.247	-0.115
-392.092	-200.000	-0.075	0.330
-391.077	-200.000	-0.026	-0.224
-390.063	-49.010	0.074	0.035
-389.048	32.666	-0.109	0.093
-388.033	34.951	-0.213	-0.184
-387.019	120.778	0.216	0.265
-386.004	-80.022	-0.182	0.060
-384.990	-200.000	-0.018	-0.266
-383.975	-200.000	0.033	-0.171
-382.960	145.773	0.191	-0.253
-381.946	800.000	-0.080	0.230
-380.931	363.743	-0.093	0.184
-379.917	-200.000	-0.031	0.377
-378.902	29.218	0.181	-0.151
-377.888	-142.757	-0.242	-0.023
-376.873	-169.804	0.143	0.005
-375.858	331.403	0.065	-0.123
-374.844	-101.578	-0.244	0.058
-373.829	-47.546	0.420	-0.201
-372.815	-111.638	0.122	-0.024
-371.800	146.904	-0.195	-0.259
-370.785	-52.442	-0.078	-0.036
-369.771	800.000	0.049	-0.205
-368.756	-200.000	0.011	-0.218
-367.742	-200.000	0.002	0.100
-366.727	-132.706	-0.367	-0.046
-365.712	800.000	-0.098	0.411
-364.698	800.000	-0.020	0.061
-363.683	-33.078	0.227	-0.124
-362.669	-77.819	0.213	-0.072
-361.654	-16.576	0.305	0.190
-360.639	-69.125	-0.167	0.063
-359.625	267.687	0.198	-0.341
-358.610	-200.000	0.000	0.013
-357.596	-85.394	0.247	-0.076
-356.581	-1.871	0.057	0.039
-355.566	37.664	-0.151	-0.132
-354.552	-200.000	0.056	-0.285
-353.537	-200.000	0.032	0.166
-352.523	-101.722	0.230	-0.055
-351.508	-122.260	0.262	0.042
-350.493	-141.325	-0.344	-0.034
-349.479	-1.881	-0.067	0.046
-348.464	800.000	-0.078	-0.255
-347.450	305.033	-0.086	0.158
-346.435	11.079	0.088	-0.067
-345.420	-200.000	0.013	-0.071
-344.406	225.642	-0.070	0.112
-343.391	800.000	0.050	0.187
-342.377	-200.000	-0.008	-0.054
-341.362	121.170	0.208	0.255
-340.348	14.128	-0.204	-0.157
-339.333	-24.422	-0.307	-0.180
-338.318	224.037	-0.143	0.228
-337.304	144.567	-0.145	-0.190
-336.289	-137.952	-0.224	0.025
-335.275	-90.136	-0.328	-0.094
-334.260	158.503	0.123	0.168
-333.245	-49.058	0.071	0.033
-332.231	-82.114	-0.384	0.123
-331.216	-178.003	0.163	-0.004
-330.202	111.495	-0.308	0.365
-329.187	-44.838	-0.222	0.109
-328.172	777.895	0.054	0.144
-327.158	250.092	0.079	0.132
-326.143	116.240	0.171	0.206
-325.129	-105.164	-0.099	0.022
-324.114	2.311	0.070	0.050
-323.099	120.646	-0.086	-0.105
-322.085	-28.800	0.293	0.166
-321.070	-189.729	0.490	0.006
-320.056	736.173	0.106	-0.279
-319.041	-83.982	0.097	0.030
-318.026	259.566	0.119	-0.202
-317.012	-32.124	0.251	-0.138
-315.997	-31.613	-0.192	-0.106
-314.983	-80.086	-0.320	-0.106
-313.968	38.163	-0.194	0.170
-312.953	2.511	0.222	0.158
-311.939	326.811	0.065	-0.122
-310.924	800.000	0.099	0.304
-309.910	-50.343	-0.071	0.033
-308.895	-200.000	0.016	-0.244
-307.880	146.317	0.184	0.243
-306.866	-139.951	-0.326	0.034
-305.851	-83.756	-0.235	0.074
-304.837	-153.967	0.316	-0.021
-303.822	-200.000	-0.033	0.197
-302.807	330.564	-0.042	0.080
-301.793	-25.219	0.253	0.147
-300.778	800.000	-0.098	0.287
-299.764	-104.481	0.153	0.035
-298.749	382.945	-0.125	-0.253
-297.735	-200.000	-0.015	0.273
-296.720	39.069	0.169	-0.149
-295.705	-200.000	0.009	0.082
-294.691	15.108	-0.254	-0.195
-293.676	115.262	-0.068	0.082
-292.662	800.000	-0.097	0.409
-291.647	320.351	-0.038	0.070
-290.632	-60.676	-0.191	0.080
-289.618	-78.943	0.274	-0.092
-288.603	-200.000	0.014	-0.195
-287.589	-25.624	-0.134	0.078
-286.574	53.526	0.140	-0.132
-285.559	-113.359	0.198	0.038
-284.545	57.196	0.111	-0.107
-283.530	383.195	0.151	-0.305
-282.516	-67.588	0.073	0.028
-281.501	-50.730	0.248	0.115
-280.486	-200.000	0.010	0.182
-279.472	24.231	-0.394	-0.320
-278.457	-151.329	-0.397	0.029
-277.443	-200.000	-0.039	-0.262
-276.428	-200.000	0.021	0.183
-275.413	-200.000	-0.025	-0.267
-274.399	-200.000	-0.044	-0.294
-273.384	366.323	0.184	0.364
-272.370	-64.437	-0.171	-0.068
-271.355	-73.041	-0.526	0.190
-270.340	-28.757	0.133	0.075
-269.326	-160.069	0.145	0.008
-268.311	-200.000	-0.021	-0.136
-267.297	-49.365	-0.044	0.021
-266.282	-62.738	-0.227	-0.092
-265.267	380.498	0.109	0.219
-264.253	-147.957	-0.294	-0.024
-263.238	800.000	-0.069	-0.266
-262.224	800.000	-0.034	0.121
-261.209	-24.479	0.139	0.081
-260.195	-47.386	-0.074	-0.036
-259.180	-86.339	-0.134	-0.041
-258.165	-200.000	-0.021	0.365
-257.151	-200.000	0.086	0.423
-256.136	-129.933	0.135	-0.018
-255.122	731.584	-0.106	-0.279
-254.107	70.529	-0.120	0.122
-253.092	-102.066	0.238	-0.056
-252.078	359.741	-0.069	0.135
-251.063	-75.962	0.159	-0.055
-250.049	0.612	-0.206	0.144
-249.034	-200.000	0.001	-0.158
-248.019	521.915	-0.047	-0.108
-247.005	529.600	0.078	0.181
-245.990	-161.848	0.068	-0.003
-244.976	-200.000	0.075	-0.391
-243.961	-200.000	0.003	0.028
-242.946	151.620	0.114	0.152
-241.932	397.680	0.035	-0.071
-240.917	154.087	0.243	0.326
-239.903	-110.018	0.183	0.038
-238.888	39.989	0.054	-0.047
-237.873	-200.000	-0.029	0.127
-236.859	111.995	-0.256	0.303
-235.844	212.995	0.116	0.180
-234.830	-200.000	0.038	-0.193
-233.815	-200.000	0.011	0.060
-232.800	20.431	0.071	0.056
-231.786	-200.000	-0.051	-0.288
-230.771	-188.641	-0.121	-0.001
-229.757	24.560	-0.145	0.118
-228.742	185.929	0.038	0.056
-227.727	-156.090	-0.235	0.015
-226.713	591.926	0.126	0.305
-225.698	-40.794	0.270	-0.137
-224.684	29.822	-0.023	-0.019
-223.669	800.000	0.127	-0.421
-222.655	78.926	-0.124	0.130
-221.640	235.370	-0.084	0.137
-220.625	-157.260	-0.120	0.007
-219.611	-200.000	-0.023	0.103
-218.596	-200.000	0.005	0.168
-217.582	244.834	0.082	0.135
-216.567	83.835	0.265	0.283
-215.552	-57.272	-0.061	-0.026
-214.538	101.323	0.075	-0.086
-213.523	5.604	-0.235	-0.170
-212.509	65.988	-0.123	-0.122
-211.494	-58.034	0.084	0.036
-210.479	-200.000	-0.031	-0.190
-209.465	-65.784	-0.202	-0.079
-208.450	172.178	-0.093	0.131
-207.436	-200.000	-0.039	0.269
-206.421	800.000	-0.112	0.339
-205.406	-2.552	-0.122	0.084
-204.392	-46.418	-0.126	-0.060
-203.377	-200.000	-0.002	0.163
-202.363	-163.591	0.233	-0.011
-201.348	58.972	0.065	-0.062
-200.333	238.375	0.145	0.236
-199.319	800.000	0.063	-0.181
-198.304	-8.578	0.205	-0.135
-197.290	-11.092	0.241	-0.156
-196.275	695.365	0.034	-0.088
-195.260	420.366	-0.088	0.185
-194.246	-52.990	0.270	-0.121
-193.231	-130.496	0.069	-0.009
-192.217	-200.000	-0.005	0.401
-191.202	122.580	-0.232	0.284
-190.187	-200.000	-0.013	0.131
-189.173	-90.943	0.208	0.058
-188.158	21.714	-0.236	0.188
-187.144	-1.896	-0.277	-0.191
-186.129	-12.038	-0.108	0.069
-185.114	-134.071	-0.263	-0.032
-184.100	-177.880	0.081	-0.002
-183.085	-200.000	-0.013	-0.071
-182.071	-9.814	0.321	0.209
-181.056	-96.228	-0.207	-0.054
-180.042	56.951	0.077	0.073
-179.027	-179.067	0.201	-0.004
-178.012	-200.000	0.011	-0.167
-176.998	672.642	-0.090	0.228
-175.983	142.243	-0.124	-0.161
-174.969	34.460	-0.211	0.181
-173.954	-103.911	0.315	-0.072
-172.939	-143.339	0.517	-0.048
-171.925	-69.286	0.131	0.049
-170.910	568.380	-0.031	-0.074
-169.896	-135.219	0.207	0.024
-168.881	152.399	-0.068	-0.091
-167.866	32.987	-0.067	0.057
-166.852	800.000	0.024	-0.095
-165.837	-200.000	0.023	0.228
-164.823	-200.000	0.022	0.174
-163.808	-54.630	-0.162	0.071
-162.793	559.007	-0.141	0.332
-161.779	370.501	0.125	-0.248
-160.764	-200.000	0.005	0.194
-159.750	578.938	0.079	-0.188
-158.735	13.709	0.310	-0.235
-157.720	-124.974	0.239	0.036
-156.706	-59.290	-0.170	0.072
-155.691	2.388	-0.161	0.114
-154.677	14.483	-0.096	-0.073
-153.662	357.982	0.055	-0.108
-152.647	-200.000	-0.001	0.065
-151.633	108.426	-0.031	0.036
-150.618	-143.979	-0.271	0.025
-149.604	-85.604	-0.453	-0.138
-148.589	-200.000	0.014	0.100
-147.574	-89.981	0.416	0.119
-146.560	12.308	0.080	0.060
-145.545	-110.694	-0.511	-0.103
-144.531	-75.034	0.347	0.121
-143.516	66.206	-0.095	-0.095
-142.502	472.978	-0.097	-0.215
-141.487	44.743	0.227	-0.204
-140.472	-45.032	-0.283	-0.138
-139.458	-33.933	0.297	-0.160
-138.443	-77.955	0.108	0.036
-137.429	-200.000	0.013	-0.153
-136.414	-96.476	0.080	-0.021
-135.399	-134.105	-0.154	0.019
-134.385	-51.176	-0.135	0.062
-133.370	-200.000	-0.022	-0.135
-132.356	51.774	-0.184	0.171
-131.341	-95.366	0.164	-0.043
-130.326	-54.134	-0.266	0.118
-129.312	-78.436	-0.317	0.106
-128.297	-199.138	-0.107	-0.001
-127.283	-25.750	0.286	0.165
-126.268	-200.000	-0.036	-0.277
-125.253	-61.333	-0.211	0.087
-124.239	-51.347	-0.129	-0.059
-123.224	-200.000	-0.007	0.086
-122.210	-77.817	0.157	-0.053
-121.195	-76.166	-0.229	-0.079
-120.180	800.000	-0.084	0.268
-119.166	42.157	0.230	0.204
-118.151	778.141	-0.059	0.159
-117.137	-200.000	0.005	0.127
-116.122	538.984	0.049	-0.115
-115.107	300.873	-0.048	-0.086
-114.093	16.041	-0.069	0.053
-113.078	800.000	0.127	-0.355
-112.064	315.043	-0.104	0.192
-111.049	-143.973	0.148	-0.014
-110.034	-115.074	-0.187	-0.035
-109.020	-200.000	-0.054	0.272
-108.005	-55.445	-0.061	-0.027
-106.991	-62.446	0.190	0.077
-105.976	-97.444	-0.148	-0.037
-104.962	48.526	0.195	0.178
-103.947	-113.470	0.267	0.051
-102.932	-154.575	0.136	-0.009
-101.918	-187.831	0.219	-0.003
-100.903	177.570	0.191	0.271
-99.889	-4.929	-0.086	0.058
-98.874	113.433	0.122	0.145
-97.859	800.000	-0.073	-0.219
-96.845	19.161	0.049	-0.039
-95.830	-200.000	-0.031	0.189
-94.816	-64.541	0.175	0.069
-93.801	-200.000	0.051	0.252
-92.786	137.637	-0.087	-0.111
-91.772	102.359	0.239	0.272
-90.757	5.586	0.160	-0.115
-89.743	-175.589	-0.089	-0.002
-88.728	-56.486	-0.166	0.072
-87.713	45.920	-0.278	-0.250
-86.699	-200.000	0.019	-0.109
-85.684	135.704	0.021	-0.027
-84.670	-68.727	0.579	-0.218
-83.655	-30.668	-0.204	-0.112
-82.640	-82.651	0.232	0.073
-81.626	-93.286	0.245	-0.066
-80.611	487.780	0.073	0.161
-79.597	139.769	-0.089	-0.114
-78.582	545.620	0.050	-0.117
-77.567	168.295	0.167	-0.232
-76.553	800.000	0.124	0.374
-75.538	144.496	0.055	-0.071
-74.524	268.311	0.053	-0.091
-73.509	-146.503	0.068	0.006
-72.494	-200.000	0.053	-0.239
-71.480	262.780	-0.089	-0.151
-70.465	-200.000	0.031	0.151
-69.451	800.000	-0.105	0.308
-68.436	560.599	-0.047	0.110
-67.422	-198.547	-0.221	0.001
-66.407	-60.774	0.088	0.036
-65.392	253.338	-0.173	0.288
-64.378	-147.843	-0.191	-0.016
-63.363	800.000	0.079	-0.245
-62.349	-2.411	0.193	-0.132
-61.334	-30.853	-1.600	-0.881
-60.319	1.968	0.826	0.581
-59.305	293.052	-0.570	-1.013
-58.290	390.362	0.621	1.255
-57.276	711.005	0.763	1.965
-56.261	-200.000	119.103	613.480
-55.246	414.743	1528.051	3169.290
-54.232	148.692	2684.137	3532.054
-53.217	91.169	2265.739	2476.014
-52.203	33.368	1882.575	1591.232
-51.188	27.896	1680.030	1378.796
-50.173	25.766	1640.125	1330.279
-49.159	44.966	1706.175	1529.624
-48.144	43.429	1718.890	1529.339
-47.130	27.443	1671.090	1367.839
-46.115	25.044	1656.047	1337.587
-45.100	24.794	1650.973	1331.581
-44.086	24.851	1648.489	1329.946
-43.071	24.813	1645.654	1327.326
-42.057	24.708	1643.925	1325.098
-41.042	24.866	1641.630	1324.367
-40.027	24.797	1640.039	1322.519
-39.013	24.768	1637.903	1320.529
-37.998	24.755	1636.517	1319.262
-36.984	24.786	1635.549	1318.660
-35.969	24.827	1633.714	1317.433
-34.954	24.950	1632.468	1317.276
-33.940	24.910	1630.407	1315.265
-32.925	24.915	1628.647	1313.837
-31.911	24.948	1627.270	1312.916
-30.896	24.908	1625.685	1311.286
-29.881	24.914	1624.176	1310.063
-28.867	24.970	1622.365	1308.960
-27.852	24.941	1621.247	1307.795
-26.838	24.971	1619.558	1306.601
-25.823	24.892	1618.866	1305.410
-24.809	24.974	1616.857	1304.336
-23.794	25.016	1615.718	1303.676
-22.779	25.004	1614.093	1302.220
-21.765	25.002	1611.613	1300.156
-20.750	24.887	1611.212	1298.947
-19.736	24.911	1609.996	1298.091
-18.721	24.947	1608.410	1297.021
-17.706	24.945	1607.186	1295.968
-16.692	24.956	1605.121	1294.327
-15.677	25.028	1603.859	1293.780
-14.663	24.973	1602.414	1292.165
-13.648	24.910	1601.405	1290.845
-12.633	25.045	1599.214	1290.004
-11.619	25.034	1597.908	1288.816
-10.604	24.999	1596.482	1287.367
-9.590	24.978	1595.483	1286.355
-8.575	25.063	1594.089	1285.795
-7.560	24.930	1593.063	1283.962
-6.546	25.012	1592.172	1283.776
-5.531	25.035	1590.922	1282.884
-4.517	24.885	1590.134	1281.124
-3.502	24.944	1588.804	1280.426
-2.487	24.984	1587.040	1279.235
-1.473	24.559	1574.835	1266.334
-0.458	21.464	1555.306	1228.873
0.556	16.249	1556.674	1196.510
1.571	13.843	1579.149	1196.360
2.586	13.539	1591.031	1203.043
3.600	12.422	1537.708	1154.780
4.615	6.919	1433.103	1040.006
5.629	1.303	1374.168	961.643
6.644	0.269	1367.253	950.199
7.659	0.150	1366.425	948.790
8.673	0.147	1364.736	947.518
9.688	0.115	1362.763	945.860
10.702	0.019	1359.669	943.027
11.717	2.954	1362.916	963.628
12.731	9.839	1373.924	1014.734
13.746	15.538	1381.957	1056.528
14.761	16.927	1383.282	1066.184
15.775	16.336	1381.030	1060.646
16.790	15.318	1378.534	1052.249
17.804	14.524	1376.482	1045.613
18.819	14.238	1374.798	1042.450
19.834	13.978	1373.810	1039.980
20.848	13.651	1372.647	1036.963
21.863	13.462	1370.983	1034.433
22.877	13.272	1370.136	1032.520
23.892	13.222	1368.958	1031.229
24.907	13.273	1368.530	1031.134
25.921	13.247	1367.236	1029.904
26.936	13.238	1366.165	1028.948
27.950	13.397	1365.146	1029.080
28.965	13.317	1365.024	1028.400
29.980	13.494	1363.341	1028.137
30.994	13.479	1362.410	1027.252
32.009	13.461	1362.018	1026.756
33.023	13.520	1360.429	1025.834
34.038	13.524	1359.015	1024.701
35.053	13.416	1358.019	1023.187
36.067	13.370	1357.209	1022.203
37.082	13.430	1356.212	1021.737
38.096	13.382	1355.147	1020.544
39.111	13.425	1354.721	1020.398
40.126	13.369	1354.071	1019.477
41.140	13.320	1352.592	1017.969
42.155	13.241	1352.459	1017.290
43.169	13.081	1352.664	1016.369
44.184	13.205	1351.905	1016.471
45.199	13.249	1351.818	1016.589
46.213	13.226	1351.215	1015.903
47.228	13.368	1349.942	1015.728
48.242	13.291	1348.869	1014.363
49.257	13.354	1347.065	1013.298
50.271	13.436	1345.355	1012.424
51.286	13.387	1344.527	1011.415
52.301	13.400	1343.287	1010.472
53.315	13.374	1342.143	1009.364
54.330	13.321	1341.382	1008.376
55.344	13.202	1340.221	1006.691
56.359	13.225	1339.340	1006.080
57.374	13.258	1338.139	1005.289
58.388	13.082	1337.915	1003.959
59.403	13.159	1337.177	1003.790
60.417	13.134	1336.184	1002.798
61.432	13.239	1335.177	1002.595
62.447	13.244	1334.373	1001.931
63.461	13.191	1332.683	1000.255
64.476	13.190	1332.075	999.703
65.490	13.066	1331.010	998.065
66.505	13.147	1329.216	997.118
67.520	13.169	1327.749	996.064
68.534	13.159	1326.931	995.300
69.549	13.218	1325.881	994.781
70.563	13.160	1324.748	993.498
71.578	13.089	1323.778	992.250
72.593	13.135	1322.663	991.607
73.607	13.081	1321.900	990.622
74.622	13.048	1321.240	989.842
75.636	13.062	1320.167	989.031
76.651	13.067	1319.696	988.621
77.666	13.168	1318.714	988.406
78.680	13.083	1318.686	987.790
79.695	13.166	1317.534	987.336
80.709	13.111	1316.991	986.513
81.724	13.199	1316.317	986.445
82.739	13.292	1315.053	985.964
83.753	13.209	1314.403	984.896
84.768	13.373	1312.963	984.706
85.782	13.344	1311.729	983.521
86.797	13.299	1310.910	982.552
87.812	13.353	1309.256	981.545
88.826	13.276	1308.147	980.172
89.841	13.327	1307.391	979.822
90.855	13.381	1306.542	979.416
91.870	13.338	1305.337	978.171
92.884	13.322	1304.594	977.432
93.899	13.340	1303.922	976.952
94.914	13.463	1303.194	977.041
95.928	13.436	1302.090	975.969
96.943	13.439	1301.211	975.246
97.957	13.465	1299.998	974.402
98.972	13.376	1299.006	973.050
99.987	13.444	1297.963	972.583
101.001	13.305	1297.271	971.161
102.016	13.411	1296.168	970.868
103.030	13.271	1295.587	969.529
104.045	13.333	1294.485	968.981
105.060	13.232	1293.387	967.483
106.074	13.242	1291.900	966.342
107.089	13.194	1290.722	965.096
108.103	13.186	1289.303	963.899
109.118	13.224	1287.993	963.057
110.133	13.246	1286.866	962.258
111.147	13.253	1285.076	960.874
112.162	13.279	1283.990	960.131
113.176	13.310	1282.719	959.276
114.191	13.323	1282.261	958.925
115.206	13.368	1280.902	958.083
116.220	13.269	1280.193	956.891
117.235	13.340	1278.425	955.900
118.249	13.224	1277.701	954.601
119.264	13.282	1276.930	954.275
120.279	13.291	1275.796	953.395
121.293	13.243	1274.438	952.020
122.308	13.184	1273.664	951.021
123.322	13.281	1272.218	950.415
124.337	13.247	1271.260	949.420
125.352	13.209	1269.864	948.075
126.366	13.230	1269.185	947.604
127.381	13.116	1268.456	946.321
128.395	13.268	1266.622	945.737
129.410	13.263	1265.816	945.023
130.424	13.246	1264.981	944.220
131.439	13.213	1264.840	943.844
132.454	13.321	1263.385	943.289
133.468	13.337	1262.402	942.562
134.483	13.423	1261.211	942.079
135.497	13.249	1260.930	940.796
136.512	13.326	1259.381	939.997
137.527	13.277	1258.076	938.659
138.541	13.255	1256.441	937.233
139.556	13.413	1255.104	937.049
140.570	13.433	1253.879	936.166
141.585	13.413	1252.734	935.115
142.600	13.474	1251.921	934.767
143.614	13.439	1250.843	933.682
144.629	13.537	1250.069	933.574
145.643	13.505	1249.096	932.584
146.658	13.502	1247.752	931.481
147.673	13.392	1246.498	929.845
148.687	13.497	1245.326	929.476
149.702	13.530	1243.677	928.351
150.716	13.401	1242.744	926.848
151.731	13.384	1241.543	925.774
152.746	13.482	1240.557	925.509
153.760	13.498	1239.124	924.444
154.775	13.486	1237.947	923.419
155.789	13.547	1237.177	923.105
156.804	13.531	1235.867	921.954
157.819	13.629	1234.892	921.689
158.833	13.601	1234.077	920.844
159.848	13.614	1233.065	920.082
160.862	13.622	1231.944	919.207
161.877	13.658	1230.243	918.055
162.892	13.457	1229.631	916.405
163.906	13.522	1228.518	915.856
164.921	13.622	1227.728	915.739
165.935	13.563	1227.300	915.012
166.950	13.615	1226.488	914.610
167.964	13.713	1225.410	914.270
168.979	13.592	1225.025	913.232
169.994	13.590	1224.170	912.506
171.008	13.619	1223.089	911.775
172.023	13.606	1222.426	911.131
173.037	13.766	1221.430	911.186
174.052	13.758	1220.722	910.533
175.067	13.730	1219.416	909.324
176.081	13.559	1219.055	908.039
177.096	13.682	1217.784	907.684
178.110	13.803	1216.154	907.049
179.125	13.592	1215.478	905.313
180.140	13.815	1213.637	905.079
181.154	13.714	1213.216	904.134
182.169	13.753	1211.969	903.338
183.183	13.774	1210.669	902.405
184.198	13.904	1209.365	902.057
185.213	13.860	1208.507	901.100
186.227	13.787	1207.472	899.849
187.242	13.892	1206.335	899.491
188.256	13.942	1205.098	898.761
189.271	13.934	1203.746	897.632
190.286	13.816	1203.282	896.569
191.300	13.745	1202.803	895.745
192.315	13.673	1202.226	894.851
193.329	13.832	1201.195	894.858
194.344	13.813	1200.586	894.228
195.359	13.815	1200.231	893.892
196.373	13.928	1199.350	893.768
197.388	13.902	1198.928	893.233
198.402	14.036	1198.202	893.332
199.417	14.060	1197.380	892.772
200.432	14.042	1196.957	892.278
201.446	14.080	1196.126	891.784
202.461	14.143	1195.127	891.298
203.475	14.193	1194.235	890.821
204.490	14.082	1192.745	889.040
205.504	14.104	1191.408	888.082
206.519	14.233	1190.243	887.820
207.534	14.086	1189.500	886.404
208.548	13.984	1188.504	885.041
209.563	14.075	1187.891	884.991
210.577	14.166	1186.858	884.626
211.592	14.176	1186.247	884.147
212.607	14.315	1184.537	883.529
213.621	14.241	1184.244	882.839
214.636	14.295	1183.515	882.507
215.650	14.223	1182.362	881.185
216.665	14.177	1181.809	880.455
217.680	14.309	1180.581	880.160
218.694	14.323	1179.689	879.492
219.709	14.367	1179.414	879.441
220.723	14.331	1178.152	878.232
221.738	14.438	1177.294	878.076
222.753	14.450	1176.778	877.675
223.767	14.386	1175.826	876.553
224.782	14.378	1175.875	876.471
225.796	14.492	1174.674	876.097
226.811	14.502	1174.122	875.661
227.826	14.565	1173.011	875.085
228.840	14.448	1172.807	874.239
229.855	14.391	1172.288	873.478
230.869	14.427	1170.958	872.600
231.884	14.442	1170.410	872.191
232.899	14.518	1169.290	871.676
233.913	14.420	1168.892	870.793
234.928	14.386	1168.215	870.032
235.942	14.361	1167.459	869.264
236.957	14.402	1166.533	868.709
237.972	14.414	1166.272	868.500
238.986	14.483	1165.448	868.171
240.001	14.572	1164.285	867.687
241.015	14.552	1163.672	867.051
242.030	14.599	1162.595	866.414
243.045	14.588	1162.009	865.847
244.059	14.581	1161.309	865.212
245.074	14.651	1160.063	864.566
246.088	14.655	1159.497	864.090
247.103	14.539	1159.083	863.104
248.117	14.736	1158.266	863.439
249.132	14.632	1157.343	862.136
250.147	14.871	1156.799	862.892
251.161	14.830	1156.230	862.178
252.176	14.905	1155.168	861.697
253.190	14.802	1154.590	860.656
254.205	14.991	1153.959	861.082
255.220	14.881	1153.522	860.118
256.234	14.858	1152.903	859.459
257.249	14.967	1152.061	859.318
258.263	15.036	1151.591	859.243
259.278	15.025	1150.991	858.663
260.293	15.056	1150.511	858.387
261.307	15.046	1149.865	857.782
262.322	15.012	1149.026	856.903
263.336	15.096	1148.579	856.927
264.351	15.191	1148.071	856.954
265.366	15.057	1147.056	855.438
266.380	15.128	1146.442	855.267
267.395	15.050	1145.793	854.309
268.409	15.082	1144.905	853.736
269.424	15.092	1144.313	853.266
270.439	15.071	1143.804	852.706
271.453	15.184	1142.609	852.315
272.468	15.090	1142.069	851.359
273.482	15.086	1141.601	850.914
274.497	15.107	1140.885	850.413
275.512	15.195	1140.041	850.152
276.526	15.288	1138.935	849.728
277.541	15.155	1138.470	848.628
278.555	15.270	1137.702	848.562
279.570	15.209	1136.970	847.636
280.585	15.396	1135.817	847.646
281.599	15.264	1135.340	846.546
282.614	15.222	1134.410	845.566
283.628	15.324	1132.989	844.946
284.643	15.288	1132.260	844.146
285.657	15.340	1131.451	843.733
286.672	15.290	1130.637	842.795
287.687	15.335	1129.762	842.299
288.701	15.397	1128.824	841.835
289.716	15.468	1127.878	841.410
290.730	15.454	1127.131	840.709
291.745	15.331	1126.719	839.710
292.760	15.424	1126.029	839.590
293.774	15.484	1125.470	839.397
294.789	15.623	1124.791	839.510
295.803	15.488	1124.780	838.754
296.818	15.607	1123.442	838.277
297.833	15.501	1122.646	837.076
298.847	15.544	1121.950	836.701
299.862	15.581	1121.103	836.178
300.876	15.611	1120.749	835.988
301.891	15.640	1119.901	835.425
302.906	15.584	1119.378	834.685
303.920	15.706	1118.516	834.571
304.935	15.684	1117.955	833.972
305.949	15.713	1117.080	833.390
306.964	15.810	1116.686	833.502
307.979	15.755	1116.059	832.690
308.993	15.773	1115.393	832.204
310.008	15.788	1114.661	831.658
311.022	15.735	1113.608	830.540
312.037	15.828	1113.076	830.529
313.052	15.826	1111.936	829.593
314.066	15.778	1110.729	828.386
315.081	15.701	1110.010	827.395
316.095	15.869	1109.289	827.611
317.110	15.831	1108.669	826.888
318.125	15.808	1107.709	825.986
319.139	15.742	1107.862	825.702
320.154	15.729	1106.882	824.839
321.168	15.750	1106.074	824.263
322.183	15.921	1105.374	824.505
323.197	15.709	1105.053	823.154
324.212	15.821	1104.436	823.175
325.227	15.731	1104.017	822.346
326.241	15.894	1103.115	822.397
327.256	15.795	1102.378	821.292
328.270	15.795	1101.158	820.313
329.285	15.863	1100.423	820.021
330.300	15.733	1099.886	818.919
331.314	15.739	1099.087	818.277
332.329	15.839	1097.900	817.807
333.343	15.932	1096.579	817.203
334.358	16.020	1096.021	817.142
335.373	15.918	1095.614	816.273
336.387	15.935	1095.014	815.835
337.402	16.012	1093.969	815.358
338.416	16.045	1093.391	815.015
339.431	16.143	1092.548	814.788
340.446	16.143	1092.081	814.366
341.460	16.203	1091.108	813.859
342.475	16.235	1089.990	813.108
343.489	16.388	1089.109	813.113
344.504	16.218	1088.654	811.886
345.519	16.258	1087.830	811.389
346.533	16.244	1087.143	810.737
347.548	16.424	1086.110	810.758
348.562	16.334	1085.277	809.634
349.577	16.182	1085.276	808.836
350.592	16.278	1084.289	808.488
351.606	16.289	1083.089	807.571
352.621	16.183	1082.680	806.690
353.635	16.202	1082.274	806.409
354.650	16.327	1081.304	806.212
355.665	16.331	1080.376	805.467
356.679	16.272	1079.986	804.820
357.694	16.376	1079.536	804.911
358.708	16.462	1078.557	804.517
359.723	16.400	1077.996	803.735
360.738	16.407	1077.426	803.270
361.752	16.399	1077.016	802.858
362.767	16.315	1076.670	802.129
363.781	16.388	1075.970	801.883
364.796	16.437	1075.215	801.481
365.810	16.619	1074.311	801.598
366.825	16.556	1073.892	800.917
367.840	16.528	1073.370	800.325
368.854	16.678	1072.838	800.568
369.869	16.643	1072.039	799.733
370.883	16.664	1071.062	799.036
371.898	16.676	1070.604	798.680
372.913	16.661	1070.123	798.178
373.927	16.671	1069.265	797.517
374.942	16.708	1068.860	797.318
375.956	16.750	1068.324	797.043
376.971	16.680	1067.934	796.353
377.986	16.657	1067.598	795.923
379.000	16.736	1066.738	795.584
380.015	16.804	1065.949	795.241
381.029	16.888	1065.274	795.065
382.044	16.843	1064.659	794.323
383.059	16.728	1064.633	793.695
384.073	16.920	1063.324	793.549
385.088	16.930	1062.057	792.579
386.102	16.922	1061.381	791.965
387.117	16.792	1060.652	790.744
388.132	16.793	1059.334	789.696
389.146	16.965	1058.632	789.903
390.161	16.875	1057.936	788.898
391.175	16.971	1057.103	788.652
392.190	17.074	1056.385	788.527
393.205	16.972	1056.312	787.930
394.219	16.998	1055.469	787.348
395.234	16.935	1054.413	786.202
396.248	16.975	1053.442	785.593
397.263	16.927	1052.509	784.604
398.278	16.875	1051.876	783.822
399.292	16.934	1051.339	783.628
400.307	17.008	1050.388	783.191
401.321	16.926	1050.177	782.585
402.336	16.924	1049.237	781.804
403.350	16.957	1048.534	781.363
404.365	16.984	1047.980	781.005
405.380	17.048	1046.850	780.390
406.394	17.141	1045.853	780.005
407.409	17.174	1045.543	779.856
408.423	17.103	1045.016	779.070
409.438	17.292	1043.864	779.005
410.453	17.186	1043.770	778.383
411.467	17.241	1042.598	777.690
412.482	17.417	1041.862	777.877
413.496	17.356	1041.544	777.292
414.511	17.434	1040.947	777.133
415.526	17.314	1040.703	776.336
416.540	17.425	1039.977	776.230
417.555	17.448	1039.619	776.003
418.569	17.397	1039.006	775.242
419.584	17.388	1039.039	775.156
420.599	17.427	1038.070	774.542
421.613	107.580	1328.487	1485.086
422.628	98.692	1370.734	1485.181
