DTS Sentinel unit serial number:	SN413079Multiplexer serial number:	ORYXHardware model number:	OX4-SRSoftware version number:	ORYX F/W v4.00 Oryx Data Collector v3.7.2.0data status	okinstallation	princeton_trtdifferential loss correction	single-endedforward channel	channel 2reverse channel	N/Adate	2019/09/12time	18:59:49forward acquisition time	15.00reverse acquisition time	0.00gamma	496.2192k internal	0.2325k external	0.2325temperature offset calibration	1.0136default loss term (dB/km)	0.3790temperature slope calibration	1.0000multiplexer offset coefficient	1.0000multiplexer slope coefficient	1.0000fibre end	0.00T internal ref (°C)	32.75T ext. ref 1 (°C)	3.00T ext. ref 2 (°C)	27.33length (m)	temperature (°C)	Stokes	anti-Stokes-747.200	318.052	0.213	0.407
-746.185	95.689	0.298	0.343
-745.171	378.128	-0.193	0.399
-744.156	88.249	0.110	0.123
-743.142	-24.437	-0.257	0.155
-742.127	748.115	-0.357	0.972
-741.112	-55.781	-0.768	-0.346
-740.098	-200.000	0.016	0.243
-739.083	800.000	-0.309	0.861
-738.069	-41.157	0.186	0.097
-737.054	93.197	0.051	-0.058
-736.039	39.553	0.345	-0.312
-735.025	-101.022	0.688	0.170
-734.010	-200.000	-0.090	0.985
-732.996	-65.801	0.551	-0.222
-731.981	460.324	-0.330	0.742
-730.966	309.437	0.198	-0.373
-729.952	-107.338	0.533	0.118
-728.937	-124.471	-0.429	-0.067
-727.923	-85.735	-1.009	-0.316
-726.908	599.636	0.229	-0.573
-725.894	-149.131	-0.645	-0.052
-724.879	-111.951	-0.718	0.146
-723.864	460.594	-0.102	-0.230
-722.850	96.008	-0.127	0.146
-721.835	-200.000	0.034	-1.126
-720.821	-149.290	-0.649	0.052
-719.806	13.574	-0.741	0.580
-718.791	-128.765	-1.091	-0.155
-717.777	618.546	-0.152	-0.384
-716.762	787.628	-0.356	0.984
-715.748	800.000	0.025	-0.108
-714.733	-83.930	-0.579	-0.186
-713.718	-200.000	0.086	-0.587
-712.704	85.615	-0.034	-0.038
-711.689	-134.920	-0.311	-0.038
-710.675	116.360	-0.266	0.329
-709.660	-70.185	-0.129	0.049
-708.645	73.886	-0.450	-0.475
-707.631	-76.137	0.316	0.112
-706.616	-161.795	0.191	0.010
-705.602	-31.113	-0.247	-0.140
-704.587	107.124	0.081	-0.097
-703.572	-78.987	0.270	0.093
-702.558	800.000	-0.090	-0.316
-701.543	-200.000	0.086	0.789
-700.529	-200.000	-0.055	0.616
-699.514	47.002	-0.267	0.250
-698.499	-91.150	-0.308	-0.089
-697.485	-58.609	-0.229	-0.100
-696.470	615.459	-0.217	0.549
-695.456	699.873	0.056	-0.147
-694.441	-94.986	-1.301	-0.354
-693.426	-149.516	0.415	-0.033
-692.412	7.024	-0.360	-0.270
-691.397	543.178	0.269	-0.647
-690.383	-76.049	-0.713	0.254
-689.368	274.491	-0.213	-0.379
-688.354	38.935	0.300	0.269
-687.339	-200.000	0.066	-0.513
-686.324	-45.412	-0.439	0.219
-685.310	-200.000	-0.004	-0.188
-684.295	-200.000	0.020	0.768
-683.281	-179.026	0.592	0.013
-682.266	800.000	0.108	-0.442
-681.251	-92.252	0.635	-0.180
-680.237	-86.522	-0.211	0.065
-679.222	176.279	-0.488	-0.713
-678.208	800.000	-0.022	-0.079
-677.193	647.175	-0.388	-0.999
-676.178	-124.812	-0.435	-0.068
-675.164	-142.534	-0.135	0.013
-674.149	-61.316	-0.610	-0.258
-673.135	-200.000	-0.090	-0.649
-672.120	143.404	-0.597	0.800
-671.105	477.038	0.226	0.514
-670.091	-21.758	0.365	-0.224
-669.076	-83.927	0.377	0.121
-668.062	98.211	-0.540	-0.626
-667.047	-200.000	-0.002	0.045
-666.032	-59.353	0.168	-0.073
-665.018	-8.797	-0.984	-0.664
-664.003	-85.389	0.615	-0.193
-662.989	234.423	0.595	0.987
-661.974	224.826	-0.297	0.483
-660.959	-200.000	0.087	-0.615
-659.945	-68.738	-0.591	0.230
-658.930	-200.000	0.007	0.311
-657.916	800.000	0.136	-0.433
-656.901	-60.702	-0.546	0.233
-655.886	-93.797	-0.624	-0.173
-654.872	-35.300	-0.282	0.154
-653.857	-115.309	0.265	0.050
-652.843	800.000	-0.101	-0.331
-651.828	-200.000	-0.027	-0.465
-650.814	-2.955	-0.516	-0.362
-649.799	800.000	-0.156	-0.494
-648.784	16.074	0.700	-0.554
-647.770	-73.450	0.404	-0.148
-646.755	102.862	-0.158	0.185
-645.741	333.801	-0.251	0.488
-644.726	25.554	-0.167	0.140
-643.711	-113.741	-0.213	0.042
-642.697	609.698	0.426	1.069
-641.682	-200.000	-0.154	1.088
-640.668	-65.655	0.410	0.165
-639.653	-200.000	-0.549	-0.001
-638.638	-108.141	-0.236	0.051
-637.624	-105.746	0.403	-0.092
-636.609	198.877	0.413	-0.636
-635.595	216.906	-0.329	-0.526
-634.580	-137.535	0.286	-0.032
-633.565	-78.324	0.725	-0.250
-632.551	-136.814	0.313	-0.036
-631.536	83.978	-0.079	0.087
-630.522	-117.838	1.132	-0.204
-629.507	118.168	0.256	-0.317
-628.492	142.391	-0.312	0.416
-627.478	56.457	0.220	0.215
-626.463	-200.000	-0.067	-0.361
-625.449	-23.314	-0.775	-0.468
-624.434	-200.000	0.183	-1.292
-623.419	-92.504	-0.239	-0.067
-622.405	69.841	-0.349	0.362
-621.390	500.731	-0.150	-0.348
-620.376	-18.737	0.392	-0.245
-619.361	-97.512	0.579	0.151
-618.346	-200.000	-0.099	0.922
-617.332	227.668	-0.219	0.358
-616.317	-200.000	-0.006	-0.856
-615.303	438.419	0.247	-0.541
-614.288	42.281	0.600	-0.547
-613.273	-107.998	0.551	-0.120
-612.259	-200.000	-0.059	-1.193
-611.244	-32.052	-0.473	0.266
-610.230	16.192	-0.255	0.202
-609.215	-56.289	0.258	0.115
-608.201	84.740	0.103	0.113
-607.186	-200.000	-0.032	0.460
-606.171	-122.585	-0.168	0.027
-605.157	-93.009	-0.865	0.242
-604.142	-200.000	0.121	-0.739
-603.128	167.177	-0.297	0.424
-602.113	800.000	-0.217	0.799
-601.098	100.531	0.338	0.394
-600.084	-88.874	-0.581	-0.173
-599.069	-200.000	-0.104	-0.614
-598.055	107.792	0.150	0.180
-597.040	-81.851	0.461	0.151
-596.025	-55.442	-0.501	0.226
-595.011	434.167	0.301	-0.656
-593.996	-200.000	-0.091	-0.515
-592.982	258.578	-0.251	-0.434
-591.967	-57.756	-0.508	0.223
-590.952	800.000	-0.090	0.335
-589.938	-200.000	-0.064	-0.716
-588.923	-200.000	-0.018	-0.148
-587.909	-122.924	-0.139	0.022
-586.894	-200.000	0.211	0.957
-585.879	-200.000	0.014	0.158
-584.865	-200.000	0.132	-0.649
-583.850	-99.083	-0.487	-0.124
-582.836	115.673	-0.302	0.370
-581.821	3.111	0.378	-0.276
-580.806	-75.104	-0.679	-0.243
-579.792	274.764	0.130	0.231
-578.777	19.719	0.423	-0.342
-577.763	-63.083	-0.292	0.121
-576.748	-37.658	-0.080	-0.043
-575.733	800.000	-0.112	-0.484
-574.719	-200.000	-0.076	-0.672
-573.704	-35.245	-0.081	-0.044
-572.690	-99.715	0.262	-0.066
-571.675	-144.690	-1.132	-0.104
-570.661	342.966	0.615	1.207
-569.646	567.641	-0.231	0.563
-568.631	-165.121	-0.315	0.014
-567.617	-46.039	0.311	-0.153
-566.602	265.116	-0.265	0.462
-565.588	-29.142	0.830	-0.477
-564.573	72.013	-0.358	-0.373
-563.558	-165.242	-0.681	0.030
-562.544	-127.450	-0.374	0.055
-561.529	240.698	-0.111	0.186
-560.515	115.052	-0.059	-0.072
-559.500	-200.000	0.008	-0.308
-558.485	-109.416	0.607	0.129
-557.471	571.955	-0.092	0.225
-556.456	-200.000	-0.009	-0.362
-555.442	15.597	0.215	0.169
-554.427	378.296	-0.177	0.363
-553.412	-22.433	-0.354	0.215
-552.398	-38.598	-0.291	0.154
-551.383	-169.391	0.646	0.024
-550.369	45.693	-0.098	-0.091
-549.354	-200.000	-0.022	-0.502
-548.339	-111.274	0.371	-0.076
-547.325	-94.017	-0.582	-0.160
-546.310	105.045	0.369	-0.436
-545.296	31.372	-0.297	0.255
-544.281	-200.000	0.015	-0.587
-543.266	-94.342	-0.939	0.257
-542.252	-200.000	0.052	-0.233
-541.237	-106.209	-0.357	0.080
-540.223	-20.182	-0.909	-0.561
-539.208	-200.000	-0.065	0.674
-538.193	100.358	0.149	0.173
-537.179	-114.586	0.102	-0.020
-536.164	-95.350	0.448	-0.120
-535.150	-103.336	0.720	0.170
-534.135	-32.186	-0.292	-0.163
-533.121	-165.997	0.530	0.023
-532.106	101.302	0.073	0.085
-531.091	-200.000	0.021	0.623
-530.077	25.385	0.093	0.078
-529.062	800.000	-0.081	0.250
-528.048	711.312	-0.260	-0.689
-527.033	-200.000	0.050	-0.524
-526.018	-131.857	-0.823	-0.108
-525.004	-146.248	-0.439	0.039
-523.989	56.721	0.280	-0.273
-522.975	7.018	0.943	0.703
-521.960	-131.360	-0.707	-0.094
-520.945	-125.366	0.782	0.119
-519.931	66.042	-0.307	0.312
-518.916	-137.919	0.405	-0.045
-517.902	-177.729	0.442	0.011
-516.887	-200.000	0.066	0.571
-515.872	-115.027	-0.369	0.070
-514.858	-200.000	-0.063	0.391
-513.843	-58.877	-0.503	-0.217
-512.829	120.114	0.179	0.222
-511.814	124.672	0.248	0.313
-510.799	13.115	-0.609	0.471
-509.785	-99.763	0.517	-0.129
-508.770	-104.259	-0.356	-0.083
-507.756	709.242	-0.125	0.331
-506.741	-118.546	0.718	-0.127
-505.726	75.122	-0.693	-0.730
-504.712	-200.000	0.048	0.819
-503.697	23.544	-0.283	-0.233
-502.683	2.654	-0.314	0.227
-501.668	-97.171	0.615	-0.161
-500.653	-16.097	-0.243	-0.155
-499.639	32.903	0.347	0.300
-498.624	453.099	0.572	-1.266
-497.610	117.080	-0.166	-0.203
-496.595	800.000	-0.122	-0.463
-495.581	-41.781	0.443	-0.227
-494.566	-52.527	0.372	-0.172
-493.551	-200.000	0.036	0.241
-492.537	-99.589	-0.928	0.233
-491.522	800.000	-0.386	1.078
-490.508	800.000	-0.073	0.246
-489.493	88.123	0.566	-0.627
-488.478	322.334	0.256	0.487
-487.464	227.289	-0.432	-0.702
-486.449	675.370	-0.422	1.096
-485.435	7.887	-0.451	-0.338
-484.420	-107.725	0.628	0.137
-483.405	-79.850	0.034	-0.012
-482.391	-71.808	-0.603	-0.225
-481.376	-119.327	0.675	0.117
-480.362	194.242	-0.067	-0.102
-479.347	-200.000	0.116	-0.566
-478.332	11.258	0.747	0.571
-477.318	-200.000	-0.016	0.125
-476.303	92.460	0.585	-0.659
-475.289	702.640	0.258	0.679
-474.274	-200.000	0.056	0.862
-473.259	10.230	-0.203	-0.154
-472.245	-20.749	-0.208	-0.128
-471.230	27.827	0.177	-0.149
-470.216	78.023	-0.653	-0.696
-469.201	181.789	0.428	-0.629
-468.186	88.390	0.315	0.349
-467.172	800.000	-0.103	0.405
-466.157	-65.890	-0.226	0.090
-465.143	-93.537	-0.483	-0.133
-464.128	139.655	-0.016	-0.021
-463.113	31.443	0.588	0.504
-462.099	109.927	-0.461	-0.552
-461.084	71.815	-0.432	0.448
-460.070	436.489	-0.071	0.155
-459.055	190.679	-0.371	0.556
-458.040	-74.080	0.350	-0.126
-457.026	185.851	0.462	-0.685
-456.011	784.076	-0.077	-0.210
-454.997	11.296	-0.413	-0.316
-453.982	105.617	-0.441	-0.520
-452.968	-200.000	0.012	0.105
-451.953	-110.658	0.095	-0.020
-450.938	38.366	-0.249	0.221
-449.924	157.279	-0.275	-0.380
-448.909	-3.450	0.741	-0.514
-447.895	-25.080	0.284	-0.168
-446.880	-51.392	-0.521	0.243
-445.865	12.742	-0.429	0.330
-444.851	-47.802	-0.019	-0.009
-443.836	286.053	-0.050	0.090
-442.822	-200.000	-0.061	0.608
-441.807	800.000	0.081	-0.257
-440.792	-162.026	0.197	-0.010
-439.778	218.221	0.248	0.395
-438.763	237.473	-0.235	0.388
-437.749	-14.889	0.392	-0.251
-436.734	-89.595	-0.689	-0.202
-435.719	800.000	-0.195	0.585
-434.705	-67.641	0.591	0.231
-433.690	111.832	0.235	-0.283
-432.676	771.695	0.200	0.543
-431.661	156.311	-0.388	-0.534
-430.646	-121.524	0.981	-0.162
-429.632	91.933	-0.292	0.328
-428.617	64.902	-0.087	0.087
-427.603	167.792	-0.394	0.558
-426.588	800.000	-0.204	-0.812
-425.573	-97.101	0.294	-0.077
-424.559	-200.000	0.031	0.216
-423.544	-98.583	0.795	0.202
-422.530	-58.165	-0.514	-0.223
-421.515	29.700	0.439	0.372
-420.500	24.907	-0.525	0.433
-419.486	-42.846	-0.280	0.142
-418.471	-200.000	0.077	-0.438
-417.457	287.972	0.399	-0.720
-416.442	-86.151	0.690	-0.212
-415.428	-65.599	-0.515	-0.206
-414.413	800.000	0.176	0.561
-413.398	-200.000	-0.004	-0.053
-412.384	-200.000	-0.079	0.355
-411.369	67.609	0.426	0.434
-410.355	800.000	-0.301	-0.994
-409.340	-200.000	0.093	0.616
-408.325	800.000	0.194	0.719
-407.311	-47.803	-0.295	-0.142
-406.296	-20.960	0.412	0.251
-405.282	-200.000	-0.010	0.262
-404.267	267.800	-0.237	0.414
-403.252	-141.894	0.080	0.008
-402.238	800.000	-0.088	-0.331
-401.223	469.818	0.126	0.281
-400.209	800.000	-0.050	-0.166
-399.194	-55.560	-0.821	-0.366
-398.179	471.479	-0.331	0.741
-397.165	800.000	-0.169	0.658
-396.150	-27.344	-0.038	0.022
-395.136	-125.277	0.202	-0.031
-394.121	-98.770	-0.491	0.124
-393.106	324.643	-0.261	0.497
-392.092	-99.544	-0.440	-0.110
-391.077	214.157	-0.074	0.117
-390.063	-200.000	-0.025	0.127
-389.048	-57.271	-0.296	-0.129
-388.033	667.185	-0.109	0.281
-387.019	-61.081	0.260	0.109
-386.004	-55.665	-0.392	-0.174
-384.990	23.150	-0.207	0.169
-383.975	-146.595	0.586	-0.051
-382.960	-200.000	0.024	-0.137
-381.946	-46.303	-0.335	-0.164
-380.931	-200.000	-0.056	-0.645
-379.917	-200.000	0.034	-0.185
-378.902	-200.000	0.013	-0.226
-377.888	179.139	0.497	-0.723
-376.873	-81.732	0.137	-0.045
-375.858	-70.687	-0.268	-0.101
-374.844	629.385	0.153	0.385
-373.829	417.587	0.182	-0.386
-372.815	-77.209	0.435	0.151
-371.800	-200.000	-0.262	0.000
-370.785	-200.000	-0.011	-0.081
-369.771	15.613	0.539	0.421
-368.756	-84.626	-1.104	0.346
-367.742	-92.036	0.295	0.083
-366.727	-121.851	-0.919	-0.151
-365.712	55.865	-0.155	-0.149
-364.698	-22.021	-0.270	-0.163
-363.683	800.000	-0.167	-0.551
-362.669	405.817	-0.160	-0.335
-361.654	474.475	0.229	-0.513
-360.639	-161.285	0.111	-0.006
-359.625	73.339	-0.342	-0.356
-358.610	383.280	-0.348	-0.712
-357.596	21.953	-0.353	0.286
-356.581	-43.333	-0.341	0.171
-355.566	-124.578	0.548	0.085
-354.552	-94.497	0.384	0.104
-353.537	1.474	0.579	0.414
-352.523	-142.153	-0.597	0.059
-351.508	-98.746	0.443	0.112
-350.493	115.644	-0.577	0.701
-349.479	121.578	-0.570	-0.706
-348.464	-1.324	-0.513	0.360
-347.450	800.000	0.045	-0.193
-346.435	-200.000	0.120	0.575
-345.420	-200.000	-0.034	0.842
-344.406	-200.000	0.002	-0.114
-343.391	490.850	0.355	0.808
-342.377	-26.723	-0.289	0.168
-341.362	-200.000	0.010	-0.174
-340.348	2.366	0.112	-0.080
-339.333	159.866	0.221	-0.306
-338.318	-200.000	-0.001	0.251
-337.304	95.412	0.385	-0.436
-336.289	143.394	0.367	-0.485
-335.275	-68.833	-0.177	0.068
-334.260	228.156	-0.104	0.168
-333.245	-200.000	0.180	-0.870
-332.231	-200.000	0.004	-0.277
-331.216	82.267	-0.683	-0.736
-330.202	-68.496	0.391	0.150
-329.187	-28.991	-0.272	0.155
-328.172	800.000	-0.154	0.507
-327.158	-144.773	-0.347	-0.032
-326.143	-200.000	-0.025	-0.862
-325.129	144.305	0.540	-0.715
-324.114	365.508	-0.121	-0.242
-323.099	-143.045	-0.267	0.026
-322.085	83.322	0.295	-0.319
-321.070	-128.682	-0.326	-0.046
-320.056	-45.791	-0.580	0.284
-319.041	-37.602	-0.308	-0.163
-318.026	-33.523	-0.268	0.147
-317.012	311.176	0.055	-0.102
-315.997	800.000	-0.146	0.472
-314.983	800.000	0.213	0.707
-313.968	588.234	-0.105	-0.257
-312.953	-200.000	0.094	-0.714
-311.939	-13.401	0.295	-0.190
-310.924	800.000	0.201	0.777
-309.910	11.383	0.824	0.626
-308.895	-200.000	0.018	-0.275
-307.880	63.452	-0.124	-0.123
-306.866	-163.741	-0.127	-0.006
-305.851	-19.119	0.332	0.204
-304.837	82.172	0.264	-0.284
-303.822	-83.910	-0.548	0.173
-302.807	-57.370	0.445	0.194
-301.793	239.820	0.621	-1.026
-300.778	-75.719	0.206	-0.073
-299.764	-182.377	-0.713	-0.013
-298.749	-126.910	-0.435	-0.064
-297.735	800.000	0.215	-0.745
-296.720	800.000	0.148	0.460
-295.705	115.291	-0.472	-0.572
-294.691	-200.000	-0.083	-0.404
-293.676	-200.000	0.014	0.060
-292.662	-44.358	-0.573	-0.285
-291.647	-200.000	-0.070	-0.458
-290.632	-17.014	0.515	0.322
-289.618	800.000	0.335	-1.027
-288.603	-200.000	-0.037	-0.303
-287.589	800.000	-0.222	-0.710
-286.574	800.000	-0.186	0.797
-285.559	-200.000	-0.028	0.802
-284.545	-200.000	0.020	-0.760
-283.530	61.067	1.090	-1.072
-282.516	800.000	-0.034	0.137
-281.501	663.880	0.243	-0.621
-280.486	209.374	-0.415	-0.645
-279.472	800.000	0.171	-0.483
-278.457	800.000	0.419	1.492
-277.443	16.100	0.696	0.544
-276.428	-147.507	0.702	-0.059
-275.413	-33.842	-0.558	0.304
-274.399	-100.360	0.517	0.127
-273.384	103.874	0.496	0.578
-272.370	392.197	-0.363	0.747
-271.355	-9.107	0.485	-0.321
-270.340	-200.000	0.053	-0.376
-269.326	120.316	0.221	-0.272
-268.311	-174.518	-0.849	-0.024
-267.297	-200.000	0.040	0.475
-266.282	40.425	-0.456	-0.406
-265.267	800.000	0.066	0.232
-264.253	-71.576	0.414	0.153
-263.238	-200.000	0.030	-0.321
-262.224	-170.550	0.753	0.026
-261.209	89.340	-0.496	0.547
-260.195	-200.000	0.095	1.078
-259.180	131.614	-0.532	-0.677
-258.165	-116.559	-0.771	-0.141
-257.151	-73.269	0.080	-0.029
-256.136	111.542	-0.158	0.189
-255.122	466.304	0.384	0.850
-254.107	61.803	-0.443	0.436
-253.092	-200.000	-0.126	0.707
-252.078	-200.000	0.061	-0.667
-251.063	-125.756	0.642	0.096
-250.049	278.432	0.058	0.102
-249.034	73.422	-0.293	0.304
-248.019	-107.643	-1.083	0.234
-247.005	48.809	0.217	-0.201
-245.990	-27.655	0.921	-0.529
-244.976	-42.910	-0.323	0.162
-243.961	-55.433	0.196	0.087
-242.946	229.300	-0.250	0.403
-241.932	387.496	-0.371	0.759
-240.917	-200.000	-0.042	-0.575
-239.903	-96.674	0.764	-0.199
-238.888	-122.720	0.614	-0.098
-237.873	-42.628	0.523	0.263
-236.859	-1.795	-0.575	0.400
-235.844	-146.356	0.605	-0.052
-234.830	467.597	0.316	0.701
-233.815	-200.000	0.058	0.388
-232.800	54.493	-0.383	0.365
-231.786	-200.000	0.069	0.366
-230.771	0.713	0.585	-0.414
-229.757	618.400	0.392	-0.974
-228.742	25.890	-0.388	-0.320
-227.727	-200.000	-0.027	-0.166
-226.713	478.154	0.266	-0.596
-225.698	800.000	-0.145	0.575
-224.684	314.339	-0.238	-0.442
-223.669	800.000	-0.229	0.661
-222.655	-51.627	-0.122	-0.056
-221.640	-49.193	0.525	0.248
-220.625	55.427	0.562	0.538
-219.611	-200.000	0.040	0.791
-218.596	0.410	-0.250	-0.177
-217.582	-173.104	-0.609	-0.018
-216.567	-53.007	-0.490	0.223
-215.552	-200.000	0.416	-0.001
-214.538	-200.000	0.054	-0.259
-213.523	-106.603	-0.655	-0.144
-212.509	26.495	-0.697	-0.576
-211.494	-200.000	-0.064	-0.343
-210.479	-57.985	-0.196	-0.085
-209.465	-124.311	0.470	0.073
-208.450	144.851	0.236	0.312
-207.436	-88.761	-0.477	-0.140
-206.421	-19.882	-0.304	-0.185
-205.406	89.677	0.215	-0.237
-204.392	800.000	-0.316	1.005
-203.377	-52.936	0.395	-0.180
-202.363	800.000	-0.071	-0.272
-201.348	31.970	0.226	-0.193
-200.333	800.000	-0.211	0.864
-199.319	43.397	-0.285	-0.258
-198.304	141.607	0.470	-0.615
-197.290	57.401	0.448	0.432
-196.275	216.507	-0.294	0.462
-195.260	29.837	0.623	0.525
-194.246	-200.000	-0.013	-0.559
-193.231	-200.000	0.031	-0.321
-192.217	-58.168	-0.396	-0.171
-191.202	458.343	-0.302	0.663
-190.187	17.511	1.080	0.848
-189.173	-145.206	0.579	-0.052
-188.158	533.481	-0.401	-0.937
-187.144	800.000	-0.165	-0.451
-186.129	-158.499	0.988	-0.056
-185.114	-200.000	-0.002	-0.587
-184.100	-136.769	0.789	-0.090
-183.085	402.905	-0.070	-0.146
-182.071	-50.845	-0.320	-0.149
-181.056	106.172	-0.216	0.253
-180.042	129.563	0.472	-0.595
-179.027	-5.997	-0.563	0.380
-178.012	471.269	-0.077	-0.171
-176.998	-52.023	0.495	0.227
-175.983	800.000	0.163	-0.643
-174.969	617.122	-0.243	0.601
-173.954	800.000	-0.118	0.359
-172.939	-200.000	-0.063	0.615
-171.925	-143.230	-0.021	-0.002
-170.910	-7.608	0.348	0.232
-169.896	-32.657	0.542	0.298
-168.881	-11.865	-1.096	-0.709
-167.866	-200.000	-0.002	-0.398
-166.852	-200.000	-0.017	0.381
-165.837	-200.000	-0.011	0.299
-164.823	10.983	-0.255	0.192
-163.808	-43.283	0.655	-0.327
-162.793	48.503	0.233	-0.215
-161.779	-200.000	-0.058	0.280
-160.764	645.991	-0.136	0.343
-159.750	-200.000	0.132	0.732
-158.735	-200.000	0.088	0.467
-157.720	127.526	0.469	0.587
-156.706	193.891	0.109	0.162
-155.691	800.000	-0.205	-0.583
-154.677	-200.000	0.319	0.001
-153.662	50.557	0.446	-0.416
-152.647	275.243	0.505	-0.883
-151.633	35.340	-0.660	0.570
-150.618	-129.242	-0.194	0.027
-149.604	-200.000	-0.003	-0.291
-148.589	800.000	-0.132	0.472
-147.574	733.459	-0.089	0.234
-146.560	-37.260	0.023	-0.012
-145.545	800.000	-0.146	-0.571
-144.531	80.216	0.506	0.537
-143.516	14.302	0.480	0.369
-142.502	-33.438	-0.171	-0.093
-141.487	-200.000	0.013	-0.342
-140.472	222.000	0.463	-0.733
-139.458	270.724	-0.157	0.272
-138.443	114.800	-0.370	0.445
-137.429	800.000	-0.188	0.700
-136.414	-200.000	0.068	-0.307
-135.399	333.935	0.198	-0.378
-134.385	-52.788	-0.530	0.241
-133.370	15.599	0.603	0.467
-132.356	1.563	0.233	-0.165
-131.341	-200.000	-0.063	0.460
-130.326	-155.644	0.294	-0.019
-129.312	53.647	-0.309	-0.292
-128.297	328.490	-0.356	0.674
-127.283	-71.125	-0.362	0.134
-126.268	-8.387	-0.519	0.344
-125.253	-106.323	0.248	-0.055
-124.239	275.695	0.569	-0.995
-123.224	-19.951	-0.596	0.362
-122.210	-113.381	-0.777	0.150
-121.195	136.056	0.553	0.709
-120.180	434.163	-0.076	0.162
-119.166	20.644	-0.271	-0.216
-118.151	-34.475	-0.464	-0.250
-117.137	-103.326	-0.469	-0.109
-116.122	-80.950	0.941	0.307
-115.107	53.926	-0.133	-0.126
-114.093	-92.568	-0.517	0.143
-113.078	-39.039	-0.443	0.230
-112.064	-86.066	-0.966	0.294
-111.049	-80.564	-0.120	0.039
-110.034	116.708	-0.299	-0.361
-109.020	-155.804	0.295	-0.019
-108.005	34.134	-0.316	0.271
-106.991	53.653	0.395	-0.373
-105.976	-38.273	-0.956	0.498
-104.962	-200.000	-0.019	0.144
-103.947	129.823	0.080	-0.101
-102.932	68.077	0.195	-0.196
-101.918	-39.614	1.173	0.604
-100.903	-200.000	-0.044	0.471
-99.889	-200.000	0.189	-0.968
-98.874	69.226	-0.389	0.393
-97.859	-20.390	0.285	0.172
-96.845	87.825	-0.204	0.223
-95.830	66.022	0.286	0.285
-94.816	-52.507	0.387	0.176
-93.801	148.397	-0.054	0.072
-92.786	800.000	0.145	-0.539
-91.772	40.318	0.122	0.108
-90.757	-167.989	-0.010	0.000
-89.743	-1.855	-0.105	-0.072
-88.728	115.813	-0.218	0.263
-87.713	508.072	-0.217	0.495
-86.699	-90.728	-0.171	0.049
-85.684	800.000	-0.085	-0.265
-84.670	800.000	0.128	-0.450
-83.655	800.000	-0.118	-0.470
-82.640	167.635	-0.679	-0.949
-81.626	18.710	0.216	-0.170
-80.611	-72.399	0.561	0.204
-79.597	433.954	0.082	-0.176
-78.582	-25.826	0.759	-0.440
-77.567	-25.787	-0.870	0.504
-76.553	-195.474	0.654	-0.005
-75.538	-60.334	0.278	0.116
-74.524	458.822	-0.087	0.190
-73.509	26.419	-0.382	0.314
-72.494	78.236	0.391	0.410
-71.480	-29.427	0.363	0.204
-70.465	-94.966	-0.698	0.186
-69.451	800.000	-0.121	0.515
-68.436	800.000	-0.299	0.851
-67.422	-200.000	0.033	0.554
-66.407	-200.000	-0.044	0.415
-65.392	800.000	0.218	0.929
-64.378	-80.000	-0.174	0.057
-63.363	223.575	-0.079	0.125
-62.349	628.729	0.150	0.373
-61.334	202.557	-0.608	-0.923
-60.319	51.824	0.636	0.594
-59.305	30.584	-1.074	-0.902
-58.290	-200.000	0.105	0.674
-57.276	225.855	0.532	0.847
-56.261	-200.000	95.013	579.438
-55.246	667.082	1358.270	3448.388
-54.232	202.906	2529.656	3838.750
-53.217	112.797	2248.689	2675.149
-52.203	42.214	1880.748	1677.869
-51.188	36.067	1673.058	1446.565
-50.173	33.302	1629.552	1388.641
-49.159	51.534	1678.739	1566.665
-48.144	52.385	1695.155	1588.253
-47.130	35.633	1656.104	1428.453
-46.115	33.026	1641.461	1396.525
-45.100	32.952	1634.518	1390.021
-44.086	32.696	1632.994	1386.781
-43.071	32.895	1629.391	1385.131
-42.057	32.642	1627.695	1381.775
-41.042	32.699	1626.878	1381.448
-40.027	32.857	1623.067	1379.312
-39.013	32.768	1622.492	1378.120
-37.998	32.517	1620.989	1374.955
-36.984	32.568	1620.588	1374.935
-35.969	32.600	1618.326	1373.190
-34.954	32.974	1615.926	1373.821
-33.940	32.781	1614.349	1371.021
-32.925	32.590	1612.839	1368.300
-31.911	32.710	1611.122	1367.662
-30.896	32.799	1609.134	1366.561
-29.881	32.824	1606.801	1364.708
-28.867	32.722	1605.541	1362.847
-27.852	32.618	1605.406	1361.926
-26.838	32.792	1603.038	1361.116
-25.823	32.988	1600.854	1360.620
-24.809	32.667	1601.225	1358.568
-23.794	32.885	1598.434	1357.717
-22.779	32.869	1597.254	1356.544
-21.765	32.726	1595.230	1353.744
-20.750	32.738	1594.636	1353.276
-19.736	32.768	1592.878	1351.944
-18.721	32.756	1592.689	1351.647
-17.706	32.780	1589.903	1349.394
-16.692	32.668	1589.157	1347.913
-15.677	32.722	1587.605	1346.924
-14.663	32.584	1586.334	1344.810
-13.648	32.947	1583.509	1344.947
-12.633	33.014	1582.211	1344.268
-11.619	32.683	1582.272	1341.911
-10.604	32.903	1580.601	1342.006
-9.590	32.774	1579.086	1339.748
-8.575	32.882	1577.571	1339.179
-7.560	32.673	1577.028	1337.178
-6.546	32.833	1575.558	1337.017
-5.531	32.633	1575.201	1335.244
-4.517	32.866	1572.512	1334.554
-3.502	32.836	1571.643	1333.558
-2.487	32.817	1570.674	1332.545
-1.473	32.387	1558.517	1319.163
-0.458	29.653	1538.365	1283.105
0.556	27.440	1537.934	1252.275
1.571	24.687	1562.992	1253.294
2.586	24.108	1574.838	1258.588
3.600	21.468	1521.799	1198.040
4.615	12.397	1413.751	1054.902
5.629	4.548	1349.245	958.426
6.644	3.143	1340.981	943.859
7.659	2.931	1339.670	941.549
8.673	2.902	1339.115	940.897
9.688	3.025	1336.614	939.809
10.702	2.898	1333.837	937.003
11.717	6.402	1340.770	963.247
12.731	15.904	1357.654	1033.896
13.746	23.491	1367.827	1088.297
14.761	24.962	1371.903	1100.493
15.775	24.783	1370.812	1098.423
16.790	24.768	1370.294	1097.813
17.804	24.860	1369.137	1097.355
18.819	24.945	1368.188	1097.020
19.834	25.171	1367.549	1097.793
20.848	24.960	1367.826	1096.627
21.863	25.092	1366.639	1096.385
22.877	25.077	1366.035	1095.711
23.892	25.107	1364.717	1094.742
24.907	25.063	1363.841	1093.671
25.921	25.157	1362.763	1093.285
26.936	25.069	1361.537	1091.665
27.950	25.120	1361.227	1091.632
28.965	24.934	1360.048	1089.463
29.980	25.133	1358.547	1089.369
30.994	24.915	1358.557	1087.961
32.009	24.947	1357.229	1086.993
33.023	25.045	1355.985	1086.491
34.038	24.945	1354.857	1084.891
35.053	25.073	1354.280	1085.103
36.067	25.190	1352.755	1084.496
37.082	25.188	1351.654	1083.506
38.096	25.059	1351.546	1082.543
39.111	25.037	1351.597	1082.356
40.126	25.059	1350.129	1081.217
41.140	25.099	1348.560	1080.108
42.155	24.883	1348.754	1078.862
43.169	25.017	1349.302	1080.014
44.184	24.899	1347.924	1078.104
45.199	24.848	1347.134	1077.070
46.213	24.940	1347.464	1077.795
47.228	25.140	1346.997	1078.527
48.242	25.504	1344.970	1078.992
49.257	25.209	1343.767	1076.164
50.271	25.120	1343.249	1075.122
51.286	25.388	1340.736	1074.621
52.301	25.117	1339.608	1072.000
53.315	25.202	1339.313	1072.177
54.330	25.096	1338.128	1070.500
55.344	25.025	1338.512	1070.286
56.359	25.042	1337.347	1069.360
57.374	25.144	1336.200	1068.957
58.388	24.986	1335.365	1067.257
59.403	25.021	1335.475	1067.454
60.417	25.064	1333.474	1066.017
61.432	24.969	1333.447	1065.336
62.447	25.115	1332.577	1065.414
63.461	24.920	1331.935	1063.653
64.476	25.393	1329.684	1064.565
65.490	24.891	1329.612	1061.434
66.505	24.740	1328.559	1059.605
67.520	25.163	1325.437	1059.522
68.534	24.819	1325.935	1057.795
69.549	24.812	1325.520	1057.325
70.563	24.896	1323.947	1056.472
71.578	24.990	1323.104	1056.262
72.593	24.841	1321.756	1054.217
73.607	24.679	1322.368	1053.653
74.622	24.917	1320.687	1053.624
75.636	24.968	1320.330	1053.543
76.651	25.032	1318.682	1052.515
77.666	24.789	1319.512	1051.653
78.680	24.900	1319.106	1051.892
79.695	24.920	1316.973	1050.211
80.709	25.012	1316.467	1050.258
81.724	25.179	1315.949	1050.727
82.739	25.244	1314.973	1050.236
83.753	25.244	1314.239	1049.560
84.768	25.365	1313.408	1049.507
85.782	25.178	1313.837	1048.663
86.797	25.158	1311.712	1046.761
87.812	25.412	1309.826	1046.639
88.826	25.190	1309.511	1045.007
89.841	25.212	1307.347	1043.312
90.855	25.256	1307.497	1043.595
91.870	25.262	1307.940	1043.893
92.884	25.312	1306.619	1043.034
93.899	25.392	1305.435	1042.464
94.914	25.443	1304.947	1042.279
95.928	25.315	1303.969	1040.659
96.943	25.196	1302.803	1038.953
97.957	25.133	1302.740	1038.440
98.972	24.959	1301.940	1036.706
99.987	25.272	1300.181	1037.022
101.001	25.294	1299.098	1036.195
102.016	25.006	1298.506	1033.967
103.030	25.443	1297.431	1035.541
104.045	25.427	1296.986	1035.003
105.060	25.318	1294.839	1032.568
106.074	24.947	1295.559	1030.919
107.089	24.930	1294.087	1029.555
108.103	24.812	1292.302	1027.366
109.118	24.918	1290.212	1026.222
110.133	24.946	1290.441	1026.471
111.147	24.747	1289.244	1024.292
112.162	25.225	1287.653	1025.672
113.176	25.120	1286.704	1024.227
114.191	24.922	1286.275	1022.664
115.206	25.067	1285.190	1022.536
116.220	25.273	1283.803	1022.513
117.235	24.946	1283.379	1020.227
118.249	24.728	1282.260	1018.005
119.264	24.812	1280.772	1017.212
120.279	24.815	1281.072	1017.376
121.293	24.881	1280.492	1017.198
122.308	25.055	1278.290	1016.349
123.322	24.749	1278.260	1014.499
124.337	24.975	1276.367	1014.185
125.352	24.931	1275.914	1013.489
126.366	24.910	1275.276	1012.773
127.381	25.116	1274.210	1012.998
128.395	24.879	1272.234	1010.001
129.410	24.968	1271.753	1010.033
130.424	24.684	1271.903	1008.461
131.439	24.729	1271.417	1008.243
132.454	24.893	1269.843	1007.828
133.468	24.841	1271.212	1008.528
134.483	25.107	1269.325	1008.441
135.497	25.025	1268.680	1007.380
136.512	25.168	1267.392	1007.069
137.527	24.894	1267.034	1005.158
138.541	25.060	1264.809	1004.231
139.556	25.074	1263.607	1003.266
140.570	25.236	1262.217	1002.983
141.585	25.182	1263.252	1003.415
142.600	25.123	1262.039	1002.031
143.614	25.513	1260.514	1002.911
144.629	25.322	1260.067	1001.396
145.643	24.916	1259.511	998.604
146.658	24.989	1258.258	997.931
147.673	25.208	1255.979	997.253
148.687	25.260	1255.184	996.820
149.702	24.775	1255.503	994.288
150.716	24.793	1253.087	992.387
151.731	24.462	1251.804	989.453
152.746	24.680	1250.275	989.361
153.760	25.176	1249.001	991.009
154.775	25.498	1248.418	992.236
155.789	25.199	1248.831	990.824
156.804	25.159	1247.170	989.199
157.819	24.875	1246.062	986.668
158.833	24.877	1245.804	986.383
159.848	25.385	1243.986	987.652
160.862	25.124	1244.592	986.610
161.877	25.013	1243.541	985.079
162.892	25.074	1242.051	984.146
163.906	24.797	1241.668	982.238
164.921	24.690	1241.602	981.509
165.935	24.943	1240.368	981.833
166.950	25.082	1239.821	982.074
167.964	25.108	1239.055	981.526
168.979	25.111	1237.450	980.184
169.994	25.228	1237.038	980.411
171.008	25.160	1235.677	978.871
172.023	25.183	1236.599	979.645
173.037	25.106	1236.204	978.820
174.052	25.290	1234.233	978.177
175.067	25.374	1232.932	977.517
176.081	25.024	1233.060	975.626
177.096	25.028	1231.797	974.562
178.110	25.183	1230.417	974.227
179.125	25.078	1229.794	973.080
180.140	25.127	1229.023	972.646
181.154	25.015	1227.271	970.569
182.169	25.219	1226.190	970.730
183.183	25.072	1225.125	969.009
184.198	25.228	1224.650	969.392
185.213	25.396	1223.218	969.079
186.227	25.058	1222.577	966.658
187.242	25.423	1221.886	967.997
188.256	25.428	1220.670	966.973
189.271	25.099	1220.584	965.050
190.286	25.266	1219.718	965.178
191.300	25.075	1218.108	962.790
192.315	25.125	1218.082	962.952
193.329	25.097	1219.118	963.538
194.344	25.434	1216.730	963.374
195.359	24.852	1216.888	960.287
196.373	24.909	1216.186	959.960
197.388	24.764	1215.172	958.297
198.402	24.997	1215.116	959.414
199.417	25.361	1214.872	961.085
200.432	25.238	1214.528	960.071
201.446	25.124	1213.982	958.943
202.461	25.247	1212.811	958.592
203.475	25.129	1211.990	957.228
204.490	24.893	1210.922	955.041
205.504	24.850	1209.321	953.465
206.519	24.728	1209.256	952.681
207.534	24.876	1207.137	951.712
208.548	24.699	1205.803	949.638
209.563	24.962	1205.380	950.615
210.577	24.646	1204.346	948.038
211.592	24.811	1204.807	949.194
212.607	25.066	1204.277	950.044
213.621	25.419	1203.273	951.039
214.636	25.170	1202.445	948.979
215.650	24.953	1201.055	946.652
216.665	25.510	1199.177	948.028
217.680	25.511	1199.574	948.260
218.694	25.410	1198.440	946.752
219.709	25.092	1198.425	944.979
220.723	25.041	1196.483	943.097
221.738	25.016	1195.905	942.427
222.753	24.787	1196.432	941.553
223.767	24.750	1195.662	940.668
224.782	25.169	1195.212	942.431
225.796	25.404	1194.591	943.096
226.811	25.371	1194.115	942.459
227.826	25.123	1192.943	940.152
228.840	25.243	1191.885	939.866
229.855	25.065	1191.572	938.602
230.869	24.896	1192.060	938.018
231.884	25.010	1190.680	937.442
232.899	24.654	1189.422	934.509
233.913	24.820	1188.669	934.704
234.928	25.038	1188.807	935.871
235.942	24.658	1188.391	933.476
236.957	24.847	1186.313	932.744
237.972	24.760	1185.812	931.812
238.986	24.418	1186.344	930.365
240.001	24.897	1184.589	931.400
241.015	25.076	1183.618	931.488
242.030	24.847	1182.404	929.260
243.045	25.254	1182.359	931.255
244.059	25.003	1181.884	929.497
245.074	25.212	1180.450	929.368
246.088	25.361	1179.611	929.399
247.103	25.406	1179.730	929.643
248.117	25.013	1179.626	927.443
249.132	25.074	1178.500	926.791
250.147	25.696	1177.870	929.428
251.161	25.581	1177.669	928.595
252.176	25.619	1176.670	927.920
253.190	25.924	1175.260	928.297
254.205	25.688	1175.636	927.296
255.220	26.059	1175.145	928.738
256.234	26.092	1173.644	927.634
257.249	26.130	1173.094	927.316
258.263	25.830	1173.106	925.702
259.278	25.709	1172.767	924.730
260.293	25.876	1171.935	924.847
261.307	25.637	1172.004	923.598
262.322	25.711	1170.856	922.988
263.336	25.785	1169.543	922.252
264.351	25.869	1169.166	922.300
265.366	25.752	1169.138	921.596
266.380	25.859	1168.491	921.554
267.395	25.656	1167.596	919.729
268.409	25.509	1166.648	918.153
269.424	25.513	1165.997	917.578
270.439	25.622	1165.665	917.794
271.453	25.660	1165.127	917.483
272.468	25.564	1163.268	915.448
273.482	25.416	1161.960	913.584
274.497	25.269	1162.319	913.038
275.512	25.729	1162.214	915.211
276.526	25.460	1160.989	912.800
277.541	25.557	1160.529	912.850
278.555	25.665	1160.051	912.945
279.570	25.943	1159.005	913.447
280.585	25.841	1159.017	912.858
281.599	25.716	1157.629	911.053
282.614	25.860	1156.115	910.510
283.628	25.744	1154.954	908.928
284.643	25.940	1154.458	909.446
285.657	25.561	1153.681	906.840
286.672	25.605	1152.928	906.394
287.687	25.422	1152.639	905.162
288.701	25.867	1151.415	906.360
289.716	25.546	1151.077	904.401
290.730	25.755	1149.307	903.978
291.745	25.728	1149.246	903.714
292.760	25.838	1149.114	904.085
293.774	25.946	1148.473	904.040
294.789	26.039	1147.754	903.861
295.803	25.719	1148.141	902.481
296.818	25.569	1146.502	900.360
297.833	25.840	1145.076	900.520
298.847	25.909	1144.699	900.488
299.862	25.502	1143.935	897.775
300.876	25.607	1144.014	898.280
301.891	25.743	1142.954	898.045
302.906	25.741	1142.826	897.859
303.920	25.929	1141.745	897.866
304.935	26.048	1142.388	898.882
305.949	26.247	1140.668	898.440
306.964	26.012	1140.636	897.168
307.979	26.079	1139.843	896.795
308.993	25.945	1138.770	895.209
310.008	25.904	1138.683	894.858
311.022	25.928	1137.738	894.153
312.037	25.796	1137.140	892.951
313.052	25.869	1135.653	892.066
314.066	25.715	1134.317	890.174
315.081	25.528	1133.481	888.515
316.095	25.557	1132.389	887.725
317.110	25.677	1131.969	887.910
318.125	25.233	1132.464	886.028
319.139	25.761	1130.267	886.833
320.154	25.887	1129.759	886.977
321.168	25.497	1129.302	884.617
322.183	25.594	1129.021	884.796
323.197	25.640	1127.951	884.106
324.212	25.569	1128.283	883.941
325.227	25.516	1127.717	883.158
326.241	25.635	1127.321	883.350
327.256	25.681	1125.949	882.423
328.270	25.768	1124.269	881.456
329.285	25.478	1124.885	880.443
330.300	25.905	1123.670	881.501
331.314	25.779	1122.366	879.785
332.329	25.686	1121.483	878.558
333.343	25.646	1121.104	877.989
334.358	26.110	1119.122	878.621
335.373	25.980	1119.219	877.986
336.387	25.759	1119.368	876.948
337.402	25.784	1119.166	876.837
338.416	26.091	1117.944	877.293
339.431	26.172	1118.070	877.705
340.446	26.391	1116.851	877.738
341.460	26.027	1116.774	875.831
342.475	26.382	1116.336	877.132
343.489	26.472	1114.565	876.100
344.504	26.665	1113.435	876.068
345.519	26.175	1112.988	873.269
346.533	26.551	1111.840	874.105
347.548	26.440	1111.753	873.425
348.562	26.509	1110.715	872.867
349.577	26.282	1109.938	871.084
350.592	26.038	1108.717	868.874
351.606	26.068	1108.327	868.635
352.621	26.117	1107.068	867.808
353.635	26.172	1105.682	866.909
354.650	25.748	1105.751	864.848
355.665	25.734	1105.203	864.275
356.679	26.126	1105.417	866.247
357.694	26.174	1104.685	865.828
358.708	25.912	1104.757	864.554
359.723	26.165	1102.798	864.154
360.738	26.186	1102.407	863.869
361.752	26.429	1101.002	863.854
362.767	26.142	1101.146	862.517
363.781	25.859	1101.371	861.267
364.796	25.794	1101.644	861.093
365.810	26.546	1099.463	862.901
366.825	26.867	1099.645	864.497
367.840	26.589	1099.462	862.949
368.854	26.600	1098.848	862.444
369.869	26.580	1097.502	861.216
370.883	26.423	1097.413	860.325
371.898	26.746	1095.016	859.901
372.913	26.316	1095.099	857.851
373.927	26.474	1095.038	858.474
374.942	26.475	1095.436	858.718
375.956	26.427	1094.539	857.711
376.971	26.281	1093.660	856.255
377.986	26.535	1092.733	856.654
379.000	26.486	1092.669	856.297
380.015	26.594	1092.154	856.328
381.029	26.643	1091.406	855.896
382.044	26.675	1090.250	855.064
383.059	26.973	1088.182	854.771
384.073	26.624	1089.233	853.875
385.088	26.514	1088.468	852.682
386.102	26.650	1087.970	852.857
387.117	26.152	1086.374	849.188
388.132	25.897	1084.911	846.774
389.146	26.282	1083.550	847.440
390.161	26.081	1083.571	846.441
391.175	26.168	1083.221	846.499
392.190	26.522	1082.866	847.806
393.205	26.472	1082.024	846.839
394.219	26.208	1082.629	846.002
395.234	26.473	1080.714	845.668
396.248	26.280	1079.550	843.780
397.263	26.315	1078.135	842.764
398.278	26.273	1078.090	842.459
399.292	26.292	1077.837	842.276
400.307	26.658	1076.586	842.928
401.321	26.134	1076.337	840.219
402.336	26.181	1074.365	838.821
403.350	26.057	1074.930	838.612
404.365	26.338	1074.537	839.537
405.380	26.227	1074.486	838.909
406.394	26.183	1073.431	837.808
407.409	26.641	1071.884	838.645
408.423	26.618	1071.792	838.394
409.438	26.585	1071.474	837.918
410.453	26.520	1070.471	836.756
411.467	26.468	1069.457	835.653
412.482	26.609	1069.514	836.275
413.496	26.532	1068.322	834.914
414.511	26.832	1067.736	835.764
415.526	26.844	1067.034	835.193
416.540	26.755	1068.173	835.600
417.555	26.465	1066.500	832.886
418.569	26.624	1066.155	833.274
419.584	26.600	1066.626	833.457
420.599	26.389	1065.606	831.617
421.613	152.810	1404.810	1792.392
422.628	140.582	1454.210	1792.470
