DTS Sentinel unit serial number:	SN413079Multiplexer serial number:	ORYXHardware model number:	OX4-SRSoftware version number:	ORYX F/W v4.00 Oryx Data Collector v3.7.2.0data status	okinstallation	princeton_trtdifferential loss correction	single-endedforward channel	channel 2reverse channel	N/Adate	2019/09/12time	19:37:49forward acquisition time	15.00reverse acquisition time	0.00gamma	496.2192k internal	0.2327k external	0.2327temperature offset calibration	1.0153default loss term (dB/km)	0.3790temperature slope calibration	1.0000multiplexer offset coefficient	1.0000multiplexer slope coefficient	1.0000fibre end	0.00T internal ref (°C)	32.12T ext. ref 1 (°C)	3.34T ext. ref 2 (°C)	26.71length (m)	temperature (°C)	Stokes	anti-Stokes-747.200	-200.000	0.001	0.735
-746.185	50.878	0.557	0.532
-745.171	-200.000	0.055	-0.656
-744.156	-200.000	-0.051	-1.173
-743.142	-200.000	0.193	-1.135
-742.127	-68.866	-0.188	0.073
-741.112	-190.160	-0.342	0.004
-740.098	-70.629	0.299	-0.114
-739.083	800.000	-0.260	-0.779
-738.069	239.473	0.085	-0.142
-737.054	800.000	-0.060	-0.232
-736.039	-94.303	0.401	-0.111
-735.025	-45.639	-0.414	-0.207
-734.010	-59.157	0.277	0.120
-732.996	800.000	-0.100	-0.347
-731.981	-16.352	0.305	0.195
-730.966	-21.497	-0.602	0.370
-729.952	4.320	-0.473	0.349
-728.937	194.981	0.611	0.935
-727.923	-52.410	-0.711	-0.332
-726.908	61.243	-0.541	0.542
-725.894	-41.833	-0.876	-0.453
-724.879	148.876	-0.075	0.102
-723.864	181.471	0.372	-0.551
-722.850	-69.305	0.207	0.080
-721.835	-97.025	-0.522	0.138
-720.821	-32.545	0.409	0.229
-719.806	800.000	-0.127	0.443
-718.791	800.000	0.096	-0.303
-717.777	139.460	-0.145	-0.192
-716.762	66.442	-0.265	0.272
-715.748	800.000	-0.116	0.353
-714.733	800.000	-0.070	0.270
-713.718	-26.346	-0.277	-0.164
-712.704	14.082	-0.428	0.335
-711.689	-12.487	0.204	-0.134
-710.675	-55.936	-0.187	0.084
-709.660	-73.746	0.334	-0.122
-708.645	-200.000	0.030	-0.400
-707.631	153.659	-0.398	-0.549
-706.616	-118.656	-0.404	-0.072
-705.602	56.709	0.496	-0.486
-704.587	507.069	0.278	-0.648
-703.572	78.788	0.096	0.104
-702.558	2.793	-0.374	0.274
-701.543	-30.393	-0.422	-0.241
-700.529	-57.656	0.090	0.040
-699.514	80.251	-0.447	-0.484
-698.499	111.946	-0.194	-0.236
-697.485	-132.814	-0.880	-0.113
-696.470	-80.348	0.655	0.220
-695.456	-169.112	-0.611	0.023
-694.441	164.727	-0.476	0.675
-693.426	210.953	0.261	-0.413
-692.412	60.755	0.229	0.228
-691.397	111.138	0.601	0.728
-690.383	800.000	-0.234	-0.699
-689.368	-51.006	-0.216	0.102
-688.354	-53.610	-0.508	-0.234
-687.339	441.370	-0.215	0.473
-686.324	-117.124	-1.163	0.213
-685.310	-127.119	0.023	-0.003
-684.295	566.443	0.473	-1.156
-683.281	-96.054	-0.337	0.090
-682.266	-86.874	0.757	0.232
-681.251	-200.000	0.122	-0.900
-680.237	249.169	0.305	-0.521
-679.222	274.399	0.250	-0.445
-678.208	8.055	0.539	0.407
-677.193	113.906	0.445	-0.544
-676.178	-77.017	-0.179	0.063
-675.164	103.149	-0.401	-0.473
-674.149	-70.103	0.543	0.208
-673.135	-80.654	-0.576	0.193
-672.120	-200.000	-0.015	-0.302
-671.105	-161.943	0.031	0.002
-670.091	-129.502	0.362	-0.050
-669.076	-6.871	0.434	0.297
-668.062	-18.549	-0.747	0.468
-667.047	16.903	-0.279	0.222
-666.032	493.097	0.183	-0.422
-665.018	118.362	-0.236	-0.292
-664.003	151.280	-0.410	0.562
-662.989	-200.000	-0.130	1.364
-661.974	647.796	-0.348	-0.893
-660.959	-18.365	-0.306	-0.192
-659.945	89.053	0.718	0.803
-658.930	-38.155	-0.023	0.012
-657.916	-162.176	-0.559	0.028
-656.901	-0.771	0.153	0.109
-655.886	-25.225	-0.259	-0.154
-654.872	107.552	0.186	0.222
-653.857	800.000	-0.085	0.237
-652.843	70.820	0.065	-0.068
-651.828	78.400	-0.295	-0.317
-650.814	-200.000	0.002	0.617
-649.799	-59.073	0.247	-0.107
-648.784	800.000	0.010	0.028
-647.770	130.372	-0.428	-0.551
-646.755	-105.411	0.543	-0.124
-645.741	-32.314	-0.571	0.320
-644.726	-14.208	-0.450	0.292
-643.711	87.715	0.185	0.206
-642.697	97.788	0.385	-0.445
-641.682	-105.656	-0.746	0.170
-640.668	93.060	0.562	-0.638
-639.653	-34.308	-0.557	-0.307
-638.638	24.839	-0.478	-0.397
-637.624	-200.000	0.086	-0.526
-636.609	96.294	-0.235	0.270
-635.595	88.064	-0.195	0.217
-634.580	597.437	0.165	0.410
-633.565	560.897	-0.083	0.202
-632.551	628.843	0.101	-0.257
-631.536	200.758	0.285	0.440
-630.522	-12.606	-0.677	0.443
-629.507	-37.536	-0.589	-0.315
-628.492	24.934	-0.301	-0.251
-627.478	230.262	-0.332	0.545
-626.463	409.175	0.296	-0.628
-625.449	-162.746	-0.802	0.039
-624.434	34.843	0.287	-0.252
-623.419	-34.394	-0.247	0.136
-622.405	-174.428	0.827	0.024
-621.390	-79.800	0.631	0.213
-620.376	-36.446	-0.522	0.282
-619.361	496.230	-0.327	0.755
-618.346	155.679	-0.309	0.427
-617.332	439.511	-0.434	-0.952
-616.317	-200.000	0.203	0.942
-615.303	84.036	-0.237	-0.260
-614.288	-200.000	-0.138	1.275
-613.273	-200.000	-0.012	0.526
-612.259	800.000	-0.121	-0.393
-611.244	99.558	-0.328	-0.380
-610.230	273.577	-0.344	0.610
-609.215	272.179	-0.126	0.222
-608.201	-200.000	0.040	0.256
-607.186	307.018	-0.521	0.974
-606.171	-52.755	0.757	0.350
-605.157	-148.498	-0.216	0.018
-604.142	-69.642	-0.566	0.217
-603.128	800.000	0.225	0.668
-602.113	212.075	-0.125	0.197
-601.098	66.222	0.247	0.251
-600.084	143.739	-0.599	-0.801
-599.069	-200.000	0.056	-0.965
-598.055	-50.714	0.353	0.167
-597.040	-43.686	-0.760	0.384
-596.025	293.200	-0.446	-0.816
-595.011	-156.386	-0.133	-0.008
-593.996	800.000	-0.052	-0.215
-592.982	-125.970	0.607	-0.092
-591.967	-200.000	0.002	0.639
-590.952	180.876	-0.302	-0.444
-589.938	131.942	-0.540	-0.697
-588.923	-111.246	0.307	0.063
-587.909	800.000	0.043	0.130
-586.894	800.000	-0.179	-0.764
-585.879	-39.903	0.673	-0.352
-584.865	-58.054	-0.489	0.214
-583.850	-168.477	-0.625	0.024
-582.836	94.137	-0.198	-0.225
-581.821	61.071	0.242	0.241
-580.806	-200.000	0.013	0.277
-579.792	800.000	-0.112	0.476
-578.777	16.891	0.236	-0.188
-577.763	-168.738	-0.433	0.016
-576.748	500.940	-0.464	1.072
-575.733	578.718	0.145	0.355
-574.719	-94.301	-0.565	-0.155
-573.704	-164.225	0.239	-0.011
-572.690	-120.842	0.363	-0.061
-571.675	-11.734	-0.523	-0.344
-570.661	-153.774	-0.267	-0.018
-569.646	236.618	0.107	0.177
-568.631	-15.281	-0.483	0.310
-567.617	79.674	-0.137	-0.148
-566.602	800.000	-0.199	0.665
-565.588	314.359	-0.532	-1.003
-564.573	150.032	-0.545	-0.740
-563.558	-200.000	0.194	-0.871
-562.544	-85.723	0.160	0.050
-561.529	800.000	-0.151	0.599
-560.515	-26.497	-1.069	0.627
-559.500	672.803	0.217	-0.563
-558.485	225.912	0.393	0.639
-557.471	-79.785	0.600	0.202
-556.456	113.284	-0.026	0.031
-555.442	210.458	-0.590	0.927
-554.427	800.000	0.072	0.315
-553.412	-24.741	0.341	0.203
-552.398	-171.258	0.894	-0.030
-551.383	61.042	0.160	0.159
-550.369	156.424	0.417	-0.576
-549.354	-36.421	-0.447	-0.241
-548.339	-146.829	0.962	-0.083
-547.325	-120.174	-0.678	0.116
-546.310	-200.000	0.038	0.494
-545.296	-22.781	0.279	0.169
-544.281	340.681	0.282	0.551
-543.266	-200.000	-0.027	-0.268
-542.252	-135.692	0.384	0.046
-541.237	-106.315	-0.264	0.059
-540.223	637.064	-0.280	0.712
-539.208	227.687	0.206	-0.334
-538.193	-60.982	0.245	0.104
-537.179	-72.304	-0.269	0.100
-536.164	-200.000	0.154	-0.895
-535.150	18.986	0.381	0.306
-534.135	281.521	-0.496	0.888
-533.121	-200.000	0.079	-0.538
-532.106	141.902	-0.136	-0.180
-531.091	-99.132	0.716	0.181
-530.077	-200.000	-0.050	0.444
-529.062	-200.000	-0.014	0.157
-528.048	413.702	-0.109	0.232
-527.033	-53.922	1.170	0.533
-526.018	491.195	-0.357	-0.818
-525.004	87.693	-0.283	0.313
-523.989	50.500	-0.442	-0.418
-522.975	800.000	0.061	-0.208
-521.960	35.604	0.127	-0.111
-520.945	132.791	-0.054	-0.070
-519.931	64.092	0.350	-0.352
-518.916	19.782	0.260	0.209
-517.902	121.705	-0.191	-0.237
-516.887	663.294	0.045	-0.115
-515.872	-104.340	-0.750	0.174
-514.858	-200.000	-0.168	-1.025
-513.843	-200.000	-0.049	-0.417
-512.829	-182.588	0.372	0.007
-511.814	-41.370	-0.148	0.076
-510.799	405.428	0.481	-1.013
-509.785	-101.981	0.726	0.175
-508.770	-32.082	1.163	0.650
-507.756	-200.000	-0.100	0.989
-506.741	-6.718	-0.409	0.278
-505.726	67.159	0.662	-0.674
-504.712	91.669	-0.145	-0.163
-503.697	-200.000	0.086	0.793
-502.683	-200.000	-0.108	0.622
-501.668	-67.115	-0.818	-0.322
-500.653	123.909	-0.230	0.289
-499.639	-114.185	-0.231	0.045
-498.624	73.865	-0.532	-0.557
-497.610	-63.934	-0.672	-0.274
-496.595	-102.281	0.462	0.111
-495.581	-72.594	-0.213	-0.079
-494.566	20.029	-0.596	-0.480
-493.551	-64.255	-0.922	-0.375
-492.537	800.000	-0.073	-0.292
-491.522	-22.217	-0.338	-0.205
-490.508	-82.718	-0.674	-0.218
-489.493	800.000	-0.166	-0.512
-488.478	800.000	0.274	-1.016
-487.464	-124.299	0.162	0.025
-486.449	800.000	-0.140	0.485
-485.435	196.064	-0.543	0.824
-484.420	573.928	-0.191	-0.466
-483.405	-115.875	0.984	-0.183
-482.391	39.657	0.350	0.313
-481.376	-172.833	0.799	-0.025
-480.362	800.000	-0.117	-0.373
-479.347	83.588	0.159	-0.173
-478.332	-200.000	0.109	1.073
-477.318	264.157	0.463	0.804
-476.303	-137.008	0.316	-0.036
-475.289	-21.089	0.135	-0.083
-474.274	-200.000	0.011	0.459
-473.259	800.000	0.101	-0.372
-472.245	149.413	0.253	-0.342
-471.230	-186.647	-0.456	-0.006
-470.216	125.832	-0.398	-0.502
-469.201	582.805	-0.335	-0.820
-468.186	-120.569	-0.590	-0.100
-467.172	-133.134	0.047	-0.006
-466.157	-184.962	-0.213	-0.003
-465.143	153.229	-0.157	-0.214
-464.128	71.765	0.414	-0.429
-463.113	352.615	0.128	0.254
-462.099	-200.000	0.013	-0.332
-461.084	-119.579	0.475	0.082
-460.070	529.834	0.390	0.919
-459.055	705.841	-0.218	0.573
-458.040	10.756	-0.311	0.237
-457.026	6.318	0.368	-0.272
-456.011	118.163	0.332	0.408
-454.997	-48.910	0.367	-0.175
-453.982	-90.026	-0.267	-0.077
-452.968	-18.623	0.824	-0.513
-451.953	62.398	-0.309	-0.308
-450.938	-186.919	-0.881	0.012
-449.924	436.657	0.082	0.177
-448.909	-154.050	-0.544	0.037
-447.895	147.542	-0.064	-0.086
-446.880	37.680	-0.573	-0.507
-445.865	-63.163	0.665	-0.273
-444.851	-83.510	-0.417	0.133
-443.836	331.687	0.540	-1.039
-442.822	-161.487	0.301	-0.015
-441.807	-200.000	0.020	0.186
-440.792	800.000	-0.061	0.251
-439.778	10.319	0.082	-0.062
-438.763	-200.000	-0.013	0.431
-437.749	80.224	-0.345	0.369
-436.734	-123.285	-0.840	0.134
-435.719	80.709	-0.242	-0.260
-434.705	-91.641	0.655	0.186
-433.690	800.000	0.118	-0.328
-432.676	-200.000	-0.036	-0.316
-431.661	298.409	-0.259	-0.475
-430.646	-164.736	-0.389	-0.017
-429.632	57.015	-0.278	0.270
-428.617	800.000	-0.318	-0.933
-427.603	-107.280	-0.226	-0.050
-426.588	-126.953	-0.242	-0.035
-425.573	-5.050	0.369	-0.253
-424.559	139.965	0.377	-0.495
-423.544	800.000	0.109	0.356
-422.530	166.993	0.323	0.457
-421.515	-110.443	-0.085	-0.018
-420.500	-200.000	-0.102	-0.485
-419.486	-72.778	0.637	-0.234
-418.471	-138.512	1.112	-0.122
-417.457	-35.754	0.554	-0.299
-416.442	-4.848	0.364	-0.250
-415.428	341.366	0.145	-0.281
-414.413	-164.056	-1.033	-0.048
-413.398	-200.000	-0.048	-0.414
-412.384	42.187	-0.504	0.455
-411.369	572.321	-0.297	-0.720
-410.355	135.671	0.277	-0.359
-409.340	-164.676	-0.263	0.012
-408.325	-200.000	-0.079	1.157
-407.311	-2.662	0.104	-0.072
-406.296	-22.139	-0.544	-0.329
-405.282	377.864	-0.145	0.296
-404.267	41.788	0.570	-0.515
-403.252	-200.000	-0.030	-0.832
-402.238	-55.886	0.773	0.343
-401.223	191.415	-0.132	-0.197
-400.209	133.727	0.438	-0.563
-399.194	14.174	-0.158	0.123
-398.179	-200.000	0.032	-1.469
-397.165	-200.000	0.042	-0.320
-396.150	174.944	0.251	0.362
-395.136	72.895	-0.234	-0.243
-394.121	-87.690	0.485	-0.145
-393.106	-200.000	-0.083	0.394
-392.092	800.000	0.049	0.151
-391.077	-79.710	-0.325	-0.109
-390.063	-112.831	-0.464	-0.092
-389.048	13.318	-0.132	-0.102
-388.033	-34.317	0.232	0.126
-387.019	-4.242	-0.320	-0.220
-386.004	389.165	-0.182	-0.374
-384.990	-24.407	0.671	0.398
-383.975	323.362	0.067	-0.128
-382.960	-200.000	0.027	-0.721
-381.946	-70.582	-0.405	-0.152
-380.931	-200.000	0.053	0.382
-379.917	446.648	0.320	-0.699
-378.902	-160.766	-0.305	-0.016
-377.888	-137.220	-0.806	0.091
-376.873	-92.396	0.504	-0.141
-375.858	211.908	0.576	0.902
-374.844	-200.000	-0.044	0.258
-373.829	-35.020	-0.756	0.410
-372.815	9.819	-0.256	0.193
-371.800	20.282	0.213	0.171
-370.785	387.989	0.229	0.470
-369.771	-25.707	0.319	0.187
-368.756	195.003	-0.542	0.818
-367.742	797.873	0.320	0.877
-366.727	-200.000	-0.028	0.255
-365.712	-179.717	0.266	0.006
-364.698	395.553	-0.144	-0.299
-363.683	-54.956	0.964	0.432
-362.669	299.581	-0.291	-0.532
-361.654	-108.542	0.434	-0.093
-360.639	201.739	-0.411	0.629
-359.625	11.335	-0.630	0.479
-358.610	800.000	0.136	0.455
-357.596	33.614	0.235	0.203
-356.581	353.351	0.227	0.447
-355.566	-14.277	-0.299	-0.191
-354.552	593.211	0.187	0.460
-353.537	-24.585	0.585	-0.346
-352.523	-200.000	-0.044	-0.435
-351.508	192.835	-0.227	0.340
-350.493	-3.933	-0.217	-0.149
-349.479	3.783	0.390	0.283
-348.464	-31.838	-0.411	-0.229
-347.450	-200.000	-0.090	-0.818
-346.435	-96.345	0.199	-0.052
-345.420	339.886	-0.083	0.160
-344.406	-139.280	1.242	0.133
-343.391	800.000	-0.107	-0.343
-342.377	-8.841	0.346	0.230
-341.362	-145.720	-0.425	0.038
-340.348	18.482	0.262	0.208
-339.333	78.482	0.186	0.198
-338.318	-21.643	0.685	0.414
-337.304	800.000	-0.078	-0.331
-336.289	-104.997	-0.374	0.085
-335.275	-109.389	0.267	-0.056
-334.260	364.601	0.183	0.366
-333.245	198.499	0.567	-0.861
-332.231	-40.814	0.210	-0.108
-331.216	62.643	-0.276	-0.273
-330.202	-61.076	0.161	-0.067
-329.187	36.666	-0.218	-0.191
-328.172	608.344	-0.199	0.492
-327.158	25.116	-0.205	-0.169
-326.143	755.959	0.183	-0.491
-325.129	139.794	-0.370	-0.484
-324.114	-77.804	0.407	-0.139
-323.099	-178.239	-0.528	0.012
-322.085	86.860	-0.403	-0.441
-321.070	201.913	-0.052	0.080
-320.056	-200.000	0.014	-0.183
-319.041	177.266	0.243	0.351
-318.026	-63.538	-0.113	0.046
-317.012	-109.174	-0.406	0.086
-315.997	54.251	-0.243	0.232
-314.983	190.732	-0.328	0.489
-313.968	184.648	0.463	0.680
-312.953	-175.685	-0.374	-0.010
-311.939	4.933	-0.535	-0.390
-310.924	-74.439	-0.652	-0.233
-309.910	143.459	0.176	-0.232
-308.895	-62.551	0.155	0.064
-307.880	92.261	0.715	0.799
-306.866	-95.586	0.499	0.132
-305.851	-99.371	0.875	-0.219
-304.837	-200.000	-0.125	-0.927
-303.822	98.977	-0.569	-0.652
-302.807	-65.120	-0.315	-0.126
-301.793	5.088	-0.532	0.388
-300.778	800.000	0.067	0.251
-299.764	-200.000	0.122	-0.533
-298.749	800.000	0.145	-0.548
-297.735	-108.278	0.126	0.027
-296.720	-125.302	-0.597	-0.090
-295.705	653.805	-0.142	-0.361
-294.691	289.309	-0.364	0.654
-293.676	-74.974	-0.095	0.034
-292.662	-128.823	0.552	-0.077
-291.647	636.565	0.271	-0.681
-290.632	-200.000	-0.075	0.798
-289.618	-164.594	0.479	-0.022
-288.603	69.031	-0.202	0.206
-287.589	-166.361	-0.220	-0.009
-286.574	299.931	-0.268	0.488
-285.559	-200.000	0.116	-0.745
-284.545	-55.409	0.500	-0.222
-283.530	800.000	-0.220	0.647
-282.516	-148.556	1.274	-0.103
-281.501	-200.000	0.196	-0.882
-280.486	-200.000	-0.026	0.167
-279.472	341.434	-0.158	-0.306
-278.457	-29.243	-0.581	0.329
-277.443	414.035	-0.411	0.865
-276.428	-200.000	-0.100	-0.663
-275.413	-62.900	-0.278	-0.114
-274.399	-30.093	-0.535	-0.302
-273.384	651.996	-0.238	0.603
-272.370	-186.718	-0.158	-0.002
-271.355	-165.910	0.321	0.014
-270.340	800.000	0.186	0.665
-269.326	-175.940	0.517	0.014
-268.311	800.000	0.167	0.639
-267.297	-200.000	-0.121	0.593
-266.282	325.243	0.548	1.036
-265.267	-200.000	-0.024	0.223
-264.253	-200.000	0.054	0.415
-263.238	800.000	0.080	-0.261
-262.224	-107.611	0.791	-0.171
-261.209	-67.797	-0.489	0.189
-260.195	-200.000	0.198	0.999
-259.180	-115.960	0.628	0.116
-258.165	91.223	-0.591	0.657
-257.151	-113.037	0.609	-0.119
-256.136	-50.212	1.022	-0.478
-255.122	800.000	0.164	0.572
-254.107	-200.000	0.075	0.596
-253.092	800.000	-0.322	0.894
-252.078	800.000	-0.176	0.605
-251.063	-10.478	-0.363	0.238
-250.049	46.953	0.454	-0.418
-249.034	800.000	-0.310	0.920
-248.019	-200.000	0.047	-0.728
-247.005	-200.000	-0.028	-1.209
-245.990	-90.712	-0.393	0.112
-244.976	670.130	0.158	-0.406
-243.961	800.000	0.121	0.368
-242.946	-92.483	0.269	0.075
-241.932	-109.470	1.186	-0.248
-240.917	374.671	-0.136	0.275
-239.903	509.049	-0.190	0.437
-238.888	-200.000	0.103	-0.525
-237.873	800.000	-0.156	0.579
-236.859	298.456	-0.105	-0.192
-235.844	-147.204	-0.046	-0.004
-234.830	-27.259	0.226	0.130
-233.815	78.012	-0.329	-0.347
-232.800	-200.000	-0.011	0.227
-231.786	114.867	-0.393	-0.474
-230.771	-60.661	-0.218	-0.091
-229.757	-200.000	0.059	-0.309
-228.742	-92.314	0.534	-0.149
-227.727	73.515	0.270	0.280
-226.713	-22.751	0.432	0.258
-225.698	800.000	0.207	-0.777
-224.684	713.201	0.047	0.123
-223.669	-200.000	0.222	1.447
-222.655	-131.470	-1.271	0.166
-221.640	-200.000	-0.067	-0.349
-220.625	49.297	-0.163	0.151
-219.611	157.673	-0.532	0.728
-218.596	-182.869	-0.358	-0.006
-217.582	294.057	0.236	-0.426
-216.567	22.964	-0.653	-0.529
-215.552	-155.197	0.632	0.041
-214.538	-9.433	-0.548	0.361
-213.523	-200.000	0.069	-0.579
-212.509	800.000	-0.078	0.317
-211.494	-44.952	-0.145	0.071
-210.479	-19.139	0.193	0.119
-209.465	-24.325	0.258	-0.152
-208.450	129.015	-0.162	0.204
-207.436	23.503	0.383	-0.311
-206.421	74.099	-0.244	0.253
-205.406	657.408	-0.108	0.273
-204.392	-185.881	-0.562	-0.008
-203.377	-78.838	0.384	0.129
-202.363	-56.428	-0.392	-0.172
-201.348	-200.000	-0.082	-0.571
-200.333	-200.000	0.187	0.812
-199.319	288.863	0.421	-0.753
-198.304	168.948	0.207	-0.291
-197.290	-43.666	0.181	-0.090
-196.275	303.088	-0.063	-0.116
-195.260	12.752	0.275	0.210
-194.246	800.000	0.038	-0.150
-193.231	249.362	0.358	-0.598
-192.217	23.056	-0.306	-0.248
-191.202	-200.000	0.017	-1.133
-190.187	169.927	-0.065	0.092
-189.173	352.591	0.284	-0.556
-188.158	-57.939	0.685	-0.295
-187.144	-200.000	0.127	0.687
-186.129	-62.349	0.371	0.153
-185.114	-85.290	0.850	-0.262
-184.100	278.771	0.395	-0.694
-183.085	-200.000	-0.044	0.582
-182.071	-174.187	0.439	-0.013
-181.056	-12.945	0.668	0.429
-180.042	800.000	-0.127	0.498
-179.027	115.083	0.208	0.250
-178.012	-200.000	-0.016	-0.226
-176.998	1.078	0.921	-0.652
-175.983	800.000	-0.069	0.240
-174.969	46.534	-0.307	-0.281
-173.954	490.672	0.437	0.986
-172.939	-122.456	0.648	0.104
-171.925	175.962	0.468	0.670
-170.910	168.169	0.379	-0.532
-169.896	72.942	-0.501	0.516
-168.881	340.262	0.255	0.490
-167.866	205.881	-0.203	-0.311
-166.852	-200.000	0.016	-0.154
-165.837	-9.071	-0.278	0.183
-164.823	800.000	-0.301	-0.900
-163.808	88.602	-0.294	-0.323
-162.793	98.766	0.529	0.602
-161.779	-18.714	-0.309	0.190
-160.764	-83.555	-1.019	-0.321
-159.750	98.681	0.431	-0.490
-158.735	-22.303	0.355	0.212
-157.720	180.705	-0.265	-0.384
-156.706	800.000	-0.335	-0.934
-155.691	100.421	-0.159	-0.182
-154.677	27.960	-0.262	-0.218
-153.662	-46.185	0.372	0.181
-152.647	186.121	0.069	0.101
-151.633	-200.000	-0.055	-0.337
-150.618	800.000	-0.217	-0.802
-149.604	316.935	-0.309	0.575
-148.589	383.856	0.482	0.977
-147.574	176.614	-0.091	0.131
-146.560	20.770	0.404	-0.323
-145.545	33.410	0.346	0.296
-144.531	800.000	0.184	0.517
-143.516	-5.362	-0.630	0.426
-142.502	-200.000	-0.104	-0.492
-141.487	132.684	0.107	-0.135
-140.472	-11.262	0.225	0.146
-139.458	800.000	-0.167	-0.502
-138.443	-200.000	0.019	-0.405
-137.429	-31.453	-0.528	0.292
-136.414	168.812	0.299	0.420
-135.399	-89.311	-0.704	0.204
-134.385	27.170	-0.495	-0.409
-133.370	-103.452	-0.115	0.027
-132.356	444.136	0.144	0.312
-131.341	-55.409	-0.948	0.419
-130.326	-62.746	0.651	-0.265
-129.312	-69.203	1.351	0.511
-128.297	-100.555	-0.488	-0.119
-127.283	-200.000	-0.081	0.535
-126.268	-135.576	-0.474	-0.055
-125.253	-62.730	-0.482	0.197
-124.239	-15.851	0.630	-0.395
-123.224	-23.109	0.452	-0.268
-122.210	-31.301	0.050	-0.028
-121.195	-28.877	-0.526	-0.298
-120.180	209.037	-0.162	-0.249
-119.166	96.842	0.283	0.320
-118.151	157.387	-0.362	-0.493
-117.137	316.983	-0.167	-0.310
-116.122	800.000	0.095	0.353
-115.107	-55.899	0.723	-0.318
-114.093	15.372	-0.376	-0.290
-113.078	-110.917	0.512	0.104
-112.064	-200.000	-0.071	-0.404
-111.049	476.916	0.319	0.710
-110.034	-166.638	0.458	-0.019
-109.020	30.006	-0.127	0.107
-108.005	-20.846	0.165	0.100
-106.991	-145.623	-0.334	-0.029
-105.976	-200.000	0.023	0.385
-104.962	-200.000	0.081	-0.448
-103.947	94.917	-0.270	-0.303
-102.932	-167.635	0.365	0.014
-101.918	-24.848	0.734	0.428
-100.903	-200.000	-0.040	0.366
-99.889	129.686	-0.236	0.297
-98.874	-93.093	0.437	0.120
-97.859	711.561	-0.143	-0.372
-96.845	-121.124	0.562	-0.093
-95.830	-200.000	-0.046	0.518
-94.816	800.000	0.324	-1.032
-93.801	20.984	-0.492	-0.393
-92.786	200.559	-0.415	-0.627
-91.772	58.428	-0.389	0.375
-90.757	800.000	0.281	0.816
-89.743	25.337	-0.186	-0.152
-88.728	-35.337	-0.138	-0.074
-87.713	-12.315	-0.496	-0.319
-86.699	-200.000	-0.033	-0.299
-85.684	92.877	0.519	0.577
-84.670	174.515	0.193	-0.275
-83.655	335.444	-0.425	0.809
-82.640	800.000	0.064	0.176
-81.626	-74.619	-0.107	0.038
-80.611	31.756	-0.499	-0.422
-79.597	-200.000	-0.028	-0.487
-78.582	606.539	0.082	0.201
-77.567	800.000	-0.068	0.258
-76.553	124.008	-0.720	-0.888
-75.538	800.000	0.025	-0.100
-74.524	-13.517	-0.362	0.230
-73.509	-20.627	-0.746	0.450
-72.494	-19.548	0.210	0.128
-71.480	-200.000	0.031	-0.369
-70.465	5.455	0.686	0.497
-69.451	27.963	-0.225	0.186
-68.436	579.161	-0.548	1.317
-67.422	272.609	-0.418	0.725
-66.407	-6.154	0.081	0.055
-65.392	316.628	0.247	0.459
-64.378	-200.000	0.134	1.298
-63.363	-145.515	-0.508	-0.045
-62.349	123.531	0.185	0.228
-61.334	54.273	-0.915	-0.865
-60.319	364.388	0.130	0.257
-59.305	800.000	-0.337	-1.126
-58.290	-200.000	-0.076	0.815
-57.276	267.123	0.693	1.190
-56.261	-200.000	95.642	596.151
-55.246	680.314	1350.295	3451.012
-54.232	203.740	2527.482	3839.860
-53.217	114.799	2247.856	2690.146
-52.203	41.709	1881.787	1673.441
-51.188	35.369	1674.562	1441.642
-50.173	32.765	1630.742	1384.774
-49.159	51.670	1679.743	1567.546
-48.144	52.524	1696.074	1589.076
-47.130	35.123	1656.097	1423.692
-46.115	32.338	1642.218	1391.143
-45.100	31.956	1637.729	1384.461
-44.086	32.029	1634.630	1382.330
-43.071	32.085	1631.020	1379.630
-42.057	31.881	1628.330	1375.805
-41.042	32.120	1626.746	1376.165
-40.027	31.881	1626.531	1374.176
-39.013	32.146	1623.361	1373.379
-37.998	31.792	1622.884	1370.337
-36.984	31.967	1621.044	1370.003
-35.969	32.280	1618.565	1370.138
-34.954	32.005	1617.798	1367.430
-33.940	32.196	1615.176	1366.546
-32.925	32.243	1613.752	1365.632
-31.911	32.085	1612.535	1363.397
-30.896	32.066	1610.782	1361.727
-29.881	32.009	1609.591	1360.249
-28.867	32.309	1607.301	1360.436
-27.852	31.861	1606.689	1356.621
-26.838	32.106	1604.657	1356.619
-25.823	32.424	1601.095	1355.850
-24.809	31.998	1601.917	1353.420
-23.794	32.098	1599.906	1352.383
-22.779	32.359	1598.852	1353.321
-21.765	32.137	1597.142	1350.222
-20.750	32.136	1594.654	1348.060
-19.736	32.014	1595.061	1347.474
-18.721	32.328	1592.624	1347.607
-17.706	32.181	1590.816	1344.974
-16.692	32.320	1589.558	1344.852
-15.677	31.893	1589.745	1341.903
-14.663	31.975	1588.577	1341.452
-13.648	32.323	1584.742	1340.639
-12.633	32.151	1584.359	1339.033
-11.619	32.072	1583.399	1337.610
-10.604	32.146	1581.161	1336.188
-9.590	32.055	1580.608	1335.028
-8.575	32.304	1577.757	1334.333
-7.560	32.144	1577.497	1332.923
-6.546	32.105	1575.927	1331.264
-5.531	32.276	1574.606	1331.311
-4.517	32.303	1572.573	1329.727
-3.502	32.066	1573.065	1328.414
-2.487	32.017	1572.063	1327.167
-1.473	31.740	1559.417	1314.497
-0.458	29.020	1539.063	1278.424
0.556	26.769	1540.100	1246.409
1.571	24.366	1562.543	1247.680
2.586	23.406	1577.056	1252.373
3.600	20.812	1523.711	1192.167
4.615	12.546	1415.741	1054.801
5.629	4.846	1351.589	959.618
6.644	3.326	1343.513	944.491
7.659	3.393	1341.692	943.535
8.673	3.194	1340.961	941.718
9.688	3.447	1338.671	941.572
10.702	3.430	1336.013	939.515
11.717	6.575	1343.175	963.711
12.731	15.569	1359.872	1031.039
13.746	23.141	1371.323	1086.309
14.761	24.944	1373.145	1098.731
15.775	24.716	1372.645	1096.837
16.790	24.545	1370.761	1094.183
17.804	24.170	1369.685	1090.933
18.819	24.253	1369.287	1091.028
19.834	24.165	1368.636	1089.872
20.848	24.158	1367.678	1088.970
21.863	24.243	1367.760	1089.459
22.877	24.308	1365.690	1088.109
23.892	24.251	1365.095	1087.192
24.907	24.321	1364.522	1087.069
25.921	24.077	1364.384	1085.375
26.936	24.215	1362.113	1084.313
27.950	24.246	1360.990	1083.512
28.965	24.303	1359.980	1082.957
29.980	24.173	1359.856	1081.971
30.994	24.270	1358.601	1081.465
32.009	24.513	1357.241	1081.763
33.023	24.351	1356.248	1079.894
34.038	24.462	1354.216	1078.848
35.053	24.112	1354.664	1076.997
36.067	24.259	1352.954	1076.428
37.082	24.276	1351.804	1075.523
38.096	24.196	1351.242	1074.497
39.111	24.308	1351.629	1075.382
40.126	24.088	1349.275	1072.092
41.140	23.990	1349.057	1071.234
42.155	23.829	1349.002	1070.126
43.169	23.794	1348.115	1069.118
44.184	23.678	1347.446	1067.794
45.199	23.825	1346.775	1068.049
46.213	24.113	1347.524	1070.281
47.228	24.143	1346.543	1069.590
48.242	24.299	1346.014	1070.008
49.257	24.104	1344.199	1067.304
50.271	24.092	1343.323	1066.444
51.286	24.305	1341.806	1066.416
52.301	24.156	1341.040	1064.825
53.315	24.116	1339.947	1063.624
54.330	23.944	1340.087	1062.612
55.344	23.998	1337.749	1060.985
56.359	23.841	1337.537	1059.788
57.374	23.987	1336.106	1059.427
58.388	23.922	1335.451	1058.431
59.403	24.082	1333.821	1057.997
60.417	23.814	1334.423	1056.786
61.432	23.860	1333.250	1056.039
62.447	23.658	1332.893	1054.462
63.461	23.642	1331.200	1052.933
64.476	23.667	1329.872	1051.939
65.490	23.903	1328.466	1052.128
66.505	23.623	1327.419	1049.551
67.520	23.601	1328.105	1049.873
68.534	23.976	1325.475	1049.913
69.549	23.622	1324.634	1047.065
70.563	23.787	1323.132	1046.755
71.578	23.398	1322.857	1044.157
72.593	23.582	1321.513	1044.088
73.607	23.735	1319.628	1043.403
74.622	23.567	1319.824	1042.478
75.636	23.512	1319.132	1041.516
76.651	23.644	1318.263	1041.512
77.666	24.034	1316.989	1042.701
78.680	23.882	1317.600	1042.200
79.695	23.528	1318.078	1040.407
80.709	23.737	1316.495	1040.291
81.724	23.665	1316.816	1040.029
82.739	23.997	1314.680	1040.194
83.753	24.015	1314.918	1040.395
84.768	24.487	1313.349	1041.820
85.782	24.471	1313.536	1041.780
86.797	24.539	1310.944	1040.031
87.812	24.276	1310.147	1037.772
88.826	24.184	1310.155	1037.154
89.841	24.127	1309.296	1036.046
90.855	24.192	1308.464	1035.678
91.870	24.552	1307.256	1036.716
92.884	24.650	1305.750	1036.003
93.899	24.452	1306.629	1035.455
94.914	24.360	1306.312	1034.582
95.928	24.592	1304.038	1034.031
96.943	24.515	1303.325	1032.932
97.957	24.591	1302.317	1032.479
98.972	24.483	1300.861	1030.609
99.987	24.515	1301.117	1030.908
101.001	24.525	1299.264	1029.404
102.016	24.522	1298.461	1028.658
103.030	24.619	1296.452	1027.533
104.045	24.315	1298.024	1026.943
105.060	24.240	1295.874	1024.715
106.074	23.899	1293.697	1020.947
107.089	23.836	1293.198	1020.101
108.103	23.517	1292.582	1017.694
109.118	23.674	1290.210	1016.636
110.133	23.595	1288.991	1015.136
111.147	23.753	1287.823	1015.027
112.162	23.869	1286.622	1014.652
113.176	23.803	1286.458	1014.056
114.191	24.021	1285.842	1014.726
115.206	24.104	1284.062	1013.702
116.220	24.035	1281.999	1011.594
117.235	23.995	1281.571	1010.941
118.249	23.799	1280.481	1008.880
119.264	23.554	1280.307	1007.257
120.279	23.930	1278.721	1008.053
121.293	23.446	1278.861	1005.332
122.308	23.540	1277.603	1004.783
123.322	23.719	1275.521	1004.074
124.337	23.239	1276.055	1001.689
125.352	23.626	1274.583	1002.628
126.366	23.502	1273.716	1001.162
127.381	23.436	1272.319	999.602
128.395	23.318	1272.482	998.977
129.410	23.283	1271.178	997.667
130.424	23.427	1269.900	997.383
131.439	23.535	1269.994	997.981
132.454	23.648	1269.255	997.945
133.468	23.929	1268.597	998.915
134.483	23.986	1266.947	997.849
135.497	23.639	1268.035	996.672
136.512	23.999	1265.161	996.336
137.527	23.696	1265.239	994.613
138.541	23.918	1262.744	993.804
139.556	24.059	1262.807	994.554
140.570	24.100	1262.226	994.239
141.585	24.464	1260.293	994.661
142.600	24.267	1260.949	993.990
143.614	24.317	1259.567	993.090
144.629	24.635	1258.520	993.945
145.643	24.396	1258.158	992.241
146.658	24.222	1256.818	990.133
147.673	24.267	1254.603	988.549
148.687	24.041	1254.745	987.319
149.702	23.961	1252.750	985.217
150.716	23.632	1251.252	982.136
151.731	23.784	1249.263	981.325
152.746	23.501	1249.121	979.566
153.760	24.156	1247.456	981.785
154.775	24.333	1246.766	982.129
155.789	24.214	1247.188	981.717
156.804	24.204	1244.911	979.785
157.819	24.085	1244.733	978.902
158.833	23.883	1244.933	977.864
159.848	24.150	1243.082	977.790
160.862	24.038	1242.757	976.833
161.877	23.861	1241.544	974.819
162.892	23.575	1240.715	972.518
163.906	23.919	1238.170	972.316
164.921	23.636	1238.576	971.002
165.935	23.874	1237.349	971.256
166.950	23.893	1237.994	971.777
167.964	24.023	1236.226	971.014
168.979	23.993	1235.375	970.097
169.994	23.723	1235.697	968.789
171.008	23.984	1234.080	968.856
172.023	23.854	1233.384	967.517
173.037	24.058	1233.875	968.929
174.052	24.291	1232.568	969.083
175.067	23.967	1231.330	966.267
176.081	23.768	1230.779	964.666
177.096	23.700	1229.719	963.382
178.110	23.812	1228.148	962.671
179.125	23.816	1227.022	961.728
180.140	23.882	1226.560	961.635
181.154	24.201	1224.932	961.995
182.169	24.165	1224.244	961.176
183.183	24.188	1222.942	960.192
184.198	24.293	1221.981	959.920
185.213	24.179	1222.207	959.399
186.227	24.328	1219.425	957.929
187.242	24.395	1219.930	958.603
188.256	24.522	1218.887	958.382
189.271	24.408	1218.199	957.144
190.286	24.429	1216.810	956.077
191.300	24.087	1216.198	953.680
192.315	23.754	1215.462	951.236
193.329	24.384	1214.736	953.953
194.344	23.644	1214.876	950.023
195.359	24.026	1212.419	950.058
196.373	23.652	1212.600	948.117
197.388	23.505	1212.395	947.089
198.402	24.013	1212.029	949.431
199.417	24.503	1211.751	951.743
200.432	24.425	1212.442	951.783
201.446	24.574	1211.400	951.676
202.461	24.375	1211.387	950.522
203.475	24.437	1209.278	949.113
204.490	24.017	1208.002	945.796
205.504	24.025	1206.758	944.780
206.519	23.946	1205.878	943.587
207.534	24.110	1203.785	942.736
208.548	23.844	1203.419	940.956
209.563	23.698	1202.947	939.732
210.577	23.709	1201.363	938.469
211.592	23.845	1201.390	939.128
212.607	24.118	1201.157	940.304
213.621	24.276	1199.945	940.104
214.636	24.087	1198.762	938.098
215.650	24.042	1198.617	937.663
216.665	24.207	1197.436	937.524
217.680	24.609	1196.958	939.184
218.694	24.479	1195.855	937.549
219.709	24.316	1195.500	936.334
220.723	24.416	1194.541	936.025
221.738	24.377	1194.029	935.335
222.753	24.026	1193.292	932.835
223.767	23.864	1192.107	930.981
224.782	24.322	1192.324	933.463
225.796	24.616	1190.770	933.699
226.811	24.549	1190.373	932.959
227.826	24.454	1190.473	932.456
228.840	24.345	1189.158	930.774
229.855	24.148	1188.312	929.003
230.869	23.883	1188.772	927.896
231.884	23.985	1187.098	927.039
232.899	23.684	1186.824	925.179
233.913	23.672	1184.651	923.340
234.928	24.059	1184.024	924.781
235.942	23.686	1183.911	922.669
236.957	23.739	1183.156	922.276
237.972	23.669	1181.985	920.918
238.986	23.591	1181.783	920.278
240.001	23.836	1181.008	920.861
241.015	23.766	1180.644	920.131
242.030	23.711	1179.320	918.736
243.045	23.758	1179.622	919.130
244.059	24.285	1177.817	920.365
245.074	24.285	1177.296	919.878
246.088	24.065	1177.168	918.558
247.103	24.368	1176.436	919.470
248.117	24.637	1175.754	920.240
249.132	24.884	1174.696	920.603
250.147	25.048	1174.573	921.268
251.161	25.100	1173.745	920.803
252.176	24.919	1174.514	920.396
253.190	25.011	1174.016	920.396
254.205	25.355	1171.989	920.491
255.220	25.278	1171.854	919.905
256.234	25.540	1171.732	921.073
257.249	25.141	1170.857	918.262
258.263	25.283	1170.496	918.620
259.278	25.139	1170.478	917.788
260.293	25.239	1168.326	916.532
261.307	25.386	1168.075	917.007
262.322	25.257	1168.288	916.433
263.336	25.495	1166.553	916.205
264.351	25.012	1167.414	914.332
265.366	25.172	1166.030	913.983
266.380	25.606	1164.003	914.521
267.395	24.941	1164.709	911.610
268.409	25.130	1163.765	911.753
269.424	24.726	1163.342	909.287
270.439	25.004	1161.955	909.534
271.453	24.869	1161.783	908.634
272.468	24.704	1161.069	907.159
273.482	24.537	1160.480	905.773
274.497	24.632	1159.070	905.069
275.512	24.628	1159.044	904.949
276.526	24.632	1157.716	903.857
277.541	24.793	1156.602	903.717
278.555	24.772	1157.676	904.372
279.570	25.105	1156.050	904.703
280.585	25.105	1155.962	904.553
281.599	25.026	1155.058	903.366
282.614	24.709	1153.558	900.518
283.628	24.861	1151.992	899.980
284.643	24.730	1151.824	899.110
285.657	24.802	1150.720	898.531
286.672	24.431	1149.838	895.903
287.687	24.659	1149.692	896.850
288.701	24.613	1148.981	895.988
289.716	24.708	1148.463	895.981
290.730	24.911	1146.731	895.563
291.745	24.770	1146.649	894.716
292.760	24.808	1145.968	894.297
293.774	25.000	1146.079	895.263
294.789	25.208	1145.547	895.805
295.803	25.099	1144.743	894.553
296.818	24.687	1144.734	892.413
297.833	24.863	1143.383	892.160
298.847	24.839	1142.387	891.183
299.862	24.904	1141.127	890.445
300.876	24.907	1140.786	890.112
301.891	24.836	1140.835	889.720
302.906	25.278	1139.206	890.566
303.920	25.452	1139.085	891.257
304.935	25.478	1138.717	891.016
305.949	25.314	1137.829	889.429
306.964	25.533	1137.768	890.391
307.979	25.310	1136.875	888.509
308.993	25.083	1135.633	886.338
310.008	25.136	1135.214	886.194
311.022	25.274	1134.398	886.158
312.037	25.270	1133.988	885.742
313.052	24.929	1132.919	883.143
314.066	25.101	1131.470	882.786
315.081	24.739	1130.223	879.954
316.095	24.530	1129.239	878.081
317.110	24.689	1128.956	878.563
318.125	24.666	1128.540	878.049
319.139	24.749	1128.142	878.072
320.154	24.779	1126.936	877.201
321.168	24.592	1126.929	876.202
322.183	24.829	1125.572	876.229
323.197	24.668	1125.276	875.131
324.212	24.664	1125.195	874.975
325.227	24.948	1124.292	875.582
326.241	24.857	1123.853	874.719
327.256	24.847	1122.857	873.818
328.270	24.900	1121.481	872.927
329.285	25.093	1120.643	873.139
330.300	24.963	1120.169	872.057
331.314	25.005	1118.277	870.711
332.329	24.737	1118.459	869.472
333.343	24.660	1117.441	868.233
334.358	24.890	1117.556	869.361
335.373	25.135	1116.833	869.913
336.387	25.281	1116.511	870.290
337.402	25.177	1115.575	868.979
338.416	25.291	1115.704	869.556
339.431	25.472	1114.242	869.218
340.446	25.773	1114.318	870.653
341.460	25.589	1113.661	869.175
342.475	25.832	1113.248	869.946
343.489	25.707	1111.924	868.234
344.504	25.622	1111.525	867.434
345.519	25.964	1110.839	868.473
346.533	25.826	1109.847	866.957
347.548	26.041	1108.006	866.474
348.562	25.743	1107.996	864.955
349.577	25.533	1106.989	863.086
350.592	25.128	1106.029	860.318
351.606	25.292	1103.962	859.419
352.621	24.979	1104.409	858.192
353.635	25.304	1103.091	858.647
354.650	25.108	1103.088	857.630
355.665	25.120	1103.131	857.647
356.679	25.162	1102.152	857.011
357.694	25.246	1101.990	857.211
358.708	25.230	1101.384	856.584
359.723	25.439	1099.860	856.319
360.738	25.452	1099.896	856.335
361.752	25.349	1099.731	855.640
362.767	25.355	1098.821	854.883
363.781	25.199	1098.333	853.690
364.796	25.670	1098.068	855.645
365.810	25.894	1096.534	855.439
366.825	25.948	1095.759	855.013
367.840	25.953	1096.810	855.782
368.854	26.045	1097.371	856.583
369.869	25.878	1094.576	853.533
370.883	26.091	1093.444	853.583
371.898	25.724	1093.115	851.513
372.913	25.682	1092.610	850.848
373.927	25.490	1092.831	850.036
374.942	25.974	1091.667	851.338
375.956	25.668	1091.494	849.685
376.971	25.883	1090.130	849.560
377.986	25.656	1090.752	848.903
379.000	26.230	1089.810	850.796
380.015	25.907	1089.878	849.255
381.029	25.958	1088.226	848.133
382.044	26.271	1087.468	848.939
383.059	25.927	1087.272	847.091
384.073	26.076	1086.138	846.834
385.088	25.972	1086.169	846.292
386.102	26.094	1084.307	845.340
387.117	25.578	1084.114	842.696
388.132	25.550	1082.744	841.425
389.146	25.367	1082.358	840.197
390.161	25.351	1081.067	839.047
391.175	25.357	1080.115	838.259
392.190	25.510	1080.224	838.984
393.205	26.178	1078.579	840.744
394.219	26.003	1077.870	839.302
395.234	25.825	1077.943	838.457
396.248	25.474	1075.931	835.189
397.263	25.740	1074.602	835.318
398.278	25.810	1074.699	835.643
399.292	25.484	1075.667	834.807
400.307	25.663	1073.597	833.955
401.321	25.672	1072.865	833.354
402.336	25.045	1072.020	829.725
403.350	25.354	1070.904	830.217
404.365	25.746	1070.365	831.535
405.380	25.734	1070.696	831.664
406.394	25.451	1070.073	829.797
407.409	25.918	1068.691	830.808
408.423	26.040	1068.990	831.529
409.438	26.327	1068.021	832.021
410.453	26.149	1067.311	830.576
411.467	26.501	1066.209	831.263
412.482	26.242	1066.278	830.053
413.496	26.361	1064.998	829.528
414.511	26.391	1064.197	828.968
415.526	26.076	1065.246	828.266
416.540	26.786	1063.208	829.862
417.555	26.760	1062.733	829.296
418.569	26.476	1062.123	827.450
419.584	26.341	1062.616	827.145
420.599	26.076	1062.607	825.850
421.613	153.967	1404.256	1793.029
422.628	141.592	1453.973	1793.097
