DTS Sentinel unit serial number:	SN413079Multiplexer serial number:	ORYXHardware model number:	OX4-SRSoftware version number:	ORYX F/W v4.00 Oryx Data Collector v3.7.2.0data status	okinstallation	princeton_trtdifferential loss correction	single-endedforward channel	channel 2reverse channel	N/Adate	2019/09/18time	01:59:35forward acquisition time	60.00reverse acquisition time	0.00gamma	496.2192k internal	0.2350k external	0.2350temperature offset calibration	0.9983default loss term (dB/km)	0.3790temperature slope calibration	1.0000multiplexer offset coefficient	1.0000multiplexer slope coefficient	1.0000fibre end	0.00T internal ref (°C)	22.91T ext. ref 1 (°C)	0.17T ext. ref 2 (°C)	16.68length (m)	temperature (°C)	Stokes	anti-Stokes-747.200	468.547	-0.072	0.162
-746.185	-86.255	-0.512	-0.158
-745.171	49.310	0.196	-0.184
-744.156	-98.102	-0.129	0.033
-743.142	800.000	-0.015	-0.055
-742.127	800.000	-0.100	0.432
-741.112	-76.729	0.151	-0.053
-740.098	28.726	-0.090	-0.076
-739.083	800.000	0.071	-0.197
-738.069	-200.000	0.003	-0.101
-737.054	-106.669	-0.356	0.079
-736.039	93.364	-0.161	-0.182
-735.025	-33.093	-0.191	-0.105
-734.010	-200.000	0.042	0.203
-732.996	-21.972	-0.086	0.052
-731.981	-83.665	-0.292	-0.093
-730.966	-169.779	-0.398	0.014
-729.952	-200.000	-0.004	-0.173
-728.937	57.234	-0.123	-0.120
-727.923	238.023	-0.092	-0.153
-726.908	-7.527	-0.297	-0.200
-725.894	-14.023	-0.194	-0.125
-724.879	-200.000	0.029	-0.189
-723.864	800.000	0.076	0.210
-722.850	-200.000	0.035	-0.218
-721.835	-35.671	-0.255	0.138
-720.821	-200.000	-0.054	0.350
-719.806	-63.997	-0.222	0.090
-718.791	-97.157	-0.416	0.108
-717.777	-114.012	-0.113	0.022
-716.762	1.296	0.198	0.142
-715.748	34.484	-0.144	0.126
-714.733	-67.818	-0.196	-0.076
-713.718	246.624	-0.149	-0.251
-712.704	525.485	0.162	-0.380
-711.689	-200.000	-0.109	0.000
-710.675	315.214	-0.103	0.194
-709.660	108.367	0.061	0.073
-708.645	-44.775	0.177	-0.088
-707.631	476.756	0.144	0.326
-706.616	-112.397	-0.278	-0.056
-705.602	-75.592	0.141	0.050
-704.587	-200.000	-0.026	-0.324
-703.572	800.000	0.029	-0.120
-702.558	-116.563	0.093	0.017
-701.543	118.577	-0.191	-0.235
-700.529	-200.000	0.197	0.001
-699.514	-16.198	-0.217	-0.138
-698.499	57.585	-0.120	-0.116
-697.485	-118.707	-0.406	-0.071
-696.470	237.261	-0.153	0.252
-695.456	-20.217	0.267	-0.164
-694.441	30.479	-0.120	-0.102
-693.426	28.774	0.205	-0.173
-692.412	-200.000	-0.005	-0.078
-691.397	314.566	0.124	-0.233
-690.383	365.390	-0.040	-0.081
-689.368	-85.995	-0.219	-0.067
-688.354	75.058	-0.052	0.055
-687.339	-134.805	0.204	-0.025
-686.324	-200.000	0.030	0.448
-685.310	-200.000	-0.045	-0.366
-684.295	-30.394	-0.026	-0.014
-683.281	274.420	0.141	-0.248
-682.266	600.470	0.068	0.168
-681.251	-90.798	-0.376	-0.108
-680.237	215.884	-0.114	-0.180
-679.222	31.643	0.273	-0.234
-678.208	800.000	-0.093	-0.321
-677.193	-45.406	0.128	-0.063
-676.178	800.000	-0.088	-0.307
-675.164	52.112	0.201	-0.191
-674.149	-54.656	0.446	0.201
-673.135	221.171	0.105	-0.167
-672.120	62.341	-0.088	0.087
-671.105	-141.382	-0.216	0.022
-670.091	-200.000	-0.015	0.220
-669.076	800.000	-0.064	0.194
-668.062	153.634	-0.072	-0.098
-667.047	-63.161	-0.210	-0.086
-666.032	145.001	-0.044	0.059
-665.018	-80.476	0.258	-0.086
-664.003	-158.827	0.286	0.016
-662.989	800.000	-0.020	0.055
-661.974	-34.348	-0.461	-0.252
-660.959	-18.410	-0.148	-0.092
-659.945	-150.566	0.403	0.031
-658.930	-3.278	-0.090	0.063
-657.916	154.320	0.123	0.168
-656.901	-57.823	0.032	-0.014
-655.886	223.565	-0.236	-0.379
-654.872	203.357	0.285	-0.439
-653.857	-134.299	0.103	-0.013
-652.843	-200.000	0.006	-0.161
-651.828	416.040	-0.143	0.303
-650.814	-0.628	-0.177	-0.125
-649.799	-192.681	0.254	0.002
-648.784	-200.000	-0.063	0.300
-647.770	596.424	0.165	0.406
-646.755	-97.001	-0.336	-0.087
-645.741	800.000	-0.064	-0.208
-644.726	-160.418	-0.115	0.006
-643.711	15.333	0.069	0.054
-642.697	69.754	-0.192	-0.197
-641.682	800.000	-0.011	-0.046
-640.668	-38.259	0.183	-0.096
-639.653	154.268	-0.151	-0.205
-638.638	285.105	-0.103	-0.185
-637.624	-200.000	-0.005	-0.074
-636.609	-200.000	0.027	-0.171
-635.595	535.651	-0.050	0.117
-634.580	-5.904	0.160	0.109
-633.565	-200.000	0.076	-0.381
-632.551	39.688	-0.297	0.265
-631.536	-200.000	-0.116	-0.000
-630.522	-25.108	0.163	-0.096
-629.507	437.269	-0.120	-0.259
-628.492	800.000	-0.100	0.358
-627.478	562.528	0.093	0.225
-626.463	-99.935	-0.259	-0.064
-625.449	-38.050	0.216	0.114
-624.434	-78.678	-0.161	0.055
-623.419	-59.702	-0.113	-0.048
-622.405	14.904	-0.266	0.207
-621.390	-71.563	-0.201	-0.075
-620.376	-200.000	0.001	-0.004
-619.361	-200.000	-0.063	0.307
-618.346	14.773	-0.367	-0.285
-617.332	78.991	-0.214	-0.228
-616.317	84.719	0.065	0.070
-615.303	-160.588	0.118	-0.006
-614.288	800.000	0.036	-0.153
-613.273	-109.119	-0.165	0.035
-612.259	25.481	-0.060	0.050
-611.244	-85.799	0.122	0.038
-610.230	-120.920	-0.214	0.036
-609.215	26.123	0.087	0.072
-608.201	-200.000	-0.008	0.315
-607.186	-49.389	-0.185	-0.088
-606.171	32.590	0.074	0.064
-605.157	0.073	0.138	-0.097
-604.142	-200.000	-0.005	0.179
-603.128	-26.208	0.193	-0.113
-602.113	-113.899	0.324	-0.063
-601.098	-51.099	-0.126	-0.059
-600.084	29.772	0.078	0.066
-599.069	-73.101	-0.370	0.135
-598.055	-200.000	0.005	0.492
-597.040	-106.657	-0.269	0.059
-596.025	236.811	0.040	0.066
-595.011	89.050	0.115	-0.127
-593.996	72.600	-0.223	0.231
-592.982	-65.311	0.197	0.079
-591.967	-200.000	0.024	-0.217
-590.952	317.240	0.118	-0.221
-589.938	37.016	-0.256	0.225
-588.923	53.558	0.336	-0.320
-587.909	281.796	-0.205	0.364
-586.894	-109.306	0.445	0.094
-585.879	29.822	-0.082	-0.069
-584.865	-102.977	-0.229	-0.054
-583.850	800.000	-0.060	0.233
-582.836	-77.162	-0.095	-0.033
-581.821	-105.558	0.295	-0.066
-580.806	9.324	-0.199	0.149
-579.792	19.946	-0.334	0.267
-578.777	-64.117	-0.331	-0.134
-577.763	212.830	-0.050	0.078
-576.748	348.243	-0.121	-0.237
-575.733	-114.531	0.269	-0.051
-574.719	-200.000	-0.032	-0.161
-573.704	-77.759	0.207	-0.071
-572.690	-20.511	-0.084	-0.051
-571.675	149.564	-0.125	-0.167
-570.661	52.607	0.242	0.229
-569.646	26.871	0.052	0.043
-568.631	-186.435	-0.382	0.005
-567.617	-8.538	-0.205	-0.136
-566.602	141.209	0.219	-0.287
-565.588	800.000	-0.040	-0.137
-564.573	70.739	0.093	-0.096
-563.558	100.862	0.179	0.206
-562.544	531.767	0.044	0.103
-561.529	-53.551	0.077	-0.035
-560.515	-118.501	-0.175	-0.031
-559.500	86.535	-0.042	-0.046
-558.485	-200.000	0.034	-0.172
-557.471	800.000	-0.082	-0.248
-556.456	-143.055	0.215	0.021
-555.442	800.000	0.056	-0.167
-554.427	800.000	0.063	0.184
-553.412	275.266	0.133	-0.234
-552.398	-200.000	0.030	0.214
-551.383	-77.253	-0.124	0.043
-550.369	-113.426	0.231	0.045
-549.354	-200.000	0.090	0.430
-548.339	23.948	0.082	-0.067
-547.325	-39.043	-0.404	-0.211
-546.310	-102.609	-0.079	0.019
-545.296	-157.746	0.192	0.011
-544.281	-16.844	0.126	-0.079
-543.266	-200.000	0.045	0.214
-542.252	-200.000	-0.048	0.317
-541.237	344.086	-0.038	-0.073
-540.223	-200.000	0.004	-0.061
-539.208	-33.974	0.119	-0.065
-538.193	-200.000	-0.035	0.419
-537.179	-59.575	0.140	0.059
-536.164	-70.451	-0.250	0.094
-535.150	-200.000	-0.024	0.191
-534.135	516.318	-0.124	0.286
-533.121	-17.060	-0.376	-0.235
-532.106	496.200	0.067	-0.154
-531.091	68.895	-0.136	-0.138
-530.077	-70.851	-0.221	0.083
-529.062	-56.990	0.513	-0.224
-528.048	800.000	0.068	0.198
-527.033	-200.000	0.032	-0.198
-526.018	-42.665	0.153	-0.077
-525.004	3.985	-0.347	-0.251
-523.989	800.000	-0.068	-0.202
-522.975	-200.000	-0.035	0.155
-521.960	-36.334	-0.098	-0.052
-520.945	-55.887	-0.294	0.130
-519.931	-200.000	-0.011	-0.227
-518.916	-18.845	0.268	-0.165
-517.902	-114.050	0.648	0.124
-516.887	106.325	-0.200	0.235
-515.872	49.792	-0.087	0.081
-514.858	374.814	-0.103	0.208
-513.843	179.918	-0.024	0.035
-512.829	-71.555	-0.177	-0.065
-511.814	-5.090	-0.346	-0.235
-510.799	29.781	-0.212	-0.179
-509.785	26.089	0.210	0.174
-508.770	144.295	0.041	-0.054
-507.756	-36.147	0.403	-0.216
-506.741	-200.000	0.011	0.061
-505.726	-150.879	-0.173	-0.013
-504.712	-108.794	0.133	-0.028
-503.697	534.813	-0.049	-0.114
-502.683	800.000	-0.046	0.168
-501.668	-12.948	0.057	0.037
-500.653	-6.787	-0.148	0.100
-499.639	800.000	0.105	-0.332
-498.624	-200.000	0.062	-0.375
-497.610	261.405	-0.171	-0.293
-496.595	800.000	-0.102	-0.366
-495.581	-136.599	-0.187	0.021
-494.566	-139.238	0.290	0.031
-493.551	-176.167	0.261	0.007
-492.537	-156.564	0.250	0.015
-491.522	122.389	0.065	0.080
-490.508	-200.000	0.005	-0.210
-489.493	800.000	-0.039	0.119
-488.478	-71.390	-0.211	-0.078
-487.464	-1.095	-0.388	-0.271
-486.449	-200.000	-0.015	-0.202
-485.435	800.000	0.059	-0.185
-484.420	-125.489	-0.077	0.012
-483.405	308.448	0.119	0.219
-482.391	73.708	0.302	-0.313
-481.376	-150.859	-0.164	0.012
-480.362	313.996	0.063	-0.116
-479.347	-1.727	0.114	-0.080
-478.332	77.784	0.075	-0.079
-477.318	-88.456	0.078	-0.023
-476.303	38.665	0.121	0.107
-475.289	260.117	0.004	-0.006
-474.274	-200.000	0.090	-0.646
-473.259	54.195	0.083	-0.078
-472.245	370.059	0.174	0.349
-471.230	58.696	0.066	0.064
-470.216	2.397	0.215	0.153
-469.201	339.866	0.069	-0.133
-468.186	-114.407	-0.117	0.022
-467.172	-150.789	-0.426	-0.032
-466.157	120.228	0.184	0.226
-465.143	-55.843	-0.088	-0.039
-464.128	-134.423	-0.471	-0.057
-463.113	-200.000	0.065	-0.290
-462.099	111.781	-0.027	-0.033
-461.084	24.850	-0.090	-0.073
-460.070	-49.342	-0.164	-0.078
-459.055	9.131	-0.136	0.101
-458.040	-200.000	0.034	0.189
-457.026	-200.000	-0.020	0.098
-456.011	112.880	-0.050	-0.059
-454.997	-125.870	0.157	-0.023
-453.982	23.068	-0.239	0.194
-452.968	800.000	0.039	0.106
-451.953	-200.000	-0.023	0.191
-450.938	16.508	0.124	-0.097
-449.924	-198.887	-0.201	0.001
-448.909	-41.099	-0.342	-0.174
-447.895	-48.307	0.281	-0.134
-446.880	114.380	-0.168	0.202
-445.865	-200.000	-0.008	0.034
-444.851	800.000	-0.042	0.134
-443.836	47.111	-0.092	-0.084
-442.822	-41.733	-0.217	0.110
-441.807	279.125	0.174	0.306
-440.792	48.420	0.202	-0.186
-439.778	-50.838	-0.053	-0.025
-438.763	144.593	0.117	0.154
-437.749	75.198	-0.064	0.066
-436.734	-200.000	-0.000	0.149
-435.719	71.351	-0.204	-0.208
-434.705	800.000	0.042	0.162
-433.690	19.257	0.182	-0.144
-432.676	41.846	0.160	0.143
-431.661	800.000	0.134	-0.553
-430.646	800.000	-0.011	0.033
-429.632	160.585	-0.226	-0.312
-428.617	136.216	0.098	0.126
-427.603	-101.892	0.351	-0.084
-426.588	670.584	-0.018	0.047
-425.573	91.777	-0.261	0.290
-424.559	428.839	-0.146	-0.311
-423.544	44.699	-0.093	-0.084
-422.530	94.083	0.237	0.266
-421.515	748.465	0.109	0.291
-420.500	-137.343	0.206	-0.023
-419.486	-161.145	-0.322	-0.017
-418.471	312.105	0.116	-0.215
-417.457	202.317	0.055	-0.083
-416.442	-66.184	0.145	0.057
-415.428	128.904	0.068	-0.085
-414.413	-54.295	0.257	-0.115
-413.398	800.000	-0.079	0.283
-412.384	-151.565	-0.121	0.009
-411.369	49.554	0.312	0.289
-410.355	-200.000	-0.026	0.223
-409.340	800.000	-0.034	-0.127
-408.325	134.908	-0.102	-0.131
-407.311	-200.000	-0.026	-0.303
-406.296	20.171	0.155	-0.123
-405.282	480.870	-0.060	-0.134
-404.267	271.623	0.237	0.412
-403.252	-57.603	0.235	-0.101
-402.238	-200.000	0.030	-0.436
-401.223	152.912	0.045	0.061
-400.209	-173.123	0.062	0.002
-399.194	7.250	0.153	-0.113
-398.179	301.733	0.083	0.152
-397.165	-200.000	-0.051	-0.321
-396.150	-200.000	0.047	0.211
-395.136	-54.868	-0.148	-0.066
-394.121	310.973	-0.110	0.203
-393.106	-45.974	0.339	0.165
-392.092	-200.000	0.017	0.083
-391.077	-94.372	0.370	0.100
-390.063	800.000	0.092	-0.258
-389.048	17.341	-0.220	-0.172
-388.033	499.828	-0.115	0.262
-387.019	-31.476	0.272	0.151
-386.004	55.822	-0.342	-0.327
-384.990	150.594	0.075	-0.100
-383.975	800.000	0.067	-0.206
-382.960	33.737	0.219	0.188
-381.946	-185.546	0.205	0.003
-380.931	-119.344	-0.091	-0.016
-379.917	-200.000	-0.069	-0.397
-378.902	61.812	-0.109	-0.107
-377.888	-200.000	-0.021	-0.213
-376.873	-140.298	0.169	-0.017
-375.858	108.156	-0.055	0.065
-374.844	-123.418	0.228	0.036
-373.829	288.378	-0.132	0.236
-372.815	-80.786	-0.268	-0.088
-371.800	-55.698	-0.160	-0.071
-370.785	800.000	-0.022	-0.063
-369.771	-79.579	0.115	0.038
-368.756	-157.602	0.137	0.008
-367.742	540.968	-0.042	0.097
-366.727	-60.565	0.177	-0.074
-365.712	800.000	0.070	0.195
-364.698	-200.000	0.198	0.000
-363.683	-8.048	-0.187	0.124
-362.669	800.000	0.011	-0.041
-361.654	-44.306	0.224	0.111
-360.639	-11.263	0.283	-0.183
-359.625	-24.369	-0.151	0.089
-358.610	471.041	-0.104	-0.231
-357.596	-9.772	-0.102	0.067
-356.581	-94.145	-0.190	-0.051
-355.566	88.629	0.266	0.290
-354.552	43.033	-0.246	0.220
-353.537	-13.380	0.149	0.095
-352.523	9.852	0.088	-0.065
-351.508	31.684	-0.090	0.076
-350.493	-200.000	-0.032	0.219
-349.479	320.752	-0.069	0.130
-348.464	-40.900	-0.201	-0.102
-347.450	-150.197	0.205	-0.016
-346.435	-200.000	-0.035	-0.172
-345.420	134.249	0.115	0.146
-344.406	163.148	-0.106	-0.146
-343.391	-39.684	-0.170	-0.087
-342.377	-200.000	-0.010	-0.222
-341.362	63.155	-0.083	0.082
-340.348	-134.399	0.118	-0.014
-339.333	257.188	-0.080	-0.136
-338.318	17.703	-0.093	-0.073
-337.304	504.303	0.046	-0.104
-336.289	-127.854	0.069	-0.010
-335.275	800.000	-0.130	0.363
-334.260	-200.000	0.003	0.210
-333.245	320.670	-0.194	-0.362
-332.231	-76.351	-0.078	-0.027
-331.216	-75.963	-0.187	-0.065
-330.202	-200.000	-0.027	0.365
-329.187	-35.675	0.092	0.049
-328.172	-98.675	-0.122	-0.031
-327.158	-145.783	0.150	-0.013
-326.143	-137.059	-0.039	-0.004
-325.129	132.265	-0.254	0.321
-324.114	-200.000	0.002	0.128
-323.099	-74.038	0.098	-0.035
-322.085	-109.286	-0.219	-0.046
-321.070	64.192	0.207	0.205
-320.056	260.525	0.208	0.354
-319.041	-200.000	0.023	0.117
-318.026	363.196	0.044	-0.088
-317.012	343.870	-0.162	0.312
-315.997	-33.909	-0.239	-0.129
-314.983	46.682	0.140	-0.128
-313.968	-200.000	-0.016	0.069
-312.953	-120.610	0.184	0.031
-311.939	-10.057	0.183	0.119
-310.924	135.698	-0.210	0.269
-309.910	113.702	0.179	-0.214
-308.895	249.057	0.068	0.113
-307.880	800.000	0.061	-0.234
-306.866	-93.233	0.333	-0.091
-305.851	-45.097	-0.255	-0.125
-304.837	-54.231	0.347	0.154
-303.822	75.053	-0.202	-0.209
-302.807	-12.758	0.340	0.217
-301.793	445.215	-0.073	0.157
-300.778	121.362	0.203	-0.248
-299.764	296.870	0.088	-0.158
-298.749	652.087	0.180	-0.452
-297.735	-148.418	-0.291	-0.023
-296.720	481.690	-0.085	0.190
-295.705	18.780	0.213	0.167
-294.691	-177.557	-0.200	-0.005
-293.676	357.205	0.141	0.276
-292.662	200.672	0.146	-0.220
-291.647	27.265	-0.200	-0.165
-290.632	-200.000	0.011	0.313
-289.618	-200.000	0.004	-0.071
-288.603	211.459	-0.030	0.047
-287.589	330.205	-0.147	0.277
-286.574	-200.000	0.007	-0.159
-285.559	465.529	0.032	0.069
-284.545	-92.142	-0.279	0.077
-283.530	-43.508	0.171	0.084
-282.516	800.000	-0.063	-0.208
-281.501	-200.000	-0.033	0.142
-280.486	800.000	0.041	-0.145
-279.472	78.053	0.116	-0.121
-278.457	-78.550	-0.182	0.061
-277.443	47.673	0.058	0.053
-276.428	-22.337	0.139	0.083
-275.413	-200.000	0.043	-0.233
-274.399	36.464	-0.267	0.231
-273.384	79.804	-0.200	0.210
-272.370	800.000	0.052	-0.208
-271.355	86.095	0.120	-0.129
-270.340	-200.000	-0.006	-0.203
-269.326	-7.910	-0.122	-0.081
-268.311	74.542	0.153	-0.158
-267.297	164.216	0.066	0.091
-266.282	-200.000	0.059	0.278
-265.267	800.000	-0.022	0.070
-264.253	800.000	0.092	0.319
-263.238	-200.000	-0.082	0.408
-262.224	-96.236	-0.046	-0.012
-261.209	28.129	0.234	-0.194
-260.195	-200.000	-0.002	-0.026
-259.180	-200.000	-0.047	-0.269
-258.165	-200.000	0.015	0.155
-257.151	315.165	0.057	-0.106
-256.136	800.000	0.011	0.046
-255.122	-34.827	-0.132	-0.070
-254.107	50.479	0.091	-0.085
-253.092	-200.000	-0.013	-0.092
-252.078	367.331	0.079	0.156
-251.063	-200.000	0.020	0.340
-250.049	-90.825	0.267	0.075
-249.034	332.021	0.130	0.246
-248.019	-200.000	-0.016	-0.166
-247.005	49.733	-0.165	0.152
-245.990	-43.829	-0.120	-0.059
-244.976	800.000	-0.040	-0.111
-243.961	800.000	0.092	0.269
-242.946	-200.000	-0.003	0.037
-241.932	-41.303	-0.105	-0.053
-240.917	64.770	0.174	-0.172
-239.903	97.085	0.077	0.087
-238.888	-14.128	0.222	0.140
-237.873	-200.000	-0.033	-0.338
-236.859	48.219	0.105	0.096
-235.844	-200.000	-0.045	-0.339
-234.830	74.279	-0.066	-0.068
-233.815	32.722	-0.140	-0.119
-232.800	692.810	-0.062	0.160
-231.786	74.434	-0.151	-0.155
-230.771	-70.255	-0.061	-0.022
-229.757	-84.113	0.293	-0.091
-228.742	12.363	0.124	0.093
-227.727	416.812	-0.037	0.078
-226.713	-200.000	-0.003	-0.143
-225.698	-11.094	-0.219	-0.141
-224.684	800.000	-0.105	0.294
-223.669	109.314	-0.131	0.154
-222.655	19.162	0.405	0.318
-221.640	-200.000	0.021	-0.275
-220.625	-107.260	0.282	-0.061
-219.611	-76.176	0.332	-0.115
-218.596	-101.318	0.241	-0.057
-217.582	139.357	0.149	0.191
-216.567	159.941	0.118	0.161
-215.552	-33.519	-0.280	0.151
-214.538	77.895	0.347	0.362
-213.523	458.494	-0.154	0.334
-212.509	-200.000	0.000	0.059
-211.494	115.406	-0.131	0.156
-210.479	-53.506	0.117	0.053
-209.465	-200.000	-0.019	-0.161
-208.450	11.150	-0.065	-0.049
-207.436	46.325	0.026	-0.024
-206.421	575.368	-0.088	0.210
-205.406	-45.348	-0.117	-0.057
-204.392	-114.793	-0.132	-0.025
-203.377	-14.686	-0.075	0.047
-202.363	-200.000	-0.001	-0.035
-201.348	52.544	0.110	-0.103
-200.333	2.881	0.040	-0.029
-199.319	-200.000	0.001	-0.223
-198.304	-89.976	-0.202	-0.057
-197.290	-52.287	-0.155	0.070
-196.275	-75.750	0.178	-0.062
-195.260	-200.000	-0.015	0.203
-194.246	41.278	0.308	0.272
-193.231	-200.000	0.068	0.315
-192.217	155.742	0.170	0.229
-191.202	80.231	-0.461	0.484
-190.187	-18.292	0.231	0.141
-189.173	-137.166	0.141	0.016
-188.158	-47.301	-0.301	-0.143
-187.144	-41.033	-0.205	0.103
-186.129	-133.079	-0.014	-0.002
-185.114	609.644	-0.073	-0.178
-184.100	131.450	-0.289	0.362
-183.085	-132.209	-0.099	-0.013
-182.071	-68.134	0.239	0.091
-181.056	169.304	0.135	0.189
-180.042	-93.703	0.186	-0.050
-179.027	-200.000	0.094	-0.477
-178.012	41.990	-0.132	-0.117
-176.998	-200.000	-0.001	0.083
-175.983	484.261	-0.058	-0.128
-174.969	-154.655	0.062	-0.004
-173.954	800.000	0.120	0.414
-172.939	800.000	-0.037	-0.152
-171.925	168.890	-0.119	0.165
-170.910	-73.369	-0.505	-0.180
-169.896	800.000	-0.038	-0.143
-168.881	39.527	0.250	-0.218
-167.866	797.512	0.036	-0.097
-166.852	113.995	0.098	0.117
-165.837	-200.000	-0.008	-0.106
-164.823	123.953	-0.203	0.249
-163.808	312.559	0.084	0.154
-162.793	800.000	0.097	-0.329
-161.779	800.000	0.084	-0.359
-160.764	-92.403	0.247	0.068
-159.750	43.306	0.245	-0.218
-158.735	-39.794	-0.158	0.080
-157.720	800.000	-0.034	-0.121
-156.706	-200.000	0.044	0.203
-155.691	110.876	-0.123	-0.144
-154.677	800.000	-0.074	-0.252
-153.662	454.097	-0.169	-0.366
-152.647	70.727	-0.350	-0.354
-151.633	141.174	-0.082	-0.106
-150.618	39.290	0.031	-0.027
-149.604	702.674	-0.124	-0.318
-148.589	-113.837	0.324	-0.061
-147.574	-78.053	-0.189	-0.063
-146.560	-200.000	0.036	0.454
-145.545	-142.466	0.474	0.045
-144.531	-115.021	0.346	-0.064
-143.516	-99.026	0.044	-0.011
-142.502	103.334	-0.180	-0.205
-141.487	-145.713	-0.170	-0.015
-140.472	-53.384	0.272	0.122
-139.458	-200.000	-0.017	-0.244
-138.443	-153.496	0.070	0.005
-137.429	-148.623	0.220	-0.017
-136.414	-4.763	0.054	0.037
-135.399	-75.493	0.120	0.042
-134.385	-53.975	0.218	0.097
-133.370	90.139	0.212	-0.231
-132.356	800.000	-0.093	0.253
-131.341	-99.835	0.171	-0.042
-130.326	87.908	0.179	-0.194
-129.312	-200.000	0.002	0.094
-128.297	216.151	-0.122	0.189
-127.283	10.544	-0.362	-0.269
-126.268	405.323	0.092	0.188
-125.253	-69.302	-0.058	-0.022
-124.239	12.317	0.293	0.220
-123.224	-200.000	0.072	0.372
-122.210	-18.801	0.190	-0.115
-121.195	125.250	-0.101	0.124
-120.180	-149.403	-0.170	0.013
-119.166	313.021	0.208	0.380
-118.151	6.401	0.197	0.142
-117.137	-78.586	-0.043	-0.014
-116.122	749.786	0.071	0.186
-115.107	800.000	0.109	0.339
-114.093	459.690	-0.004	-0.009
-113.078	-200.000	0.008	-0.059
-112.064	103.431	0.228	0.261
-111.049	-24.111	0.286	-0.167
-110.034	800.000	-0.120	0.394
-109.020	-200.000	-0.033	0.420
-108.005	196.097	0.259	0.383
-106.991	176.835	0.177	-0.251
-105.976	-31.102	0.278	-0.153
-104.962	64.771	0.207	-0.203
-103.947	317.110	0.174	0.320
-102.932	-200.000	0.006	0.181
-101.918	-200.000	0.041	0.264
-100.903	-24.063	0.232	-0.135
-99.889	-117.831	0.311	-0.054
-98.874	-200.000	0.052	-0.268
-97.859	-200.000	0.049	-0.368
-96.845	800.000	-0.058	0.203
-95.830	-80.363	-0.128	0.042
-94.816	130.380	-0.239	-0.298
-93.801	-36.047	0.270	-0.142
-92.786	-200.000	-0.002	-0.217
-91.772	266.856	-0.176	-0.300
-90.757	-10.584	-0.255	-0.164
-89.743	-131.801	0.298	-0.038
-88.728	-200.000	-0.009	-0.214
-87.713	568.795	-0.021	-0.050
-86.699	800.000	0.035	-0.118
-85.684	210.143	-0.084	0.128
-84.670	77.976	-0.206	0.214
-83.655	800.000	-0.082	-0.247
-82.640	800.000	0.138	0.382
-81.626	-126.449	0.072	-0.010
-80.611	-200.000	-0.004	-0.069
-79.597	334.845	-0.060	0.113
-78.582	433.811	-0.118	-0.249
-77.567	-149.680	0.194	-0.015
-76.553	800.000	-0.045	-0.134
-75.538	234.390	0.136	0.217
-74.524	800.000	-0.136	0.369
-73.509	43.547	-0.170	-0.151
-72.494	-200.000	0.019	-0.230
-71.480	135.953	0.184	-0.233
-70.465	106.236	0.152	0.175
-69.451	714.184	0.179	0.461
-68.436	-128.706	0.194	-0.027
-67.422	208.870	-0.046	0.071
-66.407	800.000	0.091	0.285
-65.392	-200.000	0.022	-0.179
-64.378	-100.349	0.282	-0.068
-63.363	375.583	-0.235	0.466
-62.349	16.138	-0.229	0.175
-61.334	311.315	-0.814	-1.484
-60.319	-40.821	0.913	0.459
-59.305	800.000	-0.355	-1.278
-58.290	75.078	1.092	1.118
-57.276	707.744	0.710	1.823
-56.261	-200.000	127.155	673.787
-55.246	415.113	1601.673	3316.872
-54.232	139.252	2766.154	3536.448
-53.217	89.638	2300.286	2494.543
-52.203	31.968	1903.273	1593.742
-51.188	25.875	1699.146	1376.376
-50.173	23.778	1660.878	1329.652
-49.159	45.960	1730.184	1555.697
-48.144	43.284	1741.251	1545.136
-47.130	25.516	1693.028	1368.477
-46.115	23.072	1677.109	1337.093
-45.100	22.842	1672.004	1331.243
-44.086	22.840	1669.741	1329.368
-43.071	22.823	1667.272	1327.221
-42.057	22.787	1665.427	1325.430
-41.042	22.864	1662.950	1323.985
-40.027	22.855	1660.871	1322.208
-39.013	22.792	1659.598	1320.670
-37.998	22.700	1658.318	1318.915
-36.984	22.740	1656.921	1318.048
-35.969	22.893	1655.597	1318.089
-34.954	22.953	1653.385	1316.719
-33.940	22.875	1652.518	1315.400
-32.925	22.812	1650.432	1313.215
-31.911	22.965	1648.167	1312.500
-30.896	22.831	1647.032	1310.544
-29.881	22.886	1645.567	1309.737
-28.867	22.956	1643.752	1308.758
-27.852	22.897	1642.697	1307.433
-26.838	22.843	1641.263	1305.835
-25.823	22.928	1639.966	1305.384
-24.809	22.950	1638.576	1304.384
-23.794	22.819	1637.737	1302.699
-22.779	22.966	1635.663	1302.081
-21.765	22.922	1633.545	1300.022
-20.750	22.953	1632.009	1298.976
-19.736	23.020	1631.074	1298.668
-18.721	23.035	1629.806	1297.718
-17.706	22.994	1628.276	1296.149
-16.692	22.899	1627.182	1294.531
-15.677	22.983	1625.632	1293.858
-14.663	23.011	1623.693	1292.472
-13.648	23.004	1622.766	1291.629
-12.633	22.869	1621.462	1289.554
-11.619	22.863	1619.796	1288.135
-10.604	22.919	1618.316	1287.318
-9.590	22.939	1617.149	1286.483
-8.575	22.938	1616.278	1285.731
-7.560	22.987	1614.527	1284.644
-6.546	22.965	1613.693	1283.767
-5.531	22.940	1612.622	1282.684
-4.517	22.898	1611.335	1281.306
-3.502	22.900	1610.312	1280.457
-2.487	22.923	1608.687	1279.276
-1.473	22.604	1595.970	1266.825
-0.458	19.594	1577.225	1230.486
0.556	14.577	1579.184	1199.986
1.571	12.464	1602.562	1202.206
2.586	12.193	1615.037	1209.455
3.600	11.251	1560.596	1161.873
4.615	6.098	1454.808	1048.704
5.629	1.113	1396.848	974.835
6.644	0.326	1389.528	964.605
7.659	0.201	1388.684	963.129
8.673	0.072	1388.001	961.751
9.688	0.081	1385.640	960.085
10.702	-0.020	1382.095	956.899
11.717	2.458	1385.219	974.776
12.731	9.216	1395.574	1025.208
13.746	15.076	1404.479	1069.187
14.761	16.728	1406.542	1081.222
15.775	16.250	1404.343	1076.389
16.790	15.199	1401.847	1067.682
17.804	14.510	1399.535	1061.446
18.819	13.988	1398.483	1057.237
19.834	13.881	1396.729	1055.131
20.848	13.598	1395.847	1052.577
21.863	13.451	1393.823	1050.026
22.877	13.261	1393.019	1048.120
23.892	13.080	1392.640	1046.597
24.907	13.126	1391.450	1045.902
25.921	13.159	1390.509	1045.308
26.936	13.326	1389.336	1045.392
27.950	13.254	1388.478	1044.202
28.965	13.370	1387.273	1043.933
29.980	13.427	1386.388	1043.531
30.994	13.364	1386.208	1042.911
32.009	13.384	1385.072	1042.089
33.023	13.370	1383.454	1040.691
34.038	13.370	1382.227	1039.675
35.053	13.284	1381.283	1038.332
36.067	13.333	1380.229	1037.757
37.082	13.316	1379.088	1036.701
38.096	13.369	1378.053	1036.164
39.111	13.305	1377.632	1035.354
40.126	13.309	1376.172	1034.191
41.140	13.222	1376.134	1033.523
42.155	13.233	1375.205	1032.802
43.169	13.085	1375.841	1032.268
44.184	13.168	1375.086	1032.124
45.199	13.138	1374.437	1031.361
46.213	13.256	1373.633	1031.403
47.228	13.281	1373.033	1031.016
48.242	13.256	1371.681	1029.756
49.257	13.314	1369.816	1028.622
50.271	13.319	1368.311	1027.436
51.286	13.394	1366.868	1026.727
52.301	13.279	1365.758	1025.088
53.315	13.243	1365.030	1024.229
54.330	13.254	1363.913	1023.366
55.344	13.150	1362.472	1021.551
56.359	13.186	1361.885	1021.245
57.374	13.224	1360.687	1020.489
58.388	13.193	1359.827	1019.564
59.403	13.127	1359.273	1018.650
60.417	13.147	1358.504	1018.110
61.432	13.051	1357.775	1016.879
62.447	13.060	1356.648	1016.000
63.461	13.044	1355.226	1014.745
64.476	13.068	1354.348	1014.146
65.490	13.125	1353.095	1013.471
66.505	13.153	1351.415	1012.291
67.520	13.114	1349.904	1010.832
68.534	13.077	1348.997	1009.837
69.549	13.016	1348.381	1008.915
70.563	13.129	1346.950	1008.447
71.578	13.163	1345.723	1007.644
72.593	13.084	1344.741	1006.339
73.607	13.013	1344.091	1005.329
74.622	13.059	1343.095	1004.776
75.636	13.019	1342.658	1004.118
76.651	13.004	1341.438	1003.024
77.666	13.038	1340.884	1002.730
78.680	13.014	1340.688	1002.347
79.695	13.028	1339.467	1001.428
80.709	13.210	1338.569	1001.777
81.724	13.153	1337.747	1000.728
82.739	13.137	1337.539	1000.385
83.753	13.182	1336.049	999.450
84.768	13.357	1334.384	999.174
85.782	13.356	1333.568	998.469
86.797	13.289	1332.294	997.025
87.812	13.217	1331.140	995.642
88.826	13.244	1330.072	994.913
89.841	13.262	1328.672	993.886
90.855	13.275	1327.861	993.272
91.870	13.294	1326.877	992.561
92.884	13.364	1326.085	992.301
93.899	13.248	1325.710	991.237
94.914	13.458	1324.192	991.269
95.928	13.417	1323.845	990.678
96.943	13.291	1322.899	989.131
97.957	13.324	1321.688	988.335
98.972	13.286	1320.904	987.434
99.987	13.416	1319.602	987.149
101.001	13.337	1318.972	986.121
102.016	13.371	1317.486	985.125
103.030	13.506	1316.231	984.902
104.045	13.340	1315.776	983.487
105.060	13.297	1314.923	982.508
106.074	13.218	1313.517	980.898
107.089	13.185	1311.896	979.407
108.103	13.228	1310.376	978.441
109.118	13.189	1309.624	977.559
110.133	13.232	1307.876	976.421
111.147	13.277	1306.395	975.494
112.162	13.174	1305.856	974.398
113.176	13.294	1304.710	974.164
114.191	13.178	1303.689	972.638
115.206	13.316	1302.395	972.394
116.220	13.233	1301.311	971.013
117.235	13.346	1299.941	970.566
118.249	13.230	1299.155	969.213
119.264	13.279	1297.897	968.474
120.279	13.176	1296.818	966.981
121.293	13.175	1296.058	966.324
122.308	13.110	1294.794	964.920
123.322	13.218	1293.900	964.798
124.337	13.236	1292.459	963.742
125.352	13.234	1291.430	962.877
126.366	13.195	1290.304	961.728
127.381	13.102	1289.552	960.542
128.395	13.155	1288.172	959.732
129.410	13.187	1287.017	958.976
130.424	13.249	1286.208	958.648
131.439	13.336	1285.264	958.363
132.454	13.280	1284.388	957.299
133.468	13.205	1283.685	956.257
134.483	13.285	1282.610	955.833
135.497	13.259	1281.153	954.512
136.512	13.271	1280.099	953.711
137.527	13.341	1278.685	952.979
138.541	13.298	1277.407	951.698
139.556	13.294	1276.095	950.611
140.570	13.354	1274.721	949.845
141.585	13.319	1274.010	949.034
142.600	13.490	1272.193	948.576
143.614	13.392	1271.932	947.736
144.629	13.472	1270.219	946.830
145.643	13.523	1269.617	946.593
146.658	13.449	1268.051	944.915
147.673	13.320	1266.957	943.282
148.687	13.507	1265.425	943.127
149.702	13.441	1263.981	941.587
150.716	13.388	1263.259	940.665
151.731	13.385	1261.821	939.495
152.746	13.397	1260.571	938.550
153.760	13.323	1259.926	937.565
154.775	13.499	1258.406	937.348
155.789	13.549	1257.159	936.620
156.804	13.571	1256.256	935.990
157.819	13.498	1255.322	934.795
158.833	13.508	1254.393	934.080
159.848	13.566	1253.196	933.434
160.862	13.627	1252.175	932.933
161.877	13.591	1250.926	931.719
162.892	13.510	1250.071	930.541
163.906	13.540	1249.213	929.993
164.921	13.537	1248.200	929.136
165.935	13.569	1247.070	928.394
166.950	13.634	1247.085	928.689
167.964	13.577	1245.579	927.163
168.979	13.611	1244.758	926.661
169.994	13.643	1244.391	926.484
171.008	13.655	1243.290	925.650
172.023	13.639	1242.632	924.990
173.037	13.674	1241.709	924.415
174.052	13.788	1240.652	924.180
175.067	13.722	1240.092	923.314
176.081	13.598	1239.289	921.943
177.096	13.650	1237.606	920.902
178.110	13.760	1236.709	920.764
179.125	13.689	1234.931	918.961
180.140	13.700	1234.336	918.499
181.154	13.715	1233.041	917.536
182.169	13.777	1231.906	916.957
183.183	13.669	1230.917	915.544
184.198	13.792	1229.561	915.131
185.213	13.905	1228.011	914.519
186.227	13.933	1227.491	914.204
187.242	13.923	1226.325	913.198
188.256	13.911	1225.267	912.264
189.271	13.964	1224.032	911.559
190.286	13.853	1223.326	910.341
191.300	13.701	1222.752	909.001
192.315	13.715	1222.246	908.622
193.329	13.662	1221.532	907.720
194.344	13.808	1220.458	907.637
195.359	13.818	1219.919	907.212
196.373	13.841	1219.607	907.028
197.388	13.888	1219.250	906.936
198.402	13.940	1218.604	906.659
199.417	14.057	1217.883	906.680
200.432	14.095	1216.763	905.976
201.446	14.128	1215.652	905.247
202.461	14.192	1215.061	905.073
203.475	14.116	1214.046	903.827
204.490	14.010	1212.870	902.296
205.504	14.168	1211.385	901.968
206.519	14.095	1210.378	900.740
207.534	14.078	1209.366	899.820
208.548	14.007	1208.505	898.713
209.563	14.086	1207.527	898.332
210.577	14.139	1206.961	898.118
211.592	14.105	1206.256	897.332
212.607	14.165	1205.133	896.739
213.621	14.173	1203.822	895.726
214.636	14.168	1203.358	895.276
215.650	14.200	1201.962	894.329
216.665	14.263	1201.206	894.029
217.680	14.188	1200.560	893.068
218.694	14.326	1199.733	893.111
219.709	14.323	1198.849	892.357
220.723	14.349	1197.868	891.689
221.738	14.259	1197.392	890.776
222.753	14.431	1196.243	890.759
223.767	14.513	1195.750	890.754
224.782	14.488	1195.181	890.117
225.796	14.426	1194.423	889.143
226.811	14.450	1193.898	888.801
227.826	14.447	1193.288	888.250
228.840	14.347	1192.274	886.887
229.855	14.371	1191.433	886.310
230.869	14.339	1190.850	885.627
231.884	14.333	1189.835	884.763
232.899	14.511	1189.393	885.297
233.913	14.414	1188.444	884.000
234.928	14.366	1187.561	883.011
235.942	14.372	1187.180	882.682
236.957	14.462	1185.864	882.103
237.972	14.283	1185.775	881.009
238.986	14.412	1184.876	880.947
240.001	14.434	1183.892	880.251
241.015	14.539	1182.757	879.881
242.030	14.489	1182.413	879.284
243.045	14.574	1181.729	879.147
244.059	14.517	1180.880	878.138
245.074	14.629	1179.911	877.930
246.088	14.612	1179.260	877.279
247.103	14.657	1178.537	876.899
248.117	14.629	1177.956	876.241
249.132	14.739	1177.170	876.157
250.147	14.728	1176.435	875.478
251.161	14.846	1175.133	875.048
252.176	14.915	1174.556	874.901
253.190	14.892	1174.062	874.333
254.205	14.911	1173.516	873.947
255.220	14.917	1172.709	873.303
256.234	14.878	1172.283	872.704
257.249	14.955	1171.465	872.418
258.263	14.952	1171.170	872.110
259.278	14.903	1170.639	871.381
260.293	14.978	1170.224	871.384
261.307	14.900	1169.658	870.479
262.322	15.195	1168.333	870.949
263.336	15.109	1167.801	870.031
264.351	15.225	1167.074	870.016
265.366	15.099	1166.554	868.894
266.380	15.144	1165.790	868.480
267.395	15.192	1164.813	867.924
268.409	15.152	1164.134	867.136
269.424	15.130	1163.528	866.493
270.439	14.967	1163.550	865.592
271.453	15.151	1162.252	865.501
272.468	15.095	1161.105	864.279
273.482	15.098	1160.790	863.983
274.497	15.076	1160.206	863.360
275.512	15.145	1159.469	863.090
276.526	15.270	1158.299	862.786
277.541	15.249	1157.499	862.004
278.555	15.161	1157.341	861.360
279.570	15.275	1156.507	861.250
280.585	15.286	1155.415	860.417
281.599	15.264	1154.438	859.499
282.614	15.215	1154.015	858.855
283.628	15.235	1152.258	857.575
284.643	15.279	1151.259	856.982
285.657	15.275	1150.752	856.508
286.672	15.250	1149.813	855.607
287.687	15.323	1148.865	855.195
288.701	15.457	1148.020	855.173
289.716	15.449	1147.093	854.367
290.730	15.328	1147.020	853.622
291.745	15.372	1146.241	853.191
292.760	15.465	1144.958	852.632
293.774	15.528	1144.839	852.786
294.789	15.485	1144.245	852.054
295.803	15.442	1143.747	851.389
296.818	15.524	1142.606	850.876
297.833	15.507	1142.148	850.374
298.847	15.572	1141.117	849.860
299.862	15.395	1140.606	848.513
300.876	15.596	1139.841	848.880
301.891	15.599	1139.182	848.330
302.906	15.706	1138.022	847.931
303.920	15.650	1137.540	847.218
304.935	15.757	1137.130	847.373
305.949	15.699	1136.333	846.417
306.964	15.734	1135.769	846.098
307.979	15.706	1135.008	845.310
308.993	15.820	1134.125	845.153
310.008	15.738	1133.344	844.083
311.022	15.819	1132.628	843.882
312.037	15.815	1131.812	843.177
313.052	15.761	1130.669	841.984
314.066	15.747	1129.722	841.136
315.081	15.836	1129.140	841.073
316.095	15.713	1128.641	840.008
317.110	15.726	1128.036	839.553
318.125	15.783	1127.038	839.019
319.139	15.713	1126.448	838.155
320.154	15.743	1125.486	837.514
321.168	15.764	1125.214	837.344
322.183	15.781	1124.581	836.881
323.197	15.693	1124.105	836.014
324.212	15.825	1123.252	835.964
325.227	15.820	1122.308	835.164
326.241	15.796	1121.986	834.729
327.256	15.859	1121.155	834.349
328.270	15.792	1119.980	833.070
329.285	15.874	1119.032	832.698
330.300	15.973	1117.997	832.343
331.314	15.890	1116.861	831.016
332.329	15.978	1116.195	830.880
333.343	16.002	1114.998	830.034
334.358	15.997	1114.340	829.444
335.373	15.940	1114.009	828.846
336.387	15.976	1113.223	828.363
337.402	15.953	1112.394	827.558
338.416	16.076	1111.688	827.565
339.431	16.091	1111.302	827.280
340.446	16.151	1110.292	826.748
341.460	16.156	1109.527	826.127
342.475	16.066	1109.320	825.462
343.489	16.294	1107.776	825.354
344.504	16.354	1106.746	824.809
345.519	16.383	1105.809	824.176
346.533	16.309	1105.251	823.326
347.548	16.397	1104.626	823.219
348.562	16.386	1103.618	822.341
349.577	16.331	1103.171	821.665
350.592	16.338	1102.165	820.876
351.606	16.306	1101.832	820.404
352.621	16.252	1101.139	819.551
353.635	16.215	1100.481	818.810
354.650	16.278	1099.628	818.410
355.665	16.328	1098.987	818.100
356.679	16.307	1098.338	817.442
357.694	16.396	1097.806	817.407
358.708	16.471	1096.883	817.011
359.723	16.383	1096.616	816.310
360.738	16.463	1095.602	815.872
361.752	16.378	1095.529	815.335
362.767	16.445	1094.780	815.027
363.781	16.455	1093.675	814.182
364.796	16.538	1093.409	814.311
365.810	16.527	1092.993	813.875
366.825	16.533	1092.069	813.146
367.840	16.513	1091.919	812.864
368.854	16.665	1090.618	812.554
369.869	16.817	1090.021	812.767
370.883	16.632	1089.250	811.234
371.898	16.641	1088.746	810.831
372.913	16.595	1088.335	810.230
373.927	16.692	1087.631	810.102
374.942	16.661	1087.236	809.585
375.956	16.736	1086.521	809.339
376.971	16.728	1085.849	808.730
377.986	16.723	1085.351	808.262
379.000	16.878	1084.812	808.528
380.015	16.871	1084.286	808.032
381.029	16.875	1083.821	807.635
382.044	16.973	1083.044	807.452
383.059	16.958	1081.838	806.407
384.073	16.959	1081.296	805.939
385.088	16.888	1080.555	804.977
386.102	16.921	1079.528	804.298
387.117	16.889	1078.461	803.280
388.132	16.849	1077.632	802.399
389.146	16.906	1076.957	802.095
390.161	16.872	1076.264	801.351
391.175	16.944	1075.272	800.881
392.190	16.988	1074.869	800.717
393.205	17.048	1074.028	800.301
394.219	17.033	1073.443	799.724
395.234	16.932	1072.356	798.368
396.248	16.973	1071.145	797.590
397.263	17.029	1070.219	797.093
398.278	17.000	1069.753	796.539
399.292	16.936	1069.174	795.735
400.307	17.022	1068.160	795.316
401.321	16.907	1068.038	794.613
402.336	16.965	1067.273	794.247
403.350	17.067	1066.096	793.777
404.365	17.007	1065.910	793.290
405.380	17.040	1065.072	792.749
406.394	17.120	1064.289	792.468
407.409	17.089	1063.618	791.757
408.423	17.273	1062.785	791.920
409.438	17.247	1061.812	791.004
410.453	17.348	1061.406	791.101
411.467	17.346	1060.723	790.514
412.482	17.325	1060.033	789.833
413.496	17.362	1059.366	789.438
414.511	17.361	1059.014	789.101
415.526	17.448	1058.137	788.781
416.540	17.431	1057.848	788.418
417.555	17.456	1057.389	788.121
418.569	17.399	1056.844	787.383
419.584	17.388	1056.794	787.225
420.599	17.442	1055.929	786.758
421.613	108.237	1331.093	1489.115
422.628	99.784	1371.125	1489.194
