DTS Sentinel unit serial number:	SN413079Multiplexer serial number:	ORYXHardware model number:	OX4-SRSoftware version number:	ORYX F/W v4.00 Oryx Data Collector v3.7.2.0data status	okinstallation	princeton_trtdifferential loss correction	single-endedforward channel	channel 2reverse channel	N/Adate	2019/09/17time	07:35:35forward acquisition time	60.00reverse acquisition time	0.00gamma	496.2192k internal	0.2334k external	0.2334temperature offset calibration	0.9973default loss term (dB/km)	0.3790temperature slope calibration	1.0000multiplexer offset coefficient	1.0000multiplexer slope coefficient	1.0000fibre end	0.00T internal ref (°C)	27.19T ext. ref 1 (°C)	0.12T ext. ref 2 (°C)	21.85length (m)	temperature (°C)	Stokes	anti-Stokes-747.200	-200.000	0.035	0.305
-746.185	-200.000	0.001	-0.014
-745.171	-50.153	-0.367	0.175
-744.156	32.188	-0.127	0.110
-743.142	800.000	0.112	0.451
-742.127	-69.809	-0.312	0.120
-741.112	-158.095	0.173	0.010
-740.098	800.000	0.154	0.446
-739.083	-200.000	0.020	-0.164
-738.069	-200.000	-0.034	0.227
-737.054	-53.599	-0.080	-0.037
-736.039	286.411	-0.230	-0.417
-735.025	-63.049	-0.121	-0.050
-734.010	-85.913	-0.250	-0.078
-732.996	-200.000	0.001	-0.008
-731.981	-200.000	-0.023	0.264
-730.966	-71.702	-0.257	0.097
-729.952	-183.652	0.191	-0.003
-728.937	-165.976	0.149	-0.006
-727.923	-39.948	0.135	-0.071
-726.908	-57.358	0.070	0.031
-725.894	459.077	0.041	0.092
-724.879	133.786	-0.135	-0.175
-723.864	-66.474	0.341	-0.136
-722.850	317.611	-0.132	-0.251
-721.835	164.485	-0.131	-0.186
-720.821	-68.989	-0.101	0.039
-719.806	424.355	0.097	0.211
-718.791	33.835	-0.157	-0.138
-717.777	158.689	-0.133	-0.185
-716.762	-34.551	0.073	-0.040
-715.748	-25.171	0.136	-0.081
-714.733	241.800	-0.149	-0.250
-713.718	800.000	-0.067	0.216
-712.704	73.804	0.107	-0.112
-711.689	-60.227	-0.156	0.067
-710.675	150.943	0.082	-0.112
-709.660	-3.717	0.123	0.086
-708.645	-25.670	-0.306	-0.181
-707.631	-156.223	0.132	-0.008
-706.616	232.653	-0.218	0.360
-705.602	-137.629	-0.406	-0.046
-704.587	-153.984	0.497	-0.034
-703.572	-73.693	0.268	-0.098
-702.558	-200.000	0.030	-0.141
-701.543	-104.585	-0.273	-0.063
-700.529	-200.000	-0.030	0.462
-699.514	675.972	-0.084	0.219
-698.499	136.824	-0.161	0.211
-697.485	-103.232	0.153	-0.036
-696.470	255.730	-0.095	0.164
-695.456	800.000	0.157	-0.440
-694.441	-124.086	-0.277	0.044
-693.426	-92.134	-0.138	0.039
-692.412	800.000	-0.063	0.184
-691.397	87.124	0.087	-0.097
-690.383	583.671	-0.067	0.166
-689.368	130.942	0.109	-0.140
-688.354	-129.580	0.398	-0.055
-687.339	102.780	-0.329	-0.386
-686.324	100.690	0.168	-0.195
-685.310	59.501	-0.099	0.098
-684.295	-141.446	-0.012	-0.001
-683.281	-18.683	0.046	-0.028
-682.266	91.461	-0.123	-0.139
-681.251	800.000	-0.029	-0.117
-680.237	-74.713	0.144	0.052
-679.222	8.515	-0.126	0.095
-678.208	800.000	0.083	0.296
-677.193	-168.346	0.189	-0.007
-676.178	-111.373	0.253	-0.052
-675.164	-164.322	0.126	-0.006
-674.149	-118.724	-0.196	0.035
-673.135	-133.209	-0.195	0.025
-672.120	800.000	0.119	-0.439
-671.105	740.921	0.103	0.278
-670.091	56.729	0.212	0.206
-669.076	-200.000	0.072	0.625
-668.062	-200.000	-0.018	-0.382
-667.047	83.393	0.074	0.080
-666.032	-88.914	0.366	-0.109
-665.018	-37.595	-0.194	0.104
-664.003	-57.942	-0.263	-0.115
-662.989	54.103	-0.079	-0.076
-661.974	115.724	0.041	0.050
-660.959	-56.038	0.440	-0.197
-659.945	-18.993	-0.361	-0.225
-658.930	226.400	0.093	-0.151
-657.916	-91.030	0.208	0.060
-656.901	-17.860	0.522	-0.328
-655.886	71.289	-0.184	0.191
-654.872	301.392	-0.115	-0.212
-653.857	-200.000	-0.058	0.329
-652.843	-107.550	0.258	0.056
-651.828	331.572	-0.076	-0.148
-650.814	110.788	0.057	-0.069
-649.799	800.000	-0.054	0.155
-648.784	-200.000	0.052	-0.234
-647.770	800.000	0.084	0.365
-646.755	-36.185	-0.064	-0.034
-645.741	800.000	-0.046	0.157
-644.726	214.920	0.248	-0.394
-643.711	-200.000	0.002	0.105
-642.697	-156.698	0.240	-0.015
-641.682	-200.000	0.021	-0.098
-640.668	-200.000	0.072	-0.337
-639.653	273.081	-0.113	-0.199
-638.638	126.653	-0.069	0.087
-637.624	71.713	0.215	0.223
-636.609	-16.595	-0.436	-0.276
-635.595	-200.000	-0.037	-0.290
-634.580	-60.720	0.346	-0.147
-633.565	-200.000	-0.005	0.057
-632.551	145.649	-0.028	-0.037
-631.536	-200.000	0.031	-0.262
-630.522	-7.363	-0.104	-0.071
-629.507	-200.000	0.047	0.232
-628.492	5.178	0.106	0.078
-627.478	-200.000	0.013	-0.229
-626.463	800.000	-0.106	-0.306
-625.449	-81.240	-0.264	-0.087
-624.434	2.344	0.073	0.053
-623.419	-200.000	0.063	0.353
-622.405	-72.060	-0.359	-0.133
-621.390	438.797	0.049	0.107
-620.376	-12.925	-0.297	0.193
-619.361	-76.058	0.129	-0.045
-618.346	31.388	0.152	-0.130
-617.332	800.000	-0.016	-0.046
-616.317	800.000	-0.033	-0.115
-615.303	-138.657	0.163	-0.018
-614.288	-21.893	-0.104	-0.063
-613.273	800.000	0.070	0.197
-612.259	-8.371	-0.090	0.060
-611.244	-41.670	0.208	0.107
-610.230	-94.496	-0.360	-0.098
-609.215	-163.086	-0.314	-0.015
-608.201	-176.910	0.140	0.004
-607.186	112.997	-0.168	0.203
-606.171	-200.000	0.040	0.388
-605.157	-94.362	0.122	-0.033
-604.142	800.000	0.113	0.459
-603.128	-200.000	-0.029	0.137
-602.113	-101.018	-0.115	0.028
-601.098	-10.761	0.209	0.138
-600.084	18.198	0.228	0.182
-599.069	386.611	-0.081	0.168
-598.055	468.192	0.138	-0.308
-597.040	93.259	0.087	0.098
-596.025	-32.950	0.144	0.080
-595.011	301.446	-0.015	0.028
-593.996	41.539	-0.268	0.243
-592.982	-200.000	-0.015	0.262
-591.967	93.849	-0.100	0.113
-590.952	266.010	0.063	0.110
-589.938	-73.552	-0.325	-0.119
-588.923	68.694	0.253	-0.259
-587.909	88.713	0.076	-0.084
-586.894	800.000	-0.065	-0.231
-585.879	-71.507	-0.010	0.004
-584.865	-148.557	-0.099	-0.008
-583.850	-54.286	-0.344	0.156
-582.836	-148.185	-0.214	-0.018
-581.821	-2.962	-0.283	-0.197
-580.806	-96.312	-0.387	-0.102
-579.792	73.373	0.335	0.350
-578.777	800.000	0.049	0.197
-577.763	-74.675	0.227	-0.081
-576.748	271.321	-0.112	0.197
-575.733	-70.350	-0.147	0.056
-574.719	-200.000	-0.007	0.281
-573.704	185.282	-0.204	0.302
-572.690	-75.543	-0.387	0.137
-571.675	-200.000	-0.042	0.215
-570.661	234.833	-0.120	0.197
-569.646	262.693	-0.041	-0.071
-568.631	800.000	0.171	-0.481
-567.617	800.000	-0.156	-0.529
-566.602	-149.457	0.245	0.019
-565.588	-141.086	0.209	0.021
-564.573	-200.000	0.009	0.286
-563.558	-108.301	-0.118	0.025
-562.544	-67.685	-0.220	0.086
-561.529	-58.817	-0.392	0.169
-560.515	-46.635	0.263	-0.128
-559.500	-200.000	0.002	0.118
-558.485	124.104	0.269	0.337
-557.471	800.000	0.074	0.279
-556.456	-200.000	0.251	0.000
-555.442	13.728	0.180	0.140
-554.427	311.320	0.192	0.360
-553.412	-87.236	-0.060	0.018
-552.398	800.000	0.122	0.355
-551.383	-154.999	0.532	-0.035
-550.369	10.583	-0.072	-0.055
-549.354	-71.960	0.258	0.096
-548.339	-200.000	0.003	-0.098
-547.325	800.000	0.058	-0.218
-546.310	268.073	-0.062	0.108
-545.296	-106.043	-0.094	0.021
-544.281	214.654	0.092	-0.146
-543.266	160.360	0.171	-0.238
-542.252	102.658	0.023	-0.027
-541.237	109.751	0.079	0.094
-540.223	-51.815	-0.124	-0.057
-539.208	143.527	0.132	0.176
-538.193	133.700	-0.201	-0.260
-537.179	-133.378	0.318	0.040
-536.164	68.389	0.179	0.183
-535.150	-29.981	0.135	-0.077
-534.135	525.385	0.098	-0.229
-533.121	-200.000	0.007	0.206
-532.106	-42.081	-0.158	-0.080
-531.091	-200.000	0.011	0.071
-530.077	17.155	-0.434	0.343
-529.062	649.253	-0.080	0.205
-528.048	-17.209	-0.153	-0.096
-527.033	-92.619	-0.137	-0.038
-526.018	-98.619	0.072	-0.018
-525.004	337.740	-0.096	0.186
-523.989	-90.964	-0.108	-0.031
-522.975	176.170	-0.161	-0.233
-521.960	-114.875	-0.133	0.025
-520.945	680.082	-0.047	0.123
-519.931	238.577	0.101	-0.167
-518.916	-26.193	-0.187	0.110
-517.902	432.705	-0.119	-0.256
-516.887	268.950	-0.190	0.333
-515.872	593.859	0.122	-0.299
-514.858	-8.643	0.092	-0.062
-513.843	-200.000	-0.007	-0.184
-512.829	150.914	-0.150	0.204
-511.814	-32.436	-0.256	-0.142
-510.799	-200.000	-0.017	0.113
-509.785	342.991	-0.037	-0.072
-508.770	-117.661	0.191	-0.034
-507.756	-148.464	-0.161	0.013
-506.741	348.135	0.067	-0.131
-505.726	-122.023	0.097	-0.016
-504.712	-114.865	-0.119	0.023
-503.697	-124.054	-0.031	0.005
-502.683	106.732	-0.210	-0.248
-501.668	-93.367	-0.199	-0.055
-500.653	-200.000	0.047	0.251
-499.639	-15.050	-0.095	0.060
-498.624	-121.931	0.288	-0.047
-497.610	480.168	-0.032	0.072
-496.595	-25.180	-0.221	-0.130
-495.581	-75.943	-0.097	0.034
-494.566	-79.390	0.245	-0.083
-493.551	-58.999	0.106	-0.045
-492.537	373.977	0.101	-0.205
-491.522	800.000	-0.050	0.211
-490.508	-83.026	-0.256	0.082
-489.493	-115.246	-0.297	-0.056
-488.478	552.512	-0.134	0.321
-487.464	-200.000	0.021	0.223
-486.449	1.108	0.264	0.188
-485.435	647.940	-0.037	-0.095
-484.420	49.758	0.310	0.290
-483.405	13.431	0.181	-0.139
-482.391	-200.000	-0.019	-0.094
-481.376	36.221	-0.227	-0.199
-480.362	143.951	-0.214	0.284
-479.347	-25.782	-0.172	-0.101
-478.332	-200.000	0.003	-0.061
-477.318	47.610	-0.207	-0.192
-476.303	-53.426	0.279	0.127
-475.289	141.507	-0.140	0.185
-474.274	800.000	-0.112	-0.343
-473.259	4.763	0.173	0.126
-472.245	-200.000	0.005	0.056
-471.230	191.193	0.030	-0.045
-470.216	-200.000	-0.046	0.266
-469.201	-56.405	0.115	-0.051
-468.186	21.427	0.133	0.107
-467.172	186.553	-0.009	0.014
-466.157	-69.172	-0.253	0.097
-465.143	266.092	0.057	0.100
-464.128	8.553	-0.230	-0.172
-463.113	260.681	-0.296	-0.509
-462.099	-133.354	0.328	-0.041
-461.084	231.680	0.025	0.041
-460.070	-200.000	-0.034	-0.300
-459.055	17.798	-0.257	-0.203
-458.040	384.362	-0.104	-0.212
-457.026	-200.000	0.019	0.273
-456.011	255.782	-0.098	0.167
-454.997	-3.119	0.223	-0.155
-453.982	-30.638	0.170	0.095
-452.968	613.749	-0.044	-0.110
-451.953	-200.000	-0.008	-0.475
-450.938	-91.686	0.045	-0.013
-449.924	-20.502	-0.247	0.151
-448.909	126.216	0.136	0.171
-447.895	45.231	-0.084	0.077
-446.880	-13.924	-0.113	-0.073
-445.865	-30.173	0.187	-0.105
-444.851	217.601	-0.113	-0.178
-443.836	456.969	-0.136	-0.299
-442.822	-85.316	0.234	0.072
-441.807	-200.000	0.005	-0.162
-440.792	800.000	-0.027	0.113
-439.778	-73.334	0.143	0.052
-438.763	629.502	-0.073	0.183
-437.749	-13.524	0.060	0.039
-436.734	-1.513	-0.097	0.068
-435.719	22.624	0.165	0.134
-434.705	-157.135	-0.128	-0.008
-433.690	120.090	0.025	-0.031
-432.676	54.688	-0.190	0.182
-431.661	536.209	0.109	-0.257
-430.646	376.181	0.156	-0.315
-429.632	125.325	0.228	-0.285
-428.617	-200.000	-0.004	0.088
-427.603	-129.136	-0.135	-0.019
-426.588	24.156	-0.273	-0.224
-425.573	74.354	-0.099	-0.103
-424.559	0.232	0.273	-0.193
-423.544	-11.319	0.046	0.030
-422.530	800.000	-0.037	-0.135
-421.515	690.897	0.118	0.306
-420.500	-200.000	-0.000	-0.013
-419.486	-200.000	0.025	0.163
-418.471	52.801	-0.195	0.185
-417.457	800.000	0.021	-0.059
-416.442	-56.376	-0.293	-0.129
-415.428	-47.079	0.162	0.078
-414.413	260.171	-0.065	0.111
-413.398	45.239	0.027	0.025
-412.384	-200.000	0.002	0.287
-411.369	-200.000	-0.035	0.196
-410.355	800.000	-0.021	-0.068
-409.340	-200.000	-0.001	0.030
-408.325	-29.441	-0.037	0.021
-407.311	11.561	0.243	0.185
-406.296	215.276	0.044	0.069
-405.282	383.621	-0.035	0.071
-404.267	800.000	-0.033	0.102
-403.252	-56.986	0.150	0.066
-402.238	170.715	-0.240	0.341
-401.223	-104.564	-0.374	0.086
-400.209	-75.537	0.221	0.078
-399.194	7.539	-0.181	-0.134
-398.179	366.885	-0.115	-0.229
-397.165	-200.000	-0.021	0.125
-396.150	-119.545	0.213	-0.037
-395.136	-49.328	-0.189	-0.089
-394.121	-130.488	-0.129	-0.017
-393.106	800.000	-0.119	-0.339
-392.092	-98.946	0.379	-0.095
-391.077	23.316	-0.111	0.090
-390.063	800.000	-0.103	-0.393
-389.048	-44.648	-0.094	-0.047
-388.033	-30.429	-0.220	0.123
-387.019	800.000	-0.015	-0.043
-386.004	142.841	-0.048	-0.063
-384.990	800.000	0.052	-0.159
-383.975	217.002	-0.138	-0.218
-382.960	-66.696	0.140	0.055
-381.946	-200.000	-0.029	0.395
-380.931	-64.316	-0.147	-0.059
-379.917	-146.068	-0.248	-0.022
-378.902	-31.612	-0.109	-0.061
-377.888	322.861	0.049	-0.093
-376.873	-200.000	-0.047	0.213
-375.858	-141.917	-0.376	0.037
-374.844	-200.000	-0.041	0.287
-373.829	-19.984	-0.078	0.048
-372.815	-45.674	0.346	-0.169
-371.800	-151.510	0.052	0.004
-370.785	183.127	-0.079	0.116
-369.771	800.000	0.103	-0.317
-368.756	-100.548	0.407	0.100
-367.742	289.145	0.158	0.283
-366.727	305.261	-0.079	0.145
-365.712	-85.028	0.195	-0.061
-364.698	-97.717	-0.266	0.068
-363.683	42.671	-0.358	-0.323
-362.669	97.948	0.190	-0.217
-361.654	-200.000	0.030	-0.217
-360.639	-200.000	-0.015	-0.376
-359.625	96.887	0.173	0.196
-358.610	82.753	0.178	-0.191
-357.596	-160.440	0.432	0.023
-356.581	-153.624	0.289	0.020
-355.566	-81.697	-0.136	-0.044
-354.552	-200.000	-0.071	0.334
-353.537	-200.000	0.061	-0.359
-352.523	315.215	-0.065	-0.122
-351.508	262.474	-0.077	-0.132
-350.493	123.406	-0.049	-0.061
-349.479	342.186	0.109	-0.210
-348.464	-200.000	0.019	-0.178
-347.450	800.000	0.104	0.399
-346.435	-73.284	-0.279	0.101
-345.420	-56.578	0.080	0.035
-344.406	139.110	-0.134	0.174
-343.391	-20.917	-0.233	-0.141
-342.377	-58.091	0.147	-0.063
-341.362	33.788	0.298	0.256
-340.348	-53.689	0.106	-0.048
-339.333	800.000	-0.004	-0.018
-338.318	-200.000	0.041	0.179
-337.304	16.908	0.071	-0.056
-336.289	800.000	-0.042	-0.172
-335.275	800.000	-0.105	-0.427
-334.260	25.438	0.144	0.118
-333.245	139.578	0.182	-0.237
-332.231	-93.785	0.335	-0.091
-331.216	-18.829	0.464	-0.286
-330.202	-55.334	-0.192	0.085
-329.187	141.713	0.025	-0.033
-328.172	-84.248	-0.325	0.102
-327.158	-200.000	0.019	0.272
-326.143	-77.142	0.283	-0.097
-325.129	-200.000	-0.008	0.135
-324.114	-81.340	-0.220	0.072
-323.099	707.328	0.080	0.209
-322.085	151.613	0.110	-0.148
-321.070	-200.000	0.008	-0.240
-320.056	-27.664	-0.209	-0.120
-319.041	-200.000	0.073	-0.380
-318.026	383.815	0.107	0.217
-317.012	74.324	-0.025	0.026
-315.997	-200.000	-0.014	-0.172
-314.983	88.727	0.122	0.134
-313.968	6.200	-0.377	0.276
-312.953	375.365	0.061	-0.123
-311.939	669.449	0.100	-0.255
-310.924	781.354	-0.108	0.293
-309.910	28.588	-0.037	-0.031
-308.895	762.098	-0.068	-0.183
-307.880	-117.586	-0.173	-0.031
-306.866	95.451	-0.158	0.178
-305.851	-172.095	0.353	0.011
-304.837	-200.000	0.030	0.134
-303.822	482.984	-0.037	-0.084
-302.807	192.529	0.171	0.254
-301.793	-200.000	0.063	0.372
-300.778	-22.607	0.478	-0.286
-299.764	49.473	-0.243	-0.226
-298.749	-129.131	-0.276	-0.038
-297.735	-148.544	-0.005	0.000
-296.720	33.133	-0.040	0.034
-295.705	46.625	0.266	-0.244
-294.691	-178.301	-0.139	0.003
-293.676	-200.000	-0.055	-0.277
-292.662	-107.417	0.331	0.072
-291.647	-200.000	0.020	0.329
-290.632	800.000	-0.049	0.195
-289.618	-200.000	0.026	0.174
-288.603	418.657	0.021	0.043
-287.589	-200.000	-0.030	-0.327
-286.574	319.533	-0.093	0.174
-285.559	-200.000	0.033	0.256
-284.545	-13.005	-0.359	-0.231
-283.530	-200.000	-0.017	0.121
-282.516	10.520	0.219	0.165
-281.501	-200.000	-0.021	0.263
-280.486	800.000	-0.059	0.178
-279.472	206.481	-0.161	-0.247
-278.457	-104.735	-0.312	-0.071
-277.443	-28.099	0.048	0.027
-276.428	71.615	0.057	-0.058
-275.413	-200.000	0.020	0.138
-274.399	-72.342	0.162	0.059
-273.384	124.357	0.054	0.067
-272.370	-96.501	0.192	-0.050
-271.355	30.766	-0.088	0.075
-270.340	-200.000	0.018	-0.084
-269.326	31.462	-0.155	0.132
-268.311	-175.125	-0.156	0.004
-267.297	-200.000	-0.009	-0.090
-266.282	-7.919	0.065	-0.043
-265.267	314.257	0.089	0.165
-264.253	800.000	-0.085	0.272
-263.238	-131.728	0.382	0.049
-262.224	-165.206	0.243	-0.011
-261.209	53.940	-0.109	-0.104
-260.195	-200.000	0.026	-0.420
-259.180	-164.395	-0.102	-0.005
-258.165	-109.482	0.178	0.037
-257.151	800.000	0.043	-0.128
-256.136	800.000	0.027	0.097
-255.122	-68.493	0.148	-0.057
-254.107	466.511	-0.115	0.255
-253.092	-52.431	-0.084	0.038
-252.078	-200.000	0.001	0.085
-251.063	47.749	0.244	0.225
-250.049	-200.000	-0.070	0.313
-249.034	-85.154	-0.111	-0.034
-248.019	-146.035	0.221	0.019
-247.005	-200.000	-0.010	-0.191
-245.990	134.627	-0.148	0.189
-244.976	-200.000	-0.042	0.192
-243.961	-115.392	0.252	0.047
-242.946	416.075	-0.068	-0.144
-241.932	800.000	-0.023	-0.066
-240.917	18.286	-0.091	0.071
-239.903	0.839	0.102	0.072
-238.888	-55.212	-0.299	-0.133
-237.873	800.000	-0.091	0.376
-236.859	800.000	0.048	0.153
-235.844	150.275	0.046	0.062
-234.830	-10.135	0.113	0.074
-233.815	-163.460	0.142	0.007
-232.800	-200.000	0.023	-0.155
-231.786	-200.000	0.001	-0.272
-230.771	800.000	0.044	-0.184
-229.757	-200.000	0.005	-0.180
-228.742	-15.251	0.124	-0.078
-227.727	-157.456	-0.281	-0.017
-226.713	229.689	0.099	-0.159
-225.698	-57.285	0.078	-0.034
-224.684	800.000	-0.040	0.109
-223.669	-42.778	0.365	0.183
-222.655	257.995	-0.090	0.153
-221.640	-185.583	-0.221	-0.003
-220.625	138.485	0.134	0.173
-219.611	119.823	0.198	-0.241
-218.596	-200.000	-0.015	-0.118
-217.582	-13.019	0.155	-0.099
-216.567	-139.782	0.139	-0.015
-215.552	-200.000	0.071	0.366
-214.538	-200.000	0.006	-0.142
-213.523	-169.124	-0.111	-0.004
-212.509	-68.932	-0.071	0.027
-211.494	-165.110	0.154	-0.007
-210.479	421.259	0.099	0.210
-209.465	58.448	0.256	-0.247
-208.450	90.685	0.215	-0.237
-207.436	-33.177	-0.143	0.078
-206.421	-112.894	-0.171	0.033
-205.406	-27.844	-0.229	0.131
-204.392	-169.167	-0.438	0.016
-203.377	-200.000	0.033	-0.264
-202.363	-200.000	-0.042	-0.290
-201.348	800.000	0.050	0.138
-200.333	115.012	0.204	-0.245
-199.319	412.628	-0.115	0.240
-198.304	-18.905	-0.263	-0.161
-197.290	800.000	0.103	-0.425
-196.275	-96.181	0.353	-0.092
-195.260	800.000	-0.041	0.172
-194.246	-123.172	0.172	0.027
-193.231	204.177	0.095	-0.145
-192.217	71.295	-0.163	0.166
-191.202	800.000	0.057	-0.179
-190.187	126.014	0.046	-0.057
-189.173	-200.000	0.002	-0.077
-188.158	512.904	0.053	-0.121
-187.144	626.745	0.012	-0.029
-186.129	800.000	-0.030	0.121
-185.114	155.173	0.101	-0.136
-184.100	58.595	0.160	0.155
-183.085	800.000	-0.108	0.429
-182.071	-72.085	0.276	0.101
-181.056	174.165	-0.192	0.272
-180.042	-90.455	0.333	0.095
-179.027	374.710	0.187	-0.374
-178.012	-170.903	-0.256	-0.009
-176.998	118.999	0.186	-0.226
-175.983	-200.000	0.007	0.274
-174.969	74.492	-0.361	-0.373
-173.954	-200.000	-0.002	-0.178
-172.939	140.833	-0.124	0.161
-171.925	-185.681	-0.129	0.002
-170.910	32.680	-0.088	0.074
-169.896	185.599	-0.166	-0.243
-168.881	-133.584	0.385	-0.047
-167.866	45.793	-0.281	-0.255
-166.852	-200.000	0.000	0.205
-165.837	9.881	-0.104	-0.078
-164.823	426.331	-0.122	-0.258
-163.808	780.176	-0.053	0.141
-162.793	-102.917	-0.319	-0.074
-161.779	-8.049	-0.206	-0.136
-160.764	156.321	0.141	-0.191
-159.750	324.448	0.032	-0.060
-158.735	-182.879	0.187	-0.003
-157.720	170.228	0.115	0.161
-156.706	4.049	0.064	-0.046
-155.691	342.805	0.084	-0.161
-154.677	-138.271	0.396	-0.043
-153.662	-92.505	0.196	0.054
-152.647	-170.252	0.106	0.004
-151.633	-200.000	-0.004	-0.148
-150.618	-132.617	0.299	-0.038
-149.604	357.980	-0.152	0.299
-148.589	-153.994	0.289	-0.019
-147.574	61.846	-0.119	0.117
-146.560	-17.330	0.276	-0.170
-145.545	-30.500	0.139	-0.077
-144.531	-132.258	0.147	-0.019
-143.516	9.435	-0.237	-0.176
-142.502	13.611	0.058	0.044
-141.487	-200.000	-0.012	-0.079
-140.472	-81.455	-0.189	0.061
-139.458	156.575	0.181	0.245
-138.443	-200.000	0.018	0.247
-137.429	107.366	0.151	-0.176
-136.414	-200.000	0.037	0.291
-135.399	800.000	-0.066	0.238
-134.385	74.812	0.095	0.098
-133.370	800.000	-0.148	-0.412
-132.356	132.232	-0.154	0.194
-131.341	-200.000	0.008	0.036
-130.326	56.960	0.012	-0.011
-129.312	213.738	0.046	-0.072
-128.297	-27.393	-0.075	-0.043
-127.283	310.579	-0.053	0.097
-126.268	-18.538	-0.403	-0.247
-125.253	-34.393	0.151	-0.081
-124.239	-58.662	-0.103	0.044
-123.224	-5.706	-0.184	-0.124
-122.210	-183.995	0.367	0.006
-121.195	800.000	-0.165	0.480
-120.180	-34.944	-0.068	0.036
-119.166	132.778	-0.085	-0.108
-118.151	59.642	0.011	-0.011
-117.137	435.200	-0.077	-0.165
-116.122	-47.873	0.330	-0.156
-115.107	291.998	-0.284	0.508
-114.093	68.380	0.219	0.220
-113.078	703.175	-0.152	0.393
-112.064	556.307	-0.164	0.386
-111.049	-86.217	-0.214	-0.065
-110.034	-200.000	-0.060	0.274
-109.020	-152.692	-0.495	0.035
-108.005	587.758	0.048	0.115
-106.991	600.063	0.135	-0.328
-105.976	800.000	-0.074	0.202
-104.962	-131.433	-0.142	0.018
-103.947	-32.127	-0.081	0.044
-102.932	-49.280	0.200	-0.093
-101.918	-24.609	-0.160	-0.093
-100.903	18.676	0.135	0.106
-99.889	244.403	-0.109	0.179
-98.874	-140.693	-0.067	0.007
-97.859	-86.438	-0.358	0.108
-96.845	381.962	0.069	0.140
-95.830	800.000	0.008	-0.026
-94.816	-200.000	0.005	0.156
-93.801	2.604	0.142	0.101
-92.786	-39.668	0.426	-0.218
-91.772	169.436	0.152	0.213
-90.757	-137.711	0.217	-0.024
-89.743	-79.434	0.297	0.098
-88.728	-200.000	0.002	-0.304
-87.713	800.000	-0.069	0.234
-86.699	174.786	-0.075	0.107
-85.684	800.000	0.027	0.074
-84.670	177.530	-0.212	0.303
-83.655	-144.774	0.080	-0.007
-82.640	320.430	-0.121	-0.224
-81.626	278.039	0.121	0.211
-80.611	139.177	-0.101	0.130
-79.597	-200.000	-0.003	0.024
-78.582	-200.000	-0.036	0.349
-77.567	-200.000	0.035	-0.152
-76.553	-84.382	0.052	0.016
-75.538	420.291	0.065	-0.137
-74.524	84.136	-0.157	-0.168
-73.509	-116.304	-0.100	-0.018
-72.494	56.336	-0.096	0.092
-71.480	-200.000	0.090	0.406
-70.465	-125.830	0.137	-0.020
-69.451	-200.000	-0.226	-0.000
-68.436	34.421	-0.215	-0.184
-67.422	-200.000	-0.006	0.114
-66.407	-200.000	0.011	-0.176
-65.392	-200.000	0.023	0.263
-64.378	800.000	-0.040	-0.121
-63.363	-200.000	-0.042	0.199
-62.349	31.293	-0.076	-0.064
-61.334	101.521	-0.917	-1.045
-60.319	-44.192	0.740	0.363
-59.305	-200.000	-0.250	-1.289
-58.290	368.581	0.706	1.396
-57.276	800.000	0.461	1.766
-56.261	-200.000	114.830	646.855
-55.246	473.987	1507.635	3326.036
-54.232	146.945	2680.367	3525.798
-53.217	96.758	2286.780	2562.538
-52.203	36.290	1896.699	1635.242
-51.188	30.371	1687.708	1410.209
-50.173	27.923	1646.420	1357.484
-49.159	49.560	1701.680	1566.922
-48.144	48.104	1715.608	1568.719
-47.130	30.020	1673.959	1395.850
-46.115	27.339	1659.477	1363.662
-45.100	27.165	1654.941	1358.576
-44.086	27.088	1652.181	1355.681
-43.071	27.031	1650.177	1353.560
-42.057	26.978	1647.678	1351.061
-41.042	27.118	1645.126	1349.960
-40.027	27.183	1643.744	1349.253
-39.013	27.061	1641.481	1346.437
-37.998	26.991	1640.284	1344.886
-36.984	27.022	1638.858	1343.888
-35.969	27.075	1637.317	1342.969
-34.954	27.240	1635.475	1342.616
-33.940	27.118	1634.074	1340.513
-32.925	27.269	1631.868	1339.767
-31.911	27.262	1630.372	1338.435
-30.896	27.202	1628.677	1336.546
-29.881	27.160	1627.373	1335.112
-28.867	27.214	1625.633	1334.028
-27.852	27.142	1624.493	1332.517
-26.838	27.135	1622.374	1330.674
-25.823	27.183	1621.323	1330.106
-24.809	27.261	1619.787	1329.366
-23.794	27.167	1618.686	1327.726
-22.779	27.184	1617.053	1326.456
-21.765	27.204	1615.553	1325.314
-20.750	27.161	1613.774	1323.491
-19.736	27.193	1612.315	1322.477
-18.721	27.280	1610.858	1321.860
-17.706	27.224	1609.360	1320.172
-16.692	27.200	1608.244	1319.032
-15.677	27.249	1606.433	1317.848
-14.663	27.218	1605.618	1316.904
-13.648	27.234	1603.927	1315.580
-12.633	27.234	1602.512	1314.371
-11.619	27.167	1601.057	1312.635
-10.604	27.214	1599.641	1311.763
-9.590	27.263	1598.334	1310.996
-8.575	27.307	1596.800	1310.000
-7.560	27.275	1595.631	1308.759
-6.546	27.230	1594.707	1307.627
-5.531	27.267	1593.450	1306.811
-4.517	27.158	1592.346	1305.068
-3.502	27.223	1591.045	1304.414
-2.487	27.317	1589.624	1303.872
-1.473	26.910	1578.212	1291.566
-0.458	24.115	1558.794	1255.941
0.556	18.624	1560.643	1223.652
1.571	16.276	1583.843	1224.719
2.586	15.955	1595.905	1231.585
3.600	14.634	1543.530	1181.717
4.615	8.166	1435.367	1056.098
5.629	1.537	1373.441	968.337
6.644	0.217	1365.346	954.187
7.659	0.106	1363.995	952.455
8.673	0.143	1363.268	952.093
9.688	0.004	1361.476	949.880
10.702	-0.125	1358.274	946.749
11.717	3.185	1362.871	970.775
12.731	10.828	1375.443	1028.153
13.746	16.416	1382.708	1068.939
14.761	17.034	1382.612	1072.675
15.775	16.114	1380.574	1065.193
16.790	15.193	1377.212	1056.697
17.804	14.397	1375.537	1050.301
18.819	14.028	1374.209	1046.872
19.834	13.848	1372.756	1044.542
20.848	13.569	1371.482	1041.723
21.863	13.334	1370.000	1039.031
22.877	13.160	1368.840	1036.967
23.892	13.167	1367.748	1036.089
24.907	13.114	1367.277	1035.312
25.921	13.177	1366.272	1034.852
26.936	13.176	1365.446	1034.128
27.950	13.156	1364.784	1033.410
28.965	13.254	1363.285	1032.798
29.980	13.360	1362.518	1032.784
30.994	13.422	1361.666	1032.434
32.009	13.500	1360.828	1032.192
33.023	13.464	1359.651	1030.984
34.038	13.352	1358.538	1029.357
35.053	13.314	1357.842	1028.499
36.067	13.289	1356.703	1027.393
37.082	13.262	1355.897	1026.521
38.096	13.243	1354.965	1025.606
39.111	13.399	1353.420	1025.313
40.126	13.244	1353.333	1024.199
41.140	13.179	1352.368	1022.972
42.155	13.161	1351.485	1022.103
43.169	13.146	1351.819	1022.172
44.184	13.266	1351.101	1022.283
45.199	13.252	1350.750	1021.841
46.213	13.201	1349.876	1020.776
47.228	13.262	1349.319	1020.639
48.242	13.275	1348.324	1019.878
49.257	13.300	1346.174	1018.309
50.271	13.200	1345.484	1017.087
51.286	13.303	1343.920	1016.444
52.301	13.211	1342.477	1014.699
53.315	13.191	1341.773	1013.956
54.330	13.159	1340.581	1012.768
55.344	13.182	1339.339	1011.882
56.359	13.028	1338.681	1010.350
57.374	13.165	1337.472	1010.187
58.388	13.132	1336.663	1009.286
59.403	13.062	1336.255	1008.461
60.417	13.090	1335.437	1007.924
61.432	13.128	1334.185	1007.120
62.447	13.040	1333.334	1005.853
63.461	12.920	1332.577	1004.466
64.476	13.018	1331.446	1004.121
65.490	13.003	1330.353	1003.116
66.505	13.092	1328.607	1002.248
67.520	13.109	1327.091	1001.122
68.534	13.182	1326.298	1000.877
69.549	13.086	1325.344	999.484
70.563	13.083	1324.100	998.441
71.578	13.014	1322.843	996.988
72.593	12.958	1322.132	996.028
73.607	13.059	1320.945	995.651
74.622	13.038	1320.310	994.962
75.636	12.930	1319.670	993.741
76.651	12.958	1319.398	993.613
77.666	12.938	1318.804	992.961
78.680	13.005	1318.070	992.722
79.695	13.010	1317.351	992.120
80.709	13.131	1316.163	991.865
81.724	13.049	1315.453	990.751
82.739	13.105	1314.354	990.170
83.753	13.242	1313.421	990.204
84.768	13.350	1312.069	989.745
85.782	13.338	1310.836	988.650
86.797	13.314	1309.923	987.731
87.812	13.189	1308.774	986.032
88.826	13.129	1307.780	984.837
89.841	13.212	1306.658	984.402
90.855	13.193	1305.709	983.486
91.870	13.320	1305.030	983.646
92.884	13.286	1304.048	982.613
93.899	13.363	1303.118	982.285
94.914	13.402	1302.287	981.804
95.928	13.366	1301.640	981.016
96.943	13.390	1300.399	980.137
97.957	13.364	1299.646	979.323
98.972	13.255	1298.959	978.078
99.987	13.296	1297.273	976.964
101.001	13.245	1296.707	976.148
102.016	13.236	1295.825	975.348
103.030	13.383	1294.751	975.318
104.045	13.324	1293.961	974.286
105.060	13.279	1292.472	972.820
106.074	13.199	1291.303	971.379
107.089	13.167	1289.844	970.009
108.103	13.126	1288.850	968.935
109.118	13.239	1287.513	968.508
110.133	13.146	1286.286	966.955
111.147	13.156	1284.598	965.660
112.162	13.171	1283.588	964.901
113.176	13.227	1283.012	964.708
114.191	13.299	1281.813	964.140
115.206	13.130	1281.147	962.570
116.220	13.183	1279.574	961.611
117.235	13.311	1278.130	961.187
118.249	13.252	1277.290	960.125
119.264	13.236	1276.079	959.038
120.279	13.192	1275.092	957.959
121.293	13.139	1274.359	957.014
122.308	13.197	1273.268	956.448
123.322	13.107	1272.732	955.439
124.337	13.155	1271.016	954.344
125.352	13.064	1270.085	953.031
126.366	13.178	1268.743	952.601
127.381	13.146	1267.944	951.732
128.395	13.206	1266.578	950.969
129.410	13.205	1266.053	950.486
130.424	13.101	1265.234	949.189
131.439	13.129	1264.761	948.909
132.454	13.215	1263.363	948.268
133.468	13.251	1262.383	947.654
134.483	13.204	1261.515	946.650
135.497	13.191	1260.694	945.878
136.512	13.282	1258.998	945.042
137.527	13.259	1257.684	943.839
138.541	13.230	1256.780	942.913
139.556	13.221	1255.411	941.753
140.570	13.285	1254.404	941.274
141.585	13.300	1253.019	940.241
142.600	13.350	1251.709	939.460
143.614	13.487	1250.653	939.361
144.629	13.466	1249.609	938.375
145.643	13.347	1248.863	937.056
146.658	13.307	1247.574	935.778
147.673	13.276	1246.136	934.440
148.687	13.251	1245.113	933.452
149.702	13.301	1243.780	932.651
150.716	13.320	1242.189	931.481
151.731	13.247	1241.260	930.294
152.746	13.306	1239.844	929.482
153.760	13.379	1238.598	928.872
154.775	13.334	1238.051	928.130
155.789	13.414	1236.574	927.391
156.804	13.425	1235.680	926.695
157.819	13.410	1235.154	926.140
158.833	13.487	1233.796	925.466
159.848	13.538	1232.854	924.964
160.862	13.565	1231.795	924.239
161.877	13.479	1230.632	922.806
162.892	13.373	1229.878	921.568
163.906	13.426	1228.684	920.884
164.921	13.474	1227.940	920.512
165.935	13.574	1226.686	920.045
166.950	13.513	1226.414	919.421
167.964	13.594	1225.344	918.987
168.979	13.477	1224.953	917.964
169.994	13.518	1224.058	917.441
171.008	13.622	1222.886	917.058
172.023	13.635	1222.499	916.760
173.037	13.652	1221.435	915.970
174.052	13.582	1220.656	914.920
175.067	13.599	1219.341	913.947
176.081	13.632	1218.426	913.362
177.096	13.509	1217.827	912.154
178.110	13.635	1216.575	911.828
179.125	13.687	1215.791	911.449
180.140	13.638	1214.319	909.994
181.154	13.714	1212.903	909.271
182.169	13.656	1212.051	908.235
183.183	13.709	1211.012	907.662
184.198	13.774	1209.784	907.021
185.213	13.719	1208.568	905.726
186.227	13.861	1206.927	905.189
187.242	13.819	1206.433	904.512
188.256	13.850	1205.177	903.657
189.271	13.814	1203.962	902.470
190.286	13.768	1202.932	901.368
191.300	13.623	1202.484	900.169
192.315	13.625	1201.973	899.713
193.329	13.618	1201.205	899.024
194.344	13.626	1200.865	898.734
195.359	13.743	1200.162	898.761
196.373	13.868	1199.396	898.784
197.388	13.898	1198.937	898.521
198.402	14.007	1198.114	898.415
199.417	14.003	1197.571	897.906
200.432	14.057	1196.855	897.586
201.446	14.093	1195.881	896.970
202.461	14.008	1195.327	896.014
203.475	14.031	1194.211	895.225
204.490	14.053	1192.989	894.345
205.504	13.999	1191.792	893.081
206.519	13.923	1190.832	891.871
207.534	14.002	1189.291	891.065
208.548	14.006	1188.566	890.463
209.563	14.020	1188.152	890.148
210.577	14.107	1186.549	889.334
211.592	14.063	1185.962	888.582
212.607	14.227	1185.043	888.692
213.621	14.192	1184.085	887.708
214.636	14.244	1183.018	887.103
215.650	14.136	1182.777	886.267
216.665	14.172	1181.584	885.490
217.680	14.202	1180.951	885.095
218.694	14.231	1180.214	884.620
219.709	14.236	1179.184	883.794
220.723	14.189	1178.436	882.907
221.738	14.125	1178.125	882.255
222.753	14.189	1177.273	881.881
223.767	14.332	1176.044	881.640
224.782	14.312	1175.962	881.392
225.796	14.374	1174.705	880.701
226.811	14.418	1173.735	880.130
227.826	14.509	1172.796	879.825
228.840	14.325	1172.922	878.872
229.855	14.303	1172.145	878.094
230.869	14.314	1171.231	877.393
231.884	14.374	1170.253	876.894
232.899	14.329	1169.495	876.013
233.913	14.331	1169.043	875.610
234.928	14.291	1168.388	874.830
235.942	14.409	1167.154	874.448
236.957	14.258	1166.737	873.264
237.972	14.434	1165.557	873.230
238.986	14.399	1165.094	872.622
240.001	14.382	1164.545	872.042
241.015	14.413	1163.772	871.552
242.030	14.521	1162.815	871.319
243.045	14.438	1161.904	870.130
244.059	14.455	1161.849	870.097
245.074	14.407	1160.892	869.052
246.088	14.466	1160.383	868.902
247.103	14.453	1159.020	867.739
248.117	14.572	1158.472	867.868
249.132	14.678	1157.608	867.699
250.147	14.785	1156.732	867.521
251.161	14.724	1156.427	866.897
252.176	14.803	1155.466	866.507
253.190	14.779	1154.985	865.949
254.205	14.766	1154.229	865.235
255.220	14.900	1153.898	865.605
256.234	14.888	1153.019	864.809
257.249	14.818	1152.324	863.846
258.263	14.845	1151.859	863.562
259.278	14.981	1150.915	863.481
260.293	14.947	1150.601	862.994
261.307	14.981	1149.923	862.585
262.322	15.090	1149.117	862.463
263.336	14.964	1148.903	861.581
264.351	14.986	1147.896	860.860
265.366	15.020	1147.660	860.779
266.380	15.069	1146.714	860.246
267.395	14.905	1146.222	858.959
268.409	14.976	1145.226	858.504
269.424	15.051	1144.730	858.440
270.439	14.925	1144.476	857.525
271.453	15.081	1143.368	857.418
272.468	15.083	1141.981	856.312
273.482	14.944	1141.706	855.321
274.497	15.096	1140.873	855.398
275.512	15.111	1140.356	855.010
276.526	15.127	1139.656	854.491
277.541	15.068	1139.033	853.649
278.555	15.101	1138.104	853.043
279.570	15.206	1137.243	852.858
280.585	15.167	1136.323	851.897
281.599	15.125	1135.581	851.051
282.614	15.273	1134.750	851.103
283.628	15.237	1133.121	849.621
284.643	15.193	1132.405	848.789
285.657	15.224	1132.051	848.606
286.672	15.231	1131.048	847.815
287.687	15.238	1130.086	847.053
288.701	15.350	1129.177	846.864
289.716	15.317	1128.622	846.206
290.730	15.374	1127.729	845.749
291.745	15.330	1127.098	844.978
292.760	15.438	1126.850	845.262
293.774	15.451	1125.997	844.613
294.789	15.372	1125.675	843.897
295.803	15.412	1125.095	843.588
296.818	15.481	1124.206	843.193
297.833	15.332	1123.357	841.736
298.847	15.464	1122.376	841.588
299.862	15.497	1121.612	841.106
300.876	15.499	1120.841	840.465
301.891	15.388	1120.411	839.512
302.906	15.548	1119.777	839.761
303.920	15.587	1119.060	839.346
304.935	15.511	1118.212	838.256
305.949	15.626	1117.689	838.363
306.964	15.657	1116.997	837.923
307.979	15.670	1115.857	837.060
308.993	15.676	1115.321	836.613
310.008	15.729	1114.653	836.299
311.022	15.645	1114.146	835.430
312.037	15.766	1113.177	835.232
313.052	15.705	1112.099	834.047
314.066	15.766	1110.967	833.424
315.081	15.669	1110.006	832.150
316.095	15.622	1109.695	831.612
317.110	15.674	1108.935	831.222
318.125	15.675	1108.207	830.612
319.139	15.535	1108.050	829.729
320.154	15.668	1107.017	829.534
321.168	15.725	1106.602	829.432
322.183	15.677	1105.881	828.581
323.197	15.764	1105.067	828.326
324.212	15.769	1104.448	827.818
325.227	15.666	1103.917	826.840
326.241	15.687	1103.300	826.408
327.256	15.660	1102.721	825.767
328.270	15.730	1101.796	825.344
329.285	15.843	1100.311	824.710
330.300	15.748	1099.524	823.587
331.314	15.812	1098.432	823.004
332.329	15.741	1097.774	822.093
333.343	15.834	1096.931	821.843
334.358	15.765	1096.666	821.237
335.373	15.992	1095.248	821.210
336.387	15.973	1094.731	820.652
337.402	15.915	1093.933	819.702
338.416	15.982	1093.385	819.545
339.431	16.013	1093.059	819.376
340.446	16.108	1092.285	819.186
341.460	16.072	1091.527	818.371
342.475	16.005	1090.695	817.351
343.489	15.978	1089.908	816.559
344.504	16.168	1089.019	816.738
345.519	16.235	1087.824	816.093
346.533	16.253	1087.131	815.588
347.548	16.235	1086.447	814.918
348.562	16.221	1085.777	814.274
349.577	16.247	1084.978	813.727
350.592	16.168	1084.330	812.791
351.606	16.107	1083.690	811.944
352.621	16.099	1082.955	811.282
353.635	16.180	1081.981	810.872
354.650	16.168	1081.769	810.587
355.665	16.210	1080.889	810.054
356.679	16.325	1079.927	809.813
357.694	16.207	1079.623	808.946
358.708	16.309	1079.061	808.946
359.723	16.301	1078.270	808.241
360.738	16.326	1077.733	807.886
361.752	16.350	1077.056	807.424
362.767	16.414	1076.831	807.490
363.781	16.335	1076.191	806.560
364.796	16.394	1075.686	806.389
365.810	16.398	1075.113	805.909
366.825	16.438	1074.375	805.475
367.840	16.515	1073.916	805.428
368.854	16.620	1073.095	805.241
369.869	16.540	1072.229	804.137
370.883	16.588	1071.187	803.513
371.898	16.482	1070.762	802.621
372.913	16.564	1070.092	802.438
373.927	16.629	1069.660	802.352
374.942	16.580	1069.101	801.626
375.956	16.469	1068.774	800.786
376.971	16.725	1067.715	801.131
377.986	16.680	1067.391	800.605
379.000	16.659	1066.868	800.041
380.015	16.805	1065.935	799.964
381.029	16.831	1065.517	799.700
382.044	16.798	1065.058	799.130
383.059	16.663	1063.861	797.522
384.073	16.826	1063.221	797.743
385.088	16.790	1062.360	796.854
386.102	16.798	1061.291	796.018
387.117	16.817	1060.844	795.706
388.132	16.786	1059.702	794.629
389.146	16.705	1059.005	793.661
390.161	16.795	1058.281	793.470
391.175	16.841	1057.429	792.974
392.190	16.823	1056.815	792.360
393.205	16.891	1055.934	791.946
394.219	16.891	1055.264	791.373
395.234	16.863	1054.320	790.465
396.248	16.890	1053.286	789.746
397.263	16.755	1052.574	788.514
398.278	16.923	1051.829	788.670
399.292	16.728	1051.182	787.206
400.307	16.803	1050.638	787.077
401.321	16.806	1050.164	786.664
402.336	16.854	1048.965	785.920
403.350	16.864	1048.435	785.499
404.365	16.825	1048.042	784.957
405.380	16.896	1047.268	784.638
406.394	16.895	1046.406	783.914
407.409	17.129	1045.079	783.934
408.423	17.221	1044.647	783.966
409.438	17.168	1043.855	783.055
410.453	17.124	1043.666	782.642
411.467	17.129	1042.943	782.056
412.482	17.294	1042.081	782.097
413.496	17.201	1041.415	781.102
414.511	17.055	1041.300	780.274
415.526	17.288	1041.010	781.056
416.540	17.367	1040.136	780.696
417.555	17.179	1039.839	779.543
418.569	17.231	1038.968	779.056
419.584	17.243	1038.732	778.867
420.599	17.376	1038.376	779.140
421.613	105.231	1325.111	1478.107
422.628	96.533	1366.834	1478.190
