DTS Sentinel unit serial number:	SN413079Multiplexer serial number:	ORYXHardware model number:	OX4-SRSoftware version number:	ORYX F/W v4.00 Oryx Data Collector v3.7.2.0data status	okinstallation	princeton_trtdifferential loss correction	single-endedforward channel	channel 2reverse channel	N/Adate	2019/09/16time	00:43:35forward acquisition time	60.00reverse acquisition time	0.00gamma	496.2192k internal	0.2337k external	0.2337temperature offset calibration	0.9962default loss term (dB/km)	0.3790temperature slope calibration	1.0000multiplexer offset coefficient	1.0000multiplexer slope coefficient	1.0000fibre end	0.00T internal ref (°C)	27.44T ext. ref 1 (°C)	9.64T ext. ref 2 (°C)	21.44length (m)	temperature (°C)	Stokes	anti-Stokes-747.200	-88.963	0.304	-0.091
-746.185	-200.000	-0.028	0.160
-745.171	-55.248	0.288	0.130
-744.156	-200.000	0.019	0.153
-743.142	-90.049	0.289	0.085
-742.127	273.613	-0.084	0.149
-741.112	-131.626	-0.183	-0.024
-740.098	62.493	-0.332	0.333
-739.083	-181.794	0.079	-0.002
-738.069	-78.397	-0.199	0.069
-737.054	444.106	0.063	0.139
-736.039	-77.608	-0.602	0.209
-735.025	-200.000	0.010	0.192
-734.010	-162.322	0.191	-0.010
-732.996	-195.471	-0.615	0.005
-731.981	-98.041	-0.156	-0.040
-730.966	-34.464	0.114	0.063
-729.952	800.000	0.068	0.228
-728.937	185.198	-0.166	0.247
-727.923	-200.000	0.007	0.272
-726.908	200.247	-0.065	0.099
-725.894	374.690	0.039	0.081
-724.879	-200.000	-0.025	0.278
-723.864	-200.000	0.038	0.317
-722.850	800.000	0.088	0.313
-721.835	-122.604	-0.387	-0.063
-720.821	-88.230	-0.333	0.100
-719.806	-49.289	0.166	-0.079
-718.791	800.000	0.083	-0.362
-717.777	-200.000	0.000	-0.310
-716.762	-136.986	-0.117	-0.013
-715.748	-188.893	0.104	0.001
-714.733	-23.698	-0.236	-0.142
-713.718	-48.528	-0.241	0.116
-712.704	-55.897	0.122	-0.055
-711.689	-24.967	-0.091	0.054
-710.675	25.967	-0.086	0.072
-709.660	147.907	0.068	-0.091
-708.645	-74.755	0.157	-0.056
-707.631	-200.000	0.008	0.058
-706.616	511.513	0.155	0.361
-705.602	328.413	-0.077	0.147
-704.587	-119.217	0.039	-0.007
-703.572	-79.407	0.227	0.077
-702.558	21.282	-0.058	-0.047
-701.543	7.481	-0.087	-0.065
-700.529	2.994	0.262	-0.191
-699.514	-200.000	0.028	0.331
-698.499	-31.736	0.253	0.142
-697.485	-92.017	0.220	0.063
-696.470	-200.000	0.030	-0.148
-695.456	463.087	-0.158	0.353
-694.441	201.086	-0.139	-0.215
-693.426	800.000	0.077	-0.220
-692.412	-78.729	-0.164	0.056
-691.397	800.000	0.024	-0.081
-690.383	296.638	0.084	-0.155
-689.368	-140.205	-0.368	-0.039
-688.354	800.000	0.116	0.357
-687.339	-200.000	0.024	0.110
-686.324	-24.713	-0.054	0.032
-685.310	333.588	0.162	0.313
-684.295	18.490	-0.184	-0.147
-683.281	-92.542	-0.210	-0.059
-682.266	28.961	-0.162	-0.138
-681.251	-102.356	-0.073	-0.017
-680.237	-71.251	0.194	-0.073
-679.222	25.792	0.145	0.121
-678.208	61.238	-0.435	-0.433
-677.193	377.441	-0.078	-0.159
-676.178	-34.145	0.016	0.009
-675.164	-151.321	0.271	0.020
-674.149	32.144	0.275	0.238
-673.135	-94.047	-0.406	-0.111
-672.120	-200.000	-0.009	-0.233
-671.105	-75.243	-0.238	-0.085
-670.091	-152.360	-0.221	-0.016
-669.076	13.378	0.179	0.139
-668.062	101.292	0.161	0.188
-667.047	658.730	-0.049	0.126
-666.032	-91.156	-0.201	0.058
-665.018	800.000	0.056	-0.171
-664.003	165.099	0.261	-0.369
-662.989	-115.748	-0.086	0.016
-661.974	-72.361	0.203	-0.075
-660.959	-200.000	0.012	0.103
-659.945	256.662	-0.111	-0.191
-658.930	-92.835	0.175	0.049
-657.916	800.000	-0.030	0.084
-656.901	92.681	-0.116	-0.131
-655.886	-90.014	-0.300	-0.088
-654.872	146.102	-0.117	-0.157
-653.857	800.000	0.067	-0.212
-652.843	800.000	0.027	-0.115
-651.828	-200.000	0.081	0.468
-650.814	-200.000	0.012	-0.078
-649.799	263.655	-0.173	-0.302
-648.784	-126.701	-0.133	-0.020
-647.770	7.382	-0.060	-0.045
-646.755	-200.000	0.016	-0.083
-645.741	239.026	-0.141	0.234
-644.726	69.192	0.060	-0.062
-643.711	-27.422	-0.204	-0.119
-642.697	38.029	-0.109	-0.097
-641.682	-200.000	-0.012	0.070
-640.668	-118.265	0.416	0.074
-639.653	-39.368	-0.176	0.092
-638.638	533.316	0.054	-0.127
-637.624	-200.000	0.018	-0.226
-636.609	-116.681	0.167	-0.031
-635.595	800.000	-0.066	0.195
-634.580	-153.467	0.294	0.020
-633.565	588.517	-0.088	-0.216
-632.551	238.650	0.067	-0.111
-631.536	-120.182	0.337	0.058
-630.522	-64.983	0.454	0.183
-629.507	-77.720	-0.330	-0.114
-628.492	-126.897	0.228	0.034
-627.478	44.667	0.259	-0.238
-626.463	-101.241	0.116	-0.028
-625.449	548.797	-0.196	-0.469
-624.434	326.799	-0.111	0.212
-623.419	517.116	-0.094	-0.220
-622.405	-26.161	-0.045	0.026
-621.390	-200.000	0.000	0.016
-620.376	-200.000	-0.040	-0.215
-619.361	-21.618	-0.070	0.043
-618.346	-132.402	-0.219	-0.028
-617.332	59.141	-0.239	-0.235
-616.317	180.253	0.119	-0.175
-615.303	639.325	0.040	-0.103
-614.288	-133.812	-0.120	-0.015
-613.273	309.280	-0.172	0.322
-612.259	-107.602	0.113	-0.025
-611.244	-200.000	-0.005	-0.191
-610.230	-151.016	0.103	-0.008
-609.215	14.928	-0.123	0.096
-608.201	-53.532	0.237	0.108
-607.186	185.700	-0.068	-0.101
-606.171	-200.000	-0.089	-0.419
-605.157	428.473	0.095	0.206
-604.142	111.811	0.067	-0.080
-603.128	399.014	-0.104	-0.218
-602.113	228.258	-0.041	0.067
-601.098	189.022	0.029	-0.043
-600.084	-12.184	0.277	-0.181
-599.069	76.215	0.124	-0.131
-598.055	-43.608	0.145	-0.073
-597.040	-182.166	0.193	-0.004
-596.025	-200.000	0.002	0.122
-595.011	-93.729	-0.308	-0.085
-593.996	-96.548	-0.156	0.041
-592.982	-20.512	-0.092	0.057
-591.967	800.000	-0.085	-0.294
-590.952	-200.000	0.037	-0.401
-589.938	-27.801	0.132	0.076
-588.923	-47.566	-0.099	-0.048
-587.909	800.000	-0.012	0.034
-586.894	-200.000	0.043	0.231
-585.879	223.477	-0.161	-0.259
-584.865	719.081	-0.020	0.054
-583.850	99.067	0.097	-0.111
-582.836	298.064	0.040	0.074
-581.821	649.364	0.090	-0.230
-580.806	-200.000	0.037	0.404
-579.792	495.736	-0.109	0.249
-578.777	-79.769	-0.309	0.104
-577.763	-200.000	0.019	0.287
-576.748	23.198	-0.175	0.143
-575.733	-200.000	0.011	-0.388
-574.719	-145.427	-0.261	-0.023
-573.704	217.119	-0.079	-0.125
-572.690	165.774	-0.102	0.143
-571.675	-62.889	0.101	0.042
-570.661	-200.000	0.062	0.270
-569.646	-45.918	-0.084	0.041
-568.631	-200.000	-0.033	0.243
-567.617	-118.613	-0.480	0.085
-566.602	105.666	0.155	-0.183
-565.588	-200.000	-0.028	-0.346
-564.573	346.959	-0.099	-0.194
-563.558	50.150	-0.113	-0.106
-562.544	42.936	-0.141	0.128
-561.529	-200.000	-0.020	0.201
-560.515	-200.000	0.023	0.331
-559.500	144.693	0.116	0.154
-558.485	-10.654	0.332	-0.219
-557.471	-123.205	-0.081	-0.013
-556.456	120.641	0.243	0.301
-555.442	-200.000	-0.031	0.178
-554.427	403.523	0.085	0.179
-553.412	767.429	0.066	-0.180
-552.398	800.000	0.070	-0.241
-551.383	65.504	-0.111	0.112
-550.369	-100.670	-0.209	0.051
-549.354	800.000	0.145	0.403
-548.339	-78.996	-0.477	0.162
-547.325	201.677	-0.075	-0.115
-546.310	-16.097	0.173	-0.110
-545.296	197.675	0.107	-0.162
-544.281	-43.649	-0.326	0.164
-543.266	-71.606	0.111	-0.041
-542.252	800.000	0.034	-0.144
-541.237	-56.705	-0.330	-0.145
-540.223	25.833	0.071	-0.059
-539.208	-102.622	-0.122	-0.029
-538.193	-200.000	-0.011	0.049
-537.179	-79.284	0.267	-0.090
-536.164	800.000	0.112	0.359
-535.150	800.000	-0.026	-0.083
-534.135	24.660	0.060	-0.049
-533.121	146.273	-0.022	0.029
-532.106	-200.000	0.011	0.127
-531.091	800.000	0.049	-0.170
-530.077	-167.800	-0.126	-0.005
-529.062	-147.674	0.253	-0.021
-528.048	800.000	0.095	0.397
-527.033	94.753	-0.230	0.261
-526.018	-200.000	0.067	0.331
-525.004	-200.000	0.027	0.344
-523.989	-40.996	0.203	0.104
-522.975	-200.000	0.004	-0.282
-521.960	122.059	0.102	0.127
-520.945	-76.681	-0.157	-0.055
-519.931	-200.000	-0.002	0.250
-518.916	-73.264	-0.210	-0.076
-517.902	212.539	0.082	0.128
-516.887	52.718	0.147	0.139
-515.872	39.788	-0.190	-0.169
-514.858	-28.795	-0.215	-0.123
-513.843	145.009	0.222	-0.296
-512.829	707.947	-0.089	-0.235
-511.814	-111.429	-0.255	0.052
-510.799	93.296	0.166	-0.187
-509.785	-131.113	0.319	0.042
-508.770	337.175	0.219	0.423
-507.756	-120.001	0.241	0.041
-506.741	755.890	0.109	-0.293
-505.726	-141.415	-0.074	-0.007
-504.712	447.657	0.104	0.227
-503.697	-171.343	0.212	0.007
-502.683	-10.422	0.088	0.058
-501.668	85.462	-0.195	0.213
-500.653	236.252	-0.030	-0.049
-499.639	-124.749	-0.230	-0.035
-498.624	190.753	0.057	0.085
-497.610	-142.964	0.222	-0.021
-496.595	85.557	-0.039	-0.043
-495.581	-200.000	0.039	0.345
-494.566	576.150	-0.137	0.332
-493.551	800.000	0.047	-0.191
-492.537	27.531	-0.397	-0.332
-491.522	-200.000	0.086	-0.412
-490.508	33.919	-0.148	0.128
-489.493	-0.848	0.169	0.119
-488.478	76.045	0.142	0.150
-487.464	-200.000	-0.002	0.219
-486.449	148.436	0.025	-0.034
-485.435	-184.829	0.312	-0.005
-484.420	-42.566	-0.060	0.030
-483.405	-26.517	-0.252	-0.147
-482.391	-68.440	-0.139	0.054
-481.376	-182.340	-0.287	0.005
-480.362	-94.219	-0.177	-0.048
-479.347	204.128	0.131	0.202
-478.332	770.732	-0.105	0.285
-477.318	-200.000	-0.048	0.488
-476.303	47.605	-0.177	-0.164
-475.289	10.845	0.040	0.030
-474.274	188.097	-0.121	-0.179
-473.259	-47.602	-0.259	0.125
-472.245	-141.191	0.166	-0.017
-471.230	-87.116	0.116	0.035
-470.216	28.108	-0.115	0.096
-469.201	-29.091	0.085	0.048
-468.186	-55.270	0.138	-0.062
-467.172	74.870	0.070	-0.073
-466.157	594.829	-0.033	-0.082
-465.143	-36.452	-0.081	0.044
-464.128	29.718	0.103	0.087
-463.113	800.000	0.080	-0.250
-462.099	-24.720	-0.186	0.110
-461.084	19.791	-0.210	0.168
-460.070	57.839	-0.144	-0.140
-459.055	-106.658	0.276	0.061
-458.040	406.263	0.065	0.135
-457.026	144.048	-0.269	0.356
-456.011	-51.525	-0.342	-0.159
-454.997	800.000	0.022	0.087
-453.982	-48.323	0.273	0.130
-452.968	-103.574	0.389	0.091
-451.953	406.058	0.053	0.110
-450.938	-200.000	0.031	0.247
-449.924	800.000	0.049	-0.151
-448.909	704.678	-0.163	0.427
-447.895	-63.893	0.111	-0.045
-446.880	13.224	-0.092	-0.071
-445.865	-200.000	0.038	0.333
-444.851	30.359	0.273	0.231
-443.836	-34.269	-0.093	0.051
-442.822	-14.731	0.185	-0.118
-441.807	-63.550	-0.450	-0.184
-440.792	-48.359	0.343	-0.164
-439.778	-129.234	-0.238	0.033
-438.763	-41.948	0.339	-0.172
-437.749	800.000	-0.075	-0.217
-436.734	-104.668	-0.128	-0.029
-435.719	131.132	0.151	-0.193
-434.705	19.620	0.166	-0.132
-433.690	-93.320	0.251	0.069
-432.676	50.665	0.194	0.182
-431.661	-200.000	0.010	0.053
-430.646	-66.948	-0.360	-0.141
-429.632	-30.254	-0.258	-0.146
-428.617	772.664	0.076	0.207
-427.603	-14.212	-0.169	0.108
-426.588	59.887	0.166	0.162
-425.573	-200.000	0.040	-0.296
-424.559	212.171	-0.194	-0.303
-423.544	522.904	-0.058	0.135
-422.530	800.000	-0.073	-0.222
-421.515	-21.421	-0.032	0.020
-420.500	800.000	-0.061	0.193
-419.486	20.482	0.311	-0.250
-418.471	-31.380	0.197	0.110
-417.457	-200.000	0.012	-0.178
-416.442	-134.422	-0.384	0.047
-415.428	-91.511	0.338	-0.095
-414.413	32.747	-0.103	-0.088
-413.398	207.334	0.073	0.112
-412.384	464.177	-0.152	0.337
-411.369	0.857	-0.329	-0.234
-410.355	-200.000	0.012	-0.173
-409.340	449.023	0.052	0.114
-408.325	-40.433	-0.221	0.114
-407.311	100.465	0.141	0.162
-406.296	247.951	0.193	-0.324
-405.282	-136.980	0.330	0.037
-404.267	20.751	0.180	-0.145
-403.252	318.145	-0.095	-0.178
-402.238	-200.000	0.048	-0.218
-401.223	141.587	-0.092	-0.121
-400.209	-200.000	0.016	0.085
-399.194	-200.000	-0.048	0.224
-398.179	-121.842	-0.357	-0.058
-397.165	-7.708	0.328	-0.220
-396.150	-200.000	0.003	-0.101
-395.136	15.128	0.094	0.073
-394.121	-164.089	0.250	-0.011
-393.106	-168.785	-0.125	0.005
-392.092	136.167	-0.193	-0.249
-391.077	-160.486	-0.178	0.009
-390.063	199.860	0.091	-0.138
-389.048	-200.000	-0.112	0.556
-388.033	55.218	0.136	0.130
-387.019	-52.824	0.271	-0.124
-386.004	-200.000	0.003	-0.263
-384.990	-98.753	-0.279	-0.070
-383.975	-66.212	-0.104	-0.041
-382.960	117.971	0.094	-0.115
-381.946	-200.000	-0.018	0.183
-380.931	309.257	-0.084	0.155
-379.917	-175.587	0.079	-0.002
-378.902	800.000	-0.084	-0.242
-377.888	-36.925	0.110	-0.059
-376.873	98.442	-0.063	-0.071
-375.858	7.701	-0.102	0.075
-374.844	574.149	0.040	0.097
-373.829	-100.211	0.094	0.023
-372.815	-166.572	-0.232	-0.010
-371.800	-90.475	-0.171	0.049
-370.785	-77.978	-0.238	-0.081
-369.771	29.485	0.031	0.026
-368.756	-68.167	0.083	-0.032
-367.742	-108.210	0.376	0.080
-366.727	-135.732	0.298	-0.035
-365.712	-114.248	-0.067	0.013
-364.698	-161.401	0.431	-0.022
-363.683	-48.731	-0.324	-0.154
-362.669	796.006	0.120	0.326
-361.654	235.730	-0.107	0.176
-360.639	74.097	-0.153	0.159
-359.625	-61.517	0.377	0.157
-358.610	-85.587	0.112	0.034
-357.596	-200.000	0.006	-0.128
-356.581	104.273	-0.183	-0.213
-355.566	323.526	-0.089	-0.167
-354.552	-25.034	-0.286	-0.167
-353.537	564.555	-0.048	-0.115
-352.523	-8.802	0.074	-0.049
-351.508	-114.252	-0.127	-0.024
-350.493	76.889	0.229	0.240
-349.479	-98.287	-0.188	0.048
-348.464	-131.696	-0.238	0.031
-347.450	415.204	-0.003	0.007
-346.435	800.000	-0.091	0.346
-345.420	131.186	-0.165	0.210
-344.406	-97.625	0.268	-0.069
-343.391	-179.263	-0.117	-0.003
-342.377	34.058	-0.317	0.273
-341.362	316.783	0.122	-0.228
-340.348	40.000	0.215	-0.191
-339.333	-53.063	0.141	-0.064
-338.318	-200.000	0.027	0.143
-337.304	-200.000	0.002	0.242
-336.289	88.886	-0.095	0.104
-335.275	-200.000	0.023	0.184
-334.260	63.608	-0.029	-0.029
-333.245	67.518	0.216	0.218
-332.231	-46.325	-0.175	0.085
-331.216	800.000	-0.032	0.103
-330.202	97.813	0.131	0.149
-329.187	800.000	-0.075	-0.223
-328.172	800.000	0.113	-0.318
-327.158	-200.000	0.045	-0.355
-326.143	18.643	-0.087	-0.069
-325.129	-69.784	-0.538	-0.203
-324.114	98.723	0.260	-0.296
-323.099	252.371	0.124	-0.209
-322.085	-200.000	-0.051	0.379
-321.070	-84.020	0.426	-0.134
-320.056	84.013	-0.249	0.268
-319.041	-57.781	-0.075	0.032
-318.026	592.725	0.086	0.211
-317.012	53.576	0.303	-0.287
-315.997	800.000	-0.022	-0.093
-314.983	800.000	0.025	0.070
-313.968	-165.706	-0.169	0.007
-312.953	800.000	-0.015	-0.044
-311.939	36.203	0.186	0.162
-310.924	-126.118	-0.179	0.026
-309.910	-200.000	0.014	0.097
-308.895	-116.651	0.153	-0.028
-307.880	82.834	0.103	-0.110
-306.866	-61.821	-0.393	-0.162
-305.851	151.671	-0.036	0.049
-304.837	-160.082	0.317	0.017
-303.822	-200.000	0.012	0.104
-302.807	-91.587	-0.307	-0.086
-301.793	242.475	-0.108	0.178
-300.778	800.000	0.168	-0.522
-299.764	427.770	0.102	-0.218
-298.749	-120.503	0.296	-0.050
-297.735	-148.664	-0.132	-0.011
-296.720	800.000	0.055	-0.222
-295.705	408.817	0.166	-0.346
-294.691	-102.714	0.200	0.047
-293.676	64.595	0.235	-0.233
-292.662	205.349	-0.179	-0.275
-291.647	-65.657	0.216	0.085
-290.632	428.430	-0.025	0.054
-289.618	-81.671	0.275	0.089
-288.603	182.664	-0.030	0.043
-287.589	-55.242	-0.460	-0.204
-286.574	151.466	-0.083	-0.112
-285.559	197.605	0.113	-0.170
-284.545	-1.151	-0.116	-0.081
-283.530	148.915	-0.271	0.361
-282.516	257.138	0.276	0.468
-281.501	-100.472	-0.412	0.100
-280.486	303.832	-0.023	-0.043
-279.472	-68.411	0.169	-0.065
-278.457	44.577	-0.185	-0.167
-277.443	361.934	0.069	-0.136
-276.428	-16.949	0.304	-0.190
-275.413	2.810	0.145	0.104
-274.399	-193.446	0.058	-0.000
-273.384	28.876	-0.074	0.062
-272.370	-126.262	-0.079	0.012
-271.355	-63.357	-0.077	0.031
-270.340	62.346	0.088	-0.087
-269.326	-3.911	-0.151	-0.103
-268.311	51.973	0.030	-0.028
-267.297	575.374	0.068	-0.163
-266.282	-129.805	-0.147	0.020
-265.267	-200.000	0.037	0.216
-264.253	-116.929	-0.232	-0.042
-263.238	-101.556	-0.117	-0.028
-262.224	-99.962	-0.160	0.039
-261.209	111.258	-0.079	-0.094
-260.195	-52.600	-0.298	-0.135
-259.180	-200.000	0.012	0.110
-258.165	-170.199	-0.207	0.007
-257.151	-34.154	-0.235	-0.127
-256.136	550.865	0.054	-0.128
-255.122	166.811	0.256	-0.358
-254.107	104.936	-0.149	-0.173
-253.092	-121.034	-0.493	0.081
-252.078	-157.911	0.157	0.009
-251.063	374.417	-0.174	0.350
-250.049	-86.725	-0.357	0.107
-249.034	385.844	-0.159	-0.322
-248.019	-98.228	0.171	-0.043
-247.005	-38.502	0.335	0.174
-245.990	-200.000	0.071	-0.314
-244.976	-83.710	0.380	0.119
-243.961	800.000	-0.038	-0.130
-242.946	-200.000	-0.003	-0.140
-241.932	-22.441	-0.172	0.103
-240.917	-83.132	-0.151	-0.048
-239.903	-108.715	-0.128	0.027
-238.888	-200.000	-0.063	0.356
-237.873	-79.725	-0.175	0.058
-236.859	34.800	0.042	-0.036
-235.844	464.992	0.163	-0.358
-234.830	31.091	-0.109	-0.092
-233.815	-200.000	0.024	0.177
-232.800	-200.000	0.036	-0.162
-231.786	-6.942	0.371	-0.248
-230.771	470.698	-0.073	-0.162
-229.757	-102.357	0.172	0.041
-228.742	800.000	0.120	-0.382
-227.727	-200.000	0.020	-0.182
-226.713	-93.172	0.105	-0.029
-225.698	800.000	-0.026	-0.102
-224.684	800.000	0.103	0.347
-223.669	-73.692	0.362	-0.130
-222.655	51.318	-0.096	0.089
-221.640	730.130	0.137	-0.360
-220.625	7.007	0.052	0.038
-219.611	-61.543	0.317	-0.131
-218.596	289.837	-0.014	-0.025
-217.582	375.193	-0.094	-0.189
-216.567	288.996	-0.116	0.206
-215.552	800.000	-0.090	0.376
-214.538	-16.313	0.116	-0.072
-213.523	-200.000	-0.024	0.397
-212.509	-200.000	-0.012	-0.174
-211.494	114.812	0.252	0.302
-210.479	800.000	0.045	0.162
-209.465	800.000	0.097	0.396
-208.450	-141.076	-0.232	0.023
-207.436	800.000	0.114	-0.364
-206.421	468.306	-0.085	0.188
-205.406	57.321	-0.171	0.164
-204.392	-200.000	-0.019	-0.215
-203.377	-28.281	-0.220	0.125
-202.363	-88.498	-0.356	-0.104
-201.348	77.352	0.192	0.201
-200.333	-200.000	-0.017	0.369
-199.319	-200.000	0.013	0.119
-198.304	-200.000	-0.006	0.052
-197.290	-188.815	-0.182	0.002
-196.275	47.033	0.122	-0.111
-195.260	62.520	0.078	-0.076
-194.246	-53.555	0.295	-0.132
-193.231	138.889	0.064	-0.082
-192.217	-54.451	-0.256	0.114
-191.202	-200.000	0.202	-0.001
-190.187	800.000	0.087	0.288
-189.173	800.000	0.063	-0.185
-188.158	-43.891	-0.090	0.044
-187.144	-47.416	0.151	-0.072
-186.129	-102.975	0.226	-0.053
-185.114	-113.616	0.195	0.037
-184.100	131.624	-0.048	0.060
-183.085	-200.000	0.327	-0.001
-182.071	-37.550	0.412	0.216
-181.056	800.000	-0.107	0.307
-180.042	45.234	-0.117	-0.106
-179.027	62.230	0.159	-0.156
-178.012	-200.000	0.051	0.268
-176.998	-200.000	0.036	0.227
-175.983	197.173	0.074	-0.110
-174.969	800.000	0.013	0.043
-173.954	-200.000	-0.008	0.248
-172.939	-90.349	-0.182	0.052
-171.925	-68.396	0.143	-0.054
-170.910	-111.843	-0.165	-0.033
-169.896	-46.440	0.157	-0.076
-168.881	549.618	-0.047	0.110
-167.866	110.948	0.088	0.104
-166.852	93.862	-0.094	-0.104
-165.837	447.355	0.041	0.089
-164.823	497.421	0.134	-0.302
-163.808	55.986	-0.170	-0.162
-162.793	71.548	0.045	0.046
-161.779	-200.000	0.008	0.244
-160.764	-63.997	-0.343	0.137
-159.750	-59.683	0.233	0.098
-158.735	22.261	0.155	0.124
-157.720	-150.083	0.275	-0.021
-156.706	-44.641	-0.089	0.043
-155.691	787.014	0.052	-0.139
-154.677	-175.937	0.087	-0.002
-153.662	274.155	-0.207	0.360
-152.647	-23.316	-0.249	0.147
-151.633	-54.415	-0.356	-0.158
-150.618	-51.963	-0.124	-0.057
-149.604	-148.724	-0.440	0.035
-148.589	-200.000	-0.040	-0.237
-147.574	321.058	0.008	-0.015
-146.560	-60.766	0.195	0.081
-145.545	-12.029	-0.065	0.041
-144.531	800.000	-0.050	-0.187
-143.516	-200.000	0.018	-0.299
-142.502	471.654	-0.040	0.089
-141.487	-78.664	-0.127	-0.042
-140.472	-80.879	0.153	-0.050
-139.458	170.996	-0.031	-0.043
-138.443	108.873	-0.103	-0.120
-137.429	452.131	0.175	-0.379
-136.414	-91.257	-0.039	-0.011
-135.399	-19.115	-0.245	0.149
-134.385	-200.000	-0.068	0.341
-133.370	185.250	0.173	0.252
-132.356	-186.854	0.246	0.003
-131.341	-2.079	0.330	-0.227
-130.326	-20.729	0.161	0.097
-129.312	191.193	-0.174	-0.256
-128.297	68.808	-0.193	-0.194
-127.283	170.590	0.145	-0.203
-126.268	-128.282	-0.185	0.026
-125.253	-9.362	-0.027	-0.018
-124.239	589.375	-0.143	-0.346
-123.224	-200.000	-0.003	0.223
-122.210	273.460	0.112	0.194
-121.195	-42.098	-0.290	0.145
-120.180	-185.315	0.278	-0.004
-119.166	-17.438	0.022	-0.014
-118.151	-139.321	0.263	0.028
-117.137	-200.000	-0.004	-0.050
-116.122	-200.000	0.025	0.403
-115.107	-200.000	-0.003	0.148
-114.093	-200.000	-0.005	0.248
-113.078	6.477	-0.190	0.138
-112.064	-105.714	0.101	-0.022
-111.049	-96.950	0.295	-0.076
-110.034	-38.664	0.333	-0.172
-109.020	-200.000	0.019	0.102
-108.005	800.000	-0.100	-0.352
-106.991	-64.610	-0.265	-0.105
-105.976	-103.257	0.134	-0.031
-104.962	16.115	0.112	-0.087
-103.947	589.858	0.024	-0.058
-102.932	57.221	-0.304	0.291
-101.918	-71.903	0.188	0.068
-100.903	-37.626	-0.081	-0.042
-99.889	-103.462	-0.098	-0.023
-98.874	-141.358	-0.268	-0.027
-97.859	-125.865	-0.341	-0.050
-96.845	327.354	-0.063	0.119
-95.830	484.673	0.093	-0.208
-94.816	-141.238	-0.173	0.017
-93.801	-69.130	0.436	0.164
-92.786	800.000	-0.021	0.066
-91.772	5.602	0.155	0.112
-90.757	-104.444	0.169	0.038
-89.743	-200.000	-0.000	-0.104
-88.728	533.042	-0.166	0.385
-87.713	470.573	-0.101	-0.222
-86.699	257.816	0.191	0.321
-85.684	33.404	0.062	0.053
-84.670	8.650	-0.116	0.086
-83.655	8.622	0.113	-0.083
-82.640	201.813	0.076	0.114
-81.626	-86.487	0.329	-0.099
-80.611	499.400	-0.032	-0.073
-79.597	-183.552	0.179	-0.003
-78.582	-200.000	0.009	-0.246
-77.567	-136.632	-0.063	-0.007
-76.553	71.549	0.211	0.214
-75.538	60.465	0.254	0.246
-74.524	-200.000	0.068	-0.335
-73.509	9.140	-0.179	0.132
-72.494	-200.000	-0.010	-0.046
-71.480	-4.547	0.220	0.149
-70.465	-200.000	0.056	0.305
-69.451	307.235	0.045	-0.083
-68.436	-72.038	-0.159	0.058
-67.422	76.483	0.195	0.202
-66.407	-120.825	-0.134	0.022
-65.392	669.191	0.045	-0.114
-64.378	-200.000	0.001	0.154
-63.363	504.036	0.016	0.036
-62.349	-200.000	-0.030	0.397
-61.334	82.369	-0.926	-0.982
-60.319	116.809	0.435	0.521
-59.305	800.000	-0.355	-1.013
-58.290	231.478	0.653	1.047
-57.276	800.000	0.355	1.498
-56.261	-200.000	113.817	647.568
-55.246	484.224	1498.217	3332.063
-54.232	148.996	2667.147	3525.429
-53.217	97.687	2275.865	2556.591
-52.203	36.322	1891.623	1629.672
-51.188	30.578	1686.255	1409.297
-50.173	28.072	1644.673	1355.928
-49.159	49.279	1699.812	1561.704
-48.144	48.258	1714.224	1567.198
-47.130	30.214	1672.459	1394.805
-46.115	27.524	1658.531	1363.043
-45.100	27.297	1653.962	1357.539
-44.086	27.271	1651.435	1355.219
-43.071	27.325	1648.676	1353.299
-42.057	27.220	1646.576	1350.745
-41.042	27.350	1644.594	1350.029
-40.027	27.359	1642.197	1348.072
-39.013	27.280	1640.348	1345.917
-37.998	27.290	1638.806	1344.670
-36.984	27.342	1637.751	1344.138
-35.969	27.440	1636.315	1343.632
-34.954	27.483	1634.553	1342.447
-33.940	27.336	1633.477	1340.425
-32.925	27.364	1631.308	1338.802
-31.911	27.469	1629.100	1337.702
-30.896	27.410	1627.481	1335.888
-29.881	27.487	1625.424	1334.716
-28.867	27.449	1624.782	1333.853
-27.852	27.426	1622.854	1332.052
-26.838	27.283	1622.100	1330.332
-25.823	27.425	1620.336	1329.872
-24.809	27.477	1619.135	1329.210
-23.794	27.471	1617.221	1327.541
-22.779	27.345	1616.191	1325.727
-21.765	27.469	1614.527	1325.211
-20.750	27.422	1612.732	1323.343
-19.736	27.435	1611.226	1322.152
-18.721	27.524	1610.062	1321.791
-17.706	27.451	1609.092	1320.413
-16.692	27.450	1607.471	1319.021
-15.677	27.511	1605.568	1317.852
-14.663	27.476	1604.482	1316.650
-13.648	27.517	1603.112	1315.775
-12.633	27.550	1601.457	1314.597
-11.619	27.485	1600.076	1312.944
-10.604	27.510	1598.167	1311.510
-9.590	27.417	1597.250	1310.035
-8.575	27.565	1595.642	1309.728
-7.560	27.609	1594.152	1308.765
-6.546	27.499	1594.009	1307.805
-5.531	27.441	1592.784	1306.338
-4.517	27.448	1591.472	1305.255
-3.502	27.445	1590.596	1304.468
-2.487	27.540	1588.735	1303.565
-1.473	27.113	1576.960	1290.823
-0.458	24.282	1557.730	1255.127
0.556	18.828	1558.916	1224.018
1.571	16.530	1582.913	1226.103
2.586	16.186	1595.141	1232.955
3.600	15.524	1544.740	1189.206
4.615	12.837	1447.201	1096.172
5.629	10.268	1392.681	1038.319
6.644	9.700	1385.788	1029.465
7.659	9.622	1384.671	1028.046
8.673	9.610	1383.526	1027.029
9.688	9.638	1381.688	1025.753
10.702	9.566	1378.197	1022.614
11.717	10.779	1379.964	1031.541
12.731	13.998	1385.448	1056.035
13.746	16.742	1389.791	1076.720
14.761	17.373	1389.491	1080.401
15.775	16.467	1386.841	1072.498
16.790	15.275	1384.746	1063.231
17.804	14.466	1382.258	1056.103
18.819	14.146	1380.492	1052.639
19.834	13.801	1378.967	1049.200
20.848	13.610	1377.813	1047.019
21.863	13.344	1376.576	1044.308
22.877	13.147	1375.833	1042.411
23.892	13.234	1374.526	1041.878
24.907	13.144	1373.766	1040.638
25.921	13.216	1372.610	1040.125
26.936	13.163	1371.891	1039.158
27.950	13.221	1370.923	1038.698
28.965	13.295	1370.188	1038.513
29.980	13.399	1369.065	1038.223
30.994	13.492	1367.068	1037.200
32.009	13.448	1366.045	1036.051
33.023	13.390	1365.161	1034.926
34.038	13.297	1363.751	1033.187
35.053	13.256	1362.708	1032.048
36.067	13.381	1360.757	1031.260
37.082	13.353	1360.114	1030.505
38.096	13.343	1359.432	1029.839
39.111	13.400	1358.389	1029.311
40.126	13.261	1358.038	1028.087
41.140	13.181	1356.974	1026.696
42.155	13.142	1356.362	1025.901
43.169	13.113	1355.979	1025.337
44.184	13.148	1355.404	1025.031
45.199	13.194	1355.043	1024.949
46.213	13.156	1354.474	1024.197
47.228	13.264	1353.828	1024.284
48.242	13.206	1352.652	1022.949
49.257	13.268	1351.285	1022.204
50.271	13.220	1349.760	1020.668
51.286	13.252	1348.731	1019.991
52.301	13.327	1346.796	1018.902
53.315	13.234	1345.976	1017.619
54.330	13.094	1345.494	1016.305
55.344	13.091	1343.999	1015.069
56.359	13.285	1342.487	1015.024
57.374	13.147	1342.505	1014.101
58.388	13.076	1341.813	1013.053
59.403	13.148	1340.561	1012.463
60.417	13.106	1339.863	1011.584
61.432	13.131	1339.034	1011.025
62.447	13.125	1337.546	1009.773
63.461	13.013	1336.318	1008.072
64.476	13.057	1335.715	1007.800
65.490	13.082	1334.590	1007.010
66.505	13.090	1333.157	1005.893
67.520	13.057	1332.277	1004.938
68.534	13.110	1330.524	1003.850
69.549	12.996	1329.643	1002.401
70.563	12.992	1329.217	1001.971
71.578	12.979	1327.860	1000.778
72.593	12.952	1326.901	999.802
73.607	12.931	1326.039	998.938
74.622	12.945	1325.292	998.371
75.636	12.869	1325.059	997.648
76.651	12.838	1324.194	996.718
77.666	12.943	1324.031	997.144
78.680	12.888	1323.914	996.633
79.695	12.968	1322.275	995.796
80.709	12.953	1321.350	994.921
81.724	13.131	1320.601	995.340
82.739	13.145	1319.910	994.816
83.753	13.144	1319.027	994.058
84.768	13.215	1317.718	993.412
85.782	13.405	1316.120	993.260
86.797	13.311	1315.247	991.946
87.812	13.212	1313.695	990.095
88.826	13.273	1313.059	989.897
89.841	13.315	1311.670	989.010
90.855	13.329	1310.954	988.468
91.870	13.379	1310.318	988.199
92.884	13.357	1309.299	987.211
93.899	13.307	1308.769	986.423
94.914	13.505	1307.456	986.531
95.928	13.439	1306.718	985.493
96.943	13.343	1306.008	984.297
97.957	13.379	1304.949	983.628
98.972	13.344	1303.709	982.398
99.987	13.328	1302.660	981.422
101.001	13.333	1301.305	980.349
102.016	13.214	1300.971	979.305
103.030	13.360	1300.158	979.468
104.045	13.364	1299.057	978.575
105.060	13.274	1297.833	977.036
106.074	13.122	1296.814	975.284
107.089	13.075	1295.197	973.708
108.103	13.068	1293.860	972.575
109.118	13.049	1292.502	971.357
110.133	13.103	1291.279	970.668
111.147	13.135	1289.899	969.729
112.162	13.197	1288.176	968.714
113.176	13.194	1287.458	968.072
114.191	13.170	1286.699	967.272
115.206	13.170	1285.431	966.237
116.220	13.221	1283.791	965.216
117.235	13.151	1283.008	964.135
118.249	13.213	1281.508	963.281
119.264	13.141	1281.249	962.579
120.279	13.235	1279.687	961.871
121.293	13.089	1278.653	960.158
122.308	13.053	1277.917	959.315
123.322	12.967	1277.161	958.162
124.337	13.074	1275.667	957.576
125.352	13.066	1274.884	956.856
126.366	13.121	1273.251	955.863
127.381	13.145	1272.076	955.034
128.395	13.085	1271.100	953.875
129.410	13.011	1270.106	952.617
130.424	13.126	1269.480	952.724
131.439	13.186	1268.655	952.365
132.454	13.312	1267.211	951.925
133.468	13.305	1266.620	951.353
134.483	13.222	1265.815	950.190
135.497	13.275	1264.922	949.739
136.512	13.174	1263.531	948.031
137.527	13.201	1262.347	947.215
138.541	13.285	1260.277	946.059
139.556	13.187	1259.850	945.094
140.570	13.232	1259.106	944.710
141.585	13.393	1257.270	944.168
142.600	13.344	1256.532	943.250
143.614	13.453	1255.368	942.912
144.629	13.513	1254.411	942.451
145.643	13.380	1253.682	941.065
146.658	13.360	1252.375	939.886
147.673	13.360	1250.420	938.339
148.687	13.334	1249.566	937.466
149.702	13.365	1247.626	936.102
150.716	13.267	1246.778	934.826
151.731	13.208	1245.727	933.624
152.746	13.294	1244.277	932.938
153.760	13.369	1243.424	932.640
154.775	13.448	1242.100	932.012
155.789	13.430	1241.271	931.204
156.804	13.546	1240.161	930.944
157.819	13.407	1239.433	929.534
158.833	13.551	1238.167	929.311
159.848	13.609	1237.182	928.812
160.862	13.609	1236.149	927.954
161.877	13.370	1235.093	925.743
162.892	13.279	1234.236	924.509
163.906	13.339	1233.205	923.989
164.921	13.365	1232.304	923.379
165.935	13.360	1231.695	922.815
166.950	13.551	1230.339	922.780
167.964	13.434	1230.017	921.805
168.979	13.424	1229.387	921.195
169.994	13.410	1228.797	920.592
171.008	13.537	1227.554	920.288
172.023	13.584	1226.259	919.495
173.037	13.553	1226.517	919.437
174.052	13.608	1224.919	918.459
175.067	13.482	1224.208	917.149
176.081	13.510	1223.030	916.339
177.096	13.460	1222.164	915.336
178.110	13.510	1221.190	914.799
179.125	13.569	1219.626	913.873
180.140	13.558	1218.367	912.790
181.154	13.539	1217.383	911.867
182.169	13.524	1216.591	911.111
183.183	13.687	1215.058	910.774
184.198	13.700	1214.066	910.021
185.213	13.655	1212.991	908.892
186.227	13.829	1211.575	908.703
187.242	13.809	1210.681	907.839
188.256	13.821	1209.972	907.292
189.271	13.812	1208.587	906.128
190.286	13.749	1207.668	905.013
191.300	13.485	1207.010	903.002
192.315	13.357	1206.640	901.943
193.329	13.421	1206.003	901.741
194.344	13.625	1204.714	901.804
195.359	13.642	1204.420	901.598
196.373	13.654	1204.068	901.322
197.388	13.784	1203.830	901.767
198.402	13.886	1203.013	901.629
199.417	13.956	1202.208	901.327
200.432	14.076	1201.405	901.299
201.446	13.936	1200.513	899.787
202.461	14.096	1199.777	900.023
203.475	14.103	1198.653	899.138
204.490	13.950	1197.575	897.422
205.504	13.943	1196.066	896.178
206.519	13.986	1195.246	895.713
207.534	13.915	1193.861	894.213
208.548	13.900	1193.330	893.658
209.563	13.846	1192.838	892.920
210.577	14.071	1191.225	892.844
211.592	14.042	1190.780	892.274
212.607	14.163	1190.157	892.375
213.621	14.120	1188.707	890.978
214.636	14.130	1187.475	890.034
215.650	14.080	1187.105	889.410
216.665	14.115	1186.528	889.084
217.680	14.148	1185.754	888.600
218.694	14.240	1184.335	887.952
219.709	14.199	1183.650	887.140
220.723	14.227	1183.005	886.726
221.738	14.263	1182.511	886.468
222.753	14.176	1182.011	885.554
223.767	14.236	1181.037	885.062
224.782	14.323	1180.261	884.867
225.796	14.305	1179.736	884.300
226.811	14.360	1178.891	883.881
227.826	14.351	1177.942	883.040
228.840	14.393	1177.112	882.562
229.855	14.332	1176.422	881.647
230.869	14.392	1175.940	881.524
231.884	14.310	1174.795	880.154
232.899	14.318	1174.060	879.566
233.913	14.199	1173.821	878.681
234.928	14.158	1172.958	877.741
235.942	14.347	1171.750	877.756
236.957	14.231	1171.062	876.555
237.972	14.227	1170.657	876.153
238.986	14.265	1170.223	875.948
240.001	14.223	1169.396	875.033
241.015	14.375	1167.987	874.696
242.030	14.306	1167.304	873.745
243.045	14.420	1166.577	873.724
244.059	14.414	1165.645	872.916
245.074	14.357	1165.023	872.078
246.088	14.420	1164.400	871.860
247.103	14.552	1163.656	871.917
248.117	14.581	1162.808	871.354
249.132	14.723	1162.020	871.431
250.147	14.686	1161.831	871.018
251.161	14.702	1160.667	870.153
252.176	14.859	1159.605	870.097
253.190	14.769	1159.493	869.467
254.205	14.873	1158.995	869.554
255.220	14.780	1158.727	868.793
256.234	14.871	1158.001	868.645
257.249	14.832	1157.169	867.742
258.263	14.874	1155.815	866.868
259.278	14.843	1155.744	866.577
260.293	14.864	1155.342	866.310
261.307	14.945	1155.168	866.522
262.322	14.906	1154.473	865.720
263.336	15.011	1153.141	865.189
264.351	14.973	1152.464	864.407
265.366	15.009	1152.111	864.251
266.380	15.048	1151.088	863.611
267.395	14.971	1150.289	862.537
268.409	15.018	1149.458	862.080
269.424	14.957	1148.928	861.294
270.439	14.975	1148.187	860.751
271.453	15.051	1147.564	860.603
272.468	14.911	1146.792	859.229
273.482	15.039	1145.765	859.037
274.497	14.982	1145.515	858.482
275.512	15.057	1144.428	857.976
276.526	15.024	1144.134	857.511
277.541	15.051	1142.987	856.713
278.555	14.973	1142.875	856.156
279.570	15.119	1141.810	856.025
280.585	15.306	1140.767	856.125
281.599	15.222	1140.065	855.091
282.614	15.194	1139.124	854.169
283.628	15.030	1137.875	852.319
284.643	15.141	1137.197	852.303
285.657	15.192	1136.419	851.903
286.672	15.303	1135.304	851.559
287.687	15.130	1134.644	850.109
288.701	15.258	1133.568	849.875
289.716	15.314	1132.704	849.436
290.730	15.315	1132.040	848.869
291.745	15.286	1131.155	847.984
292.760	15.195	1130.558	847.000
293.774	15.353	1130.213	847.465
294.789	15.385	1129.822	847.260
295.803	15.460	1129.198	847.096
296.818	15.365	1128.527	846.035
297.833	15.426	1127.616	845.588
298.847	15.368	1126.511	844.390
299.862	15.315	1126.179	843.799
300.876	15.546	1124.974	843.985
301.891	15.428	1124.641	843.066
302.906	15.510	1123.687	842.687
303.920	15.546	1123.235	842.456
304.935	15.551	1122.480	841.838
305.949	15.684	1122.055	842.114
306.964	15.631	1121.544	841.387
307.979	15.686	1120.333	840.680
308.993	15.585	1119.905	839.779
310.008	15.678	1118.996	839.492
311.022	15.650	1118.189	838.671
312.037	15.672	1117.256	838.007
313.052	15.562	1116.755	837.009
314.066	15.590	1115.573	836.189
315.081	15.520	1114.931	835.282
316.095	15.626	1114.166	835.164
317.110	15.604	1113.194	834.251
318.125	15.568	1112.620	833.569
319.139	15.650	1111.801	833.288
320.154	15.523	1111.314	832.221
321.168	15.502	1110.878	831.715
322.183	15.569	1110.171	831.443
323.197	15.617	1109.422	831.047
324.212	15.620	1108.733	830.474
325.227	15.676	1108.060	830.173
326.241	15.700	1107.649	829.909
327.256	15.657	1106.866	829.036
328.270	15.628	1105.931	828.120
329.285	15.688	1104.996	827.644
330.300	15.739	1103.822	826.941
331.314	15.800	1102.694	826.323
332.329	15.715	1102.123	825.403
333.343	15.808	1101.027	824.968
334.358	15.735	1100.571	824.194
335.373	15.739	1099.855	823.605
336.387	15.819	1098.824	823.149
337.402	15.840	1098.662	823.057
338.416	15.876	1097.662	822.410
339.431	15.952	1097.012	822.222
340.446	15.999	1096.402	821.924
341.460	15.979	1095.704	821.232
342.475	16.025	1094.800	820.705
343.489	16.079	1094.295	820.516
344.504	16.152	1092.953	819.791
345.519	16.274	1092.066	819.648
346.533	16.062	1091.448	818.083
347.548	16.217	1090.676	818.183
348.562	16.156	1090.033	817.330
349.577	16.187	1088.865	816.535
350.592	16.099	1088.628	815.859
351.606	16.008	1087.953	814.838
352.621	16.056	1087.168	814.411
353.635	16.105	1086.332	813.947
354.650	16.060	1085.965	813.386
355.665	16.131	1084.987	812.922
356.679	16.196	1084.155	812.542
357.694	16.196	1083.585	812.043
358.708	16.266	1082.838	811.748
359.723	16.299	1082.336	811.459
360.738	16.238	1081.555	810.506
361.752	16.145	1081.106	809.654
362.767	16.374	1080.562	810.274
363.781	16.227	1079.967	809.050
364.796	16.340	1079.504	809.170
365.810	16.556	1078.440	809.337
366.825	16.524	1078.180	808.917
367.840	16.517	1077.962	808.647
368.854	16.520	1077.478	808.228
369.869	16.440	1076.797	807.263
370.883	16.484	1075.531	806.454
371.898	16.419	1074.968	805.649
372.913	16.534	1074.365	805.672
373.927	16.567	1073.846	805.369
374.942	16.546	1073.395	804.859
375.956	16.546	1073.114	804.578
376.971	16.603	1072.351	804.205
377.986	16.575	1071.859	803.632
379.000	16.631	1071.235	803.359
380.015	16.637	1070.817	803.006
381.029	16.783	1070.129	803.111
382.044	16.712	1069.126	801.952
383.059	16.751	1068.206	801.371
384.073	16.742	1067.422	800.674
385.088	16.855	1066.348	800.329
386.102	16.652	1065.971	799.014
387.117	16.831	1064.337	798.565
388.132	16.780	1063.576	797.682
389.146	16.703	1062.836	796.693
390.161	16.687	1062.308	796.155
391.175	16.715	1061.752	795.799
392.190	16.764	1061.037	795.424
393.205	16.930	1059.993	795.349
394.219	16.864	1059.547	794.631
395.234	16.743	1058.706	793.364
396.248	16.872	1057.101	792.694
397.263	16.741	1056.764	791.762
398.278	16.739	1055.823	790.976
399.292	16.754	1055.351	790.621
400.307	16.782	1054.615	790.134
401.321	16.781	1054.111	789.681
402.336	16.650	1053.493	788.537
403.350	16.732	1052.644	788.213
404.365	16.906	1051.865	788.370
405.380	16.753	1051.369	787.216
406.394	17.024	1049.957	787.349
407.409	16.967	1049.796	786.894
408.423	17.010	1048.988	786.416
409.438	16.973	1048.284	785.649
410.453	17.116	1047.736	785.830
411.467	17.144	1046.851	785.227
412.482	17.124	1046.555	784.841
413.496	17.188	1045.548	784.313
414.511	17.309	1045.022	784.409
415.526	17.307	1044.476	783.921
416.540	17.223	1044.298	783.327
417.555	17.347	1043.787	783.446
418.569	17.222	1043.098	782.284
419.584	17.378	1042.370	782.388
420.599	17.271	1042.305	781.778
421.613	104.909	1325.923	1477.686
422.628	96.331	1367.165	1477.784
