DTS Sentinel unit serial number:	SN413079Multiplexer serial number:	ORYXHardware model number:	OX4-SRSoftware version number:	ORYX F/W v4.00 Oryx Data Collector v3.7.2.0data status	okinstallation	princeton_trtdifferential loss correction	single-endedforward channel	channel 2reverse channel	N/Adate	2019/09/19time	02:59:35forward acquisition time	60.00reverse acquisition time	0.00gamma	496.2192k internal	0.2353k external	0.2353temperature offset calibration	1.0013default loss term (dB/km)	0.3790temperature slope calibration	1.0000multiplexer offset coefficient	1.0000multiplexer slope coefficient	1.0000fibre end	0.00T internal ref (°C)	20.86T ext. ref 1 (°C)	0.66T ext. ref 2 (°C)	14.61length (m)	temperature (°C)	Stokes	anti-Stokes-747.200	800.000	-0.016	0.057
-746.185	-68.873	-0.398	-0.153
-745.171	-200.000	0.000	-0.227
-744.156	-200.000	-0.004	0.070
-743.142	9.750	-0.236	-0.178
-742.127	-88.554	-0.220	0.065
-741.112	252.770	-0.119	0.202
-740.098	-200.000	-0.032	0.300
-739.083	196.550	-0.017	0.025
-738.069	291.967	0.152	-0.276
-737.054	0.834	-0.133	-0.095
-736.039	138.444	-0.168	0.219
-735.025	-106.794	0.196	0.043
-734.010	-133.360	-0.192	0.024
-732.996	-4.909	-0.181	0.124
-731.981	-81.765	-0.106	0.034
-730.966	-116.751	0.295	-0.054
-729.952	609.572	0.201	-0.500
-728.937	-200.000	0.006	-0.204
-727.923	63.089	-0.135	-0.135
-726.908	-200.000	-0.015	-0.132
-725.894	-69.307	-0.276	0.106
-724.879	-200.000	-0.002	0.054
-723.864	-137.279	-0.290	-0.033
-722.850	698.247	-0.086	0.226
-721.835	800.000	0.088	-0.274
-720.821	160.846	0.064	0.089
-719.806	-200.000	0.042	-0.280
-718.791	38.212	-0.203	0.180
-717.777	-30.222	0.267	-0.151
-716.762	52.822	0.271	-0.258
-715.748	-13.452	-0.322	-0.208
-714.733	491.728	0.194	-0.443
-713.718	800.000	-0.159	-0.522
-712.704	-80.236	-0.247	0.082
-711.689	-170.780	-0.258	0.009
-710.675	-123.902	0.100	-0.016
-709.660	-200.000	0.062	-0.291
-708.645	-191.489	-0.293	-0.003
-707.631	-200.000	0.001	0.411
-706.616	261.036	-0.145	0.249
-705.602	14.981	-0.208	0.162
-704.587	-200.000	-0.043	-0.290
-703.572	-200.000	-0.003	0.127
-702.558	-27.526	0.152	0.088
-701.543	41.340	0.214	-0.192
-700.529	-65.706	0.176	0.070
-699.514	-200.000	-0.003	-0.078
-698.499	143.149	-0.106	0.141
-697.485	-0.636	-0.127	-0.090
-696.470	49.560	-0.110	0.104
-695.456	425.302	-0.089	0.190
-694.441	360.566	0.064	-0.128
-693.426	800.000	0.027	-0.101
-692.412	127.355	0.220	-0.278
-691.397	84.480	-0.241	-0.263
-690.383	800.000	0.039	0.143
-689.368	-4.938	-0.026	-0.018
-688.354	-3.790	-0.133	-0.092
-687.339	-153.977	-0.111	0.008
-686.324	800.000	0.016	0.055
-685.310	800.000	-0.063	-0.190
-684.295	-200.000	-0.031	-0.146
-683.281	-200.000	0.013	-0.147
-682.266	752.995	0.158	0.424
-681.251	-20.503	-0.353	-0.216
-680.237	-123.431	0.298	-0.047
-679.222	687.351	0.036	-0.095
-678.208	103.121	-0.191	-0.223
-677.193	-16.420	0.147	-0.093
-676.178	149.506	0.064	-0.086
-675.164	-200.000	-0.017	0.188
-674.149	452.502	0.009	-0.020
-673.135	115.233	-0.047	0.058
-672.120	-170.330	-0.166	0.006
-671.105	-200.000	0.078	-0.356
-670.091	-200.000	0.017	-0.150
-669.076	281.597	0.175	-0.312
-668.062	204.615	-0.219	-0.337
-667.047	189.112	-0.225	-0.335
-666.032	800.000	0.093	-0.308
-665.018	57.494	-0.281	-0.273
-664.003	642.075	-0.084	0.214
-662.989	46.172	0.119	-0.109
-661.974	3.724	-0.335	-0.243
-660.959	-200.000	-0.011	-0.174
-659.945	-112.077	-0.355	-0.071
-658.930	-200.000	0.044	-0.373
-657.916	424.819	-0.065	0.140
-656.901	14.381	-0.049	0.038
-655.886	-92.701	0.276	0.077
-654.872	-102.536	0.118	-0.028
-653.857	0.192	0.257	-0.182
-652.843	352.589	0.095	0.187
-651.828	589.809	-0.054	-0.132
-650.814	-9.736	0.280	0.185
-649.799	-7.337	-0.112	0.075
-648.784	52.510	-0.319	-0.302
-647.770	-102.494	-0.216	-0.051
-646.755	-112.800	0.343	-0.068
-645.741	141.101	0.134	-0.176
-644.726	573.862	0.062	0.149
-643.711	237.170	-0.075	0.124
-642.697	-98.919	0.176	-0.044
-641.682	460.164	0.049	-0.108
-640.668	-105.755	-0.393	0.088
-639.653	-41.635	-0.323	-0.165
-638.638	800.000	-0.061	0.247
-637.624	111.918	-0.101	0.121
-636.609	-27.704	-0.229	-0.132
-635.595	800.000	0.069	-0.236
-634.580	102.877	0.089	0.104
-633.565	83.802	0.050	0.054
-632.551	-168.215	0.122	0.005
-631.536	35.731	0.391	0.341
-630.522	585.185	0.083	-0.202
-629.507	800.000	0.019	-0.054
-628.492	185.993	0.037	-0.055
-627.478	-149.954	-0.010	0.001
-626.463	344.773	0.012	0.024
-625.449	-174.566	-0.059	0.002
-624.434	62.099	-0.170	-0.168
-623.419	137.629	-0.147	-0.190
-622.405	575.705	0.082	0.198
-621.390	158.382	-0.201	0.277
-620.376	-200.000	-0.000	0.311
-619.361	64.163	-0.090	0.090
-618.346	306.100	-0.083	-0.154
-617.332	179.901	0.070	0.102
-616.317	-88.811	0.093	-0.027
-615.303	467.173	-0.096	0.214
-614.288	-100.911	0.152	-0.037
-613.273	71.777	-0.228	0.235
-612.259	-200.000	-0.027	-0.406
-611.244	-200.000	-0.001	0.078
-610.230	-200.000	0.011	-0.120
-609.215	-24.650	-0.042	0.025
-608.201	606.794	0.210	0.520
-607.186	800.000	0.036	-0.110
-606.171	-32.950	-0.221	-0.122
-605.157	360.717	0.083	0.165
-604.142	-9.282	0.099	0.065
-603.128	800.000	0.121	-0.409
-602.113	-200.000	0.050	-0.386
-601.098	-58.573	-0.152	-0.066
-600.084	134.322	0.087	0.111
-599.069	-200.000	0.050	0.238
-598.055	249.086	0.148	0.248
-597.040	-200.000	-0.023	-0.371
-596.025	-32.676	-0.170	0.094
-595.011	-200.000	-0.021	-0.381
-593.996	-153.450	-0.208	-0.014
-592.982	54.260	0.106	0.101
-591.967	352.454	0.047	0.093
-590.952	-108.405	-0.146	-0.031
-589.938	-125.625	-0.135	0.020
-588.923	-74.954	0.298	0.106
-587.909	-84.235	-0.180	0.056
-586.894	151.689	-0.160	0.217
-585.879	800.000	-0.142	0.429
-584.865	-61.167	0.211	-0.088
-583.850	-112.061	0.319	0.064
-582.836	388.126	0.155	0.318
-581.821	-10.201	0.071	-0.047
-580.806	711.719	-0.092	-0.241
-579.792	158.373	-0.032	0.044
-578.777	227.839	-0.035	-0.057
-577.763	644.821	-0.141	-0.356
-576.748	185.030	0.130	-0.191
-575.733	-200.000	0.004	0.032
-574.719	522.099	0.020	-0.047
-573.704	-107.683	0.356	-0.077
-572.690	-76.005	0.116	-0.040
-571.675	-200.000	0.014	-0.134
-570.661	-126.198	-0.194	0.029
-569.646	774.335	0.104	-0.282
-568.631	-39.085	0.191	-0.099
-567.617	-136.517	-0.307	0.035
-566.602	-13.005	0.169	0.109
-565.588	756.194	0.082	-0.218
-564.573	40.395	-0.200	0.179
-563.558	-41.983	-0.227	-0.115
-562.544	-200.000	-0.008	-0.233
-561.529	243.249	-0.173	-0.287
-560.515	209.866	-0.024	0.038
-559.500	-189.669	-0.191	0.002
-558.485	-200.000	0.007	-0.067
-557.471	74.709	0.113	0.118
-556.456	800.000	-0.099	0.282
-555.442	216.395	-0.137	0.215
-554.427	-22.307	0.161	-0.097
-553.412	-200.000	-0.055	-0.242
-552.398	-37.562	0.181	-0.096
-551.383	-200.000	-0.007	-0.209
-550.369	-16.807	-0.275	0.172
-549.354	-23.046	-0.105	-0.063
-548.339	169.616	-0.129	0.183
-547.325	53.860	0.175	0.167
-546.310	-123.297	-0.159	-0.025
-545.296	132.083	-0.177	-0.226
-544.281	800.000	-0.106	0.459
-543.266	-200.000	-0.060	-0.446
-542.252	-200.000	0.001	-0.262
-541.237	-200.000	-0.020	0.271
-540.223	-8.026	-0.087	0.058
-539.208	-119.914	-0.221	-0.038
-538.193	3.240	0.255	0.183
-537.179	6.927	-0.300	0.221
-536.164	259.757	-0.054	0.093
-535.150	-200.000	-0.047	0.208
-534.135	-51.754	-0.039	0.018
-533.121	-66.479	0.138	-0.054
-532.106	261.485	0.079	-0.135
-531.091	57.976	0.222	-0.214
-530.077	-49.696	0.175	-0.082
-529.062	-20.658	-0.449	-0.272
-528.048	-57.514	0.088	-0.038
-527.033	-200.000	0.000	0.041
-526.018	53.286	-0.294	-0.278
-525.004	202.872	0.108	-0.165
-523.989	800.000	-0.029	0.106
-522.975	800.000	0.022	0.063
-521.960	-200.000	0.006	-0.199
-520.945	93.470	-0.156	-0.175
-519.931	224.052	0.120	-0.191
-518.916	307.902	-0.080	-0.148
-517.902	-153.938	-0.354	-0.024
-516.887	294.836	0.061	0.110
-515.872	303.342	-0.190	-0.348
-514.858	244.353	-0.081	-0.134
-513.843	-85.062	0.159	-0.049
-512.829	26.277	-0.065	0.054
-511.814	-200.000	0.002	-0.036
-510.799	330.966	-0.216	0.411
-509.785	-127.116	0.262	-0.038
-508.770	800.000	-0.088	0.245
-507.756	-158.070	0.241	0.014
-506.741	103.044	0.219	0.254
-505.726	-200.000	-0.031	-0.156
-504.712	-147.514	-0.109	-0.009
-503.697	-163.354	0.699	0.033
-502.683	800.000	0.054	-0.230
-501.668	-200.000	-0.047	-0.225
-500.653	-57.144	0.262	0.114
-499.639	-200.000	0.012	0.099
-498.624	-66.388	-0.221	-0.087
-497.610	-121.798	-0.129	0.021
-496.595	60.430	-0.097	-0.095
-495.581	47.725	-0.072	-0.067
-494.566	-3.456	-0.205	-0.141
-493.551	100.905	0.107	0.123
-492.537	-2.494	0.158	0.110
-491.522	121.753	0.126	-0.155
-490.508	-200.000	-0.014	0.229
-489.493	-200.000	-0.011	-0.164
-488.478	85.344	0.109	-0.118
-487.464	-33.689	-0.164	-0.089
-486.449	-3.904	-0.214	-0.147
-485.435	22.328	-0.157	-0.126
-484.420	-35.991	-0.227	0.121
-483.405	-104.388	-0.461	-0.105
-482.391	184.885	-0.075	0.110
-481.376	-77.669	-0.068	-0.023
-480.362	-42.064	0.064	0.032
-479.347	-44.535	-0.222	0.110
-478.332	-56.456	0.416	-0.182
-477.318	-63.462	-0.121	0.049
-476.303	-82.517	-0.162	0.052
-475.289	-102.801	0.064	0.015
-474.274	15.248	0.129	-0.100
-473.259	-11.118	0.087	0.057
-472.245	-47.015	0.167	-0.080
-471.230	-58.626	-0.243	-0.104
-470.216	2.964	0.148	0.106
-469.201	-200.000	-0.035	0.666
-468.186	800.000	0.040	0.167
-467.172	172.043	-0.073	-0.103
-466.157	388.722	-0.019	0.040
-465.143	-177.542	0.196	-0.005
-464.128	-56.628	-0.065	-0.028
-463.113	132.835	0.132	-0.168
-462.099	20.797	0.125	-0.100
-461.084	-59.387	0.142	-0.060
-460.070	392.346	-0.079	0.161
-459.055	-200.000	0.006	0.144
-458.040	-29.601	-0.082	-0.046
-457.026	192.597	-0.038	0.057
-456.011	55.388	-0.185	0.177
-454.997	116.614	0.071	-0.086
-453.982	800.000	-0.045	0.149
-452.968	52.159	0.162	0.152
-451.953	-123.784	0.184	-0.029
-450.938	107.081	-0.129	0.151
-449.924	-200.000	0.007	-0.172
-448.909	-147.065	0.232	0.020
-447.895	226.828	0.090	-0.144
-446.880	-105.281	0.096	-0.022
-445.865	-36.243	0.018	-0.010
-444.851	275.034	-0.104	0.181
-443.836	800.000	-0.055	-0.232
-442.822	132.317	0.043	0.055
-441.807	10.206	-0.286	-0.214
-440.792	800.000	-0.084	-0.302
-439.778	800.000	-0.096	-0.396
-438.763	-106.414	-0.043	0.009
-437.749	-200.000	0.036	-0.191
-436.734	-36.472	0.440	-0.234
-435.719	565.258	-0.087	-0.207
-434.705	-118.873	0.119	-0.021
-433.690	-123.569	0.058	0.009
-432.676	-138.502	-0.154	0.017
-431.661	-200.000	-0.017	0.160
-430.646	340.895	0.072	-0.138
-429.632	800.000	0.048	0.144
-428.617	91.757	0.070	-0.078
-427.603	281.393	-0.093	0.164
-426.588	800.000	0.020	-0.068
-425.573	63.040	-0.061	-0.060
-424.559	800.000	-0.109	-0.320
-423.544	-66.321	0.225	0.088
-422.530	-137.470	0.216	0.024
-421.515	52.235	-0.266	-0.250
-420.500	67.690	0.178	0.179
-419.486	195.032	-0.006	-0.010
-418.471	800.000	-0.024	-0.091
-417.457	-30.475	0.081	0.045
-416.442	-132.446	-0.451	-0.057
-415.428	800.000	0.040	0.122
-414.413	-157.092	0.094	0.006
-413.398	-166.910	-0.314	0.013
-412.384	800.000	-0.045	-0.142
-411.369	-43.394	-0.273	-0.136
-410.355	-116.234	0.137	0.025
-409.340	-200.000	0.013	0.174
-408.325	-93.722	0.272	0.074
-407.311	-200.000	0.026	0.431
-406.296	32.937	0.110	0.094
-405.282	-69.324	0.215	0.081
-404.267	25.545	0.173	0.142
-403.252	-84.604	0.367	-0.114
-402.238	-84.157	-0.244	-0.076
-401.223	178.892	-0.134	-0.192
-400.209	14.413	0.180	-0.138
-399.194	-37.306	-0.182	0.096
-398.179	-200.000	0.029	-0.169
-397.165	666.777	-0.066	-0.167
-396.150	800.000	-0.099	-0.313
-395.136	32.803	0.106	0.090
-394.121	333.424	-0.032	0.060
-393.106	380.638	-0.053	-0.107
-392.092	800.000	0.091	-0.338
-391.077	800.000	0.039	0.118
-390.063	173.628	0.087	0.124
-389.048	39.575	-0.255	0.224
-388.033	800.000	0.054	0.155
-387.019	39.025	0.169	-0.148
-386.004	172.694	-0.054	0.077
-384.990	-32.428	-0.293	0.161
-383.975	-131.435	0.264	0.034
-382.960	-128.387	0.031	0.004
-381.946	-74.903	0.089	0.031
-380.931	-200.000	0.015	0.119
-379.917	21.970	0.078	-0.062
-378.902	98.861	0.247	-0.280
-377.888	-58.143	-0.224	0.096
-376.873	-25.797	0.260	0.151
-375.858	800.000	0.060	-0.226
-374.844	-77.294	0.071	-0.024
-373.829	-65.273	0.069	-0.027
-372.815	-89.353	0.316	-0.092
-371.800	-13.955	0.072	0.046
-370.785	-66.067	-0.256	-0.100
-369.771	348.176	0.103	0.200
-368.756	69.517	0.122	0.123
-367.742	103.223	-0.026	0.029
-366.727	800.000	0.068	-0.204
-365.712	-200.000	0.005	-0.208
-364.698	-111.367	-0.134	-0.027
-363.683	-200.000	-0.004	0.144
-362.669	-156.514	0.302	0.018
-361.654	100.811	0.019	-0.021
-360.639	282.992	0.096	0.169
-359.625	146.331	0.145	0.191
-358.610	800.000	0.012	-0.047
-357.596	-54.807	-0.266	0.118
-356.581	-200.000	-0.043	-0.296
-355.566	-200.000	-0.029	0.197
-354.552	9.441	-0.164	-0.122
-353.537	209.287	0.121	-0.187
-352.523	64.598	-0.010	-0.010
-351.508	76.458	0.091	-0.094
-350.493	-84.516	0.118	-0.037
-349.479	-200.000	-0.015	0.263
-348.464	53.812	0.113	0.106
-347.450	115.864	-0.101	0.121
-346.435	800.000	0.136	-0.388
-345.420	190.235	-0.122	-0.180
-344.406	-68.874	0.154	-0.058
-343.391	-113.409	-0.306	-0.059
-342.377	-200.000	0.022	0.196
-341.362	-200.000	-0.102	0.494
-340.348	135.777	0.156	-0.199
-339.333	-200.000	0.014	-0.153
-338.318	-200.000	0.013	-0.348
-337.304	112.560	0.121	0.144
-336.289	517.282	0.124	0.285
-335.275	13.638	0.204	-0.155
-334.260	-200.000	-0.039	-0.168
-333.245	-72.830	0.557	0.201
-332.231	-23.993	0.166	-0.097
-331.216	-200.000	0.022	-0.335
-330.202	-120.694	-0.122	-0.020
-329.187	300.509	0.165	0.299
-328.172	800.000	-0.050	0.210
-327.158	-184.071	-0.098	-0.002
-326.143	-7.020	0.080	0.053
-325.129	-80.275	-0.174	-0.057
-324.114	53.064	0.040	0.037
-323.099	-200.000	0.025	0.161
-322.085	-152.613	0.107	0.008
-321.070	84.760	-0.072	0.078
-320.056	33.321	-0.264	0.225
-319.041	77.323	0.187	0.195
-318.026	-200.000	0.192	-0.000
-317.012	-129.931	-0.129	-0.017
-315.997	96.320	0.279	0.313
-314.983	-180.738	-0.169	-0.003
-313.968	20.156	0.043	0.034
-312.953	281.762	0.106	0.186
-311.939	-80.070	-0.154	0.051
-310.924	800.000	-0.048	0.130
-309.910	149.587	0.130	0.173
-308.895	-151.599	-0.256	0.019
-307.880	36.190	-0.043	0.037
-306.866	148.913	-0.118	-0.156
-305.851	-200.000	-0.030	0.418
-304.837	213.436	-0.097	0.151
-303.822	-159.195	-0.101	0.006
-302.807	-25.782	-0.193	0.112
-301.793	-100.724	0.353	0.085
-300.778	-120.845	-0.331	-0.055
-299.764	153.866	-0.114	-0.153
-298.749	800.000	-0.093	-0.279
-297.735	-76.918	0.195	0.067
-296.720	44.058	-0.116	-0.104
-295.705	800.000	-0.056	0.189
-294.691	800.000	0.040	-0.160
-293.676	-163.872	0.167	0.008
-292.662	-200.000	0.016	-0.156
-291.647	-200.000	0.007	0.108
-290.632	177.510	-0.092	-0.132
-289.618	225.759	-0.105	0.167
-288.603	-92.888	-0.071	-0.019
-287.589	800.000	0.056	0.216
-286.574	5.307	-0.200	0.144
-285.559	-200.000	-0.022	-0.493
-284.545	-33.703	-0.241	-0.130
-283.530	184.626	-0.082	0.119
-282.516	800.000	0.105	0.298
-281.501	490.328	-0.067	-0.151
-280.486	167.902	0.159	0.222
-279.472	241.697	-0.096	0.157
-278.457	77.406	0.096	-0.100
-277.443	67.314	-0.053	0.053
-276.428	-200.000	-0.011	-0.246
-275.413	800.000	-0.183	-0.545
-274.399	251.790	-0.054	-0.091
-273.384	800.000	0.079	-0.228
-272.370	382.290	-0.051	0.103
-271.355	800.000	-0.027	-0.078
-270.340	-83.579	-0.334	0.105
-269.326	20.923	0.254	0.202
-268.311	800.000	-0.020	0.071
-267.297	6.176	-0.056	-0.041
-266.282	-52.928	0.231	0.104
-265.267	396.265	0.077	-0.158
-264.253	-200.000	0.032	-0.267
-263.238	-130.529	0.408	0.054
-262.224	41.104	-0.116	0.103
-261.209	-200.000	-0.081	0.394
-260.195	-92.841	-0.081	-0.022
-259.180	-172.824	0.246	0.008
-258.165	800.000	0.021	-0.073
-257.151	-18.845	0.134	-0.081
-256.136	95.196	-0.232	0.259
-255.122	800.000	-0.054	0.178
-254.107	91.892	-0.157	-0.173
-253.092	70.115	0.218	-0.220
-252.078	436.647	-0.059	0.126
-251.063	-19.462	0.196	-0.119
-250.049	40.243	0.141	0.124
-249.034	-152.794	0.236	0.016
-248.019	260.097	-0.075	-0.127
-247.005	-102.899	-0.217	0.051
-245.990	462.963	-0.099	0.215
-244.976	26.733	-0.108	0.088
-243.961	-39.641	0.163	-0.083
-242.946	-200.000	-0.073	-0.459
-241.932	800.000	-0.075	-0.268
-240.917	143.917	0.212	-0.276
-239.903	-9.255	-0.357	-0.233
-238.888	2.956	-0.234	-0.166
-237.873	-137.561	0.243	-0.027
-236.859	-21.838	-0.129	-0.077
-235.844	192.251	0.042	0.062
-234.830	-58.396	-0.334	-0.142
-233.815	-124.863	0.249	0.038
-232.800	445.527	-0.109	0.235
-231.786	23.815	0.173	-0.139
-230.771	-83.593	-0.199	0.062
-229.757	341.150	-0.229	-0.437
-228.742	-200.000	-0.014	0.074
-227.727	150.066	0.135	0.179
-226.713	-34.950	-0.127	-0.068
-225.698	-200.000	0.059	-0.273
-224.684	-56.967	-0.170	0.073
-223.669	653.488	0.024	-0.059
-222.655	769.496	0.111	0.296
-221.640	800.000	-0.087	0.333
-220.625	182.080	-0.217	0.312
-219.611	800.000	-0.040	-0.141
-218.596	-128.556	0.347	-0.048
-217.582	-200.000	0.032	-0.525
-216.567	-200.000	-0.119	-0.000
-215.552	800.000	-0.123	0.436
-214.538	-200.000	0.004	0.061
-213.523	-113.474	0.471	0.090
-212.509	800.000	-0.104	0.328
-211.494	149.551	0.044	-0.058
-210.479	-200.000	0.050	0.248
-209.465	-200.000	-0.020	-0.277
-208.450	-97.526	0.343	0.087
-207.436	125.344	-0.157	-0.194
-206.421	-200.000	0.073	-0.513
-205.406	408.431	0.134	0.277
-204.392	-200.000	-0.030	0.217
-203.377	-24.901	0.101	-0.059
-202.363	-200.000	-0.053	0.367
-201.348	-200.000	0.033	-0.161
-200.333	-200.000	-0.069	-0.314
-199.319	70.367	0.327	0.329
-198.304	34.524	-0.086	0.073
-197.290	204.816	-0.224	0.339
-196.275	800.000	-0.067	0.279
-195.260	800.000	0.062	0.229
-194.246	157.854	0.218	0.295
-193.231	-25.013	-0.133	-0.077
-192.217	49.431	-0.077	-0.071
-191.202	-200.000	0.007	0.225
-190.187	-142.620	-0.088	0.008
-189.173	405.256	-0.101	0.208
-188.158	10.214	-0.175	0.130
-187.144	-16.544	-0.202	0.125
-186.129	800.000	-0.074	0.258
-185.114	156.525	-0.038	0.051
-184.100	268.885	0.113	-0.193
-183.085	-55.262	0.230	-0.101
-182.071	-105.937	-0.155	-0.034
-181.056	-24.367	-0.164	-0.095
-180.042	1.535	0.328	-0.230
-179.027	-56.485	0.205	0.089
-178.012	-59.948	0.051	-0.021
-176.998	77.946	-0.131	0.136
-175.983	11.654	-0.163	0.122
-174.969	290.006	0.226	-0.400
-173.954	125.763	-0.100	0.123
-172.939	86.076	0.099	0.107
-171.925	-200.000	-0.031	0.141
-170.910	190.370	-0.069	0.101
-169.896	-170.250	0.265	-0.009
-168.881	-200.000	-0.017	0.207
-167.866	174.378	-0.114	-0.161
-166.852	203.268	0.048	-0.072
-165.837	40.799	0.188	0.166
-164.823	233.155	-0.159	0.256
-163.808	-169.100	-0.154	0.006
-162.793	247.675	-0.091	-0.150
-161.779	25.729	0.375	-0.304
-160.764	-200.000	0.012	0.162
-159.750	-150.057	0.232	0.018
-158.735	800.000	-0.034	0.137
-157.720	510.977	0.034	0.076
-156.706	41.741	0.130	-0.114
-155.691	-140.629	0.098	0.010
-154.677	-5.344	0.178	0.119
-153.662	-185.038	-0.123	0.002
-152.647	-153.861	-0.058	0.004
-151.633	4.405	-0.257	0.184
-150.618	-75.767	0.379	0.131
-149.604	263.127	-0.129	0.219
-148.589	-200.000	0.025	0.170
-147.574	130.687	-0.331	0.414
-146.560	-34.632	-0.273	0.145
-145.545	-100.353	0.103	-0.025
-144.531	214.366	0.075	0.115
-143.516	36.275	-0.182	-0.156
-142.502	-94.736	-0.219	-0.058
-141.487	97.976	0.134	0.150
-140.472	602.784	0.050	0.122
-139.458	-22.414	0.299	-0.176
-138.443	800.000	0.063	0.172
-137.429	181.048	-0.365	0.522
-136.414	-100.837	-0.216	-0.052
-135.399	317.249	0.031	0.057
-134.385	800.000	-0.033	0.115
-133.370	-112.850	-0.184	-0.035
-132.356	-34.721	0.116	-0.062
-131.341	-63.346	-0.263	0.105
-130.326	-44.928	0.136	0.066
-129.312	-160.590	-0.265	0.014
-128.297	341.339	-0.131	-0.249
-127.283	-200.000	-0.042	-0.216
-126.268	-200.000	-0.015	0.152
-125.253	-129.067	0.199	0.027
-124.239	-25.794	0.241	-0.138
-123.224	170.614	0.165	0.230
-122.210	500.911	0.118	0.264
-121.195	9.219	0.113	0.083
-120.180	609.001	0.045	-0.110
-119.166	-70.704	-0.309	0.114
-118.151	-200.000	-0.083	-0.555
-117.137	800.000	-0.044	-0.134
-116.122	-69.326	-0.248	-0.093
-115.107	-44.843	-0.026	-0.013
-114.093	-73.703	-0.065	0.023
-113.078	790.463	-0.092	0.247
-112.064	13.262	0.228	0.172
-111.049	-95.357	-0.226	-0.059
-110.034	-69.107	-0.171	-0.064
-109.020	800.000	0.050	-0.208
-108.005	4.819	0.294	0.210
-106.991	100.188	0.102	0.115
-105.976	19.563	0.113	0.088
-104.962	34.555	0.352	-0.299
-103.947	-200.000	0.311	-0.001
-102.932	800.000	0.013	-0.040
-101.918	-200.000	-0.032	0.165
-100.903	-169.823	-0.189	0.007
-99.889	-58.377	-0.039	0.016
-98.874	157.556	-0.123	0.165
-97.859	-151.524	0.066	0.005
-96.845	189.718	-0.236	0.343
-95.830	-200.000	-0.019	-0.203
-94.816	-55.256	-0.232	-0.101
-93.801	-59.860	0.282	0.117
-92.786	-200.000	-0.059	0.299
-91.772	-7.991	-0.170	0.112
-90.757	-129.280	-0.260	0.035
-89.743	125.337	0.243	0.298
-88.728	-200.000	-0.015	0.226
-87.713	-200.000	-0.049	-0.268
-86.699	308.690	-0.097	-0.175
-85.684	-1.293	0.254	0.174
-84.670	-98.491	0.281	0.070
-83.655	-32.994	-0.169	-0.091
-82.640	800.000	0.035	0.105
-81.626	-27.898	0.082	-0.046
-80.611	-118.090	-0.057	0.010
-79.597	-75.561	0.096	0.033
-78.582	-200.000	-0.032	-0.476
-77.567	-50.074	0.099	-0.046
-76.553	106.674	0.136	-0.156
-75.538	-122.251	-0.341	-0.054
-74.524	-172.413	-0.093	-0.003
-73.509	-34.052	0.199	-0.106
-72.494	561.670	0.085	-0.200
-71.480	116.846	-0.147	-0.175
-70.465	288.323	0.127	-0.224
-69.451	-200.000	0.029	-0.157
-68.436	-76.770	0.280	0.095
-67.422	-2.673	0.080	0.055
-66.407	85.035	-0.086	0.092
-65.392	-50.056	0.218	-0.100
-64.378	108.508	-0.192	0.223
-63.363	-149.146	-0.269	0.021
-62.349	-165.199	0.172	0.007
-61.334	67.346	-1.117	-1.106
-60.319	-38.239	0.851	0.438
-59.305	487.821	-0.685	-1.517
-58.290	271.464	0.801	1.369
-57.276	800.000	0.495	1.414
-56.261	-200.000	135.836	682.969
-55.246	341.205	1679.565	3184.902
-54.232	134.112	2814.438	3539.161
-53.217	82.590	2313.115	2438.093
-52.203	29.668	1911.235	1578.624
-51.188	23.824	1706.529	1364.763
-50.173	21.874	1669.197	1320.188
-49.159	43.999	1742.851	1549.996
-48.144	40.993	1751.533	1534.506
-47.130	23.454	1702.212	1358.254
-46.115	20.935	1686.998	1326.915
-45.100	20.735	1682.452	1321.763
-44.086	20.741	1679.623	1319.534
-43.071	20.750	1677.331	1317.754
-42.057	20.716	1674.816	1315.467
-41.042	20.781	1672.833	1314.347
-40.027	20.745	1671.057	1312.627
-39.013	20.739	1669.264	1311.121
-37.998	20.685	1668.291	1309.897
-36.984	20.724	1666.701	1308.890
-35.969	20.945	1665.027	1309.183
-34.954	20.902	1663.662	1307.738
-33.940	20.818	1661.741	1305.544
-32.925	20.840	1659.864	1304.185
-31.911	20.840	1658.479	1303.043
-30.896	20.788	1656.783	1301.272
-29.881	20.823	1655.201	1300.236
-28.867	20.856	1653.462	1299.068
-27.852	20.771	1652.613	1297.712
-26.838	20.876	1650.851	1297.059
-25.823	20.795	1649.554	1295.391
-24.809	20.851	1648.728	1295.105
-23.794	20.957	1646.674	1294.226
-22.779	20.871	1645.793	1292.845
-21.765	20.864	1643.781	1291.162
-20.750	20.921	1641.910	1290.060
-19.736	20.883	1640.583	1288.691
-18.721	20.852	1639.966	1287.920
-17.706	20.885	1637.934	1286.522
-16.692	20.865	1636.624	1285.289
-15.677	20.945	1634.996	1284.549
-14.663	20.884	1634.034	1283.296
-13.648	20.932	1632.253	1282.198
-12.633	20.941	1630.656	1280.963
-11.619	20.947	1629.006	1279.654
-10.604	20.908	1627.389	1278.048
-9.590	20.964	1626.194	1277.472
-8.575	20.869	1625.415	1276.114
-7.560	20.911	1624.244	1275.447
-6.546	20.861	1622.801	1273.905
-5.531	20.943	1621.554	1273.472
-4.517	20.915	1620.535	1272.418
-3.502	20.816	1619.750	1271.023
-2.487	20.957	1617.411	1270.166
-1.473	20.491	1605.832	1257.654
-0.458	17.608	1585.894	1221.349
0.556	12.932	1588.613	1190.011
1.571	10.842	1613.227	1193.015
2.586	10.724	1625.218	1200.906
3.600	10.048	1570.439	1155.490
4.615	5.756	1464.893	1049.067
5.629	1.461	1408.999	981.260
6.644	0.662	1402.172	971.283
7.659	0.760	1400.944	970.975
8.673	0.582	1400.263	969.275
9.688	0.647	1397.913	967.978
10.702	0.452	1394.430	964.236
11.717	2.689	1396.824	980.120
12.731	8.755	1406.002	1025.406
13.746	14.739	1415.741	1070.887
14.761	17.069	1417.905	1087.377
15.775	16.631	1416.342	1083.274
16.790	15.542	1414.299	1074.653
17.804	14.804	1411.809	1067.954
18.819	14.402	1410.275	1064.128
19.834	14.312	1408.883	1062.409
20.848	14.047	1407.507	1059.591
21.863	13.730	1406.886	1057.010
22.877	13.579	1404.713	1054.325
23.892	13.464	1404.142	1053.067
24.907	13.649	1402.855	1053.187
25.921	13.558	1402.119	1051.966
26.936	13.619	1401.552	1051.830
27.950	13.649	1400.354	1051.032
28.965	13.749	1399.389	1050.849
29.980	13.695	1398.939	1050.076
30.994	13.789	1397.524	1049.512
32.009	13.703	1396.845	1048.368
33.023	13.852	1395.164	1047.956
34.038	13.800	1393.991	1046.651
35.053	13.800	1392.833	1045.688
36.067	13.721	1392.111	1044.557
37.082	13.744	1390.812	1043.632
38.096	13.717	1390.007	1042.771
39.111	13.774	1389.513	1042.666
40.126	13.658	1388.343	1040.966
41.140	13.589	1387.823	1040.051
42.155	13.553	1386.904	1039.045
43.169	13.412	1387.294	1038.362
44.184	13.554	1386.812	1038.795
45.199	13.540	1386.946	1038.720
46.213	13.637	1385.506	1038.152
47.228	13.600	1384.833	1037.325
48.242	13.668	1383.819	1036.898
49.257	13.713	1382.166	1035.855
50.271	13.721	1380.250	1034.377
51.286	13.653	1378.660	1032.666
52.301	13.671	1377.791	1032.038
53.315	13.600	1376.496	1030.536
54.330	13.515	1376.098	1029.617
55.344	13.570	1374.821	1028.912
56.359	13.527	1373.481	1027.551
57.374	13.531	1372.657	1026.871
58.388	13.573	1371.651	1026.285
59.403	13.497	1371.245	1025.419
60.417	13.539	1370.155	1024.775
61.432	13.553	1369.252	1024.092
62.447	13.537	1368.192	1023.112
63.461	13.455	1367.440	1021.954
64.476	13.484	1366.090	1021.036
65.490	13.541	1364.860	1020.374
66.505	13.550	1363.455	1019.291
67.520	13.553	1361.935	1018.083
68.534	13.600	1361.026	1017.600
69.549	13.415	1359.802	1015.457
70.563	13.528	1358.590	1015.157
71.578	13.480	1357.831	1014.207
72.593	13.442	1357.031	1013.289
73.607	13.446	1356.368	1012.726
74.622	13.456	1355.239	1011.857
75.636	13.422	1354.993	1011.372
76.651	13.432	1353.807	1010.463
77.666	13.518	1353.131	1010.389
78.680	13.561	1352.668	1010.220
79.695	13.469	1352.381	1009.354
80.709	13.469	1351.219	1008.396
81.724	13.629	1350.101	1008.445
82.739	13.639	1349.293	1007.815
83.753	13.603	1348.200	1006.689
84.768	13.635	1347.138	1006.002
85.782	13.750	1345.905	1005.691
86.797	13.631	1344.570	1003.882
87.812	13.584	1343.379	1002.619
88.826	13.531	1342.304	1001.410
89.841	13.634	1340.965	1000.946
90.855	13.650	1340.569	1000.653
91.870	13.714	1339.387	1000.074
92.884	13.582	1338.993	998.894
93.899	13.768	1337.718	998.974
94.914	13.872	1336.493	998.595
95.928	13.799	1336.109	997.781
96.943	13.872	1334.694	997.072
97.957	13.639	1334.565	995.489
98.972	13.682	1332.724	994.288
99.987	13.794	1331.838	994.211
101.001	13.726	1331.298	993.311
102.016	13.754	1329.742	992.229
103.030	13.634	1329.677	991.378
104.045	13.683	1328.406	990.636
105.060	13.648	1327.326	989.533
106.074	13.629	1325.561	988.015
107.089	13.618	1323.835	986.579
108.103	13.584	1323.062	985.709
109.118	13.557	1321.988	984.665
110.133	13.612	1320.161	983.541
111.147	13.602	1318.944	982.490
112.162	13.732	1317.115	981.809
113.176	13.551	1316.706	980.345
114.191	13.682	1315.453	980.102
115.206	13.701	1314.421	979.354
116.220	13.643	1313.525	978.261
117.235	13.596	1312.033	976.789
118.249	13.769	1310.586	976.639
119.264	13.674	1310.029	975.580
120.279	13.701	1308.580	974.573
121.293	13.654	1307.456	973.375
122.308	13.615	1306.571	972.399
123.322	13.618	1305.394	971.455
124.337	13.641	1304.250	970.653
125.352	13.734	1302.744	969.993
126.366	13.678	1301.702	968.802
127.381	13.552	1301.305	967.685
128.395	13.614	1299.999	966.987
129.410	13.591	1298.853	965.917
130.424	13.696	1298.186	965.945
131.439	13.653	1297.018	964.742
132.454	13.680	1296.212	964.217
133.468	13.703	1295.233	963.534
134.483	13.696	1294.510	962.870
135.497	13.630	1293.540	961.681
136.512	13.611	1292.130	960.441
137.527	13.746	1290.196	959.696
138.541	13.642	1289.402	958.420
139.556	13.704	1287.761	957.473
140.570	13.664	1287.334	956.842
141.585	13.829	1285.633	956.445
142.600	13.843	1284.440	955.553
143.614	13.797	1283.901	954.802
144.629	13.836	1282.523	953.913
145.643	13.829	1281.370	952.933
146.658	13.864	1280.195	952.174
147.673	13.713	1279.262	950.530
148.687	13.720	1278.127	949.645
149.702	13.755	1276.473	948.533
150.716	13.812	1275.331	947.927
151.731	13.687	1273.797	945.988
152.746	13.838	1273.029	946.193
153.760	14.008	1271.181	945.704
154.775	13.913	1270.130	944.301
155.789	13.830	1269.767	943.475
156.804	13.927	1268.316	942.864
157.819	13.960	1267.327	942.233
158.833	13.970	1266.498	941.591
159.848	13.956	1265.947	941.019
160.862	13.973	1264.845	940.214
161.877	13.884	1263.405	938.555
162.892	13.934	1262.469	938.056
163.906	14.058	1261.262	937.777
164.921	14.047	1260.100	936.769
165.935	13.965	1259.873	936.054
166.950	14.021	1258.777	935.474
167.964	13.977	1258.088	934.634
168.979	14.010	1257.509	934.305
169.994	14.140	1256.374	934.109
171.008	14.005	1256.030	933.013
172.023	14.086	1254.651	932.358
173.037	14.102	1253.496	931.506
174.052	14.172	1253.085	931.511
175.067	14.051	1252.112	930.031
176.081	14.095	1250.766	929.193
177.096	14.041	1250.150	928.352
178.110	14.105	1248.596	927.474
179.125	14.148	1247.507	926.819
180.140	14.205	1246.495	926.305
181.154	14.169	1245.329	925.156
182.169	14.165	1243.956	924.033
183.183	14.239	1243.005	923.651
184.198	14.281	1241.552	922.727
185.213	14.277	1240.296	921.690
186.227	14.249	1239.752	921.048
187.242	14.274	1238.345	920.060
188.256	14.339	1237.933	920.033
189.271	14.341	1236.329	918.771
190.286	14.173	1235.712	917.303
191.300	14.223	1234.557	916.636
192.315	14.211	1234.020	916.096
193.329	14.161	1233.327	915.224
194.344	14.160	1232.826	914.763
195.359	14.285	1232.166	914.882
196.373	14.280	1231.729	914.449
197.388	14.371	1231.126	914.420
198.402	14.387	1230.657	914.077
199.417	14.381	1229.933	913.424
200.432	14.588	1229.128	913.882
201.446	14.561	1228.139	912.914
202.461	14.548	1227.146	912.025
203.475	14.535	1225.989	911.015
204.490	14.550	1225.103	910.357
205.504	14.535	1223.540	909.033
206.519	14.589	1222.575	908.530
207.534	14.539	1221.094	907.080
208.548	14.575	1219.930	906.331
209.563	14.529	1219.741	905.858
210.577	14.583	1218.624	905.239
211.592	14.538	1217.974	904.436
212.607	14.716	1216.689	904.367
213.621	14.636	1216.351	903.603
214.636	14.736	1215.264	903.253
215.650	14.649	1214.000	901.762
216.665	14.723	1213.354	901.607
217.680	14.699	1212.378	900.671
218.694	14.731	1211.157	899.856
219.709	14.745	1210.721	899.526
220.723	14.763	1210.247	899.193
221.738	14.788	1209.211	898.478
222.753	14.846	1208.342	898.063
223.767	14.845	1207.461	897.322
224.782	14.866	1207.003	897.015
225.796	14.829	1206.330	896.239
226.811	14.870	1205.537	895.790
227.826	14.877	1204.807	895.209
228.840	14.855	1204.211	894.564
229.855	14.927	1203.484	894.330
230.869	14.889	1202.523	893.334
231.884	14.847	1201.997	892.642
232.899	14.822	1201.076	891.748
233.913	14.859	1200.373	891.340
234.928	14.728	1199.888	890.202
235.942	14.889	1198.600	890.025
236.957	14.914	1197.782	889.475
237.972	14.847	1197.165	888.580
238.986	14.915	1196.593	888.441
240.001	14.930	1195.875	887.906
241.015	14.963	1194.702	887.133
242.030	14.972	1193.913	886.517
243.045	15.037	1193.549	886.512
244.059	15.020	1192.463	885.537
245.074	15.049	1191.386	884.814
246.088	15.011	1191.142	884.353
247.103	15.193	1189.873	884.294
248.117	15.153	1189.415	883.664
249.132	15.179	1188.395	882.966
250.147	15.153	1187.970	882.433
251.161	15.247	1186.935	882.079
252.176	15.302	1186.141	881.703
253.190	15.253	1185.607	880.969
254.205	15.256	1185.666	880.949
255.220	15.276	1184.839	880.365
256.234	15.265	1183.997	879.599
257.249	15.430	1182.678	879.406
258.263	15.427	1182.172	878.937
259.278	15.382	1181.967	878.472
260.293	15.379	1181.383	877.945
261.307	15.610	1180.251	878.235
262.322	15.432	1179.908	876.973
263.336	15.478	1179.090	876.524
264.351	15.519	1178.491	876.217
265.366	15.445	1178.213	875.547
266.380	15.545	1177.216	875.248
267.395	15.558	1176.332	874.583
268.409	15.552	1175.611	873.935
269.424	15.519	1174.968	873.213
270.439	15.562	1174.413	872.947
271.453	15.565	1173.791	872.420
272.468	15.482	1172.748	871.136
273.482	15.477	1172.457	870.817
274.497	15.565	1171.570	870.538
275.512	15.624	1170.669	870.097
276.526	15.612	1170.093	869.531
277.541	15.583	1169.172	868.617
278.555	15.676	1168.191	868.292
279.570	15.732	1167.490	867.987
280.585	15.837	1166.672	867.844
281.599	15.857	1165.711	867.153
282.614	15.779	1164.564	865.824
283.628	15.761	1163.576	864.920
284.643	15.673	1163.184	864.098
285.657	15.700	1161.863	863.178
286.672	15.774	1160.912	862.775
287.687	15.752	1160.164	862.033
288.701	15.878	1159.563	862.152
289.716	15.863	1158.668	861.333
290.730	15.833	1157.937	860.561
291.745	15.745	1157.281	859.547
292.760	15.852	1156.797	859.657
293.774	15.897	1156.086	859.285
294.789	15.961	1155.272	858.930
295.803	15.888	1154.675	858.038
296.818	15.864	1154.108	857.419
297.833	15.942	1153.147	857.024
298.847	15.998	1152.307	856.610
299.862	15.985	1151.699	856.015
300.876	15.968	1151.594	855.776
301.891	16.159	1150.200	855.634
302.906	16.136	1149.608	855.000
303.920	16.018	1148.788	853.719
304.935	16.133	1148.144	853.746
305.949	16.073	1147.792	853.104
306.964	16.097	1147.020	852.575
307.979	16.159	1146.159	852.173
308.993	16.125	1145.429	851.383
310.008	16.275	1144.241	851.185
311.022	16.102	1144.035	850.079
312.037	16.203	1142.827	849.618
313.052	16.212	1141.655	848.717
314.066	16.212	1141.116	848.238
315.081	16.133	1140.358	847.207
316.095	16.283	1139.269	847.072
317.110	16.204	1138.594	846.098
318.125	16.307	1137.961	846.070
319.139	16.293	1137.159	845.333
320.154	16.245	1136.438	844.478
321.168	16.224	1136.193	844.116
322.183	16.281	1135.185	843.579
323.197	16.358	1134.521	843.393
324.212	16.241	1134.033	842.372
325.227	16.401	1133.633	842.801
326.241	16.306	1133.319	842.019
327.256	16.272	1132.365	841.065
328.270	16.322	1131.291	840.440
329.285	16.230	1130.543	839.355
330.300	16.399	1129.301	839.196
331.314	16.372	1128.072	838.074
332.329	16.345	1127.398	837.366
333.343	16.417	1126.403	836.911
334.358	16.339	1125.778	835.989
335.373	16.371	1125.076	835.550
336.387	16.359	1124.344	834.874
337.402	16.505	1123.673	835.022
338.416	16.466	1122.731	834.054
339.431	16.599	1121.925	834.037
340.446	16.688	1121.712	834.247
341.460	16.550	1121.006	832.966
342.475	16.636	1119.949	832.531
343.489	16.665	1119.069	831.944
344.504	16.681	1117.834	831.034
345.519	16.669	1117.139	830.381
346.533	16.723	1116.603	830.179
347.548	16.734	1115.779	829.544
348.562	16.669	1114.885	828.490
349.577	16.677	1113.928	827.744
350.592	16.692	1113.321	827.290
351.606	16.771	1112.427	826.939
352.621	16.720	1111.629	826.024
353.635	16.669	1111.558	825.648
354.650	16.664	1110.713	824.925
355.665	16.779	1109.476	824.491
356.679	16.890	1109.149	824.718
357.694	16.851	1108.318	823.838
358.708	16.802	1107.565	822.966
359.723	16.974	1106.916	823.245
360.738	16.817	1106.614	822.187
361.752	16.779	1105.986	821.462
362.767	16.781	1105.730	821.211
363.781	16.868	1104.806	820.871
364.796	16.897	1104.473	820.691
365.810	17.055	1103.217	820.451
366.825	16.955	1102.776	819.566
367.840	17.159	1102.082	819.961
368.854	17.073	1101.786	819.255
369.869	17.024	1101.311	818.594
370.883	17.094	1100.041	817.916
371.898	17.100	1099.228	817.264
372.913	17.106	1098.847	816.938
373.927	17.120	1098.235	816.478
374.942	17.192	1097.955	816.546
375.956	17.198	1097.123	815.883
376.971	17.100	1096.725	815.043
377.986	17.192	1095.749	814.690
379.000	17.324	1094.908	814.624
380.015	17.364	1094.494	814.435
381.029	17.276	1094.344	813.831
382.044	17.300	1093.346	813.129
383.059	17.335	1092.789	812.813
384.073	17.329	1091.889	812.042
385.088	17.377	1091.048	811.573
386.102	17.326	1090.054	810.519
387.117	17.345	1088.672	809.508
388.132	17.264	1088.181	808.688
389.146	17.401	1086.970	808.367
390.161	17.418	1086.381	807.939
391.175	17.365	1085.769	807.159
392.190	17.422	1084.935	806.737
393.205	17.513	1084.150	806.517
394.219	17.484	1083.285	805.661
395.234	17.544	1082.298	805.143
396.248	17.527	1081.343	804.280
397.263	17.543	1080.152	803.397
398.278	17.465	1080.204	802.996
399.292	17.422	1079.887	802.487
400.307	17.394	1078.853	801.515
401.321	17.499	1077.602	801.012
402.336	17.388	1077.317	800.207
403.350	17.412	1076.495	799.635
404.365	17.513	1076.050	799.710
405.380	17.440	1075.255	798.707
406.394	17.465	1074.587	798.257
407.409	17.671	1073.405	798.271
408.423	17.642	1072.867	797.665
409.438	17.714	1071.908	797.220
410.453	17.779	1071.223	796.944
411.467	17.793	1070.694	796.547
412.482	17.795	1070.333	796.214
413.496	17.832	1069.439	795.653
414.511	17.809	1068.840	795.028
415.526	17.832	1068.627	794.905
416.540	17.945	1068.069	794.947
417.555	17.896	1067.481	794.214
418.569	17.919	1067.093	793.959
419.584	17.872	1066.427	793.177
420.599	17.866	1065.833	792.638
421.613	109.934	1332.648	1492.914
422.628	101.671	1371.453	1493.000
