DTS Sentinel unit serial number:	SN413079Multiplexer serial number:	ORYXHardware model number:	OX4-SRSoftware version number:	ORYX F/W v4.00 Oryx Data Collector v3.7.2.0data status	okinstallation	princeton_trtdifferential loss correction	single-endedforward channel	channel 2reverse channel	N/Adate	2019/09/11time	19:37:10forward acquisition time	60.00reverse acquisition time	0.00gamma	496.2192k internal	0.2306k external	0.2306temperature offset calibration	1.0050default loss term (dB/km)	0.3790temperature slope calibration	1.0000multiplexer offset coefficient	1.0000multiplexer slope coefficient	1.0000fibre end	0.00T internal ref (°C)	40.00T ext. ref 1 (°C)	1.33T ext. ref 2 (°C)	32.28length (m)	temperature (°C)	Stokes	anti-Stokes-747.200	800.000	0.036	-0.133
-746.185	57.751	-0.217	0.216
-745.171	104.801	-0.016	-0.020
-744.156	14.079	0.257	0.204
-743.142	-200.000	0.066	-0.484
-742.127	800.000	-0.094	0.275
-741.112	383.779	-0.137	0.286
-740.098	-200.000	-0.032	0.271
-739.083	-43.982	0.231	-0.118
-738.069	-40.283	0.184	-0.097
-737.054	109.764	-0.202	0.246
-736.039	222.641	-0.162	0.266
-735.025	398.378	0.090	-0.192
-734.010	17.665	-0.307	0.248
-732.996	-74.274	-0.525	0.193
-731.981	92.084	-0.242	-0.278
-730.966	-152.835	0.185	-0.013
-729.952	307.326	-0.102	0.193
-728.937	618.564	-0.076	-0.195
-727.923	128.793	-0.042	0.054
-726.908	-153.993	-0.121	0.008
-725.894	-79.738	0.214	-0.073
-724.879	-110.894	-0.063	-0.013
-723.864	121.539	0.118	-0.150
-722.850	34.278	0.163	-0.145
-721.835	-99.909	-0.476	-0.121
-720.821	-121.090	-0.114	-0.019
-719.806	-64.929	-0.205	-0.084
-718.791	-53.845	-0.165	-0.077
-717.777	485.715	-0.072	-0.166
-716.762	-200.000	0.159	0.000
-715.748	-29.032	-0.099	0.058
-714.733	518.911	0.100	-0.239
-713.718	601.860	0.122	-0.309
-712.704	60.385	-0.101	-0.102
-711.689	-153.963	0.239	0.017
-710.675	-200.000	-0.048	-0.260
-709.660	68.886	-0.276	0.288
-708.645	-176.478	-0.235	-0.006
-707.631	-46.826	0.159	0.079
-706.616	517.759	-0.047	0.112
-705.602	48.740	-0.101	0.096
-704.587	-42.790	-0.195	0.100
-703.572	-102.758	-0.288	0.070
-702.558	23.305	0.193	0.161
-701.543	-142.213	-0.286	-0.029
-700.529	98.887	-0.086	0.101
-699.514	-200.000	0.019	0.095
-698.499	-89.707	-0.186	-0.055
-697.485	800.000	-0.061	-0.257
-696.470	648.914	0.016	0.041
-695.456	-58.628	0.267	-0.117
-694.441	90.280	-0.194	-0.221
-693.426	180.783	0.107	0.160
-692.412	206.851	-0.033	0.052
-691.397	173.450	0.179	-0.263
-690.383	-70.626	0.124	0.048
-689.368	-200.000	0.032	-0.275
-688.354	45.582	-0.151	0.142
-687.339	-200.000	-0.055	0.247
-686.324	-200.000	0.074	-0.361
-685.310	-120.740	-0.040	0.007
-684.295	141.944	0.129	0.173
-683.281	-177.722	-0.132	0.003
-682.266	-200.000	0.053	-0.375
-681.251	-200.000	0.028	-0.268
-680.237	13.609	0.094	0.074
-679.222	-25.867	0.364	0.218
-678.208	-200.000	-0.233	0.001
-677.193	-34.135	0.098	0.055
-676.178	-3.846	-0.118	0.083
-675.164	-0.515	-0.142	-0.102
-674.149	-112.530	-0.315	-0.064
-673.135	-122.095	0.198	-0.033
-672.120	131.104	0.077	0.100
-671.105	312.815	0.044	-0.084
-670.091	-73.703	-0.090	0.033
-669.076	179.320	-0.143	0.213
-668.062	800.000	-0.016	0.063
-667.047	136.856	-0.142	0.189
-666.032	18.378	0.401	-0.325
-665.018	194.601	0.083	-0.128
-664.003	800.000	0.078	0.231
-662.989	-87.053	0.273	-0.084
-661.974	-76.830	-0.302	0.107
-660.959	201.007	0.139	-0.217
-659.945	155.171	-0.095	-0.132
-658.930	60.925	0.150	-0.151
-657.916	-18.795	0.361	-0.228
-656.901	413.859	-0.252	-0.543
-655.886	-27.739	0.088	-0.052
-654.872	-200.000	-0.038	0.221
-653.857	-136.237	-0.256	-0.030
-652.843	-49.706	-0.253	0.122
-651.828	649.693	-0.121	-0.313
-650.814	107.868	0.094	-0.114
-649.799	30.411	-0.237	-0.205
-648.784	-26.215	-0.222	0.132
-647.770	-83.817	-0.364	-0.118
-646.755	508.583	0.123	0.290
-645.741	-200.000	-0.017	-0.119
-644.726	195.017	0.019	-0.030
-643.711	-122.005	0.056	0.009
-642.697	93.976	0.155	-0.178
-641.682	-200.000	0.022	0.325
-640.668	800.000	-0.123	0.437
-639.653	-200.000	0.005	0.127
-638.638	-21.181	0.180	0.112
-637.624	800.000	-0.009	-0.032
-636.609	-99.947	0.338	0.085
-635.595	130.071	0.067	-0.087
-634.580	-140.133	-0.278	0.030
-633.565	-200.000	0.026	0.131
-632.551	28.407	0.168	0.144
-631.536	-200.000	0.338	0.000
-630.522	22.680	-0.281	0.233
-629.507	-136.260	-0.295	0.035
-628.492	-82.617	-0.110	0.036
-627.478	-200.000	0.012	-0.062
-626.463	209.284	-0.083	0.132
-625.449	-200.000	-0.026	0.193
-624.434	-200.000	-0.071	0.345
-623.419	6.626	0.272	-0.205
-622.405	218.817	-0.190	-0.308
-621.390	-39.551	0.177	-0.094
-620.376	462.734	0.211	-0.476
-619.361	-2.112	-0.145	-0.103
-618.346	-200.000	0.004	-0.064
-617.332	53.599	0.129	0.126
-616.317	-117.539	0.071	0.013
-615.303	226.065	-0.114	0.187
-614.288	-54.633	0.065	-0.030
-613.273	156.300	-0.087	0.121
-612.259	-200.000	0.038	-0.294
-611.244	-148.857	0.368	0.030
-610.230	-65.632	0.475	0.193
-609.215	-146.633	0.168	-0.015
-608.201	-47.068	0.212	0.105
-607.186	800.000	-0.088	-0.314
-606.171	-82.323	0.057	0.019
-605.157	-24.446	-0.024	0.014
-604.142	-15.345	-0.285	-0.184
-603.128	800.000	0.080	0.242
-602.113	99.011	-0.212	-0.248
-601.098	-156.584	0.141	-0.009
-600.084	59.498	-0.091	-0.091
-599.069	-14.748	-0.077	-0.050
-598.055	372.103	0.094	0.194
-597.040	449.748	-0.064	0.143
-596.025	-200.000	-0.015	-0.266
-595.011	20.277	-0.136	0.111
-593.996	340.828	-0.059	0.117
-592.982	-44.084	-0.231	-0.117
-591.967	800.000	0.078	-0.250
-590.952	800.000	-0.078	-0.240
-589.938	-46.442	0.142	-0.070
-588.923	35.298	0.130	-0.116
-587.909	800.000	-0.112	0.314
-586.894	-200.000	-0.005	0.076
-585.879	-149.670	0.298	0.024
-584.865	19.586	-0.065	-0.053
-583.850	-113.495	-0.218	0.043
-582.836	800.000	0.134	0.401
-581.821	-161.707	0.173	-0.009
-580.806	307.768	0.195	0.368
-579.792	70.212	0.085	-0.088
-578.777	-133.090	0.107	-0.014
-577.763	717.156	0.215	-0.576
-576.748	-200.000	-0.053	-0.257
-575.733	25.745	-0.141	-0.119
-574.719	-173.159	0.099	-0.003
-573.704	-200.000	-0.004	0.112
-572.690	-112.017	-0.147	0.030
-571.675	-141.736	0.403	0.041
-570.661	-200.000	0.016	-0.135
-569.646	-134.041	0.135	0.017
-568.631	800.000	0.106	-0.333
-567.617	800.000	-0.051	0.209
-566.602	143.515	0.049	-0.066
-565.588	-200.000	0.010	-0.184
-564.573	-33.631	-0.257	0.143
-563.558	24.476	0.185	-0.154
-562.544	82.793	0.013	-0.014
-561.529	800.000	-0.101	-0.335
-560.515	-64.915	0.174	0.071
-559.500	-200.000	0.020	0.123
-558.485	119.223	-0.116	0.144
-557.471	-200.000	0.030	-0.239
-556.456	331.929	0.166	0.323
-555.442	134.769	-0.182	0.239
-554.427	-0.648	-0.300	-0.215
-553.412	-34.392	-0.385	0.213
-552.398	223.210	-0.124	-0.203
-551.383	243.143	0.127	0.216
-550.369	800.000	0.059	0.246
-549.354	137.971	0.123	0.163
-548.339	192.343	-0.064	0.098
-547.325	341.037	0.119	0.235
-546.310	34.413	-0.140	-0.123
-545.296	169.265	-0.151	-0.217
-544.281	-128.979	0.194	0.027
-543.266	-36.999	-0.318	-0.172
-542.252	157.866	0.112	-0.157
-541.237	-103.091	0.159	0.038
-540.223	-200.000	0.020	-0.198
-539.208	-31.049	0.210	0.119
-538.193	20.870	0.179	-0.146
-537.179	148.816	-0.190	0.259
-536.164	-57.619	0.129	0.057
-535.150	-200.000	-0.003	-0.288
-534.135	800.000	0.089	-0.307
-533.121	-84.380	-0.172	0.055
-532.106	38.918	-0.259	-0.234
-531.091	522.994	-0.051	-0.122
-530.077	-200.000	0.010	-0.209
-529.062	800.000	0.118	-0.364
-528.048	363.754	-0.217	-0.440
-527.033	439.254	-0.098	-0.215
-526.018	144.981	0.095	-0.128
-525.004	-161.823	-0.313	-0.016
-523.989	-100.594	0.335	-0.083
-522.975	-15.207	-0.358	0.231
-521.960	800.000	-0.047	0.182
-520.945	392.152	-0.141	-0.296
-519.931	14.242	-0.160	0.126
-518.916	-9.606	0.333	0.224
-517.902	80.775	0.187	0.203
-516.887	605.478	-0.102	0.255
-515.872	-146.429	0.042	-0.004
-514.858	800.000	0.032	-0.138
-513.843	543.397	-0.056	0.135
-512.829	149.461	-0.141	-0.192
-511.814	-67.347	-0.339	-0.134
-510.799	800.000	-0.020	-0.067
-509.785	-12.030	-0.227	-0.150
-508.770	107.236	0.159	0.191
-507.756	-34.816	-0.145	0.080
-506.741	373.324	0.058	0.119
-505.726	454.670	-0.028	0.064
-504.712	800.000	0.065	0.190
-503.697	124.799	0.189	-0.240
-502.683	-8.572	-0.194	-0.131
-501.668	50.906	-0.139	-0.132
-500.653	-58.036	-0.127	-0.056
-499.639	46.546	0.093	-0.087
-498.624	-7.798	-0.046	-0.031
-497.610	61.275	-0.228	-0.229
-496.595	36.988	0.241	0.215
-495.581	-139.287	0.062	0.007
-494.566	99.724	0.095	0.111
-493.551	180.603	-0.116	-0.171
-492.537	3.431	0.075	-0.055
-491.522	-144.289	-0.222	-0.021
-490.508	-200.000	-0.011	-0.113
-489.493	-118.270	0.533	-0.096
-488.478	-63.890	0.024	-0.010
-487.464	-200.000	-0.013	-0.129
-486.449	800.000	-0.079	-0.343
-485.435	201.014	-0.204	0.315
-484.420	-54.508	-0.055	0.025
-483.405	342.289	0.059	-0.116
-482.391	55.144	0.135	0.132
-481.376	624.860	-0.100	0.254
-480.362	-33.746	-0.165	0.091
-479.347	572.112	0.042	0.102
-478.332	-95.825	0.182	-0.049
-477.318	-48.061	0.099	-0.048
-476.303	245.606	-0.139	-0.235
-475.289	-177.802	0.284	0.007
-474.274	-6.001	0.362	-0.249
-473.259	-200.000	-0.046	0.225
-472.245	-43.481	-0.042	0.021
-471.230	-95.626	-0.094	0.025
-470.216	81.109	-0.105	-0.114
-469.201	-154.948	0.249	0.017
-468.186	-200.000	0.013	0.146
-467.172	163.126	0.124	-0.176
-466.157	-200.000	0.012	-0.116
-465.143	-52.299	0.056	0.026
-464.128	564.615	0.139	0.339
-463.113	800.000	0.037	0.135
-462.099	800.000	-0.030	0.098
-461.084	-136.898	-0.057	0.007
-460.070	-200.000	0.030	-0.285
-459.055	-200.000	0.051	0.412
-458.040	-150.896	0.345	-0.026
-457.026	-155.631	-0.154	0.010
-456.011	174.338	0.264	-0.384
-454.997	93.539	0.062	0.071
-453.982	144.465	-0.114	0.153
-452.968	316.750	-0.201	-0.382
-451.953	800.000	0.030	-0.115
-450.938	-132.451	-0.177	-0.023
-449.924	800.000	0.084	0.326
-448.909	-25.322	-0.236	0.141
-447.895	-47.466	0.284	0.139
-446.880	-1.109	0.192	-0.137
-445.865	800.000	0.070	0.216
-444.851	91.663	0.173	-0.196
-443.836	-165.217	-0.240	0.011
-442.822	-44.018	-0.250	-0.126
-441.807	-200.000	-0.015	-0.348
-440.792	800.000	-0.045	0.152
-439.778	-58.082	-0.219	-0.096
-438.763	187.354	-0.109	0.164
-437.749	51.312	0.238	0.228
-436.734	12.870	0.211	0.164
-435.719	89.416	-0.091	-0.102
-434.705	206.246	0.120	0.187
-433.690	311.131	-0.031	-0.059
-432.676	328.431	0.168	0.324
-431.661	-101.172	0.182	-0.045
-430.646	37.063	0.363	0.323
-429.632	-200.000	-0.029	0.330
-428.617	129.644	-0.065	0.083
-427.603	50.795	-0.272	-0.259
-426.588	447.427	0.081	-0.179
-425.573	142.300	-0.313	0.417
-424.559	293.092	0.319	0.585
-423.544	-108.069	-0.048	0.010
-422.530	-128.715	-0.179	-0.025
-421.515	-200.000	-0.042	0.196
-420.500	-200.000	0.064	0.390
-419.486	27.703	-0.202	0.171
-418.471	-200.000	-0.024	-0.177
-417.457	-200.000	-0.019	-0.349
-416.442	92.854	0.070	-0.079
-415.428	131.108	-0.157	-0.202
-414.413	62.494	0.108	-0.108
-413.398	569.988	0.042	-0.102
-412.384	-130.720	0.207	-0.028
-411.369	800.000	0.040	0.150
-410.355	651.159	0.077	-0.199
-409.340	-123.950	-0.270	0.043
-408.325	366.867	-0.097	-0.196
-407.311	180.212	0.299	0.440
-406.296	10.969	0.081	0.062
-405.282	-80.261	-0.128	0.043
-404.267	155.501	-0.066	-0.091
-403.252	800.000	-0.040	-0.128
-402.238	192.617	-0.038	-0.057
-401.223	687.507	0.019	-0.050
-400.209	-200.000	0.003	0.350
-399.194	-87.352	0.081	-0.025
-398.179	800.000	-0.021	0.078
-397.165	800.000	0.067	0.194
-396.150	232.347	0.084	0.138
-395.136	-200.000	0.017	0.242
-394.121	800.000	-0.096	-0.292
-393.106	-85.186	-0.239	0.075
-392.092	97.219	-0.099	-0.114
-391.077	-118.476	0.462	-0.082
-390.063	6.235	0.365	-0.271
-389.048	71.805	0.172	-0.179
-388.033	-121.057	0.310	-0.052
-387.019	-14.238	-0.394	-0.255
-386.004	89.063	-0.195	-0.218
-384.990	-130.927	0.188	0.025
-383.975	656.339	0.038	0.098
-382.960	91.689	0.022	-0.025
-381.946	215.650	0.103	0.165
-380.931	-200.000	-0.027	-0.137
-379.917	-9.992	-0.134	-0.089
-378.902	87.680	-0.194	0.215
-377.888	-132.291	0.266	0.034
-376.873	-22.217	0.150	0.091
-375.858	-138.728	-0.402	0.044
-374.844	800.000	0.052	0.161
-373.829	727.307	0.084	-0.225
-372.815	-64.616	0.178	-0.072
-371.800	800.000	-0.049	0.138
-370.785	-198.022	-0.429	-0.003
-369.771	427.954	-0.087	-0.187
-368.756	418.198	0.068	-0.147
-367.742	-140.398	-0.213	0.022
-366.727	100.661	0.119	-0.139
-365.712	-68.994	-0.432	-0.167
-364.698	-122.399	0.051	-0.008
-363.683	-61.705	-0.063	0.027
-362.669	127.015	-0.128	0.162
-361.654	616.634	-0.066	0.166
-360.639	-148.017	0.082	-0.007
-359.625	89.798	0.020	-0.023
-358.610	145.135	0.094	-0.125
-357.596	67.269	0.177	-0.181
-356.581	-70.632	-0.083	-0.032
-355.566	800.000	-0.029	-0.102
-354.552	40.875	-0.057	0.052
-353.537	-76.581	-0.208	0.073
-352.523	-34.539	-0.132	0.072
-351.508	800.000	0.094	-0.289
-350.493	31.992	0.077	0.067
-349.479	-127.263	0.044	0.006
-348.464	-200.000	-0.001	-0.032
-347.450	221.678	0.089	-0.144
-346.435	-200.000	-0.038	-0.315
-345.420	10.820	-0.292	-0.224
-344.406	-200.000	0.037	-0.285
-343.391	176.144	0.052	0.076
-342.377	45.227	-0.323	-0.298
-341.362	98.063	0.100	-0.116
-340.348	-200.000	-0.003	-0.056
-339.333	222.440	-0.060	0.096
-338.318	73.952	-0.328	-0.344
-337.304	-91.108	-0.302	-0.087
-336.289	-200.000	0.009	-0.261
-335.275	-169.541	-0.290	0.011
-334.260	32.211	-0.198	-0.171
-333.245	193.788	0.156	0.236
-332.231	800.000	0.034	0.101
-331.216	-19.038	-0.263	-0.164
-330.202	-119.231	-0.378	0.066
-329.187	-200.000	0.013	0.072
-328.172	-168.181	0.264	-0.010
-327.158	-200.000	-0.012	-0.123
-326.143	334.862	0.187	-0.363
-325.129	53.523	0.230	0.221
-324.114	800.000	-0.097	0.294
-323.099	80.331	0.281	0.302
-322.085	800.000	-0.056	-0.164
-321.070	107.816	-0.137	-0.164
-320.056	-118.203	-0.165	-0.029
-319.041	-11.879	-0.069	-0.045
-318.026	44.070	0.133	-0.122
-317.012	-73.226	-0.165	0.060
-315.997	-200.000	0.002	0.325
-314.983	21.769	0.323	-0.263
-313.968	-100.706	0.044	0.011
-312.953	32.970	0.202	0.175
-311.939	196.279	-0.187	0.285
-310.924	800.000	0.025	-0.105
-309.910	-121.823	0.136	-0.022
-308.895	64.419	0.079	0.080
-307.880	-200.000	-0.029	-0.281
-306.866	-89.086	0.121	-0.036
-305.851	-102.659	0.169	0.040
-304.837	800.000	-0.133	-0.379
-303.822	-74.564	-0.191	0.069
-302.807	25.166	-0.177	-0.147
-301.793	57.370	-0.126	0.123
-300.778	-91.428	0.101	-0.029
-299.764	-157.543	0.188	0.011
-298.749	-200.000	0.068	0.301
-297.735	617.130	-0.068	-0.170
-296.720	728.986	-0.107	0.287
-295.705	800.000	-0.029	0.114
-294.691	-174.891	0.250	0.007
-293.676	348.143	0.076	-0.150
-292.662	-24.730	-0.380	-0.226
-291.647	150.634	0.126	-0.172
-290.632	-88.615	0.122	-0.036
-289.618	78.591	0.121	0.129
-288.603	134.976	0.270	0.351
-287.589	90.850	-0.190	0.213
-286.574	-61.057	-0.370	-0.156
-285.559	-84.118	-0.175	-0.055
-284.545	-2.188	0.179	-0.125
-283.530	121.879	-0.103	0.128
-282.516	-200.000	-0.095	0.485
-281.501	-200.000	0.039	0.190
-280.486	-81.727	-0.225	0.074
-279.472	-38.183	0.360	0.191
-278.457	37.626	0.177	-0.157
-277.443	-119.645	0.109	0.019
-276.428	245.646	0.195	0.329
-275.413	81.128	0.094	-0.102
-274.399	385.968	0.036	0.074
-273.384	-121.363	-0.272	0.045
-272.370	488.741	-0.083	-0.189
-271.355	-121.065	-0.110	0.019
-270.340	761.845	-0.015	0.040
-269.326	-200.000	0.013	0.300
-268.311	800.000	-0.096	0.375
-267.297	305.382	0.079	0.146
-266.282	-100.828	-0.090	0.022
-265.267	24.490	-0.140	-0.116
-264.253	-139.308	-0.109	-0.012
-263.238	-200.000	0.016	0.142
-262.224	-200.000	-0.014	-0.165
-261.209	800.000	-0.052	-0.149
-260.195	-145.241	0.370	0.033
-259.180	16.236	-0.149	-0.117
-258.165	-2.539	-0.263	0.184
-257.151	70.728	0.137	0.142
-256.136	-97.246	-0.119	0.031
-255.122	69.659	0.170	0.175
-254.107	393.550	-0.164	0.341
-253.092	-128.488	0.247	0.035
-252.078	-200.000	0.044	-0.239
-251.063	800.000	0.070	-0.204
-250.049	165.938	-0.108	-0.153
-249.034	210.004	0.025	0.039
-248.019	-46.084	-0.216	-0.106
-247.005	273.658	0.107	0.189
-245.990	356.325	0.167	0.332
-244.976	9.509	-0.214	0.161
-243.961	-48.349	0.146	-0.070
-242.946	800.000	-0.044	0.168
-241.932	-200.000	0.017	0.260
-240.917	684.842	0.049	-0.128
-239.903	-69.792	-0.196	0.074
-238.888	-143.840	0.373	0.035
-237.873	-200.000	0.004	0.052
-236.859	70.017	-0.167	0.172
-235.844	78.952	-0.065	0.069
-234.830	-200.000	-0.000	0.358
-233.815	-136.974	-0.085	0.010
-232.800	36.384	-0.307	-0.270
-231.786	-6.084	0.128	-0.087
-230.771	455.097	0.127	0.280
-229.757	-200.000	-0.011	-0.137
-228.742	725.099	0.004	0.010
-227.727	90.351	0.152	0.169
-226.713	-125.579	-0.333	-0.050
-225.698	800.000	0.049	-0.141
-224.684	37.157	0.428	0.378
-223.669	-200.000	-0.000	0.056
-222.655	-10.258	0.132	0.088
-221.640	-53.602	-0.232	-0.106
-220.625	800.000	-0.012	0.040
-219.611	-110.772	0.421	0.087
-218.596	77.946	0.290	0.309
-217.582	111.259	-0.018	-0.022
-216.567	-200.000	0.076	-0.335
-215.552	-81.404	0.256	-0.084
-214.538	243.231	0.082	-0.138
-213.523	115.380	-0.215	0.261
-212.509	597.219	-0.030	0.075
-211.494	800.000	-0.067	0.205
-210.479	653.098	0.090	-0.230
-209.465	-144.515	-0.166	0.015
-208.450	-144.775	-0.398	0.036
-207.436	437.627	0.079	-0.171
-206.421	16.147	0.183	0.144
-205.406	83.325	-0.134	0.145
-204.392	-188.648	0.299	0.004
-203.377	62.122	-0.146	0.146
-202.363	-24.384	-0.293	-0.174
-201.348	-17.526	-0.139	-0.087
-200.333	-108.884	0.194	0.041
-199.319	-132.342	-0.071	0.009
-198.304	612.583	-0.026	0.064
-197.290	-200.000	0.022	0.157
-196.275	191.808	-0.184	0.276
-195.260	-200.000	-0.020	0.118
-194.246	-161.098	0.099	0.005
-193.231	-193.986	0.102	-0.001
-192.217	-200.000	-0.034	-0.262
-191.202	44.909	-0.071	-0.065
-190.187	279.198	0.100	-0.177
-189.173	800.000	-0.039	-0.160
-188.158	71.740	0.212	0.219
-187.144	800.000	0.063	-0.246
-186.129	663.310	-0.055	-0.141
-185.114	-82.905	0.373	-0.120
-184.100	-111.196	-0.025	0.005
-183.085	-40.461	0.084	-0.043
-182.071	25.702	0.199	-0.165
-181.056	74.162	-0.026	-0.027
-180.042	-108.250	-0.173	-0.037
-179.027	-72.427	0.115	-0.042
-178.012	800.000	-0.116	0.336
-176.998	82.154	-0.143	-0.154
-175.983	-200.000	-0.007	-0.070
-174.969	174.750	-0.118	0.170
-173.954	146.793	-0.161	-0.215
-172.939	-121.868	-0.045	0.007
-171.925	-98.251	0.314	-0.080
-170.910	-200.000	0.016	-0.328
-169.896	800.000	-0.125	0.389
-168.881	-76.091	0.230	-0.081
-167.866	59.449	-0.159	0.156
-166.852	-85.530	-0.072	-0.022
-165.837	-81.057	-0.291	0.096
-164.823	-112.461	0.259	0.051
-163.808	-200.000	-0.042	-0.204
-162.793	-200.000	0.030	-0.224
-161.779	-57.904	-0.199	-0.086
-160.764	-129.569	-0.401	0.055
-159.750	-33.229	0.091	0.050
-158.735	105.601	0.047	0.055
-157.720	41.518	0.141	-0.127
-156.706	307.305	-0.121	0.225
-155.691	-200.000	0.068	-0.484
-154.677	-70.812	0.095	0.035
-153.662	284.980	-0.090	-0.160
-152.647	-5.052	0.046	0.032
-151.633	-141.561	-0.047	0.005
-150.618	-170.497	0.477	0.017
-149.604	-200.000	-0.002	0.047
-148.589	-200.000	0.004	-0.466
-147.574	120.321	0.057	-0.070
-146.560	-92.692	-0.208	0.058
-145.545	87.116	-0.110	0.121
-144.531	-75.560	-0.363	0.128
-143.516	-8.694	0.332	0.221
-142.502	-67.929	-0.350	-0.136
-141.487	-23.370	0.308	-0.184
-140.472	47.379	0.117	-0.108
-139.458	-82.439	-0.351	-0.113
-138.443	220.271	-0.073	0.117
-137.429	-101.586	0.193	0.047
-136.414	261.063	0.201	-0.346
-135.399	-200.000	-0.035	-0.364
-134.385	-190.782	0.066	-0.001
-133.370	-200.000	-0.017	0.130
-132.356	419.163	0.071	-0.151
-131.341	172.364	0.092	-0.131
-130.326	-109.540	0.252	-0.053
-129.312	-200.000	-0.002	0.014
-128.297	31.978	-0.133	0.114
-127.283	800.000	-0.013	0.042
-126.268	-73.717	-0.238	-0.086
-125.253	402.809	-0.112	-0.233
-124.239	313.149	0.056	-0.105
-123.224	-35.271	0.105	-0.057
-122.210	-186.963	0.374	-0.005
-121.195	-200.000	0.019	-0.291
-120.180	-80.032	0.275	-0.092
-119.166	-200.000	0.020	-0.288
-118.151	194.735	-0.190	-0.287
-117.137	178.338	-0.139	-0.202
-116.122	-78.099	0.254	-0.087
-115.107	152.503	0.108	0.147
-114.093	573.279	-0.098	0.238
-113.078	-26.266	0.073	-0.042
-112.064	173.867	0.035	-0.050
-111.049	243.520	-0.081	-0.135
-110.034	-53.326	-0.261	-0.119
-109.020	497.258	-0.042	0.097
-108.005	4.305	0.315	0.229
-106.991	-18.880	0.251	0.155
-105.976	800.000	-0.052	0.152
-104.962	182.157	-0.068	0.100
-103.947	-200.000	-0.023	0.443
-102.932	31.012	0.094	-0.080
-101.918	141.637	-0.134	-0.177
-100.903	-174.699	-0.149	-0.004
-99.889	413.785	0.071	0.149
-98.874	26.564	-0.278	0.231
-97.859	298.737	0.141	0.257
-96.845	-48.225	-0.147	0.070
-95.830	-199.130	0.343	0.002
-94.816	-200.000	0.020	-0.288
-93.801	30.296	-0.138	-0.117
-92.786	-200.000	-0.058	0.384
-91.772	48.322	0.173	0.161
-90.757	206.418	0.054	-0.083
-89.743	236.516	-0.041	0.067
-88.728	800.000	0.055	0.227
-87.713	98.526	-0.125	-0.143
-86.699	-200.000	0.010	-0.128
-85.684	-200.000	0.039	-0.574
-84.670	-20.736	-0.144	0.087
-83.655	773.717	-0.054	0.145
-82.640	108.653	0.250	0.296
-81.626	-43.578	0.173	0.087
-80.611	364.840	0.182	0.363
-79.597	800.000	-0.016	0.067
-78.582	101.900	0.159	0.184
-77.567	535.175	-0.041	-0.098
-76.553	800.000	0.066	-0.245
-75.538	-106.441	0.083	0.018
-74.524	444.844	0.159	0.346
-73.509	-177.010	0.308	-0.008
-72.494	7.524	0.270	-0.200
-71.480	-162.050	0.224	0.011
-70.465	100.326	0.098	-0.113
-69.451	-81.935	-0.137	0.045
-68.436	41.437	-0.118	0.106
-67.422	580.945	-0.153	0.372
-66.407	-164.778	0.383	-0.017
-65.392	800.000	0.037	0.123
-64.378	56.052	-0.118	-0.113
-63.363	271.179	-0.047	0.082
-62.349	339.118	0.137	0.264
-61.334	202.767	-0.570	-0.873
-60.319	69.798	0.494	0.505
-59.305	677.913	-0.233	-0.599
-58.290	225.386	0.509	0.817
-57.276	308.035	0.885	1.635
-56.261	-200.000	80.818	494.388
-55.246	514.422	1329.407	3072.144
-54.232	151.269	2554.796	3443.419
-53.217	108.477	2324.391	2747.831
-52.203	48.738	1943.852	1805.194
-51.188	43.188	1731.507	1565.024
-50.173	40.431	1685.619	1502.625
-49.159	54.607	1723.849	1645.495
-48.144	59.676	1742.594	1702.119
-47.130	43.108	1704.526	1539.785
-46.115	40.079	1689.969	1503.587
-45.100	39.867	1685.637	1498.060
-44.086	39.940	1682.775	1496.015
-43.071	39.895	1680.206	1493.326
-42.057	39.873	1678.034	1491.172
-41.042	39.825	1676.016	1488.961
-40.027	39.886	1674.163	1487.713
-39.013	39.886	1672.332	1486.024
-37.998	39.852	1670.975	1484.509
-36.984	39.865	1669.709	1483.419
-35.969	40.044	1667.544	1482.783
-34.954	40.102	1666.135	1481.903
-33.940	40.046	1664.164	1479.672
-32.925	39.979	1662.410	1477.550
-31.911	39.964	1661.076	1476.198
-30.896	39.957	1659.151	1474.375
-29.881	40.011	1657.110	1472.906
-28.867	40.016	1655.652	1471.592
-27.852	40.031	1654.295	1470.436
-26.838	40.007	1653.067	1469.106
-25.823	40.001	1651.237	1467.381
-24.809	40.037	1650.344	1466.791
-23.794	40.071	1648.313	1465.184
-22.779	40.061	1646.742	1463.650
-21.765	40.035	1645.545	1462.338
-20.750	39.981	1643.728	1460.266
-19.736	39.999	1642.967	1459.668
-18.721	40.046	1640.948	1458.164
-17.706	39.978	1639.523	1456.339
-16.692	39.941	1638.057	1454.705
-15.677	40.064	1636.674	1454.325
-14.663	40.046	1635.401	1452.999
-13.648	39.964	1634.101	1451.186
-12.633	40.050	1632.389	1450.238
-11.619	40.003	1630.703	1448.337
-10.604	40.034	1628.500	1446.549
-9.590	40.075	1627.754	1446.129
-8.575	40.042	1626.356	1444.591
-7.560	40.054	1625.346	1443.728
-6.546	40.030	1624.233	1442.506
-5.531	39.993	1623.252	1441.306
-4.517	40.107	1621.035	1440.112
-3.502	40.002	1620.304	1438.641
-2.487	40.101	1618.356	1437.572
-1.473	39.513	1606.825	1423.028
-0.458	36.074	1585.061	1379.138
0.556	31.194	1582.202	1336.981
1.571	28.125	1604.935	1333.731
2.586	27.331	1618.938	1339.405
3.600	24.317	1566.156	1274.124
4.615	13.538	1451.041	1108.614
5.629	3.451	1378.873	988.948
6.644	1.514	1368.616	969.164
7.659	1.278	1367.962	967.107
8.673	1.321	1365.837	965.796
9.688	1.218	1364.443	964.068
10.702	0.955	1362.082	960.649
11.717	4.579	1369.445	988.842
12.731	15.102	1389.641	1070.960
13.746	23.410	1403.313	1134.833
14.761	25.085	1405.314	1147.074
15.775	25.399	1405.075	1148.792
16.790	25.354	1404.909	1148.266
17.804	25.459	1404.566	1148.552
18.819	25.619	1404.115	1149.105
19.834	25.752	1402.873	1148.833
20.848	25.776	1402.420	1148.516
21.863	25.765	1401.677	1147.733
22.877	25.789	1401.008	1147.237
23.892	25.706	1399.794	1145.615
24.907	25.762	1399.255	1145.429
25.921	25.806	1397.736	1144.365
26.936	25.841	1396.736	1143.664
27.950	25.835	1395.562	1142.564
28.965	25.798	1394.386	1141.268
29.980	25.731	1393.373	1139.913
30.994	25.817	1391.740	1139.022
32.009	25.779	1390.927	1138.015
33.023	25.777	1389.775	1136.958
34.038	25.857	1388.294	1136.153
35.053	25.844	1387.075	1134.972
36.067	25.755	1386.764	1134.052
37.082	25.820	1385.723	1133.515
38.096	25.771	1384.663	1132.236
39.111	25.808	1383.920	1131.760
40.126	25.707	1383.453	1130.645
41.140	25.700	1383.239	1130.326
42.155	25.716	1382.739	1129.920
43.169	25.821	1382.318	1130.134
44.184	25.670	1382.505	1129.237
45.199	25.771	1381.781	1129.178
46.213	25.853	1380.576	1128.611
47.228	25.813	1380.132	1127.897
48.242	25.689	1379.079	1126.157
49.257	25.834	1377.697	1125.840
50.271	25.796	1376.099	1124.196
51.286	25.750	1375.079	1122.974
52.301	25.713	1373.708	1121.527
53.315	25.699	1373.015	1120.775
54.330	25.774	1371.949	1120.272
55.344	25.841	1370.831	1119.674
56.359	25.772	1369.533	1118.089
57.374	25.727	1368.972	1117.253
58.388	25.784	1368.468	1117.093
59.403	25.727	1368.243	1116.461
60.417	25.761	1367.217	1115.734
61.432	25.797	1366.176	1115.007
62.447	25.772	1365.793	1114.445
63.461	25.793	1364.727	1113.601
64.476	25.738	1363.587	1112.233
65.490	25.811	1362.244	1111.491
66.505	25.784	1360.709	1109.975
67.520	25.840	1359.259	1109.036
68.534	25.840	1358.470	1108.297
69.549	25.850	1357.278	1107.288
70.563	25.726	1356.815	1106.053
71.578	25.803	1355.808	1105.601
72.593	25.689	1355.342	1104.428
73.607	25.789	1354.014	1103.862
74.622	25.794	1353.443	1103.329
75.636	25.876	1352.471	1102.938
76.651	25.778	1351.873	1101.753
77.666	25.836	1351.741	1101.904
78.680	25.818	1351.372	1101.394
79.695	25.767	1350.056	1099.911
80.709	25.856	1349.082	1099.564
81.724	25.836	1348.453	1098.836
82.739	25.789	1347.370	1097.571
83.753	25.749	1346.580	1096.583
84.768	25.699	1345.696	1095.464
85.782	25.770	1344.134	1094.528
86.797	25.864	1343.045	1094.110
87.812	25.849	1341.780	1092.897
88.826	25.824	1340.612	1091.692
89.841	25.846	1339.681	1090.973
90.855	25.807	1338.827	1089.943
91.870	25.766	1338.071	1088.986
92.884	25.849	1337.183	1088.669
93.899	25.943	1336.298	1088.419
94.914	25.864	1335.787	1087.433
95.928	25.827	1335.441	1086.831
96.943	25.897	1334.380	1086.294
97.957	25.767	1334.277	1085.329
98.972	25.851	1332.981	1084.680
99.987	25.811	1332.085	1083.618
101.001	25.847	1330.560	1082.499
102.016	25.923	1329.817	1082.252
103.030	25.883	1329.055	1081.298
104.045	25.837	1328.380	1080.374
105.060	25.866	1327.440	1079.689
106.074	25.798	1326.346	1078.299
107.089	25.938	1324.966	1077.916
108.103	25.761	1324.320	1076.240
109.118	25.961	1322.389	1075.765
110.133	25.950	1321.843	1075.163
111.147	25.987	1320.715	1074.373
112.162	25.914	1319.359	1072.738
113.176	25.889	1318.616	1071.890
114.191	25.894	1317.877	1071.224
115.206	25.854	1316.699	1069.933
116.220	25.885	1315.615	1069.141
117.235	25.897	1315.079	1068.685
118.249	25.892	1313.914	1067.611
119.264	25.935	1313.008	1067.038
120.279	25.942	1312.505	1066.577
121.293	25.977	1311.702	1066.038
122.308	25.995	1310.578	1065.137
123.322	25.939	1309.954	1064.205
124.337	25.966	1309.140	1063.605
125.352	25.961	1308.281	1062.784
126.366	26.095	1307.034	1062.465
127.381	25.932	1306.215	1060.747
128.395	26.004	1305.329	1060.355
129.410	26.016	1304.814	1059.916
130.424	25.952	1304.150	1058.906
131.439	25.973	1302.978	1057.985
132.454	25.879	1302.445	1056.909
133.468	25.973	1301.845	1056.875
134.483	25.936	1301.240	1056.077
135.497	25.927	1300.310	1055.174
136.512	26.011	1298.682	1054.252
137.527	25.962	1298.333	1053.590
138.541	25.953	1296.698	1052.118
139.556	25.920	1295.695	1051.017
140.570	25.910	1294.867	1050.196
141.585	25.967	1293.848	1049.606
142.600	25.966	1292.362	1048.305
143.614	25.977	1292.018	1047.994
144.629	25.892	1291.362	1046.874
145.643	25.864	1289.993	1045.509
146.658	25.925	1288.929	1044.909
147.673	25.888	1287.960	1043.816
148.687	25.989	1286.549	1043.167
149.702	25.895	1285.704	1041.848
150.716	25.879	1284.427	1040.626
151.731	25.925	1283.301	1039.888
152.746	25.965	1282.548	1039.415
153.760	25.989	1281.270	1038.426
154.775	25.999	1280.344	1037.641
155.789	25.979	1279.463	1036.723
156.804	25.922	1279.038	1035.958
157.819	25.801	1278.213	1034.500
158.833	25.927	1277.158	1034.277
159.848	25.962	1276.087	1033.520
160.862	25.974	1275.560	1033.073
161.877	26.032	1274.538	1032.487
162.892	26.038	1273.648	1031.708
163.906	26.075	1272.989	1031.295
164.921	26.009	1272.673	1030.570
165.935	26.063	1271.897	1030.156
166.950	26.111	1270.820	1029.465
167.964	26.037	1270.570	1028.752
168.979	25.965	1270.257	1027.997
169.994	26.030	1269.002	1027.259
171.008	26.155	1268.377	1027.373
172.023	26.026	1267.727	1026.026
173.037	26.160	1266.883	1026.012
174.052	26.035	1266.712	1025.074
175.067	26.035	1265.994	1024.399
176.081	26.035	1264.859	1023.390
177.096	26.004	1263.850	1022.310
178.110	25.972	1263.654	1021.880
179.125	26.060	1262.077	1021.010
180.140	26.139	1260.954	1020.461
181.154	26.106	1259.780	1019.234
182.169	26.106	1258.650	1018.228
183.183	26.061	1257.749	1017.157
184.198	26.155	1256.892	1016.900
185.213	26.123	1255.958	1015.876
186.227	26.163	1255.026	1015.255
187.242	26.163	1253.801	1014.176
188.256	26.189	1252.887	1013.493
189.271	26.185	1252.384	1012.974
190.286	26.225	1251.704	1012.561
191.300	26.064	1251.653	1011.526
192.315	26.107	1251.162	1011.279
193.329	26.251	1249.757	1010.862
194.344	26.097	1249.844	1009.981
195.359	26.101	1249.615	1009.730
196.373	26.195	1248.611	1009.351
197.388	26.069	1248.447	1008.429
198.402	26.045	1248.489	1008.234
199.417	26.106	1248.015	1008.108
200.432	26.042	1247.446	1007.198
201.446	26.109	1246.579	1006.783
202.461	26.227	1245.628	1006.583
203.475	26.188	1244.851	1005.652
204.490	26.120	1243.963	1004.468
205.504	26.111	1243.255	1003.753
206.519	26.255	1241.933	1003.396
207.534	26.241	1240.804	1002.322
208.548	26.269	1239.926	1001.676
209.563	26.185	1239.871	1001.078
210.577	26.220	1238.755	1000.281
211.592	26.279	1237.357	999.390
212.607	26.206	1236.916	998.544
213.621	26.197	1236.678	998.215
214.636	26.226	1235.929	997.682
215.650	26.161	1234.727	996.264
216.665	26.274	1233.851	996.094
217.680	26.348	1232.744	995.516
218.694	26.195	1232.082	994.051
219.709	26.268	1231.437	993.844
220.723	26.403	1230.576	993.803
221.738	26.232	1230.213	992.486
222.753	26.217	1229.314	991.589
223.767	26.276	1228.342	991.042
224.782	26.370	1227.990	991.184
225.796	26.395	1227.688	990.987
226.811	26.386	1226.700	990.057
227.826	26.326	1226.303	989.317
228.840	26.405	1225.617	989.112
229.855	26.282	1225.396	988.169
230.869	26.319	1224.521	987.582
231.884	26.333	1224.011	987.156
232.899	26.380	1222.726	986.291
233.913	26.305	1222.350	985.490
234.928	26.368	1222.170	985.605
235.942	26.440	1221.373	985.266
236.957	26.515	1220.454	984.846
237.972	26.350	1219.973	983.474
238.986	26.441	1218.787	982.921
240.001	26.410	1218.921	982.775
241.015	26.483	1217.565	981.994
242.030	26.450	1216.959	981.235
243.045	26.542	1215.951	980.835
244.059	26.544	1215.250	980.197
245.074	26.593	1214.665	979.904
246.088	26.470	1214.488	979.006
247.103	26.512	1213.623	978.450
248.117	26.481	1212.608	977.377
249.132	26.545	1211.524	976.764
250.147	26.562	1211.034	976.372
251.161	26.589	1210.249	975.799
252.176	26.623	1209.311	975.141
253.190	26.677	1208.594	974.765
254.205	26.650	1207.923	973.995
255.220	26.552	1207.590	973.109
256.234	26.649	1207.306	973.319
257.249	26.736	1206.332	972.916
258.263	26.609	1206.034	971.907
259.278	26.601	1205.521	971.362
260.293	26.615	1204.868	970.826
261.307	26.615	1204.149	970.159
262.322	26.719	1203.336	969.977
263.336	26.656	1202.947	969.240
264.351	26.570	1202.356	968.220
265.366	26.589	1202.133	968.053
266.380	26.654	1201.346	967.685
267.395	26.663	1200.100	966.642
268.409	26.685	1199.523	966.210
269.424	26.636	1199.220	965.617
270.439	26.568	1199.096	965.069
271.453	26.725	1198.138	965.047
272.468	26.661	1197.306	963.953
273.482	26.730	1196.116	963.278
274.497	26.626	1196.161	962.677
275.512	26.727	1195.521	962.612
276.526	26.728	1195.152	962.233
277.541	26.713	1194.383	961.452
278.555	26.886	1193.395	961.488
279.570	26.768	1192.861	960.347
280.585	26.833	1191.781	959.736
281.599	26.872	1191.010	959.238
282.614	26.833	1190.021	958.148
283.628	26.724	1189.555	957.114
284.643	26.826	1188.281	956.539
285.657	26.710	1188.081	955.685
286.672	26.824	1187.062	955.382
287.687	26.924	1186.333	955.235
288.701	26.969	1185.501	954.720
289.716	26.926	1184.576	953.664
290.730	26.902	1184.078	953.050
291.745	26.826	1183.669	952.241
292.760	26.963	1182.465	951.904
293.774	26.978	1182.375	951.826
294.789	26.936	1181.817	951.072
295.803	26.984	1181.493	950.980
296.818	27.010	1180.603	950.315
297.833	26.973	1179.853	949.432
298.847	27.007	1179.179	948.983
299.862	26.932	1178.765	948.176
300.876	27.008	1177.672	947.611
301.891	27.033	1177.093	947.191
302.906	27.004	1176.377	946.378
303.920	26.920	1176.266	945.766
304.935	27.100	1175.155	945.727
305.949	26.956	1174.806	944.611
306.964	27.105	1173.906	944.582
307.979	27.090	1173.231	943.876
308.993	27.078	1173.015	943.556
310.008	26.979	1172.187	942.292
311.022	27.107	1171.516	942.334
312.037	27.144	1170.348	941.506
313.052	27.070	1169.792	940.588
314.066	27.112	1168.731	939.870
315.081	27.091	1167.630	938.792
316.095	27.054	1167.617	938.510
317.110	27.224	1166.972	938.786
318.125	27.102	1166.082	937.359
319.139	27.085	1165.872	937.019
320.154	27.217	1164.843	936.788
321.168	27.193	1164.543	936.342
322.183	27.125	1163.924	935.409
323.197	27.118	1163.259	934.754
324.212	27.255	1162.337	934.637
325.227	27.226	1162.057	934.183
326.241	27.237	1161.655	933.829
327.256	27.246	1160.854	933.149
328.270	27.233	1159.506	931.917
329.285	27.343	1158.967	931.964
330.300	27.307	1158.784	931.550
331.314	27.264	1157.449	930.174
332.329	27.333	1156.655	929.807
333.343	27.379	1155.773	929.254
334.358	27.381	1155.249	928.757
335.373	27.318	1154.756	927.957
336.387	27.384	1154.075	927.664
337.402	27.349	1153.507	926.950
338.416	27.449	1152.702	926.730
339.431	27.457	1152.117	926.217
340.446	27.418	1151.114	925.133
341.460	27.457	1150.431	924.696
342.475	27.379	1150.271	924.090
343.489	27.457	1148.976	923.363
344.504	27.462	1147.887	922.435
345.519	27.461	1147.170	921.772
346.533	27.461	1146.550	921.193
347.548	27.548	1145.992	921.100
348.562	27.487	1145.605	920.401
349.577	27.427	1144.841	919.399
350.592	27.386	1144.034	918.467
351.606	27.464	1143.163	918.080
352.621	27.516	1142.731	917.913
353.635	27.488	1142.134	917.212
354.650	27.558	1141.337	916.841
355.665	27.515	1140.567	915.926
356.679	27.581	1139.817	915.572
357.694	27.630	1139.211	915.253
358.708	27.630	1138.559	914.645
359.723	27.613	1138.109	914.117
360.738	27.609	1137.151	913.249
361.752	27.517	1136.897	912.505
362.767	27.703	1136.301	912.876
363.781	27.655	1135.850	912.193
364.796	27.669	1135.584	911.966
365.810	27.688	1134.756	911.316
366.825	27.610	1133.885	910.147
367.840	27.708	1134.036	910.680
368.854	27.709	1133.376	910.071
369.869	27.805	1132.254	909.568
370.883	27.903	1130.916	908.902
371.898	27.846	1130.559	908.250
372.913	27.810	1130.133	907.651
373.927	27.864	1129.513	907.339
374.942	27.860	1129.085	906.893
375.956	27.846	1128.608	906.362
376.971	27.827	1128.474	906.080
377.986	27.835	1127.680	905.401
379.000	27.868	1127.095	905.016
380.015	27.871	1126.752	904.676
381.029	27.856	1125.686	903.666
382.044	27.920	1125.274	903.571
383.059	27.860	1124.666	902.707
384.073	27.941	1123.561	902.139
385.088	28.072	1122.649	901.971
386.102	28.012	1122.136	901.187
387.117	27.880	1121.456	899.907
388.132	27.896	1120.596	899.216
389.146	27.908	1119.913	898.650
390.161	27.921	1119.420	898.241
391.175	27.908	1118.480	897.340
392.190	27.989	1117.781	897.097
393.205	28.012	1117.412	896.833
394.219	27.980	1116.736	896.056
395.234	28.028	1115.798	895.460
396.248	28.044	1114.667	894.550
397.263	28.201	1114.015	894.715
398.278	28.137	1113.569	893.968
399.292	28.198	1112.735	893.514
400.307	28.226	1112.042	893.019
401.321	28.287	1111.505	892.802
402.336	28.087	1110.565	890.997
403.350	28.210	1110.426	891.406
404.365	28.134	1109.976	890.594
405.380	28.240	1109.029	890.270
406.394	28.182	1107.795	888.921
407.409	28.270	1107.402	888.954
408.423	28.366	1106.523	888.636
409.438	28.153	1106.186	887.253
410.453	28.274	1105.409	887.138
411.467	28.341	1104.486	886.642
412.482	28.332	1104.172	886.265
413.496	28.250	1103.546	885.292
414.511	28.342	1102.824	885.077
415.526	28.244	1102.499	884.263
416.540	28.295	1101.913	883.966
417.555	28.222	1101.431	883.148
418.569	28.260	1101.003	882.906
419.584	28.328	1100.800	882.996
420.599	28.414	1099.947	882.645
421.613	92.063	1305.522	1395.418
422.628	86.111	1335.489	1395.556
