DTS Sentinel unit serial number:	SN413079Multiplexer serial number:	ORYXHardware model number:	OX4-SRSoftware version number:	ORYX F/W v4.00 Oryx Data Collector v3.7.2.0data status	okinstallation	princeton_trtdifferential loss correction	single-endedforward channel	channel 2reverse channel	N/Adate	2019/09/14time	03:19:34forward acquisition time	60.00reverse acquisition time	0.00gamma	496.2192k internal	0.2337k external	0.2337temperature offset calibration	1.0127default loss term (dB/km)	0.3790temperature slope calibration	1.0000multiplexer offset coefficient	1.0000multiplexer slope coefficient	1.0000fibre end	0.00T internal ref (°C)	26.62T ext. ref 1 (°C)	3.27T ext. ref 2 (°C)	21.64length (m)	temperature (°C)	Stokes	anti-Stokes-747.200	65.911	-0.252	0.257
-746.185	-200.000	0.034	0.196
-745.171	55.628	-0.078	0.076
-744.156	109.721	0.169	0.203
-743.142	44.448	-0.229	0.211
-742.127	-162.878	-0.280	-0.014
-741.112	241.625	0.066	-0.112
-740.098	-200.000	-0.011	0.069
-739.083	800.000	-0.096	0.377
-738.069	-200.000	0.015	0.488
-737.054	27.703	0.131	0.111
-736.039	-200.000	-0.046	-0.308
-735.025	176.999	-0.070	-0.103
-734.010	-36.686	-0.064	-0.034
-732.996	293.882	0.151	-0.277
-731.981	-120.251	-0.206	-0.035
-730.966	-107.449	0.129	0.028
-729.952	183.368	-0.078	-0.115
-728.937	475.033	0.104	-0.237
-727.923	-170.644	0.125	-0.004
-726.908	193.254	0.052	-0.079
-725.894	-151.093	0.168	-0.013
-724.879	233.049	-0.108	0.178
-723.864	477.499	-0.086	0.196
-722.850	-153.467	0.175	-0.012
-721.835	-200.000	-0.001	0.076
-720.821	24.849	0.152	0.127
-719.806	800.000	-0.084	-0.275
-718.791	-146.462	0.303	-0.027
-717.777	195.819	0.239	0.365
-716.762	-97.603	-0.305	-0.079
-715.748	-127.526	-0.394	-0.057
-714.733	-130.151	-0.155	0.021
-713.718	-24.440	0.124	-0.074
-712.704	448.125	0.077	-0.169
-711.689	800.000	0.060	0.259
-710.675	-12.011	-0.157	-0.103
-709.660	-65.241	-0.265	-0.107
-708.645	-200.000	-0.018	-0.146
-707.631	40.124	0.125	-0.113
-706.616	48.034	0.212	0.198
-705.602	758.208	0.115	0.313
-704.587	-200.000	-0.043	-0.279
-703.572	21.292	0.112	-0.091
-702.558	-200.000	0.062	-0.327
-701.543	14.331	-0.183	-0.143
-700.529	-102.775	0.300	-0.072
-699.514	-11.648	-0.323	-0.213
-698.499	19.567	-0.299	0.241
-697.485	-200.000	0.015	-0.077
-696.470	-159.604	0.080	-0.004
-695.456	-95.316	-0.485	-0.131
-694.441	384.603	-0.050	-0.103
-693.426	-19.902	-0.226	0.140
-692.412	800.000	-0.100	0.278
-691.397	-200.000	-0.024	-0.109
-690.383	274.247	-0.138	0.245
-689.368	-53.124	0.142	0.065
-688.354	-200.000	0.003	-0.338
-687.339	-200.000	-0.036	-0.443
-686.324	-125.477	0.109	0.017
-685.310	68.582	-0.166	-0.170
-684.295	-71.724	-0.244	-0.091
-683.281	-200.000	0.019	0.093
-682.266	-125.326	-0.207	0.032
-681.251	-73.637	-0.278	-0.101
-680.237	-67.813	-0.093	0.036
-679.222	-102.514	-0.187	0.045
-678.208	-59.513	-0.138	-0.059
-677.193	-76.675	-0.146	0.051
-676.178	-32.977	-0.063	0.035
-675.164	-79.180	0.274	0.093
-674.149	800.000	0.028	-0.097
-673.135	-200.000	0.010	-0.239
-672.120	-178.167	-0.258	0.006
-671.105	205.689	0.013	0.020
-670.091	145.306	0.168	-0.225
-669.076	-200.000	0.017	0.211
-668.062	272.904	-0.063	-0.112
-667.047	800.000	0.044	0.170
-666.032	37.411	0.240	-0.213
-665.018	-36.724	0.153	0.082
-664.003	-163.578	-0.138	-0.007
-662.989	-43.995	0.229	-0.115
-661.974	800.000	-0.133	-0.406
-660.959	331.304	-0.187	0.360
-659.945	-153.628	-0.078	0.005
-658.930	-71.712	0.073	-0.027
-657.916	-42.885	-0.254	0.129
-656.901	74.525	-0.133	0.140
-655.886	224.233	0.146	0.236
-654.872	-200.000	0.005	0.277
-653.857	-129.445	-0.153	-0.021
-652.843	64.841	-0.082	-0.083
-651.828	326.909	0.028	-0.054
-650.814	-71.209	0.261	0.098
-649.799	254.841	-0.037	0.064
-648.784	182.764	-0.027	0.040
-647.770	66.369	0.025	0.025
-646.755	461.798	0.122	-0.272
-645.741	-81.963	-0.075	-0.024
-644.726	123.891	0.125	0.157
-643.711	-200.000	0.015	-0.162
-642.697	-177.910	0.221	0.005
-641.682	8.883	-0.312	-0.235
-640.668	-154.728	-0.260	-0.017
-639.653	15.727	-0.195	-0.153
-638.638	-97.301	-0.181	0.047
-637.624	-27.808	0.157	0.091
-636.609	-144.267	-0.227	0.021
-635.595	41.324	0.135	0.122
-634.580	-111.867	0.135	-0.027
-633.565	800.000	0.023	0.091
-632.551	-8.055	0.073	-0.049
-631.536	-60.056	0.251	-0.107
-630.522	800.000	0.026	0.097
-629.507	-135.120	0.120	-0.014
-628.492	-66.354	0.269	-0.107
-627.478	-118.952	-0.244	0.043
-626.463	731.143	0.055	0.146
-625.449	32.993	-0.118	0.102
-624.434	38.587	0.127	0.113
-623.419	-137.823	0.524	0.059
-622.405	41.120	0.323	-0.292
-621.390	212.257	0.100	0.158
-620.376	-200.000	0.007	0.322
-619.361	434.252	0.107	-0.233
-618.346	344.607	0.093	0.183
-617.332	272.701	-0.104	0.183
-616.317	-134.615	-0.113	0.014
-615.303	67.775	-0.246	0.251
-614.288	800.000	0.074	0.263
-613.273	-200.000	0.031	-0.483
-612.259	332.944	0.024	-0.047
-611.244	-32.679	-0.231	0.128
-610.230	494.132	0.138	0.317
-609.215	100.471	-0.068	-0.079
-608.201	-93.201	-0.085	-0.024
-607.186	-174.316	-0.293	-0.008
-606.171	800.000	-0.148	0.570
-605.157	-200.000	0.001	-0.148
-604.142	146.746	0.062	-0.083
-603.128	95.778	-0.009	-0.010
-602.113	70.220	0.176	0.182
-601.098	-164.186	0.158	-0.007
-600.084	28.434	0.108	-0.091
-599.069	-200.000	0.028	-0.238
-598.055	84.458	0.147	0.160
-597.040	-117.046	-0.130	0.024
-596.025	-200.000	-0.107	0.000
-595.011	215.440	0.151	0.239
-593.996	-200.000	0.044	-0.263
-592.982	800.000	0.150	0.519
-591.967	-30.935	-0.175	-0.098
-590.952	-153.214	-0.125	-0.009
-589.938	-200.000	-0.004	0.084
-588.923	262.570	0.089	0.154
-587.909	-200.000	-0.044	-0.279
-586.894	-164.751	0.109	-0.005
-585.879	413.280	-0.064	-0.135
-584.865	-3.018	0.048	0.033
-583.850	263.596	-0.053	-0.093
-582.836	-149.142	0.156	-0.012
-581.821	-45.593	0.206	0.102
-580.806	-23.140	-0.417	0.250
-579.792	-200.000	0.028	0.263
-578.777	-126.537	0.090	-0.013
-577.763	-129.165	-0.196	-0.027
-576.748	1.040	-0.028	0.020
-575.733	54.037	0.168	-0.161
-574.719	22.028	-0.240	-0.196
-573.704	-200.000	-0.045	-0.249
-572.690	79.942	0.111	-0.119
-571.675	53.652	0.109	-0.104
-570.661	-58.681	-0.185	-0.080
-569.646	414.632	0.120	0.256
-568.631	-118.223	-0.160	-0.028
-567.617	169.719	0.034	-0.049
-566.602	800.000	0.056	0.210
-565.588	724.983	-0.066	-0.175
-564.573	-200.000	-0.070	-0.373
-563.558	-27.277	0.171	0.099
-562.544	-200.000	0.064	-0.358
-561.529	348.302	0.091	-0.179
-560.515	261.534	-0.259	0.448
-559.500	52.244	-0.100	0.095
-558.485	26.741	-0.167	-0.140
-557.471	-150.328	0.353	0.027
-556.456	-11.435	0.267	-0.175
-555.442	-81.720	0.256	0.084
-554.427	-22.794	0.073	-0.044
-553.412	63.203	0.204	0.203
-552.398	-142.547	-0.492	-0.048
-551.383	329.627	0.112	0.214
-550.369	800.000	0.108	0.351
-549.354	228.175	-0.053	-0.085
-548.339	800.000	0.052	0.173
-547.325	31.103	-0.309	-0.264
-546.310	-200.000	0.034	-0.317
-545.296	88.657	-0.269	-0.298
-544.281	15.478	-0.173	0.135
-543.266	-63.442	0.122	-0.050
-542.252	-4.281	-0.242	0.167
-541.237	92.493	0.162	0.182
-540.223	75.863	-0.162	0.170
-539.208	-55.027	0.148	0.066
-538.193	709.581	0.097	-0.256
-537.179	84.493	0.209	0.227
-536.164	85.541	-0.116	0.127
-535.150	800.000	-0.024	-0.067
-534.135	11.006	-0.114	0.087
-533.121	-200.000	0.001	0.156
-532.106	-26.543	0.054	0.032
-531.091	-94.133	-0.145	-0.040
-530.077	-144.119	0.054	0.005
-529.062	-82.185	-0.360	0.117
-528.048	-200.000	-0.003	0.082
-527.033	-68.578	-0.190	-0.073
-526.018	-9.214	0.351	0.233
-525.004	-37.574	-0.069	-0.037
-523.989	29.748	-0.151	0.128
-522.975	13.647	-0.342	0.265
-521.960	-200.000	0.005	-0.328
-520.945	-135.882	-0.042	-0.005
-519.931	-200.000	0.031	-0.189
-518.916	-143.890	0.147	0.014
-517.902	-128.674	0.236	0.033
-516.887	-8.698	0.182	0.122
-515.872	29.675	0.170	0.144
-514.858	800.000	-0.080	-0.296
-513.843	670.362	-0.063	0.161
-512.829	99.657	0.225	0.259
-511.814	191.577	-0.041	-0.061
-510.799	35.257	0.188	-0.164
-509.785	63.794	0.083	-0.083
-508.770	118.089	-0.139	0.170
-507.756	-159.320	-0.016	0.001
-506.741	-5.896	0.172	-0.117
-505.726	-80.254	0.231	0.077
-504.712	-60.597	-0.050	0.021
-503.697	-60.400	-0.232	0.098
-502.683	-200.000	0.012	0.093
-501.668	-151.896	0.232	-0.017
-500.653	-178.946	-0.372	-0.008
-499.639	-143.920	0.469	-0.044
-498.624	-58.195	-0.110	-0.048
-497.610	24.794	-0.222	0.183
-496.595	-155.971	-0.053	-0.003
-495.581	800.000	0.022	0.078
-494.566	-109.885	-0.264	0.055
-493.551	-109.222	0.224	-0.047
-492.537	-50.712	0.095	-0.045
-491.522	800.000	-0.062	0.269
-490.508	-53.648	0.113	-0.052
-489.493	-45.098	0.212	-0.105
-488.478	-26.910	0.144	-0.083
-487.464	409.856	-0.095	-0.200
-486.449	779.018	-0.112	-0.304
-485.435	76.926	0.131	-0.138
-484.420	68.127	0.143	-0.145
-483.405	-79.814	-0.333	0.111
-482.391	268.511	-0.144	0.251
-481.376	-200.000	-0.031	-0.459
-480.362	-29.153	0.147	0.083
-479.347	560.234	-0.026	0.062
-478.332	-139.392	-0.069	0.007
-477.318	-79.822	0.200	-0.067
-476.303	82.164	-0.163	0.176
-475.289	-62.636	0.455	-0.187
-474.274	129.876	0.121	-0.154
-473.259	4.026	0.062	0.045
-472.245	-149.342	-0.333	0.026
-471.230	59.530	-0.040	-0.039
-470.216	-51.976	-0.183	0.084
-469.201	94.629	-0.043	0.049
-468.186	129.314	0.124	0.158
-467.172	423.922	0.085	-0.181
-466.157	437.012	-0.075	-0.162
-465.143	-73.208	-0.248	-0.090
-464.128	-53.439	-0.355	-0.161
-463.113	53.941	-0.332	0.316
-462.099	-33.799	0.112	0.061
-461.084	279.984	0.059	-0.104
-460.070	460.423	-0.171	-0.377
-459.055	800.000	-0.091	-0.295
-458.040	-9.540	-0.118	-0.078
-457.026	381.918	0.139	0.283
-456.011	-11.058	-0.275	0.180
-454.997	-6.525	-0.270	0.183
-453.982	-200.000	0.011	0.315
-452.968	800.000	-0.010	-0.040
-451.953	-132.131	-0.411	0.053
-450.938	120.420	0.248	0.305
-449.924	15.426	-0.176	-0.137
-448.909	-75.790	0.524	-0.184
-447.895	-102.875	-0.082	0.019
-446.880	762.747	-0.088	-0.236
-445.865	-200.000	-0.027	-0.229
-444.851	-56.887	-0.398	0.174
-443.836	-74.333	-0.230	-0.082
-442.822	14.418	-0.146	0.113
-441.807	-200.000	-0.027	0.235
-440.792	12.611	0.148	-0.113
-439.778	-200.000	0.066	0.301
-438.763	800.000	-0.134	0.528
-437.749	-62.519	0.277	-0.114
-436.734	800.000	0.037	0.117
-435.719	800.000	-0.061	0.190
-434.705	-39.425	0.111	0.058
-433.690	510.685	-0.113	0.261
-432.676	-135.248	0.224	-0.027
-431.661	-7.974	0.077	-0.051
-430.646	27.785	0.178	0.148
-429.632	-200.000	0.010	0.192
-428.617	-64.038	0.034	0.014
-427.603	372.498	0.072	0.145
-426.588	800.000	-0.056	-0.186
-425.573	279.321	-0.133	-0.236
-424.559	296.537	0.111	-0.202
-423.544	-74.120	0.249	-0.089
-422.530	-54.774	-0.093	-0.042
-421.515	-102.705	-0.144	0.034
-420.500	60.005	-0.119	-0.117
-419.486	568.198	-0.018	-0.044
-418.471	0.749	-0.077	0.055
-417.457	-200.000	0.009	-0.215
-416.442	-19.505	0.118	0.073
-415.428	78.221	0.027	-0.028
-414.413	800.000	-0.018	0.056
-413.398	-157.681	-0.285	-0.017
-412.384	161.129	0.102	0.141
-411.369	35.881	0.040	-0.035
-410.355	-32.529	0.011	0.006
-409.340	800.000	-0.021	0.063
-408.325	174.675	0.165	-0.236
-407.311	-64.666	-0.208	-0.084
-406.296	-59.262	-0.253	0.108
-405.282	-200.000	-0.060	0.279
-404.267	15.497	-0.159	0.124
-403.252	-89.569	-0.307	-0.089
-402.238	-200.000	0.025	-0.120
-401.223	283.385	-0.166	-0.295
-400.209	39.487	0.047	-0.041
-399.194	30.098	-0.101	-0.085
-398.179	21.240	-0.153	-0.123
-397.165	800.000	-0.096	0.403
-396.150	290.999	-0.144	-0.260
-395.136	32.293	0.092	-0.079
-394.121	800.000	-0.022	-0.081
-393.106	-91.910	-0.373	0.105
-392.092	-25.734	-0.180	0.105
-391.077	167.062	0.023	0.032
-390.063	189.792	-0.137	0.203
-389.048	-103.036	0.292	0.069
-388.033	-22.422	0.127	0.076
-387.019	574.322	0.155	0.375
-386.004	90.040	0.338	0.374
-384.990	-29.419	0.319	-0.181
-383.975	-119.668	-0.260	0.044
-382.960	-81.694	-0.236	0.076
-381.946	136.928	0.044	0.057
-380.931	800.000	0.096	-0.288
-379.917	-200.000	0.015	0.161
-378.902	-200.000	0.006	0.072
-377.888	35.084	-0.024	-0.021
-376.873	-75.529	0.186	-0.065
-375.858	34.193	-0.049	0.042
-374.844	-200.000	-0.055	0.311
-373.829	-186.977	-0.196	0.003
-372.815	-87.333	-0.211	0.063
-371.800	374.058	0.157	-0.316
-370.785	75.600	-0.077	-0.081
-369.771	-61.402	-0.246	0.102
-368.756	371.057	-0.078	-0.157
-367.742	66.071	-0.142	0.143
-366.727	109.332	-0.169	-0.201
-365.712	-90.037	0.297	-0.086
-364.698	-45.851	-0.136	-0.066
-363.683	800.000	-0.009	0.035
-362.669	748.238	0.092	0.245
-361.654	137.988	0.103	-0.133
-360.639	-67.404	-0.046	0.018
-359.625	-200.000	0.002	-0.118
-358.610	-109.275	-0.123	0.026
-357.596	203.299	-0.077	-0.118
-356.581	91.475	0.287	-0.319
-355.566	-52.783	0.110	-0.050
-354.552	800.000	0.064	0.253
-353.537	-22.201	-0.218	-0.130
-352.523	-19.491	-0.328	-0.201
-351.508	109.498	-0.110	-0.130
-350.493	33.321	0.133	-0.114
-349.479	800.000	0.028	0.081
-348.464	-64.225	-0.175	0.071
-347.450	-76.893	0.470	-0.162
-346.435	-10.346	0.047	-0.031
-345.420	31.132	0.232	0.197
-344.406	90.052	-0.145	-0.161
-343.391	235.005	-0.057	0.094
-342.377	800.000	0.012	0.052
-341.362	17.096	-0.078	0.061
-340.348	396.583	0.106	-0.219
-339.333	144.738	0.195	-0.258
-338.318	-200.000	-0.003	-0.136
-337.304	-76.061	-0.284	-0.099
-336.289	-200.000	0.069	0.301
-335.275	-200.000	-0.022	-0.418
-334.260	-151.290	0.099	-0.007
-333.245	800.000	0.033	0.120
-332.231	-177.961	0.174	0.004
-331.216	-106.370	0.098	0.022
-330.202	800.000	0.099	-0.323
-329.187	67.505	0.298	-0.300
-328.172	36.429	0.093	-0.081
-327.158	-146.835	0.172	-0.015
-326.143	270.428	0.063	0.109
-325.129	-132.236	-0.290	-0.037
-324.114	-81.475	-0.118	0.038
-323.099	-200.000	0.010	-0.073
-322.085	-200.000	-0.007	0.123
-321.070	91.137	-0.179	0.199
-320.056	-64.909	0.253	-0.101
-319.041	-95.313	0.161	0.043
-318.026	-16.616	-0.208	0.130
-317.012	-86.786	-0.160	0.048
-315.997	-200.000	-0.006	0.057
-314.983	14.810	0.191	-0.147
-313.968	-200.000	0.016	-0.111
-312.953	-112.832	-0.211	0.041
-311.939	151.991	-0.192	0.259
-310.924	-155.288	0.102	0.007
-309.910	11.275	-0.035	-0.026
-308.895	-131.928	-0.352	0.045
-307.880	-125.430	0.175	-0.026
-306.866	-200.000	0.015	0.139
-305.851	-142.319	0.248	0.024
-304.837	-101.413	-0.326	0.078
-303.822	81.326	-0.041	-0.044
-302.807	800.000	0.072	-0.306
-301.793	91.649	-0.065	0.072
-300.778	-34.481	0.302	-0.163
-299.764	-41.596	0.220	-0.112
-298.749	87.622	0.171	0.187
-297.735	-200.000	-0.058	0.279
-296.720	-200.000	0.004	0.028
-295.705	-38.161	-0.210	0.110
-294.691	14.544	0.105	-0.081
-293.676	-181.239	0.210	0.004
-292.662	-135.713	-0.248	0.029
-291.647	-200.000	-0.039	0.286
-290.632	-200.000	-0.024	-0.285
-289.618	-200.000	0.272	0.001
-288.603	-200.000	0.004	-0.147
-287.589	-188.966	-0.158	0.002
-286.574	-200.000	0.014	-0.297
-285.559	-128.129	-0.088	0.012
-284.545	-157.901	0.168	0.010
-283.530	208.650	0.084	-0.130
-282.516	245.009	0.109	-0.182
-281.501	102.291	0.124	-0.142
-280.486	-22.978	0.263	-0.156
-279.472	239.303	-0.080	0.131
-278.457	-200.000	-0.011	0.072
-277.443	-200.000	-0.011	0.180
-276.428	-200.000	-0.026	-0.157
-275.413	-200.000	-0.056	-0.244
-274.399	29.260	0.233	-0.195
-273.384	-171.265	-0.297	-0.010
-272.370	630.740	-0.162	-0.403
-271.355	-60.505	0.369	-0.154
-270.340	-200.000	0.007	0.147
-269.326	-100.342	0.182	-0.045
-268.311	97.067	0.155	0.175
-267.297	-63.935	0.090	0.036
-266.282	250.650	0.139	-0.233
-265.267	317.702	-0.038	0.070
-264.253	-32.213	0.362	-0.199
-263.238	86.288	0.161	-0.175
-262.224	109.245	-0.072	0.085
-261.209	186.761	0.144	-0.212
-260.195	198.849	-0.192	-0.289
-259.180	25.525	0.059	0.049
-258.165	-71.213	0.238	0.088
-257.151	-200.000	0.075	0.397
-256.136	-127.584	-0.193	0.028
-255.122	800.000	0.073	-0.253
-254.107	-46.141	0.422	0.204
-253.092	201.291	0.144	-0.219
-252.078	-200.000	-0.064	0.293
-251.063	360.423	-0.141	0.279
-250.049	-150.420	0.237	-0.018
-249.034	498.981	0.057	-0.128
-248.019	11.398	-0.218	0.164
-247.005	-171.367	-0.168	-0.006
-245.990	800.000	0.068	0.221
-244.976	325.665	-0.024	-0.045
-243.961	205.862	-0.153	-0.234
-242.946	359.003	0.209	-0.412
-241.932	-152.082	-0.170	0.012
-240.917	-200.000	-0.018	0.368
-239.903	119.470	-0.195	0.237
-238.888	32.909	0.090	-0.077
-237.873	-164.847	-0.084	0.004
-236.859	800.000	0.168	-0.488
-235.844	139.537	-0.063	-0.082
-234.830	-145.945	0.055	-0.005
-233.815	256.184	-0.086	-0.146
-232.800	-56.639	0.109	-0.047
-231.786	63.965	-0.228	-0.226
-230.771	-37.492	-0.267	-0.140
-229.757	-200.000	0.072	0.365
-228.742	-190.337	-0.225	-0.002
-227.727	800.000	0.042	0.137
-226.713	800.000	-0.051	-0.207
-225.698	92.783	-0.073	0.081
-224.684	17.305	0.273	0.213
-223.669	119.525	-0.140	-0.170
-222.655	800.000	-0.047	0.156
-221.640	-138.914	-0.407	0.043
-220.625	-200.000	-0.026	-0.235
-219.611	-200.000	0.020	-0.090
-218.596	630.762	0.094	-0.234
-217.582	89.173	-0.184	0.202
-216.567	194.624	-0.090	-0.135
-215.552	800.000	0.064	0.200
-214.538	-79.779	0.248	-0.082
-213.523	-1.361	0.149	-0.103
-212.509	-200.000	0.039	-0.246
-211.494	-31.772	-0.180	0.099
-210.479	20.748	0.084	0.067
-209.465	800.000	0.088	0.273
-208.450	-160.329	-0.223	0.012
-207.436	800.000	0.025	0.090
-206.421	253.316	-0.192	-0.323
-205.406	-182.650	-0.282	0.005
-204.392	9.247	0.154	-0.114
-203.377	333.872	-0.018	-0.035
-202.363	186.800	0.151	0.220
-201.348	725.403	0.060	0.158
-200.333	49.612	0.028	0.026
-199.319	-100.586	0.177	-0.043
-198.304	327.981	0.090	0.169
-197.290	-200.000	0.008	0.042
-196.275	-130.407	-0.266	0.035
-195.260	-14.958	-0.311	-0.196
-194.246	263.730	-0.241	0.412
-193.231	210.577	0.026	0.040
-192.217	44.851	-0.025	0.023
-191.202	800.000	0.029	0.087
-190.187	-200.000	-0.040	-0.242
-189.173	-150.510	0.197	0.015
-188.158	-65.071	-0.200	-0.079
-187.144	-97.609	0.105	-0.027
-186.129	35.982	0.117	0.101
-185.114	-57.032	-0.196	-0.085
-184.100	49.563	-0.283	-0.261
-183.085	219.395	0.162	-0.254
-182.071	-134.624	-0.033	-0.004
-181.056	-171.796	0.419	-0.013
-180.042	263.451	-0.152	-0.259
-179.027	-164.388	0.380	-0.017
-178.012	-0.211	0.149	-0.104
-176.998	-200.000	0.005	0.085
-175.983	747.505	0.033	-0.087
-174.969	-49.087	0.072	-0.034
-173.954	37.333	0.235	0.204
-172.939	-200.000	-0.217	-0.000
-171.925	-123.764	0.166	0.026
-170.910	69.843	0.317	0.321
-169.896	-58.176	0.108	0.046
-168.881	130.475	-0.230	0.289
-167.866	-4.729	0.097	0.065
-166.852	-103.281	0.378	-0.088
-165.837	13.303	0.300	0.228
-164.823	93.815	-0.125	-0.139
-163.808	-200.000	0.025	-0.280
-162.793	520.518	-0.055	-0.127
-161.779	-200.000	-0.029	0.191
-160.764	370.652	-0.148	0.295
-159.750	-157.434	0.341	0.020
-158.735	-200.000	0.029	-0.181
-157.720	227.291	0.202	0.322
-156.706	-200.000	0.011	0.156
-155.691	-127.658	0.035	-0.005
-154.677	800.000	-0.201	0.600
-153.662	-118.104	-0.331	-0.058
-152.647	163.074	-0.270	-0.372
-151.633	-30.439	-0.304	-0.169
-150.618	63.841	-0.068	-0.067
-149.604	800.000	-0.063	-0.233
-148.589	-200.000	0.067	0.323
-147.574	-200.000	0.024	0.156
-146.560	59.598	0.114	0.110
-145.545	-200.000	-0.007	0.101
-144.531	462.144	-0.151	-0.330
-143.516	800.000	-0.029	-0.093
-142.502	-200.000	-0.019	-0.304
-141.487	-34.981	0.123	-0.066
-140.472	303.323	0.110	0.200
-139.458	-47.241	-0.323	0.154
-138.443	460.407	0.075	0.165
-137.429	23.523	-0.252	0.203
-136.414	209.590	0.155	0.238
-135.399	-4.329	-0.156	0.106
-134.385	-137.045	0.105	0.012
-133.370	44.242	-0.123	-0.111
-132.356	-200.000	-0.026	0.301
-131.341	4.071	0.237	0.170
-130.326	-156.996	0.109	0.007
-129.312	8.706	-0.175	0.129
-128.297	32.297	-0.071	-0.060
-127.283	-96.070	0.125	-0.033
-126.268	-183.556	-0.203	0.003
-125.253	-25.070	-0.091	0.053
-124.239	-97.552	0.186	0.047
-123.224	800.000	0.078	-0.226
-122.210	800.000	-0.145	-0.434
-121.195	-68.881	-0.192	-0.073
-120.180	-101.496	-0.053	-0.013
-119.166	-200.000	0.029	0.200
-118.151	424.849	0.080	0.169
-117.137	-83.633	0.213	0.067
-116.122	-200.000	-0.052	0.323
-115.107	-200.000	0.048	0.223
-114.093	188.815	0.220	0.323
-113.078	73.737	0.138	-0.142
-112.064	263.677	-0.118	0.200
-111.049	800.000	0.145	-0.446
-110.034	42.444	-0.334	0.297
-109.020	132.864	0.059	-0.074
-108.005	-114.532	0.266	0.050
-106.991	-200.000	0.030	-0.359
-105.976	-73.695	0.283	0.101
-104.962	-200.000	-0.008	-0.315
-103.947	375.651	0.147	-0.294
-102.932	201.928	0.078	0.118
-101.918	-83.538	-0.290	0.091
-100.903	-200.000	-0.032	-0.257
-99.889	-200.000	0.029	-0.152
-98.874	-89.788	0.510	-0.146
-97.859	723.750	-0.130	0.339
-96.845	-38.443	0.270	0.140
-95.830	56.580	0.066	-0.063
-94.816	415.519	0.191	-0.398
-93.801	-200.000	-0.042	0.181
-92.786	-192.682	0.236	-0.002
-91.772	-132.813	0.303	-0.038
-90.757	-43.326	-0.254	0.126
-89.743	-108.329	-0.302	0.064
-88.728	-90.396	-0.381	-0.108
-87.713	-200.000	0.009	0.143
-86.699	-34.214	0.168	0.090
-85.684	800.000	0.029	0.090
-84.670	-74.953	-0.075	-0.026
-83.655	64.937	0.340	-0.336
-82.640	364.651	0.110	-0.217
-81.626	25.214	0.072	0.059
-80.611	787.795	-0.068	-0.183
-79.597	75.249	-0.083	0.085
-78.582	-200.000	0.020	0.410
-77.567	37.456	-0.075	0.065
-76.553	-200.000	0.027	-0.250
-75.538	-84.105	-0.102	0.032
-74.524	-170.421	0.267	0.009
-73.509	65.606	0.066	-0.066
-72.494	-101.702	0.270	0.064
-71.480	179.941	0.261	0.374
-70.465	800.000	-0.044	0.172
-69.451	-200.000	0.006	0.160
-68.436	206.143	-0.189	-0.287
-67.422	-200.000	0.000	0.129
-66.407	227.471	0.149	0.237
-65.392	68.700	0.128	-0.128
-64.378	200.961	-0.083	0.125
-63.363	190.484	-0.084	0.123
-62.349	-95.536	0.061	0.016
-61.334	77.619	-1.146	-1.193
-60.319	36.542	0.691	0.596
-59.305	165.996	-0.784	-1.084
-58.290	688.139	0.586	1.496
-57.276	800.000	0.454	1.273
-56.261	-200.000	116.250	648.701
-55.246	514.049	1537.497	3504.152
-54.232	174.478	2720.381	3843.302
-53.217	99.886	2300.222	2603.514
-52.203	35.747	1905.636	1636.283
-51.188	29.742	1696.793	1411.229
-50.173	27.352	1655.273	1358.822
-49.159	48.071	1711.874	1563.168
-48.144	46.690	1725.292	1564.880
-47.130	29.254	1682.862	1395.729
-46.115	26.655	1668.857	1364.512
-45.100	26.510	1663.648	1359.105
-44.086	26.425	1661.553	1356.701
-43.071	26.534	1658.476	1354.957
-42.057	26.486	1656.038	1352.548
-41.042	26.399	1654.820	1350.853
-40.027	26.507	1652.195	1349.459
-39.013	26.354	1650.846	1347.164
-37.998	26.404	1648.457	1345.531
-36.984	26.556	1647.328	1345.688
-35.969	26.497	1645.902	1344.035
-34.954	26.594	1644.360	1343.438
-33.940	26.603	1642.995	1342.339
-32.925	26.576	1640.870	1340.352
-31.911	26.676	1639.209	1339.675
-30.896	26.605	1637.601	1337.783
-29.881	26.548	1635.913	1335.935
-28.867	26.671	1633.925	1335.161
-27.852	26.737	1632.621	1334.532
-26.838	26.659	1631.239	1332.777
-25.823	26.662	1630.147	1331.853
-24.809	26.682	1628.471	1330.577
-23.794	26.571	1627.484	1328.906
-22.779	26.596	1625.795	1327.654
-21.765	26.699	1624.249	1327.093
-20.750	26.525	1622.937	1324.695
-19.736	26.663	1621.076	1324.136
-18.721	26.759	1619.563	1323.544
-17.706	26.621	1617.875	1321.109
-16.692	26.651	1616.264	1319.961
-15.677	26.657	1615.496	1319.319
-14.663	26.594	1613.999	1317.585
-13.648	26.681	1612.397	1316.861
-12.633	26.671	1610.817	1315.441
-11.619	26.729	1609.326	1314.597
-10.604	26.756	1607.738	1313.445
-9.590	26.653	1606.519	1311.648
-8.575	26.776	1605.162	1311.378
-7.560	26.668	1603.981	1309.581
-6.546	26.757	1602.173	1308.694
-5.531	26.651	1602.179	1307.884
-4.517	26.651	1600.792	1306.700
-3.502	26.692	1599.307	1305.731
-2.487	26.744	1598.184	1305.135
-1.473	26.420	1585.908	1292.746
-0.458	23.608	1567.076	1257.453
0.556	21.092	1569.103	1227.477
1.571	18.853	1593.232	1230.232
2.586	18.483	1606.255	1237.506
3.600	16.278	1550.513	1179.071
4.615	9.567	1442.546	1053.125
5.629	4.214	1383.509	976.300
6.644	3.377	1376.842	966.259
7.659	3.263	1375.449	964.484
8.673	3.177	1374.672	963.313
9.688	3.264	1372.651	962.359
10.702	3.303	1369.410	960.246
11.717	5.796	1373.806	978.819
12.731	12.996	1386.994	1033.362
13.746	18.863	1397.340	1077.887
14.761	20.246	1398.870	1087.650
15.775	19.701	1396.405	1082.223
16.790	18.732	1393.896	1074.125
17.804	17.945	1391.459	1067.232
18.819	17.471	1390.491	1063.435
19.834	17.313	1389.849	1061.864
20.848	17.257	1388.114	1060.099
21.863	17.054	1386.495	1057.503
22.877	16.898	1385.784	1055.892
23.892	16.899	1384.795	1055.054
24.907	16.803	1384.339	1054.016
25.921	16.804	1383.000	1052.909
26.936	16.854	1382.252	1052.558
27.950	16.873	1381.092	1051.697
28.965	16.952	1380.248	1051.449
29.980	17.136	1378.929	1051.494
30.994	17.141	1377.720	1050.509
32.009	17.287	1376.457	1050.357
33.023	17.129	1375.732	1048.734
34.038	17.168	1373.929	1047.507
35.053	17.126	1372.687	1046.208
36.067	17.024	1371.543	1044.614
37.082	17.011	1370.823	1043.896
38.096	17.140	1369.878	1043.875
39.111	17.117	1369.596	1043.427
40.126	16.982	1368.573	1041.728
41.140	16.804	1367.010	1039.355
42.155	16.707	1366.460	1038.247
43.169	16.717	1366.171	1037.998
44.184	16.652	1366.224	1037.549
45.199	16.686	1365.638	1037.221
46.213	16.808	1364.957	1037.356
47.228	16.955	1364.368	1037.717
48.242	17.002	1363.198	1037.025
49.257	16.961	1361.633	1035.493
50.271	17.001	1360.025	1034.420
51.286	17.018	1358.522	1033.289
52.301	16.827	1357.693	1031.405
53.315	16.838	1356.824	1030.720
54.330	16.740	1355.756	1029.223
55.344	16.754	1354.062	1027.933
56.359	16.726	1353.312	1027.099
57.374	16.753	1352.263	1026.374
58.388	16.634	1351.415	1024.921
59.403	16.651	1350.964	1024.592
60.417	16.650	1350.128	1023.864
61.432	16.590	1349.079	1022.611
62.447	16.454	1348.705	1021.419
63.461	16.582	1347.052	1020.848
64.476	16.479	1345.984	1019.324
65.490	16.361	1344.937	1017.733
66.505	16.696	1342.464	1017.785
67.520	16.532	1341.308	1015.834
68.534	16.661	1340.438	1015.858
69.549	16.638	1339.978	1015.282
70.563	16.554	1339.217	1014.112
71.578	16.439	1337.765	1012.235
72.593	16.486	1336.439	1011.425
73.607	16.297	1336.418	1010.184
74.622	16.373	1335.376	1009.762
75.636	16.446	1334.935	1009.775
76.651	16.486	1333.889	1009.139
77.666	16.451	1333.650	1008.658
78.680	16.404	1333.440	1008.127
79.695	16.540	1332.640	1008.246
80.709	16.596	1331.651	1007.739
81.724	16.638	1331.093	1007.477
82.739	16.793	1329.883	1007.400
83.753	16.880	1329.375	1007.442
84.768	17.022	1328.277	1007.359
85.782	17.138	1326.959	1006.959
86.797	16.987	1325.934	1005.200
87.812	16.827	1324.606	1003.155
88.826	16.981	1323.185	1002.904
89.841	17.059	1322.312	1002.610
90.855	17.058	1321.327	1001.774
91.870	17.082	1321.237	1001.758
92.884	17.100	1319.820	1000.700
93.899	17.161	1319.230	1000.521
94.914	17.202	1318.218	999.907
95.928	17.212	1317.564	999.379
96.943	17.112	1316.660	998.019
97.957	17.131	1315.467	997.141
98.972	17.023	1314.846	995.945
99.987	17.086	1313.756	995.402
101.001	17.047	1312.851	994.397
102.016	17.045	1311.696	993.427
103.030	17.031	1311.064	992.778
104.045	17.175	1309.561	992.393
105.060	16.902	1308.268	989.731
106.074	16.784	1306.904	987.924
107.089	16.633	1305.451	985.858
108.103	16.628	1303.761	984.468
109.118	16.609	1302.911	983.628
110.133	16.651	1301.236	982.521
111.147	16.584	1300.321	981.350
112.162	16.705	1298.795	980.817
113.176	16.623	1298.098	979.725
114.191	16.705	1297.344	979.542
115.206	16.686	1296.014	978.342
116.220	16.821	1294.253	977.707
117.235	16.806	1293.218	976.754
118.249	16.725	1291.986	975.269
119.264	16.680	1290.944	974.136
120.279	16.711	1289.941	973.473
121.293	16.570	1288.928	971.811
122.308	16.492	1287.874	970.484
123.322	16.440	1287.404	969.743
124.337	16.542	1285.859	969.080
125.352	16.524	1284.813	968.104
126.366	16.527	1283.971	967.402
127.381	16.422	1282.845	965.868
128.395	16.597	1281.466	965.742
129.410	16.565	1281.126	965.218
130.424	16.492	1280.608	964.327
131.439	16.626	1279.421	964.110
132.454	16.711	1279.117	964.278
133.468	16.676	1277.740	962.954
134.483	16.653	1277.343	962.440
135.497	16.814	1275.665	962.004
136.512	16.817	1274.317	960.921
137.527	16.821	1273.235	960.041
138.541	16.800	1272.063	958.958
139.556	16.843	1270.984	958.302
140.570	16.889	1270.329	957.981
141.585	16.913	1268.944	956.987
142.600	17.048	1267.728	956.747
143.614	17.084	1266.709	956.100
144.629	17.090	1265.839	955.389
145.643	17.108	1264.586	954.458
146.658	16.855	1263.568	952.184
147.673	16.905	1261.919	951.140
148.687	16.852	1260.654	949.806
149.702	16.829	1259.592	948.790
150.716	16.891	1257.784	947.696
151.731	16.811	1256.911	946.506
152.746	16.810	1256.051	945.767
153.760	16.858	1254.819	945.024
154.775	16.888	1253.807	944.347
155.789	17.007	1252.505	943.942
156.804	17.071	1251.687	943.599
157.819	17.003	1251.001	942.621
158.833	17.188	1249.917	942.745
159.848	17.339	1249.160	942.932
160.862	17.242	1247.962	941.403
161.877	17.047	1246.662	939.259
162.892	16.911	1245.621	937.641
163.906	16.866	1245.137	936.948
164.921	16.967	1243.557	936.230
165.935	16.982	1243.218	935.976
166.950	17.057	1242.477	935.753
167.964	17.037	1242.011	935.208
168.979	17.006	1240.636	933.919
169.994	17.017	1240.132	933.517
171.008	16.990	1239.712	932.967
172.023	17.130	1238.319	932.606
173.037	17.242	1237.778	932.732
174.052	17.220	1237.064	931.992
175.067	16.923	1235.922	929.417
176.081	16.993	1234.370	928.556
177.096	17.019	1233.390	927.876
178.110	16.960	1232.631	926.901
179.125	17.090	1231.559	926.720
180.140	17.026	1230.457	925.464
181.154	17.077	1229.233	924.737
182.169	17.210	1228.351	924.715
183.183	17.253	1227.160	923.972
184.198	17.371	1225.525	923.301
185.213	17.421	1224.391	922.636
186.227	17.439	1223.333	921.853
187.242	17.430	1222.873	921.374
188.256	17.433	1221.890	920.571
189.271	17.541	1220.733	920.200
190.286	17.177	1219.495	917.222
191.300	17.016	1218.188	915.287
192.315	16.865	1217.890	914.170
193.329	16.951	1217.206	914.041
194.344	17.009	1216.850	914.001
195.359	17.079	1216.130	913.760
196.373	17.221	1215.515	913.978
197.388	17.308	1215.259	914.171
198.402	17.475	1214.840	914.677
199.417	17.511	1214.428	914.475
200.432	17.579	1213.559	914.105
201.446	17.613	1212.998	913.785
202.461	17.742	1211.921	913.585
203.475	17.712	1211.215	912.808
204.490	17.593	1209.633	910.900
205.504	17.463	1208.353	909.162
206.519	17.442	1207.272	908.158
207.534	17.454	1205.972	907.164
208.548	17.482	1204.699	906.272
209.563	17.498	1204.302	905.978
210.577	17.428	1203.431	904.872
211.592	17.591	1202.383	904.868
212.607	17.663	1201.564	904.556
213.621	17.637	1200.893	903.833
214.636	17.780	1199.817	903.703
215.650	17.812	1198.230	902.595
216.665	17.641	1198.254	901.626
217.680	17.827	1197.531	901.988
218.694	17.814	1196.505	901.068
219.709	17.835	1195.454	900.305
220.723	17.837	1194.664	899.641
221.738	17.810	1194.232	899.094
222.753	17.767	1193.289	898.080
223.767	17.786	1192.924	897.823
224.782	17.898	1192.306	897.869
225.796	18.047	1191.637	898.069
226.811	17.959	1190.868	896.949
227.826	17.733	1190.313	895.265
228.840	17.776	1189.679	894.934
229.855	17.787	1188.967	894.375
230.869	17.908	1187.356	893.721
231.884	17.773	1186.833	892.540
232.899	17.740	1185.732	891.462
233.913	17.589	1185.380	890.329
234.928	17.663	1184.460	889.943
235.942	17.667	1183.658	889.283
236.957	17.637	1183.064	888.600
237.972	17.571	1182.220	887.545
238.986	17.749	1181.147	887.589
240.001	17.769	1180.607	887.208
241.015	17.729	1180.181	886.603
242.030	17.661	1179.556	885.702
243.045	17.885	1178.319	885.854
244.059	17.875	1177.649	885.220
245.074	17.879	1177.053	884.718
246.088	17.901	1176.270	884.163
247.103	18.016	1174.984	883.714
248.117	18.145	1174.727	884.109
249.132	18.268	1174.085	884.182
250.147	18.458	1173.409	884.577
251.161	18.469	1172.900	884.173
252.176	18.541	1172.024	883.802
253.190	18.462	1171.660	883.047
254.205	18.595	1170.998	883.152
255.220	18.555	1170.305	882.343
256.234	18.591	1169.622	881.935
257.249	18.617	1169.002	881.524
258.263	18.601	1168.380	880.897
259.278	18.475	1168.068	879.938
260.293	18.551	1167.229	879.619
261.307	18.644	1166.843	879.724
262.322	18.653	1166.186	879.196
263.336	18.784	1164.727	878.691
264.351	18.808	1164.595	878.637
265.366	18.762	1163.956	877.841
266.380	18.801	1163.363	877.516
267.395	18.607	1162.311	875.656
268.409	18.499	1161.598	874.490
269.424	18.572	1161.147	874.444
270.439	18.451	1160.478	873.244
271.453	18.601	1159.313	873.057
272.468	18.561	1158.397	872.085
273.482	18.566	1157.765	871.556
274.497	18.520	1157.232	870.846
275.512	18.555	1156.771	870.596
276.526	18.570	1155.684	869.777
277.541	18.550	1154.925	869.031
278.555	18.698	1154.176	869.138
279.570	18.754	1154.202	869.364
280.585	18.822	1153.185	868.864
281.599	18.908	1151.675	868.084
282.614	18.606	1151.190	866.120
283.628	18.601	1149.943	865.079
284.643	18.683	1148.688	864.473
285.657	18.679	1148.477	864.216
286.672	18.777	1147.205	863.674
287.687	18.808	1146.085	862.913
288.701	18.807	1145.564	862.436
289.716	18.786	1144.734	861.631
290.730	18.808	1144.388	861.406
291.745	18.802	1143.146	860.366
292.760	18.871	1142.771	860.352
293.774	18.940	1142.593	860.488
294.789	18.984	1141.844	860.065
295.803	19.003	1141.184	859.586
296.818	18.842	1140.170	857.942
297.833	18.879	1139.391	857.464
298.847	18.846	1138.774	856.760
299.862	18.882	1138.007	856.286
300.876	18.893	1137.186	855.649
301.891	19.002	1136.435	855.549
302.906	19.041	1136.054	855.382
303.920	19.061	1135.593	855.058
304.935	19.231	1134.933	855.332
305.949	19.181	1134.407	854.612
306.964	19.242	1133.631	854.249
307.979	19.210	1132.746	853.350
308.993	19.130	1131.719	852.105
310.008	19.329	1130.766	852.296
311.022	19.217	1130.634	851.570
312.037	19.307	1129.300	850.934
313.052	19.147	1128.731	849.637
314.066	19.136	1126.927	848.151
315.081	19.078	1126.349	847.357
316.095	18.918	1125.929	846.177
317.110	18.900	1125.000	845.314
318.125	18.971	1124.190	844.983
319.139	18.946	1123.450	844.230
320.154	19.009	1122.590	843.816
321.168	19.060	1122.062	843.593
322.183	19.109	1121.252	843.148
323.197	19.054	1120.950	842.578
324.212	19.081	1120.269	842.127
325.227	19.109	1119.803	841.837
326.241	19.111	1119.155	841.287
327.256	19.084	1118.568	840.638
328.270	19.085	1117.402	839.692
329.285	19.101	1116.379	838.929
330.300	19.059	1115.482	837.977
331.314	19.177	1114.696	837.883
332.329	19.014	1113.709	836.276
333.343	19.124	1113.056	836.246
334.358	19.149	1112.502	835.875
335.373	19.298	1111.495	835.769
336.387	19.459	1110.326	835.597
337.402	19.399	1110.049	835.025
338.416	19.491	1109.108	834.687
339.431	19.367	1109.292	834.148
340.446	19.536	1108.428	834.242
341.460	19.662	1107.716	834.244
342.475	19.755	1106.574	833.758
343.489	19.630	1106.105	832.728
344.504	19.735	1105.223	832.495
345.519	19.785	1104.729	832.292
346.533	19.939	1103.178	831.789
347.548	20.008	1102.205	831.314
348.562	19.893	1101.919	830.470
349.577	19.728	1100.926	828.857
350.592	19.533	1100.274	827.361
351.606	19.541	1099.389	826.660
352.621	19.348	1098.859	825.263
353.635	19.493	1097.632	824.961
354.650	19.603	1096.752	824.752
355.665	19.553	1096.404	824.180
356.679	19.617	1095.853	824.000
357.694	19.786	1095.221	824.255
358.708	19.654	1095.102	823.464
359.723	19.713	1094.627	823.313
360.738	19.724	1093.493	822.442
361.752	19.714	1093.108	822.033
362.767	19.784	1092.413	821.768
363.781	19.755	1091.901	821.174
364.796	19.957	1091.062	821.427
365.810	20.047	1090.750	821.550
366.825	20.099	1090.118	821.247
367.840	20.156	1089.807	821.209
368.854	20.200	1089.005	820.738
369.869	20.162	1088.108	819.812
370.883	20.130	1087.241	818.937
371.898	20.057	1086.575	818.014
372.913	20.051	1085.921	817.424
373.927	19.968	1085.604	816.721
374.942	20.154	1085.111	817.155
375.956	20.074	1084.876	816.530
376.971	20.085	1084.304	816.074
377.986	20.174	1083.507	815.824
379.000	20.233	1083.271	815.851
380.015	20.284	1082.583	815.498
381.029	20.303	1081.819	814.940
382.044	20.380	1080.735	814.416
383.059	20.323	1080.175	813.652
384.073	20.452	1079.302	813.526
385.088	20.339	1078.786	812.537
386.102	20.334	1077.612	811.560
387.117	20.275	1076.325	810.241
388.132	20.014	1075.266	808.154
389.146	20.184	1074.460	808.268
390.161	20.174	1074.002	807.809
391.175	20.038	1073.472	806.702
392.190	20.248	1072.624	806.974
393.205	20.461	1071.748	807.232
394.219	20.275	1071.226	805.903
395.234	20.182	1070.510	804.862
396.248	20.293	1069.000	804.169
397.263	20.295	1067.982	803.341
398.278	20.279	1067.568	802.886
399.292	20.124	1066.588	801.363
400.307	20.015	1066.015	800.358
401.321	20.002	1065.624	799.931
402.336	20.101	1064.712	799.632
403.350	20.042	1064.010	798.761
404.365	20.216	1063.139	798.841
405.380	20.369	1062.334	798.866
406.394	20.199	1061.950	797.729
407.409	20.338	1061.267	797.783
408.423	20.433	1060.475	797.555
409.438	20.624	1059.901	797.927
410.453	20.566	1059.005	796.916
411.467	20.633	1058.436	796.726
412.482	20.735	1058.188	796.934
413.496	20.740	1057.171	796.120
414.511	20.674	1057.001	795.620
415.526	21.009	1056.244	796.511
416.540	20.926	1055.802	795.729
417.555	20.868	1055.060	794.832
418.569	20.818	1054.682	794.250
419.584	20.714	1054.471	793.545
420.599	20.790	1053.817	793.330
421.613	155.662	1404.214	1797.550
422.628	142.878	1455.248	1797.642
