DTS Sentinel unit serial number:	SN413079Multiplexer serial number:	ORYXHardware model number:	OX4-SRSoftware version number:	ORYX F/W v4.00 Oryx Data Collector v3.7.2.0data status	okinstallation	princeton_trtdifferential loss correction	single-endedforward channel	channel 2reverse channel	N/Adate	2019/09/15time	16:51:35forward acquisition time	60.00reverse acquisition time	0.00gamma	496.2192k internal	0.2285k external	0.2285temperature offset calibration	0.9932default loss term (dB/km)	0.3790temperature slope calibration	1.0000multiplexer offset coefficient	1.0000multiplexer slope coefficient	1.0000fibre end	0.00T internal ref (°C)	44.34T ext. ref 1 (°C)	5.78T ext. ref 2 (°C)	40.41length (m)	temperature (°C)	Stokes	anti-Stokes-747.200	-200.000	-0.010	0.110
-746.185	800.000	0.025	0.102
-745.171	-200.000	0.005	-0.210
-744.156	352.940	-0.069	-0.140
-743.142	-100.833	0.222	-0.056
-742.127	800.000	-0.012	0.045
-741.112	-141.770	0.435	-0.045
-740.098	307.106	0.130	-0.248
-739.083	48.084	-0.161	-0.155
-738.069	-200.000	0.002	0.388
-737.054	-61.673	0.173	-0.074
-736.039	15.557	-0.196	0.158
-735.025	173.897	0.106	0.158
-734.010	-100.053	-0.321	-0.082
-732.996	-200.000	-0.018	-0.181
-731.981	-57.843	0.050	-0.022
-730.966	109.843	0.048	-0.059
-729.952	46.162	-0.322	-0.306
-728.937	-163.912	0.238	-0.011
-727.923	-89.657	0.238	-0.072
-726.908	22.797	-0.231	-0.195
-725.894	354.123	0.040	0.082
-724.879	800.000	-0.069	0.222
-723.864	228.560	-0.095	0.159
-722.850	-41.772	-0.320	0.168
-721.835	-200.000	0.001	0.013
-720.821	217.436	0.156	0.255
-719.806	721.558	0.023	0.062
-718.791	-15.918	0.060	0.039
-717.777	-45.805	-0.118	0.060
-716.762	499.166	0.069	0.162
-715.748	-98.500	0.070	0.018
-714.733	-81.714	0.106	-0.036
-713.718	144.163	0.014	0.019
-712.704	-105.547	0.183	-0.043
-711.689	-200.000	0.025	-0.147
-710.675	-51.961	-0.185	0.088
-709.660	138.340	-0.080	0.108
-708.645	-200.000	-0.012	-0.200
-707.631	800.000	-0.088	-0.302
-706.616	-200.000	-0.040	0.193
-705.602	148.877	0.012	-0.016
-704.587	-200.000	0.014	-0.126
-703.572	-200.000	-0.027	-0.163
-702.558	-114.860	-0.099	-0.019
-701.543	24.783	-0.111	0.094
-700.529	11.426	-0.295	-0.231
-699.514	7.646	0.204	-0.157
-698.499	6.782	0.192	-0.146
-697.485	-200.000	-0.009	0.136
-696.470	-108.110	0.129	-0.029
-695.456	800.000	0.032	0.136
-694.441	-12.771	-0.372	-0.248
-693.426	343.623	0.044	-0.088
-692.412	-200.000	0.022	0.175
-691.397	-23.948	0.171	-0.105
-690.383	-122.886	-0.215	0.035
-689.368	-65.778	0.220	-0.090
-688.354	268.836	-0.047	-0.084
-687.339	-32.961	0.251	-0.143
-686.324	211.623	0.085	0.137
-685.310	63.384	-0.251	0.258
-684.295	800.000	-0.047	-0.174
-683.281	-40.026	-0.152	-0.081
-682.266	196.618	-0.041	-0.064
-681.251	-200.000	-0.011	-0.299
-680.237	-24.698	0.214	-0.130
-679.222	-45.867	0.030	0.015
-678.208	327.843	0.136	-0.268
-677.193	223.861	0.061	0.100
-676.178	295.566	0.104	0.195
-675.164	800.000	-0.040	-0.128
-674.149	-30.109	0.087	-0.051
-673.135	-200.000	0.029	-0.242
-672.120	63.785	0.212	-0.218
-671.105	-58.048	0.073	0.033
-670.091	-200.000	-0.013	0.072
-669.076	-177.817	0.106	-0.003
-668.062	-40.172	0.226	-0.121
-667.047	-35.247	-0.046	0.026
-666.032	800.000	-0.055	0.174
-665.018	-30.803	0.377	-0.218
-664.003	-75.500	-0.152	0.055
-662.989	-200.000	0.003	0.088
-661.974	-50.320	0.311	0.151
-660.959	-80.068	-0.353	0.121
-659.945	-49.210	0.193	0.094
-658.930	-85.666	0.222	-0.071
-657.916	258.056	-0.129	-0.226
-656.901	275.983	-0.083	-0.151
-655.886	0.080	0.227	0.165
-654.872	-76.148	-0.217	0.079
-653.857	-112.899	0.116	-0.023
-652.843	30.280	0.210	0.183
-651.828	407.667	-0.080	0.173
-650.814	34.033	-0.126	-0.112
-649.799	-5.881	-0.184	-0.129
-648.784	36.370	-0.177	0.159
-647.770	200.125	-0.222	-0.349
-646.755	320.448	0.125	-0.243
-645.741	-199.985	0.084	-0.000
-644.726	-87.532	-0.273	0.084
-643.711	9.304	-0.233	0.180
-642.697	-27.059	-0.153	-0.091
-641.682	102.224	-0.148	-0.177
-640.668	237.367	0.106	0.179
-639.653	40.688	0.267	0.246
-638.638	31.887	-0.175	0.154
-637.624	-173.592	-0.146	0.004
-636.609	-118.008	-0.327	0.060
-635.595	53.054	0.153	-0.150
-634.580	24.230	0.078	0.066
-633.565	-58.748	0.086	-0.038
-632.551	-9.115	0.067	0.046
-631.536	800.000	0.022	0.083
-630.522	-77.196	-0.066	0.023
-629.507	-200.000	0.036	-0.326
-628.492	-183.606	0.054	0.001
-627.478	427.252	0.097	0.214
-626.463	-183.736	-0.218	-0.004
-625.449	-148.040	-0.029	-0.003
-624.434	-0.034	-0.292	0.213
-623.419	-185.336	-0.058	0.001
-622.405	-200.000	-0.036	0.218
-621.390	26.966	0.047	0.040
-620.376	-136.482	-0.248	-0.029
-619.361	599.917	-0.034	-0.087
-618.346	-200.000	-0.050	0.248
-617.332	-64.783	-0.152	0.063
-616.317	-100.959	-0.065	0.016
-615.303	74.843	0.055	-0.059
-614.288	-152.668	-0.221	-0.016
-613.273	-77.949	-0.327	-0.115
-612.259	118.773	-0.242	-0.306
-611.244	800.000	0.083	-0.357
-610.230	-87.371	-0.301	-0.093
-609.215	-87.716	0.157	0.049
-608.201	800.000	-0.034	-0.110
-607.186	-122.744	-0.270	-0.045
-606.171	-200.000	-0.022	-0.244
-605.157	-29.383	-0.185	-0.108
-604.142	233.830	-0.127	-0.214
-603.128	7.951	-0.243	0.186
-602.113	-107.377	-0.221	0.049
-601.098	-14.729	-0.216	0.142
-600.084	5.221	0.127	0.096
-599.069	8.908	-0.207	0.160
-598.055	-70.429	-0.076	-0.029
-597.040	-200.000	0.020	-0.117
-596.025	227.944	0.211	-0.351
-595.011	-200.000	-0.054	-0.258
-593.996	-34.108	0.205	-0.115
-592.982	248.217	0.216	0.372
-591.967	79.198	-0.078	-0.085
-590.952	800.000	-0.090	-0.258
-589.938	-54.646	-0.176	0.081
-588.923	475.138	-0.059	0.136
-587.909	29.675	0.195	0.169
-586.894	49.073	0.165	-0.158
-585.879	800.000	0.076	-0.237
-584.865	-166.041	-0.446	-0.019
-583.850	232.209	0.072	0.121
-582.836	800.000	-0.113	-0.398
-581.821	760.306	0.089	-0.247
-580.806	-118.950	0.334	0.060
-579.792	-200.000	-0.042	-0.225
-578.777	227.609	-0.107	-0.178
-577.763	800.000	-0.061	0.210
-576.748	-73.467	0.163	-0.061
-575.733	-95.893	-0.368	0.100
-574.719	-109.295	-0.029	0.006
-573.704	161.598	0.016	-0.023
-572.690	-144.519	0.201	0.019
-571.675	-123.132	0.337	0.055
-570.661	-7.680	-0.110	0.075
-569.646	-200.000	-0.001	0.044
-568.631	126.550	-0.106	-0.136
-567.617	-98.624	-0.213	0.056
-566.602	800.000	-0.049	-0.160
-565.588	-200.000	0.012	0.163
-564.573	800.000	0.070	-0.297
-563.558	-200.000	0.029	0.473
-562.544	449.006	-0.107	0.241
-561.529	98.383	0.303	0.356
-560.515	341.843	-0.100	-0.200
-559.500	296.649	0.063	-0.118
-558.485	-9.951	-0.137	0.093
-557.471	352.251	-0.096	0.194
-556.456	-200.000	0.055	0.262
-555.442	60.357	0.034	-0.035
-554.427	-84.595	-0.107	-0.035
-553.412	800.000	-0.066	-0.222
-552.398	-111.895	0.199	0.041
-551.383	-32.380	0.137	-0.078
-550.369	-102.693	0.145	-0.035
-549.354	435.544	0.111	0.245
-548.339	231.325	0.114	0.191
-547.325	800.000	0.092	0.369
-546.310	-89.584	-0.179	0.054
-545.296	151.806	0.166	0.230
-544.281	278.526	-0.086	-0.156
-543.266	206.606	0.120	-0.190
-542.252	-115.405	-0.172	0.033
-541.237	13.070	0.204	0.161
-540.223	-23.507	0.207	0.127
-539.208	-120.635	0.112	0.019
-538.193	-25.080	0.179	-0.108
-537.179	-128.804	0.097	0.014
-536.164	-200.000	0.007	-0.273
-535.150	724.906	-0.116	-0.314
-534.135	-113.019	-0.020	0.004
-533.121	573.465	0.071	-0.177
-532.106	-75.357	-0.038	-0.014
-531.091	-112.546	-0.224	0.045
-530.077	-181.904	0.230	0.004
-529.062	800.000	-0.097	0.289
-528.048	510.444	-0.071	-0.169
-527.033	14.894	0.302	0.240
-526.018	-200.000	-0.043	0.237
-525.004	-200.000	0.012	-0.128
-523.989	-64.369	-0.207	0.086
-522.975	1.493	0.051	-0.037
-521.960	11.397	-0.138	0.107
-520.945	585.436	0.131	0.328
-519.931	429.775	-0.119	-0.262
-518.916	48.813	-0.049	0.047
-517.902	80.249	0.054	-0.059
-516.887	-47.631	0.233	-0.115
-515.872	800.000	-0.058	0.173
-514.858	66.044	0.105	0.108
-513.843	-200.000	0.019	-0.109
-512.829	64.437	0.171	0.175
-511.814	482.022	0.098	-0.226
-510.799	800.000	-0.068	-0.227
-509.785	92.917	-0.270	-0.310
-508.770	-50.691	0.304	-0.146
-507.756	313.870	0.110	0.211
-506.741	79.073	-0.145	0.158
-505.726	110.150	0.091	-0.111
-504.712	800.000	-0.080	0.342
-503.697	141.344	-0.106	0.143
-502.683	-200.000	-0.004	0.036
-501.668	120.070	0.330	0.416
-500.653	-84.810	0.235	0.075
-499.639	-200.000	-0.002	0.340
-498.624	800.000	-0.034	0.116
-497.610	563.656	-0.149	-0.368
-496.595	240.769	0.104	0.177
-495.581	319.029	-0.103	-0.199
-494.566	800.000	0.117	-0.331
-493.551	1.559	0.161	0.118
-492.537	-7.017	-0.221	-0.152
-491.522	27.259	0.056	0.048
-490.508	-21.746	0.296	-0.183
-489.493	75.460	-0.129	0.138
-488.478	-23.314	0.335	-0.205
-487.464	-24.120	0.446	-0.271
-486.449	609.777	-0.155	0.393
-485.435	-200.000	0.027	-0.123
-484.420	589.352	-0.097	0.243
-483.405	-174.952	-0.051	-0.001
-482.391	-96.924	-0.321	-0.086
-481.376	651.672	-0.150	0.391
-480.362	-153.242	0.162	0.011
-479.347	-200.000	0.007	-0.134
-478.332	-11.600	-0.182	0.121
-477.318	359.317	0.023	0.047
-476.303	159.269	-0.079	-0.112
-475.289	-146.984	0.276	0.024
-474.274	-200.000	-0.002	-0.293
-473.259	-9.275	0.198	-0.134
-472.245	100.080	0.091	-0.107
-471.230	12.440	0.105	0.082
-470.216	-7.499	-0.043	-0.030
-469.201	195.990	-0.096	0.149
-468.186	-18.508	-0.222	0.141
-467.172	402.826	0.109	0.233
-466.157	25.177	-0.193	-0.162
-465.143	-200.000	0.058	0.358
-464.128	-156.627	-0.213	-0.013
-463.113	-158.555	0.097	0.006
-462.099	-200.000	-0.026	0.365
-461.084	507.164	-0.051	0.119
-460.070	-200.000	-0.005	0.190
-459.055	800.000	0.039	-0.122
-458.040	-200.000	0.019	-0.316
-457.026	-200.000	-0.022	0.103
-456.011	-29.928	-0.152	0.088
-454.997	-200.000	0.005	-0.279
-453.982	-32.784	-0.153	0.086
-452.968	-200.000	0.039	0.287
-451.953	7.714	0.191	0.145
-450.938	800.000	-0.094	0.266
-449.924	-71.994	0.135	-0.051
-448.909	-12.277	0.383	0.254
-447.895	-200.000	-0.034	-0.317
-446.880	153.345	0.014	0.020
-445.865	600.687	0.145	-0.364
-444.851	12.583	-0.376	-0.295
-443.836	148.564	0.059	-0.081
-442.822	-153.586	0.265	0.019
-441.807	-200.000	-0.013	0.151
-440.792	43.315	-0.206	-0.191
-439.778	423.155	-0.094	-0.205
-438.763	199.921	0.170	0.265
-437.749	-200.000	-0.018	0.266
-436.734	-200.000	0.055	0.320
-435.719	-5.843	0.086	0.060
-434.705	-192.490	-0.268	0.003
-433.690	-200.000	-0.007	0.343
-432.676	-14.953	-0.256	0.167
-431.661	201.774	-0.082	0.128
-430.646	131.262	0.079	0.103
-429.632	800.000	-0.129	-0.471
-428.617	-74.000	-0.162	-0.060
-427.603	205.904	0.104	-0.163
-426.588	-200.000	0.026	-0.138
-425.573	-200.000	0.044	0.197
-424.559	-200.000	-0.033	-0.372
-423.544	-200.000	0.034	-0.243
-422.530	154.675	0.177	0.246
-421.515	-200.000	0.004	-0.176
-420.500	583.433	0.096	-0.238
-419.486	-41.076	0.100	-0.052
-418.471	-137.450	-0.279	-0.032
-417.457	170.025	0.101	-0.146
-416.442	-200.000	-0.017	-0.439
-415.428	125.733	-0.099	-0.126
-414.413	8.233	0.089	0.068
-413.398	25.064	0.162	0.136
-412.384	-200.000	0.008	-0.041
-411.369	79.592	-0.151	0.164
-410.355	-200.000	0.027	-0.170
-409.340	1.864	0.312	0.228
-408.325	-200.000	-0.048	0.248
-407.311	455.014	-0.077	-0.172
-406.296	106.868	0.092	-0.111
-405.282	-160.789	0.295	-0.016
-404.267	221.258	-0.069	0.113
-403.252	261.868	0.070	0.122
-402.238	-116.101	-0.241	-0.045
-401.223	-28.456	-0.136	-0.080
-400.209	664.650	-0.028	0.073
-399.194	192.330	-0.018	0.027
-398.179	-117.877	0.138	0.025
-397.165	-200.000	0.077	0.417
-396.150	-200.000	0.057	0.326
-395.136	314.396	-0.086	0.165
-394.121	28.280	0.090	0.077
-393.106	620.458	-0.022	0.057
-392.092	215.647	0.082	0.132
-391.077	-200.000	0.037	-0.385
-390.063	21.798	0.175	-0.144
-389.048	800.000	-0.117	-0.369
-388.033	561.629	0.096	0.235
-387.019	57.766	-0.193	-0.191
-386.004	539.365	0.126	-0.303
-384.990	-31.275	-0.195	-0.111
-383.975	-134.752	-0.188	0.023
-382.960	-12.249	0.451	-0.299
-381.946	111.615	-0.078	0.095
-380.931	-57.449	-0.094	-0.042
-379.917	-94.133	0.332	0.092
-378.902	-200.000	-0.003	0.299
-377.888	800.000	0.024	0.075
-376.873	-200.000	-0.008	0.149
-375.858	-111.626	0.157	0.032
-374.844	-19.049	-0.125	-0.078
-373.829	433.141	0.104	0.229
-372.815	-125.534	0.386	0.059
-371.800	-123.969	-0.022	-0.004
-370.785	-143.128	-0.175	0.017
-369.771	114.712	-0.026	-0.032
-368.756	106.992	0.149	0.179
-367.742	97.946	0.059	-0.068
-366.727	-8.893	-0.256	0.174
-365.712	-198.504	0.158	0.001
-364.698	-186.278	-0.350	-0.005
-363.683	784.070	-0.104	0.288
-362.669	-21.681	0.097	0.060
-361.654	160.713	0.177	0.250
-360.639	-19.912	0.118	-0.073
-359.625	361.236	0.066	0.134
-358.610	50.726	-0.149	0.143
-357.596	800.000	0.034	0.119
-356.581	-82.355	0.184	-0.060
-355.566	67.572	-0.334	0.345
-354.552	23.590	0.218	0.182
-353.537	383.524	0.132	-0.274
-352.523	101.591	-0.205	-0.241
-351.508	-200.000	-0.000	0.022
-350.493	-108.634	-0.269	0.058
-349.479	-44.929	-0.114	0.057
-348.464	338.800	-0.057	-0.113
-347.450	800.000	0.074	-0.235
-346.435	-156.606	-0.238	0.015
-345.420	60.330	0.146	0.146
-344.406	-200.000	0.020	-0.402
-343.391	-130.040	0.252	0.035
-342.377	53.042	0.348	-0.337
-341.362	-200.000	0.022	-0.458
-340.348	-22.962	-0.083	-0.050
-339.333	36.825	-0.052	0.047
-338.318	-200.000	-0.034	-0.234
-337.304	-52.759	0.209	-0.098
-336.289	-139.156	-0.327	-0.036
-335.275	-200.000	-0.016	0.402
-334.260	406.980	0.046	0.097
-333.245	110.459	-0.218	0.265
-332.231	658.629	0.142	-0.368
-331.216	59.745	-0.187	-0.186
-330.202	-150.214	-0.132	0.010
-329.187	-26.564	-0.361	0.214
-328.172	130.008	-0.005	0.007
-327.158	119.151	0.087	-0.109
-326.143	-95.936	0.063	0.017
-325.129	533.515	-0.094	-0.226
-324.114	141.859	-0.148	-0.198
-323.099	800.000	0.112	-0.351
-322.085	706.128	-0.070	0.186
-321.070	-41.252	-0.212	-0.110
-320.056	3.495	0.104	-0.076
-319.041	30.777	0.156	-0.134
-318.026	11.856	-0.147	0.114
-317.012	232.591	-0.109	-0.180
-315.997	-90.169	-0.103	-0.030
-314.983	26.099	0.258	-0.217
-313.968	267.826	-0.157	-0.277
-312.953	463.933	-0.119	-0.270
-311.939	65.099	-0.046	-0.047
-310.924	-116.796	-0.227	-0.042
-309.910	-167.170	0.121	0.005
-308.895	73.316	-0.059	0.062
-307.880	156.193	-0.122	-0.170
-306.866	-21.385	-0.096	-0.059
-305.851	-200.000	0.060	-0.304
-304.837	-159.383	0.100	0.006
-303.822	133.203	0.117	0.153
-302.807	29.457	-0.252	0.216
-301.793	357.127	-0.046	0.093
-300.778	-146.552	-0.184	0.016
-299.764	-8.629	0.014	0.010
-298.749	-140.978	0.265	-0.027
-297.735	-136.889	-0.127	0.015
-296.720	-47.772	0.083	-0.040
-295.705	138.382	-0.212	0.280
-294.691	-101.634	0.415	-0.102
-293.676	-200.000	-0.003	0.354
-292.662	800.000	0.051	0.216
-291.647	-77.554	-0.204	0.071
-290.632	261.855	0.225	0.393
-289.618	65.748	0.135	-0.138
-288.603	73.417	-0.131	-0.138
-287.589	-200.000	-0.001	0.163
-286.574	90.388	0.077	0.087
-285.559	-200.000	0.003	0.177
-284.545	-87.176	0.064	0.020
-283.530	-102.139	-0.223	-0.054
-282.516	116.576	-0.142	-0.176
-281.501	414.680	0.060	-0.128
-280.486	-200.000	-0.029	0.184
-279.472	-200.000	0.068	0.334
-278.457	800.000	-0.031	0.091
-277.443	245.611	-0.085	-0.144
-276.428	800.000	-0.091	-0.254
-275.413	-81.450	0.202	0.067
-274.399	371.756	0.148	-0.302
-273.384	-200.000	-0.038	0.321
-272.370	-48.633	-0.197	0.095
-271.355	35.059	0.282	0.249
-270.340	597.637	0.176	0.439
-269.326	-125.841	-0.199	-0.030
-268.311	74.787	-0.311	-0.330
-267.297	-93.182	0.085	0.024
-266.282	-200.000	-0.007	0.075
-265.267	18.017	0.263	0.211
-264.253	204.362	0.067	0.105
-263.238	-188.459	0.158	0.002
-262.224	385.257	-0.117	-0.244
-261.209	-95.853	-0.077	-0.021
-260.195	-139.726	-0.077	-0.008
-259.180	-101.486	-0.168	-0.041
-258.165	-56.649	0.349	-0.156
-257.151	117.745	0.101	0.126
-256.136	-147.733	-0.100	0.008
-255.122	-102.972	0.176	-0.042
-254.107	-200.000	0.011	-0.159
-253.092	8.259	-0.167	0.126
-252.078	80.028	0.199	-0.215
-251.063	52.647	0.292	-0.281
-250.049	-91.725	-0.164	0.047
-249.034	-106.423	0.242	0.054
-248.019	197.631	-0.041	0.063
-247.005	6.582	0.157	-0.117
-245.990	330.035	0.065	-0.126
-244.976	-24.028	-0.099	0.059
-243.961	197.934	0.165	-0.254
-242.946	-105.486	-0.047	-0.011
-241.932	-200.000	0.019	0.201
-240.917	81.318	-0.146	-0.159
-239.903	153.525	0.198	0.272
-238.888	-178.807	-0.281	0.006
-237.873	-174.378	-0.047	0.001
-236.859	-13.415	-0.212	-0.138
-235.844	12.333	0.116	-0.090
-234.830	-119.172	-0.074	-0.013
-233.815	-113.104	0.090	0.018
-232.800	-200.000	-0.002	-0.400
-231.786	46.661	-0.067	0.063
-230.771	-31.040	0.269	-0.153
-229.757	-70.065	0.238	-0.091
-228.742	-200.000	0.025	-0.120
-227.727	-200.000	0.004	-0.115
-226.713	549.017	-0.026	-0.063
-225.698	-200.000	0.043	0.359
-224.684	40.769	0.134	0.122
-223.669	305.859	-0.087	-0.162
-222.655	-107.052	0.102	0.023
-221.640	423.278	-0.147	-0.318
-220.625	-104.374	-0.133	-0.031
-219.611	-159.021	-0.341	0.019
-218.596	202.958	-0.116	0.181
-217.582	-175.654	0.339	0.009
-216.567	800.000	-0.051	0.193
-215.552	116.943	0.151	0.186
-214.538	-200.000	0.009	-0.325
-213.523	161.479	-0.310	-0.436
-212.509	800.000	-0.027	-0.100
-211.494	-100.291	-0.037	-0.009
-210.479	233.653	0.133	-0.221
-209.465	-101.774	-0.194	0.047
-208.450	-200.000	-0.024	-0.272
-207.436	-112.184	0.242	-0.049
-206.421	-16.582	-0.112	-0.071
-205.406	-200.000	0.139	0.000
-204.392	800.000	0.023	-0.079
-203.377	-200.000	-0.006	0.050
-202.363	-91.178	0.248	0.072
-201.348	91.370	0.094	0.107
-200.333	-137.141	0.161	0.018
-199.319	-130.780	-0.077	0.010
-198.304	800.000	0.071	0.282
-197.290	-98.228	0.274	0.071
-196.275	-200.000	0.021	-0.275
-195.260	526.859	-0.118	0.278
-194.246	-127.199	0.194	-0.029
-193.231	-131.587	0.154	0.020
-192.217	142.617	0.129	0.172
-191.202	500.344	0.116	-0.268
-190.187	47.748	0.319	0.299
-189.173	302.546	-0.073	0.136
-188.158	167.385	-0.034	-0.049
-187.144	216.343	0.052	0.083
-186.129	230.333	0.185	0.304
-185.114	-26.303	-0.147	-0.087
-184.100	61.219	0.066	-0.066
-183.085	97.078	-0.194	-0.224
-182.071	41.735	-0.114	0.103
-181.056	-200.000	-0.015	0.220
-180.042	7.529	-0.370	0.278
-179.027	-181.378	-0.189	0.004
-178.012	413.357	-0.115	0.245
-176.998	214.808	-0.095	0.151
-175.983	-118.892	0.248	-0.044
-174.969	-200.000	0.097	0.575
-173.954	-135.352	-0.101	-0.012
-172.939	800.000	0.058	0.204
-171.925	-52.950	0.128	-0.059
-170.910	-75.472	-0.248	0.089
-169.896	306.061	-0.100	0.186
-168.881	553.476	0.117	-0.283
-167.866	514.593	-0.127	-0.298
-166.852	-123.188	-0.178	-0.029
-165.837	38.410	-0.231	0.207
-164.823	103.708	-0.119	0.140
-163.808	-60.116	0.129	-0.055
-162.793	-111.997	-0.059	-0.012
-161.779	22.095	0.354	-0.290
-160.764	-50.380	0.247	0.117
-159.750	36.422	0.210	-0.186
-158.735	800.000	-0.022	0.091
-157.720	51.504	0.074	0.070
-156.706	-52.769	0.182	0.084
-155.691	-200.000	0.005	-0.092
-154.677	-200.000	0.018	-0.262
-153.662	-60.367	-0.212	-0.090
-152.647	229.979	-0.111	-0.182
-151.633	-40.198	0.353	-0.184
-150.618	386.276	0.165	-0.341
-149.604	-200.000	0.057	0.371
-148.589	688.148	-0.058	0.151
-147.574	34.312	-0.180	-0.157
-146.560	55.410	-0.059	0.057
-145.545	220.259	0.173	-0.278
-144.531	7.347	0.074	0.055
-143.516	327.549	-0.066	0.128
-142.502	91.384	-0.227	-0.255
-141.487	318.614	0.125	-0.237
-140.472	158.243	-0.178	-0.248
-139.458	800.000	0.046	0.130
-138.443	101.425	-0.102	0.119
-137.429	-200.000	0.021	0.231
-136.414	365.932	0.019	-0.038
-135.399	-193.002	0.172	0.002
-134.385	-6.918	0.193	0.131
-133.370	50.837	-0.237	0.225
-132.356	289.633	-0.095	0.173
-131.341	208.076	-0.200	-0.314
-130.326	613.403	-0.095	-0.238
-129.312	112.779	-0.075	0.091
-128.297	-102.091	0.235	-0.057
-127.283	703.598	-0.076	-0.201
-126.268	-27.428	0.132	0.077
-125.253	-79.775	0.083	0.028
-124.239	-200.000	-0.060	-0.361
-123.224	-200.000	-0.002	-0.155
-122.210	-200.000	0.007	0.175
-121.195	-200.000	-0.020	-0.108
-120.180	800.000	-0.067	0.251
-119.166	-15.489	0.208	-0.133
-118.151	332.474	-0.031	0.059
-117.137	-72.904	0.394	-0.145
-116.122	-46.792	-0.360	-0.176
-115.107	677.738	-0.020	-0.052
-114.093	-194.713	0.097	0.001
-113.078	800.000	-0.026	0.108
-112.064	120.933	0.088	-0.110
-111.049	-97.551	0.073	-0.019
-110.034	-200.000	0.001	0.194
-109.020	-142.928	0.566	-0.055
-108.005	20.770	0.299	0.242
-106.991	-200.000	0.043	0.314
-105.976	-121.308	0.376	-0.063
-104.962	704.580	-0.061	0.160
-103.947	429.065	-0.127	0.275
-102.932	-200.000	0.048	0.650
-101.918	800.000	0.047	0.142
-100.903	73.040	-0.213	0.222
-99.889	-75.680	0.223	-0.079
-98.874	58.105	0.115	-0.112
-97.859	175.820	0.050	0.072
-96.845	-1.499	-0.262	0.185
-95.830	-200.000	0.030	0.342
-94.816	130.047	-0.118	0.151
-93.801	-62.447	-0.323	0.134
-92.786	32.052	-0.107	-0.092
-91.772	-16.739	-0.227	0.144
-90.757	-122.382	-0.244	-0.040
-89.743	-50.155	0.297	-0.141
-88.728	800.000	-0.093	0.300
-87.713	800.000	0.022	0.062
-86.699	-200.000	-0.080	0.482
-85.684	220.603	0.100	-0.160
-84.670	800.000	0.049	0.146
-83.655	-69.199	-0.182	0.070
-82.640	325.162	-0.143	0.273
-81.626	668.957	0.071	-0.185
-80.611	-200.000	0.055	0.245
-79.597	-100.867	0.325	0.080
-78.582	-139.644	-0.261	0.028
-77.567	-200.000	0.063	-0.309
-76.553	17.113	0.222	0.176
-75.538	-23.318	-0.355	-0.213
-74.524	630.611	-0.081	-0.206
-73.509	-200.000	-0.008	0.039
-72.494	327.934	-0.176	0.338
-71.480	-180.913	0.205	-0.004
-70.465	258.528	0.164	0.283
-69.451	183.095	0.148	0.218
-68.436	-200.000	0.001	0.166
-67.422	265.838	-0.091	0.159
-66.407	176.774	-0.114	0.166
-65.392	65.281	0.201	-0.203
-64.378	-200.000	0.011	-0.241
-63.363	101.529	0.096	0.112
-62.349	-101.657	0.387	0.094
-61.334	-42.382	-0.654	-0.333
-60.319	129.170	0.117	0.149
-59.305	538.615	0.322	-0.766
-58.290	1.950	0.937	0.675
-57.276	800.000	0.472	1.749
-56.261	-200.000	70.637	530.213
-55.246	587.069	1267.911	3117.893
-54.232	137.834	2533.333	3315.942
-53.217	112.993	2369.630	2869.754
-52.203	54.354	1986.809	1911.508
-51.188	47.859	1773.266	1654.487
-50.173	44.944	1725.388	1587.112
-49.159	58.730	1755.556	1722.899
-48.144	65.621	1774.491	1795.194
-47.130	47.853	1739.258	1622.451
-46.115	44.415	1725.839	1583.157
-45.100	44.271	1721.358	1577.863
-44.086	44.188	1718.775	1574.791
-43.071	44.273	1715.583	1572.460
-42.057	44.207	1713.364	1569.849
-41.042	44.235	1711.517	1568.317
-40.027	44.221	1709.381	1566.188
-39.013	44.197	1707.431	1564.150
-37.998	44.208	1705.642	1562.536
-36.984	44.228	1704.273	1561.375
-35.969	44.372	1702.991	1561.246
-34.954	44.432	1701.207	1560.007
-33.940	44.358	1699.320	1557.649
-32.925	44.331	1697.565	1555.774
-31.911	44.330	1695.934	1554.209
-30.896	44.332	1693.704	1552.113
-29.881	44.361	1691.748	1550.483
-28.867	44.331	1690.092	1548.676
-27.852	44.345	1688.464	1547.226
-26.838	44.269	1687.233	1545.460
-25.823	44.358	1686.075	1545.013
-24.809	44.404	1684.250	1543.636
-23.794	44.424	1682.691	1542.291
-22.779	44.377	1681.611	1540.884
-21.765	44.196	1679.828	1537.817
-20.750	44.361	1677.926	1537.268
-19.736	44.318	1676.726	1535.779
-18.721	44.351	1675.075	1534.456
-17.706	44.475	1672.969	1533.404
-16.692	44.348	1671.520	1531.059
-15.677	44.340	1670.430	1529.939
-14.663	44.379	1668.756	1528.635
-13.648	44.409	1667.395	1527.553
-12.633	44.468	1664.994	1525.740
-11.619	44.380	1663.851	1523.968
-10.604	44.322	1662.551	1522.285
-9.590	44.405	1660.939	1521.365
-8.575	44.398	1659.636	1520.064
-7.560	44.439	1658.547	1519.311
-6.546	44.351	1657.468	1517.603
-5.531	44.357	1656.190	1516.421
-4.517	44.374	1654.883	1515.289
-3.502	44.392	1653.695	1514.271
-2.487	44.475	1652.117	1513.385
-1.473	44.520	1641.533	1503.965
-0.458	42.124	1621.455	1467.982
0.556	34.892	1617.097	1422.775
1.571	31.032	1637.945	1411.830
2.586	29.438	1651.405	1411.129
3.600	25.754	1598.323	1338.320
4.615	16.243	1482.648	1175.439
5.629	7.809	1410.490	1062.036
6.644	6.007	1399.711	1041.883
7.659	5.769	1398.494	1039.306
8.673	5.757	1397.351	1038.286
9.688	5.577	1395.793	1035.845
10.702	5.457	1393.125	1032.979
11.717	9.004	1400.513	1061.877
12.731	16.650	1414.701	1123.479
13.746	19.430	1417.357	1143.948
14.761	17.517	1412.514	1127.286
15.775	16.152	1409.637	1115.866
16.790	15.066	1406.890	1106.419
17.804	14.253	1404.546	1099.109
18.819	13.834	1402.530	1094.677
19.834	13.489	1401.263	1091.314
20.848	13.268	1399.961	1088.747
21.863	13.026	1398.901	1086.236
22.877	12.887	1397.615	1084.225
23.892	12.736	1396.543	1082.310
24.907	12.743	1396.173	1081.969
25.921	12.896	1394.765	1081.786
26.936	12.912	1393.616	1080.904
27.950	12.863	1392.914	1079.948
28.965	12.997	1391.988	1080.008
29.980	13.055	1390.874	1079.429
30.994	12.998	1389.847	1078.160
32.009	13.132	1388.154	1077.626
33.023	13.081	1387.258	1076.504
34.038	13.048	1385.896	1075.138
35.053	13.015	1384.450	1073.707
36.067	12.942	1383.519	1072.412
37.082	12.967	1382.189	1071.449
38.096	13.017	1381.387	1071.060
39.111	13.017	1380.534	1070.301
40.126	12.940	1379.957	1069.261
41.140	12.859	1378.800	1067.749
42.155	12.858	1378.104	1067.104
43.169	12.777	1377.986	1066.399
44.184	12.783	1377.522	1065.980
45.199	12.820	1377.069	1065.774
46.213	12.957	1376.228	1065.914
47.228	12.901	1375.652	1065.012
48.242	12.974	1374.493	1064.494
49.257	12.966	1372.739	1062.987
50.271	12.877	1371.722	1061.536
51.286	12.952	1369.518	1060.221
52.301	12.904	1369.077	1059.471
53.315	12.807	1367.842	1057.802
54.330	12.904	1366.590	1057.361
55.344	12.864	1365.419	1056.105
56.359	12.860	1364.192	1055.038
57.374	12.727	1363.801	1053.790
58.388	12.754	1362.759	1053.067
59.403	12.663	1362.621	1052.283
60.417	12.658	1361.301	1051.138
61.432	12.615	1360.857	1050.429
62.447	12.650	1359.546	1049.549
63.461	12.672	1358.347	1048.671
64.476	12.595	1357.424	1047.373
65.490	12.572	1356.138	1046.146
66.505	12.649	1354.294	1045.117
67.520	12.579	1353.317	1043.823
68.534	12.697	1352.087	1043.535
69.549	12.644	1351.039	1042.300
70.563	12.669	1350.286	1041.782
71.578	12.604	1348.906	1040.215
72.593	12.582	1347.920	1039.222
73.607	12.589	1347.071	1038.521
74.622	12.612	1346.173	1037.883
75.636	12.649	1345.749	1037.697
76.651	12.460	1345.365	1036.115
77.666	12.594	1344.472	1036.184
78.680	12.552	1344.568	1035.899
79.695	12.664	1343.237	1035.489
80.709	12.693	1342.277	1034.837
81.724	12.679	1341.720	1034.227
82.739	12.807	1340.370	1033.899
83.753	12.764	1340.013	1033.259
84.768	12.918	1339.105	1033.434
85.782	13.010	1337.228	1032.470
86.797	12.904	1336.258	1030.966
87.812	12.875	1335.311	1029.967
88.826	12.879	1333.871	1028.790
89.841	12.883	1332.976	1028.031
90.855	12.978	1331.937	1027.728
91.870	13.032	1331.071	1027.309
92.884	13.023	1330.578	1026.779
93.899	12.989	1329.731	1025.826
94.914	13.077	1328.691	1025.482
95.928	13.064	1327.857	1024.667
96.943	13.004	1327.021	1023.554
97.957	13.056	1325.504	1022.618
98.972	13.070	1324.368	1021.739
99.987	13.001	1323.536	1020.580
101.001	12.938	1322.831	1019.558
102.016	12.978	1321.553	1018.729
103.030	12.844	1320.928	1017.331
104.045	12.898	1320.139	1016.964
105.060	12.921	1318.569	1015.805
106.074	12.841	1317.522	1014.416
107.089	12.727	1315.717	1012.236
108.103	12.797	1314.471	1011.620
109.118	12.765	1313.193	1010.351
110.133	12.736	1312.010	1009.175
111.147	12.727	1310.573	1007.919
112.162	12.664	1309.356	1006.510
113.176	12.806	1308.206	1006.404
114.191	12.817	1307.348	1005.727
115.206	12.871	1306.191	1005.077
116.220	12.890	1304.452	1003.765
117.235	12.874	1303.571	1002.901
118.249	12.746	1302.792	1001.434
119.264	12.831	1301.449	1000.831
120.279	12.928	1300.215	1000.377
121.293	12.742	1299.776	998.823
122.308	12.716	1298.790	997.824
123.322	12.717	1297.335	996.621
124.337	12.676	1296.396	995.564
125.352	12.728	1295.279	994.934
126.366	12.815	1294.047	994.421
127.381	12.790	1292.925	993.323
128.395	12.781	1292.046	992.502
129.410	12.805	1290.941	991.711
130.424	12.743	1290.582	990.973
131.439	12.802	1289.036	990.056
132.454	12.772	1288.431	989.320
133.468	12.796	1287.614	988.755
134.483	12.861	1287.019	988.597
135.497	12.846	1285.681	987.392
136.512	12.835	1284.273	986.158
137.527	12.967	1283.096	985.959
138.541	12.969	1281.702	984.807
139.556	12.980	1280.681	984.005
140.570	13.035	1279.416	983.275
141.585	13.078	1278.174	982.485
142.600	13.035	1276.997	981.239
143.614	13.192	1275.778	981.147
144.629	13.187	1274.909	980.361
145.643	13.154	1273.756	979.196
146.658	13.078	1272.504	977.694
147.673	13.012	1271.044	976.095
148.687	12.984	1269.707	974.818
149.702	12.843	1268.697	973.121
150.716	12.913	1267.042	972.183
151.731	12.971	1265.836	971.510
152.746	12.919	1264.845	970.358
153.760	12.858	1264.229	969.440
154.775	13.006	1262.895	969.202
155.789	13.075	1261.516	968.464
156.804	13.058	1260.762	967.698
157.819	13.085	1259.673	966.933
158.833	13.193	1258.558	966.629
159.848	13.118	1257.737	965.473
160.862	13.043	1256.794	964.225
161.877	13.012	1255.396	962.887
162.892	13.042	1254.318	962.150
163.906	12.947	1253.208	960.660
164.921	12.988	1252.268	960.090
165.935	13.081	1251.380	959.867
166.950	13.011	1250.939	959.034
167.964	13.044	1250.069	958.475
168.979	13.019	1249.346	957.692
169.994	13.078	1248.470	957.277
171.008	13.139	1247.810	957.043
172.023	13.137	1247.099	956.400
173.037	13.200	1246.284	956.052
174.052	13.274	1244.989	955.406
175.067	13.175	1244.121	954.080
176.081	13.145	1243.009	952.973
177.096	13.030	1242.138	951.555
178.110	13.142	1240.497	950.860
179.125	13.033	1239.529	949.406
180.140	13.115	1238.759	949.205
181.154	13.182	1237.123	948.252
182.169	13.261	1236.185	947.901
183.183	13.285	1234.769	946.870
184.198	13.262	1233.992	946.060
185.213	13.314	1232.662	945.253
186.227	13.395	1231.407	944.669
187.242	13.397	1230.074	943.571
188.256	13.379	1229.578	943.005
189.271	13.363	1228.400	941.932
190.286	13.372	1227.546	941.241
191.300	13.110	1226.391	938.784
192.315	13.015	1225.936	937.813
193.329	13.115	1225.118	937.670
194.344	13.128	1224.516	937.204
195.359	13.250	1223.682	937.173
196.373	13.336	1223.294	937.278
197.388	13.392	1223.029	937.312
198.402	13.403	1222.830	937.137
199.417	13.540	1222.065	937.246
200.432	13.596	1221.025	936.680
201.446	13.554	1220.664	936.084
202.461	13.701	1219.163	935.677
203.475	13.675	1218.281	934.773
204.490	13.550	1217.106	933.085
205.504	13.442	1215.794	931.385
206.519	13.549	1214.596	930.990
207.534	13.530	1213.612	930.048
208.548	13.541	1212.448	929.134
209.563	13.524	1211.715	928.392
210.577	13.562	1210.854	927.865
211.592	13.664	1210.166	927.828
212.607	13.637	1209.346	926.965
213.621	13.653	1208.272	926.146
214.636	13.605	1207.576	925.263
215.650	13.710	1206.161	924.683
216.665	13.628	1205.413	923.575
217.680	13.766	1204.591	923.631
218.694	13.868	1203.671	923.410
219.709	13.850	1202.661	922.456
220.723	13.820	1201.919	921.636
221.738	13.829	1201.430	921.230
222.753	13.884	1200.744	920.927
223.767	13.946	1199.645	920.345
224.782	13.900	1199.345	919.777
225.796	13.869	1198.722	919.050
226.811	14.000	1197.823	919.005
227.826	13.946	1197.037	918.019
228.840	13.889	1196.723	917.383
229.855	13.900	1195.546	916.459
230.869	13.931	1195.155	916.248
231.884	13.959	1193.760	915.255
232.899	13.942	1192.735	914.294
233.913	13.867	1191.997	913.235
234.928	13.846	1191.752	912.852
235.942	13.768	1190.814	911.625
236.957	13.684	1190.002	910.457
237.972	13.803	1189.035	910.293
238.986	13.856	1188.470	910.067
240.001	13.883	1187.655	909.512
241.015	13.890	1186.810	908.825
242.030	13.923	1185.924	908.247
243.045	14.013	1184.867	907.845
244.059	13.981	1184.629	907.409
245.074	13.907	1183.957	906.409
246.088	13.981	1183.218	906.168
247.103	14.104	1181.940	905.781
248.117	14.216	1181.161	905.711
249.132	14.244	1180.726	905.448
250.147	14.308	1180.219	905.328
251.161	14.300	1179.551	904.694
252.176	14.407	1178.544	904.420
253.190	14.408	1178.255	904.127
254.205	14.405	1177.734	903.628
255.220	14.564	1176.613	903.551
256.234	14.626	1175.892	903.250
257.249	14.392	1175.900	901.910
258.263	14.512	1174.730	901.585
259.278	14.406	1174.348	900.638
260.293	14.486	1173.823	900.585
261.307	14.534	1173.042	900.165
262.322	14.509	1172.379	899.443
263.336	14.590	1171.651	899.242
264.351	14.603	1170.973	898.711
265.366	14.612	1170.406	898.248
266.380	14.619	1169.668	897.637
267.395	14.656	1169.152	897.360
268.409	14.596	1167.724	895.862
269.424	14.513	1167.235	894.964
270.439	14.526	1166.905	894.700
271.453	14.529	1166.088	894.011
272.468	14.569	1165.006	893.320
273.482	14.490	1164.553	892.467
274.497	14.558	1163.391	891.863
275.512	14.518	1163.294	891.495
276.526	14.553	1162.720	891.162
277.541	14.636	1161.850	890.860
278.555	14.583	1160.562	889.513
279.570	14.669	1160.373	889.745
280.585	14.822	1159.171	889.563
281.599	14.884	1158.120	889.007
282.614	14.688	1157.347	887.295
283.628	14.609	1156.749	886.337
284.643	14.755	1155.235	885.872
285.657	14.679	1154.657	884.948
286.672	14.724	1153.653	884.336
287.687	14.777	1152.606	883.739
288.701	14.770	1151.616	882.864
289.716	14.842	1150.933	882.643
290.730	14.752	1150.299	881.601
291.745	14.783	1149.626	881.170
292.760	14.914	1149.099	881.381
293.774	14.895	1148.789	880.967
294.789	14.846	1148.652	880.525
295.803	15.004	1147.252	880.202
296.818	14.925	1146.465	879.105
297.833	14.904	1145.541	878.211
298.847	14.815	1144.920	877.188
299.862	14.919	1144.226	877.126
300.876	14.902	1143.386	876.315
301.891	14.858	1142.839	875.585
302.906	15.125	1141.550	875.921
303.920	15.182	1140.777	875.549
304.935	15.150	1140.190	874.849
305.949	15.216	1139.669	874.716
306.964	15.186	1138.971	873.948
307.979	15.131	1138.450	873.185
308.993	15.136	1137.809	872.644
310.008	15.133	1136.872	871.828
311.022	15.275	1136.140	871.930
312.037	15.211	1135.002	870.645
313.052	15.195	1134.060	869.768
314.066	15.164	1133.461	869.068
315.081	15.098	1132.680	868.048
316.095	15.140	1131.279	867.115
317.110	15.013	1131.135	866.274
318.125	15.103	1130.343	866.054
319.139	15.075	1129.466	865.164
320.154	15.084	1128.724	864.561
321.168	15.146	1128.117	864.343
322.183	15.118	1127.728	863.825
323.197	15.125	1126.974	863.206
324.212	15.169	1126.206	862.764
325.227	15.195	1126.093	862.738
326.241	15.081	1125.588	861.687
327.256	15.213	1124.471	861.436
328.270	15.169	1123.285	860.225
329.285	15.297	1122.122	859.913
330.300	15.170	1121.709	858.872
331.314	15.206	1120.732	858.233
332.329	15.252	1119.606	857.526
333.343	15.304	1118.568	856.922
334.358	15.469	1117.618	856.962
335.373	15.373	1117.210	856.084
336.387	15.382	1116.565	855.558
337.402	15.424	1116.027	855.285
338.416	15.501	1115.198	854.967
339.431	15.446	1114.662	854.198
340.446	15.467	1114.112	853.808
341.460	15.533	1113.232	853.396
342.475	15.634	1112.190	853.033
343.489	15.662	1111.522	852.590
344.504	15.688	1110.449	851.821
345.519	15.597	1109.528	850.580
346.533	15.670	1109.096	850.541
347.548	15.861	1108.096	850.664
348.562	15.832	1107.401	849.910
349.577	15.692	1106.524	848.456
350.592	15.607	1105.707	847.323
351.606	15.659	1104.867	846.869
352.621	15.579	1104.007	845.732
353.635	15.605	1103.365	845.293
354.650	15.678	1102.744	845.114
355.665	15.558	1102.124	843.957
356.679	15.722	1101.115	843.936
357.694	15.688	1101.030	843.624
358.708	15.841	1100.035	843.554
359.723	15.791	1099.614	842.907
360.738	15.843	1098.835	842.494
361.752	15.840	1098.722	842.316
362.767	15.798	1097.981	841.465
363.781	15.746	1097.343	840.640
364.796	15.909	1096.527	840.757
365.810	15.837	1096.545	840.337
366.825	15.905	1095.839	840.058
367.840	16.043	1095.058	840.074
368.854	16.027	1094.139	839.217
369.869	16.092	1093.471	838.951
370.883	16.047	1092.661	838.034
371.898	15.988	1092.012	837.166
372.913	15.907	1091.610	836.384
373.927	16.093	1090.949	836.726
374.942	16.162	1090.288	836.488
375.956	16.147	1089.488	835.726
376.971	16.048	1089.439	835.123
377.986	16.129	1088.679	834.870
379.000	16.245	1087.844	834.730
380.015	16.222	1087.488	834.266
381.029	16.318	1086.557	833.952
382.044	16.258	1085.756	832.969
383.059	16.207	1085.170	832.191
384.073	16.231	1084.319	831.587
385.088	16.345	1083.437	831.399
386.102	16.286	1082.889	830.611
387.117	16.218	1081.748	829.328
388.132	16.163	1080.706	828.188
389.146	16.173	1079.632	827.341
390.161	16.193	1079.335	827.138
391.175	16.192	1078.626	826.518
392.190	16.316	1077.809	826.426
393.205	16.325	1077.138	825.879
394.219	16.262	1076.864	825.290
395.234	16.277	1075.287	824.081
396.248	16.309	1074.339	823.436
397.263	16.233	1073.586	822.418
398.278	16.321	1072.673	822.073
399.292	16.264	1071.534	820.850
400.307	16.331	1070.849	820.579
401.321	16.298	1070.626	820.173
402.336	16.346	1069.766	819.675
403.350	16.360	1069.171	819.217
404.365	16.307	1068.614	818.458
405.380	16.420	1067.861	818.358
406.394	16.367	1067.090	817.436
407.409	16.482	1066.676	817.605
408.423	16.514	1065.439	816.736
409.438	16.467	1065.314	816.343
410.453	16.700	1064.388	816.687
411.467	16.701	1063.369	815.835
412.482	16.588	1062.973	814.916
413.496	16.722	1062.195	814.894
414.511	16.747	1061.678	814.542
415.526	16.704	1061.394	814.049
416.540	16.793	1061.025	814.121
417.555	16.831	1060.442	813.783
418.569	16.812	1059.864	813.174
419.584	16.787	1059.167	812.448
420.599	16.801	1058.865	812.213
421.613	69.751	1269.110	1267.830
422.628	64.240	1299.743	1267.988
