DTS Sentinel unit serial number:	SN413079Multiplexer serial number:	ORYXHardware model number:	OX4-SRSoftware version number:	ORYX F/W v4.00 Oryx Data Collector v3.7.2.0data status	okinstallation	princeton_trtdifferential loss correction	single-endedforward channel	channel 2reverse channel	N/Adate	2019/09/12time	14:37:11forward acquisition time	60.00reverse acquisition time	0.00gamma	496.2192k internal	0.2301k external	0.2301temperature offset calibration	1.0087default loss term (dB/km)	0.3790temperature slope calibration	1.0000multiplexer offset coefficient	1.0000multiplexer slope coefficient	1.0000fibre end	0.00T internal ref (°C)	40.06T ext. ref 1 (°C)	2.28T ext. ref 2 (°C)	36.22length (m)	temperature (°C)	Stokes	anti-Stokes-747.200	-65.708	-0.127	0.052
-746.185	99.144	0.244	0.288
-745.171	539.712	-0.008	-0.019
-744.156	107.264	-0.088	-0.107
-743.142	-18.857	0.087	-0.055
-742.127	-64.560	-0.431	0.178
-741.112	-200.000	-0.024	-0.130
-740.098	-151.198	0.446	-0.034
-739.083	-200.000	-0.070	-0.345
-738.069	800.000	-0.136	0.517
-737.054	226.685	0.039	-0.065
-736.039	-50.686	0.169	0.081
-735.025	-12.134	-0.051	0.034
-734.010	800.000	-0.110	0.333
-732.996	-4.880	-0.131	0.092
-731.981	759.660	0.170	0.470
-730.966	7.738	-0.102	0.078
-729.952	137.928	-0.162	-0.217
-728.937	164.068	-0.191	0.275
-727.923	-200.000	0.037	0.246
-726.908	-147.550	-0.348	0.030
-725.894	-14.469	0.294	-0.193
-724.879	-200.000	-0.057	-0.404
-723.864	69.433	0.153	0.160
-722.850	17.418	-0.361	-0.292
-721.835	-132.341	0.152	0.020
-720.821	800.000	0.062	-0.232
-719.806	800.000	0.069	0.302
-718.791	800.000	-0.054	0.203
-717.777	377.223	0.090	-0.187
-716.762	-200.000	0.013	-0.099
-715.748	494.970	-0.036	-0.084
-714.733	-200.000	-0.010	0.263
-713.718	-47.923	0.100	0.049
-712.704	189.554	-0.132	-0.201
-711.689	-21.004	-0.262	-0.163
-710.675	-200.000	0.035	0.325
-709.660	-200.000	-0.054	0.283
-708.645	-83.910	-0.242	0.079
-707.631	394.117	-0.038	-0.081
-706.616	-200.000	-0.010	0.325
-705.602	375.229	-0.109	-0.226
-704.587	27.646	-0.268	0.229
-703.572	109.043	-0.088	0.107
-702.558	97.365	-0.148	-0.173
-701.543	114.580	-0.282	0.350
-700.529	155.354	-0.222	-0.311
-699.514	-91.962	0.108	-0.031
-698.499	-200.000	0.021	-0.420
-697.485	-200.000	0.007	-0.222
-696.470	70.786	-0.165	-0.174
-695.456	-14.369	0.089	0.059
-694.441	344.104	0.079	-0.159
-693.426	-10.794	0.292	-0.196
-692.412	-65.736	-0.280	-0.114
-691.397	-158.020	-0.265	0.016
-690.383	10.155	-0.171	0.132
-689.368	-154.119	-0.174	-0.012
-688.354	800.000	-0.021	-0.063
-687.339	298.425	-0.130	0.244
-686.324	-37.861	0.136	-0.074
-685.310	20.726	0.180	0.148
-684.295	16.302	-0.187	-0.150
-683.281	543.013	0.105	-0.254
-682.266	-200.000	0.033	-0.243
-681.251	2.722	0.167	-0.123
-680.237	-20.050	-0.106	0.066
-679.222	-84.288	-0.103	0.033
-678.208	544.792	-0.083	-0.202
-677.193	-75.418	0.254	0.092
-676.178	-200.000	0.083	-0.470
-675.164	-200.000	-0.036	-0.350
-674.149	-111.521	-0.313	0.065
-673.135	-46.703	0.096	0.048
-672.120	-52.385	-0.310	0.146
-671.105	142.819	0.136	-0.183
-670.091	800.000	-0.014	0.049
-669.076	-200.000	0.014	0.326
-668.062	-9.640	-0.227	0.154
-667.047	164.302	-0.220	0.315
-666.032	-172.542	-0.367	0.012
-665.018	800.000	-0.051	-0.151
-664.003	-200.000	-0.016	-0.247
-662.989	-24.349	0.251	-0.152
-661.974	80.264	-0.361	-0.395
-660.959	28.341	0.217	0.186
-659.945	-136.765	0.136	0.016
-658.930	661.723	0.134	-0.352
-657.916	754.460	0.091	-0.250
-656.901	-120.416	0.140	0.024
-655.886	118.894	-0.198	0.248
-654.872	28.379	0.061	-0.052
-653.857	-139.093	-0.303	0.033
-652.843	-64.993	0.153	-0.063
-651.828	-77.685	-0.088	0.031
-650.814	11.150	0.180	-0.140
-649.799	-69.002	0.079	0.031
-648.784	-200.000	-0.012	-0.121
-647.770	-91.404	0.198	0.057
-646.755	-79.938	0.147	0.050
-645.741	536.535	-0.046	-0.112
-644.726	-17.832	-0.275	-0.175
-643.711	5.772	-0.364	0.273
-642.697	-200.000	0.009	0.182
-641.682	48.844	0.093	0.088
-640.668	154.744	0.141	0.197
-639.653	22.972	0.104	-0.087
-638.638	-53.550	-0.214	0.099
-637.624	-133.578	0.219	0.028
-636.609	800.000	0.076	0.292
-635.595	314.377	0.081	0.155
-634.580	39.902	0.129	-0.118
-633.565	800.000	0.104	0.310
-632.551	-89.782	-0.232	-0.069
-631.536	28.463	-0.204	-0.175
-630.522	-86.799	0.300	0.093
-629.507	-200.000	-0.026	0.295
-628.492	-28.254	0.214	-0.125
-627.478	-129.754	-0.255	-0.036
-626.463	20.049	-0.083	0.068
-625.449	-200.000	-0.026	-0.294
-624.434	80.471	0.181	0.198
-623.419	-176.827	0.176	-0.005
-622.405	-200.000	-0.135	0.000
-621.390	-177.311	-0.198	-0.005
-620.376	-200.000	-0.033	-0.153
-619.361	-200.000	-0.024	-0.147
-618.346	-97.179	0.284	-0.075
-617.332	-67.194	-0.142	0.057
-616.317	-83.157	0.214	0.070
-615.303	-200.000	-0.018	-0.106
-614.288	-200.000	-0.098	-0.550
-613.273	245.436	0.065	-0.110
-612.259	-99.159	0.184	-0.047
-611.244	-22.198	-0.293	-0.180
-610.230	134.730	-0.137	-0.181
-609.215	-94.819	0.342	0.094
-608.201	-92.412	-0.250	-0.071
-607.186	-200.000	0.069	-0.369
-606.171	16.601	0.067	-0.054
-605.157	665.990	0.062	0.163
-604.142	386.365	-0.094	-0.196
-603.128	-172.250	-0.336	-0.011
-602.113	162.886	-0.091	0.129
-601.098	-200.000	-0.031	-0.189
-600.084	-200.000	0.078	-0.474
-599.069	-200.000	-0.092	0.467
-598.055	63.660	-0.068	0.069
-597.040	-100.719	0.231	-0.058
-596.025	800.000	0.139	-0.441
-595.011	-200.000	-0.035	0.172
-593.996	-101.427	0.090	0.022
-592.982	-14.399	0.124	0.081
-591.967	-200.000	-0.132	0.000
-590.952	-55.652	0.368	-0.167
-589.938	23.588	-0.059	-0.049
-588.923	-200.000	-0.016	-0.429
-587.909	800.000	0.192	-0.547
-586.894	3.185	0.165	0.122
-585.879	364.226	-0.051	0.105
-584.865	50.286	0.078	-0.075
-583.850	-200.000	0.036	-0.242
-582.836	539.083	0.107	0.257
-581.821	89.090	0.097	0.110
-580.806	266.891	-0.232	-0.412
-579.792	800.000	0.067	-0.284
-578.777	7.041	-0.123	-0.093
-577.763	800.000	-0.014	-0.043
-576.748	388.931	0.092	-0.193
-575.733	304.564	-0.091	-0.172
-574.719	94.961	0.140	-0.162
-573.704	114.677	-0.058	0.071
-572.690	56.531	-0.182	0.179
-571.675	800.000	-0.059	-0.193
-570.661	-173.829	0.131	-0.004
-569.646	64.371	0.075	0.077
-568.631	-200.000	-0.003	-0.119
-567.617	-83.680	0.195	0.063
-566.602	-85.035	0.314	-0.100
-565.588	1.951	0.200	0.146
-564.573	76.024	0.137	0.147
-563.558	12.491	0.205	-0.160
-562.544	78.447	0.136	0.147
-561.529	-100.644	-0.093	-0.023
-560.515	-5.777	-0.154	-0.107
-559.500	800.000	-0.021	0.084
-558.485	26.749	0.080	0.068
-557.471	332.596	-0.095	-0.185
-556.456	72.868	0.155	-0.164
-555.442	-200.000	-0.014	-0.394
-554.427	-31.867	-0.393	0.223
-553.412	-125.975	0.236	-0.036
-552.398	12.592	-0.229	-0.179
-551.383	-200.000	-0.004	-0.026
-550.369	-13.255	0.189	-0.124
-549.354	-200.000	0.001	0.031
-548.339	296.160	0.107	-0.199
-547.325	285.176	0.079	-0.145
-546.310	-13.672	-0.172	-0.113
-545.296	-103.448	0.185	-0.044
-544.281	800.000	-0.127	-0.439
-543.266	-119.183	0.093	-0.016
-542.252	9.731	0.122	0.094
-541.237	-52.861	-0.271	0.126
-540.223	126.377	-0.050	-0.064
-539.208	-143.464	-0.444	-0.043
-538.193	-29.004	0.120	0.069
-537.179	800.000	0.154	0.516
-536.164	3.074	0.089	0.066
-535.150	-34.704	-0.173	-0.096
-534.135	285.907	0.097	-0.177
-533.121	-113.390	0.226	0.045
-532.106	-80.733	0.317	0.107
-531.091	-19.411	-0.199	-0.125
-530.077	-200.000	0.051	0.228
-529.062	35.177	-0.170	-0.151
-528.048	-54.984	-0.045	0.021
-527.033	800.000	-0.109	0.389
-526.018	-200.000	-0.015	0.195
-525.004	-149.745	-0.194	-0.015
-523.989	505.510	0.160	0.375
-522.975	-95.740	-0.182	0.049
-521.960	14.173	-0.025	0.019
-520.945	-67.323	-0.206	0.082
-519.931	-200.000	-0.008	0.167
-518.916	-12.629	0.055	-0.036
-517.902	800.000	-0.030	-0.120
-516.887	-134.033	0.458	0.057
-515.872	37.216	0.105	0.094
-514.858	420.866	0.104	0.225
-513.843	-194.225	0.315	0.003
-512.829	721.999	-0.056	0.149
-511.814	79.322	-0.167	-0.181
-510.799	7.221	-0.070	-0.053
-509.785	800.000	0.079	-0.257
-508.770	317.231	0.051	-0.098
-507.756	54.042	-0.255	-0.248
-506.741	800.000	-0.039	-0.125
-505.726	85.982	0.270	-0.300
-504.712	-117.397	0.197	0.036
-503.697	-140.449	-0.177	0.019
-502.683	-200.000	0.008	0.057
-501.668	-200.000	-0.004	0.094
-500.653	-200.000	-0.036	-0.183
-499.639	84.413	0.195	-0.216
-498.624	-92.431	-0.159	-0.045
-497.610	14.745	-0.218	0.172
-496.595	63.097	0.117	-0.118
-495.581	-7.265	0.069	-0.047
-494.566	423.923	-0.068	0.147
-493.551	409.685	0.050	0.106
-492.537	30.091	0.205	-0.177
-491.522	35.679	-0.197	0.175
-490.508	798.687	0.027	0.074
-489.493	-190.913	0.049	-0.001
-488.478	266.845	-0.082	-0.145
-487.464	264.642	0.103	-0.181
-486.449	203.117	-0.134	-0.210
-485.435	-43.637	0.209	-0.106
-484.420	48.595	0.041	-0.039
-483.405	318.710	0.066	-0.127
-482.391	111.471	0.224	0.273
-481.376	156.529	0.144	-0.200
-480.362	164.679	0.084	-0.120
-479.347	553.099	-0.072	-0.174
-478.332	200.481	0.047	-0.072
-477.318	-37.097	0.177	0.096
-476.303	-109.112	0.287	-0.062
-475.289	376.506	-0.132	0.271
-474.274	-92.357	-0.240	-0.068
-473.259	636.669	-0.040	0.102
-472.245	-44.778	0.333	0.167
-471.230	-124.952	-0.283	0.044
-470.216	-77.535	-0.168	0.059
-469.201	-165.115	0.191	0.009
-468.186	-200.000	0.002	0.373
-467.172	-70.525	-0.229	0.088
-466.157	-200.000	0.033	0.362
-465.143	50.679	0.063	-0.061
-464.128	-7.463	0.366	0.250
-463.113	115.728	0.347	0.428
-462.099	-200.000	-0.007	0.050
-461.084	457.422	-0.107	-0.240
-460.070	800.000	-0.024	0.102
-459.055	277.755	-0.156	0.279
-458.040	580.455	0.110	0.272
-457.026	-200.000	-0.004	0.194
-456.011	-200.000	-0.004	-0.378
-454.997	35.746	0.050	0.044
-453.982	774.488	0.087	-0.240
-452.968	-43.521	-0.042	0.021
-451.953	-200.000	-0.049	0.264
-450.938	800.000	-0.037	-0.157
-449.924	-32.994	-0.305	0.171
-448.909	-200.000	0.038	0.208
-447.895	22.790	-0.250	-0.206
-446.880	355.921	-0.085	0.170
-445.865	359.938	-0.112	0.225
-444.851	-21.100	-0.176	0.108
-443.836	47.961	-0.103	0.097
-442.822	-4.408	0.034	-0.024
-441.807	-72.116	-0.037	0.014
-440.792	22.565	-0.213	0.176
-439.778	94.225	-0.272	-0.311
-438.763	-22.960	-0.084	-0.051
-437.749	113.234	-0.238	0.291
-436.734	-126.475	0.234	-0.035
-435.719	-200.000	0.000	-0.140
-434.705	185.007	-0.025	0.037
-433.690	800.000	0.023	-0.091
-432.676	-108.491	-0.429	-0.093
-431.661	-200.000	-0.007	0.148
-430.646	-200.000	-0.019	-0.102
-429.632	-71.264	-0.238	0.090
-428.617	63.646	-0.356	0.360
-427.603	-134.398	-0.212	-0.026
-426.588	10.314	0.069	-0.053
-425.573	-200.000	-0.016	-0.164
-424.559	-85.468	0.364	0.114
-423.544	363.343	-0.196	0.396
-422.530	436.373	0.061	0.133
-421.515	12.380	-0.057	0.044
-420.500	28.405	0.197	0.168
-419.486	427.002	-0.028	0.061
-418.471	89.076	-0.220	-0.247
-417.457	800.000	0.051	-0.184
-416.442	-200.000	-0.001	0.154
-415.428	799.069	-0.104	0.288
-414.413	23.442	0.098	-0.081
-413.398	175.303	-0.205	0.299
-412.384	-25.296	-0.290	-0.173
-411.369	37.099	-0.261	-0.232
-410.355	411.760	-0.107	-0.229
-409.340	50.665	-0.323	0.308
-408.325	-110.817	-0.289	-0.060
-407.311	-17.696	0.086	-0.054
-406.296	-131.559	-0.381	-0.050
-405.282	-143.066	0.173	0.017
-404.267	-30.685	0.132	0.075
-403.252	-56.164	0.044	-0.020
-402.238	-200.000	-0.000	0.229
-401.223	166.456	0.096	0.137
-400.209	127.624	-0.088	0.113
-399.194	524.966	0.066	-0.157
-398.179	104.320	-0.078	-0.092
-397.165	-95.105	0.300	-0.081
-396.150	-12.446	-0.278	-0.183
-395.136	-95.527	0.067	-0.018
-394.121	22.887	0.090	-0.074
-393.106	800.000	0.036	-0.153
-392.092	11.247	0.066	0.051
-391.077	-0.816	0.180	-0.129
-390.063	-149.140	0.122	0.010
-389.048	361.520	-0.152	-0.305
-388.033	-66.232	0.198	0.079
-387.019	800.000	0.024	0.085
-386.004	68.310	-0.047	0.049
-384.990	-108.403	0.332	0.072
-383.975	800.000	0.035	0.112
-382.960	-105.773	0.134	0.030
-381.946	-193.173	-0.075	-0.001
-380.931	132.715	0.096	-0.125
-379.917	-134.137	0.188	-0.023
-378.902	-66.910	-0.337	0.134
-377.888	362.455	-0.275	-0.555
-376.873	-133.017	0.043	-0.005
-375.858	-77.602	-0.206	0.072
-374.844	506.134	0.043	0.101
-373.829	-92.726	0.125	0.035
-372.815	-162.915	0.328	0.016
-371.800	-87.720	0.273	0.083
-370.785	-130.433	-0.192	-0.026
-369.771	80.009	-0.088	0.095
-368.756	176.080	0.180	0.262
-367.742	-164.100	-0.225	-0.010
-366.727	14.458	0.139	0.109
-365.712	158.294	-0.028	-0.039
-364.698	-200.000	0.036	0.170
-363.683	-97.231	-0.667	-0.175
-362.669	-42.298	0.160	-0.082
-361.654	-3.361	-0.266	-0.186
-360.639	800.000	-0.065	0.210
-359.625	800.000	0.072	-0.212
-358.610	188.087	0.224	0.336
-357.596	437.866	0.053	0.116
-356.581	-37.094	-0.243	0.131
-355.566	800.000	-0.027	-0.090
-354.552	139.055	-0.168	0.222
-353.537	-22.671	0.104	-0.063
-352.523	-99.291	-0.246	0.062
-351.508	-121.077	0.218	0.037
-350.493	43.593	-0.170	0.156
-349.479	-88.877	-0.114	-0.034
-348.464	-154.927	-0.179	-0.012
-347.450	-2.783	-0.094	0.066
-346.435	108.247	0.181	-0.217
-345.420	-199.593	-0.130	-0.001
-344.406	-55.624	-0.320	0.144
-343.391	-200.000	0.013	0.148
-342.377	-147.911	-0.261	0.022
-341.362	400.587	0.050	0.105
-340.348	-25.549	0.250	0.148
-339.333	800.000	-0.098	0.334
-338.318	257.262	0.142	-0.245
-337.304	-161.858	-0.319	-0.016
-336.289	269.951	-0.104	0.184
-335.275	-26.888	0.260	-0.153
-334.260	-64.896	0.097	0.039
-333.245	-79.610	0.177	0.060
-332.231	-104.895	0.117	0.027
-331.216	-87.742	-0.254	0.077
-330.202	59.400	-0.065	-0.064
-329.187	800.000	-0.049	-0.182
-328.172	-66.436	0.396	0.158
-327.158	-49.212	0.111	-0.053
-326.143	241.606	-0.177	-0.296
-325.129	-121.590	0.206	-0.034
-324.114	-57.861	-0.138	0.061
-323.099	778.095	0.032	-0.087
-322.085	33.389	0.167	0.145
-321.070	226.194	0.013	-0.021
-320.056	538.383	-0.131	-0.311
-319.041	-108.461	0.423	0.091
-318.026	791.309	0.038	-0.106
-317.012	181.629	0.108	-0.159
-315.997	186.656	0.097	-0.145
-314.983	-101.473	-0.271	-0.066
-313.968	-184.312	0.271	0.004
-312.953	121.470	-0.145	0.181
-311.939	394.173	-0.236	0.494
-310.924	-200.000	-0.020	-0.190
-309.910	-200.000	0.013	0.258
-308.895	-14.603	-0.246	0.159
-307.880	-200.000	-0.027	-0.122
-306.866	129.570	0.266	-0.341
-305.851	6.895	0.058	0.044
-304.837	-133.556	0.256	-0.032
-303.822	51.972	0.023	-0.022
-302.807	553.977	0.099	0.239
-301.793	-121.359	0.167	-0.028
-300.778	-200.000	-0.010	0.123
-299.764	185.375	-0.066	-0.098
-298.749	38.887	0.122	-0.109
-297.735	17.696	0.222	-0.177
-296.720	-108.647	0.259	-0.056
-295.705	177.274	-0.046	0.067
-294.691	-200.000	-0.014	0.249
-293.676	800.000	-0.055	0.153
-292.662	-132.203	0.282	-0.037
-291.647	-49.150	-0.168	0.080
-290.632	83.930	-0.179	0.195
-289.618	185.532	0.058	0.086
-288.603	-75.438	-0.120	-0.043
-287.589	-200.000	-0.040	-0.221
-286.574	-200.000	-0.029	-0.129
-285.559	-200.000	-0.012	0.078
-284.545	-3.770	0.358	0.249
-283.530	398.402	-0.094	0.196
-282.516	-104.121	-0.321	0.075
-281.501	100.873	-0.180	-0.209
-280.486	192.411	-0.151	-0.229
-279.472	113.957	0.117	-0.143
-278.457	-95.620	0.393	-0.105
-277.443	-124.790	-0.155	0.024
-276.428	310.255	-0.169	0.317
-275.413	800.000	0.041	-0.163
-274.399	-30.827	-0.119	0.068
-273.384	38.382	0.167	-0.149
-272.370	54.055	0.140	0.135
-271.355	800.000	-0.098	-0.292
-270.340	151.461	-0.109	0.148
-269.326	-29.331	0.061	-0.035
-268.311	800.000	-0.106	-0.381
-267.297	210.476	0.192	0.302
-266.282	-99.443	0.192	0.048
-265.267	101.653	-0.066	-0.077
-264.253	-49.433	0.219	-0.105
-263.238	-68.364	0.188	-0.073
-262.224	299.189	0.028	0.051
-261.209	-200.000	0.021	0.128
-260.195	-200.000	0.001	-0.186
-259.180	222.767	-0.096	0.155
-258.165	119.210	-0.202	0.249
-257.151	-168.853	0.339	0.013
-256.136	-56.714	0.083	-0.037
-255.122	263.704	-0.031	0.054
-254.107	800.000	-0.066	-0.226
-253.092	107.876	-0.132	-0.158
-252.078	89.029	-0.133	0.148
-251.063	-49.191	0.246	-0.118
-250.049	24.628	-0.267	-0.221
-249.034	393.745	0.031	-0.064
-248.019	159.633	0.038	-0.053
-247.005	-20.882	-0.139	0.085
-245.990	54.320	0.129	-0.124
-244.976	-145.626	-0.376	0.034
-243.961	-200.000	0.019	-0.165
-242.946	85.337	0.093	0.102
-241.932	800.000	0.052	0.147
-240.917	82.290	-0.065	-0.070
-239.903	-50.627	0.097	-0.046
-238.888	-172.626	0.169	-0.005
-237.873	-137.733	0.232	0.026
-236.859	-78.833	-0.416	-0.142
-235.844	-74.361	-0.257	-0.093
-234.830	-200.000	0.016	0.119
-233.815	-60.567	-0.224	-0.095
-232.800	-114.690	0.225	0.043
-231.786	800.000	0.051	-0.161
-230.771	-200.000	-0.020	0.248
-229.757	-133.062	0.216	-0.027
-228.742	134.628	0.101	-0.131
-227.727	-200.000	0.003	-0.142
-226.713	-152.388	-0.194	-0.014
-225.698	-64.858	-0.110	0.044
-224.684	263.852	0.144	0.250
-223.669	84.903	0.109	0.119
-222.655	-35.176	0.193	0.105
-221.640	-32.134	-0.241	-0.135
-220.625	-200.000	-0.037	0.365
-219.611	-104.074	-0.248	0.058
-218.596	800.000	0.108	-0.316
-217.582	-68.866	-0.240	0.092
-216.567	-52.739	0.366	0.169
-215.552	-113.058	0.270	0.053
-214.538	25.258	-0.078	0.065
-213.523	432.960	0.100	0.217
-212.509	800.000	0.022	-0.077
-211.494	-78.032	0.081	0.028
-210.479	-98.645	-0.108	-0.027
-209.465	-83.114	-0.248	-0.080
-208.450	-75.032	-0.112	-0.040
-207.436	-50.638	0.259	-0.122
-206.421	-115.963	0.102	-0.019
-205.406	-200.000	0.026	0.407
-204.392	-95.501	-0.072	0.019
-203.377	-54.610	-0.295	-0.133
-202.363	213.330	0.253	-0.400
-201.348	-200.000	0.007	-0.088
-200.333	-104.424	-0.040	0.009
-199.319	114.019	0.122	0.148
-198.304	14.715	-0.264	0.206
-197.290	-73.104	-0.387	0.142
-196.275	-88.402	-0.214	-0.064
-195.260	31.132	-0.128	0.110
-194.246	-90.380	-0.108	0.031
-193.231	465.011	0.175	0.390
-192.217	-184.109	0.213	-0.004
-191.202	-200.000	-0.009	-0.124
-190.187	16.154	-0.333	0.262
-189.173	67.494	-0.214	0.217
-188.158	-200.000	0.007	-0.140
-187.144	-30.574	0.123	0.069
-186.129	-84.828	-0.059	0.018
-185.114	680.740	0.044	-0.114
-184.100	159.451	0.139	0.193
-183.085	260.209	-0.028	-0.048
-182.071	193.094	-0.119	-0.179
-181.056	-141.311	0.201	-0.020
-180.042	727.472	0.125	-0.332
-179.027	-19.519	-0.291	0.179
-178.012	38.781	-0.126	-0.112
-176.998	-200.000	0.011	0.076
-175.983	-200.000	0.022	0.203
-174.969	147.504	-0.086	0.116
-173.954	273.524	0.046	-0.082
-172.939	800.000	-0.047	0.183
-171.925	69.348	0.264	-0.271
-170.910	-61.414	-0.191	-0.080
-169.896	223.502	-0.108	-0.174
-168.881	578.257	0.052	0.127
-167.866	186.819	0.175	0.260
-166.852	800.000	0.097	0.269
-165.837	164.233	-0.089	0.125
-164.823	30.898	0.231	-0.197
-163.808	-16.021	-0.234	-0.148
-162.793	-138.393	0.223	0.025
-161.779	-46.975	-0.146	-0.071
-160.764	195.071	0.115	-0.174
-159.750	131.235	0.208	0.267
-158.735	-98.040	0.233	0.060
-157.720	-1.299	-0.163	-0.115
-156.706	591.432	0.078	-0.191
-155.691	28.908	-0.149	-0.126
-154.677	-86.823	0.257	-0.078
-153.662	487.420	-0.053	-0.120
-152.647	342.839	-0.079	-0.154
-151.633	55.587	0.042	0.040
-150.618	-119.996	-0.094	-0.016
-149.604	-165.161	0.067	-0.003
-148.589	40.510	0.176	0.158
-147.574	156.981	0.221	-0.304
-146.560	-16.508	0.389	0.245
-145.545	125.082	0.172	0.215
-144.531	79.150	-0.159	0.169
-143.516	76.925	-0.127	-0.134
-142.502	205.850	0.158	-0.245
-141.487	161.480	0.235	0.328
-140.472	-83.105	-0.282	-0.090
-139.458	-62.300	-0.093	0.038
-138.443	-200.000	0.109	-0.518
-137.429	-200.000	0.044	0.235
-136.414	-95.837	0.227	0.060
-135.399	5.523	0.239	0.176
-134.385	-200.000	-0.056	0.249
-133.370	-200.000	-0.025	-0.245
-132.356	800.000	0.072	0.258
-131.341	127.511	-0.274	0.347
-130.326	-26.085	0.103	0.061
-129.312	548.424	0.058	-0.137
-128.297	-89.084	0.255	-0.075
-127.283	11.986	0.458	-0.351
-126.268	-200.000	-0.026	-0.159
-125.253	-71.573	-0.241	-0.090
-124.239	-82.247	-0.205	0.066
-123.224	-171.369	-0.209	-0.007
-122.210	52.096	0.181	-0.172
-121.195	397.891	0.158	0.328
-120.180	-200.000	-0.029	0.209
-119.166	-200.000	0.011	0.326
-118.151	-83.049	-0.113	0.036
-117.137	83.420	-0.177	0.192
-116.122	-152.383	-0.107	0.008
-115.107	-200.000	0.011	-0.108
-114.093	-200.000	0.006	0.036
-113.078	72.713	0.145	0.151
-112.064	-44.621	-0.190	0.094
-111.049	67.854	0.104	-0.106
-110.034	462.970	0.059	0.132
-109.020	-63.457	-0.131	0.053
-108.005	-200.000	0.010	0.277
-106.991	323.003	0.144	0.273
-105.976	202.149	-0.128	-0.196
-104.962	-200.000	-0.036	-0.345
-103.947	350.758	0.034	0.066
-102.932	-75.085	0.218	0.077
-101.918	-105.473	-0.239	-0.054
-100.903	-135.616	0.123	0.015
-99.889	-116.611	-0.211	-0.039
-98.874	620.132	0.066	0.165
-97.859	-28.695	0.159	-0.091
-96.845	-25.079	0.197	-0.116
-95.830	-126.940	-0.241	0.035
-94.816	800.000	-0.003	-0.010
-93.801	-200.000	-0.009	0.131
-92.786	583.703	0.085	0.208
-91.772	-121.835	0.346	0.057
-90.757	-110.776	0.488	0.100
-89.743	-43.087	-0.202	0.101
-88.728	800.000	0.023	0.098
-87.713	-87.572	-0.231	0.069
-86.699	101.345	0.040	0.046
-85.684	-160.844	0.188	-0.010
-84.670	25.269	0.217	0.179
-83.655	32.421	0.216	0.185
-82.640	36.369	0.152	-0.133
-81.626	800.000	0.121	-0.339
-80.611	800.000	-0.065	-0.206
-79.597	82.016	0.164	-0.177
-78.582	231.039	0.059	0.096
-77.567	800.000	-0.093	-0.278
-76.553	-60.682	-0.271	0.114
-75.538	-200.000	-0.025	-0.111
-74.524	198.156	0.124	-0.189
-73.509	115.360	0.133	-0.161
-72.494	-17.465	0.013	0.008
-71.480	350.805	0.031	0.061
-70.465	-71.885	0.122	0.045
-69.451	451.644	0.136	-0.298
-68.436	2.114	-0.173	-0.124
-67.422	108.989	0.255	0.303
-66.407	229.101	0.113	-0.183
-65.392	-119.242	-0.413	-0.072
-64.378	-108.157	-0.056	-0.012
-63.363	3.486	0.165	0.119
-62.349	98.011	-0.150	0.172
-61.334	152.525	-0.635	-0.861
-60.319	-150.290	0.383	0.029
-59.305	294.868	-0.403	-0.731
-58.290	174.580	0.485	0.696
-57.276	-200.000	0.321	1.477
-56.261	-200.000	77.343	506.347
-55.246	512.040	1331.787	3077.888
-54.232	148.425	2565.103	3436.979
-53.217	109.010	2341.931	2779.114
-52.203	48.996	1955.942	1822.292
-51.188	43.307	1743.554	1579.988
-50.173	40.513	1697.784	1517.109
-49.159	54.879	1733.328	1659.923
-48.144	60.123	1752.150	1718.298
-47.130	43.269	1715.580	1554.098
-46.115	40.187	1701.476	1517.669
-45.100	40.037	1696.776	1512.267
-44.086	40.052	1694.668	1510.439
-43.071	39.926	1691.688	1506.762
-42.057	39.879	1689.593	1504.484
-41.042	39.915	1687.333	1502.687
-40.027	39.926	1685.746	1501.294
-39.013	39.910	1684.287	1499.814
-37.998	39.936	1682.154	1498.053
-36.984	40.016	1680.821	1497.411
-35.969	40.024	1678.998	1495.790
-34.954	40.171	1677.837	1495.810
-33.940	40.081	1675.934	1493.372
-32.925	40.057	1673.808	1491.236
-31.911	40.020	1672.165	1489.435
-30.896	40.074	1670.127	1487.970
-29.881	40.104	1668.317	1486.519
-28.867	40.004	1667.298	1484.805
-27.852	40.015	1665.705	1483.407
-26.838	40.060	1664.066	1482.228
-25.823	40.082	1662.734	1481.146
-24.809	40.087	1661.241	1479.791
-23.794	40.133	1659.747	1478.747
-22.779	40.074	1658.208	1476.875
-21.765	40.076	1656.820	1475.596
-20.750	40.093	1655.086	1474.123
-19.736	40.120	1653.822	1473.142
-18.721	40.090	1652.008	1471.240
-17.706	40.029	1651.247	1470.054
-16.692	40.155	1648.846	1468.793
-15.677	40.099	1648.056	1467.615
-14.663	40.075	1646.779	1466.238
-13.648	40.078	1645.574	1465.129
-12.633	40.074	1643.544	1463.233
-11.619	40.093	1641.959	1461.907
-10.604	39.989	1640.436	1459.726
-9.590	40.176	1638.466	1459.291
-8.575	40.160	1637.659	1458.401
-7.560	40.106	1636.473	1456.890
-6.546	40.065	1635.606	1455.760
-5.531	40.047	1634.692	1454.753
-4.517	40.102	1633.197	1453.766
-3.502	40.054	1631.999	1452.290
-2.487	40.158	1630.141	1451.341
-1.473	40.042	1619.070	1440.584
-0.458	37.512	1599.348	1404.740
0.556	34.034	1598.848	1369.260
1.571	31.450	1623.136	1371.017
2.586	30.670	1637.881	1377.579
3.600	26.798	1581.935	1302.651
4.615	14.825	1462.791	1124.376
5.629	4.245	1389.029	999.674
6.644	2.410	1379.383	980.890
7.659	2.317	1377.687	979.006
8.673	2.188	1376.451	977.213
9.688	2.215	1374.679	976.041
10.702	1.999	1372.052	972.713
11.717	5.594	1380.573	1001.699
12.731	16.901	1401.444	1089.813
13.746	25.378	1415.823	1155.703
14.761	26.987	1416.924	1166.851
15.775	27.116	1417.027	1167.663
16.790	27.192	1416.630	1167.720
17.804	27.150	1416.343	1167.111
18.819	27.384	1416.074	1168.285
19.834	27.456	1415.015	1167.770
20.848	27.678	1413.864	1168.137
21.863	27.597	1413.395	1167.127
22.877	27.539	1412.493	1165.909
23.892	27.569	1411.619	1165.281
24.907	27.508	1411.167	1164.409
25.921	27.547	1410.023	1163.613
26.936	27.536	1409.063	1162.646
27.950	27.538	1408.097	1161.761
28.965	27.524	1406.847	1160.537
29.980	27.468	1405.804	1159.216
30.994	27.510	1404.373	1158.200
32.009	27.455	1403.468	1157.007
33.023	27.424	1402.044	1155.529
34.038	27.519	1400.654	1154.885
35.053	27.543	1399.788	1154.222
36.067	27.505	1399.159	1153.359
37.082	27.495	1398.019	1152.257
38.096	27.477	1397.308	1151.455
39.111	27.537	1396.089	1150.725
40.126	27.521	1395.407	1149.964
41.140	27.576	1394.646	1149.581
42.155	27.539	1394.490	1149.117
43.169	27.589	1394.399	1149.255
44.184	27.487	1394.284	1148.416
45.199	27.501	1393.817	1148.016
46.213	27.530	1393.560	1147.883
47.228	27.459	1392.725	1146.651
48.242	27.561	1390.950	1145.730
49.257	27.527	1389.442	1144.168
50.271	27.612	1387.730	1143.191
51.286	27.394	1387.118	1141.219
52.301	27.530	1385.516	1140.655
53.315	27.559	1384.610	1139.989
54.330	27.547	1384.165	1139.446
55.344	27.421	1382.849	1137.474
56.359	27.480	1381.987	1137.033
57.374	27.544	1380.903	1136.439
58.388	27.539	1380.116	1135.661
59.403	27.523	1380.101	1135.448
60.417	27.593	1378.617	1134.562
61.432	27.439	1378.721	1133.586
62.447	27.497	1377.674	1132.988
63.461	27.543	1376.133	1131.910
64.476	27.533	1375.365	1131.111
65.490	27.575	1374.217	1130.332
66.505	27.604	1372.411	1128.923
67.520	27.562	1371.053	1127.444
68.534	27.501	1370.520	1126.533
69.549	27.479	1369.652	1125.579
70.563	27.520	1368.666	1124.925
71.578	27.500	1367.669	1123.881
72.593	27.555	1366.447	1123.115
73.607	27.554	1365.851	1122.521
74.622	27.541	1365.408	1121.979
75.636	27.591	1364.706	1121.610
76.651	27.552	1363.818	1120.540
77.666	27.430	1363.898	1119.760
78.680	27.501	1363.194	1119.518
79.695	27.664	1361.937	1119.386
80.709	27.545	1361.577	1118.262
81.724	27.534	1360.584	1117.281
82.739	27.536	1359.791	1116.544
83.753	27.496	1358.637	1115.251
84.768	27.556	1357.440	1114.536
85.782	27.454	1356.364	1112.931
86.797	27.570	1355.058	1112.468
87.812	27.541	1354.101	1111.410
88.826	27.590	1352.820	1110.560
89.841	27.536	1352.198	1109.622
90.855	27.589	1350.908	1108.785
91.870	27.595	1349.797	1107.809
92.884	27.516	1349.724	1107.173
93.899	27.563	1349.172	1106.906
94.914	27.552	1347.937	1105.732
95.928	27.597	1347.038	1105.171
96.943	27.526	1346.138	1103.904
97.957	27.598	1345.324	1103.570
98.972	27.625	1344.437	1102.908
99.987	27.585	1343.678	1101.948
101.001	27.483	1342.958	1100.642
102.016	27.454	1341.831	1099.447
103.030	27.510	1340.822	1098.862
104.045	27.596	1340.253	1098.819
105.060	27.621	1339.102	1097.923
106.074	27.665	1338.117	1097.285
107.089	27.585	1336.722	1095.564
108.103	27.625	1336.117	1095.214
109.118	27.618	1334.982	1094.142
110.133	27.580	1334.161	1093.146
111.147	27.715	1332.377	1092.396
112.162	27.623	1331.688	1091.186
113.176	27.630	1330.699	1090.315
114.191	27.558	1329.650	1088.929
115.206	27.737	1328.516	1088.974
116.220	27.637	1327.334	1087.312
117.235	27.538	1327.086	1086.424
118.249	27.600	1325.840	1085.679
119.264	27.575	1325.230	1084.932
120.279	27.607	1324.434	1084.373
121.293	27.671	1323.474	1083.873
122.308	27.751	1322.661	1083.589
123.322	27.627	1321.867	1082.103
124.337	27.606	1321.370	1081.479
125.352	27.743	1320.406	1081.402
126.366	27.767	1319.146	1080.419
127.381	27.676	1318.216	1079.024
128.395	27.626	1317.772	1078.270
129.410	27.640	1317.022	1077.644
130.424	27.686	1316.014	1076.995
131.439	27.740	1315.044	1076.426
132.454	27.682	1314.586	1075.614
133.468	27.596	1313.829	1074.392
134.483	27.696	1313.586	1074.683
135.497	27.731	1312.133	1073.608
136.512	27.775	1311.174	1072.984
137.527	27.639	1310.542	1071.574
138.541	27.651	1309.303	1070.539
139.556	27.597	1307.877	1068.962
140.570	27.761	1306.581	1068.769
141.585	27.712	1306.001	1067.913
142.600	27.600	1304.523	1065.951
143.614	27.683	1304.117	1066.012
144.629	27.601	1303.502	1064.938
145.643	27.591	1301.959	1063.522
146.658	27.522	1301.028	1062.267
147.673	27.577	1299.823	1061.507
148.687	27.579	1298.975	1060.735
149.702	27.626	1297.856	1059.999
150.716	27.600	1296.575	1058.708
151.731	27.650	1295.142	1057.738
152.746	27.697	1294.522	1057.407
153.760	27.652	1293.632	1056.329
154.775	27.677	1292.801	1055.697
155.789	27.739	1291.962	1055.282
156.804	27.674	1290.648	1053.735
157.819	27.613	1290.141	1052.878
158.833	27.679	1289.156	1052.360
159.848	27.631	1288.577	1051.521
160.862	27.727	1287.844	1051.381
161.877	27.695	1286.837	1050.282
162.892	27.851	1285.873	1050.298
163.906	27.757	1285.230	1049.143
164.921	27.744	1284.923	1048.722
165.935	27.662	1283.911	1047.336
166.950	27.763	1283.417	1047.417
167.964	27.770	1282.694	1046.778
168.979	27.782	1282.137	1046.297
169.994	27.778	1281.566	1045.714
171.008	27.798	1280.803	1045.116
172.023	27.822	1279.447	1044.055
173.037	27.767	1279.397	1043.605
174.052	27.758	1278.372	1042.627
175.067	27.809	1277.603	1042.195
176.081	27.824	1276.450	1041.247
177.096	27.699	1276.343	1040.357
178.110	27.785	1275.070	1039.717
179.125	27.904	1273.998	1039.427
180.140	27.914	1272.763	1038.386
181.154	27.760	1271.909	1036.720
182.169	27.721	1271.357	1035.962
183.183	27.787	1269.587	1034.799
184.198	27.846	1268.714	1034.328
185.213	27.847	1267.890	1033.571
186.227	27.804	1266.966	1032.485
187.242	27.821	1266.257	1031.911
188.256	27.755	1265.463	1030.801
189.271	27.924	1264.273	1030.695
190.286	27.954	1263.445	1030.098
191.300	27.886	1263.201	1029.423
192.315	27.907	1262.745	1029.081
193.329	27.835	1262.338	1028.253
194.344	27.828	1261.674	1027.578
195.359	27.786	1261.645	1027.231
196.373	27.932	1260.417	1026.959
197.388	27.857	1259.886	1026.017
198.402	27.881	1259.795	1025.984
199.417	27.868	1259.437	1025.531
200.432	27.897	1258.797	1025.077
201.446	27.850	1258.658	1024.613
202.461	27.870	1257.501	1023.693
203.475	27.948	1256.403	1023.146
204.490	27.922	1255.417	1022.104
205.504	27.924	1254.911	1021.615
206.519	27.991	1253.841	1021.024
207.534	28.085	1252.458	1020.336
208.548	27.980	1251.964	1019.254
209.563	28.014	1250.875	1018.468
210.577	27.998	1250.221	1017.757
211.592	27.961	1249.058	1016.514
212.607	27.982	1248.816	1016.345
213.621	28.038	1247.688	1015.647
214.636	28.018	1247.239	1015.082
215.650	28.013	1246.045	1013.991
216.665	28.010	1244.925	1012.976
217.680	27.985	1244.498	1012.399
218.694	27.957	1243.684	1011.491
219.709	27.920	1243.097	1010.723
220.723	28.041	1242.467	1010.786
221.738	27.909	1241.750	1009.386
222.753	27.959	1241.105	1009.048
223.767	28.042	1239.752	1008.318
224.782	28.014	1239.818	1008.127
225.796	28.097	1239.384	1008.140
226.811	28.055	1238.784	1007.335
227.826	28.015	1238.257	1006.595
228.840	28.038	1237.461	1005.984
229.855	28.088	1236.749	1005.594
230.869	28.087	1235.921	1004.826
231.884	28.088	1235.327	1004.259
232.899	28.090	1234.586	1003.575
233.913	28.082	1234.296	1003.209
234.928	28.297	1233.329	1003.512
235.942	28.209	1232.834	1002.539
236.957	28.120	1232.153	1001.409
237.972	28.097	1231.416	1000.594
238.986	28.135	1230.990	1000.372
240.001	28.164	1230.026	999.657
241.015	28.266	1229.396	999.613
242.030	28.217	1228.691	998.686
243.045	28.149	1227.784	997.486
244.059	28.304	1226.988	997.599
245.074	28.260	1226.031	996.492
246.088	28.285	1225.401	996.028
247.103	28.372	1224.255	995.478
248.117	28.242	1223.817	994.330
249.132	28.217	1223.349	993.724
250.147	28.264	1222.690	993.358
251.161	28.333	1221.710	992.850
252.176	28.367	1221.016	992.381
253.190	28.311	1220.393	991.480
254.205	28.319	1219.989	991.111
255.220	28.336	1219.293	990.547
256.234	28.518	1218.410	990.727
257.249	28.433	1217.662	989.572
258.263	28.321	1217.275	988.566
259.278	28.310	1217.330	988.462
260.293	28.366	1216.543	988.036
261.307	28.420	1215.971	987.779
262.322	28.516	1214.948	987.378
263.336	28.363	1214.527	986.125
264.351	28.374	1214.150	985.789
265.366	28.391	1213.116	984.955
266.380	28.391	1212.446	984.324
267.395	28.430	1212.071	984.142
268.409	28.350	1211.372	983.058
269.424	28.367	1210.610	982.444
270.439	28.330	1210.342	981.939
271.453	28.343	1209.779	981.467
272.468	28.473	1208.437	980.985
273.482	28.379	1207.949	979.999
274.497	28.455	1207.817	980.212
275.512	28.483	1207.276	979.837
276.526	28.568	1206.208	979.339
277.541	28.444	1205.747	978.214
278.555	28.637	1204.571	978.203
279.570	28.578	1204.202	977.501
280.585	28.363	1203.519	975.713
281.599	28.585	1201.945	975.532
282.614	28.531	1201.402	974.722
283.628	28.556	1200.737	974.229
284.643	28.591	1199.943	973.682
285.657	28.498	1199.233	972.525
286.672	28.600	1197.972	971.958
287.687	28.656	1197.415	971.715
288.701	28.649	1197.046	971.295
289.716	28.688	1195.843	970.441
290.730	28.550	1195.565	969.399
291.745	28.609	1195.062	969.216
292.760	28.575	1194.522	968.510
293.774	28.759	1193.522	968.585
294.789	28.608	1193.489	967.678
295.803	28.655	1192.748	967.241
296.818	28.662	1191.974	966.561
297.833	28.658	1191.199	965.825
298.847	28.751	1190.370	965.560
299.862	28.826	1189.779	965.388
300.876	28.705	1188.996	964.034
301.891	28.734	1188.504	963.701
302.906	28.870	1187.950	963.881
303.920	28.786	1186.763	962.392
304.935	28.910	1186.049	962.375
305.949	28.841	1185.664	961.618
306.964	28.837	1185.276	961.196
307.979	28.899	1184.543	960.839
308.993	28.912	1184.068	960.440
310.008	28.712	1183.419	958.783
311.022	28.705	1182.621	958.016
312.037	28.942	1181.548	958.294
313.052	28.837	1180.979	957.203
314.066	28.789	1180.112	956.165
315.081	28.934	1179.370	956.232
316.095	28.926	1178.594	955.476
317.110	28.883	1178.566	955.148
318.125	28.841	1177.749	954.184
319.139	28.880	1176.958	953.662
320.154	28.882	1176.298	953.051
321.168	28.988	1175.836	953.140
322.183	29.011	1175.107	952.587
323.197	28.932	1174.295	951.436
324.212	28.908	1174.033	951.015
325.227	28.973	1173.433	950.779
326.241	29.006	1172.756	950.318
327.256	29.033	1172.103	949.843
328.270	28.982	1171.370	948.900
329.285	28.955	1170.662	948.107
330.300	29.110	1169.534	947.906
331.314	29.190	1168.558	947.444
332.329	29.075	1168.064	946.365
333.343	29.127	1167.257	945.897
334.358	29.144	1166.551	945.330
335.373	29.078	1166.135	944.569
336.387	28.968	1165.192	943.159
337.402	29.191	1164.480	943.640
338.416	29.094	1164.128	942.777
339.431	29.149	1163.498	942.461
340.446	29.177	1162.686	941.863
341.460	29.099	1162.183	940.976
342.475	29.136	1161.467	940.504
343.489	29.145	1160.361	939.566
344.504	29.271	1159.010	939.033
345.519	29.356	1158.110	938.653
346.533	29.228	1157.727	937.607
347.548	29.287	1157.050	937.278
348.562	29.203	1156.464	936.294
349.577	29.208	1155.884	935.764
350.592	29.285	1154.789	935.188
351.606	29.334	1153.814	934.565
352.621	29.299	1153.789	934.285
353.635	29.206	1153.749	933.694
354.650	29.344	1152.684	933.452
355.665	29.235	1152.169	932.402
356.679	29.326	1151.388	932.145
357.694	29.390	1151.079	932.136
358.708	29.233	1150.509	930.801
359.723	29.253	1149.484	929.985
360.738	29.275	1148.563	929.270
361.752	29.322	1148.265	929.187
362.767	29.407	1147.670	929.047
363.781	29.406	1147.223	928.603
364.796	29.467	1146.344	928.113
365.810	29.459	1145.793	927.546
366.825	29.423	1145.226	926.822
367.840	29.523	1144.931	927.007
368.854	29.435	1144.362	926.022
369.869	29.511	1143.622	925.722
370.883	29.508	1142.768	924.933
371.898	29.508	1141.617	923.918
372.913	29.611	1141.490	924.249
373.927	29.554	1141.143	923.603
374.942	29.568	1140.698	923.232
375.956	29.562	1139.815	922.405
376.971	29.620	1139.165	922.086
377.986	29.612	1138.998	921.830
379.000	29.673	1138.531	921.674
380.015	29.621	1137.961	920.873
381.029	29.652	1137.377	920.473
382.044	29.566	1136.573	919.309
383.059	29.661	1135.723	919.015
384.073	29.671	1134.988	918.390
385.088	29.727	1134.188	917.940
386.102	29.659	1133.333	916.828
387.117	29.680	1132.319	916.030
388.132	29.626	1131.937	915.371
389.146	29.589	1131.064	914.404
390.161	29.744	1130.318	914.485
391.175	29.656	1129.662	913.437
392.190	29.764	1129.314	913.608
393.205	29.801	1128.482	913.039
394.219	29.825	1127.585	912.350
395.234	29.842	1126.639	911.589
396.248	29.799	1126.118	910.872
397.263	29.857	1124.928	910.117
398.278	29.812	1124.759	909.675
399.292	29.906	1123.934	909.390
400.307	29.862	1123.520	908.760
401.321	29.884	1122.780	908.191
402.336	29.904	1122.164	907.710
403.350	29.901	1121.702	907.242
404.365	29.848	1120.886	906.242
405.380	29.921	1120.135	905.911
406.394	29.988	1119.551	905.687
407.409	30.050	1118.395	904.975
408.423	30.022	1118.039	904.468
409.438	30.109	1117.371	904.273
410.453	29.977	1116.391	902.755
411.467	30.075	1115.555	902.476
412.482	30.108	1114.793	901.944
413.496	30.068	1114.317	901.284
414.511	30.050	1114.054	900.901
415.526	30.021	1113.650	900.355
416.540	30.087	1113.030	900.094
417.555	30.115	1112.662	899.853
418.569	30.075	1112.210	899.212
419.584	30.123	1111.889	899.105
420.599	30.164	1111.431	898.854
421.613	91.211	1305.788	1388.942
422.628	85.606	1334.127	1389.086
