DTS Sentinel unit serial number:	SN413079Multiplexer serial number:	ORYXHardware model number:	OX4-SRSoftware version number:	ORYX F/W v4.00 Oryx Data Collector v3.7.2.0data status	okinstallation	princeton_trtdifferential loss correction	single-endedforward channel	channel 2reverse channel	N/Adate	2019/09/17time	23:51:35forward acquisition time	60.00reverse acquisition time	0.00gamma	496.2192k internal	0.2349k external	0.2349temperature offset calibration	0.9986default loss term (dB/km)	0.3790temperature slope calibration	1.0000multiplexer offset coefficient	1.0000multiplexer slope coefficient	1.0000fibre end	0.00T internal ref (°C)	23.95T ext. ref 1 (°C)	0.17T ext. ref 2 (°C)	17.38length (m)	temperature (°C)	Stokes	anti-Stokes-747.200	433.420	0.104	0.226
-746.185	-128.362	-0.042	0.006
-745.171	77.595	-0.167	0.178
-744.156	800.000	-0.060	-0.205
-743.142	55.210	0.244	0.235
-742.127	45.580	-0.125	-0.115
-741.112	-128.157	0.207	-0.030
-740.098	-102.672	0.260	0.062
-739.083	412.979	0.036	-0.077
-738.069	-200.000	0.007	0.482
-737.054	53.072	0.045	0.043
-736.039	-126.373	-0.127	-0.019
-735.025	-200.000	-0.048	0.292
-734.010	800.000	0.065	-0.270
-732.996	-200.000	0.010	0.155
-731.981	-64.634	-0.129	0.052
-730.966	-200.000	0.022	-0.161
-729.952	11.420	0.221	0.169
-728.937	800.000	0.092	0.264
-727.923	-54.524	-0.227	-0.103
-726.908	46.109	-0.136	0.126
-725.894	-200.000	-0.062	-0.000
-724.879	-200.000	-0.026	-0.212
-723.864	-74.030	0.341	0.124
-722.850	223.246	0.076	0.122
-721.835	-200.000	0.010	-0.227
-720.821	800.000	0.098	-0.357
-719.806	-122.111	0.261	0.043
-718.791	800.000	-0.076	-0.212
-717.777	169.617	0.085	0.122
-716.762	-129.224	0.224	0.031
-715.748	92.290	-0.255	0.286
-714.733	11.445	0.244	-0.187
-713.718	212.678	-0.139	0.219
-712.704	-72.139	-0.243	-0.090
-711.689	-14.457	-0.187	0.120
-710.675	13.281	0.324	-0.250
-709.660	-88.319	0.274	-0.082
-708.645	42.274	0.193	-0.175
-707.631	45.426	0.188	-0.173
-706.616	-99.027	-0.103	-0.026
-705.602	-200.000	-0.004	-0.158
-704.587	773.110	0.019	-0.051
-703.572	-155.186	-0.461	-0.030
-702.558	134.170	0.128	-0.166
-701.543	-60.223	-0.167	-0.071
-700.529	-200.000	-0.013	0.214
-699.514	110.912	-0.084	0.101
-698.499	210.110	0.175	-0.273
-697.485	-13.618	-0.198	0.128
-696.470	-181.288	-0.270	-0.005
-695.456	800.000	0.062	0.179
-694.441	800.000	-0.080	-0.257
-693.426	26.439	0.255	-0.212
-692.412	-16.991	-0.211	-0.133
-691.397	800.000	0.073	0.201
-690.383	-82.256	-0.239	0.078
-689.368	51.842	0.081	0.077
-688.354	21.008	-0.140	0.113
-687.339	784.922	-0.073	-0.199
-686.324	-11.105	0.182	-0.119
-685.310	120.005	-0.227	-0.281
-684.295	240.099	0.113	0.188
-683.281	-76.263	-0.026	0.009
-682.266	47.935	0.139	-0.129
-681.251	-56.960	-0.048	0.021
-680.237	435.537	0.025	0.054
-679.222	103.780	-0.076	0.089
-678.208	-102.204	0.060	0.014
-677.193	53.135	0.073	-0.070
-676.178	-200.000	-0.029	0.175
-675.164	212.868	-0.267	0.420
-674.149	800.000	0.090	-0.274
-673.135	-48.324	-0.156	0.075
-672.120	-97.206	0.055	0.014
-671.105	28.404	0.161	-0.136
-670.091	27.678	0.229	0.192
-669.076	-200.000	-0.022	-0.220
-668.062	-89.712	-0.108	-0.032
-667.047	-200.000	0.002	0.314
-666.032	124.715	0.154	0.193
-665.018	-57.170	-0.080	-0.035
-664.003	124.339	-0.100	-0.126
-662.989	800.000	-0.093	0.347
-661.974	-200.000	-0.059	-0.354
-660.959	-200.000	-0.024	0.128
-659.945	-89.337	-0.170	0.050
-658.930	-53.049	0.218	0.100
-657.916	-87.283	0.424	0.128
-656.901	99.165	-0.313	0.361
-655.886	230.631	-0.079	0.129
-654.872	75.975	0.222	0.234
-653.857	-112.781	-0.152	-0.030
-652.843	121.255	-0.128	-0.158
-651.828	28.093	-0.136	0.114
-650.814	-71.166	-0.300	-0.112
-649.799	-154.994	0.184	-0.012
-648.784	46.139	0.111	-0.102
-647.770	271.776	0.085	-0.149
-646.755	800.000	-0.047	-0.185
-645.741	-43.913	0.120	0.060
-644.726	-123.899	-0.266	-0.042
-643.711	-109.592	-0.407	-0.085
-642.697	60.865	-0.170	-0.168
-641.682	-200.000	0.072	0.455
-640.668	-113.042	-0.157	-0.031
-639.653	636.480	-0.048	-0.121
-638.638	84.792	-0.179	-0.195
-637.624	-200.000	0.045	0.223
-636.609	-45.236	-0.161	-0.080
-635.595	130.524	-0.074	-0.095
-634.580	-200.000	0.023	-0.118
-633.565	800.000	-0.035	0.114
-632.551	800.000	-0.109	-0.331
-631.536	-110.718	-0.392	-0.081
-630.522	-58.740	-0.218	-0.094
-629.507	-200.000	-0.010	0.286
-628.492	66.513	0.055	0.056
-627.478	-30.417	0.069	0.039
-626.463	-73.860	-0.190	0.069
-625.449	165.837	-0.128	-0.180
-624.434	70.671	0.043	-0.044
-623.419	-140.504	-0.334	-0.035
-622.405	128.982	0.099	-0.126
-621.390	800.000	-0.042	0.114
-620.376	-14.845	0.346	0.221
-619.361	720.035	0.143	0.379
-618.346	-98.044	-0.216	0.055
-617.332	-111.814	0.286	-0.058
-616.317	800.000	-0.053	-0.160
-615.303	728.036	0.101	-0.267
-614.288	83.872	-0.138	0.149
-613.273	23.220	0.206	-0.168
-612.259	246.076	0.048	0.081
-611.244	-200.000	0.032	0.157
-610.230	418.323	0.121	-0.258
-609.215	-15.957	-0.169	-0.107
-608.201	-200.000	0.009	0.149
-607.186	-200.000	0.026	-0.247
-606.171	223.721	0.073	0.118
-605.157	776.504	-0.098	-0.265
-604.142	800.000	-0.036	-0.108
-603.128	-200.000	-0.015	0.264
-602.113	37.017	0.256	0.225
-601.098	-200.000	-0.004	0.065
-600.084	800.000	-0.128	0.354
-599.069	-60.606	0.235	0.099
-598.055	716.861	0.083	-0.219
-597.040	-33.765	-0.163	-0.089
-596.025	800.000	-0.090	-0.289
-595.011	253.017	0.120	-0.203
-593.996	-200.000	-0.056	0.321
-592.982	-147.608	0.113	-0.009
-591.967	-109.243	-0.242	-0.051
-590.952	-200.000	0.011	0.097
-589.938	-200.000	-0.028	-0.166
-588.923	-157.373	0.223	-0.013
-587.909	-169.804	0.107	0.004
-586.894	-31.187	0.056	-0.032
-585.879	133.966	-0.102	0.131
-584.865	-187.543	0.044	-0.001
-583.850	-91.278	0.113	-0.032
-582.836	-62.679	0.075	-0.031
-581.821	-150.360	0.211	0.016
-580.806	35.271	-0.090	-0.078
-579.792	-6.912	0.185	0.125
-578.777	211.245	-0.103	0.160
-577.763	-200.000	0.005	-0.200
-576.748	-200.000	-0.056	0.266
-575.733	-114.930	0.205	0.039
-574.719	130.290	0.229	-0.291
-573.704	165.795	-0.227	-0.319
-572.690	641.397	0.100	-0.253
-571.675	157.912	-0.297	-0.408
-570.661	264.566	0.041	0.070
-569.646	-200.000	0.023	-0.105
-568.631	263.175	0.086	0.148
-567.617	244.890	-0.096	-0.160
-566.602	425.501	-0.134	-0.285
-565.588	50.003	0.096	-0.090
-564.573	-20.037	0.242	-0.148
-563.558	-98.711	0.147	-0.037
-562.544	684.808	0.022	0.056
-561.529	-200.000	-0.001	0.079
-560.515	-8.907	-0.285	-0.189
-559.500	-64.918	-0.147	0.059
-558.485	520.301	0.162	-0.376
-557.471	-76.202	0.228	-0.080
-556.456	-95.572	0.222	-0.059
-555.442	36.357	-0.303	0.265
-554.427	125.012	-0.262	0.327
-553.412	-10.660	0.186	0.122
-552.398	119.243	0.177	-0.217
-551.383	-115.258	0.315	0.059
-550.369	-107.514	-0.323	0.070
-549.354	-27.762	-0.056	-0.032
-548.339	604.028	-0.014	-0.034
-547.325	130.237	-0.041	-0.052
-546.310	79.073	-0.131	0.140
-545.296	10.458	-0.290	0.219
-544.281	50.942	0.052	0.049
-543.266	800.000	-0.070	0.217
-542.252	-200.000	0.033	0.245
-541.237	79.782	-0.009	-0.010
-540.223	304.809	-0.116	0.214
-539.208	-122.172	0.197	0.032
-538.193	-114.639	0.283	-0.054
-537.179	-146.931	-0.188	0.016
-536.164	800.000	-0.059	0.205
-535.150	35.174	0.271	-0.235
-534.135	800.000	-0.094	0.279
-533.121	725.223	-0.075	-0.198
-532.106	800.000	-0.101	-0.286
-531.091	-50.646	0.148	-0.069
-530.077	-107.616	-0.200	-0.043
-529.062	-22.493	0.334	0.200
-528.048	-92.586	-0.195	0.054
-527.033	7.854	-0.122	0.090
-526.018	-200.000	-0.001	-0.034
-525.004	800.000	-0.049	-0.196
-523.989	-33.614	0.235	0.128
-522.975	-103.708	0.185	0.043
-521.960	-200.000	-0.035	0.170
-520.945	-46.121	0.248	0.121
-519.931	-104.231	-0.176	0.040
-518.916	184.625	0.196	0.287
-517.902	-61.681	-0.036	0.015
-516.887	-114.419	0.042	0.008
-515.872	375.618	0.118	-0.238
-514.858	800.000	-0.006	-0.019
-513.843	177.543	0.162	-0.234
-512.829	-200.000	-0.036	-0.220
-511.814	159.881	-0.120	0.166
-510.799	34.279	0.214	0.185
-509.785	672.962	-0.089	-0.228
-508.770	40.214	0.175	-0.156
-507.756	43.881	-0.071	0.064
-506.741	-200.000	-0.016	0.182
-505.726	-93.047	-0.399	-0.110
-504.712	160.477	0.152	0.209
-503.697	287.142	-0.262	-0.468
-502.683	-60.000	-0.259	0.109
-501.668	578.337	-0.064	-0.154
-500.653	49.486	0.075	-0.070
-499.639	-67.093	-0.277	0.108
-498.624	-111.054	0.208	-0.042
-497.610	-96.757	0.281	0.073
-496.595	-124.298	0.266	0.041
-495.581	-74.552	-0.358	-0.128
-494.566	146.208	-0.046	-0.061
-493.551	-34.764	-0.262	-0.141
-492.537	800.000	0.100	-0.340
-491.522	-129.210	-0.176	0.024
-490.508	-200.000	0.028	0.270
-489.493	-118.000	-0.063	0.011
-488.478	800.000	0.152	-0.459
-487.464	384.434	0.115	-0.234
-486.449	197.741	0.241	0.365
-485.435	-200.000	-0.033	-0.226
-484.420	-200.000	-0.005	0.129
-483.405	-51.123	0.388	0.180
-482.391	91.546	0.089	-0.098
-481.376	-15.922	0.080	-0.050
-480.362	-7.631	-0.171	0.114
-479.347	-137.479	0.376	-0.042
-478.332	36.404	-0.071	0.062
-477.318	-95.603	0.103	0.027
-476.303	-172.471	-0.184	0.006
-475.289	41.282	0.167	-0.149
-474.274	800.000	0.093	-0.367
-473.259	-200.000	0.009	0.243
-472.245	29.287	-0.259	-0.217
-471.230	112.741	-0.174	-0.209
-470.216	79.237	0.138	0.146
-469.201	27.114	0.161	0.134
-468.186	-39.948	-0.367	0.189
-467.172	-200.000	-0.005	0.233
-466.157	800.000	0.055	-0.163
-465.143	658.228	-0.090	-0.228
-464.128	79.754	-0.119	-0.126
-463.113	302.798	-0.166	-0.304
-462.099	-116.413	0.406	0.074
-461.084	800.000	0.070	-0.208
-460.070	800.000	-0.038	0.117
-459.055	-200.000	0.006	-0.069
-458.040	-200.000	-0.006	0.046
-457.026	108.946	0.044	0.052
-456.011	-200.000	-0.029	-0.173
-454.997	-125.117	-0.361	-0.055
-453.982	-22.342	0.531	-0.318
-452.968	335.657	-0.151	-0.290
-451.953	-54.394	-0.033	-0.015
-450.938	-179.977	-0.234	0.005
-449.924	-184.653	0.185	0.003
-448.909	-17.063	-0.163	0.101
-447.895	199.900	0.072	-0.108
-446.880	-1.283	0.101	-0.071
-445.865	-185.719	0.209	0.003
-444.851	194.442	-0.216	-0.323
-443.836	-28.236	0.302	0.172
-442.822	800.000	0.071	-0.215
-441.807	122.502	-0.174	-0.214
-440.792	800.000	0.067	0.192
-439.778	154.086	0.114	0.155
-438.763	-94.779	0.374	-0.100
-437.749	-21.306	0.172	0.103
-436.734	-155.671	-0.129	0.008
-435.719	425.285	-0.231	0.490
-434.705	800.000	-0.056	0.223
-433.690	22.480	0.183	-0.148
-432.676	-108.355	-0.269	-0.057
-431.661	-200.000	0.003	-0.060
-430.646	-154.407	0.181	-0.012
-429.632	-84.240	-0.363	-0.113
-428.617	-118.758	-0.138	-0.024
-427.603	14.324	-0.053	0.041
-426.588	241.772	-0.128	0.211
-425.573	479.184	0.027	0.060
-424.559	-145.597	0.210	-0.019
-423.544	27.123	0.134	0.111
-422.530	-60.995	-0.169	0.070
-421.515	-69.871	-0.355	0.134
-420.500	31.934	-0.211	0.179
-419.486	307.016	0.027	-0.049
-418.471	-63.882	0.243	-0.098
-417.457	50.963	-0.214	-0.200
-416.442	-200.000	0.020	0.108
-415.428	-168.900	-0.160	0.006
-414.413	-200.000	-0.003	0.172
-413.398	-164.478	-0.277	0.012
-412.384	-187.907	0.245	0.003
-411.369	-200.000	0.021	0.188
-410.355	-85.890	-0.326	0.100
-409.340	-200.000	-0.019	0.132
-408.325	156.694	-0.284	0.386
-407.311	-133.514	-0.115	0.014
-406.296	800.000	-0.051	-0.208
-405.282	-107.542	-0.248	0.053
-404.267	111.997	0.185	0.220
-403.252	800.000	0.174	0.549
-402.238	-11.128	0.058	0.038
-401.223	-104.941	-0.117	-0.026
-400.209	327.979	-0.113	-0.213
-399.194	491.034	-0.092	0.207
-398.179	734.620	0.100	-0.264
-397.165	-155.053	0.181	0.012
-396.150	62.971	0.235	0.231
-395.136	38.248	-0.158	0.138
-394.121	-81.275	-0.418	0.136
-393.106	-200.000	0.037	-0.194
-392.092	-20.515	0.043	-0.026
-391.077	-164.258	-0.204	-0.009
-390.063	-57.408	-0.043	-0.019
-389.048	-66.954	0.026	-0.010
-388.033	508.778	0.015	0.034
-387.019	800.000	0.092	-0.280
-386.004	-84.063	-0.130	-0.041
-384.990	466.316	0.167	0.369
-383.975	800.000	0.096	-0.300
-382.960	469.056	0.123	-0.271
-381.946	-140.495	0.136	-0.014
-380.931	-200.000	0.034	-0.264
-379.917	204.114	0.065	-0.099
-378.902	24.498	-0.466	-0.380
-377.888	800.000	-0.058	-0.242
-376.873	-106.543	-0.400	-0.088
-375.858	85.872	0.147	-0.160
-374.844	800.000	-0.066	0.200
-373.829	65.036	0.015	-0.015
-372.815	152.031	0.075	0.101
-371.800	223.865	-0.050	0.080
-370.785	471.634	0.079	-0.175
-369.771	800.000	0.048	-0.166
-368.756	100.793	0.075	0.086
-367.742	67.491	-0.372	-0.374
-366.727	800.000	-0.070	-0.204
-365.712	286.660	0.159	0.283
-364.698	-117.921	-0.288	0.051
-363.683	800.000	0.054	-0.180
-362.669	-132.091	0.490	0.063
-361.654	-200.000	0.017	0.188
-360.639	167.698	-0.126	0.177
-359.625	-200.000	-0.008	0.168
-358.610	-141.886	0.110	-0.011
-357.596	-200.000	0.037	0.181
-356.581	-164.332	-0.470	0.021
-355.566	-200.000	-0.018	0.172
-354.552	200.036	0.102	0.153
-353.537	71.470	0.350	-0.358
-352.523	-200.000	0.011	0.296
-351.508	800.000	-0.114	-0.368
-350.493	270.741	-0.040	-0.070
-349.479	-11.465	-0.153	-0.099
-348.464	-45.627	0.090	0.044
-347.450	-200.000	0.006	-0.149
-346.435	-200.000	0.044	0.261
-345.420	518.001	-0.112	-0.258
-344.406	39.198	0.111	0.098
-343.391	-200.000	0.035	0.415
-342.377	-47.710	-0.281	0.134
-341.362	35.740	0.085	-0.073
-340.348	-45.105	0.318	0.155
-339.333	-105.903	0.248	-0.055
-338.318	2.731	0.052	0.037
-337.304	-200.000	0.014	-0.128
-336.289	-200.000	0.055	-0.241
-335.275	-81.116	0.107	-0.035
-334.260	-109.173	0.195	0.041
-333.245	-148.114	0.339	0.028
-332.231	800.000	0.052	-0.175
-331.216	515.359	0.157	-0.360
-330.202	-200.000	-0.054	-0.277
-329.187	-12.365	0.141	0.091
-328.172	-200.000	-0.007	-0.088
-327.158	-10.098	-0.204	0.133
-326.143	480.471	0.056	0.125
-325.129	0.525	-0.406	0.285
-324.114	-88.692	0.229	0.067
-323.099	-56.948	0.334	0.145
-322.085	522.981	-0.188	0.435
-321.070	-200.000	0.034	-0.179
-320.056	90.893	0.080	-0.088
-319.041	-200.000	-0.022	-0.109
-318.026	-37.380	-0.134	0.070
-317.012	-200.000	-0.039	0.429
-315.997	-200.000	0.036	0.159
-314.983	9.713	-0.135	-0.101
-313.968	-18.667	-0.140	0.086
-312.953	141.991	0.139	-0.181
-311.939	322.695	0.067	-0.126
-310.924	-148.834	-0.187	-0.015
-309.910	-200.000	0.039	0.316
-308.895	-10.004	-0.261	0.170
-307.880	800.000	-0.026	-0.073
-306.866	-200.000	0.073	-0.348
-305.851	-147.414	0.357	-0.030
-304.837	-15.170	0.202	0.127
-303.822	159.263	-0.201	-0.274
-302.807	526.962	0.077	-0.178
-301.793	-155.793	0.293	0.018
-300.778	-25.577	-0.196	-0.114
-299.764	329.885	0.104	-0.196
-298.749	739.340	0.092	0.242
-297.735	80.610	0.104	-0.110
-296.720	-174.451	0.169	0.005
-295.705	241.761	0.098	0.160
-294.691	-92.014	-0.192	0.053
-293.676	394.104	0.085	0.173
-292.662	3.222	-0.152	-0.109
-291.647	465.406	-0.090	0.197
-290.632	8.366	0.133	-0.098
-289.618	106.355	-0.031	0.036
-288.603	428.063	-0.050	-0.105
-287.589	-200.000	0.007	-0.042
-286.574	-113.306	0.219	0.042
-285.559	-145.474	-0.261	-0.023
-284.545	-55.031	0.025	-0.011
-283.530	-142.714	0.152	0.015
-282.516	496.751	-0.014	-0.032
-281.501	-38.819	-0.052	-0.027
-280.486	135.636	0.099	-0.126
-279.472	-188.465	-0.365	-0.004
-278.457	296.172	0.112	-0.202
-277.443	-172.826	0.098	-0.003
-276.428	41.154	0.160	0.142
-275.413	93.937	0.200	0.223
-274.399	140.784	0.167	0.216
-273.384	-97.625	-0.064	-0.016
-272.370	-80.761	-0.371	0.121
-271.355	800.000	0.041	-0.130
-270.340	332.447	-0.016	-0.030
-269.326	-200.000	-0.029	0.149
-268.311	-116.419	-0.099	0.018
-267.297	174.128	0.072	-0.102
-266.282	-200.000	0.023	0.291
-265.267	413.586	-0.086	-0.180
-264.253	-137.084	-0.235	0.026
-263.238	20.365	0.019	0.015
-262.224	-118.938	0.155	0.027
-261.209	-172.233	-0.306	0.010
-260.195	502.082	0.061	-0.137
-259.180	-35.025	0.273	-0.146
-258.165	800.000	-0.024	-0.078
-257.151	-106.695	-0.365	-0.079
-256.136	800.000	0.072	0.303
-255.122	288.059	-0.131	-0.232
-254.107	-83.879	-0.100	-0.031
-253.092	-70.335	0.250	0.093
-252.078	-102.206	-0.332	-0.078
-251.063	800.000	0.156	-0.635
-250.049	800.000	0.053	-0.153
-249.034	-200.000	0.000	0.125
-248.019	800.000	-0.036	-0.149
-247.005	-98.189	-0.066	0.017
-245.990	42.204	0.161	0.143
-244.976	1.947	-0.276	0.195
-243.961	-67.036	0.589	-0.228
-242.946	-200.000	0.025	-0.380
-241.932	-119.566	-0.107	-0.018
-240.917	210.376	0.069	-0.105
-239.903	-120.405	0.350	0.058
-238.888	-67.757	-0.110	0.042
-237.873	800.000	0.083	-0.285
-236.859	-200.000	-0.007	0.228
-235.844	-155.230	0.270	0.017
-234.830	-95.780	0.228	-0.060
-233.815	467.574	-0.126	0.277
-232.800	-200.000	-0.003	0.260
-231.786	251.202	0.087	-0.145
-230.771	800.000	0.015	-0.061
-229.757	78.731	-0.134	0.140
-228.742	800.000	-0.081	0.287
-227.727	4.000	-0.127	-0.091
-226.713	-186.073	0.239	-0.003
-225.698	800.000	-0.048	0.145
-224.684	148.035	-0.089	0.117
-223.669	100.338	-0.125	-0.142
-222.655	800.000	0.038	0.122
-221.640	-49.358	-0.291	0.136
-220.625	143.906	0.048	-0.063
-219.611	521.517	0.165	0.379
-218.596	800.000	-0.033	-0.106
-217.582	-200.000	-0.008	-0.161
-216.567	800.000	-0.044	0.139
-215.552	-81.533	0.174	-0.056
-214.538	-200.000	-0.066	-0.319
-213.523	800.000	-0.040	-0.129
-212.509	115.966	0.092	0.110
-211.494	-200.000	0.096	0.425
-210.479	-9.413	-0.168	0.109
-209.465	719.701	-0.030	0.078
-208.450	800.000	0.015	-0.055
-207.436	157.614	-0.071	0.096
-206.421	57.346	-0.145	-0.139
-205.406	800.000	-0.141	0.392
-204.392	174.663	-0.065	0.091
-203.377	-200.000	-0.014	-0.073
-202.363	-200.000	-0.043	-0.545
-201.348	177.014	-0.110	0.157
-200.333	-200.000	-0.123	0.536
-199.319	-106.768	-0.059	-0.013
-198.304	-55.052	-0.330	0.145
-197.290	-200.000	-0.029	0.168
-196.275	-5.764	0.145	-0.097
-195.260	-40.034	0.446	0.227
-194.246	604.362	0.028	0.069
-193.231	136.005	0.121	-0.154
-192.217	162.544	-0.124	-0.170
-191.202	140.408	-0.163	0.210
-190.187	341.744	-0.024	0.047
-189.173	-200.000	-0.011	-0.325
-188.158	105.489	0.170	-0.196
-187.144	471.201	-0.111	0.245
-186.129	-200.000	-0.003	-0.075
-185.114	-158.182	-0.304	0.017
-184.100	6.639	0.180	-0.131
-183.085	-93.254	0.106	0.029
-182.071	-200.000	0.015	-0.220
-181.056	71.714	0.140	0.142
-180.042	252.288	-0.050	0.083
-179.027	108.950	0.338	0.395
-178.012	12.649	-0.316	-0.238
-176.998	800.000	0.029	-0.082
-175.983	-200.000	0.025	0.144
-174.969	265.259	0.074	-0.126
-173.954	800.000	0.038	0.131
-172.939	243.828	0.014	-0.022
-171.925	199.230	0.226	-0.338
-170.910	207.538	-0.221	0.336
-169.896	82.183	-0.120	0.127
-168.881	-155.633	-0.019	-0.001
-167.866	63.431	-0.139	-0.137
-166.852	390.123	0.232	0.470
-165.837	-30.342	0.046	0.026
-164.823	161.713	-0.097	0.133
-163.808	-67.274	0.099	-0.038
-162.793	625.156	-0.050	-0.122
-161.779	-80.403	-0.221	-0.072
-160.764	-27.230	0.252	-0.143
-159.750	3.601	-0.058	-0.041
-158.735	-200.000	-0.037	0.212
-157.720	-200.000	-0.072	0.447
-156.706	-200.000	-0.024	0.324
-155.691	83.794	0.171	0.182
-154.677	-19.380	-0.090	0.055
-153.662	781.296	-0.120	0.321
-152.647	-56.585	0.332	-0.144
-151.633	66.112	0.109	0.108
-150.618	135.866	0.192	-0.244
-149.604	-26.606	-0.128	0.073
-148.589	525.323	-0.117	-0.270
-147.574	-40.122	-0.098	-0.050
-146.560	-89.704	-0.379	0.108
-145.545	800.000	0.033	0.128
-144.531	88.101	0.284	0.307
-143.516	800.000	0.047	0.151
-142.502	-95.280	0.218	-0.057
-141.487	26.200	-0.085	0.069
-140.472	-10.339	-0.017	0.011
-139.458	-200.000	0.015	0.096
-138.443	-99.065	0.220	0.054
-137.429	-183.306	-0.277	0.005
-136.414	26.059	0.344	-0.280
-135.399	-91.842	0.414	0.115
-134.385	102.478	-0.255	0.291
-133.370	-124.983	0.089	-0.013
-132.356	-58.917	-0.192	0.081
-131.341	27.047	0.337	0.276
-130.326	800.000	-0.041	-0.146
-129.312	-200.000	0.001	0.094
-128.297	293.893	-0.125	0.223
-127.283	-79.583	-0.067	-0.022
-126.268	-132.055	0.056	-0.007
-125.253	55.652	0.061	0.058
-124.239	111.596	-0.097	0.114
-123.224	296.090	0.149	-0.267
-122.210	3.276	-0.241	-0.171
-121.195	-2.068	-0.003	-0.002
-120.180	-200.000	-0.006	-0.266
-119.166	263.919	0.218	-0.369
-118.151	-47.174	-0.418	-0.199
-117.137	114.057	-0.093	0.111
-116.122	-59.844	0.304	-0.127
-115.107	-200.000	-0.009	-0.336
-114.093	-39.031	-0.175	-0.090
-113.078	147.934	-0.164	0.215
-112.064	-39.750	0.187	0.095
-111.049	73.954	0.121	0.123
-110.034	-21.863	-0.460	0.272
-109.020	-85.669	0.221	0.067
-108.005	-101.646	0.126	-0.030
-106.991	404.311	-0.035	0.072
-105.976	557.351	0.095	-0.223
-104.962	446.334	0.092	-0.196
-103.947	-200.000	0.024	-0.137
-102.932	71.802	0.062	-0.063
-101.918	-25.429	-0.072	-0.041
-100.903	3.581	-0.092	-0.065
-99.889	-78.412	-0.074	0.025
-98.874	800.000	0.060	0.253
-97.859	-46.517	0.249	0.119
-96.845	800.000	0.045	-0.164
-95.830	515.146	-0.181	-0.411
-94.816	-185.034	0.225	-0.003
-93.801	4.205	0.154	-0.110
-92.786	225.694	-0.207	0.326
-91.772	-200.000	-0.000	-0.037
-90.757	800.000	0.039	-0.110
-89.743	332.031	-0.093	0.175
-88.728	800.000	0.090	0.382
-87.713	-26.380	0.166	-0.095
-86.699	78.242	-0.135	0.140
-85.684	-15.272	0.188	-0.117
-84.670	438.410	-0.102	0.218
-83.655	-200.000	0.044	-0.212
-82.640	52.292	0.053	-0.049
-81.626	44.133	0.155	0.139
-80.611	-42.754	0.182	-0.090
-79.597	-200.000	0.009	0.160
-78.582	5.396	0.040	-0.029
-77.567	77.951	-0.250	-0.259
-76.553	-95.291	0.401	-0.105
-75.538	800.000	0.026	0.112
-74.524	9.431	-0.341	0.251
-73.509	194.121	-0.164	-0.242
-72.494	31.098	0.274	-0.229
-71.480	800.000	0.104	0.307
-70.465	-95.185	0.367	0.096
-69.451	-47.114	0.199	0.094
-68.436	156.581	-0.102	-0.136
-67.422	426.660	0.033	-0.070
-66.407	92.801	-0.137	-0.151
-65.392	33.209	-0.152	0.129
-64.378	-58.085	0.166	-0.070
-63.363	800.000	0.079	-0.281
-62.349	131.828	0.229	0.287
-61.334	58.650	-1.170	-1.118
-60.319	174.877	0.662	0.932
-59.305	800.000	-0.386	-1.246
-58.290	301.341	0.665	1.194
-57.276	245.114	0.777	1.271
-56.261	-200.000	122.523	651.241
-55.246	443.573	1534.059	3270.558
-54.232	148.961	2688.135	3534.712
-53.217	91.940	2273.359	2487.800
-52.203	32.947	1890.611	1592.093
-51.188	27.032	1688.466	1377.112
-50.173	24.805	1649.286	1328.589
-49.159	45.689	1718.443	1543.782
-48.144	43.736	1729.877	1539.158
-47.130	26.558	1681.423	1367.569
-46.115	24.034	1666.538	1336.487
-45.100	23.885	1661.385	1331.186
-44.086	23.781	1659.394	1328.755
-43.071	23.849	1656.658	1327.020
-42.057	23.824	1654.546	1325.089
-41.042	23.860	1652.322	1323.523
-40.027	23.809	1650.167	1321.363
-39.013	23.754	1648.796	1319.807
-37.998	23.791	1646.973	1318.570
-36.984	23.800	1646.149	1317.924
-35.969	23.948	1644.499	1317.645
-34.954	23.965	1642.963	1316.495
-33.940	23.947	1641.348	1315.014
-32.925	23.892	1640.150	1313.594
-31.911	23.881	1638.084	1311.807
-30.896	23.894	1636.491	1310.577
-29.881	24.039	1634.437	1309.943
-28.867	23.981	1633.224	1308.491
-27.852	23.882	1632.075	1306.793
-26.838	23.975	1629.848	1305.638
-25.823	23.960	1629.374	1305.101
-24.809	24.098	1627.341	1304.432
-23.794	24.027	1626.387	1303.094
-22.779	23.933	1624.998	1301.242
-21.765	24.011	1623.218	1300.333
-20.750	23.940	1621.772	1298.607
-19.736	24.010	1620.671	1298.186
-18.721	23.986	1618.921	1296.556
-17.706	23.991	1617.534	1295.433
-16.692	23.996	1615.539	1293.817
-15.677	24.068	1614.414	1293.391
-14.663	24.040	1613.026	1292.022
-13.648	24.017	1612.017	1290.994
-12.633	23.992	1610.217	1289.321
-11.619	23.926	1609.024	1287.835
-10.604	24.005	1607.628	1287.242
-9.590	24.032	1605.789	1285.914
-8.575	23.991	1604.617	1284.623
-7.560	23.962	1603.792	1283.706
-6.546	23.898	1603.046	1282.594
-5.531	24.003	1601.405	1281.986
-4.517	24.039	1600.234	1281.260
-3.502	23.910	1599.966	1280.066
-2.487	24.109	1597.047	1279.106
-1.473	23.559	1585.352	1265.767
-0.458	20.476	1566.028	1228.524
0.556	15.337	1567.909	1197.006
1.571	13.095	1590.952	1198.233
2.586	12.678	1603.224	1204.324
3.600	11.619	1549.184	1156.133
4.615	6.413	1444.320	1043.372
5.629	1.191	1385.697	967.681
6.644	0.268	1378.239	956.528
7.659	0.131	1377.281	954.909
8.673	0.146	1376.794	954.580
9.688	0.125	1374.307	952.640
10.702	-0.036	1371.019	949.258
11.717	2.575	1374.487	968.088
12.731	9.528	1384.537	1019.217
13.746	15.286	1392.972	1061.899
14.761	16.779	1395.279	1073.030
15.775	16.157	1392.832	1067.124
16.790	15.281	1390.092	1059.392
17.804	14.422	1388.266	1052.486
18.819	14.072	1386.571	1048.898
19.834	13.859	1385.545	1046.688
20.848	13.680	1383.896	1044.223
21.863	13.471	1382.500	1041.765
22.877	13.216	1381.978	1039.672
23.892	13.145	1380.889	1038.317
24.907	13.226	1380.213	1038.224
25.921	13.154	1379.155	1036.886
26.936	13.172	1378.426	1036.357
27.950	13.236	1377.263	1035.791
28.965	13.338	1376.589	1035.831
29.980	13.424	1375.025	1035.104
30.994	13.393	1374.210	1034.203
32.009	13.341	1373.571	1033.304
33.023	13.462	1372.175	1032.922
34.038	13.327	1370.845	1030.986
35.053	13.344	1370.007	1030.371
36.067	13.282	1368.689	1028.898
37.082	13.368	1367.712	1028.607
38.096	13.402	1366.618	1027.908
39.111	13.370	1366.168	1027.282
40.126	13.263	1365.399	1025.949
41.140	13.251	1364.435	1025.059
42.155	13.182	1363.954	1024.178
43.169	13.093	1364.005	1023.574
44.184	13.086	1363.647	1023.169
45.199	13.197	1362.647	1023.014
46.213	13.233	1362.336	1022.916
47.228	13.307	1360.767	1022.102
48.242	13.325	1360.055	1021.589
49.257	13.240	1358.886	1020.098
50.271	13.238	1357.413	1018.889
51.286	13.345	1355.337	1017.896
52.301	13.371	1354.323	1017.210
53.315	13.296	1353.615	1016.126
54.330	13.197	1352.597	1014.660
55.344	13.190	1351.076	1013.391
56.359	13.298	1350.222	1013.322
57.374	13.180	1349.088	1011.660
58.388	13.183	1348.576	1011.201
59.403	13.128	1347.966	1010.322
60.417	13.180	1346.986	1009.814
61.432	13.205	1345.738	1008.938
62.447	13.097	1344.881	1007.548
63.461	13.084	1344.036	1006.748
64.476	13.074	1342.937	1005.777
65.490	13.041	1341.681	1004.542
66.505	13.159	1339.796	1003.760
67.520	13.214	1338.745	1003.220
68.534	13.172	1337.510	1001.952
69.549	13.026	1336.964	1000.569
70.563	13.157	1335.427	1000.121
71.578	13.084	1334.557	998.938
72.593	12.981	1334.071	997.867
73.607	13.011	1332.831	997.030
74.622	12.976	1332.223	996.278
75.636	13.125	1330.964	996.144
76.651	13.069	1330.039	995.028
77.666	12.913	1330.421	994.287
78.680	13.151	1329.414	994.879
79.695	13.032	1328.646	993.498
80.709	13.056	1328.068	993.126
81.724	13.125	1327.178	992.785
82.739	13.233	1325.959	992.433
83.753	13.156	1324.895	991.085
84.768	13.260	1324.108	991.034
85.782	13.302	1322.701	990.148
86.797	13.259	1321.889	989.190
87.812	13.357	1319.976	988.258
88.826	13.208	1319.369	986.829
89.841	13.230	1318.433	986.168
90.855	13.351	1316.993	985.730
91.870	13.287	1316.393	984.810
92.884	13.300	1315.264	983.954
93.899	13.325	1314.668	983.573
94.914	13.398	1313.928	983.362
95.928	13.499	1312.281	982.645
96.943	13.337	1312.008	981.394
97.957	13.376	1310.747	980.594
98.972	13.392	1309.519	979.683
99.987	13.359	1308.824	978.881
101.001	13.330	1307.896	977.927
102.016	13.384	1306.474	977.098
103.030	13.316	1305.915	976.189
104.045	13.321	1305.081	975.511
105.060	13.282	1303.988	974.380
106.074	13.174	1302.966	972.892
107.089	13.091	1300.997	970.846
108.103	13.169	1300.263	970.675
109.118	13.147	1298.771	969.342
110.133	13.154	1297.933	968.676
111.147	13.203	1296.162	967.555
112.162	13.308	1294.475	966.824
113.176	13.268	1293.827	966.021
114.191	13.344	1292.497	965.383
115.206	13.239	1291.659	964.063
116.220	13.245	1290.414	963.079
117.235	13.292	1289.076	962.270
118.249	13.291	1288.125	961.470
119.264	13.283	1286.966	960.472
120.279	13.248	1285.861	959.361
121.293	13.181	1285.376	958.523
122.308	13.305	1284.165	958.253
123.322	13.138	1282.919	956.276
124.337	13.206	1282.063	955.944
125.352	13.144	1281.145	954.817
126.366	13.205	1279.504	953.864
127.381	13.241	1278.610	953.322
128.395	13.289	1277.247	952.497
129.410	13.148	1276.209	950.827
130.424	13.314	1275.743	951.350
131.439	13.205	1274.755	949.900
132.454	13.190	1273.827	949.042
133.468	13.232	1272.860	948.479
134.483	13.215	1272.421	947.968
135.497	13.299	1270.974	947.285
136.512	13.237	1269.650	945.861
137.527	13.205	1268.405	944.668
138.541	13.309	1266.610	943.838
139.556	13.287	1265.908	943.108
140.570	13.299	1264.756	942.237
141.585	13.395	1263.531	941.786
142.600	13.361	1262.141	940.471
143.614	13.397	1261.404	940.047
144.629	13.469	1260.661	939.817
145.643	13.410	1259.215	938.323
146.658	13.399	1258.193	937.417
147.673	13.364	1256.627	935.966
148.687	13.316	1255.774	934.976
149.702	13.461	1253.962	934.363
150.716	13.425	1252.864	933.262
151.731	13.385	1251.569	931.989
152.746	13.337	1250.845	931.099
153.760	13.423	1249.725	930.664
154.775	13.439	1248.063	929.435
155.789	13.578	1247.016	929.350
156.804	13.497	1245.984	928.047
157.819	13.492	1245.298	927.425
158.833	13.450	1244.251	926.326
159.848	13.609	1243.100	926.276
160.862	13.499	1242.516	925.145
161.877	13.545	1241.185	924.329
162.892	13.430	1239.841	922.605
163.906	13.520	1238.850	922.288
164.921	13.563	1237.927	921.761
165.935	13.526	1237.327	921.025
166.950	13.574	1236.586	920.659
167.964	13.615	1235.578	920.055
168.979	13.484	1235.253	919.006
169.994	13.645	1233.689	918.653
171.008	13.581	1233.414	918.011
172.023	13.690	1232.438	917.808
173.037	13.690	1231.325	916.894
174.052	13.620	1230.463	915.785
175.067	13.640	1229.701	915.252
176.081	13.549	1228.861	914.041
177.096	13.563	1228.060	913.443
178.110	13.644	1226.799	912.869
179.125	13.529	1225.850	911.449
180.140	13.616	1224.292	910.686
181.154	13.696	1222.968	910.060
182.169	13.771	1221.905	909.605
183.183	13.887	1220.511	909.116
184.198	13.729	1219.640	907.524
185.213	13.777	1219.004	907.236
186.227	13.812	1217.389	906.141
187.242	13.834	1216.797	905.745
188.256	13.916	1215.625	905.239
189.271	13.864	1214.797	904.256
190.286	13.752	1213.903	902.901
191.300	13.696	1212.703	901.625
192.315	13.678	1211.891	900.846
193.329	13.731	1211.431	900.709
194.344	13.762	1210.451	900.068
195.359	13.914	1209.939	900.433
196.373	13.780	1209.390	899.219
197.388	13.967	1209.032	899.886
198.402	13.977	1208.626	899.556
199.417	13.985	1208.236	899.230
200.432	14.066	1206.701	898.449
201.446	14.012	1206.223	897.718
202.461	14.049	1205.104	897.006
203.475	14.087	1203.968	896.287
204.490	14.113	1202.299	895.104
205.504	14.032	1201.341	893.878
206.519	14.048	1200.414	893.196
207.534	14.055	1199.244	892.284
208.548	14.153	1198.414	892.110
209.563	14.030	1197.586	890.757
210.577	14.032	1196.681	890.014
211.592	14.131	1195.849	889.849
212.607	14.273	1194.391	889.446
213.621	14.282	1193.787	888.963
214.636	14.211	1192.850	887.810
215.650	14.207	1192.173	887.205
216.665	14.334	1191.090	886.997
217.680	14.283	1190.394	886.128
218.694	14.334	1189.454	885.623
219.709	14.341	1188.640	884.974
220.723	14.322	1187.553	883.984
221.738	14.302	1187.011	883.400
222.753	14.257	1186.600	882.774
223.767	14.432	1185.836	883.058
224.782	14.447	1185.104	882.511
225.796	14.407	1184.566	881.821
226.811	14.344	1183.724	880.781
227.826	14.439	1182.832	880.547
228.840	14.471	1181.976	880.000
229.855	14.323	1181.523	878.801
230.869	14.269	1180.933	877.999
231.884	14.396	1179.844	877.781
232.899	14.463	1178.964	877.403
233.913	14.411	1178.597	876.780
234.928	14.421	1177.684	876.074
235.942	14.331	1177.388	875.300
236.957	14.408	1176.239	874.779
237.972	14.314	1175.214	873.443
238.986	14.402	1174.688	873.436
240.001	14.437	1173.939	872.984
241.015	14.497	1173.032	872.548
242.030	14.442	1172.090	871.480
243.045	14.550	1171.247	871.344
244.059	14.479	1170.929	870.659
245.074	14.510	1169.785	869.890
246.088	14.605	1168.521	869.371
247.103	14.609	1167.825	868.794
248.117	14.650	1167.121	868.407
249.132	14.687	1166.718	868.224
250.147	14.725	1166.265	868.006
251.161	14.667	1165.385	866.975
252.176	14.781	1164.800	867.057
253.190	14.772	1163.984	866.326
254.205	14.830	1163.346	866.071
255.220	14.947	1162.969	866.323
256.234	14.903	1162.219	865.459
257.249	15.049	1161.093	865.298
258.263	14.938	1160.789	864.419
259.278	14.926	1160.195	863.840
260.293	14.891	1159.765	863.262
261.307	14.978	1159.292	863.282
262.322	15.087	1158.259	862.999
263.336	15.017	1157.603	862.076
264.351	15.014	1156.862	861.434
265.366	15.059	1156.324	861.184
266.380	15.139	1155.588	860.974
267.395	15.113	1154.665	860.076
268.409	15.101	1154.118	859.532
269.424	15.180	1153.391	859.317
270.439	15.103	1152.802	858.407
271.453	15.102	1152.383	858.016
272.468	15.081	1151.009	856.810
273.482	15.110	1150.372	856.407
274.497	15.081	1150.099	855.982
275.512	15.065	1149.700	855.528
276.526	15.162	1148.550	855.088
277.541	15.183	1147.808	854.567
278.555	15.093	1147.061	853.478
279.570	15.110	1146.375	852.978
280.585	15.260	1145.532	853.038
281.599	15.232	1144.503	852.055
282.614	15.278	1143.502	851.467
283.628	15.191	1142.466	850.181
284.643	15.353	1141.733	850.378
285.657	15.381	1140.747	849.715
286.672	15.252	1140.170	848.552
287.687	15.279	1139.647	848.225
288.701	15.439	1138.318	847.969
289.716	15.294	1137.723	846.722
290.730	15.252	1136.923	845.837
291.745	15.359	1136.524	846.008
292.760	15.415	1135.337	845.328
293.774	15.448	1134.832	845.046
294.789	15.499	1134.519	844.996
295.803	15.621	1133.651	844.885
296.818	15.574	1132.613	843.803
297.833	15.492	1132.248	843.041
298.847	15.432	1131.585	842.173
299.862	15.435	1130.402	841.234
300.876	15.457	1130.234	841.147
301.891	15.571	1129.238	840.899
302.906	15.537	1128.561	840.150
303.920	15.620	1127.732	839.877
304.935	15.714	1126.797	839.575
305.949	15.741	1126.534	839.440
306.964	15.664	1126.059	838.626
307.979	15.730	1125.061	838.138
308.993	15.619	1124.792	837.312
310.008	15.739	1123.723	837.035
311.022	15.828	1122.675	836.627
312.037	15.755	1122.180	835.820
313.052	15.779	1121.239	835.164
314.066	15.618	1120.338	833.619
315.081	15.676	1119.522	833.228
316.095	15.700	1118.635	832.612
317.110	15.631	1118.066	831.772
318.125	15.727	1117.571	831.808
319.139	15.680	1116.655	830.818
320.154	15.678	1115.830	830.122
321.168	15.708	1115.266	829.775
322.183	15.685	1114.819	829.257
323.197	15.775	1114.028	829.041
324.212	15.760	1113.655	828.612
325.227	15.827	1112.764	828.207
326.241	15.850	1111.980	827.663
327.256	15.940	1111.033	827.327
328.270	15.938	1110.027	826.495
329.285	15.818	1109.319	825.308
330.300	15.835	1108.620	824.795
331.314	15.889	1107.699	824.302
332.329	15.988	1106.677	823.953
333.343	15.951	1105.545	822.856
334.358	15.948	1104.818	822.230
335.373	16.038	1104.148	822.097
336.387	15.904	1103.611	820.971
337.402	16.010	1102.708	820.742
338.416	16.169	1101.773	820.747
339.431	16.050	1101.552	819.930
340.446	16.063	1100.672	819.268
341.460	16.184	1099.873	819.188
342.475	16.197	1098.987	818.520
343.489	16.202	1098.469	818.086
344.504	16.243	1097.458	817.457
345.519	16.202	1096.601	816.550
346.533	16.360	1095.451	816.385
347.548	16.205	1095.594	815.669
348.562	16.228	1094.377	814.803
349.577	16.260	1093.552	814.269
350.592	16.227	1092.982	813.613
351.606	16.189	1092.549	813.036
352.621	16.232	1091.681	812.525
353.635	16.258	1090.779	811.905
354.650	16.254	1090.086	811.303
355.665	16.271	1089.035	810.530
356.679	16.249	1088.487	809.943
357.694	16.349	1088.182	810.126
358.708	16.313	1087.697	809.517
359.723	16.360	1086.875	809.062
360.738	16.480	1086.090	808.978
361.752	16.347	1085.740	808.009
362.767	16.343	1085.055	807.411
363.781	16.467	1084.594	807.588
364.796	16.470	1084.089	807.156
365.810	16.557	1083.314	806.922
366.825	16.611	1082.562	806.548
367.840	16.587	1082.161	806.060
368.854	16.635	1081.468	805.701
369.869	16.567	1081.059	805.004
370.883	16.671	1079.982	804.624
371.898	16.556	1079.631	803.748
372.913	16.642	1078.322	803.108
373.927	16.596	1078.078	802.640
374.942	16.567	1077.785	802.213
375.956	16.685	1077.078	802.172
376.971	16.674	1076.531	801.640
377.986	16.598	1076.242	800.995
379.000	16.731	1075.783	801.215
380.015	16.720	1075.020	800.521
381.029	16.777	1074.242	800.140
382.044	17.005	1073.392	800.513
383.059	16.857	1072.722	799.243
384.073	16.863	1071.964	798.639
385.088	16.968	1070.955	798.308
386.102	16.911	1069.762	797.080
387.117	16.842	1069.181	796.252
388.132	16.764	1068.344	795.194
389.146	16.840	1067.575	794.906
390.161	16.828	1066.548	794.017
391.175	16.907	1066.069	793.960
392.190	16.861	1065.557	793.294
393.205	16.807	1064.816	792.417
394.219	16.898	1063.827	792.037
395.234	16.939	1063.026	791.561
396.248	16.939	1062.016	790.740
397.263	16.990	1060.674	789.908
398.278	16.859	1060.407	789.031
399.292	16.897	1059.841	788.714
400.307	16.834	1059.017	787.741
401.321	16.991	1058.400	787.942
402.336	17.097	1057.837	787.945
403.350	16.936	1057.070	786.558
404.365	17.087	1056.161	786.510
405.380	17.074	1055.488	785.880
406.394	17.166	1054.648	785.609
407.409	17.128	1053.823	784.748
408.423	17.136	1053.394	784.397
409.438	17.295	1052.462	784.370
410.453	17.310	1051.558	783.696
411.467	17.194	1051.205	782.827
412.482	17.241	1050.590	782.518
413.496	17.326	1049.867	782.301
414.511	17.304	1049.023	781.499
415.526	17.324	1048.938	781.459
416.540	17.434	1048.323	781.437
417.555	17.333	1048.181	780.797
418.569	17.334	1047.323	780.096
419.584	17.380	1047.036	780.024
420.599	17.445	1046.310	779.711
421.613	108.150	1329.826	1487.459
422.628	99.448	1371.084	1487.563
