DTS Sentinel unit serial number:	SN413079Multiplexer serial number:	ORYXHardware model number:	OX4-SRSoftware version number:	ORYX F/W v4.00 Oryx Data Collector v3.7.2.0data status	okinstallation	princeton_trtdifferential loss correction	single-endedforward channel	channel 2reverse channel	N/Adate	2019/09/14time	12:27:34forward acquisition time	60.00reverse acquisition time	0.00gamma	496.2192k internal	0.2306k external	0.2306temperature offset calibration	1.0150default loss term (dB/km)	0.3790temperature slope calibration	1.0000multiplexer offset coefficient	1.0000multiplexer slope coefficient	1.0000fibre end	0.00T internal ref (°C)	37.87T ext. ref 1 (°C)	4.75T ext. ref 2 (°C)	34.92length (m)	temperature (°C)	Stokes	anti-Stokes-747.200	-131.926	-0.237	-0.031
-746.185	-126.225	-0.323	-0.049
-745.171	82.071	-0.171	0.188
-744.156	320.802	0.110	0.213
-743.142	697.515	0.094	-0.252
-742.127	-150.604	0.254	-0.020
-741.112	-200.000	0.025	0.113
-740.098	243.076	0.117	-0.200
-739.083	-200.000	-0.005	-0.342
-738.069	319.262	0.099	0.191
-737.054	131.315	-0.163	-0.213
-736.039	37.071	-0.076	-0.069
-735.025	69.388	0.073	0.076
-734.010	26.884	-0.183	-0.156
-732.996	800.000	-0.089	-0.252
-731.981	-166.506	-0.133	-0.006
-730.966	254.713	-0.098	0.171
-729.952	411.544	0.049	0.106
-728.937	32.854	-0.116	0.102
-727.923	5.166	-0.243	0.182
-726.908	52.790	0.078	-0.076
-725.894	42.854	-0.221	0.205
-724.879	-200.000	0.018	-0.094
-723.864	800.000	-0.054	0.233
-722.850	466.222	-0.132	-0.300
-721.835	87.213	-0.097	0.109
-720.821	114.951	-0.234	-0.290
-719.806	-22.111	0.229	-0.141
-718.791	9.497	-0.294	-0.226
-717.777	53.318	-0.110	-0.108
-716.762	-44.606	0.064	0.032
-715.748	-200.000	0.014	-0.088
-714.733	-200.000	-0.286	-0.001
-713.718	-200.000	0.008	-0.217
-712.704	-157.464	-0.251	-0.015
-711.689	221.363	-0.103	0.167
-710.675	363.363	-0.094	-0.193
-709.660	221.686	0.047	-0.076
-708.645	-161.749	-0.383	0.020
-707.631	325.074	-0.110	-0.213
-706.616	90.518	-0.273	-0.310
-705.602	-200.000	0.035	0.287
-704.587	-69.492	-0.405	-0.158
-703.572	800.000	0.043	0.183
-702.558	-149.676	-0.026	0.002
-701.543	800.000	-0.014	-0.060
-700.529	288.386	-0.061	-0.113
-699.514	138.491	0.315	-0.420
-698.499	-200.000	-0.058	-0.308
-697.485	-200.000	-0.023	-0.512
-696.470	-52.705	-0.252	0.118
-695.456	-200.000	0.015	0.167
-694.441	-45.002	-0.198	-0.100
-693.426	-200.000	-0.004	-0.144
-692.412	13.594	-0.148	-0.116
-691.397	235.958	-0.111	0.186
-690.383	800.000	-0.141	0.486
-689.368	-200.000	0.008	-0.137
-688.354	800.000	-0.079	0.226
-687.339	-36.642	-0.135	0.074
-686.324	-37.753	-0.414	-0.224
-685.310	-86.872	-0.196	-0.061
-684.295	-102.637	-0.101	-0.024
-683.281	41.786	-0.189	0.173
-682.266	800.000	-0.052	-0.224
-681.251	-200.000	-0.016	-0.117
-680.237	56.015	0.057	-0.056
-679.222	-105.116	0.204	0.047
-678.208	800.000	0.047	-0.155
-677.193	-73.105	-0.137	0.051
-676.178	9.105	0.227	-0.174
-675.164	300.267	-0.147	-0.275
-674.149	-17.877	-0.118	-0.075
-673.135	-200.000	-0.005	-0.193
-672.120	474.169	-0.036	-0.083
-671.105	-200.000	0.021	0.202
-670.091	-200.000	0.007	-0.044
-669.076	152.634	0.230	-0.319
-668.062	674.611	-0.045	-0.119
-667.047	-132.047	-0.117	-0.015
-666.032	-200.000	-0.022	0.390
-665.018	-93.953	-0.324	0.090
-664.003	9.997	0.222	-0.171
-662.989	98.519	0.126	-0.148
-661.974	-13.094	0.102	0.067
-660.959	-200.000	-0.011	-0.212
-659.945	-193.400	0.283	0.002
-658.930	224.962	0.147	-0.240
-657.916	-200.000	-0.011	0.253
-656.901	-200.000	-0.017	0.218
-655.886	-76.812	-0.227	-0.081
-654.872	-67.073	0.398	-0.159
-653.857	89.926	-0.148	0.167
-652.843	76.442	0.276	-0.296
-651.828	474.527	-0.139	0.317
-650.814	-132.112	-0.169	0.022
-649.799	-200.000	0.007	0.187
-648.784	-80.420	0.101	0.034
-647.770	-200.000	0.024	-0.187
-646.755	150.789	-0.071	-0.097
-645.741	43.520	0.095	0.088
-644.726	282.344	0.051	-0.092
-643.711	-111.110	0.096	-0.020
-642.697	-200.000	-0.005	-0.316
-641.682	450.778	-0.059	0.133
-640.668	-180.554	-0.236	-0.005
-639.653	-91.323	0.124	0.036
-638.638	-159.194	0.203	-0.012
-637.624	800.000	-0.088	0.382
-636.609	105.913	-0.180	-0.215
-635.595	44.776	-0.214	0.199
-634.580	-49.867	0.092	0.044
-633.565	206.268	0.128	-0.202
-632.551	159.218	-0.075	-0.106
-631.536	-200.000	0.003	-0.202
-630.522	96.864	-0.152	0.176
-629.507	-48.815	-0.095	0.046
-628.492	25.318	0.083	0.070
-627.478	-200.000	0.007	-0.059
-626.463	800.000	-0.054	-0.236
-625.449	-53.982	-0.127	-0.058
-624.434	800.000	-0.013	0.059
-623.419	377.280	0.054	-0.112
-622.405	-200.000	-0.045	0.247
-621.390	60.512	-0.232	0.232
-620.376	-96.088	-0.100	0.027
-619.361	-176.917	0.204	-0.005
-618.346	-72.168	-0.300	-0.113
-617.332	4.091	-0.245	-0.181
-616.317	158.051	0.238	-0.334
-615.303	163.201	-0.028	-0.040
-614.288	30.513	-0.303	-0.262
-613.273	-200.000	-0.009	-0.056
-612.259	-35.061	0.111	0.061
-611.244	-117.911	-0.183	-0.033
-610.230	800.000	0.088	0.329
-609.215	38.345	0.097	0.087
-608.201	189.616	-0.196	0.298
-607.186	800.000	-0.067	0.241
-606.171	-95.818	0.269	-0.073
-605.157	-200.000	-0.064	-0.292
-604.142	-52.563	-0.335	-0.157
-603.128	800.000	-0.045	-0.143
-602.113	-200.000	-0.030	0.589
-601.098	24.836	-0.309	-0.259
-600.084	128.340	-0.179	-0.231
-599.069	40.631	-0.117	-0.107
-598.055	-34.136	0.111	0.062
-597.040	-6.590	0.131	0.090
-596.025	800.000	0.013	-0.042
-595.011	112.029	-0.087	0.107
-593.996	89.980	-0.134	0.151
-592.982	-60.819	0.055	0.024
-591.967	-200.000	-0.017	-0.376
-590.952	-76.713	0.249	-0.088
-589.938	-93.768	-0.131	0.037
-588.923	-72.123	-0.418	0.157
-587.909	4.131	-0.207	-0.153
-586.894	-200.000	-0.015	-0.199
-585.879	231.907	0.082	-0.136
-584.865	-45.947	-0.409	0.204
-583.850	233.668	-0.123	0.205
-582.836	-3.574	0.418	0.294
-581.821	-111.601	0.111	-0.023
-580.806	-95.375	-0.229	-0.062
-579.792	-50.831	0.200	0.095
-578.777	114.458	0.132	0.163
-577.763	436.763	-0.163	0.359
-576.748	-200.000	0.004	-0.208
-575.733	-121.752	0.212	-0.035
-574.719	345.261	-0.068	0.136
-573.704	-41.077	-0.523	0.273
-572.690	20.797	-0.328	-0.269
-571.675	-16.313	-0.282	-0.181
-570.661	-60.020	0.205	-0.089
-569.646	-55.330	0.188	0.085
-568.631	44.742	0.063	0.059
-567.617	-166.051	-0.123	0.005
-566.602	328.957	-0.106	-0.205
-565.588	-200.000	0.007	0.115
-564.573	109.604	0.092	-0.112
-563.558	-49.371	0.077	-0.037
-562.544	101.539	0.035	0.041
-561.529	144.670	0.228	0.307
-560.515	-200.000	-0.028	-0.179
-559.500	800.000	-0.091	-0.260
-558.485	130.682	-0.259	0.335
-557.471	-200.000	-0.024	0.222
-556.456	-200.000	-0.004	0.113
-555.442	144.938	-0.155	0.209
-554.427	-42.852	-0.128	-0.066
-553.412	683.322	0.023	-0.061
-552.398	658.376	-0.058	0.151
-551.383	-171.127	-0.135	-0.005
-550.369	69.378	0.068	0.070
-549.354	-200.000	0.036	0.166
-548.339	-200.000	-0.019	-0.164
-547.325	-200.000	0.003	-0.048
-546.310	91.091	0.093	0.105
-545.296	57.602	0.302	0.298
-544.281	-56.233	-0.479	0.215
-543.266	44.040	0.148	0.137
-542.252	193.226	-0.074	0.113
-541.237	320.123	-0.105	0.201
-540.223	-91.720	0.276	0.079
-539.208	-134.147	0.187	0.023
-538.193	713.446	-0.083	-0.223
-537.179	-101.586	0.146	0.036
-536.164	509.683	-0.097	0.229
-535.150	-15.023	-0.159	-0.103
-534.135	116.303	-0.115	0.142
-533.121	27.672	-0.205	0.174
-532.106	-121.814	-0.291	0.048
-531.091	-200.000	-0.026	0.144
-530.077	800.000	0.061	-0.206
-529.062	43.067	0.289	0.266
-528.048	-37.747	-0.157	-0.085
-527.033	-180.501	-0.144	-0.003
-526.018	-48.007	-0.196	-0.096
-525.004	-3.696	-0.362	0.253
-523.989	-71.820	0.188	0.071
-522.975	62.800	-0.137	0.138
-521.960	-35.878	0.070	-0.038
-520.945	387.490	0.137	0.285
-519.931	33.524	-0.284	-0.249
-518.916	71.867	-0.105	-0.111
-517.902	565.216	0.106	-0.260
-516.887	-200.000	-0.058	-0.362
-515.872	161.686	0.108	-0.153
-514.858	-37.346	0.200	-0.108
-513.843	-200.000	-0.039	-0.241
-512.829	-134.185	-0.176	-0.022
-511.814	-146.151	0.114	-0.010
-510.799	-200.000	0.035	0.155
-509.785	-83.642	-0.181	-0.058
-508.770	798.160	0.065	0.181
-507.756	115.515	-0.244	0.300
-506.741	800.000	-0.057	0.195
-505.726	209.246	0.074	-0.117
-504.712	-58.886	-0.073	0.032
-503.697	3.675	-0.180	0.133
-502.683	155.055	-0.066	-0.091
-501.668	59.505	-0.091	0.091
-500.653	-200.000	0.032	-0.147
-499.639	590.042	-0.064	-0.159
-498.624	568.119	-0.038	0.093
-497.610	-200.000	0.007	0.059
-496.595	800.000	0.068	0.228
-495.581	800.000	0.056	-0.170
-494.566	-200.000	-0.008	-0.051
-493.551	800.000	0.023	-0.072
-492.537	-200.000	0.015	0.371
-491.522	238.710	-0.019	-0.031
-490.508	29.697	0.102	0.088
-489.493	50.006	-0.164	0.156
-488.478	-27.294	-0.250	-0.146
-487.464	-84.446	-0.148	0.047
-486.449	59.424	0.243	0.241
-485.435	31.414	-0.212	-0.183
-484.420	33.728	0.113	-0.099
-483.405	530.604	-0.080	0.191
-482.391	114.306	0.144	-0.177
-481.376	96.634	-0.209	0.241
-480.362	46.041	-0.156	-0.145
-479.347	-200.000	0.030	-0.148
-478.332	81.029	0.140	0.152
-477.318	-108.318	0.415	0.090
-476.303	-130.870	0.277	0.037
-475.289	-41.342	0.118	0.061
-474.274	678.787	0.158	-0.414
-473.259	-111.558	0.203	0.041
-472.245	493.325	0.019	-0.043
-471.230	-127.147	0.415	-0.061
-470.216	112.223	0.221	-0.269
-469.201	-95.318	0.203	-0.055
-468.186	335.813	-0.168	0.329
-467.172	699.293	-0.068	0.179
-466.157	-200.000	-0.023	-0.138
-465.143	36.743	-0.205	-0.183
-464.128	-87.397	-0.485	-0.148
-463.113	495.513	-0.037	-0.085
-462.099	-28.062	-0.337	0.196
-461.084	123.285	0.109	-0.137
-460.070	-34.457	0.097	0.054
-459.055	-200.000	-0.070	-0.360
-458.040	-113.873	0.180	0.035
-457.026	-200.000	0.026	0.157
-456.011	-177.328	0.082	0.002
-454.997	-184.271	-0.052	0.001
-453.982	142.487	0.099	0.133
-452.968	800.000	-0.110	0.327
-451.953	800.000	-0.069	0.202
-450.938	196.697	-0.118	0.181
-449.924	42.840	0.337	-0.309
-448.909	800.000	0.065	-0.207
-447.895	800.000	-0.042	0.128
-446.880	105.942	-0.251	0.299
-445.865	309.905	0.018	0.035
-444.851	258.375	-0.029	0.051
-443.836	6.132	0.164	-0.122
-442.822	-200.000	0.006	-0.034
-441.807	95.912	-0.275	-0.316
-440.792	66.554	-0.256	-0.262
-439.778	236.362	0.080	-0.133
-438.763	114.271	0.251	-0.307
-437.749	-113.404	-0.350	0.069
-436.734	-125.996	-0.210	0.032
-435.719	-200.000	0.036	-0.236
-434.705	162.561	-0.193	-0.272
-433.690	-42.705	-0.150	-0.077
-432.676	233.039	-0.112	0.185
-431.661	7.411	-0.277	0.208
-430.646	493.735	0.145	0.335
-429.632	800.000	-0.037	0.111
-428.617	-196.305	0.218	-0.002
-427.603	-118.664	0.403	-0.071
-426.588	-63.437	-0.350	0.145
-425.573	-90.617	0.117	-0.034
-424.559	-46.692	0.208	0.102
-423.544	56.027	0.162	0.158
-422.530	100.211	-0.075	0.088
-421.515	-78.358	0.236	-0.081
-420.500	185.910	0.123	0.184
-419.486	54.129	0.053	-0.051
-418.471	-86.935	0.144	-0.044
-417.457	800.000	-0.058	-0.254
-416.442	166.211	-0.186	-0.264
-415.428	-33.829	0.078	-0.043
-414.413	-200.000	0.043	-0.235
-413.398	238.865	-0.155	-0.259
-412.384	147.320	0.157	-0.213
-411.369	-200.000	-0.037	-0.239
-410.355	-200.000	-0.049	0.326
-409.340	-74.764	-0.235	-0.085
-408.325	-200.000	0.004	-0.081
-407.311	-62.294	-0.191	-0.080
-406.296	-200.000	0.033	-0.162
-405.282	-97.682	-0.232	-0.060
-404.267	-114.408	-0.106	0.020
-403.252	441.751	-0.073	0.160
-402.238	-97.413	0.181	-0.047
-401.223	-91.628	-0.070	0.020
-400.209	7.354	-0.178	-0.134
-399.194	129.255	0.081	0.104
-398.179	698.935	0.091	0.241
-397.165	800.000	0.077	0.238
-396.150	62.419	0.196	0.196
-395.136	-77.311	0.423	0.148
-394.121	-71.152	0.061	-0.023
-393.106	-147.404	-0.210	-0.018
-392.092	13.735	-0.207	0.162
-391.077	290.369	0.123	-0.224
-390.063	3.794	-0.231	-0.169
-389.048	334.115	0.082	-0.159
-388.033	10.089	0.282	-0.215
-387.019	-151.668	0.145	-0.011
-386.004	-62.298	0.103	-0.043
-384.990	-91.824	-0.086	-0.024
-383.975	-200.000	-0.026	-0.132
-382.960	119.097	-0.066	0.081
-381.946	63.420	0.102	-0.103
-380.931	-200.000	-0.015	-0.099
-379.917	800.000	0.041	-0.132
-378.902	800.000	-0.049	0.181
-377.888	-178.157	-0.149	0.004
-376.873	114.936	0.128	-0.157
-375.858	-143.674	0.246	0.023
-374.844	800.000	-0.042	-0.124
-373.829	-200.000	0.039	-0.283
-372.815	9.725	0.049	0.037
-371.800	800.000	0.079	0.221
-370.785	-43.422	0.264	0.134
-369.771	-200.000	0.008	-0.035
-368.756	30.424	0.162	-0.139
-367.742	-124.041	-0.205	-0.032
-366.727	-113.152	-0.325	0.064
-365.712	106.251	-0.248	0.295
-364.698	-200.000	-0.049	0.236
-363.683	-200.000	-0.020	0.129
-362.669	283.717	0.132	-0.238
-361.654	800.000	-0.032	-0.109
-360.639	-200.000	-0.000	0.066
-359.625	-70.187	0.090	-0.034
-358.610	-200.000	-0.029	0.234
-357.596	170.524	0.066	-0.094
-356.581	800.000	-0.084	-0.324
-355.566	270.791	-0.093	0.164
-354.552	-77.469	-0.172	0.060
-353.537	73.637	0.251	0.264
-352.523	800.000	-0.107	-0.355
-351.508	-74.891	0.190	0.068
-350.493	98.232	-0.212	-0.244
-349.479	233.602	0.089	-0.146
-348.464	-200.000	0.042	-0.194
-347.450	53.930	0.205	-0.198
-346.435	-200.000	-0.004	0.309
-345.420	800.000	0.028	0.101
-344.406	-150.903	0.049	0.004
-343.391	10.081	0.161	-0.123
-342.377	182.444	0.142	0.210
-341.362	-9.889	0.162	0.108
-340.348	-200.000	-0.046	-0.231
-339.333	-149.009	-0.282	-0.023
-338.318	366.308	0.103	0.208
-337.304	-23.441	-0.052	0.031
-336.289	63.146	0.124	0.125
-335.275	-119.110	0.275	0.048
-334.260	78.676	-0.207	0.221
-333.245	39.648	0.079	-0.071
-332.231	-200.000	-0.005	-0.034
-331.216	-180.228	-0.048	0.001
-330.202	-70.985	-0.294	0.111
-329.187	593.942	-0.131	-0.324
-328.172	-53.443	0.090	-0.041
-327.158	-39.948	0.171	-0.089
-326.143	722.646	-0.112	0.298
-325.129	22.902	0.162	0.133
-324.114	-58.673	-0.098	0.043
-323.099	54.606	-0.100	-0.096
-322.085	-89.021	-0.283	0.084
-321.070	487.373	0.081	0.185
-320.056	-2.709	0.294	0.206
-319.041	70.294	0.242	0.250
-318.026	-38.280	-0.098	-0.052
-317.012	215.140	-0.070	-0.111
-315.997	233.830	0.098	0.162
-314.983	-54.007	0.150	0.068
-313.968	91.380	-0.316	0.355
-312.953	-200.000	0.003	0.408
-311.939	-57.547	0.261	-0.115
-310.924	-200.000	0.056	0.246
-309.910	-75.793	-0.307	-0.109
-308.895	-81.838	0.283	-0.093
-307.880	-141.913	-0.102	0.010
-306.866	800.000	0.020	0.086
-305.851	237.071	0.078	-0.129
-304.837	-100.417	0.395	-0.098
-303.822	-13.716	-0.206	0.133
-302.807	-61.719	0.133	-0.056
-301.793	-5.435	0.128	-0.088
-300.778	68.692	0.093	-0.095
-299.764	-18.688	0.250	0.156
-298.749	-32.403	-0.014	0.008
-297.735	-69.381	-0.134	0.052
-296.720	-50.184	-0.034	0.016
-295.705	147.536	0.203	-0.274
-294.691	-133.331	-0.237	0.030
-293.676	-0.535	0.190	-0.135
-292.662	31.650	0.092	-0.079
-291.647	-164.510	0.087	0.004
-290.632	-200.000	0.009	0.145
-289.618	-191.642	-0.206	0.002
-288.603	800.000	0.070	-0.203
-287.589	3.604	0.246	0.179
-286.574	294.586	0.054	0.099
-285.559	252.534	0.143	-0.244
-284.545	-104.442	0.088	0.020
-283.530	219.975	0.071	-0.113
-282.516	231.775	-0.166	-0.272
-281.501	-200.000	0.005	0.023
-280.486	61.209	0.151	-0.150
-279.472	-115.927	0.348	0.065
-278.457	3.912	-0.467	-0.341
-277.443	-36.834	-0.131	-0.070
-276.428	14.322	0.353	0.275
-275.413	-47.113	0.114	0.055
-274.399	50.037	0.165	0.156
-273.384	-21.452	-0.159	-0.097
-272.370	67.626	-0.036	0.037
-271.355	512.461	-0.188	-0.437
-270.340	-200.000	-0.042	0.425
-269.326	260.721	0.119	0.206
-268.311	317.451	0.214	-0.403
-267.297	208.996	0.068	-0.106
-266.282	62.321	0.140	0.140
-265.267	-200.000	-0.001	0.137
-264.253	800.000	0.067	-0.256
-263.238	-176.569	0.178	0.005
-262.224	-45.029	-0.305	0.151
-261.209	-21.788	0.396	0.241
-260.195	51.490	0.093	0.088
-259.180	-200.000	-0.075	0.412
-258.165	800.000	-0.070	-0.241
-257.151	-12.401	0.291	-0.190
-256.136	303.707	0.129	0.238
-255.122	-66.995	-0.085	0.033
-254.107	-103.923	-0.210	0.049
-253.092	-108.857	0.492	-0.105
-252.078	-200.000	0.052	0.254
-251.063	-110.836	0.334	-0.069
-250.049	-91.762	0.108	0.031
-249.034	-15.919	-0.250	-0.159
-248.019	41.599	0.222	0.200
-247.005	196.435	0.213	0.324
-245.990	-200.000	-0.065	0.357
-244.976	61.077	-0.329	-0.326
-243.961	93.618	0.163	0.184
-242.946	-152.355	0.287	-0.021
-241.932	-200.000	-0.008	0.071
-240.917	-200.000	-0.015	-0.422
-239.903	-157.859	0.424	0.025
-238.888	-72.624	-0.107	0.039
-237.873	155.929	-0.110	-0.151
-236.859	-78.538	0.108	-0.037
-235.844	177.888	0.209	0.304
-234.830	48.571	0.138	-0.129
-233.815	-22.308	-0.194	-0.117
-232.800	-200.000	0.066	-0.470
-231.786	-53.153	0.128	-0.059
-230.771	-83.922	0.027	0.009
-229.757	-61.365	0.357	-0.150
-228.742	-200.000	-0.021	-0.100
-227.727	230.582	-0.165	0.269
-226.713	800.000	-0.060	-0.256
-225.698	-90.152	0.013	0.004
-224.684	0.633	0.241	0.172
-223.669	432.528	-0.068	0.146
-222.655	-144.586	-0.325	0.030
-221.640	126.643	-0.164	-0.207
-220.625	404.935	-0.092	0.193
-219.611	800.000	0.033	0.110
-218.596	-10.182	-0.125	-0.082
-217.582	43.812	-0.181	-0.165
-216.567	-200.000	0.017	0.129
-215.552	269.685	0.191	-0.334
-214.538	-93.055	-0.057	0.016
-213.523	-158.729	0.407	0.023
-212.509	-3.406	0.309	0.214
-211.494	-111.563	-0.326	-0.066
-210.479	-68.441	-0.100	-0.039
-209.465	-200.000	-0.012	-0.199
-208.450	97.982	0.272	0.312
-207.436	-200.000	-0.006	-0.045
-206.421	66.185	0.078	-0.079
-205.406	-200.000	0.011	-0.391
-204.392	109.727	-0.253	-0.303
-203.377	280.720	-0.156	-0.278
-202.363	45.531	-0.088	0.081
-201.348	86.256	0.266	0.292
-200.333	-38.056	-0.306	0.162
-199.319	414.117	0.127	-0.269
-198.304	-200.000	0.015	0.104
-197.290	-145.458	0.137	0.012
-196.275	-109.543	0.125	0.026
-195.260	126.732	-0.306	0.386
-194.246	-185.138	-0.189	0.003
-193.231	-3.805	0.296	-0.204
-192.217	-200.000	-0.017	-0.150
-191.202	-40.693	-0.115	0.059
-190.187	127.566	0.109	0.137
-189.173	-42.651	0.052	0.026
-188.158	46.722	0.091	0.084
-187.144	-27.965	0.324	-0.187
-186.129	-177.382	0.319	0.008
-185.114	166.440	-0.189	0.267
-184.100	-104.800	-0.237	-0.054
-183.085	800.000	-0.060	0.194
-182.071	-200.000	-0.038	-0.195
-181.056	64.232	-0.109	-0.109
-180.042	-21.362	0.111	-0.068
-179.027	-121.539	-0.369	0.061
-178.012	-162.780	0.256	0.012
-176.998	-159.388	0.189	0.011
-175.983	258.355	0.068	0.117
-174.969	172.337	-0.105	-0.150
-173.954	800.000	0.120	-0.392
-172.939	800.000	-0.095	-0.355
-171.925	800.000	0.066	-0.236
-170.910	139.345	-0.053	-0.069
-169.896	800.000	0.053	-0.146
-168.881	-200.000	0.023	0.172
-167.866	5.083	-0.327	0.239
-166.852	-200.000	-0.024	0.204
-165.837	-141.797	-0.168	0.017
-164.823	800.000	-0.086	-0.328
-163.808	95.466	0.082	-0.093
-162.793	-200.000	0.001	0.181
-161.779	112.160	-0.144	-0.174
-160.764	-88.018	0.061	0.018
-159.750	145.539	-0.123	-0.164
-158.735	-31.830	0.147	0.082
-157.720	206.433	0.145	-0.225
-156.706	20.110	-0.131	-0.105
-155.691	212.816	0.073	-0.114
-154.677	326.380	0.140	0.267
-153.662	1.648	-0.087	0.062
-152.647	-90.321	-0.231	-0.067
-151.633	-200.000	0.016	0.107
-150.618	-120.762	-0.155	-0.026
-149.604	800.000	-0.118	-0.387
-148.589	-21.317	0.250	-0.152
-147.574	46.412	0.218	-0.201
-146.560	528.024	-0.147	-0.345
-145.545	-200.000	-0.013	-0.205
-144.531	397.886	-0.063	-0.131
-143.516	800.000	0.094	-0.267
-142.502	800.000	0.029	0.085
-141.487	-15.301	-0.115	-0.073
-140.472	-174.728	-0.059	-0.002
-139.458	-200.000	0.008	-0.148
-138.443	-200.000	0.024	0.243
-137.429	146.047	-0.183	0.243
-136.414	-51.547	0.162	0.075
-135.399	-92.606	0.231	-0.064
-134.385	-200.000	0.005	-0.318
-133.370	-200.000	-0.024	-0.267
-132.356	-200.000	-0.004	-0.188
-131.341	-10.722	0.020	-0.013
-130.326	-200.000	0.020	-0.224
-129.312	721.363	0.041	-0.109
-128.297	212.627	0.115	0.181
-127.283	-29.805	0.092	-0.052
-126.268	-68.838	-0.250	-0.096
-125.253	800.000	0.052	0.165
-124.239	-4.515	-0.238	0.163
-123.224	-84.700	-0.148	-0.046
-122.210	64.501	-0.061	-0.061
-121.195	-70.159	0.196	0.074
-120.180	-116.001	0.269	-0.050
-119.166	404.749	0.161	-0.337
-118.151	800.000	-0.068	-0.194
-117.137	-109.163	-0.301	-0.064
-116.122	-10.929	-0.226	0.148
-115.107	-9.700	-0.242	-0.160
-114.093	800.000	0.062	0.183
-113.078	-136.983	-0.208	0.024
-112.064	11.266	0.157	-0.119
-111.049	-68.939	-0.390	0.149
-110.034	606.451	0.044	-0.109
-109.020	-101.163	0.398	-0.097
-108.005	30.388	-0.119	0.101
-106.991	-118.704	-0.247	-0.043
-105.976	-42.009	0.291	-0.148
-104.962	-179.102	-0.045	0.001
-103.947	-137.436	0.279	-0.031
-102.932	-43.960	-0.189	-0.094
-101.918	-27.829	0.248	0.142
-100.903	-200.000	-0.033	0.266
-99.889	11.850	-0.296	0.226
-98.874	248.331	0.198	0.333
-97.859	-134.654	0.134	0.016
-96.845	800.000	0.019	0.070
-95.830	-90.300	0.420	0.121
-94.816	12.554	0.293	0.224
-93.801	36.694	-0.264	0.231
-92.786	-200.000	0.027	-0.139
-91.772	800.000	-0.047	0.195
-90.757	-31.059	-0.154	-0.086
-89.743	74.409	0.133	0.139
-88.728	800.000	-0.032	-0.099
-87.713	34.032	0.072	-0.062
-86.699	-71.402	0.016	-0.006
-85.684	193.283	-0.202	-0.302
-84.670	-109.650	0.201	0.042
-83.655	800.000	-0.180	0.520
-82.640	-53.323	0.132	-0.060
-81.626	-200.000	-0.033	0.435
-80.611	28.683	-0.234	-0.196
-79.597	-197.810	0.219	0.001
-78.582	61.636	-0.064	0.063
-77.567	-159.384	0.249	0.014
-76.553	-102.264	-0.253	-0.060
-75.538	431.062	-0.035	0.076
-74.524	-200.000	-0.000	-0.221
-73.509	-53.227	-0.261	-0.119
-72.494	-200.000	0.278	0.000
-71.480	-63.401	0.133	-0.054
-70.465	158.228	0.074	-0.102
-69.451	45.233	-0.188	-0.172
-68.436	-14.564	0.248	-0.158
-67.422	368.656	-0.144	-0.288
-66.407	-136.122	-0.398	0.046
-65.392	141.701	0.107	0.141
-64.378	35.383	-0.072	0.063
-63.363	203.147	-0.047	0.072
-62.349	-132.504	0.203	-0.026
-61.334	35.210	-1.072	-0.931
-60.319	56.764	0.384	0.370
-59.305	793.249	-0.273	-0.745
-58.290	329.471	0.527	1.004
-57.276	264.695	0.968	1.670
-56.261	-200.000	84.695	490.904
-55.246	515.058	1395.478	3225.833
-54.232	180.573	2630.567	3822.886
-53.217	112.210	2373.815	2841.267
-52.203	46.548	1979.675	1818.788
-51.188	40.940	1764.637	1576.853
-50.173	38.375	1718.260	1515.511
-49.159	52.834	1759.490	1665.413
-48.144	56.606	1778.277	1712.693
-47.130	40.786	1738.699	1552.222
-46.115	37.856	1724.425	1516.663
-45.100	37.831	1719.129	1511.757
-44.086	37.747	1716.658	1508.874
-43.071	37.745	1713.716	1506.213
-42.057	37.711	1711.347	1503.802
-41.042	37.612	1709.833	1501.655
-40.027	37.711	1707.962	1500.715
-39.013	37.731	1705.167	1498.352
-37.998	37.691	1703.534	1496.545
-36.984	37.715	1702.510	1495.778
-35.969	37.842	1700.896	1495.269
-34.954	38.065	1698.487	1494.802
-33.940	37.839	1697.260	1491.932
-32.925	37.866	1695.446	1490.489
-31.911	37.912	1693.712	1489.251
-30.896	37.850	1692.378	1487.550
-29.881	37.896	1690.365	1486.068
-28.867	37.893	1688.565	1484.404
-27.852	37.840	1687.629	1483.119
-26.838	37.811	1686.285	1481.663
-25.823	37.959	1683.795	1480.535
-24.809	37.960	1682.794	1479.605
-23.794	37.918	1681.741	1478.305
-22.779	38.000	1679.704	1477.076
-21.765	37.887	1678.417	1475.026
-20.750	37.820	1676.782	1473.025
-19.736	37.835	1675.476	1471.938
-18.721	37.836	1674.254	1470.814
-17.706	37.852	1672.264	1469.125
-16.692	37.863	1670.540	1467.634
-15.677	37.876	1669.623	1466.872
-14.663	37.912	1667.893	1465.558
-13.648	38.005	1666.240	1464.747
-12.633	37.859	1665.406	1462.860
-11.619	37.964	1663.285	1461.729
-10.604	37.976	1661.458	1460.153
-9.590	37.925	1660.172	1458.583
-8.575	37.895	1659.390	1457.612
-7.560	37.924	1657.599	1456.200
-6.546	37.925	1657.218	1455.814
-5.531	37.873	1655.886	1454.201
-4.517	37.884	1654.323	1452.853
-3.502	37.854	1653.340	1451.704
-2.487	38.013	1651.572	1451.283
-1.473	37.851	1640.337	1440.155
-0.458	35.347	1620.417	1404.302
0.556	33.123	1619.639	1368.864
1.571	30.402	1644.145	1369.415
2.586	29.342	1657.404	1372.455
3.600	25.259	1600.779	1296.023
4.615	14.807	1482.708	1130.022
5.629	6.276	1412.555	1021.288
6.644	4.856	1403.361	1005.391
7.659	4.759	1402.056	1003.745
8.673	4.675	1401.071	1002.405
9.688	4.720	1399.331	1001.364
10.702	4.625	1397.627	999.446
11.717	8.349	1404.683	1028.421
12.731	17.527	1421.769	1100.413
13.746	22.371	1428.003	1136.503
14.761	21.307	1425.055	1127.192
15.775	20.188	1421.912	1117.398
16.790	19.067	1419.143	1107.917
17.804	18.252	1416.696	1100.665
18.819	17.896	1415.568	1097.405
19.834	17.511	1414.390	1093.922
20.848	17.387	1412.983	1091.940
21.863	17.112	1412.109	1089.401
22.877	17.040	1410.605	1087.685
23.892	17.050	1409.394	1086.717
24.907	16.993	1409.024	1085.974
25.921	16.984	1407.953	1084.995
26.936	17.075	1407.376	1085.032
27.950	17.111	1405.788	1083.947
28.965	17.132	1405.108	1083.458
29.980	17.235	1403.968	1083.142
30.994	17.302	1402.706	1082.494
32.009	17.313	1401.639	1081.649
33.023	17.333	1400.380	1080.704
34.038	17.225	1398.890	1078.777
35.053	17.236	1397.769	1077.885
36.067	17.124	1397.059	1076.535
37.082	17.202	1395.837	1075.989
38.096	17.207	1394.798	1075.127
39.111	17.283	1394.175	1075.034
40.126	17.095	1393.003	1072.844
41.140	16.933	1392.240	1071.142
42.155	16.862	1391.565	1070.077
43.169	16.811	1391.304	1069.459
44.184	16.751	1391.252	1068.945
45.199	16.853	1390.396	1068.839
46.213	16.940	1389.960	1068.957
47.228	17.109	1389.199	1069.339
48.242	17.175	1387.838	1068.610
49.257	17.151	1386.240	1067.138
50.271	17.098	1385.105	1065.834
51.286	17.094	1383.654	1064.598
52.301	17.115	1382.340	1063.625
53.315	17.017	1380.942	1061.841
54.330	17.016	1379.923	1060.961
55.344	16.931	1378.688	1059.388
56.359	16.832	1377.944	1058.103
57.374	16.880	1376.968	1057.556
58.388	16.818	1376.065	1056.383
59.403	16.808	1375.235	1055.592
60.417	16.748	1374.862	1054.836
61.432	16.755	1373.519	1053.757
62.447	16.650	1373.127	1052.714
63.461	16.661	1371.443	1051.397
64.476	16.608	1370.267	1050.073
65.490	16.623	1368.678	1048.858
66.505	16.726	1367.372	1048.401
67.520	16.684	1366.332	1047.246
68.534	16.733	1365.224	1046.611
69.549	16.713	1364.179	1045.590
70.563	16.632	1363.072	1044.154
71.578	16.535	1362.090	1042.708
72.593	16.606	1360.944	1042.179
73.607	16.539	1360.405	1041.258
74.622	16.632	1359.196	1040.812
75.636	16.554	1358.875	1039.997
76.651	16.584	1358.231	1039.594
77.666	16.565	1357.749	1039.016
78.680	16.654	1356.942	1038.854
79.695	16.736	1355.811	1038.399
80.709	16.662	1355.530	1037.637
81.724	16.827	1354.781	1037.984
82.739	16.832	1354.035	1037.352
83.753	16.953	1353.288	1037.428
84.768	17.039	1351.951	1036.835
85.782	17.128	1350.724	1036.347
86.797	17.113	1349.409	1035.155
87.812	17.032	1348.008	1033.497
88.826	17.098	1346.482	1032.638
89.841	17.008	1346.446	1031.972
90.855	17.090	1345.055	1031.308
91.870	17.227	1344.051	1031.283
92.884	17.179	1343.341	1030.356
93.899	17.229	1342.375	1029.823
94.914	17.305	1341.702	1029.678
95.928	17.253	1340.825	1028.596
96.943	17.183	1339.405	1026.994
97.957	17.134	1338.771	1026.122
98.972	17.122	1337.857	1025.255
99.987	17.181	1336.902	1024.789
101.001	17.176	1335.557	1023.640
102.016	17.147	1334.964	1022.919
103.030	17.159	1333.822	1022.024
104.045	17.155	1332.701	1021.055
105.060	17.112	1330.865	1019.297
106.074	16.881	1329.769	1016.986
107.089	16.799	1328.279	1015.264
108.103	16.782	1327.065	1014.140
109.118	16.710	1325.949	1012.770
110.133	16.665	1324.625	1011.400
111.147	16.715	1323.219	1010.535
112.162	16.827	1321.716	1009.967
113.176	16.847	1320.657	1009.188
114.191	16.878	1319.945	1008.735
115.206	16.928	1318.487	1007.828
116.220	16.797	1317.376	1006.116
117.235	16.875	1315.821	1005.298
118.249	16.840	1315.654	1004.873
119.264	16.802	1313.893	1003.221
120.279	16.749	1312.687	1001.891
121.293	16.762	1311.848	1001.243
122.308	16.761	1310.642	1000.227
123.322	16.715	1309.225	998.788
124.337	16.608	1309.027	997.914
125.352	16.615	1307.802	996.936
126.366	16.613	1306.616	995.928
127.381	16.674	1305.283	995.187
128.395	16.711	1304.521	994.731
129.410	16.689	1303.580	993.798
130.424	16.790	1302.884	993.775
131.439	16.790	1301.820	992.876
132.454	16.784	1301.150	992.240
133.468	16.885	1300.008	991.870
134.483	16.821	1300.233	991.580
135.497	16.963	1298.762	991.203
136.512	16.902	1297.688	989.935
137.527	16.897	1296.012	988.542
138.541	16.927	1294.638	987.584
139.556	16.993	1293.208	986.789
140.570	17.073	1292.408	986.553
141.585	17.157	1290.977	985.865
142.600	17.157	1290.208	985.189
143.614	17.202	1288.909	984.370
144.629	17.269	1287.745	983.781
145.643	17.179	1286.861	982.499
146.658	17.140	1285.007	980.771
147.673	16.957	1284.080	978.919
148.687	16.875	1282.913	977.472
149.702	16.901	1281.164	976.205
150.716	16.907	1279.877	975.170
151.731	16.894	1278.793	974.185
152.746	17.041	1277.450	973.918
153.760	17.040	1276.086	972.786
154.775	17.016	1275.410	972.046
155.789	17.067	1273.999	971.176
156.804	17.197	1273.162	971.198
157.819	17.119	1272.087	969.844
158.833	17.176	1271.216	969.419
159.848	17.320	1270.448	969.572
160.862	17.338	1269.120	968.573
161.877	17.117	1267.902	966.300
162.892	16.925	1266.583	964.118
163.906	16.914	1266.099	963.601
164.921	16.957	1264.755	962.739
165.935	16.983	1264.427	962.548
166.950	17.137	1263.601	962.709
167.964	17.015	1262.871	961.376
168.979	17.128	1261.749	961.077
169.994	17.096	1261.094	960.311
171.008	17.161	1260.681	960.281
172.023	17.200	1260.059	959.943
173.037	17.332	1258.710	959.576
174.052	17.239	1257.665	958.167
175.067	17.078	1256.408	956.217
176.081	17.175	1255.005	955.612
177.096	17.093	1254.643	954.794
178.110	17.004	1253.577	953.394
179.125	17.179	1252.403	953.399
180.140	17.224	1251.017	952.516
181.154	17.144	1249.754	951.023
182.169	17.293	1248.479	950.799
183.183	17.331	1247.434	950.130
184.198	17.270	1246.625	949.091
185.213	17.357	1245.386	948.547
186.227	17.338	1243.809	947.157
187.242	17.399	1243.043	946.832
188.256	17.531	1241.822	946.552
189.271	17.421	1241.628	945.704
190.286	17.377	1239.901	944.062
191.300	17.069	1238.907	941.517
192.315	16.994	1238.445	940.663
193.329	16.974	1237.698	939.902
194.344	17.144	1236.510	939.859
195.359	17.245	1236.150	940.061
196.373	17.311	1235.910	940.163
197.388	17.440	1235.413	940.414
198.402	17.550	1234.697	940.390
199.417	17.719	1234.374	940.995
200.432	17.766	1233.630	940.605
201.446	17.729	1232.945	939.796
202.461	17.807	1231.837	939.294
203.475	17.819	1230.717	938.425
204.490	17.633	1229.711	936.554
205.504	17.542	1228.480	935.030
206.519	17.458	1227.462	933.712
207.534	17.620	1225.665	933.151
208.548	17.639	1224.623	932.380
209.563	17.603	1224.014	931.637
210.577	17.598	1223.192	930.899
211.592	17.659	1222.735	930.804
212.607	17.825	1221.362	930.585
213.621	17.707	1220.971	929.558
214.636	17.790	1219.725	928.982
215.650	17.738	1218.844	927.945
216.665	17.753	1218.178	927.435
217.680	17.888	1217.163	927.316
218.694	17.924	1216.241	926.728
219.709	17.944	1215.403	926.111
220.723	17.927	1214.357	925.143
221.738	17.896	1213.792	924.464
222.753	17.894	1212.889	923.680
223.767	17.866	1212.337	923.027
224.782	17.905	1212.025	922.920
225.796	18.032	1211.180	922.879
226.811	17.961	1210.353	921.786
227.826	17.893	1209.816	920.929
228.840	17.934	1208.884	920.361
229.855	17.927	1208.022	919.586
230.869	17.825	1207.810	918.793
231.884	17.863	1206.302	917.767
232.899	17.841	1205.852	917.226
233.913	17.832	1205.131	916.548
234.928	17.753	1203.993	915.178
235.942	17.712	1203.173	914.254
236.957	17.761	1202.519	913.936
237.972	17.738	1201.943	913.296
238.986	17.703	1201.413	912.623
240.001	17.877	1200.688	912.923
241.015	17.911	1199.815	912.363
242.030	17.895	1198.872	911.479
243.045	18.022	1197.857	911.302
244.059	18.090	1196.942	910.891
245.074	18.063	1196.477	910.308
246.088	17.929	1196.201	909.304
247.103	18.100	1195.146	909.332
248.117	18.224	1194.212	909.201
249.132	18.308	1193.527	909.045
250.147	18.307	1193.392	908.856
251.161	18.504	1192.357	909.032
252.176	18.547	1191.647	908.639
253.190	18.674	1190.794	908.581
254.205	18.596	1190.339	907.740
255.220	18.613	1189.777	907.324
256.234	18.636	1189.333	907.024
257.249	18.608	1188.191	905.928
258.263	18.672	1187.773	905.862
259.278	18.606	1187.012	904.857
260.293	18.653	1186.634	904.735
261.307	18.778	1186.062	904.881
262.322	18.652	1185.641	903.812
263.336	18.776	1184.627	903.612
264.351	18.788	1184.023	903.134
265.366	18.881	1183.128	902.861
266.380	18.879	1182.706	902.449
267.395	18.780	1181.570	900.981
268.409	18.644	1180.887	899.667
269.424	18.693	1180.171	899.302
270.439	18.728	1179.448	898.855
271.453	18.618	1178.720	897.641
272.468	18.655	1177.828	897.077
273.482	18.711	1176.823	896.528
274.497	18.557	1176.623	895.490
275.512	18.628	1175.628	895.024
276.526	18.695	1174.733	894.614
277.541	18.629	1174.351	893.900
278.555	18.679	1173.964	893.784
279.570	18.891	1172.627	893.791
280.585	18.862	1172.396	893.385
281.599	18.878	1171.273	892.535
282.614	18.761	1170.262	891.077
283.628	18.781	1168.865	890.039
284.643	18.860	1167.738	889.509
285.657	18.877	1166.712	888.737
286.672	18.876	1166.136	888.215
287.687	18.813	1165.325	887.192
288.701	18.840	1165.053	887.049
289.716	18.958	1164.158	886.899
290.730	18.840	1163.231	885.505
291.745	18.892	1162.333	885.010
292.760	18.823	1161.860	884.218
293.774	18.958	1161.253	884.368
294.789	19.146	1160.414	884.620
295.803	19.082	1159.954	883.859
296.818	19.072	1158.897	882.928
297.833	18.992	1158.172	881.886
298.847	19.073	1156.988	881.320
299.862	18.984	1156.814	880.656
300.876	18.922	1156.032	879.664
301.891	19.188	1154.982	880.148
302.906	19.126	1154.951	879.727
303.920	19.231	1153.923	879.401
304.935	19.283	1153.328	879.137
305.949	19.399	1152.630	879.120
306.964	19.309	1152.468	878.459
307.979	19.220	1151.167	876.938
308.993	19.273	1150.557	876.664
310.008	19.333	1149.448	876.046
311.022	19.286	1148.991	875.382
312.037	19.377	1148.221	875.177
313.052	19.297	1147.133	873.867
314.066	19.149	1146.077	872.237
315.081	19.177	1145.159	871.601
316.095	19.099	1144.219	870.416
317.110	19.162	1143.298	869.957
318.125	19.105	1142.971	869.343
319.139	19.181	1141.916	868.846
320.154	19.171	1141.201	868.175
321.168	19.189	1140.681	867.791
322.183	19.150	1140.270	867.205
323.197	19.073	1140.159	866.657
324.212	19.203	1139.102	866.432
325.227	19.267	1138.439	866.172
326.241	19.076	1137.982	864.786
327.256	19.243	1136.876	864.711
328.270	19.260	1135.966	864.024
329.285	19.291	1134.849	863.255
330.300	19.248	1134.074	862.372
331.314	19.258	1133.325	861.780
332.329	19.207	1132.124	860.535
333.343	19.377	1131.625	860.928
334.358	19.361	1130.579	859.978
335.373	19.420	1129.930	859.698
336.387	19.470	1129.154	859.283
337.402	19.442	1128.573	858.626
338.416	19.589	1127.766	858.664
339.431	19.541	1127.339	858.027
340.446	19.540	1126.847	857.574
341.460	19.695	1126.247	857.806
342.475	19.893	1125.019	857.778
343.489	19.813	1124.132	856.628
344.504	19.817	1123.212	855.875
345.519	19.790	1122.806	855.352
346.533	19.910	1121.694	855.025
347.548	19.814	1121.637	854.433
348.562	19.925	1120.064	853.703
349.577	19.858	1118.942	852.442
350.592	19.657	1118.369	850.942
351.606	19.786	1117.280	850.672
352.621	19.650	1116.641	849.443
353.635	19.692	1116.062	849.135
354.650	19.641	1115.580	848.440
355.665	19.650	1114.731	847.765
356.679	19.688	1114.324	847.565
357.694	19.803	1113.336	847.305
358.708	19.848	1112.632	846.911
359.723	19.881	1112.386	846.809
360.738	19.873	1111.593	846.095
361.752	19.910	1110.962	845.721
362.767	19.859	1110.597	845.119
363.781	19.858	1110.027	844.603
364.796	19.896	1109.360	844.209
365.810	20.055	1108.911	844.566
366.825	20.120	1108.072	844.170
367.840	20.161	1107.925	844.184
368.854	20.238	1107.203	843.932
369.869	20.155	1106.328	842.787
370.883	20.308	1105.277	842.654
371.898	20.228	1104.641	841.705
372.913	20.097	1103.884	840.419
373.927	20.129	1103.652	840.327
374.942	20.269	1102.991	840.425
375.956	20.369	1102.447	840.421
376.971	20.298	1101.790	839.502
377.986	20.285	1100.978	838.747
379.000	20.344	1100.208	838.369
380.015	20.377	1099.874	838.201
381.029	20.475	1099.554	838.353
382.044	20.492	1098.906	837.871
383.059	20.454	1098.182	837.059
384.073	20.385	1097.318	835.996
385.088	20.453	1096.356	835.514
386.102	20.481	1094.906	834.473
387.117	20.249	1094.496	832.970
388.132	20.221	1093.239	831.807
389.146	20.217	1092.522	831.167
390.161	20.304	1091.629	830.833
391.175	20.404	1090.842	830.639
392.190	20.442	1090.250	830.296
393.205	20.506	1089.411	829.886
394.219	20.357	1088.777	828.619
395.234	20.213	1088.416	827.583
396.248	20.450	1086.662	827.309
397.263	20.376	1085.609	826.080
398.278	20.144	1085.140	824.548
399.292	20.360	1084.280	824.849
400.307	20.239	1083.914	823.920
401.321	20.229	1082.692	822.874
402.336	20.245	1082.394	822.650
403.350	20.291	1081.400	822.040
404.365	20.276	1081.038	821.619
405.380	20.336	1080.382	821.333
406.394	20.406	1079.581	820.980
407.409	20.451	1078.671	820.429
408.423	20.584	1078.169	820.604
409.438	20.702	1077.207	820.355
410.453	20.811	1076.554	820.298
411.467	20.738	1076.004	819.463
412.482	20.823	1075.481	819.393
413.496	20.919	1074.473	818.999
414.511	21.007	1073.763	818.802
415.526	20.847	1074.039	818.186
416.540	20.998	1073.299	818.262
417.555	20.945	1072.292	817.171
418.569	20.956	1071.826	816.798
419.584	20.953	1071.268	816.285
420.599	20.892	1070.892	815.638
421.613	148.207	1400.111	1775.527
422.628	136.538	1448.108	1775.660
