DTS Sentinel unit serial number:	SN413079Multiplexer serial number:	ORYXHardware model number:	OX4-SRSoftware version number:	ORYX F/W v4.00 Oryx Data Collector v3.7.2.0data status	okinstallation	princeton_trtdifferential loss correction	single-endedforward channel	channel 2reverse channel	N/Adate	2019/09/14time	04:51:34forward acquisition time	60.00reverse acquisition time	0.00gamma	496.2192k internal	0.2335k external	0.2335temperature offset calibration	1.0131default loss term (dB/km)	0.3790temperature slope calibration	1.0000multiplexer offset coefficient	1.0000multiplexer slope coefficient	1.0000fibre end	0.00T internal ref (°C)	26.81T ext. ref 1 (°C)	3.36T ext. ref 2 (°C)	21.98length (m)	temperature (°C)	Stokes	anti-Stokes-747.200	85.763	0.142	0.156
-746.185	-73.183	0.082	-0.030
-745.171	-120.116	-0.074	0.013
-744.156	-200.000	-0.334	0.001
-743.142	-114.012	-0.107	-0.021
-742.127	-200.000	-0.012	0.079
-741.112	498.478	-0.109	0.252
-740.098	38.258	0.026	-0.024
-739.083	-200.000	0.034	-0.203
-738.069	-131.747	-0.314	0.041
-737.054	647.888	-0.150	0.385
-736.039	-72.784	-0.058	-0.022
-735.025	98.620	0.047	0.054
-734.010	800.000	0.039	0.117
-732.996	394.741	-0.177	-0.370
-731.981	3.148	0.203	0.148
-730.966	-126.810	0.076	-0.011
-729.952	-145.825	-0.221	-0.020
-728.937	-67.584	-0.300	-0.118
-727.923	-22.289	0.398	0.242
-726.908	-200.000	-0.086	-0.438
-725.894	192.486	-0.085	-0.129
-724.879	60.576	-0.318	-0.316
-723.864	-64.326	-0.273	0.112
-722.850	49.670	0.136	0.129
-721.835	6.446	-0.316	-0.235
-720.821	-200.000	-0.039	-0.176
-719.806	304.481	0.072	-0.134
-718.791	-100.996	-0.158	-0.039
-717.777	-109.680	-0.309	0.065
-716.762	-200.000	-0.001	-0.221
-715.748	600.861	0.036	-0.090
-714.733	-168.209	-0.103	-0.004
-713.718	4.620	-0.101	0.074
-712.704	800.000	-0.051	-0.208
-711.689	800.000	-0.135	-0.409
-710.675	-200.000	0.016	0.093
-709.660	-71.787	-0.364	-0.136
-708.645	-173.400	0.200	-0.006
-707.631	347.256	0.052	-0.102
-706.616	-200.000	-0.001	-0.032
-705.602	-200.000	0.009	0.169
-704.587	-28.592	0.071	-0.041
-703.572	-200.000	0.012	-0.364
-702.558	419.665	0.035	0.076
-701.543	-200.000	-0.027	-0.234
-700.529	62.722	0.204	-0.205
-699.514	206.374	0.110	-0.171
-698.499	-32.235	-0.060	-0.034
-697.485	-65.385	0.079	-0.032
-696.470	-200.000	-0.000	0.141
-695.456	480.983	-0.169	0.385
-694.441	47.550	-0.251	0.235
-693.426	245.317	-0.189	0.319
-692.412	81.431	0.228	-0.247
-691.397	-200.000	-0.009	0.083
-690.383	-200.000	0.010	0.080
-689.368	-200.000	0.032	0.351
-688.354	-51.086	-0.027	0.013
-687.339	-50.013	0.156	0.074
-686.324	420.984	0.041	-0.088
-685.310	29.593	-0.056	0.047
-684.295	-129.701	0.068	0.009
-683.281	800.000	-0.087	-0.354
-682.266	800.000	0.155	0.450
-681.251	-130.002	-0.358	0.049
-680.237	159.767	-0.216	-0.301
-679.222	-155.912	0.168	0.011
-678.208	-107.302	0.332	-0.073
-677.193	329.903	0.106	-0.205
-676.178	-101.453	-0.222	0.054
-675.164	295.337	0.109	0.200
-674.149	3.279	0.205	-0.149
-673.135	178.041	-0.162	-0.237
-672.120	-159.504	-0.402	0.022
-671.105	248.179	0.046	-0.079
-670.091	-73.708	-0.270	0.098
-669.076	-7.967	0.344	0.232
-668.062	-123.462	-0.295	-0.047
-667.047	-63.684	0.224	-0.092
-666.032	-69.419	-0.337	0.130
-665.018	800.000	0.098	0.339
-664.003	695.193	0.058	0.153
-662.989	515.287	-0.069	-0.162
-661.974	-50.065	0.311	0.148
-660.959	800.000	-0.187	0.666
-659.945	241.388	0.127	0.212
-658.930	394.545	0.049	-0.102
-657.916	-200.000	-0.057	0.361
-656.901	-200.000	0.013	0.188
-655.886	-200.000	-0.004	0.170
-654.872	394.381	-0.116	-0.242
-653.857	800.000	-0.032	-0.124
-652.843	38.923	-0.135	0.121
-651.828	542.353	0.145	0.347
-650.814	-12.437	-0.247	-0.161
-649.799	-103.548	-0.313	0.074
-648.784	-200.000	-0.444	0.002
-647.770	30.964	0.143	-0.122
-646.755	-65.685	0.153	0.061
-645.741	119.668	-0.331	-0.411
-644.726	99.552	0.025	-0.029
-643.711	553.680	0.046	0.110
-642.697	42.271	-0.149	0.135
-641.682	-108.375	0.133	0.029
-640.668	-200.000	-0.027	-0.122
-639.653	800.000	-0.023	-0.099
-638.638	598.356	-0.051	0.126
-637.624	175.865	-0.158	-0.230
-636.609	697.776	-0.041	0.108
-635.595	21.838	-0.180	0.147
-634.580	-27.329	0.102	-0.059
-633.565	-108.663	0.423	0.091
-632.551	-60.519	0.282	0.120
-631.536	110.023	0.105	-0.126
-630.522	-200.000	-0.006	-0.203
-629.507	-120.451	-0.247	-0.042
-628.492	143.236	-0.154	-0.204
-627.478	-126.000	0.327	0.049
-626.463	-200.000	0.009	-0.223
-625.449	726.836	-0.096	0.257
-624.434	494.551	-0.076	0.173
-623.419	-144.682	0.081	0.007
-622.405	661.015	0.168	0.432
-621.390	-73.513	-0.250	0.091
-620.376	23.268	0.241	0.198
-619.361	265.069	0.066	-0.115
-618.346	800.000	0.024	0.084
-617.332	-105.840	-0.553	0.125
-616.317	206.820	0.147	-0.230
-615.303	74.718	0.358	-0.376
-614.288	166.941	-0.151	-0.214
-613.273	-113.586	-0.159	-0.031
-612.259	20.024	0.230	-0.185
-611.244	800.000	-0.042	-0.148
-610.230	240.524	-0.029	0.049
-609.215	52.761	-0.311	-0.297
-608.201	-200.000	-0.033	0.294
-607.186	132.926	-0.213	0.274
-606.171	-200.000	0.013	0.063
-605.157	-192.143	-0.232	0.002
-604.142	-158.254	-0.199	0.012
-603.128	-154.687	0.145	0.010
-602.113	-124.031	0.264	-0.041
-601.098	-25.763	-0.228	-0.135
-600.084	107.203	-0.212	-0.251
-599.069	385.358	0.150	-0.310
-598.055	-53.698	0.152	-0.070
-597.040	16.095	0.130	0.102
-596.025	-10.794	0.276	-0.182
-595.011	-73.536	-0.175	-0.064
-593.996	-69.677	-0.270	0.103
-592.982	-200.000	-0.019	0.100
-591.967	-74.893	-0.209	-0.075
-590.952	390.594	0.099	-0.206
-589.938	374.039	-0.139	0.283
-588.923	800.000	0.104	0.346
-587.909	62.750	-0.056	-0.056
-586.894	800.000	0.069	-0.210
-585.879	20.828	0.084	0.068
-584.865	-189.339	-0.341	0.004
-583.850	335.283	0.132	-0.255
-582.836	401.847	0.040	0.083
-581.821	800.000	-0.050	-0.165
-580.806	-71.112	0.262	-0.098
-579.792	168.158	-0.154	0.219
-578.777	399.853	-0.194	-0.407
-577.763	-44.961	0.284	0.141
-576.748	218.823	-0.190	0.304
-575.733	-33.655	-0.222	0.122
-574.719	505.779	0.164	-0.379
-573.704	-66.383	-0.286	-0.113
-572.690	-99.365	0.049	-0.012
-571.675	800.000	0.052	0.210
-570.661	-133.518	0.149	0.019
-569.646	249.337	0.161	0.272
-568.631	800.000	-0.091	-0.317
-567.617	-195.644	0.229	0.002
-566.602	585.205	0.198	0.487
-565.588	384.836	0.062	-0.127
-564.573	800.000	-0.068	-0.210
-563.558	-120.069	0.212	0.036
-562.544	-16.933	-0.251	0.158
-561.529	-200.000	-0.015	0.357
-560.515	741.642	0.041	-0.110
-559.500	-81.514	0.114	0.037
-558.485	-84.560	0.290	0.091
-557.471	375.793	0.086	0.175
-556.456	-47.625	0.339	-0.164
-555.442	-200.000	-0.018	0.235
-554.427	800.000	0.071	0.288
-553.412	-75.270	-0.230	0.082
-552.398	-200.000	0.002	0.114
-551.383	-144.325	0.503	-0.047
-550.369	162.433	-0.039	0.054
-549.354	-200.000	0.006	0.128
-548.339	-110.002	-0.247	-0.052
-547.325	-155.246	0.283	-0.018
-546.310	251.196	-0.125	0.212
-545.296	-200.000	-0.012	-0.115
-544.281	-135.266	0.225	-0.027
-543.266	-200.000	0.060	0.372
-542.252	-200.000	-0.001	-0.135
-541.237	800.000	0.111	-0.387
-540.223	-43.404	0.041	-0.021
-539.208	-6.600	-0.197	-0.134
-538.193	735.212	0.180	0.480
-537.179	73.868	-0.091	-0.095
-536.164	484.673	-0.128	-0.291
-535.150	123.829	0.035	-0.044
-534.135	25.403	-0.256	-0.212
-533.121	393.570	-0.032	-0.067
-532.106	239.312	-0.023	-0.037
-531.091	-60.186	-0.237	-0.101
-530.077	-138.925	0.230	-0.025
-529.062	-0.635	0.198	-0.140
-528.048	-153.876	-0.067	0.005
-527.033	594.618	-0.066	0.163
-526.018	313.123	-0.056	0.104
-525.004	800.000	0.022	-0.078
-523.989	-200.000	0.005	0.414
-522.975	-66.947	-0.288	-0.113
-521.960	-103.872	-0.060	-0.014
-520.945	800.000	0.144	0.434
-519.931	64.597	0.219	0.220
-518.916	-44.489	0.290	0.145
-517.902	-200.000	-0.067	-0.310
-516.887	-15.035	-0.301	0.192
-515.872	87.085	0.192	-0.211
-514.858	-37.774	-0.179	0.095
-513.843	91.946	-0.275	-0.309
-512.829	216.168	0.026	-0.041
-511.814	157.968	0.182	0.251
-510.799	143.955	0.127	0.168
-509.785	-66.960	-0.365	0.143
-508.770	-41.871	0.179	-0.091
-507.756	269.568	0.162	-0.283
-506.741	-123.782	-0.369	0.058
-505.726	13.271	-0.129	0.100
-504.712	-200.000	-0.021	-0.165
-503.697	41.531	-0.115	0.104
-502.683	9.946	0.296	0.224
-501.668	-147.650	-0.257	-0.022
-500.653	-43.900	-0.139	0.069
-499.639	575.022	-0.048	-0.117
-498.624	146.614	0.138	-0.184
-497.610	-200.000	0.014	-0.175
-496.595	328.870	0.051	-0.098
-495.581	-89.100	0.096	0.028
-494.566	-80.272	-0.153	-0.051
-493.551	-58.540	0.188	0.081
-492.537	159.450	0.107	0.148
-491.522	800.000	0.007	0.018
-490.508	-89.496	0.134	0.039
-489.493	-92.168	-0.155	0.043
-488.478	-200.000	0.026	0.132
-487.464	244.138	0.126	0.211
-486.449	-167.352	-0.266	-0.011
-485.435	322.349	-0.098	-0.185
-484.420	-141.549	-0.109	-0.011
-483.405	-64.699	0.087	0.035
-482.391	64.643	-0.099	0.099
-481.376	-109.343	0.237	0.050
-480.362	378.289	0.054	-0.111
-479.347	347.943	-0.154	-0.302
-478.332	-200.000	-0.052	-0.432
-477.318	-200.000	0.045	-0.231
-476.303	751.774	-0.028	0.075
-475.289	-200.000	0.043	-0.188
-474.274	-134.161	0.219	-0.027
-473.259	300.223	0.079	0.145
-472.245	58.846	0.096	-0.094
-471.230	-59.838	0.136	-0.058
-470.216	272.195	-0.160	0.281
-469.201	113.248	-0.135	-0.163
-468.186	-69.054	-0.249	-0.095
-467.172	-38.133	-0.150	0.079
-466.157	-78.118	0.292	0.100
-465.143	-167.738	0.272	-0.011
-464.128	-44.237	0.130	-0.065
-463.113	249.663	-0.072	-0.121
-462.099	800.000	0.085	-0.321
-461.084	-113.043	-0.039	-0.008
-460.070	-142.979	0.285	0.027
-459.055	-180.236	0.370	-0.008
-458.040	669.422	0.105	0.270
-457.026	-169.768	-0.124	0.004
-456.011	-79.958	0.485	-0.162
-454.997	-200.000	0.002	0.328
-453.982	115.947	-0.209	0.254
-452.968	-30.170	0.193	-0.109
-451.953	-200.000	0.016	-0.220
-450.938	553.555	0.036	0.085
-449.924	489.175	0.099	-0.224
-448.909	-55.256	0.063	0.028
-447.895	-32.842	-0.143	-0.079
-446.880	-200.000	0.007	-0.135
-445.865	-98.920	0.087	0.022
-444.851	28.632	0.089	-0.075
-443.836	-28.105	-0.038	0.022
-442.822	-50.569	-0.365	0.171
-441.807	-200.000	-0.009	-0.075
-440.792	-200.000	-0.012	0.100
-439.778	-194.355	0.163	-0.001
-438.763	-161.580	-0.268	-0.014
-437.749	800.000	0.047	0.176
-436.734	-200.000	0.036	-0.167
-435.719	-104.329	0.073	-0.017
-434.705	800.000	-0.095	-0.311
-433.690	667.783	0.019	-0.049
-432.676	800.000	-0.030	-0.091
-431.661	-27.855	0.262	-0.151
-430.646	11.703	-0.152	-0.116
-429.632	19.111	0.237	0.188
-428.617	85.293	0.223	-0.243
-427.603	142.524	-0.047	-0.062
-426.588	800.000	-0.053	0.152
-425.573	-27.161	0.336	-0.194
-424.559	800.000	0.062	0.223
-423.544	-200.000	0.032	0.242
-422.530	-185.391	0.244	-0.004
-421.515	-200.000	0.004	0.294
-420.500	-200.000	0.019	0.234
-419.486	-200.000	0.024	-0.279
-418.471	-154.560	0.302	0.020
-417.457	-78.178	0.082	-0.028
-416.442	125.426	0.138	0.173
-415.428	-100.991	-0.219	-0.053
-414.413	-144.998	-0.407	-0.037
-413.398	393.736	0.027	0.056
-412.384	136.062	-0.076	0.098
-411.369	-145.745	-0.094	-0.008
-410.355	308.752	-0.094	-0.174
-409.340	-129.744	-0.306	-0.042
-408.325	34.760	0.148	-0.129
-407.311	800.000	0.057	0.208
-406.296	-146.311	0.120	-0.010
-405.282	-200.000	0.009	0.101
-404.267	779.211	0.134	0.363
-403.252	701.045	-0.089	-0.232
-402.238	800.000	0.108	-0.412
-401.223	672.884	0.199	0.511
-400.209	800.000	0.063	0.212
-399.194	180.750	-0.151	0.219
-398.179	54.614	0.194	0.185
-397.165	-48.889	0.283	-0.134
-396.150	-155.894	-0.198	-0.012
-395.136	229.968	0.051	-0.083
-394.121	-8.338	-0.121	0.081
-393.106	525.990	-0.066	-0.154
-392.092	-25.252	-0.027	-0.016
-391.077	707.272	0.080	-0.209
-390.063	800.000	0.073	0.199
-389.048	348.149	0.159	0.310
-388.033	-35.436	0.066	0.035
-387.019	800.000	0.013	0.037
-386.004	-200.000	0.013	0.130
-384.990	-200.000	0.027	0.376
-383.975	800.000	-0.055	0.154
-382.960	-120.150	-0.079	0.013
-381.946	226.887	-0.097	0.156
-380.931	-200.000	-0.009	-0.044
-379.917	296.760	0.145	0.263
-378.902	-107.440	-0.440	0.096
-377.888	-200.000	-0.017	-0.087
-376.873	180.889	-0.117	0.170
-375.858	113.585	0.370	0.445
-374.844	36.076	0.096	-0.084
-373.829	-200.000	0.031	0.134
-372.815	-58.428	0.384	-0.165
-371.800	800.000	-0.035	0.103
-370.785	-17.976	-0.240	-0.149
-369.771	-130.450	-0.191	0.026
-368.756	152.959	-0.017	-0.024
-367.742	-122.099	-0.132	-0.022
-366.727	108.363	-0.158	-0.187
-365.712	800.000	0.064	-0.267
-364.698	-50.721	0.155	-0.072
-363.683	800.000	-0.038	-0.108
-362.669	800.000	-0.029	-0.125
-361.654	-123.293	-0.310	-0.049
-360.639	-67.129	0.138	-0.054
-359.625	-89.356	-0.129	0.038
-358.610	-19.335	-0.129	-0.079
-357.596	173.749	-0.157	0.225
-356.581	341.984	-0.079	0.152
-355.566	191.165	0.080	-0.120
-354.552	246.576	-0.123	0.205
-353.537	-6.715	0.166	0.112
-352.523	724.673	0.139	-0.366
-351.508	800.000	0.089	-0.366
-350.493	-200.000	0.005	0.226
-349.479	106.269	0.120	0.140
-348.464	-200.000	0.015	0.107
-347.450	31.672	0.240	0.204
-346.435	800.000	-0.048	0.157
-345.420	-200.000	0.038	0.215
-344.406	-200.000	-0.015	0.254
-343.391	800.000	-0.028	0.117
-342.377	155.071	-0.089	0.121
-341.362	-125.157	-0.280	-0.042
-340.348	-200.000	0.040	0.226
-339.333	-111.179	0.075	-0.015
-338.318	43.417	-0.148	-0.134
-337.304	-200.000	-0.026	0.500
-336.289	-44.954	-0.417	-0.205
-335.275	-194.754	-0.135	-0.001
-334.260	-70.177	0.130	-0.049
-333.245	-24.041	0.242	-0.143
-332.231	-69.682	0.220	-0.083
-331.216	-75.751	-0.228	0.080
-330.202	-200.000	-0.004	0.132
-329.187	-69.860	0.156	0.059
-328.172	164.186	-0.212	0.295
-327.158	-132.520	-0.194	0.025
-326.143	7.432	-0.230	0.170
-325.129	800.000	-0.091	-0.261
-324.114	-73.846	-0.253	-0.091
-323.099	800.000	-0.039	0.155
-322.085	-70.319	-0.195	-0.073
-321.070	-200.000	0.045	-0.266
-320.056	-107.893	0.274	0.059
-319.041	310.963	0.100	-0.184
-318.026	178.437	0.177	-0.255
-317.012	266.591	-0.191	-0.329
-315.997	-200.000	-0.061	0.299
-314.983	-96.172	-0.325	0.085
-313.968	94.654	0.102	0.114
-312.953	-200.000	0.073	0.350
-311.939	592.336	0.068	-0.167
-310.924	768.793	-0.087	0.234
-309.910	-145.068	-0.281	0.025
-308.895	231.668	0.134	-0.216
-307.880	79.253	0.029	0.031
-306.866	-89.904	-0.182	-0.052
-305.851	297.033	-0.164	-0.298
-304.837	-200.000	0.009	0.258
-303.822	-37.838	-0.104	-0.055
-302.807	80.179	0.110	-0.117
-301.793	-117.619	-0.038	-0.007
-300.778	114.054	-0.084	0.101
-299.764	-150.987	-0.293	0.022
-298.749	58.516	0.052	0.051
-297.735	-200.000	0.049	-0.000
-296.720	65.475	0.169	0.169
-295.705	800.000	0.054	0.170
-294.691	-92.346	0.336	0.093
-293.676	-200.000	0.001	-0.343
-292.662	301.443	0.027	-0.049
-291.647	209.885	0.272	0.421
-290.632	274.922	-0.066	0.115
-289.618	102.842	-0.126	-0.146
-288.603	102.681	-0.060	-0.070
-287.589	-200.000	-0.007	0.365
-286.574	274.603	0.104	0.182
-285.559	546.434	-0.173	-0.409
-284.545	-106.158	0.199	0.044
-283.530	800.000	-0.063	0.187
-282.516	29.759	-0.199	0.168
-281.501	370.354	0.120	-0.240
-280.486	70.502	0.103	0.105
-279.472	193.171	0.101	0.151
-278.457	-80.073	-0.333	0.110
-277.443	-200.000	0.038	0.178
-276.428	-35.007	0.197	-0.106
-275.413	-200.000	-0.044	-0.380
-274.399	-198.701	0.135	-0.001
-273.384	-24.043	0.259	0.153
-272.370	-156.350	-0.185	0.011
-271.355	-175.268	-0.290	0.008
-270.340	-54.849	0.194	0.086
-269.326	-200.000	-0.023	-0.464
-268.311	-120.516	0.320	0.054
-267.297	-39.430	-0.159	-0.082
-266.282	800.000	-0.052	-0.153
-265.267	-200.000	0.037	-0.342
-264.253	-159.472	0.113	-0.006
-263.238	104.082	-0.229	-0.265
-262.224	-93.013	0.033	-0.009
-261.209	-200.000	0.032	0.282
-260.195	531.965	0.034	0.080
-259.180	-34.736	-0.037	-0.020
-258.165	800.000	-0.053	-0.174
-257.151	35.898	0.164	-0.142
-256.136	-200.000	0.019	0.172
-255.122	-141.036	-0.339	-0.034
-254.107	800.000	0.088	0.305
-253.092	7.798	0.037	-0.028
-252.078	800.000	-0.071	0.203
-251.063	-137.165	0.293	-0.033
-250.049	-13.787	0.135	-0.086
-249.034	-143.749	0.240	0.022
-248.019	800.000	0.021	0.070
-247.005	154.170	0.026	-0.035
-245.990	588.624	0.071	0.173
-244.976	-70.099	0.261	-0.098
-243.961	100.854	0.190	0.217
-242.946	234.404	-0.162	-0.262
-241.932	-0.135	-0.136	0.096
-240.917	-99.132	-0.286	0.071
-239.903	-200.000	0.037	0.406
-238.888	-200.000	-0.021	0.124
-237.873	-39.192	-0.140	-0.072
-236.859	128.493	0.107	-0.134
-235.844	-36.035	-0.303	0.161
-234.830	368.232	0.082	0.162
-233.815	128.513	0.120	-0.150
-232.800	305.206	0.105	0.193
-231.786	-131.615	-0.354	-0.046
-230.771	-108.278	0.316	-0.067
-229.757	-121.821	0.230	-0.037
-228.742	800.000	-0.014	0.039
-227.727	79.074	0.253	-0.267
-226.713	800.000	-0.108	0.333
-225.698	107.043	-0.060	-0.071
-224.684	-47.720	-0.339	-0.162
-223.669	800.000	0.103	-0.338
-222.655	-200.000	0.009	-0.286
-221.640	-200.000	0.005	-0.163
-220.625	-200.000	-0.018	0.107
-219.611	800.000	0.050	-0.175
-218.596	-200.000	-0.021	-0.301
-217.582	-184.743	0.254	-0.004
-216.567	-87.464	-0.631	-0.188
-215.552	-117.840	0.439	-0.078
-214.538	-101.668	0.107	-0.025
-213.523	-99.848	-0.190	0.047
-212.509	-111.185	-0.333	0.067
-211.494	-200.000	0.030	-0.213
-210.479	800.000	0.082	0.348
-209.465	197.661	-0.115	0.172
-208.450	-115.667	0.063	0.012
-207.436	800.000	-0.075	0.317
-206.421	-62.224	0.079	-0.032
-205.406	4.142	-0.288	-0.207
-204.392	-60.240	-0.055	0.023
-203.377	-200.000	0.027	-0.318
-202.363	208.732	-0.100	0.154
-201.348	-151.085	0.012	0.001
-200.333	270.533	0.093	-0.161
-199.319	527.454	-0.024	-0.055
-198.304	24.707	-0.164	0.133
-197.290	-93.811	0.239	-0.065
-196.275	-175.904	0.312	0.008
-195.260	27.257	0.046	-0.038
-194.246	-200.000	0.000	-0.081
-193.231	218.961	0.223	-0.350
-192.217	-91.218	-0.216	0.061
-191.202	27.555	-0.104	-0.086
-190.187	56.288	0.178	-0.170
-189.173	-198.283	0.208	0.001
-188.158	-105.283	0.204	-0.046
-187.144	-200.000	-0.003	0.293
-186.129	56.357	-0.174	-0.166
-185.114	43.701	-0.117	-0.105
-184.100	-97.081	0.128	-0.033
-183.085	-48.465	0.143	-0.068
-182.071	129.066	-0.057	0.072
-181.056	667.079	0.126	-0.319
-180.042	130.315	-0.114	-0.143
-179.027	-84.495	-0.098	-0.031
-178.012	-55.304	-0.254	-0.112
-176.998	-39.777	-0.291	-0.149
-175.983	-34.956	-0.210	-0.113
-174.969	-200.000	-0.043	0.398
-173.954	-200.000	0.022	0.153
-172.939	-200.000	0.019	-0.246
-171.925	-4.870	-0.222	-0.151
-170.910	-200.000	-0.014	0.086
-169.896	362.951	0.068	-0.135
-168.881	607.821	0.131	-0.322
-167.866	-13.334	0.125	0.079
-166.852	370.078	-0.087	-0.173
-165.837	-20.099	-0.032	0.019
-164.823	-39.231	-0.262	-0.135
-163.808	84.507	0.197	-0.212
-162.793	-20.409	-0.072	0.043
-161.779	-46.177	0.250	-0.121
-160.764	109.293	-0.125	0.147
-159.750	-112.001	0.414	-0.082
-158.735	-200.000	-0.039	-0.218
-157.720	-91.742	-0.121	-0.034
-156.706	-200.000	0.062	0.285
-155.691	21.204	0.068	-0.054
-154.677	-43.930	-0.106	0.052
-153.662	-94.872	-0.280	0.074
-152.647	-65.928	-0.169	-0.066
-151.633	-167.635	-0.309	0.012
-150.618	-53.697	0.470	-0.211
-149.604	-25.933	-0.297	0.172
-148.589	-7.072	0.099	0.066
-147.574	-77.325	0.238	0.081
-146.560	292.166	0.114	0.205
-145.545	55.584	-0.180	0.171
-144.531	-141.869	0.354	0.035
-143.516	-52.526	-0.445	0.202
-142.502	-69.511	0.192	0.072
-141.487	235.944	-0.108	0.175
-140.472	800.000	0.051	-0.142
-139.458	529.981	-0.090	0.208
-138.443	-4.388	0.177	0.120
-137.429	400.124	0.179	0.368
-136.414	800.000	0.016	0.047
-135.399	-200.000	-0.016	0.192
-134.385	-75.489	0.457	0.159
-133.370	-14.548	0.194	-0.123
-132.356	-9.212	-0.168	0.110
-131.341	-77.515	0.369	-0.125
-130.326	-159.823	-0.245	0.013
-129.312	800.000	-0.128	-0.362
-128.297	800.000	-0.097	-0.292
-127.283	-115.925	0.120	-0.022
-126.268	800.000	-0.016	-0.067
-125.253	-111.888	-0.458	-0.091
-124.239	-29.841	-0.296	-0.165
-123.224	711.764	-0.159	0.413
-122.210	123.686	-0.207	0.255
-121.195	137.959	0.058	-0.075
-120.180	250.223	-0.203	-0.338
-119.166	800.000	0.056	0.190
-118.151	183.922	-0.283	0.411
-117.137	49.565	-0.294	-0.271
-116.122	-2.138	-0.052	0.036
-115.107	231.678	-0.179	0.288
-114.093	-48.275	-0.217	-0.103
-113.078	-200.000	-0.040	0.385
-112.064	-200.000	0.043	-0.228
-111.049	-58.145	0.049	-0.021
-110.034	-187.070	0.352	0.005
-109.020	-200.000	-0.103	0.000
-108.005	-89.472	0.072	-0.021
-106.991	-200.000	0.006	-0.550
-105.976	-98.455	0.210	-0.053
-104.962	-100.637	0.189	-0.046
-103.947	235.837	-0.104	-0.168
-102.932	197.264	0.142	0.212
-101.918	-95.069	0.272	0.072
-100.903	756.420	0.119	-0.316
-99.889	-38.481	0.161	-0.083
-98.874	11.104	-0.049	0.037
-97.859	-163.628	-0.144	0.007
-96.845	260.987	-0.120	-0.203
-95.830	121.852	-0.062	-0.076
-94.816	156.639	0.099	0.135
-93.801	490.278	-0.073	0.164
-92.786	-200.000	-0.066	0.301
-91.772	800.000	0.078	-0.321
-90.757	800.000	-0.044	-0.142
-89.743	44.289	0.324	-0.291
-88.728	-3.446	0.184	0.125
-87.713	800.000	0.040	0.135
-86.699	177.947	-0.057	-0.081
-85.684	-74.828	-0.244	-0.086
-84.670	-29.643	-0.119	0.067
-83.655	-47.716	0.446	-0.212
-82.640	-171.611	0.335	0.011
-81.626	-141.507	0.387	-0.038
-80.611	53.367	-0.149	0.140
-79.597	44.947	0.096	-0.087
-78.582	800.000	-0.025	-0.078
-77.567	79.904	0.129	0.136
-76.553	-111.938	0.101	-0.020
-75.538	30.387	-0.225	0.188
-74.524	476.577	-0.067	-0.149
-73.509	-17.706	-0.305	-0.187
-72.494	296.915	-0.112	0.201
-71.480	105.421	0.180	-0.208
-70.465	-200.000	0.012	-0.162
-69.451	157.355	0.226	-0.306
-68.436	7.581	0.148	-0.108
-67.422	-83.817	0.037	-0.011
-66.407	176.164	-0.120	0.171
-65.392	-200.000	-0.017	0.169
-64.378	-113.155	-0.183	0.035
-63.363	-200.000	-0.063	0.300
-62.349	461.866	-0.103	0.225
-61.334	83.983	-1.056	-1.128
-60.319	-34.574	0.683	0.366
-59.305	800.000	-0.480	-1.444
-58.290	800.000	0.465	1.388
-57.276	800.000	0.562	1.523
-56.261	-200.000	116.320	658.581
-55.246	528.514	1533.067	3537.284
-54.232	174.557	2716.610	3842.269
-53.217	101.733	2302.354	2625.477
-52.203	36.204	1906.491	1642.417
-51.188	29.928	1696.065	1413.350
-50.173	27.487	1654.214	1360.216
-49.159	49.510	1710.621	1574.268
-48.144	47.676	1724.684	1573.259
-47.130	29.508	1681.731	1398.000
-46.115	26.875	1667.399	1366.235
-45.100	26.698	1662.801	1361.082
-44.086	26.663	1660.057	1358.515
-43.071	26.671	1657.388	1356.341
-42.057	26.710	1655.277	1354.851
-41.042	26.633	1652.922	1352.297
-40.027	26.665	1651.266	1351.122
-39.013	26.793	1648.484	1349.746
-37.998	26.592	1648.087	1347.872
-36.984	26.646	1646.711	1347.094
-35.969	26.731	1644.625	1345.969
-34.954	26.798	1642.887	1344.985
-33.940	26.785	1641.499	1343.698
-32.925	26.784	1639.740	1342.200
-31.911	26.710	1637.842	1340.045
-30.896	26.785	1636.154	1339.167
-29.881	26.715	1634.693	1337.398
-28.867	26.850	1632.798	1336.793
-27.852	26.838	1631.489	1335.582
-26.838	26.831	1630.058	1334.306
-25.823	26.870	1628.673	1333.406
-24.809	26.855	1627.157	1332.003
-23.794	26.853	1626.278	1331.213
-22.779	26.869	1624.213	1329.585
-21.765	26.907	1622.855	1328.702
-20.750	26.732	1621.854	1326.547
-19.736	26.869	1619.716	1325.749
-18.721	26.835	1618.335	1324.313
-17.706	26.801	1616.995	1322.923
-16.692	26.876	1615.412	1322.122
-15.677	26.854	1614.171	1320.888
-14.663	26.949	1612.678	1320.304
-13.648	26.942	1610.989	1318.825
-12.633	26.791	1610.112	1316.954
-11.619	26.774	1608.775	1315.688
-10.604	26.844	1606.908	1314.613
-9.590	26.869	1605.439	1313.538
-8.575	26.905	1603.936	1312.522
-7.560	26.876	1602.622	1311.185
-6.546	26.799	1601.852	1309.942
-5.531	26.929	1600.448	1309.681
-4.517	26.889	1599.268	1308.378
-3.502	26.866	1598.298	1307.363
-2.487	26.858	1597.113	1306.282
-1.473	26.644	1584.808	1294.643
-0.458	23.864	1566.077	1259.624
0.556	21.426	1567.607	1229.345
1.571	19.259	1591.806	1232.729
2.586	18.846	1603.986	1239.073
3.600	16.733	1548.543	1181.416
4.615	9.756	1441.423	1054.136
5.629	4.220	1382.457	976.144
6.644	3.411	1375.145	965.830
7.659	3.267	1374.129	964.132
8.673	3.392	1373.045	964.066
9.688	3.380	1371.045	962.499
10.702	3.272	1368.397	959.884
11.717	5.875	1372.839	979.175
12.731	13.099	1385.638	1033.580
13.746	18.998	1395.799	1078.152
14.761	20.350	1396.821	1087.320
15.775	19.644	1394.689	1081.147
16.790	18.687	1392.349	1073.258
17.804	17.888	1389.686	1066.122
18.819	17.502	1388.760	1062.911
19.834	17.303	1387.752	1060.801
20.848	17.181	1386.430	1058.940
21.863	17.001	1384.651	1056.363
22.877	16.883	1383.886	1054.950
23.892	16.788	1382.809	1053.445
24.907	16.773	1382.453	1052.988
25.921	16.789	1381.379	1052.178
26.936	16.829	1380.292	1051.508
27.950	16.880	1379.172	1050.878
28.965	16.966	1378.536	1050.830
29.980	16.988	1377.372	1049.985
30.994	17.172	1376.007	1049.988
32.009	17.180	1375.326	1049.426
33.023	17.161	1374.330	1048.457
34.038	17.153	1372.583	1046.985
35.053	17.001	1371.261	1044.942
36.067	16.991	1370.209	1043.990
37.082	17.102	1369.186	1043.800
38.096	17.168	1368.297	1043.435
39.111	17.099	1367.644	1042.424
40.126	16.948	1366.724	1040.699
41.140	16.706	1365.898	1038.498
42.155	16.589	1365.330	1037.255
43.169	16.608	1365.424	1037.348
44.184	16.622	1364.434	1036.591
45.199	16.712	1364.212	1036.886
46.213	16.797	1363.665	1036.898
47.228	16.873	1363.036	1036.791
48.242	16.960	1362.047	1036.477
49.257	16.898	1359.941	1034.407
50.271	17.035	1358.290	1033.895
51.286	16.837	1357.504	1031.996
52.301	16.914	1355.907	1031.160
53.315	16.829	1354.849	1029.748
54.330	16.652	1354.466	1028.289
55.344	16.678	1352.801	1027.093
56.359	16.718	1351.909	1026.567
57.374	16.735	1350.749	1025.698
58.388	16.605	1350.515	1024.647
59.403	16.640	1349.767	1024.200
60.417	16.697	1348.476	1023.475
61.432	16.665	1347.739	1022.628
62.447	16.554	1346.693	1021.076
63.461	16.483	1345.670	1019.783
64.476	16.430	1344.653	1018.598
65.490	16.407	1343.704	1017.653
66.505	16.490	1342.074	1016.826
67.520	16.502	1341.344	1016.256
68.534	16.554	1339.363	1014.976
69.549	16.468	1338.736	1013.895
70.563	16.433	1337.829	1012.909
71.578	16.352	1336.277	1011.163
72.593	16.333	1335.647	1010.484
73.607	16.350	1334.492	1009.620
74.622	16.431	1333.831	1009.515
75.636	16.337	1333.593	1008.683
76.651	16.438	1332.680	1008.506
77.666	16.345	1332.413	1007.659
78.680	16.386	1331.788	1007.344
79.695	16.508	1330.966	1007.356
80.709	16.593	1330.687	1007.568
81.724	16.621	1329.723	1006.910
82.739	16.694	1328.455	1006.296
83.753	16.783	1327.490	1006.003
84.768	16.960	1326.792	1006.437
85.782	17.086	1325.875	1006.401
86.797	16.969	1324.526	1004.595
87.812	16.958	1323.080	1003.346
88.826	16.879	1322.107	1002.051
89.841	16.928	1321.039	1001.441
90.855	17.036	1319.917	1001.140
91.870	17.062	1319.032	1000.533
92.884	17.032	1318.836	1000.118
93.899	17.073	1317.601	999.338
94.914	17.245	1316.931	999.749
95.928	17.128	1316.000	998.266
96.943	17.095	1314.917	997.161
97.957	16.903	1314.653	995.750
98.972	16.993	1313.177	995.068
99.987	16.954	1312.078	993.919
101.001	17.079	1311.020	993.760
102.016	17.076	1309.764	992.703
103.030	17.074	1308.876	991.933
104.045	16.923	1308.761	990.875
105.060	16.906	1306.818	989.216
106.074	16.674	1305.465	986.751
107.089	16.557	1303.691	984.644
108.103	16.617	1302.737	984.183
109.118	16.477	1301.922	982.666
110.133	16.506	1300.553	981.716
111.147	16.559	1298.805	980.617
112.162	16.665	1297.520	980.177
113.176	16.576	1296.890	979.095
114.191	16.778	1295.328	978.998
115.206	16.711	1294.360	977.791
116.220	16.604	1293.214	976.223
117.235	16.604	1292.098	975.294
118.249	16.601	1291.169	974.489
119.264	16.576	1289.998	973.376
120.279	16.574	1288.604	972.225
121.293	16.579	1287.274	971.166
122.308	16.421	1286.748	969.776
123.322	16.416	1285.456	968.687
124.337	16.476	1284.143	967.959
125.352	16.426	1283.532	967.123
126.366	16.413	1282.379	966.097
127.381	16.451	1281.130	965.289
128.395	16.510	1279.942	964.642
129.410	16.467	1279.229	963.778
130.424	16.512	1278.478	963.383
131.439	16.591	1277.389	962.927
132.454	16.625	1276.477	962.348
133.468	16.653	1275.524	961.700
134.483	16.706	1274.881	961.430
135.497	16.721	1273.472	960.370
136.512	16.686	1272.342	959.235
137.527	16.590	1271.381	957.881
138.541	16.642	1269.848	956.936
139.556	16.782	1268.425	956.570
140.570	16.821	1267.876	956.290
141.585	16.934	1266.710	955.963
142.600	16.950	1265.539	955.086
143.614	16.988	1264.674	954.560
144.629	17.004	1263.598	953.755
145.643	17.032	1262.325	952.867
146.658	16.852	1260.960	950.746
147.673	16.811	1259.934	949.657
148.687	16.752	1258.681	948.299
149.702	16.716	1257.705	947.274
150.716	16.688	1256.266	945.953
151.731	16.756	1254.639	945.020
152.746	16.725	1253.745	944.092
153.760	16.823	1252.797	943.840
154.775	16.941	1251.601	943.510
155.789	16.900	1250.695	942.520
156.804	17.002	1249.076	941.781
157.819	17.005	1248.466	941.253
158.833	17.100	1247.563	941.018
159.848	17.151	1246.946	940.753
160.862	17.143	1245.573	939.586
161.877	17.056	1244.498	938.213
162.892	16.790	1243.513	935.919
163.906	16.799	1242.537	935.150
164.921	16.829	1241.523	934.471
165.935	17.089	1239.732	934.472
166.950	16.905	1239.788	933.417
167.964	16.939	1239.242	933.112
168.979	16.835	1238.543	931.932
169.994	16.984	1237.252	931.695
171.008	16.996	1236.674	931.242
172.023	17.087	1236.378	931.434
173.037	17.258	1235.020	931.266
174.052	17.151	1233.943	929.787
175.067	17.156	1232.654	928.762
176.081	16.873	1232.189	926.784
177.096	16.997	1230.857	926.378
178.110	16.924	1230.154	925.369
179.125	16.923	1228.737	924.214
180.140	17.025	1227.629	923.851
181.154	17.044	1226.789	923.243
182.169	17.045	1225.750	922.385
183.183	17.279	1224.603	922.711
184.198	17.231	1223.156	921.278
185.213	17.211	1222.189	920.359
186.227	17.211	1221.394	919.681
187.242	17.384	1220.160	919.606
188.256	17.460	1219.013	919.070
189.271	17.381	1218.239	917.979
190.286	17.301	1216.655	916.270
191.300	16.845	1216.414	913.550
192.315	16.905	1214.780	912.567
193.329	16.777	1215.089	912.030
194.344	16.791	1214.425	911.523
195.359	17.121	1213.855	912.790
196.373	17.184	1213.772	912.985
197.388	17.181	1212.933	912.259
198.402	17.377	1212.631	913.006
199.417	17.468	1212.297	913.161
200.432	17.554	1211.272	912.767
201.446	17.667	1210.744	912.896
202.461	17.676	1209.850	912.188
203.475	17.762	1208.118	911.258
204.490	17.503	1207.303	909.179
205.504	17.437	1206.090	907.835
206.519	17.341	1204.991	906.416
207.534	17.328	1203.538	905.173
208.548	17.465	1202.510	905.048
209.563	17.341	1202.188	904.065
210.577	17.359	1201.306	903.420
211.592	17.447	1200.309	903.057
212.607	17.469	1199.956	902.830
213.621	17.602	1198.417	902.293
214.636	17.591	1197.687	901.606
215.650	17.634	1196.522	900.879
216.665	17.684	1195.627	900.388
217.680	17.753	1195.357	900.472
218.694	17.762	1194.350	899.681
219.709	17.790	1193.526	899.127
220.723	17.803	1192.533	898.366
221.738	17.715	1192.094	897.493
222.753	17.646	1191.504	896.607
223.767	17.735	1190.411	896.172
224.782	17.893	1189.815	896.473
225.796	17.834	1190.089	896.290
226.811	17.852	1188.337	894.986
227.826	17.901	1187.245	894.344
228.840	17.806	1186.704	893.358
229.855	17.797	1185.591	892.397
230.869	17.763	1185.267	891.896
231.884	17.672	1184.260	890.582
232.899	17.611	1183.738	889.792
233.913	17.614	1182.924	889.120
234.928	17.634	1181.939	888.405
235.942	17.519	1181.380	887.305
236.957	17.623	1180.503	887.109
237.972	17.629	1179.514	886.318
238.986	17.592	1179.279	885.871
240.001	17.556	1178.628	885.118
241.015	17.666	1177.345	884.646
242.030	17.712	1176.792	884.388
243.045	17.708	1175.949	883.656
244.059	17.794	1175.112	883.394
245.074	17.882	1174.317	883.174
246.088	17.898	1173.759	882.761
247.103	17.865	1173.282	882.151
248.117	18.051	1172.358	882.338
249.132	18.200	1171.637	882.492
250.147	18.330	1170.689	882.365
251.161	18.386	1170.176	882.188
252.176	18.244	1170.006	881.253
253.190	18.326	1169.580	881.279
254.205	18.540	1168.300	881.332
255.220	18.566	1167.847	881.049
256.234	18.494	1167.355	880.229
257.249	18.486	1166.607	879.546
258.263	18.508	1165.832	878.997
259.278	18.494	1164.965	878.192
260.293	18.519	1164.828	878.139
261.307	18.552	1164.168	877.736
262.322	18.673	1163.085	877.458
263.336	18.518	1163.086	876.589
264.351	18.614	1162.449	876.522
265.366	18.641	1162.028	876.265
266.380	18.697	1160.217	875.105
267.395	18.640	1159.749	874.388
268.409	18.509	1159.014	873.089
269.424	18.515	1158.697	872.804
270.439	18.518	1158.331	872.466
271.453	18.550	1157.273	871.755
272.468	18.483	1155.648	870.110
273.482	18.489	1155.001	869.578
274.497	18.425	1154.809	869.034
275.512	18.367	1154.456	868.393
276.526	18.455	1152.931	867.619
277.541	18.526	1152.732	867.752
278.555	18.531	1152.248	867.333
279.570	18.643	1151.363	867.158
280.585	18.763	1150.290	866.880
281.599	18.731	1149.497	866.042
282.614	18.598	1148.476	864.526
283.628	18.618	1147.583	863.878
284.643	18.632	1146.598	863.132
285.657	18.624	1145.686	862.327
286.672	18.632	1144.452	861.362
287.687	18.683	1143.762	861.023
288.701	18.702	1143.094	860.539
289.716	18.673	1142.316	859.732
290.730	18.686	1141.806	859.338
291.745	18.751	1140.902	858.907
292.760	18.853	1140.245	858.845
293.774	18.823	1139.934	858.383
294.789	18.891	1139.718	858.484
295.803	18.852	1139.024	857.690
296.818	18.754	1137.935	856.309
297.833	18.730	1136.978	855.393
298.847	18.691	1136.543	854.798
299.862	18.806	1135.334	854.383
300.876	18.872	1134.701	854.159
301.891	18.968	1134.078	854.091
302.906	19.044	1133.533	853.982
303.920	18.943	1132.968	852.981
304.935	19.082	1132.299	853.091
305.949	19.252	1131.607	853.336
306.964	19.134	1131.250	852.408
307.979	19.142	1130.052	851.466
308.993	19.087	1129.246	850.511
310.008	19.228	1128.352	850.460
311.022	19.228	1127.759	849.938
312.037	19.182	1127.015	849.075
313.052	18.970	1126.118	847.282
314.066	18.986	1125.009	846.447
315.081	18.927	1123.792	845.168
316.095	18.908	1122.968	844.384
317.110	18.931	1122.258	843.887
318.125	19.009	1121.639	843.730
319.139	18.893	1121.307	842.836
320.154	18.927	1120.902	842.623
321.168	18.882	1120.445	841.982
322.183	18.863	1119.518	841.119
323.197	19.019	1118.906	841.351
324.212	19.119	1118.466	841.435
325.227	19.048	1117.485	840.274
326.241	19.065	1116.957	839.886
327.256	18.963	1116.002	838.597
328.270	19.003	1115.175	838.093
329.285	19.038	1113.674	837.060
330.300	19.037	1113.042	836.510
331.314	19.044	1112.003	835.688
332.329	19.038	1111.203	834.984
333.343	19.106	1110.518	834.724
334.358	19.202	1109.776	834.558
335.373	19.250	1108.804	833.987
336.387	19.319	1108.283	833.855
337.402	19.283	1107.521	833.032
338.416	19.287	1107.026	832.607
339.431	19.371	1106.247	832.352
340.446	19.495	1106.011	832.699
341.460	19.557	1104.982	832.149
342.475	19.500	1104.592	831.506
343.489	19.582	1103.408	830.939
344.504	19.616	1102.419	830.285
345.519	19.756	1102.213	830.729
346.533	19.714	1101.311	829.772
347.548	19.660	1100.335	828.704
348.562	19.841	1099.636	828.969
349.577	19.730	1098.592	827.581
350.592	19.479	1097.712	825.644
351.606	19.442	1096.652	824.595
352.621	19.483	1096.027	824.248
353.635	19.409	1095.722	823.592
354.650	19.477	1094.920	823.243
355.665	19.460	1094.046	822.431
356.679	19.640	1093.444	822.764
357.694	19.575	1093.025	822.066
358.708	19.539	1092.651	821.542
359.723	19.606	1092.002	821.296
360.738	19.631	1090.894	820.510
361.752	19.663	1090.811	820.526
362.767	19.648	1089.925	819.717
363.781	19.659	1089.708	819.535
364.796	19.699	1089.260	819.315
365.810	19.890	1088.055	819.239
366.825	19.906	1088.007	819.208
367.840	20.163	1087.484	819.955
368.854	20.143	1086.906	819.353
369.869	20.122	1085.931	818.445
370.883	20.099	1085.037	817.590
371.898	19.808	1084.486	815.731
372.913	19.981	1083.726	815.901
373.927	20.044	1083.289	815.797
374.942	20.044	1082.487	815.121
375.956	20.001	1082.267	814.683
376.971	20.031	1081.827	814.422
377.986	20.117	1081.137	814.234
379.000	20.194	1081.152	814.533
380.015	20.265	1080.109	814.007
381.029	20.333	1079.115	813.508
382.044	20.351	1078.625	813.149
383.059	20.280	1077.579	811.955
384.073	20.285	1076.840	811.350
385.088	20.294	1075.903	810.617
386.102	20.243	1075.012	809.634
387.117	20.163	1074.350	808.692
388.132	20.056	1073.421	807.419
389.146	20.079	1072.398	806.685
390.161	20.070	1071.732	806.075
391.175	20.152	1070.880	805.743
392.190	20.176	1070.231	805.292
393.205	20.242	1069.962	805.325
394.219	20.342	1068.720	804.785
395.234	20.209	1067.571	803.234
396.248	20.170	1066.684	802.312
397.263	20.132	1065.814	801.414
398.278	20.144	1065.014	800.794
399.292	20.034	1064.618	799.921
400.307	19.991	1063.531	798.833
401.321	20.016	1063.071	798.533
402.336	20.077	1062.291	798.156
403.350	20.093	1061.739	797.746
404.365	20.121	1061.011	797.256
405.380	20.233	1060.298	797.165
406.394	20.204	1059.887	796.653
407.409	20.347	1058.794	796.416
408.423	20.458	1058.449	796.596
409.438	20.487	1057.738	796.125
410.453	20.518	1057.549	796.049
411.467	20.574	1056.427	795.391
412.482	20.675	1055.405	795.013
413.496	20.715	1054.651	794.559
414.511	20.715	1054.284	794.211
415.526	20.665	1054.048	793.737
416.540	20.744	1053.556	793.655
417.555	20.699	1052.845	792.842
418.569	20.732	1052.298	792.512
419.584	20.739	1051.873	792.152
420.599	20.795	1051.292	791.902
421.613	155.223	1403.823	1795.937
422.628	142.392	1455.145	1796.027
