DTS Sentinel unit serial number:	SN413079Multiplexer serial number:	ORYXHardware model number:	OX4-SRSoftware version number:	ORYX F/W v4.00 Oryx Data Collector v3.7.2.0data status	okinstallation	princeton_trtdifferential loss correction	single-endedforward channel	channel 2reverse channel	N/Adate	2019/09/12time	01:21:11forward acquisition time	60.00reverse acquisition time	0.00gamma	496.2192k internal	0.2326k external	0.2326temperature offset calibration	1.0086default loss term (dB/km)	0.3790temperature slope calibration	1.0000multiplexer offset coefficient	1.0000multiplexer slope coefficient	1.0000fibre end	0.00T internal ref (°C)	33.00T ext. ref 1 (°C)	2.07T ext. ref 2 (°C)	27.90length (m)	temperature (°C)	Stokes	anti-Stokes-747.200	800.000	0.046	0.186
-746.185	-200.000	0.008	0.192
-745.171	-73.900	0.091	-0.033
-744.156	-28.217	0.162	0.094
-743.142	800.000	0.026	0.095
-742.127	-80.814	-0.445	0.149
-741.112	113.937	-0.084	0.103
-740.098	335.393	-0.245	0.479
-739.083	-120.616	-0.104	-0.018
-738.069	783.636	0.074	0.206
-737.054	86.800	-0.114	-0.127
-736.039	-94.038	-0.187	-0.052
-735.025	150.183	0.096	0.132
-734.010	-107.115	0.063	-0.014
-732.996	-200.000	0.001	-0.085
-731.981	-58.743	0.095	0.041
-730.966	-30.877	0.121	0.069
-729.952	-67.469	-0.202	0.080
-728.937	-69.324	-0.452	0.175
-727.923	-111.130	-0.173	0.036
-726.908	481.894	0.048	0.110
-725.894	32.933	-0.389	0.339
-724.879	-9.546	0.249	-0.168
-723.864	-23.286	-0.252	0.153
-722.850	-50.201	0.133	-0.063
-721.835	800.000	-0.059	0.176
-720.821	-2.820	0.073	0.051
-719.806	-152.063	-0.305	-0.022
-718.791	-90.729	0.195	0.057
-717.777	273.368	0.159	0.284
-716.762	800.000	-0.042	0.131
-715.748	-27.969	-0.196	-0.114
-714.733	161.451	-0.157	-0.222
-713.718	39.103	0.196	0.177
-712.704	50.165	-0.171	-0.163
-711.689	133.398	0.182	-0.237
-710.675	371.217	0.186	-0.380
-709.660	65.054	-0.245	0.249
-708.645	68.594	-0.075	-0.077
-707.631	169.495	-0.061	0.088
-706.616	-68.488	-0.140	-0.055
-705.602	-200.000	-0.018	0.122
-704.587	-60.398	0.104	-0.044
-703.572	124.640	-0.135	0.171
-702.558	335.320	-0.092	0.179
-701.543	-65.173	-0.250	0.101
-700.529	-3.490	-0.238	0.167
-699.514	16.547	0.179	-0.142
-698.499	37.493	-0.190	-0.170
-697.485	-24.817	0.026	-0.015
-696.470	281.027	0.161	-0.291
-695.456	33.746	-0.205	-0.179
-694.441	800.000	-0.039	0.157
-693.426	-173.970	-0.192	0.006
-692.412	-6.862	-0.119	-0.081
-691.397	-200.000	-0.013	-0.072
-690.383	-115.595	0.215	0.041
-689.368	204.876	0.158	-0.247
-688.354	-59.581	-0.340	0.147
-687.339	-157.822	0.060	0.004
-686.324	800.000	-0.050	0.159
-685.310	119.469	-0.175	-0.218
-684.295	800.000	-0.044	-0.124
-683.281	-103.409	-0.277	0.066
-682.266	147.705	-0.134	-0.182
-681.251	-52.014	-0.507	0.237
-680.237	520.482	-0.083	-0.196
-679.222	-2.236	-0.200	0.141
-678.208	-164.966	-0.094	0.004
-677.193	-14.487	-0.121	-0.078
-676.178	-72.127	-0.211	0.079
-675.164	448.847	-0.156	0.346
-674.149	-77.267	0.255	-0.089
-673.135	-70.032	0.125	-0.048
-672.120	-49.834	0.362	0.173
-671.105	-62.574	-0.235	0.098
-670.091	-127.238	-0.339	0.050
-669.076	-101.149	-0.081	-0.020
-668.062	10.842	-0.124	0.095
-667.047	-165.223	0.352	0.016
-666.032	800.000	0.022	-0.090
-665.018	-90.466	-0.207	-0.060
-664.003	-0.166	-0.031	0.022
-662.989	-200.000	-0.022	-0.098
-661.974	-200.000	0.025	-0.120
-660.959	4.121	-0.231	-0.170
-659.945	800.000	-0.084	0.247
-658.930	-200.000	0.068	-0.334
-657.916	-141.379	-0.275	-0.028
-656.901	45.856	0.147	-0.136
-655.886	-77.504	0.256	0.089
-654.872	196.242	-0.060	0.091
-653.857	2.256	-0.217	-0.158
-652.843	-94.005	0.243	0.067
-651.828	36.220	-0.175	-0.155
-650.814	728.070	-0.028	0.075
-649.799	159.478	0.014	0.019
-648.784	89.108	0.017	-0.019
-647.770	-200.000	-0.016	0.096
-646.755	-124.116	-0.164	0.026
-645.741	-109.838	-0.184	-0.039
-644.726	-34.985	0.193	0.106
-643.711	-31.533	-0.474	-0.268
-642.697	-182.528	-0.127	-0.002
-641.682	-200.000	0.024	-0.329
-640.668	800.000	-0.053	-0.198
-639.653	-95.452	-0.393	-0.106
-638.638	-90.870	-0.120	0.035
-637.624	9.798	0.149	0.114
-636.609	-200.000	0.002	-0.011
-635.595	800.000	-0.105	-0.327
-634.580	-200.000	0.029	-0.167
-633.565	-80.194	-0.258	0.087
-632.551	-53.990	-0.197	0.090
-631.536	-126.070	-0.218	-0.033
-630.522	-200.000	0.073	0.342
-629.507	-200.000	-0.008	-0.394
-628.492	-200.000	0.001	-0.072
-627.478	-35.213	-0.098	0.054
-626.463	-120.134	-0.258	0.044
-625.449	25.423	0.177	0.148
-624.434	-181.874	-0.087	0.002
-623.419	73.438	-0.359	-0.378
-622.405	78.575	0.290	-0.311
-621.390	-141.398	0.170	0.017
-620.376	-76.529	0.262	0.092
-619.361	-56.923	0.087	0.038
-618.346	129.911	-0.143	-0.184
-617.332	-200.000	-0.069	-0.319
-616.317	10.357	0.179	-0.137
-615.303	-71.602	0.286	0.107
-614.288	-200.000	0.001	-0.022
-613.273	710.864	-0.063	0.168
-612.259	-200.000	-0.148	-0.000
-611.244	558.067	-0.059	-0.143
-610.230	800.000	-0.055	0.197
-609.215	-33.886	-0.064	-0.035
-608.201	8.013	0.425	-0.320
-607.186	769.473	-0.127	-0.347
-606.171	543.595	-0.104	0.249
-605.157	96.072	0.235	0.269
-604.142	-155.234	-0.485	-0.032
-603.128	456.612	0.050	-0.112
-602.113	12.021	-0.085	-0.065
-601.098	-200.000	0.004	-0.167
-600.084	-163.628	-0.510	-0.024
-599.069	-38.417	0.142	0.076
-598.055	-154.475	-0.158	0.011
-597.040	-139.662	0.130	-0.014
-596.025	391.353	-0.066	0.137
-595.011	-82.050	-0.210	0.069
-593.996	-200.000	-0.006	-0.117
-592.982	53.640	-0.009	-0.009
-591.967	-50.558	0.035	0.017
-590.952	220.429	0.064	-0.102
-589.938	-105.560	0.065	0.015
-588.923	-51.214	0.066	0.031
-587.909	63.952	-0.216	-0.217
-586.894	-45.722	-0.091	0.045
-585.879	-182.176	-0.200	0.004
-584.865	-200.000	-0.000	-0.147
-583.850	356.003	-0.138	-0.275
-582.836	14.092	-0.184	-0.144
-581.821	800.000	-0.107	-0.384
-580.806	21.712	-0.052	0.043
-579.792	-200.000	0.033	-0.192
-578.777	242.781	0.170	-0.285
-577.763	109.042	-0.087	0.105
-576.748	383.083	-0.100	0.206
-575.733	623.543	-0.099	-0.249
-574.719	-27.917	-0.179	0.104
-573.704	152.720	0.330	-0.452
-572.690	8.812	-0.141	0.107
-571.675	-200.000	0.017	0.362
-570.661	-200.000	0.008	0.245
-569.646	-57.942	-0.127	0.056
-568.631	-155.033	-0.259	-0.017
-567.617	753.041	0.086	0.232
-566.602	380.340	-0.192	0.393
-565.588	-200.000	-0.008	-0.213
-564.573	-33.351	-0.252	-0.139
-563.558	-37.006	0.085	0.046
-562.544	237.450	-0.033	-0.055
-561.529	29.224	0.240	-0.204
-560.515	484.853	-0.103	0.235
-559.500	248.429	-0.013	0.022
-558.485	-200.000	-0.001	0.013
-557.471	-169.093	0.202	-0.008
-556.456	265.619	-0.206	-0.359
-555.442	-200.000	0.095	-0.595
-554.427	394.946	0.147	-0.306
-553.412	-200.000	-0.044	0.195
-552.398	35.231	0.100	0.088
-551.383	38.417	-0.204	-0.182
-550.369	800.000	-0.071	-0.241
-549.354	-200.000	0.002	0.053
-548.339	-113.045	0.312	0.062
-547.325	109.928	0.201	-0.242
-546.310	-107.299	0.148	-0.032
-545.296	800.000	-0.092	-0.358
-544.281	-200.000	-0.008	-0.315
-543.266	-46.036	-0.261	-0.128
-542.252	-200.000	0.040	0.527
-541.237	99.740	0.298	-0.345
-540.223	-165.265	-0.122	0.005
-539.208	-61.302	0.088	-0.037
-538.193	-200.000	0.062	0.301
-537.179	-120.739	-0.334	-0.056
-536.164	176.332	-0.109	0.158
-535.150	669.145	0.070	0.180
-534.135	-67.656	-0.067	-0.026
-533.121	-82.169	-0.372	0.121
-532.106	92.869	-0.189	0.214
-531.091	3.188	0.167	-0.122
-530.077	800.000	-0.087	-0.242
-529.062	-26.471	0.187	0.110
-528.048	-47.505	-0.182	0.088
-527.033	-65.183	0.207	0.084
-526.018	-200.000	-0.016	-0.130
-525.004	800.000	0.077	0.315
-523.989	-74.747	-0.156	0.056
-522.975	-127.209	0.049	-0.007
-521.960	-186.768	0.246	0.003
-520.945	613.657	0.072	0.180
-519.931	393.674	-0.072	-0.150
-518.916	-157.229	-0.352	-0.021
-517.902	-71.226	-0.136	0.051
-516.887	375.938	0.056	-0.115
-515.872	2.553	-0.256	0.185
-514.858	-200.000	0.026	-0.115
-513.843	-200.000	0.035	-0.161
-512.829	-32.032	0.310	0.173
-511.814	-200.000	0.019	0.300
-510.799	390.172	0.176	-0.365
-509.785	210.454	-0.126	-0.197
-508.770	-99.205	-0.384	0.097
-507.756	782.202	0.023	0.062
-506.741	85.706	0.191	0.210
-505.726	-70.425	-0.259	-0.098
-504.712	-88.658	0.253	0.075
-503.697	37.855	-0.185	0.164
-502.683	800.000	0.098	-0.297
-501.668	-105.752	-0.207	0.047
-500.653	-7.035	0.212	-0.144
-499.639	177.440	-0.038	-0.055
-498.624	712.101	0.068	0.180
-497.610	-200.000	0.010	0.067
-496.595	-72.753	-0.103	-0.038
-495.581	-126.535	0.229	0.034
-494.566	-200.000	-0.010	-0.133
-493.551	-12.517	0.069	-0.045
-492.537	127.374	-0.154	0.195
-491.522	-49.968	0.271	0.128
-490.508	56.438	-0.215	0.208
-489.493	20.294	0.092	0.074
-488.478	48.086	0.133	-0.124
-487.464	-102.552	-0.075	0.018
-486.449	-15.105	0.262	-0.168
-485.435	-38.522	-0.159	0.084
-484.420	-200.000	0.001	0.336
-483.405	4.801	0.090	0.066
-482.391	-136.089	-0.198	0.023
-481.376	261.467	0.149	-0.257
-480.362	-141.042	-0.053	-0.005
-479.347	-38.023	-0.132	-0.070
-478.332	-35.150	-0.262	-0.142
-477.318	18.381	0.052	-0.042
-476.303	-73.821	0.190	-0.069
-475.289	106.300	-0.034	-0.040
-474.274	6.635	-0.223	-0.165
-473.259	-5.929	-0.167	-0.114
-472.245	242.528	-0.109	-0.182
-471.230	-44.321	0.224	0.112
-470.216	21.266	0.211	0.171
-469.201	800.000	0.032	0.122
-468.186	-139.068	-0.193	-0.021
-467.172	-60.577	-0.088	-0.037
-466.157	-173.191	-0.208	-0.006
-465.143	-104.123	0.122	-0.028
-464.128	89.348	-0.077	0.085
-463.113	-31.394	0.179	-0.100
-462.099	-39.224	0.196	-0.103
-461.084	236.016	0.169	-0.279
-460.070	708.825	-0.153	-0.403
-459.055	13.361	0.253	-0.196
-458.040	-3.344	-0.187	-0.130
-457.026	-136.815	0.144	0.017
-456.011	-111.830	0.134	-0.027
-454.997	-71.642	0.231	0.086
-453.982	316.289	0.063	0.118
-452.968	26.557	-0.242	-0.202
-451.953	-47.414	-0.128	0.062
-450.938	-101.893	0.103	-0.025
-449.924	-125.582	0.468	-0.071
-448.909	187.095	-0.127	-0.189
-447.895	-80.153	0.237	-0.079
-446.880	-10.436	-0.125	0.083
-445.865	-78.551	0.101	-0.035
-444.851	-200.000	0.033	0.480
-443.836	-128.668	0.044	-0.006
-442.822	-31.465	-0.266	-0.149
-441.807	-200.000	-0.036	0.340
-440.792	237.837	0.246	0.406
-439.778	202.824	0.090	0.139
-438.763	-200.000	-0.023	-0.202
-437.749	-13.121	-0.270	0.175
-436.734	67.051	0.056	-0.057
-435.719	83.428	-0.057	0.062
-434.705	-200.000	0.051	0.569
-433.690	162.925	-0.276	0.386
-432.676	800.000	0.073	-0.239
-431.661	39.738	-0.240	-0.214
-430.646	800.000	-0.051	0.140
-429.632	-200.000	-0.010	0.058
-428.617	-200.000	0.004	-0.047
-427.603	326.057	0.160	0.305
-426.588	30.249	0.203	-0.173
-425.573	-152.275	0.410	-0.029
-424.559	288.753	0.118	-0.214
-423.544	-119.439	-0.059	0.010
-422.530	186.374	0.174	-0.258
-421.515	-145.564	-0.253	0.023
-420.500	-169.536	0.345	0.013
-419.486	-200.000	0.031	0.495
-418.471	-200.000	0.013	0.206
-417.457	61.561	-0.201	-0.199
-416.442	168.605	-0.116	0.164
-415.428	-61.349	0.284	-0.119
-414.413	800.000	-0.114	-0.405
-413.398	-12.164	0.202	-0.131
-412.384	-80.892	0.293	-0.097
-411.369	800.000	-0.054	0.196
-410.355	-161.063	-0.520	-0.027
-409.340	77.002	0.249	0.263
-408.325	6.725	-0.274	-0.203
-407.311	756.322	-0.055	-0.148
-406.296	51.389	-0.083	0.079
-405.282	-80.690	0.183	0.061
-404.267	-118.336	0.241	0.043
-403.252	83.105	-0.227	0.246
-402.238	4.462	0.090	-0.065
-401.223	-17.342	0.245	0.153
-400.209	89.401	0.129	-0.143
-399.194	12.523	-0.197	0.151
-398.179	-41.054	0.254	0.131
-397.165	-200.000	-0.207	-0.001
-396.150	-44.264	-0.152	-0.076
-395.136	-200.000	0.003	0.076
-394.121	270.202	0.091	0.159
-393.106	-200.000	-0.001	-0.290
-392.092	-200.000	0.041	-0.377
-391.077	-30.833	0.246	0.138
-390.063	-123.862	-0.233	-0.037
-389.048	-186.698	-0.416	0.006
-388.033	237.520	-0.085	-0.141
-387.019	-107.039	-0.262	0.057
-386.004	-200.000	-0.048	0.477
-384.990	29.134	-0.075	0.064
-383.975	-198.766	-0.115	0.001
-382.960	-25.637	-0.210	-0.123
-381.946	262.300	0.088	-0.151
-380.931	538.431	0.100	0.237
-379.917	542.635	-0.061	-0.145
-378.902	-38.803	0.092	0.048
-377.888	368.317	-0.039	-0.078
-376.873	120.517	0.082	0.101
-375.858	-47.397	-0.052	0.025
-374.844	25.699	-0.053	-0.044
-373.829	-106.774	-0.249	-0.055
-372.815	25.752	0.114	0.094
-371.800	72.459	0.104	0.108
-370.785	-200.000	-0.008	0.117
-369.771	-93.636	0.255	-0.070
-368.756	800.000	0.089	-0.278
-367.742	166.045	0.252	0.355
-366.727	800.000	-0.044	-0.138
-365.712	-121.867	-0.151	0.025
-364.698	42.762	-0.191	0.173
-363.683	-96.318	-0.014	0.004
-362.669	-25.102	0.111	-0.065
-361.654	369.426	-0.190	0.382
-360.639	359.879	-0.201	0.400
-359.625	-31.062	-0.291	-0.163
-358.610	-88.175	0.094	0.028
-357.596	-200.000	-0.013	0.212
-356.581	-97.939	0.410	0.105
-355.566	-39.283	0.407	-0.212
-354.552	-81.621	-0.168	-0.055
-353.537	172.363	0.002	0.003
-352.523	-200.000	-0.016	0.269
-351.508	-7.861	0.300	0.201
-350.493	233.123	-0.056	-0.091
-349.479	55.066	0.079	0.076
-348.464	-200.000	0.032	0.189
-347.450	-200.000	0.020	-0.105
-346.435	-98.991	0.232	-0.058
-345.420	800.000	0.159	0.440
-344.406	789.008	0.078	-0.213
-343.391	-74.514	0.118	-0.042
-342.377	-140.565	0.331	-0.034
-341.362	-115.458	-0.161	-0.030
-340.348	-65.131	0.234	-0.094
-339.333	661.367	-0.045	-0.115
-338.318	51.465	-0.228	-0.215
-337.304	105.674	-0.104	0.123
-336.289	316.122	0.161	-0.302
-335.275	110.873	0.106	0.127
-334.260	-200.000	-0.016	0.141
-333.245	-127.593	0.115	-0.017
-332.231	289.651	-0.124	0.223
-331.216	-200.000	0.053	0.428
-330.202	800.000	-0.091	0.301
-329.187	-27.608	-0.225	0.130
-328.172	94.427	-0.325	-0.366
-327.158	43.192	0.302	-0.274
-326.143	800.000	0.036	0.099
-325.129	-87.522	0.110	-0.033
-324.114	265.007	0.074	0.127
-323.099	-200.000	-0.007	-0.079
-322.085	-21.120	-0.113	0.068
-321.070	-200.000	0.006	-0.144
-320.056	-200.000	-0.031	-0.143
-319.041	-21.433	-0.257	-0.155
-318.026	-200.000	-0.030	0.155
-317.012	-200.000	-0.047	-0.234
-315.997	-200.000	0.014	-0.074
-314.983	800.000	-0.037	-0.130
-313.968	-70.579	0.345	-0.129
-312.953	260.385	0.098	0.169
-311.939	-200.000	-0.027	0.198
-310.924	72.520	-0.132	0.137
-309.910	-16.366	0.238	0.150
-308.895	190.186	0.124	0.185
-307.880	93.832	0.020	0.023
-306.866	-51.442	-0.284	0.132
-305.851	-138.962	0.427	-0.046
-304.837	-7.691	-0.133	0.089
-303.822	-48.927	0.128	0.061
-302.807	100.138	0.074	0.085
-301.793	71.478	0.111	0.114
-300.778	28.756	0.143	-0.120
-299.764	-81.580	0.183	-0.059
-298.749	-22.421	0.295	0.177
-297.735	-67.382	-0.099	-0.038
-296.720	-54.975	-0.222	-0.099
-295.705	-27.214	0.243	-0.140
-294.691	-78.222	-0.171	0.058
-293.676	-25.188	0.319	0.187
-292.662	58.095	-0.115	0.112
-291.647	-159.107	0.241	-0.013
-290.632	-200.000	0.055	0.440
-289.618	-200.000	0.040	0.276
-288.603	-152.761	0.121	0.009
-287.589	800.000	0.129	-0.397
-286.574	-29.426	0.298	-0.169
-285.559	693.687	0.075	-0.195
-284.545	-153.803	0.161	-0.011
-283.530	49.982	0.253	-0.236
-282.516	-166.604	-0.314	0.013
-281.501	-78.145	0.134	-0.046
-280.486	-2.829	0.220	0.152
-279.472	-5.385	0.093	-0.063
-278.457	221.933	-0.113	0.179
-277.443	318.398	0.139	-0.261
-276.428	-200.000	-0.004	-0.085
-275.413	-35.468	0.118	-0.063
-274.399	-149.328	-0.292	0.023
-273.384	92.149	-0.254	-0.283
-272.370	-13.544	0.148	-0.095
-271.355	189.747	-0.103	-0.153
-270.340	331.101	0.153	-0.293
-269.326	-84.781	-0.156	0.049
-268.311	242.391	-0.118	-0.196
-267.297	-200.000	-0.060	-0.281
-266.282	-128.643	0.338	0.047
-265.267	-200.000	-0.100	0.450
-264.253	-65.469	0.388	-0.154
-263.238	192.037	0.048	0.071
-262.224	-127.878	0.353	-0.050
-261.209	34.078	0.261	0.225
-260.195	34.968	0.125	0.108
-259.180	-4.184	0.158	-0.108
-258.165	789.177	-0.120	0.326
-257.151	27.818	-0.167	-0.139
-256.136	-157.771	0.484	-0.028
-255.122	386.210	-0.228	0.467
-254.107	800.000	0.076	-0.266
-253.092	-200.000	0.017	0.343
-252.078	-33.574	-0.177	0.097
-251.063	-111.498	0.287	-0.058
-250.049	-119.045	-0.352	0.061
-249.034	-200.000	-0.030	0.304
-248.019	77.132	-0.199	-0.210
-247.005	-123.708	-0.034	0.005
-245.990	-200.000	0.029	0.215
-244.976	800.000	-0.032	-0.118
-243.961	-62.798	-0.066	0.027
-242.946	-52.025	-0.254	0.117
-241.932	211.472	-0.106	0.165
-240.917	-200.000	-0.044	-0.335
-239.903	-67.897	-0.186	0.072
-238.888	-132.421	-0.291	0.037
-237.873	-70.139	-0.416	-0.156
-236.859	-135.238	0.146	-0.017
-235.844	100.656	-0.203	-0.234
-234.830	-110.533	-0.075	-0.015
-233.815	374.370	0.226	0.455
-232.800	56.737	0.129	-0.124
-231.786	-106.527	0.129	0.028
-230.771	-200.000	0.026	0.277
-229.757	-200.000	-0.002	0.089
-228.742	-200.000	0.050	-0.284
-227.727	-32.382	0.275	-0.152
-226.713	-92.225	-0.293	-0.082
-225.698	72.711	0.064	0.065
-224.684	266.082	0.151	0.260
-223.669	-40.048	-0.114	-0.059
-222.655	-200.000	0.064	-0.380
-221.640	-72.434	-0.105	-0.038
-220.625	294.359	-0.053	-0.096
-219.611	-200.000	0.047	0.384
-218.596	471.457	-0.168	-0.374
-217.582	442.499	-0.064	0.139
-216.567	128.554	0.234	-0.295
-215.552	-200.000	0.058	-0.263
-214.538	-200.000	-0.029	0.164
-213.523	-200.000	0.101	0.467
-212.509	-110.811	0.424	-0.086
-211.494	-161.671	-0.118	0.006
-210.479	703.846	0.136	-0.355
-209.465	800.000	-0.021	0.070
-208.450	-18.041	-0.281	-0.174
-207.436	299.404	-0.163	-0.296
-206.421	-200.000	0.020	0.115
-205.406	-4.146	-0.079	0.054
-204.392	42.371	-0.195	0.175
-203.377	-113.143	0.141	0.027
-202.363	118.525	-0.120	0.146
-201.348	-200.000	0.078	0.411
-200.333	-178.005	-0.362	0.008
-199.319	800.000	-0.055	0.185
-198.304	321.235	-0.141	0.264
-197.290	-108.443	0.086	-0.018
-196.275	800.000	0.101	0.329
-195.260	247.162	0.110	0.183
-194.246	406.608	0.165	0.343
-193.231	6.592	-0.271	-0.199
-192.217	75.498	-0.264	-0.275
-191.202	-200.000	0.033	-0.474
-190.187	264.332	-0.127	0.217
-189.173	348.075	-0.039	-0.076
-188.158	-200.000	0.017	0.236
-187.144	-71.222	0.382	0.142
-186.129	-200.000	0.013	-0.336
-185.114	135.869	0.092	0.118
-184.100	54.271	-0.013	0.012
-183.085	2.336	0.212	-0.151
-182.071	-130.418	-0.266	0.036
-181.056	575.391	0.055	-0.133
-180.042	144.115	0.023	0.031
-179.027	-43.429	0.205	-0.102
-178.012	-159.182	-0.222	0.012
-176.998	-30.189	0.271	-0.152
-175.983	84.256	-0.070	0.075
-174.969	-200.000	0.000	0.409
-173.954	-8.449	0.286	-0.190
-172.939	-115.649	0.289	0.053
-171.925	190.683	-0.076	0.112
-170.910	800.000	-0.072	-0.268
-169.896	245.428	-0.074	0.122
-168.881	741.072	0.122	0.323
-167.866	73.196	-0.114	0.117
-166.852	13.853	-0.193	-0.148
-165.837	-92.754	-0.204	-0.056
-164.823	95.721	-0.044	0.050
-163.808	-200.000	0.060	0.307
-162.793	-29.079	0.192	0.109
-161.779	800.000	0.070	0.270
-160.764	-127.678	-0.075	0.011
-159.750	-133.052	-0.165	0.021
-158.735	419.148	0.077	0.162
-157.720	-2.656	0.033	-0.023
-156.706	800.000	0.086	-0.337
-155.691	724.656	-0.025	0.065
-154.677	256.506	-0.197	-0.333
-153.662	349.141	-0.062	0.120
-152.647	301.752	0.030	-0.055
-151.633	93.083	0.103	0.114
-150.618	-200.000	-0.052	0.295
-149.604	44.399	0.147	0.133
-148.589	363.699	-0.098	0.195
-147.574	-50.640	-0.273	-0.127
-146.560	-200.000	-0.004	0.154
-145.545	11.135	-0.177	-0.134
-144.531	800.000	-0.083	-0.251
-143.516	28.880	0.192	-0.160
-142.502	-48.731	-0.257	-0.121
-141.487	23.240	-0.197	-0.160
-140.472	33.270	0.133	-0.113
-139.458	436.824	-0.060	-0.129
-138.443	23.913	-0.136	0.111
-137.429	57.892	-0.104	0.100
-136.414	-39.730	0.263	0.135
-135.399	-141.463	0.375	-0.037
-134.385	203.616	-0.026	0.039
-133.370	678.183	-0.113	-0.291
-132.356	679.835	-0.060	0.154
-131.341	-75.582	0.357	0.125
-130.326	271.832	0.149	-0.259
-129.312	-102.793	-0.465	0.109
-128.297	51.389	-0.196	0.183
-127.283	-85.167	-0.015	0.005
-126.268	-88.532	0.405	0.119
-125.253	800.000	0.065	0.246
-124.239	356.452	0.089	0.175
-123.224	-169.647	-0.126	0.004
-122.210	800.000	-0.086	-0.275
-121.195	-194.449	-0.146	-0.001
-120.180	267.815	0.284	0.490
-119.166	105.518	0.264	0.307
-118.151	674.585	0.125	0.318
-117.137	-169.135	-0.279	-0.010
-116.122	-48.272	0.503	-0.239
-115.107	-43.681	0.276	-0.137
-114.093	-139.935	0.091	-0.009
-113.078	800.000	-0.053	-0.166
-112.064	36.082	-0.164	0.142
-111.049	-200.000	0.017	0.202
-110.034	211.855	-0.143	-0.221
-109.020	10.522	-0.120	0.090
-108.005	-200.000	0.011	0.065
-106.991	-10.020	0.139	0.091
-105.976	9.271	-0.112	0.083
-104.962	628.709	0.078	0.195
-103.947	-200.000	0.044	-0.222
-102.932	-200.000	0.033	-0.247
-101.918	22.473	-0.204	-0.164
-100.903	-36.294	-0.069	0.036
-99.889	77.795	-0.081	0.085
-98.874	-89.977	0.424	0.122
-97.859	-78.894	0.251	0.084
-96.845	-200.000	0.004	0.205
-95.830	-97.916	0.275	-0.070
-94.816	800.000	0.041	-0.128
-93.801	-121.472	0.102	0.017
-92.786	114.699	0.225	0.270
-91.772	414.954	-0.023	-0.048
-90.757	-41.672	0.076	0.038
-89.743	-63.257	-0.157	-0.064
-88.728	-200.000	-0.029	-0.293
-87.713	26.073	0.294	-0.241
-86.699	271.366	-0.068	-0.118
-85.684	-200.000	0.006	0.236
-84.670	8.086	0.225	0.166
-83.655	-100.122	0.035	-0.009
-82.640	115.611	0.200	-0.240
-81.626	-151.518	-0.388	0.028
-80.611	89.492	0.082	0.090
-79.597	-83.573	-0.179	0.056
-78.582	-200.000	-0.008	0.108
-77.567	-62.376	0.370	0.151
-76.553	-113.296	-0.328	0.063
-75.538	-60.203	0.103	0.043
-74.524	-76.542	0.150	0.052
-73.509	-200.000	-0.008	0.211
-72.494	800.000	0.043	0.182
-71.480	-168.429	0.196	-0.007
-70.465	-119.075	0.115	-0.020
-69.451	175.165	0.062	0.088
-68.436	128.590	0.209	0.262
-67.422	800.000	0.037	-0.157
-66.407	-130.939	-0.174	0.023
-65.392	-200.000	0.023	0.218
-64.378	284.456	0.103	-0.183
-63.363	-200.000	-0.108	0.502
-62.349	181.526	-0.156	0.226
-61.334	159.053	-0.737	-1.006
-60.319	7.348	0.375	0.275
-59.305	-200.000	-0.056	-0.750
-58.290	94.478	0.711	0.793
-57.276	800.000	0.411	1.578
-56.261	-200.000	96.271	577.330
-55.246	555.327	1379.660	3260.081
-54.232	159.737	2562.757	3502.970
-53.217	105.887	2267.705	2633.728
-52.203	42.195	1892.935	1687.595
-51.188	36.386	1683.030	1456.735
-50.173	33.584	1639.167	1398.088
-49.159	51.007	1685.037	1567.714
-48.144	52.588	1701.736	1594.992
-47.130	35.810	1662.147	1434.136
-46.115	33.050	1647.702	1401.190
-45.100	33.067	1642.311	1396.672
-44.086	32.954	1639.915	1393.749
-43.071	32.921	1637.304	1391.233
-42.057	32.878	1634.790	1388.723
-41.042	32.938	1632.932	1387.533
-40.027	32.831	1631.450	1385.428
-39.013	32.845	1628.886	1383.303
-37.998	32.834	1627.770	1382.218
-36.984	32.789	1626.606	1380.845
-35.969	32.937	1625.154	1380.642
-34.954	33.064	1622.787	1379.498
-33.940	32.974	1621.094	1377.351
-32.925	32.993	1619.680	1376.231
-31.911	33.070	1617.700	1375.054
-30.896	32.976	1616.100	1372.956
-29.881	32.947	1614.563	1371.387
-28.867	33.063	1612.563	1370.475
-27.852	32.999	1611.181	1368.782
-26.838	32.975	1609.818	1367.397
-25.823	32.957	1608.355	1365.973
-24.809	32.990	1607.140	1365.120
-23.794	33.060	1605.369	1364.068
-22.779	33.096	1604.142	1363.230
-21.765	32.997	1602.708	1361.245
-20.750	33.040	1600.756	1359.846
-19.736	33.108	1599.135	1358.904
-18.721	33.162	1597.853	1358.144
-17.706	33.044	1596.252	1355.882
-16.692	33.010	1595.539	1354.980
-15.677	32.961	1594.027	1353.290
-14.663	33.121	1591.968	1352.638
-13.648	33.093	1590.508	1351.141
-12.633	33.035	1589.814	1350.079
-11.619	33.019	1588.036	1348.401
-10.604	32.969	1586.418	1346.619
-9.590	33.011	1585.441	1346.039
-8.575	33.010	1584.311	1345.021
-7.560	33.004	1582.970	1343.786
-6.546	33.086	1581.026	1342.664
-5.531	33.017	1580.278	1341.484
-4.517	32.985	1579.460	1340.511
-3.502	33.128	1577.651	1339.931
-2.487	33.066	1576.310	1338.304
-1.473	32.810	1564.476	1326.404
-0.458	30.136	1545.789	1291.900
0.556	27.135	1546.777	1262.816
1.571	25.104	1570.005	1267.325
2.586	24.673	1583.829	1275.296
3.600	22.032	1530.932	1214.351
4.615	12.508	1419.755	1064.692
5.629	3.800	1353.574	961.019
6.644	2.105	1344.991	944.362
7.659	2.132	1343.396	943.328
8.673	2.047	1342.640	942.190
9.688	2.006	1340.523	940.369
10.702	1.718	1337.424	936.337
11.717	5.342	1344.951	963.906
12.731	15.627	1363.927	1041.454
13.746	24.033	1378.412	1104.841
14.761	26.103	1381.225	1119.860
15.775	26.414	1381.105	1121.587
16.790	26.582	1380.524	1122.062
17.804	26.581	1379.842	1121.400
18.819	26.699	1379.738	1121.950
19.834	26.934	1378.949	1122.663
20.848	26.901	1378.668	1122.126
21.863	26.957	1377.411	1121.353
22.877	26.903	1376.662	1120.309
23.892	27.003	1375.543	1119.919
24.907	26.990	1374.631	1118.992
25.921	26.940	1373.964	1118.047
26.936	26.899	1372.682	1116.649
27.950	26.840	1372.039	1115.668
28.965	26.940	1370.545	1114.965
29.980	26.800	1369.486	1113.147
30.994	26.908	1368.314	1112.755
32.009	26.955	1366.738	1111.664
33.023	26.908	1365.767	1110.491
34.038	26.936	1364.553	1109.573
35.053	26.893	1363.775	1108.579
36.067	26.886	1362.845	1107.684
37.082	26.947	1361.885	1107.182
38.096	26.839	1361.517	1106.126
39.111	26.906	1360.191	1105.358
40.126	26.967	1359.604	1105.150
41.140	26.965	1358.876	1104.452
42.155	26.881	1359.018	1103.956
43.169	26.875	1358.813	1103.656
44.184	26.934	1358.462	1103.635
45.199	26.919	1358.046	1103.105
46.213	26.876	1357.359	1102.188
47.228	26.921	1356.638	1101.777
48.242	26.921	1355.154	1100.475
49.257	26.861	1354.036	1099.111
50.271	26.913	1352.593	1098.153
51.286	26.938	1350.818	1096.770
52.301	26.803	1350.318	1095.449
53.315	26.813	1349.158	1094.474
54.330	26.849	1348.420	1093.993
55.344	26.909	1347.306	1093.354
56.359	26.895	1346.283	1092.341
57.374	26.914	1345.537	1091.756
58.388	26.835	1344.943	1090.701
59.403	26.910	1344.299	1090.536
60.417	26.872	1343.968	1089.937
61.432	26.941	1343.094	1089.547
62.447	26.797	1342.328	1087.965
63.461	26.914	1341.184	1087.646
64.476	26.873	1340.416	1086.679
65.490	26.834	1339.473	1085.585
66.505	26.880	1337.541	1084.197
67.520	26.918	1336.223	1083.260
68.534	26.991	1335.310	1082.864
69.549	26.962	1334.450	1081.896
70.563	26.892	1333.802	1080.859
71.578	26.933	1332.516	1079.962
72.593	26.904	1331.983	1079.264
73.607	26.920	1331.285	1078.699
74.622	26.872	1330.506	1077.684
75.636	26.937	1329.703	1077.326
76.651	27.013	1328.854	1076.992
77.666	26.884	1328.237	1075.631
78.680	26.907	1328.135	1075.589
79.695	26.932	1327.221	1074.905
80.709	26.913	1326.297	1073.949
81.724	26.923	1325.611	1073.357
82.739	26.950	1324.780	1072.748
83.753	26.977	1323.331	1071.643
84.768	26.997	1322.415	1070.918
85.782	26.870	1321.843	1069.611
86.797	27.035	1320.209	1069.169
87.812	26.951	1319.630	1068.114
88.826	26.982	1318.685	1067.436
89.841	26.892	1317.352	1065.735
90.855	26.952	1316.361	1065.190
91.870	26.991	1315.431	1064.573
92.884	26.988	1314.771	1063.922
93.899	26.954	1314.032	1063.031
94.914	27.031	1312.925	1062.494
95.928	26.868	1312.732	1061.291
96.943	26.954	1311.844	1060.980
97.957	26.858	1311.241	1059.841
98.972	26.978	1309.650	1059.161
99.987	26.966	1308.716	1058.242
101.001	26.872	1308.516	1057.437
102.016	27.046	1307.180	1057.275
103.030	26.935	1306.593	1056.062
104.045	26.951	1305.681	1055.323
105.060	26.953	1304.711	1054.460
106.074	27.047	1303.335	1053.799
107.089	27.087	1302.746	1053.463
108.103	27.021	1301.704	1052.143
109.118	27.135	1300.397	1051.652
110.133	27.012	1299.559	1050.174
111.147	27.222	1297.796	1049.869
112.162	27.147	1296.705	1048.460
113.176	27.106	1296.249	1047.759
114.191	27.036	1295.133	1046.365
115.206	27.034	1294.769	1045.965
116.220	26.993	1293.517	1044.626
117.235	27.036	1292.448	1043.917
118.249	27.061	1291.811	1043.450
119.264	27.007	1290.937	1042.345
120.279	27.162	1289.924	1042.324
121.293	27.131	1289.116	1041.399
122.308	27.071	1288.832	1040.736
123.322	27.123	1287.601	1039.949
124.337	27.170	1286.813	1039.488
125.352	27.194	1286.190	1039.028
126.366	27.078	1285.502	1037.722
127.381	27.114	1284.532	1037.051
128.395	27.106	1283.463	1036.052
129.410	27.074	1282.558	1035.046
130.424	27.063	1282.121	1034.535
131.439	27.086	1281.347	1033.955
132.454	27.219	1280.519	1033.947
133.468	27.152	1279.894	1032.970
134.483	27.181	1279.174	1032.467
135.497	27.218	1278.369	1031.934
136.512	27.063	1277.364	1030.153
137.527	27.088	1276.417	1029.441
138.541	27.220	1274.635	1028.659
139.556	27.083	1273.758	1027.087
140.570	27.060	1273.526	1026.678
141.585	26.974	1272.485	1025.260
142.600	27.075	1270.907	1024.467
143.614	27.207	1269.937	1024.339
144.629	27.074	1269.021	1022.762
145.643	27.079	1267.918	1021.811
146.658	26.992	1267.305	1020.734
147.673	27.024	1266.135	1019.885
148.687	27.003	1265.435	1019.112
149.702	27.004	1264.075	1017.931
150.716	27.084	1262.823	1017.280
151.731	26.974	1262.601	1016.395
152.746	27.000	1261.383	1015.470
153.760	27.208	1260.157	1015.559
154.775	27.155	1259.082	1014.303
155.789	27.204	1258.098	1013.697
156.804	27.032	1257.631	1012.272
157.819	27.057	1256.623	1011.508
158.833	27.119	1256.246	1011.464
159.848	27.129	1255.210	1010.594
160.862	27.150	1254.422	1009.986
161.877	27.169	1253.501	1009.261
162.892	27.147	1252.887	1008.554
163.906	27.253	1252.456	1008.706
164.921	27.221	1251.152	1007.388
165.935	27.114	1250.623	1006.281
166.950	27.202	1249.979	1006.161
167.964	27.256	1249.463	1005.957
168.979	27.245	1249.028	1005.458
169.994	27.198	1248.744	1004.878
171.008	27.239	1247.647	1004.135
172.023	27.293	1247.201	1003.982
173.037	27.170	1246.406	1002.577
174.052	27.178	1245.449	1001.764
175.067	27.251	1244.740	1001.503
176.081	27.433	1243.462	1001.389
177.096	27.117	1243.306	999.440
178.110	27.271	1242.247	999.342
179.125	27.315	1241.154	998.617
180.140	27.286	1240.269	997.657
181.154	27.291	1238.949	996.533
182.169	27.190	1238.057	995.177
183.183	27.191	1237.402	994.569
184.198	27.270	1235.947	993.741
185.213	27.284	1235.232	993.156
186.227	27.328	1234.241	992.514
187.242	27.355	1233.250	991.776
188.256	27.307	1232.410	990.747
189.271	27.296	1232.029	990.296
190.286	27.249	1231.348	989.403
191.300	27.325	1230.380	988.954
192.315	27.291	1230.353	988.657
193.329	27.327	1229.610	988.167
194.344	27.364	1229.454	988.155
195.359	27.407	1228.538	987.565
196.373	27.266	1228.279	986.505
197.388	27.254	1228.045	986.165
198.402	27.154	1227.912	985.429
199.417	27.233	1227.277	985.261
200.432	27.297	1226.623	984.998
201.446	27.335	1225.807	984.461
202.461	27.343	1224.602	983.446
203.475	27.350	1224.322	983.171
204.490	27.255	1223.291	981.743
205.504	27.392	1222.307	981.609
206.519	27.345	1221.344	980.496
207.534	27.389	1220.528	979.988
208.548	27.366	1219.481	978.937
209.563	27.404	1218.565	978.321
210.577	27.344	1218.457	977.827
211.592	27.396	1217.449	977.208
212.607	27.416	1216.457	976.435
213.621	27.478	1215.874	976.213
214.636	27.440	1215.161	975.347
215.650	27.520	1214.188	974.909
216.665	27.430	1213.309	973.637
217.680	27.408	1212.633	972.891
218.694	27.552	1211.687	972.814
219.709	27.480	1210.789	971.624
220.723	27.506	1210.218	971.220
221.738	27.433	1209.578	970.230
222.753	27.334	1208.969	969.127
223.767	27.429	1208.451	969.132
224.782	27.577	1207.973	969.451
225.796	27.668	1207.037	969.096
226.811	27.526	1206.710	967.991
227.826	27.477	1206.401	967.400
228.840	27.568	1205.693	967.231
229.855	27.556	1205.190	966.679
230.869	27.544	1204.261	965.781
231.884	27.516	1203.581	965.003
232.899	27.474	1203.001	964.232
233.913	27.720	1202.126	964.745
234.928	27.608	1201.748	963.764
235.942	27.663	1200.823	963.226
236.957	27.543	1200.605	962.333
237.972	27.586	1199.822	961.847
238.986	27.585	1199.409	961.426
240.001	27.674	1198.410	961.012
241.015	27.738	1197.402	960.455
242.030	27.728	1196.949	959.954
243.045	27.775	1196.285	959.584
244.059	27.689	1195.560	958.463
245.074	27.689	1194.978	957.910
246.088	27.720	1193.917	957.142
247.103	27.747	1193.305	956.705
248.117	27.706	1192.440	955.711
249.132	27.728	1191.489	954.979
250.147	27.774	1191.195	954.902
251.161	27.813	1189.905	953.986
252.176	27.783	1189.534	953.448
253.190	27.790	1189.108	953.062
254.205	27.760	1188.442	952.287
255.220	27.784	1188.068	952.027
256.234	27.820	1187.303	951.515
257.249	27.860	1186.468	950.973
258.263	27.810	1186.362	950.541
259.278	27.806	1185.566	949.801
260.293	27.941	1184.703	949.728
261.307	27.942	1184.472	949.464
262.322	27.854	1183.882	948.448
263.336	27.873	1183.311	948.004
264.351	27.954	1182.239	947.481
265.366	27.827	1182.009	946.555
266.380	27.698	1181.278	945.218
267.395	27.822	1180.507	945.159
268.409	27.922	1179.620	944.882
269.424	27.870	1179.710	944.601
270.439	27.923	1178.815	944.075
271.453	27.881	1178.233	943.311
272.468	27.832	1177.497	942.384
273.482	27.754	1176.621	941.195
274.497	27.924	1176.529	941.919
275.512	27.932	1175.933	941.397
276.526	27.912	1175.056	940.507
277.541	28.026	1174.399	940.487
278.555	27.933	1174.007	939.610
279.570	28.110	1172.943	939.583
280.585	27.894	1172.198	937.796
281.599	27.928	1171.501	937.330
282.614	27.945	1170.843	936.809
283.628	28.026	1169.318	935.919
284.643	28.056	1168.772	935.556
285.657	27.953	1168.194	934.483
286.672	27.982	1167.427	933.936
287.687	27.955	1166.658	933.099
288.701	28.058	1165.780	932.837
289.716	28.084	1165.214	932.435
290.730	28.142	1164.287	931.905
291.745	28.149	1164.070	931.686
292.760	28.058	1163.435	930.631
293.774	28.140	1163.182	930.763
294.789	28.005	1162.875	929.749
295.803	28.150	1161.621	929.402
296.818	28.109	1161.460	928.982
297.833	28.208	1160.444	928.591
298.847	28.248	1159.924	928.297
299.862	28.235	1158.905	927.332
300.876	28.304	1158.409	927.203
301.891	28.323	1157.782	926.714
302.906	28.196	1157.571	925.820
303.920	28.263	1156.671	925.358
304.935	28.311	1155.596	924.659
305.949	28.207	1155.473	923.955
306.964	28.234	1154.781	923.452
307.979	28.360	1154.086	923.451
308.993	28.331	1153.354	922.640
310.008	28.311	1152.706	921.939
311.022	28.342	1151.765	921.261
312.037	28.379	1151.097	920.831
313.052	28.390	1149.994	919.922
314.066	28.319	1149.211	918.855
315.081	28.324	1148.710	918.398
316.095	28.291	1148.528	918.007
317.110	28.265	1147.643	917.088
318.125	28.265	1147.264	916.706
319.139	28.269	1146.265	915.847
320.154	28.404	1145.494	915.824
321.168	28.353	1145.388	915.404
322.183	28.333	1144.877	914.814
323.197	28.412	1144.155	914.548
324.212	28.331	1143.729	913.726
325.227	28.564	1142.495	913.816
326.241	28.505	1142.397	913.367
327.256	28.495	1141.859	912.803
328.270	28.455	1140.976	911.819
329.285	28.486	1140.221	911.289
330.300	28.482	1139.673	910.752
331.314	28.474	1138.841	909.967
332.329	28.468	1137.650	908.905
333.343	28.552	1136.689	908.473
334.358	28.464	1136.384	907.710
335.373	28.511	1135.966	907.532
336.387	28.534	1135.162	906.919
337.402	28.583	1134.241	906.345
338.416	28.619	1133.980	906.237
339.431	28.678	1133.347	905.942
340.446	28.611	1132.552	904.896
341.460	28.682	1131.979	904.707
342.475	28.671	1131.044	903.826
343.489	28.679	1129.976	902.932
344.504	28.693	1129.201	902.298
345.519	28.701	1128.894	902.014
346.533	28.645	1128.029	900.968
347.548	28.673	1127.387	900.515
348.562	28.677	1126.854	900.028
349.577	28.650	1125.930	899.080
350.592	28.484	1125.548	897.879
351.606	28.584	1124.459	897.423
352.621	28.759	1123.870	897.726
353.635	28.673	1123.289	896.764
354.650	28.783	1122.660	896.717
355.665	28.749	1122.407	896.272
356.679	28.743	1121.647	895.559
357.694	28.851	1121.054	895.532
358.708	28.835	1120.139	894.641
359.723	28.817	1119.572	894.023
360.738	28.738	1118.961	893.073
361.752	28.846	1118.593	893.223
362.767	28.801	1117.670	892.190
363.781	28.852	1117.519	892.237
364.796	28.948	1116.879	892.113
365.810	28.983	1116.019	891.517
366.825	28.934	1115.880	891.092
367.840	28.873	1115.631	890.515
368.854	28.958	1114.752	890.148
369.869	28.962	1113.695	889.243
370.883	28.970	1112.914	888.582
371.898	28.995	1112.302	888.135
372.913	28.985	1111.780	887.588
373.927	29.030	1110.956	887.072
374.942	28.967	1110.797	886.561
375.956	29.057	1110.141	886.395
376.971	29.043	1109.979	886.118
377.986	29.096	1109.099	885.593
379.000	29.117	1108.751	885.334
380.015	29.106	1108.191	884.759
381.029	29.088	1107.208	883.808
382.044	29.036	1106.604	883.000
383.059	29.246	1106.054	883.489
384.073	29.115	1105.450	882.302
385.088	29.108	1104.737	881.619
386.102	29.098	1103.929	880.848
387.117	29.140	1102.967	880.202
388.132	29.067	1102.434	879.353
389.146	29.234	1101.460	879.295
390.161	29.211	1100.594	878.417
391.175	29.114	1100.341	877.676
392.190	29.229	1099.746	877.668
393.205	29.182	1098.949	876.733
394.219	29.311	1098.098	876.591
395.234	29.295	1097.551	875.997
396.248	29.328	1096.455	875.201
397.263	29.222	1096.160	874.385
398.278	29.286	1095.145	873.805
399.292	29.427	1094.523	873.899
400.307	29.381	1093.993	873.181
401.321	29.213	1093.914	872.242
402.336	29.321	1092.913	871.878
403.350	29.291	1091.998	870.930
404.365	29.240	1092.019	870.627
405.380	29.404	1091.168	870.649
406.394	29.476	1089.925	869.916
407.409	29.477	1089.237	869.299
408.423	29.406	1088.717	868.469
409.438	29.517	1088.257	868.547
410.453	29.438	1087.467	867.470
411.467	29.483	1086.772	867.050
412.482	29.570	1086.103	866.849
413.496	29.518	1084.995	865.645
414.511	29.485	1084.738	865.209
415.526	29.498	1084.555	865.044
416.540	29.472	1084.001	864.405
417.555	29.517	1083.568	864.193
418.569	29.501	1083.269	863.806
419.584	29.477	1083.113	863.492
420.599	29.605	1082.231	863.309
421.613	103.964	1320.426	1455.051
422.628	96.723	1355.104	1455.158
