DTS Sentinel unit serial number:	SN413079Multiplexer serial number:	ORYXHardware model number:	OX4-SRSoftware version number:	ORYX F/W v4.00 Oryx Data Collector v3.7.2.0data status	okinstallation	princeton_trtdifferential loss correction	single-endedforward channel	channel 2reverse channel	N/Adate	2019/09/10time	21:01:11forward acquisition time	60.00reverse acquisition time	0.00gamma	496.2192k internal	0.2330k external	0.2330temperature offset calibration	0.9944default loss term (dB/km)	0.3790temperature slope calibration	1.0000multiplexer offset coefficient	1.0000multiplexer slope coefficient	1.0000fibre end	0.00T internal ref (°C)	31.61T ext. ref 1 (°C)	-0.33T ext. ref 2 (°C)	24.84length (m)	temperature (°C)	Stokes	anti-Stokes-747.200	-15.603	-0.126	-0.081
-746.185	-149.232	0.362	-0.029
-745.171	-90.888	0.575	-0.167
-744.156	2.400	-0.147	0.107
-743.142	-10.209	0.303	0.203
-742.127	800.000	-0.105	0.328
-741.112	800.000	-0.040	-0.157
-740.098	800.000	-0.074	0.242
-739.083	710.270	-0.060	0.161
-738.069	70.242	0.137	0.143
-737.054	-143.113	0.156	0.015
-736.039	-200.000	0.004	0.070
-735.025	-56.804	0.100	-0.044
-734.010	800.000	-0.092	-0.297
-732.996	379.691	-0.049	0.100
-731.981	67.290	0.105	0.108
-730.966	157.437	-0.085	0.118
-729.952	1.935	-0.125	-0.091
-728.937	344.114	-0.076	0.149
-727.923	-109.555	-0.233	-0.049
-726.908	-104.981	-0.205	-0.047
-725.894	-151.710	-0.123	0.009
-724.879	-200.000	0.000	-0.023
-723.864	-109.786	-0.169	0.036
-722.850	-42.498	0.314	0.161
-721.835	-66.699	-0.103	-0.041
-720.821	8.046	0.085	-0.064
-719.806	800.000	-0.017	0.050
-718.791	-181.855	0.124	-0.002
-717.777	385.995	0.074	0.154
-716.762	-28.852	0.089	-0.052
-715.748	-120.889	-0.134	0.023
-714.733	606.867	-0.030	-0.076
-713.718	15.915	0.025	-0.020
-712.704	100.755	0.076	0.088
-711.689	-79.600	-0.291	0.099
-710.675	-79.034	-0.245	0.084
-709.660	92.831	0.160	0.181
-708.645	-19.387	-0.322	0.201
-707.631	-200.000	0.063	0.293
-706.616	800.000	0.047	-0.201
-705.602	55.071	-0.220	-0.213
-704.587	204.135	-0.025	-0.039
-703.572	34.201	0.195	0.171
-702.558	273.082	-0.113	-0.200
-701.543	193.188	-0.101	-0.153
-700.529	-86.701	-0.080	-0.025
-699.514	-200.000	0.047	-0.309
-698.499	-47.730	-0.336	-0.164
-697.485	800.000	0.070	0.204
-696.470	-96.817	-0.194	-0.051
-695.456	130.452	-0.302	-0.389
-694.441	173.609	-0.023	0.034
-693.426	322.984	0.016	0.030
-692.412	-112.094	-0.098	0.020
-691.397	-200.000	-0.023	-0.139
-690.383	52.560	0.088	0.085
-689.368	800.000	-0.041	0.131
-688.354	-200.000	-0.010	0.358
-687.339	65.344	-0.142	-0.144
-686.324	-12.482	-0.123	0.081
-685.310	800.000	0.077	-0.224
-684.295	275.685	0.049	-0.088
-683.281	-138.095	0.220	0.025
-682.266	-36.580	-0.103	0.056
-681.251	800.000	-0.026	0.109
-680.237	-39.425	-0.067	0.035
-679.222	-200.000	-0.027	-0.168
-678.208	-74.295	0.149	-0.054
-677.193	-42.506	-0.023	0.012
-676.178	18.988	-0.347	0.279
-675.164	-120.646	0.143	0.024
-674.149	103.542	0.112	0.132
-673.135	-140.413	-0.253	-0.026
-672.120	-49.307	0.100	-0.048
-671.105	-22.905	0.226	0.137
-670.091	-52.474	-0.113	-0.053
-669.076	11.141	0.383	-0.294
-668.062	284.144	0.179	-0.323
-667.047	-55.019	0.162	0.073
-666.032	649.900	-0.046	0.118
-665.018	-139.367	0.207	-0.022
-664.003	-103.875	0.207	-0.049
-662.989	-117.788	-0.145	-0.026
-661.974	-150.634	0.120	-0.009
-660.959	542.439	0.081	0.193
-659.945	800.000	-0.048	0.151
-658.930	-167.951	-0.239	0.009
-657.916	-54.365	-0.140	-0.064
-656.901	-8.935	-0.222	-0.149
-655.886	-200.000	-0.027	0.177
-654.872	-200.000	-0.023	-0.109
-653.857	114.652	0.154	-0.188
-652.843	-98.197	0.028	0.007
-651.828	143.063	0.145	0.193
-650.814	485.083	-0.082	-0.188
-649.799	15.535	0.029	0.023
-648.784	-49.839	-0.026	0.013
-647.770	-200.000	0.031	0.290
-646.755	800.000	0.071	0.239
-645.741	81.565	-0.209	-0.226
-644.726	800.000	0.085	-0.320
-643.711	340.036	-0.043	-0.083
-642.697	-56.402	-0.128	0.057
-641.682	-137.429	-0.206	0.023
-640.668	15.076	-0.150	-0.118
-639.653	188.423	0.130	-0.195
-638.638	637.441	0.035	0.088
-637.624	-96.038	-0.626	-0.167
-636.609	-47.195	0.375	-0.183
-635.595	-111.794	-0.225	-0.046
-634.580	61.900	-0.082	-0.082
-633.565	-135.033	-0.308	-0.037
-632.551	92.367	0.123	0.139
-631.536	264.964	0.084	0.147
-630.522	15.757	-0.134	-0.106
-629.507	195.419	0.021	0.032
-628.492	-200.000	-0.010	0.270
-627.478	-200.000	-0.048	-0.383
-626.463	-200.000	0.037	-0.181
-625.449	630.852	0.147	-0.374
-624.434	524.400	-0.047	-0.110
-623.419	800.000	-0.119	-0.338
-622.405	800.000	-0.113	0.420
-621.390	-5.885	-0.177	0.122
-620.376	164.875	-0.070	-0.099
-619.361	87.643	0.238	-0.264
-618.346	-26.219	-0.270	0.159
-617.332	153.843	-0.119	0.163
-616.317	-102.533	-0.263	0.063
-615.303	125.161	-0.111	-0.140
-614.288	-2.427	0.300	0.210
-613.273	58.936	-0.135	-0.133
-612.259	501.613	0.034	0.078
-611.244	372.460	0.119	-0.242
-610.230	800.000	-0.068	-0.220
-609.215	-145.077	-0.309	-0.028
-608.201	-128.918	0.236	0.033
-607.186	91.596	0.107	0.121
-606.171	17.446	-0.271	0.216
-605.157	-59.464	-0.499	0.215
-604.142	-101.968	-0.270	0.065
-603.128	75.333	0.087	0.091
-602.113	-200.000	-0.079	0.574
-601.098	-60.126	-0.154	-0.066
-600.084	-200.000	-0.043	-0.277
-599.069	-55.312	0.222	-0.100
-598.055	800.000	-0.011	-0.035
-597.040	-200.000	-0.029	0.267
-596.025	-200.000	-0.327	0.001
-595.011	-200.000	-0.023	-0.202
-593.996	121.286	0.064	-0.080
-592.982	-157.822	0.333	-0.020
-591.967	66.646	0.319	0.325
-590.952	800.000	-0.031	-0.096
-589.938	-114.870	-0.126	-0.024
-588.923	-200.000	-0.025	-0.155
-587.909	-138.641	-0.026	0.003
-586.894	69.906	-0.302	-0.312
-585.879	-84.302	-0.137	0.043
-584.865	-125.609	-0.341	-0.052
-583.850	800.000	-0.090	-0.324
-582.836	800.000	0.114	-0.331
-581.821	-43.545	-0.257	-0.130
-580.806	-69.660	-0.267	0.102
-579.792	-76.553	0.205	-0.072
-578.777	131.316	0.216	-0.278
-577.763	55.219	0.041	-0.040
-576.748	313.402	0.031	0.059
-575.733	-44.386	0.234	-0.117
-574.719	-190.822	-0.294	0.003
-573.704	-200.000	0.010	0.059
-572.690	-142.836	0.241	-0.023
-571.675	263.424	0.086	0.149
-570.661	507.321	0.041	0.095
-569.646	800.000	-0.020	0.060
-568.631	-171.167	0.364	0.012
-567.617	68.782	0.060	0.062
-566.602	-44.666	0.205	-0.102
-565.588	-200.000	-0.008	-0.047
-564.573	-34.047	0.111	0.061
-563.558	89.096	0.124	0.138
-562.544	46.748	-0.060	-0.055
-561.529	-54.803	-0.285	-0.129
-560.515	-119.327	-0.293	-0.051
-559.500	-2.928	-0.205	-0.143
-558.485	-100.126	-0.269	-0.067
-557.471	-44.964	-0.108	0.054
-556.456	-61.019	-0.300	-0.127
-555.442	-130.153	0.427	-0.058
-554.427	44.216	0.189	0.173
-553.412	415.181	-0.148	-0.316
-552.398	800.000	0.061	-0.237
-551.383	71.813	0.045	0.046
-550.369	-83.444	0.239	-0.076
-549.354	-29.097	-0.169	-0.097
-548.339	-134.640	-0.307	-0.037
-547.325	800.000	-0.093	-0.307
-546.310	-63.690	0.053	-0.022
-545.296	82.220	-0.032	0.035
-544.281	-65.013	-0.144	-0.058
-543.266	-19.060	0.152	-0.094
-542.252	-139.576	-0.161	0.017
-541.237	800.000	-0.040	0.165
-540.223	26.235	-0.166	0.139
-539.208	-36.453	-0.149	-0.080
-538.193	585.258	-0.108	-0.265
-537.179	-88.612	-0.171	-0.051
-536.164	-200.000	-0.081	0.415
-535.150	800.000	0.066	0.256
-534.135	-7.133	0.229	-0.155
-533.121	-157.669	-0.390	0.023
-532.106	145.266	0.094	-0.126
-531.091	278.981	-0.107	-0.190
-530.077	88.693	-0.161	0.178
-529.062	78.883	0.141	-0.150
-528.048	275.544	0.140	0.249
-527.033	246.478	0.143	0.240
-526.018	-125.412	-0.087	0.013
-525.004	-135.044	0.290	-0.035
-523.989	800.000	0.051	0.178
-522.975	-7.614	-0.098	-0.066
-521.960	2.319	-0.090	-0.065
-520.945	90.777	0.070	-0.078
-519.931	-45.529	0.220	-0.109
-518.916	-83.889	0.188	0.060
-517.902	137.324	0.087	0.114
-516.887	233.080	0.138	-0.226
-515.872	-200.000	0.027	0.297
-514.858	-93.898	-0.409	0.112
-513.843	800.000	-0.145	0.447
-512.829	-117.567	-0.249	-0.045
-511.814	159.309	-0.165	0.229
-510.799	-200.000	0.001	0.041
-509.785	130.514	-0.141	-0.180
-508.770	49.754	0.248	0.233
-507.756	78.752	-0.218	0.232
-506.741	55.321	0.178	0.172
-505.726	-200.000	0.057	0.263
-504.712	25.056	0.091	0.075
-503.697	76.408	0.209	0.221
-502.683	88.432	-0.219	-0.243
-501.668	-200.000	-0.053	-0.315
-500.653	-16.869	0.035	-0.022
-499.639	-200.000	0.032	0.155
-498.624	86.540	0.152	-0.167
-497.610	-54.853	0.406	-0.183
-496.595	-149.335	-0.204	0.016
-495.581	481.826	-0.096	0.218
-494.566	297.048	0.142	0.260
-493.551	24.096	0.077	0.063
-492.537	43.375	-0.169	0.154
-491.522	-31.663	0.077	-0.043
-490.508	800.000	-0.030	-0.094
-489.493	-175.043	-0.256	0.007
-488.478	29.186	0.171	-0.144
-487.464	800.000	0.035	0.112
-486.449	-117.975	-0.119	-0.021
-485.435	-64.870	0.387	-0.156
-484.420	-200.000	-0.028	0.270
-483.405	-62.992	-0.277	0.114
-482.391	-46.603	-0.103	-0.051
-481.376	-44.462	0.372	0.185
-480.362	-200.000	-0.061	0.267
-479.347	353.698	0.117	0.232
-478.332	40.997	0.331	0.298
-477.318	4.151	-0.200	-0.146
-476.303	-90.135	0.115	-0.033
-475.289	-200.000	-0.002	0.042
-474.274	-159.372	0.036	-0.002
-473.259	196.782	-0.103	0.156
-472.245	142.791	-0.094	-0.125
-471.230	249.424	-0.067	0.113
-470.216	-111.338	0.356	-0.072
-469.201	-200.000	0.025	0.207
-468.186	52.459	0.205	0.195
-467.172	-64.487	-0.148	0.060
-466.157	505.502	0.031	-0.071
-465.143	119.876	0.035	-0.043
-464.128	21.678	-0.050	-0.040
-463.113	-200.000	0.012	0.392
-462.099	283.232	0.152	0.272
-461.084	69.282	0.128	-0.131
-460.070	11.450	-0.475	-0.362
-459.055	-32.929	-0.233	-0.129
-458.040	-142.825	0.331	0.032
-457.026	-103.461	0.237	-0.056
-456.011	54.801	0.253	0.243
-454.997	5.460	0.107	-0.079
-453.982	413.396	-0.233	-0.494
-452.968	208.868	0.132	0.205
-451.953	800.000	-0.097	0.276
-450.938	189.420	0.030	-0.044
-449.924	-77.901	-0.081	-0.028
-448.909	-55.826	-0.048	0.021
-447.895	253.201	0.164	0.278
-446.880	21.972	-0.134	-0.109
-445.865	-25.502	0.356	0.209
-444.851	-200.000	-0.002	-0.205
-443.836	-138.358	-0.216	-0.024
-442.822	313.392	0.102	-0.191
-441.807	-15.904	-0.074	-0.047
-440.792	800.000	0.083	-0.315
-439.778	-68.832	0.253	0.097
-438.763	2.685	0.262	-0.189
-437.749	800.000	-0.035	-0.108
-436.734	-38.807	-0.097	0.051
-435.719	-176.890	0.079	0.002
-434.705	-165.540	-0.346	-0.015
-433.690	800.000	-0.066	-0.250
-432.676	-171.946	-0.083	-0.003
-431.661	796.214	-0.113	-0.309
-430.646	6.929	-0.173	-0.128
-429.632	-200.000	0.055	0.483
-428.617	-116.345	0.088	0.016
-427.603	160.907	0.075	0.104
-426.588	22.516	0.249	-0.202
-425.573	-174.678	0.244	0.007
-424.559	268.916	0.069	0.121
-423.544	118.118	0.173	-0.212
-422.530	246.619	0.119	0.199
-421.515	-138.234	0.297	-0.033
-420.500	-58.692	-0.118	-0.051
-419.486	800.000	0.089	-0.258
-418.471	-132.365	0.238	0.031
-417.457	-20.735	-0.067	-0.041
-416.442	-200.000	-0.052	0.383
-415.428	244.529	-0.087	-0.145
-414.413	771.396	0.056	0.152
-413.398	800.000	0.150	-0.430
-412.384	696.586	0.111	0.288
-411.369	800.000	-0.033	0.143
-410.355	60.148	-0.100	0.098
-409.340	-200.000	-0.005	0.116
-408.325	-200.000	0.008	-0.310
-407.311	48.038	0.188	0.174
-406.296	41.280	-0.191	-0.171
-405.282	-75.813	-0.333	-0.117
-404.267	19.078	0.152	0.121
-403.252	291.989	0.124	-0.224
-402.238	181.844	0.072	-0.105
-401.223	88.506	-0.149	0.165
-400.209	223.614	-0.122	-0.196
-399.194	-44.231	-0.129	0.064
-398.179	-5.631	0.429	0.292
-397.165	-33.461	-0.236	0.129
-396.150	-66.332	-0.077	0.030
-395.136	-109.875	-0.032	0.007
-394.121	-0.058	0.133	-0.094
-393.106	800.000	-0.061	-0.255
-392.092	18.508	-0.139	0.111
-391.077	-200.000	0.049	0.321
-390.063	-200.000	0.025	-0.249
-389.048	249.213	0.092	0.156
-388.033	-134.545	0.394	-0.048
-387.019	800.000	0.080	-0.257
-386.004	-30.106	-0.270	0.152
-384.990	-0.386	-0.073	-0.052
-383.975	-200.000	-0.022	0.295
-382.960	-98.690	0.283	0.072
-381.946	112.874	-0.135	0.162
-380.931	189.602	0.095	-0.141
-379.917	-109.833	0.530	-0.110
-378.902	-102.862	0.098	0.023
-377.888	-15.653	-0.268	0.170
-376.873	136.016	0.114	-0.148
-375.858	73.568	0.030	-0.031
-374.844	-200.000	0.050	0.432
-373.829	-47.541	-0.180	-0.087
-372.815	-28.131	0.094	-0.054
-371.800	71.172	0.102	-0.105
-370.785	264.819	-0.084	0.144
-369.771	-134.548	-0.214	-0.026
-368.756	145.112	0.125	0.166
-367.742	-85.003	0.343	0.107
-366.727	138.584	0.094	0.122
-365.712	-21.139	-0.025	-0.015
-364.698	-198.767	-0.339	-0.002
-363.683	-34.806	-0.062	-0.034
-362.669	-94.995	0.242	-0.065
-361.654	170.972	0.220	0.313
-360.639	-65.313	0.124	-0.049
-359.625	-84.599	-0.263	0.082
-358.610	-200.000	0.000	0.069
-357.596	-37.709	-0.058	0.031
-356.581	-173.086	0.076	-0.002
-355.566	-200.000	-0.019	0.238
-354.552	651.968	0.024	0.061
-353.537	-122.592	-0.137	0.022
-352.523	-159.627	0.142	-0.008
-351.508	307.432	0.072	0.132
-350.493	-70.294	-0.292	-0.110
-349.479	31.960	-0.075	-0.064
-348.464	-200.000	0.029	-0.139
-347.450	-115.730	-0.485	0.090
-346.435	-136.200	0.454	-0.053
-345.420	10.461	0.164	-0.124
-344.406	138.924	-0.054	0.070
-343.391	14.046	-0.220	-0.170
-342.377	-72.522	-0.208	-0.076
-341.362	800.000	0.090	-0.292
-340.348	47.553	0.088	0.082
-339.333	-159.854	0.240	0.013
-338.318	-200.000	0.009	-0.433
-337.304	-118.325	-0.226	0.040
-336.289	-200.000	-0.001	-0.244
-335.275	131.317	0.048	-0.061
-334.260	18.522	0.206	0.163
-333.245	378.986	-0.017	0.035
-332.231	5.524	-0.333	-0.244
-331.216	-119.196	0.226	0.039
-330.202	-105.757	0.286	0.064
-329.187	-122.113	0.104	-0.017
-328.172	194.305	0.097	0.145
-327.158	62.748	0.191	0.189
-326.143	-7.790	-0.317	0.212
-325.129	-165.120	0.192	0.008
-324.114	18.281	0.307	0.243
-323.099	-200.000	0.021	-0.332
-322.085	-82.255	0.143	0.046
-321.070	-200.000	-0.021	0.199
-320.056	616.521	-0.091	-0.227
-319.041	-68.387	0.084	-0.032
-318.026	621.006	-0.063	-0.157
-317.012	-86.884	-0.195	0.059
-315.997	672.781	-0.158	0.405
-314.983	800.000	-0.052	-0.160
-313.968	-131.164	0.124	0.016
-312.953	-133.959	0.273	0.034
-311.939	-20.473	-0.220	0.134
-310.924	-84.254	-0.195	0.061
-309.910	-200.000	-0.004	0.064
-308.895	60.178	-0.290	0.284
-307.880	18.012	-0.100	0.079
-306.866	307.529	0.129	-0.239
-305.851	79.238	-0.135	0.143
-304.837	388.486	-0.066	0.134
-303.822	-144.609	-0.420	0.038
-302.807	-11.548	-0.256	0.167
-301.793	63.080	-0.192	-0.190
-300.778	-15.204	-0.465	0.294
-299.764	-157.331	0.210	-0.013
-298.749	-76.465	0.212	-0.074
-297.735	-84.093	-0.227	-0.071
-296.720	5.042	0.145	-0.106
-295.705	50.065	-0.069	0.064
-294.691	-200.000	-0.043	0.215
-293.676	144.320	-0.092	-0.121
-292.662	-40.669	0.163	-0.083
-291.647	-170.108	0.200	0.007
-290.632	483.811	-0.196	-0.440
-289.618	-200.000	-0.019	-0.344
-288.603	238.128	0.154	0.253
-287.589	782.173	-0.055	-0.150
-286.574	26.074	0.203	0.167
-285.559	-174.349	-0.075	0.002
-284.545	151.317	0.056	0.075
-283.530	55.702	0.104	0.099
-282.516	-200.000	-0.004	0.095
-281.501	76.213	0.117	-0.122
-280.486	253.056	0.059	-0.100
-279.472	-200.000	0.021	-0.163
-278.457	11.517	-0.209	0.159
-277.443	-93.287	-0.384	-0.105
-276.428	-200.000	-0.001	-0.037
-275.413	-18.117	-0.304	-0.188
-274.399	-2.412	0.085	0.059
-273.384	-200.000	0.032	-0.148
-272.370	-75.437	-0.231	-0.081
-271.355	153.250	-0.159	0.215
-270.340	-88.187	0.075	0.022
-269.326	-200.000	-0.034	-0.543
-268.311	-63.666	-0.335	0.136
-267.297	53.611	0.224	0.213
-266.282	33.575	-0.031	-0.027
-265.267	-200.000	0.000	0.159
-264.253	94.560	0.192	0.215
-263.238	-164.375	-0.228	-0.010
-262.224	150.091	0.139	0.186
-261.209	-103.789	0.382	-0.088
-260.195	-57.570	-0.262	-0.113
-259.180	-115.993	0.255	-0.047
-258.165	227.900	-0.133	0.214
-257.151	799.445	-0.033	0.089
-256.136	37.454	0.218	0.191
-255.122	93.880	-0.336	0.376
-254.107	-44.781	-0.020	0.010
-253.092	-200.000	0.021	-0.139
-252.078	-26.761	0.203	-0.117
-251.063	162.871	-0.056	0.078
-250.049	-120.982	-0.285	-0.047
-249.034	800.000	-0.056	-0.181
-248.019	-60.482	0.210	0.088
-247.005	247.383	0.169	-0.282
-245.990	-130.125	0.274	-0.037
-244.976	183.889	0.139	-0.204
-243.961	-41.092	0.235	-0.120
-242.946	194.367	0.189	-0.283
-241.932	-200.000	-0.002	0.036
-240.917	659.833	0.091	0.231
-239.903	-200.000	0.005	0.062
-238.888	607.479	0.049	-0.122
-237.873	-102.137	-0.225	-0.054
-236.859	39.868	0.073	-0.065
-235.844	57.514	0.257	-0.248
-234.830	-196.889	0.151	-0.001
-233.815	-126.646	-0.152	0.022
-232.800	-200.000	-0.053	0.353
-231.786	-200.000	0.021	-0.133
-230.771	8.879	-0.051	0.038
-229.757	-67.039	0.170	0.066
-228.742	-134.876	-0.224	0.027
-227.727	-34.959	0.267	-0.144
-226.713	216.090	0.058	0.090
-225.698	448.460	-0.137	0.298
-224.684	-200.000	0.007	0.070
-223.669	544.283	-0.103	0.243
-222.655	79.549	-0.163	-0.173
-221.640	-200.000	0.018	-0.269
-220.625	-177.439	0.150	0.004
-219.611	-101.265	-0.211	-0.051
-218.596	151.809	-0.189	-0.254
-217.582	-200.000	-0.016	-0.119
-216.567	27.309	-0.014	-0.012
-215.552	530.207	0.111	0.257
-214.538	-200.000	0.053	-0.264
-213.523	-145.199	0.164	0.015
-212.509	-123.112	0.208	-0.033
-211.494	-65.818	-0.200	0.079
-210.479	-177.961	-0.154	0.004
-209.465	-139.128	-0.063	-0.007
-208.450	-26.359	-0.144	-0.083
-207.436	-200.000	0.035	0.206
-206.421	-12.415	0.116	0.075
-205.406	14.686	0.200	-0.154
-204.392	395.295	-0.066	0.136
-203.377	-150.008	0.145	0.011
-202.363	-55.926	0.215	-0.095
-201.348	172.438	0.255	0.362
-200.333	420.544	-0.098	-0.208
-199.319	-178.921	0.306	0.007
-198.304	-200.000	0.050	-0.224
-197.290	-1.787	0.121	-0.084
-196.275	-145.669	0.228	-0.020
-195.260	-80.035	0.072	-0.024
-194.246	-14.946	0.210	0.133
-193.231	800.000	0.099	0.316
-192.217	180.829	0.102	-0.148
-191.202	-200.000	-0.006	-0.352
-190.187	-174.733	0.055	0.002
-189.173	-107.202	-0.172	-0.037
-188.158	-59.292	0.150	0.064
-187.144	800.000	0.064	-0.177
-186.129	-200.000	-0.014	0.185
-185.114	202.883	0.135	0.205
-184.100	178.540	0.080	0.115
-183.085	70.935	0.190	-0.194
-182.071	-120.160	-0.244	-0.041
-181.056	74.034	-0.157	-0.162
-180.042	-169.796	0.127	0.005
-179.027	292.036	-0.107	-0.191
-178.012	-8.787	0.187	0.124
-176.998	501.489	-0.110	-0.249
-175.983	494.394	-0.108	-0.244
-174.969	284.514	0.058	-0.103
-173.954	6.600	0.236	-0.173
-172.939	65.364	0.291	-0.290
-171.925	-33.543	-0.513	0.279
-170.910	-114.682	0.171	0.032
-169.896	72.388	0.108	-0.111
-168.881	649.701	0.052	-0.131
-167.866	580.142	-0.125	0.302
-166.852	242.870	-0.105	0.172
-165.837	-33.442	-0.216	0.118
-164.823	-200.000	0.003	-0.421
-163.808	-200.000	-0.144	0.000
-162.793	-84.159	0.197	0.061
-161.779	-30.236	-0.321	0.179
-160.764	-115.967	0.263	0.048
-159.750	201.099	-0.094	0.143
-158.735	127.830	-0.089	0.111
-157.720	-60.866	0.119	0.050
-156.706	-79.324	-0.255	-0.085
-155.691	268.659	-0.182	0.314
-154.677	628.325	0.061	-0.151
-153.662	164.249	0.084	0.116
-152.647	800.000	-0.049	-0.177
-151.633	-119.817	-0.065	0.011
-150.618	394.307	0.147	0.301
-149.604	-189.999	0.290	-0.003
-148.589	299.743	-0.022	0.040
-147.574	668.748	-0.023	-0.059
-146.560	-88.491	-0.195	0.057
-145.545	-200.000	-0.064	0.278
-144.531	-200.000	-0.037	0.175
-143.516	15.535	-0.201	0.155
-142.502	151.482	0.134	-0.180
-141.487	263.903	-0.091	0.156
-140.472	-168.685	-0.151	-0.006
-139.458	800.000	0.062	-0.194
-138.443	662.973	0.120	-0.305
-137.429	-200.000	-0.044	0.235
-136.414	66.894	-0.159	0.159
-135.399	-147.421	-0.395	0.033
-134.385	426.396	0.116	-0.245
-133.370	22.451	-0.231	0.186
-132.356	349.578	-0.083	0.160
-131.341	-27.241	0.223	-0.128
-130.326	500.931	-0.087	0.198
-129.312	107.209	0.188	0.219
-128.297	62.341	-0.101	0.099
-127.283	348.404	-0.093	0.181
-126.268	800.000	0.051	0.144
-125.253	-32.334	-0.185	-0.102
-124.239	800.000	0.092	0.321
-123.224	15.610	0.064	-0.049
-122.210	800.000	-0.017	-0.060
-121.195	352.089	-0.042	0.081
-120.180	454.117	0.034	-0.073
-119.166	800.000	0.108	-0.331
-118.151	-89.339	-0.243	0.070
-117.137	49.613	0.195	0.180
-116.122	-200.000	0.109	0.515
-115.107	13.158	-0.238	0.181
-114.093	251.624	0.092	-0.153
-113.078	-167.570	0.631	0.025
-112.064	-65.912	0.086	0.034
-111.049	-161.485	-0.122	-0.006
-110.034	-109.094	-0.191	0.040
-109.020	-42.255	-0.253	0.127
-108.005	30.277	-0.092	-0.077
-106.991	318.080	0.114	0.213
-105.976	-36.798	0.213	-0.112
-104.962	800.000	-0.039	-0.140
-103.947	-62.026	0.242	0.099
-102.932	-34.969	-0.368	0.197
-101.918	-47.467	0.066	0.031
-100.903	-200.000	-0.009	-0.090
-99.889	-200.000	0.000	0.115
-98.874	267.499	-0.189	0.324
-97.859	-90.781	0.254	-0.072
-96.845	-200.000	0.016	-0.264
-95.830	-154.394	0.112	0.007
-94.816	800.000	-0.071	-0.274
-93.801	-42.457	0.361	-0.180
-92.786	187.319	-0.184	0.269
-91.772	-84.569	-0.045	-0.014
-90.757	-9.282	-0.189	-0.124
-89.743	-200.000	0.021	0.093
-88.728	712.738	0.113	-0.293
-87.713	-119.695	-0.266	0.045
-86.699	-114.457	-0.372	0.070
-85.684	233.890	-0.120	0.194
-84.670	-162.866	0.061	-0.003
-83.655	-108.169	-0.182	0.039
-82.640	-124.121	-0.226	0.035
-81.626	-200.000	0.028	-0.296
-80.611	800.000	0.036	0.140
-79.597	114.347	0.104	0.124
-78.582	-200.000	0.053	-0.260
-77.567	62.132	0.151	0.148
-76.553	769.301	0.120	0.320
-75.538	-47.731	-0.045	0.021
-74.524	93.860	0.054	-0.060
-73.509	54.030	0.187	0.177
-72.494	54.486	0.162	0.153
-71.480	301.007	0.054	-0.098
-70.465	98.324	-0.207	0.234
-69.451	-41.543	-0.128	-0.065
-68.436	38.775	0.263	-0.230
-67.422	-106.039	0.182	-0.040
-66.407	800.000	0.088	0.346
-65.392	574.175	0.118	0.282
-64.378	392.009	0.092	0.187
-63.363	500.591	0.047	-0.106
-62.349	-200.000	0.006	0.158
-61.334	28.316	-1.283	-1.063
-60.319	800.000	0.169	0.563
-59.305	-200.000	0.006	-0.975
-58.290	311.644	0.633	1.163
-57.276	718.482	0.632	1.645
-56.261	-200.000	97.219	608.906
-55.246	618.741	1393.401	3429.841
-54.232	193.353	2593.782	3843.996
-53.217	111.101	2273.254	2682.836
-52.203	41.071	1894.446	1676.545
-51.188	34.989	1682.467	1443.195
-50.173	32.185	1638.708	1384.970
-49.159	49.617	1686.354	1555.932
-48.144	51.179	1702.417	1582.358
-47.130	34.413	1662.876	1421.872
-46.115	31.717	1648.020	1389.148
-45.100	31.608	1642.939	1384.006
-44.086	31.517	1640.777	1381.459
-43.071	31.536	1638.652	1379.752
-42.057	31.543	1635.955	1377.479
-41.042	31.427	1634.278	1375.158
-40.027	31.592	1632.464	1374.793
-39.013	31.528	1630.340	1372.479
-37.998	31.415	1628.794	1370.297
-36.984	31.483	1627.533	1369.681
-35.969	31.616	1625.462	1368.853
-34.954	31.662	1623.851	1367.779
-33.940	31.485	1622.269	1365.104
-32.925	31.646	1620.306	1364.572
-31.911	31.665	1618.600	1363.213
-30.896	31.560	1617.137	1361.169
-29.881	31.588	1615.106	1359.607
-28.867	31.702	1613.291	1358.850
-27.852	31.632	1612.064	1357.253
-26.838	31.615	1610.835	1356.047
-25.823	31.612	1609.470	1354.818
-24.809	31.635	1608.323	1353.965
-23.794	31.651	1606.598	1352.576
-22.779	31.586	1605.576	1351.190
-21.765	31.615	1603.664	1349.741
-20.750	31.580	1601.882	1347.932
-19.736	31.606	1600.514	1346.916
-18.721	31.657	1599.372	1346.268
-17.706	31.640	1597.466	1344.488
-16.692	31.679	1595.444	1343.011
-15.677	31.546	1594.965	1341.605
-14.663	31.704	1593.434	1341.395
-13.648	31.714	1591.849	1340.077
-12.633	31.587	1591.091	1338.480
-11.619	31.593	1589.122	1336.815
-10.604	31.667	1587.526	1335.943
-9.590	31.644	1586.394	1334.774
-8.575	31.661	1584.913	1333.598
-7.560	31.590	1584.076	1332.336
-6.546	31.714	1582.488	1331.830
-5.531	31.690	1581.447	1330.728
-4.517	31.571	1580.222	1328.798
-3.502	31.590	1579.552	1328.318
-2.487	31.682	1577.495	1327.185
-1.473	31.381	1565.372	1314.818
-0.458	28.361	1545.587	1277.136
0.556	22.301	1545.875	1243.741
1.571	19.913	1569.202	1245.239
2.586	19.466	1582.203	1252.204
3.600	17.551	1530.661	1197.846
4.615	9.414	1422.148	1059.449
5.629	1.336	1356.959	959.886
6.644	-0.227	1348.594	944.057
7.659	-0.351	1347.539	942.454
8.673	-0.342	1346.550	941.741
9.688	-0.400	1344.407	939.796
10.702	-0.647	1341.480	936.120
11.717	2.311	1347.024	958.465
12.731	11.194	1364.320	1026.882
13.746	18.376	1375.975	1081.055
14.761	19.994	1377.231	1092.159
15.775	20.088	1376.931	1092.414
16.790	20.179	1376.174	1092.290
17.804	20.165	1376.250	1092.163
18.819	20.326	1376.068	1092.936
19.834	20.421	1375.448	1092.945
20.848	20.321	1375.068	1091.918
21.863	20.454	1373.397	1091.329
22.877	20.476	1372.758	1090.864
23.892	20.477	1371.800	1090.015
24.907	20.513	1370.717	1089.280
25.921	20.527	1369.692	1088.457
26.936	20.428	1369.424	1087.528
27.950	20.490	1367.776	1086.510
28.965	20.540	1366.713	1085.883
29.980	20.591	1365.363	1085.033
30.994	20.615	1363.611	1083.698
32.009	20.506	1363.320	1082.692
33.023	20.413	1362.343	1081.240
34.038	20.502	1360.878	1080.532
35.053	20.497	1360.071	1079.768
36.067	20.570	1358.878	1079.174
37.082	20.432	1357.998	1077.525
38.096	20.476	1357.065	1076.965
39.111	20.448	1356.253	1076.051
40.126	20.387	1355.475	1074.963
41.140	20.465	1354.973	1074.951
42.155	20.475	1354.391	1074.457
43.169	20.466	1354.729	1074.573
44.184	20.451	1354.189	1073.957
45.199	20.422	1354.346	1073.806
46.213	20.374	1353.699	1072.903
47.228	20.547	1352.035	1072.552
48.242	20.434	1351.490	1071.328
49.257	20.481	1350.070	1070.400
50.271	20.570	1348.421	1069.547
51.286	20.454	1347.069	1067.663
52.301	20.500	1345.643	1066.723
53.315	20.457	1344.993	1065.851
54.330	20.571	1344.112	1065.757
55.344	20.502	1342.603	1064.043
56.359	20.484	1342.045	1063.398
57.374	20.562	1341.149	1063.071
58.388	20.532	1340.326	1062.139
59.403	20.527	1340.103	1061.837
60.417	20.529	1339.075	1060.942
61.432	20.399	1338.360	1059.488
62.447	20.419	1337.814	1059.084
63.461	20.428	1336.527	1058.024
64.476	20.480	1335.303	1057.279
65.490	20.418	1334.181	1055.920
66.505	20.457	1332.635	1054.844
67.520	20.424	1331.554	1053.691
68.534	20.445	1330.836	1053.159
69.549	20.506	1329.222	1052.156
70.563	20.447	1328.584	1051.200
71.578	20.486	1327.382	1050.395
72.593	20.545	1326.803	1050.202
73.607	20.386	1326.302	1048.748
74.622	20.508	1325.372	1048.660
75.636	20.537	1324.315	1047.900
76.651	20.413	1323.943	1046.766
77.666	20.509	1323.308	1046.752
78.680	20.583	1322.898	1046.783
79.695	20.590	1322.028	1046.040
80.709	20.378	1321.724	1044.435
81.724	20.494	1320.671	1044.204
82.739	20.431	1319.762	1043.014
83.753	20.529	1318.454	1042.481
84.768	20.553	1317.536	1041.806
85.782	20.579	1315.576	1040.321
86.797	20.540	1314.867	1039.432
87.812	20.551	1313.304	1038.168
88.826	20.474	1312.739	1037.174
89.841	20.435	1311.840	1036.141
90.855	20.523	1311.059	1035.953
91.870	20.529	1309.950	1035.023
92.884	20.621	1308.861	1034.615
93.899	20.586	1308.332	1033.899
94.914	20.729	1307.407	1033.924
95.928	20.587	1306.856	1032.553
96.943	20.635	1305.915	1032.005
97.957	20.570	1305.443	1031.154
98.972	20.509	1304.314	1029.808
99.987	20.647	1302.770	1029.315
101.001	20.605	1301.873	1028.268
102.016	20.600	1300.806	1027.303
103.030	20.475	1300.469	1026.214
104.045	20.549	1299.383	1025.702
105.060	20.598	1298.152	1024.926
106.074	20.649	1297.244	1024.421
107.089	20.639	1295.808	1023.133
108.103	20.686	1294.875	1022.585
109.118	20.631	1293.908	1021.405
110.133	20.645	1292.481	1020.271
111.147	20.600	1291.508	1019.151
112.162	20.621	1289.930	1017.937
113.176	20.567	1289.427	1017.138
114.191	20.630	1288.223	1016.462
115.206	20.679	1287.272	1015.909
116.220	20.685	1286.129	1014.952
117.235	20.675	1285.190	1014.061
118.249	20.497	1284.451	1012.356
119.264	20.649	1282.951	1011.966
120.279	20.572	1282.383	1010.980
121.293	20.696	1281.179	1010.664
122.308	20.719	1280.223	1009.952
123.322	20.602	1279.564	1008.665
124.337	20.689	1278.838	1008.506
125.352	20.657	1278.013	1007.583
126.366	20.648	1276.736	1006.432
127.381	20.753	1275.595	1006.051
128.395	20.636	1275.182	1004.961
129.410	20.630	1273.430	1003.458
130.424	20.727	1272.801	1003.431
131.439	20.640	1272.306	1002.450
132.454	20.656	1271.258	1001.628
133.468	20.711	1270.382	1001.166
134.483	20.664	1270.026	1000.528
135.497	20.754	1268.882	1000.055
136.512	20.674	1267.843	998.690
137.527	20.741	1266.559	997.971
138.541	20.734	1265.016	996.627
139.556	20.619	1264.218	995.254
140.570	20.632	1263.095	994.355
141.585	20.633	1261.629	993.122
142.600	20.622	1260.761	992.285
143.614	20.602	1260.186	991.634
144.629	20.612	1259.106	990.751
145.643	20.599	1257.318	989.185
146.658	20.530	1256.803	988.300
147.673	20.567	1255.843	987.666
148.687	20.557	1254.692	986.614
149.702	20.699	1253.386	986.307
150.716	20.567	1252.262	984.587
151.731	20.715	1250.785	984.179
152.746	20.751	1249.779	983.502
153.760	20.716	1248.825	982.468
154.775	20.683	1248.314	981.788
155.789	20.630	1247.040	980.405
156.804	20.636	1246.457	979.890
157.819	20.635	1245.238	978.844
158.833	20.631	1244.252	977.957
159.848	20.723	1243.543	977.833
160.862	20.758	1242.653	977.242
161.877	20.705	1242.036	976.371
162.892	20.815	1240.563	975.741
163.906	20.616	1240.860	974.775
164.921	20.686	1239.654	974.133
165.935	20.684	1239.015	973.532
166.950	20.724	1238.057	972.917
167.964	20.853	1237.404	973.037
168.979	20.833	1237.132	972.631
169.994	20.712	1236.863	971.654
171.008	20.756	1235.850	971.017
172.023	20.800	1234.797	970.353
173.037	20.765	1234.552	969.880
174.052	20.858	1233.626	969.580
175.067	20.792	1232.561	968.294
176.081	20.893	1231.873	968.228
177.096	20.832	1231.060	967.163
178.110	20.741	1230.755	966.334
179.125	20.879	1228.991	965.626
180.140	20.920	1227.890	964.905
181.154	20.870	1226.964	963.817
182.169	20.828	1225.978	962.724
183.183	20.766	1225.144	961.641
184.198	20.830	1223.645	960.732
185.213	20.922	1222.947	960.606
186.227	20.805	1222.374	959.429
187.242	20.802	1221.568	958.691
188.256	20.754	1220.531	957.529
189.271	20.892	1219.242	957.191
190.286	20.918	1218.491	956.661
191.300	20.893	1217.964	956.025
192.315	20.880	1217.978	955.880
193.329	20.876	1217.317	955.256
194.344	20.899	1216.936	954.999
195.359	20.942	1216.191	954.565
196.373	20.883	1215.877	953.912
197.388	20.913	1215.366	953.591
198.402	20.808	1214.875	952.544
199.417	20.833	1214.638	952.412
200.432	20.939	1213.620	952.107
201.446	20.849	1213.013	951.056
202.461	20.901	1212.224	950.639
203.475	20.873	1211.448	949.789
204.490	20.872	1210.565	949.009
205.504	20.799	1209.926	948.025
206.519	20.920	1208.676	947.619
207.534	20.903	1207.621	946.618
208.548	20.928	1206.612	945.879
209.563	20.957	1205.778	945.299
210.577	20.936	1205.036	944.518
211.592	20.965	1204.267	943.989
212.607	20.882	1203.973	943.229
213.621	21.036	1203.187	943.363
214.636	21.043	1202.191	942.537
215.650	21.038	1201.331	941.749
216.665	20.952	1200.464	940.525
217.680	20.980	1199.290	939.671
218.694	21.012	1198.854	939.421
219.709	21.026	1198.149	938.856
220.723	21.118	1197.052	938.411
221.738	20.985	1196.649	937.294
222.753	20.876	1196.171	936.256
223.767	21.064	1194.970	936.241
224.782	21.030	1194.684	935.750
225.796	21.013	1194.538	935.461
226.811	21.042	1193.656	934.843
227.826	21.040	1193.202	934.393
228.840	21.075	1192.345	933.828
229.855	21.064	1191.514	933.035
230.869	21.108	1190.821	932.646
231.884	21.063	1190.284	931.902
232.899	21.004	1189.754	931.090
233.913	21.068	1188.902	930.682
234.928	21.136	1188.428	930.590
235.942	21.051	1187.970	929.699
236.957	21.153	1187.003	929.402
237.972	21.114	1186.242	928.515
238.986	21.165	1185.892	928.432
240.001	21.257	1185.342	928.406
241.015	21.268	1184.547	927.763
242.030	21.170	1184.219	926.900
243.045	21.225	1183.195	926.311
244.059	21.278	1182.175	925.708
245.074	21.309	1181.357	925.152
246.088	21.359	1180.533	924.688
247.103	21.331	1179.879	923.948
248.117	21.254	1179.008	922.779
249.132	21.274	1178.201	922.170
250.147	21.286	1177.462	921.574
251.161	21.277	1177.255	921.282
252.176	21.270	1176.518	920.583
253.190	21.273	1176.195	920.265
254.205	21.329	1174.866	919.439
255.220	21.230	1175.115	919.033
256.234	21.388	1174.058	918.958
257.249	21.376	1173.429	918.318
258.263	21.281	1173.013	917.412
259.278	21.420	1172.291	917.500
260.293	21.504	1171.270	917.060
261.307	21.383	1171.055	916.175
262.322	21.363	1170.891	915.858
263.336	21.372	1169.948	915.086
264.351	21.296	1169.447	914.218
265.366	21.408	1168.282	913.812
266.380	21.419	1167.757	913.377
267.395	21.330	1167.289	912.467
268.409	21.308	1167.035	912.070
269.424	21.275	1166.733	911.583
270.439	21.363	1165.739	911.186
271.453	21.395	1165.299	910.928
272.468	21.459	1164.302	910.399
273.482	21.342	1163.742	909.275
274.497	21.409	1163.226	909.135
275.512	21.396	1163.017	908.824
276.526	21.421	1161.881	907.985
277.541	21.503	1160.843	907.520
278.555	21.435	1160.676	906.959
279.570	21.477	1159.870	906.467
280.585	21.420	1158.773	905.232
281.599	21.533	1157.922	905.075
282.614	21.572	1157.266	904.681
283.628	21.570	1156.076	903.660
284.643	21.637	1155.724	903.650
285.657	21.636	1154.717	902.779
286.672	21.497	1153.958	901.392
287.687	21.538	1153.015	900.785
288.701	21.692	1152.102	900.784
289.716	21.570	1151.576	899.666
290.730	21.627	1151.106	899.512
291.745	21.716	1150.020	899.039
292.760	21.613	1149.824	898.277
293.774	21.664	1149.774	898.419
294.789	21.674	1148.975	897.767
295.803	21.694	1148.221	897.203
296.818	21.695	1147.462	896.537
297.833	21.640	1146.884	895.724
298.847	21.595	1146.553	895.154
299.862	21.841	1145.252	895.318
300.876	21.748	1144.658	894.296
301.891	21.792	1143.928	893.875
302.906	21.779	1143.485	893.382
303.920	21.628	1143.432	892.490
304.935	21.744	1142.443	892.233
305.949	21.713	1141.811	891.503
306.964	21.838	1140.955	891.389
307.979	21.795	1140.624	890.833
308.993	21.867	1139.660	890.365
310.008	21.767	1138.855	889.153
311.022	21.911	1138.430	889.473
312.037	21.847	1137.511	888.349
313.052	21.813	1136.512	887.319
314.066	21.827	1135.769	886.732
315.081	21.874	1135.180	886.432
316.095	21.859	1134.745	885.936
317.110	21.835	1134.341	885.420
318.125	21.975	1133.245	885.193
319.139	21.909	1132.902	884.514
320.154	21.883	1132.328	883.858
321.168	21.895	1131.316	883.051
322.183	21.751	1130.991	881.994
323.197	21.897	1130.588	882.337
324.212	21.991	1129.741	882.067
325.227	21.894	1129.564	881.367
326.241	22.069	1128.712	881.500
327.256	21.867	1128.151	879.971
328.270	21.895	1127.367	879.425
329.285	21.973	1126.152	878.787
330.300	21.984	1125.552	878.295
331.314	21.952	1124.387	877.149
332.329	22.002	1123.672	876.766
333.343	22.203	1122.767	876.982
334.358	22.078	1122.155	875.803
335.373	22.060	1121.938	875.470
336.387	22.146	1120.999	875.084
337.402	22.078	1120.288	874.114
338.416	22.095	1119.672	873.639
339.431	22.077	1119.075	873.009
340.446	22.137	1118.598	872.857
341.460	22.089	1118.070	872.131
342.475	22.184	1116.911	871.620
343.489	22.111	1116.369	870.757
344.504	22.113	1115.447	869.971
345.519	22.172	1114.461	869.418
346.533	22.126	1113.895	868.674
347.548	22.231	1112.989	868.405
348.562	22.244	1111.748	867.428
349.577	22.192	1111.773	867.112
350.592	22.189	1110.898	866.337
351.606	22.230	1110.472	866.130
352.621	22.121	1109.905	865.078
353.635	22.213	1109.160	864.872
354.650	22.321	1108.488	864.803
355.665	22.380	1107.792	864.470
356.679	22.311	1107.285	863.660
357.694	22.327	1106.648	863.169
358.708	22.224	1106.096	862.153
359.723	22.276	1105.581	861.934
360.738	22.255	1104.750	861.103
361.752	22.361	1104.371	861.253
362.767	22.311	1103.752	860.448
363.781	22.329	1103.401	860.187
364.796	22.420	1102.420	859.790
365.810	22.431	1102.069	859.492
366.825	22.453	1101.656	859.203
367.840	22.478	1101.105	858.821
368.854	22.427	1100.677	858.161
369.869	22.477	1099.625	857.510
370.883	22.547	1098.609	856.983
371.898	22.458	1098.327	856.250
372.913	22.539	1097.588	855.993
373.927	22.534	1097.227	855.612
374.942	22.562	1096.475	855.086
375.956	22.426	1096.418	854.305
376.971	22.540	1096.203	854.615
377.986	22.547	1095.044	853.670
379.000	22.537	1094.337	852.995
380.015	22.633	1094.175	853.259
381.029	22.587	1093.458	852.401
382.044	22.521	1092.662	851.385
383.059	22.547	1092.307	851.160
384.073	22.591	1091.353	850.552
385.088	22.642	1090.138	849.776
386.102	22.621	1089.530	849.125
387.117	22.541	1088.566	847.917
388.132	22.572	1087.764	847.366
389.146	22.678	1087.343	847.469
390.161	22.663	1086.744	846.859
391.175	22.614	1086.078	846.028
392.190	22.648	1085.520	845.684
393.205	22.637	1084.819	845.008
394.219	22.690	1083.822	844.409
395.234	22.687	1083.182	843.824
396.248	22.751	1081.934	843.082
397.263	22.892	1080.833	842.823
398.278	22.770	1080.992	842.288
399.292	22.865	1080.373	842.186
400.307	22.887	1079.407	841.465
401.321	22.842	1078.855	840.746
402.336	22.784	1078.154	839.850
403.350	22.690	1077.876	839.109
404.365	22.924	1076.848	839.349
405.380	22.964	1075.746	838.604
406.394	22.835	1075.520	837.741
407.409	22.846	1074.928	837.257
408.423	22.872	1074.124	836.679
409.438	22.944	1073.234	836.252
410.453	22.872	1072.591	835.337
411.467	22.920	1072.027	835.054
412.482	22.920	1071.111	834.266
413.496	23.042	1070.385	834.199
414.511	22.945	1069.782	833.202
415.526	22.835	1069.784	832.610
416.540	22.961	1069.366	832.804
417.555	23.000	1068.738	832.426
418.569	23.032	1068.166	832.057
419.584	22.951	1067.996	831.470
420.599	22.981	1067.404	831.075
421.613	149.470	1397.924	1797.077
422.628	137.678	1446.057	1797.188
