DTS Sentinel unit serial number:	SN413079Multiplexer serial number:	ORYXHardware model number:	OX4-SRSoftware version number:	ORYX F/W v4.00 Oryx Data Collector v3.7.2.0data status	okinstallation	princeton_trtdifferential loss correction	single-endedforward channel	channel 2reverse channel	N/Adate	2019/09/12time	23:43:35forward acquisition time	60.00reverse acquisition time	0.00gamma	496.2192k internal	0.2332k external	0.2332temperature offset calibration	1.0177default loss term (dB/km)	0.3790temperature slope calibration	1.0000multiplexer offset coefficient	1.0000multiplexer slope coefficient	1.0000fibre end	0.00T internal ref (°C)	28.81T ext. ref 1 (°C)	3.78T ext. ref 2 (°C)	23.51length (m)	temperature (°C)	Stokes	anti-Stokes-747.200	800.000	0.037	-0.155
-746.185	-126.927	-0.168	-0.025
-745.171	-200.000	-0.012	-0.078
-744.156	800.000	0.138	0.512
-743.142	-41.982	-0.396	-0.204
-742.127	800.000	0.077	0.222
-741.112	-46.939	0.121	0.059
-740.098	-114.494	-0.190	0.037
-739.083	180.808	-0.092	-0.136
-738.069	-200.000	0.058	0.259
-737.054	415.591	-0.161	0.344
-736.039	52.032	-0.162	0.155
-735.025	118.075	0.117	-0.146
-734.010	-146.114	-0.414	0.037
-732.996	800.000	-0.126	-0.457
-731.981	-152.710	-0.132	-0.009
-730.966	-200.000	0.010	-0.173
-729.952	-200.000	0.027	-0.200
-728.937	107.340	0.051	0.061
-727.923	-58.070	-0.240	0.105
-726.908	-97.428	0.159	0.042
-725.894	-67.782	-0.139	0.055
-724.879	-200.000	0.006	0.041
-723.864	-160.067	-0.474	-0.026
-722.850	-118.896	0.225	0.040
-721.835	-70.233	-0.168	0.064
-720.821	733.983	-0.062	-0.165
-719.806	408.869	0.139	-0.296
-718.791	86.941	-0.140	0.155
-717.777	46.509	-0.037	0.035
-716.762	45.075	0.088	0.082
-715.748	-85.683	-0.468	-0.146
-714.733	-200.000	-0.007	0.169
-713.718	-200.000	0.021	-0.229
-712.704	-52.730	-0.310	-0.144
-711.689	-31.637	0.074	-0.042
-710.675	-83.403	-0.084	0.027
-709.660	41.555	0.052	0.047
-708.645	32.550	-0.146	-0.127
-707.631	-200.000	0.014	-0.285
-706.616	-200.000	0.010	-0.119
-705.602	-200.000	-0.002	-0.195
-704.587	35.053	-0.104	0.092
-703.572	800.000	0.052	0.214
-702.558	444.966	-0.082	0.180
-701.543	800.000	-0.060	-0.262
-700.529	-120.619	-0.316	-0.054
-699.514	-64.887	-0.147	-0.060
-698.499	-200.000	-0.063	-0.295
-697.485	99.105	0.096	-0.112
-696.470	57.063	0.101	-0.099
-695.456	-34.400	0.161	0.089
-694.441	-1.243	-0.195	0.138
-693.426	-85.781	-0.073	0.023
-692.412	375.665	0.040	0.081
-691.397	322.557	0.145	-0.277
-690.383	-34.589	-0.203	0.112
-689.368	800.000	0.044	-0.165
-688.354	800.000	-0.029	0.082
-687.339	-122.397	-0.414	0.068
-686.324	-123.710	-0.121	0.019
-685.310	-26.007	-0.326	-0.193
-684.295	-74.152	0.265	0.096
-683.281	-152.415	-0.072	0.005
-682.266	331.829	-0.192	-0.371
-681.251	-24.903	0.161	-0.096
-680.237	-153.334	0.314	-0.022
-679.222	-11.641	0.219	-0.145
-678.208	376.491	-0.189	-0.388
-677.193	-102.409	-0.182	0.044
-676.178	-120.876	-0.262	-0.044
-675.164	-200.000	0.058	-0.352
-674.149	-58.816	-0.061	-0.026
-673.135	-114.159	-0.491	-0.095
-672.120	-142.550	0.198	0.019
-671.105	-200.000	-0.028	-0.223
-670.091	49.072	-0.031	-0.029
-669.076	-113.662	-0.357	-0.070
-668.062	218.518	-0.064	0.103
-667.047	-200.000	0.016	0.182
-666.032	65.477	0.174	-0.177
-665.018	-41.802	-0.289	0.149
-664.003	67.937	-0.122	-0.125
-662.989	41.415	-0.368	-0.334
-661.974	-73.966	0.294	-0.107
-660.959	-96.636	-0.449	0.119
-659.945	-91.558	0.241	0.069
-658.930	100.636	0.026	0.030
-657.916	752.127	-0.074	-0.199
-656.901	-42.379	0.443	-0.227
-655.886	167.265	-0.048	0.069
-654.872	178.609	-0.085	-0.125
-653.857	67.807	-0.241	-0.247
-652.843	-84.115	-0.201	-0.064
-651.828	109.285	-0.199	-0.239
-650.814	-134.998	-0.066	0.008
-649.799	-184.925	-0.217	0.003
-648.784	46.853	-0.190	0.177
-647.770	-52.526	-0.273	0.126
-646.755	26.232	0.071	0.060
-645.741	-36.694	0.157	-0.085
-644.726	-200.000	0.006	-0.253
-643.711	-37.570	-0.255	0.136
-642.697	109.960	-0.189	-0.227
-641.682	-46.105	-0.285	-0.141
-640.668	-103.802	-0.071	-0.017
-639.653	-200.000	-0.031	0.225
-638.638	-200.000	-0.021	-0.193
-637.624	135.735	-0.153	-0.200
-636.609	43.982	0.258	-0.237
-635.595	248.275	-0.074	0.125
-634.580	-200.000	0.013	0.213
-633.565	800.000	0.030	0.106
-632.551	-198.706	-0.180	-0.001
-631.536	229.667	-0.058	-0.094
-630.522	154.018	0.170	0.234
-629.507	-130.525	0.250	-0.034
-628.492	364.433	0.022	-0.045
-627.478	-94.601	-0.155	0.042
-626.463	320.151	-0.099	0.188
-625.449	800.000	0.063	-0.266
-624.434	-200.000	-0.031	-0.165
-623.419	-200.000	-0.005	-0.222
-622.405	202.446	-0.082	0.126
-621.390	60.891	0.051	-0.050
-620.376	-85.474	0.177	0.055
-619.361	5.364	-0.336	-0.248
-618.346	-94.297	-0.213	-0.058
-617.332	-200.000	0.002	0.182
-616.317	50.838	0.110	0.104
-615.303	187.050	-0.036	0.054
-614.288	108.442	0.109	-0.130
-613.273	800.000	-0.067	-0.273
-612.259	85.528	-0.141	-0.155
-611.244	-176.810	0.141	0.004
-610.230	800.000	0.100	-0.280
-609.215	13.144	0.217	-0.168
-608.201	324.885	0.300	-0.574
-607.186	-200.000	0.017	0.229
-606.171	412.955	0.079	-0.167
-605.157	290.840	0.068	0.124
-604.142	-42.229	0.058	-0.030
-603.128	-48.143	-0.199	0.096
-602.113	-200.000	0.030	0.283
-601.098	24.449	0.235	0.195
-600.084	289.681	-0.106	0.192
-599.069	800.000	-0.056	0.191
-598.055	-33.727	-0.278	-0.153
-597.040	-78.204	-0.265	0.091
-596.025	-147.311	-0.085	-0.007
-595.011	258.071	-0.056	-0.097
-593.996	-200.000	0.025	-0.308
-592.982	-200.000	-0.003	0.158
-591.967	-200.000	-0.008	-0.113
-590.952	-200.000	0.046	0.218
-589.938	-94.952	-0.179	-0.048
-588.923	405.207	0.017	0.037
-587.909	-170.135	-0.108	-0.004
-586.894	-200.000	-0.051	-0.227
-585.879	-40.019	-0.394	0.205
-584.865	81.322	-0.342	-0.370
-583.850	-127.503	0.266	0.039
-582.836	397.686	0.144	0.301
-581.821	-124.916	-0.222	-0.034
-580.806	-67.287	-0.235	-0.093
-579.792	367.512	0.026	-0.052
-578.777	161.501	0.098	0.137
-577.763	-200.000	-0.005	0.041
-576.748	-135.706	0.285	-0.034
-575.733	-157.495	0.192	-0.012
-574.719	-68.369	-0.155	-0.060
-573.704	-200.000	0.011	-0.217
-572.690	226.248	0.143	0.232
-571.675	-86.324	0.045	-0.014
-570.661	274.092	-0.075	-0.133
-569.646	743.684	-0.125	-0.335
-568.631	-66.175	0.097	-0.039
-567.617	79.908	-0.106	-0.114
-566.602	-200.000	-0.020	-0.093
-565.588	257.556	-0.111	-0.191
-564.573	299.254	0.227	-0.417
-563.558	46.444	0.149	-0.138
-562.544	-200.000	-0.008	0.063
-561.529	774.640	-0.035	0.096
-560.515	-200.000	-0.040	-0.219
-559.500	-188.404	-0.482	-0.006
-558.485	146.448	0.100	-0.134
-557.471	-112.654	-0.447	0.089
-556.456	325.303	0.022	0.042
-555.442	197.601	-0.117	-0.178
-554.427	-180.090	0.146	-0.003
-553.412	49.280	-0.124	0.116
-552.398	241.517	0.117	0.195
-551.383	-200.000	0.045	-0.350
-550.369	48.359	-0.197	-0.184
-549.354	-200.000	0.017	-0.145
-548.339	-130.581	0.438	-0.059
-547.325	800.000	0.073	0.234
-546.310	11.324	-0.117	-0.089
-545.296	-105.574	0.169	0.038
-544.281	800.000	-0.057	-0.179
-543.266	800.000	-0.068	-0.216
-542.252	800.000	-0.018	0.060
-541.237	800.000	0.021	0.090
-540.223	70.412	-0.058	0.060
-539.208	-200.000	-0.021	0.218
-538.193	-8.753	-0.434	0.290
-537.179	-144.972	-0.186	0.017
-536.164	-36.763	-0.257	-0.138
-535.150	134.316	0.075	-0.097
-534.135	33.598	-0.235	0.204
-533.121	-39.133	-0.134	0.070
-532.106	-136.019	0.063	-0.007
-531.091	-8.253	0.187	0.125
-530.077	-200.000	0.039	-0.258
-529.062	61.566	-0.145	-0.144
-528.048	105.621	0.262	0.309
-527.033	205.368	0.092	-0.143
-526.018	-200.000	0.041	0.194
-525.004	75.140	0.119	-0.125
-523.989	-200.000	-0.079	-0.393
-522.975	-41.258	0.187	-0.096
-521.960	-47.924	0.093	0.045
-520.945	73.651	0.060	-0.062
-519.931	98.052	-0.132	-0.151
-518.916	-200.000	-0.011	-0.344
-517.902	242.842	-0.132	0.221
-516.887	-200.000	0.003	-0.334
-515.872	1.355	-0.199	-0.143
-514.858	-150.697	0.159	0.012
-513.843	456.633	-0.083	0.184
-512.829	800.000	-0.006	-0.015
-511.814	800.000	-0.023	-0.070
-510.799	69.411	-0.086	0.088
-509.785	-72.012	-0.111	0.041
-508.770	-127.989	0.167	0.024
-507.756	691.335	0.041	0.107
-506.741	51.202	0.154	0.146
-505.726	-180.893	0.163	0.003
-504.712	9.941	-0.097	0.073
-503.697	224.664	-0.051	0.083
-502.683	-200.000	0.017	-0.143
-501.668	-200.000	0.036	0.237
-500.653	-53.675	-0.102	-0.046
-499.639	-24.379	0.174	-0.103
-498.624	-118.337	-0.238	-0.042
-497.610	-54.193	-0.045	-0.021
-496.595	-53.634	0.108	-0.049
-495.581	800.000	-0.072	0.212
-494.566	400.609	0.051	0.106
-493.551	-47.751	-0.152	-0.073
-492.537	5.716	0.340	0.250
-491.522	126.660	0.143	0.181
-490.508	269.855	-0.120	-0.210
-489.493	-60.936	-0.086	-0.036
-488.478	-200.000	0.129	0.690
-487.464	83.781	0.044	0.048
-486.449	-200.000	-0.003	-0.045
-485.435	146.985	-0.197	0.264
-484.420	-200.000	0.038	-0.261
-483.405	326.112	-0.074	-0.140
-482.391	-29.190	0.180	0.103
-481.376	-151.879	0.266	-0.019
-480.362	-200.000	-0.029	-0.217
-479.347	219.676	-0.098	-0.156
-478.332	-51.399	-0.246	0.115
-477.318	-10.346	0.196	-0.129
-476.303	-200.000	-0.046	0.362
-475.289	800.000	-0.056	0.186
-474.274	6.178	0.134	-0.099
-473.259	-63.736	0.192	-0.078
-472.245	-200.000	-0.103	0.466
-471.230	4.199	-0.196	-0.143
-470.216	-200.000	0.025	0.175
-469.201	672.795	0.124	0.319
-468.186	-200.000	0.002	-0.144
-467.172	-200.000	-0.030	-0.421
-466.157	377.637	-0.199	-0.404
-465.143	108.787	0.135	0.160
-464.128	4.940	0.102	0.074
-463.113	365.536	-0.355	0.712
-462.099	129.938	-0.063	0.080
-461.084	-28.260	0.100	0.058
-460.070	72.611	-0.110	0.114
-459.055	516.095	0.073	0.169
-458.040	800.000	-0.098	-0.351
-457.026	-99.527	0.157	0.039
-456.011	0.393	0.190	-0.135
-454.997	-44.692	0.356	-0.177
-453.982	-24.455	0.312	-0.185
-452.968	-92.986	-0.044	0.012
-451.953	-69.449	-0.318	0.121
-450.938	-62.287	0.162	0.067
-449.924	800.000	-0.063	0.247
-448.909	452.602	0.059	0.131
-447.895	503.887	0.046	0.106
-446.880	7.359	-0.328	0.244
-445.865	-82.786	0.141	0.045
-444.851	800.000	-0.079	0.309
-443.836	-124.156	0.283	-0.044
-442.822	800.000	-0.026	0.102
-441.807	-200.000	0.042	0.210
-440.792	-86.946	-0.090	-0.027
-439.778	800.000	-0.039	0.111
-438.763	-46.343	-0.260	0.127
-437.749	-200.000	-0.104	0.499
-436.734	-200.000	-0.068	0.373
-435.719	660.368	0.083	0.214
-434.705	208.134	0.197	0.306
-433.690	-93.172	0.129	0.036
-432.676	94.001	0.126	-0.142
-431.661	779.700	0.036	-0.098
-430.646	249.177	0.099	0.167
-429.632	-73.431	-0.174	-0.063
-428.617	-200.000	0.026	-0.126
-427.603	-150.482	0.122	-0.009
-426.588	66.618	-0.232	0.235
-425.573	128.502	-0.069	0.088
-424.559	157.391	-0.096	-0.132
-423.544	224.033	0.142	-0.228
-422.530	-200.000	-0.022	-0.095
-421.515	-200.000	-0.044	0.197
-420.500	-200.000	-0.006	0.282
-419.486	145.381	0.107	-0.142
-418.471	-47.842	0.144	0.069
-417.457	-200.000	-0.070	-0.385
-416.442	-118.036	-0.346	0.061
-415.428	-51.253	0.149	-0.069
-414.413	141.164	0.258	0.339
-413.398	800.000	0.026	0.096
-412.384	28.243	-0.324	0.272
-411.369	59.170	-0.111	0.109
-410.355	800.000	-0.014	0.061
-409.340	-169.693	-0.111	-0.004
-408.325	55.620	-0.296	0.284
-407.311	-124.447	0.095	0.015
-406.296	45.489	0.057	0.052
-405.282	174.671	0.050	0.072
-404.267	-0.055	-0.158	-0.111
-403.252	-190.365	-0.236	0.003
-402.238	800.000	0.039	-0.136
-401.223	-88.478	-0.290	-0.086
-400.209	347.269	0.060	0.116
-399.194	-200.000	-0.012	-0.108
-398.179	-104.727	0.151	0.034
-397.165	114.014	0.278	0.335
-396.150	-2.875	0.089	0.062
-395.136	116.899	0.140	0.171
-394.121	-13.564	0.140	-0.090
-393.106	-114.864	-0.240	0.045
-392.092	-53.750	-0.336	0.152
-391.077	351.940	0.160	0.314
-390.063	-200.000	-0.001	0.204
-389.048	-200.000	0.017	0.358
-388.033	472.147	0.042	-0.094
-387.019	-38.938	0.095	-0.050
-386.004	-44.132	0.226	-0.113
-384.990	-60.481	-0.185	0.078
-383.975	201.022	-0.058	-0.089
-382.960	-60.925	-0.065	-0.027
-381.946	45.142	0.068	-0.062
-380.931	-200.000	0.006	0.060
-379.917	-80.883	-0.307	-0.101
-378.902	-60.283	-0.122	-0.051
-377.888	-140.460	0.253	0.026
-376.873	9.185	0.075	0.056
-375.858	87.212	0.052	-0.057
-374.844	-25.372	0.353	0.207
-373.829	-100.879	0.076	-0.019
-372.815	-114.271	-0.226	0.043
-371.800	139.780	0.150	0.195
-370.785	-200.000	0.008	-0.200
-369.771	-11.717	0.075	-0.049
-368.756	-177.025	0.023	-0.001
-367.742	-56.248	0.391	0.172
-366.727	-196.472	0.380	0.003
-365.712	44.947	-0.242	-0.221
-364.698	-36.096	-0.200	-0.107
-363.683	-60.974	-0.200	0.084
-362.669	-200.000	0.004	-0.131
-361.654	-200.000	0.010	-0.073
-360.639	-169.025	0.073	0.003
-359.625	-27.018	-0.334	0.193
-358.610	184.771	0.205	0.302
-357.596	330.387	0.107	-0.205
-356.581	800.000	-0.030	0.086
-355.566	-200.000	-0.009	0.190
-354.552	-128.889	-0.209	-0.029
-353.537	248.927	0.019	0.031
-352.523	64.493	0.264	-0.264
-351.508	-200.000	0.003	-0.019
-350.493	209.961	0.058	-0.090
-349.479	-35.784	-0.277	0.149
-348.464	-72.531	-0.227	-0.083
-347.450	43.029	-0.132	-0.119
-346.435	-109.031	0.342	-0.072
-345.420	-120.452	0.436	-0.073
-344.406	-155.068	0.198	-0.013
-343.391	-200.000	0.050	-0.384
-342.377	-200.000	-0.015	0.196
-341.362	548.935	0.122	-0.290
-340.348	5.047	-0.237	-0.172
-339.333	-21.116	-0.122	0.074
-338.318	404.938	-0.172	0.359
-337.304	-74.310	-0.255	0.091
-336.289	-61.675	-0.401	0.166
-335.275	-61.652	-0.104	0.043
-334.260	-38.486	0.214	-0.112
-333.245	-200.000	-0.029	-0.165
-332.231	800.000	-0.039	0.133
-331.216	-200.000	-0.034	-0.157
-330.202	-200.000	-0.023	0.198
-329.187	-125.906	0.243	-0.036
-328.172	19.870	0.318	-0.253
-327.158	324.495	0.044	-0.083
-326.143	-128.865	-0.158	0.022
-325.129	106.691	0.153	0.180
-324.114	-200.000	-0.039	0.233
-323.099	-200.000	0.016	0.129
-322.085	21.601	-0.283	-0.228
-321.070	-170.870	-0.141	0.005
-320.056	-200.000	-0.010	-0.050
-319.041	-104.403	0.077	0.018
-318.026	35.007	0.056	0.049
-317.012	300.607	-0.141	-0.258
-315.997	418.427	0.113	0.239
-314.983	-200.000	0.041	0.373
-313.968	-112.777	0.178	0.035
-312.953	624.717	-0.106	-0.265
-311.939	-151.170	0.106	0.008
-310.924	-64.273	-0.124	-0.050
-309.910	131.922	-0.110	0.140
-308.895	29.104	-0.131	-0.110
-307.880	513.081	-0.212	-0.488
-306.866	-106.536	0.352	-0.078
-305.851	-69.170	0.376	0.143
-304.837	-200.000	-0.005	0.269
-303.822	-101.435	0.536	-0.129
-302.807	-200.000	0.031	-0.144
-301.793	-200.000	0.016	0.084
-300.778	12.387	0.260	-0.198
-299.764	-200.000	-0.002	-0.269
-298.749	-80.511	0.087	-0.029
-297.735	-41.737	-0.113	0.057
-296.720	-200.000	0.051	0.238
-295.705	59.741	0.253	-0.247
-294.691	-153.587	0.131	0.009
-293.676	-156.663	-0.136	0.008
-292.662	0.117	-0.214	-0.151
-291.647	87.791	-0.104	-0.114
-290.632	68.114	0.342	-0.346
-289.618	-101.070	-0.162	0.039
-288.603	-200.000	-0.009	-0.091
-287.589	800.000	0.033	-0.108
-286.574	800.000	-0.056	-0.237
-285.559	136.211	-0.092	-0.119
-284.545	-28.649	-0.122	-0.069
-283.530	17.670	0.134	0.105
-282.516	-200.000	0.008	0.225
-281.501	14.570	-0.137	-0.106
-280.486	81.262	0.137	0.146
-279.472	-200.000	-0.059	-0.379
-278.457	514.114	0.111	-0.255
-277.443	114.467	0.031	-0.038
-276.428	-117.248	-0.165	-0.030
-275.413	198.657	-0.196	0.296
-274.399	113.711	-0.224	0.269
-273.384	217.711	0.149	-0.235
-272.370	-164.901	0.272	0.012
-271.355	-120.034	0.195	-0.033
-270.340	-70.005	0.093	0.035
-269.326	-41.029	-0.265	0.135
-268.311	800.000	0.117	-0.336
-267.297	-149.275	0.064	-0.005
-266.282	-98.965	-0.472	-0.118
-265.267	512.306	0.121	-0.278
-264.253	800.000	-0.010	0.027
-263.238	-41.777	-0.254	-0.129
-262.224	-200.000	-0.000	0.127
-261.209	800.000	-0.026	0.095
-260.195	128.837	-0.103	-0.129
-259.180	-200.000	-0.005	0.079
-258.165	-45.209	-0.215	-0.105
-257.151	252.730	0.086	-0.144
-256.136	-88.985	-0.269	0.078
-255.122	117.014	0.160	-0.194
-254.107	-200.000	-0.057	-0.295
-253.092	-46.675	0.064	0.031
-252.078	270.240	-0.143	-0.248
-251.063	-200.000	-0.010	0.115
-250.049	-86.237	0.190	0.058
-249.034	263.806	-0.217	0.372
-248.019	-42.846	-0.182	-0.091
-247.005	66.159	-0.058	-0.059
-245.990	-21.852	0.248	0.149
-244.976	-48.772	-0.334	-0.158
-243.961	800.000	0.084	0.285
-242.946	-57.900	0.218	-0.094
-241.932	800.000	0.068	-0.264
-240.917	160.993	0.114	0.156
-239.903	-93.563	-0.520	-0.142
-238.888	-200.000	0.003	0.118
-237.873	-200.000	0.020	-0.411
-236.859	-116.577	0.279	-0.051
-235.844	-89.298	0.234	0.068
-234.830	-72.037	0.235	-0.086
-233.815	37.265	-0.113	0.099
-232.800	-98.694	-0.252	-0.063
-231.786	-21.668	-0.136	0.082
-230.771	-200.000	0.007	-0.090
-229.757	18.780	0.146	-0.115
-228.742	-99.737	-0.202	0.050
-227.727	800.000	0.091	-0.308
-226.713	28.927	-0.172	-0.144
-225.698	-120.065	0.317	0.054
-224.684	-73.598	0.181	0.065
-223.669	-57.024	0.300	-0.131
-222.655	6.380	0.127	0.093
-221.640	-1.486	0.334	-0.232
-220.625	154.910	0.163	0.221
-219.611	444.050	0.124	-0.268
-218.596	78.960	-0.143	0.151
-217.582	800.000	-0.008	-0.023
-216.567	-67.005	0.405	-0.157
-215.552	162.511	0.060	-0.083
-214.538	-131.677	-0.110	-0.014
-213.523	227.581	0.185	-0.296
-212.509	-94.726	0.157	0.042
-211.494	-142.856	-0.130	-0.012
-210.479	-184.438	-0.344	0.006
-209.465	800.000	0.118	0.322
-208.450	239.179	-0.294	0.481
-207.436	-200.000	0.013	0.109
-206.421	680.671	0.072	-0.186
-205.406	-200.000	0.011	-0.054
-204.392	-82.282	-0.173	0.055
-203.377	46.185	0.188	-0.172
-202.363	-200.000	-0.012	-0.195
-201.348	81.192	0.207	-0.220
-200.333	-200.000	-0.041	-0.362
-199.319	-29.602	-0.064	0.036
-198.304	800.000	0.098	0.296
-197.290	160.893	-0.059	0.082
-196.275	-200.000	0.079	-0.415
-195.260	-171.235	0.241	-0.008
-194.246	218.259	0.114	0.180
-193.231	-113.235	0.369	-0.071
-192.217	134.695	-0.243	0.310
-191.202	-4.583	0.117	0.079
-190.187	-200.000	-0.037	-0.269
-189.173	-114.960	0.230	-0.043
-188.158	-116.821	-0.263	0.047
-187.144	33.130	-0.174	-0.148
-186.129	76.723	0.116	0.121
-185.114	47.913	-0.224	-0.206
-184.100	-41.533	-0.357	-0.181
-183.085	-100.404	0.396	0.097
-182.071	216.767	0.282	0.441
-181.056	-69.652	-0.134	0.050
-180.042	-190.217	0.085	0.001
-179.027	3.935	-0.275	0.198
-178.012	-200.000	0.003	0.329
-176.998	-47.124	0.195	0.093
-175.983	800.000	0.036	-0.136
-174.969	21.586	-0.180	0.144
-173.954	69.184	0.096	0.097
-172.939	-59.158	0.228	-0.097
-171.925	-83.710	-0.060	0.019
-170.910	322.848	0.104	0.195
-169.896	-49.148	-0.131	-0.062
-168.881	800.000	-0.099	-0.312
-167.866	800.000	-0.127	0.395
-166.852	285.868	-0.027	0.048
-165.837	128.734	-0.117	-0.146
-164.823	-127.221	0.235	-0.034
-163.808	156.064	0.255	0.346
-162.793	51.202	0.038	0.035
-161.779	152.210	0.155	-0.208
-160.764	-200.000	-0.039	-0.183
-159.750	-73.677	0.197	-0.071
-158.735	-200.000	0.038	0.284
-157.720	10.288	-0.107	0.080
-156.706	154.787	0.106	0.143
-155.691	-31.051	0.351	0.195
-154.677	-114.749	-0.433	-0.081
-153.662	2.122	-0.112	0.080
-152.647	-200.000	0.035	-0.174
-151.633	-200.000	0.032	0.359
-150.618	-200.000	0.035	0.165
-149.604	-70.911	0.115	0.043
-148.589	-200.000	-0.005	0.063
-147.574	-109.260	-0.303	0.063
-146.560	-22.363	-0.213	-0.127
-145.545	-124.160	-0.109	-0.017
-144.531	-200.000	0.015	0.243
-143.516	800.000	-0.091	0.287
-142.502	601.750	-0.094	0.230
-141.487	188.983	-0.208	0.306
-140.472	257.478	-0.135	-0.228
-139.458	-200.000	-0.060	0.273
-138.443	311.797	-0.038	0.070
-137.429	-65.548	0.190	-0.075
-136.414	-60.787	0.124	-0.052
-135.399	-36.626	-0.331	0.175
-134.385	-14.106	-0.269	0.170
-133.370	-23.544	0.177	0.104
-132.356	-133.130	0.031	0.004
-131.341	273.493	-0.194	0.338
-130.326	-200.000	-0.046	0.402
-129.312	54.269	-0.311	0.294
-128.297	257.104	-0.121	0.205
-127.283	312.222	0.051	-0.094
-126.268	-156.407	0.195	-0.012
-125.253	-64.451	-0.107	0.043
-124.239	-147.988	0.101	-0.008
-123.224	-24.890	-0.245	-0.143
-122.210	-75.883	-0.230	0.080
-121.195	36.139	-0.287	0.248
-120.180	140.032	-0.162	-0.210
-119.166	-30.873	-0.099	0.055
-118.151	-124.703	0.176	0.027
-117.137	137.281	0.266	0.342
-116.122	-122.236	0.165	-0.027
-115.107	-200.000	0.042	0.197
-114.093	-200.000	-0.021	-0.236
-113.078	-89.037	0.200	-0.058
-112.064	251.036	0.142	0.238
-111.049	-150.198	-0.172	0.013
-110.034	800.000	-0.062	-0.225
-109.020	42.178	0.027	-0.024
-108.005	472.287	-0.060	-0.132
-106.991	80.394	0.045	-0.047
-105.976	54.848	0.054	-0.051
-104.962	-107.974	0.211	0.045
-103.947	222.118	-0.123	0.194
-102.932	800.000	-0.145	0.446
-101.918	800.000	-0.111	0.407
-100.903	-200.000	0.050	0.273
-99.889	530.621	0.101	0.234
-98.874	86.931	-0.183	0.199
-97.859	399.447	0.217	-0.446
-96.845	-84.717	-0.232	-0.072
-95.830	-64.912	0.194	0.077
-94.816	324.114	0.093	-0.173
-93.801	-9.598	-0.069	-0.045
-92.786	800.000	0.046	0.194
-91.772	-83.227	-0.187	-0.059
-90.757	415.435	0.169	-0.353
-89.743	800.000	0.137	-0.488
-88.728	191.725	0.225	0.333
-87.713	-33.313	0.226	0.123
-86.699	-112.310	-0.355	0.070
-85.684	-39.265	-0.221	-0.114
-84.670	-85.554	0.170	-0.052
-83.655	-29.064	0.089	0.050
-82.640	-89.753	0.116	0.033
-81.626	77.434	0.075	-0.078
-80.611	163.877	-0.068	0.094
-79.597	-200.000	-0.013	0.331
-78.582	800.000	-0.054	0.152
-77.567	35.537	-0.240	-0.207
-76.553	91.892	0.130	-0.143
-75.538	1.182	-0.115	0.081
-74.524	48.372	0.156	-0.143
-73.509	-49.424	0.246	-0.115
-72.494	800.000	-0.067	-0.218
-71.480	-62.663	0.146	0.059
-70.465	-94.869	0.203	-0.054
-69.451	-200.000	-0.000	-0.203
-68.436	-126.690	0.097	-0.014
-67.422	-11.268	-0.069	-0.045
-66.407	-98.319	-0.113	0.029
-65.392	63.103	0.090	-0.088
-64.378	-23.739	-0.185	-0.109
-63.363	-200.000	-0.052	-0.345
-62.349	-200.000	-0.029	0.313
-61.334	59.734	-1.172	-1.133
-60.319	-0.036	0.624	0.435
-59.305	-200.000	-0.171	-1.033
-58.290	243.632	0.562	0.923
-57.276	800.000	0.512	1.580
-56.261	-200.000	111.057	613.465
-55.246	507.981	1517.544	3449.301
-54.232	176.065	2703.496	3842.820
-53.217	103.339	2283.760	2622.324
-52.203	37.970	1890.827	1645.896
-51.188	32.145	1679.229	1417.840
-50.173	29.468	1636.465	1361.957
-49.159	48.714	1692.334	1553.485
-48.144	48.631	1706.996	1566.263
-47.130	31.558	1663.921	1400.304
-46.115	28.889	1649.283	1368.098
-45.100	28.735	1644.392	1362.845
-44.086	28.699	1641.594	1360.202
-43.071	28.657	1638.967	1357.666
-42.057	28.620	1636.337	1355.155
-41.042	28.727	1634.387	1354.274
-40.027	28.719	1632.607	1352.689
-39.013	28.664	1630.965	1350.870
-37.998	28.642	1629.488	1349.431
-36.984	28.767	1628.022	1349.084
-35.969	28.879	1626.217	1348.356
-34.954	28.851	1624.955	1347.050
-33.940	28.830	1623.086	1345.294
-32.925	28.767	1621.623	1343.566
-31.911	28.786	1619.833	1342.168
-30.896	28.831	1617.792	1340.755
-29.881	28.734	1616.709	1339.093
-28.867	28.711	1615.131	1337.571
-27.852	28.782	1613.545	1336.715
-26.838	28.819	1612.381	1335.972
-25.823	28.747	1611.167	1334.387
-24.809	28.906	1609.429	1334.047
-23.794	28.794	1608.080	1332.066
-22.779	28.805	1606.412	1330.713
-21.765	28.895	1605.038	1330.174
-20.750	28.874	1603.061	1328.330
-19.736	28.859	1602.217	1327.468
-18.721	28.829	1600.834	1326.053
-17.706	28.889	1599.008	1324.923
-16.692	28.836	1597.598	1323.318
-15.677	28.849	1596.535	1322.478
-14.663	28.858	1595.468	1321.605
-13.648	28.825	1594.113	1320.191
-12.633	28.874	1591.931	1318.687
-11.619	28.830	1590.859	1317.433
-10.604	28.766	1589.236	1315.577
-9.590	28.876	1588.096	1315.369
-8.575	28.832	1587.077	1314.157
-7.560	28.894	1585.366	1313.133
-6.546	28.874	1584.497	1312.220
-5.531	28.881	1583.032	1311.002
-4.517	28.872	1581.815	1309.880
-3.502	28.824	1581.115	1308.900
-2.487	28.939	1578.856	1307.800
-1.473	28.531	1567.458	1295.422
-0.458	25.583	1547.899	1258.613
0.556	23.789	1548.618	1226.833
1.571	21.266	1573.144	1228.431
2.586	20.790	1585.825	1234.853
3.600	18.764	1532.888	1179.623
4.615	11.543	1426.298	1051.184
5.629	4.888	1365.889	965.443
6.644	3.784	1357.602	952.698
7.659	3.715	1356.606	951.488
8.673	3.803	1355.928	951.474
9.688	3.818	1353.906	950.063
10.702	3.697	1350.624	946.934
11.717	6.878	1356.737	970.696
12.731	15.023	1371.562	1031.613
13.746	21.954	1382.183	1082.415
14.761	23.599	1384.234	1094.072
15.775	23.140	1383.119	1090.265
16.790	22.296	1380.624	1083.010
17.804	21.857	1378.454	1078.516
18.819	21.518	1378.025	1076.000
19.834	21.520	1377.030	1075.138
20.848	21.529	1376.242	1074.486
21.863	21.356	1375.329	1072.615
22.877	21.262	1374.354	1071.183
23.892	21.260	1373.450	1070.374
24.907	21.088	1372.628	1068.586
25.921	21.116	1371.712	1067.945
26.936	21.132	1370.391	1066.920
27.950	21.293	1369.369	1067.017
28.965	21.300	1368.816	1066.533
29.980	21.426	1367.935	1066.522
30.994	21.593	1367.153	1066.831
32.009	21.586	1365.686	1065.554
33.023	21.544	1364.829	1064.536
34.038	21.460	1363.640	1063.001
35.053	21.362	1362.245	1061.226
36.067	21.374	1361.079	1060.298
37.082	21.444	1360.222	1059.959
38.096	21.424	1359.507	1059.189
39.111	21.395	1358.786	1058.353
40.126	21.224	1357.745	1056.420
41.140	21.026	1356.443	1054.111
42.155	20.721	1356.032	1051.860
43.169	20.640	1355.869	1051.150
44.184	20.693	1355.675	1051.226
45.199	20.996	1355.110	1052.525
46.213	21.127	1355.175	1053.272
47.228	21.210	1354.948	1053.500
48.242	21.294	1353.343	1052.665
49.257	21.111	1352.099	1050.503
50.271	21.304	1350.085	1050.005
51.286	21.179	1349.221	1048.494
52.301	21.258	1348.060	1047.970
53.315	21.061	1346.321	1045.347
54.330	20.904	1345.377	1043.583
55.344	21.022	1343.774	1042.950
56.359	20.813	1343.478	1041.380
57.374	20.781	1342.464	1040.310
58.388	20.719	1341.678	1039.241
59.403	20.666	1340.526	1037.935
60.417	20.570	1340.104	1036.949
61.432	20.590	1339.080	1036.184
62.447	20.474	1338.461	1034.917
63.461	20.422	1337.153	1033.507
64.476	20.416	1336.089	1032.561
65.490	20.439	1334.683	1031.517
66.505	20.405	1333.543	1030.342
67.520	20.402	1332.209	1029.201
68.534	20.488	1331.660	1029.198
69.549	20.344	1330.251	1027.166
70.563	20.402	1329.040	1026.480
71.578	20.204	1328.002	1024.423
72.593	20.133	1327.109	1023.224
73.607	19.967	1326.958	1022.037
74.622	20.215	1325.804	1022.518
75.636	20.290	1325.165	1022.375
76.651	20.380	1324.226	1022.095
77.666	20.329	1324.412	1021.843
78.680	20.368	1323.894	1021.582
79.695	20.439	1322.972	1021.197
80.709	20.704	1322.289	1022.137
81.724	20.749	1322.114	1022.180
82.739	20.856	1321.381	1022.145
83.753	21.006	1320.753	1022.449
84.768	21.338	1319.500	1023.338
85.782	21.527	1318.473	1023.551
86.797	21.561	1317.621	1023.001
87.812	21.297	1316.707	1020.659
88.826	21.291	1315.369	1019.494
89.841	21.408	1314.523	1019.430
90.855	21.384	1313.437	1018.361
91.870	21.543	1312.974	1018.839
92.884	21.656	1311.930	1018.595
93.899	21.654	1311.165	1017.898
94.914	21.531	1310.787	1016.800
95.928	21.546	1309.779	1016.013
96.943	21.589	1308.924	1015.514
97.957	21.422	1307.899	1013.656
98.972	21.536	1306.684	1013.286
99.987	21.460	1305.748	1012.031
101.001	21.463	1305.146	1011.495
102.016	21.512	1304.414	1011.117
103.030	21.488	1303.429	1010.130
104.045	21.353	1302.153	1008.273
105.060	21.121	1301.213	1006.114
106.074	20.814	1299.390	1002.852
107.089	20.529	1297.718	999.830
108.103	20.582	1295.957	998.693
109.118	20.438	1294.965	997.014
110.133	20.336	1293.744	995.398
111.147	20.515	1292.531	995.403
112.162	20.570	1291.331	994.706
113.176	20.704	1290.001	994.357
114.191	20.606	1289.667	993.454
115.206	20.731	1288.015	992.809
116.220	20.662	1286.951	991.504
117.235	20.583	1286.108	990.315
118.249	20.440	1285.149	988.679
119.264	20.410	1283.647	987.261
120.279	20.475	1282.201	986.433
121.293	20.166	1281.921	984.377
122.308	20.149	1280.341	982.982
123.322	20.081	1279.448	981.822
124.337	20.012	1278.636	980.720
125.352	20.066	1277.601	980.149
126.366	20.044	1276.531	979.115
127.381	19.900	1275.339	977.301
128.395	19.941	1273.918	976.357
129.410	19.999	1273.473	976.253
130.424	20.172	1273.001	976.785
131.439	20.389	1272.116	977.236
132.454	20.451	1271.329	976.898
133.468	20.489	1271.017	976.783
134.483	20.480	1270.304	976.097
135.497	20.605	1269.433	976.044
136.512	20.755	1267.907	975.628
137.527	20.708	1266.556	974.239
138.541	20.704	1265.596	973.391
139.556	20.873	1264.257	973.218
140.570	20.882	1263.673	972.731
141.585	20.964	1262.834	972.457
142.600	21.260	1261.792	973.217
143.614	21.391	1260.804	973.100
144.629	21.429	1260.015	972.615
145.643	21.388	1258.862	971.412
146.658	21.048	1257.871	968.676
147.673	20.850	1256.259	966.251
148.687	20.761	1254.939	964.655
149.702	20.644	1253.711	962.975
150.716	20.546	1251.921	960.976
151.731	20.519	1250.908	959.963
152.746	20.582	1249.989	959.523
153.760	20.698	1248.855	959.203
154.775	20.822	1247.940	959.100
155.789	20.922	1247.333	959.103
156.804	20.965	1246.349	958.498
157.819	20.967	1245.544	957.803
158.833	21.141	1244.684	958.013
159.848	21.288	1243.809	958.059
160.862	21.312	1242.871	957.383
161.877	20.929	1241.303	953.995
162.892	20.575	1239.869	950.874
163.906	20.608	1238.976	950.287
164.921	20.594	1238.106	949.456
165.935	20.615	1237.486	949.009
166.950	20.727	1236.897	949.085
167.964	20.811	1236.135	948.875
168.979	20.776	1234.963	947.703
169.994	20.804	1234.313	947.271
171.008	20.728	1233.716	946.316
172.023	20.887	1233.039	946.575
173.037	21.158	1233.193	948.084
174.052	20.944	1231.915	945.855
175.067	20.775	1230.469	943.745
176.081	20.426	1229.374	940.931
177.096	20.399	1228.537	940.065
178.110	20.540	1227.172	939.697
179.125	20.649	1226.611	939.775
180.140	20.841	1225.714	940.037
181.154	21.112	1224.611	940.573
182.169	21.207	1223.099	939.838
183.183	21.081	1222.807	938.854
184.198	21.137	1221.882	938.359
185.213	21.380	1220.368	938.421
186.227	21.242	1219.703	937.082
187.242	21.264	1219.116	936.668
188.256	21.463	1218.151	936.911
189.271	21.423	1217.460	936.082
190.286	21.120	1216.367	933.537
191.300	20.744	1214.567	930.067
192.315	20.589	1214.049	928.760
193.329	20.692	1213.638	928.910
194.344	20.734	1212.859	928.457
195.359	20.716	1212.403	927.928
196.373	20.820	1211.656	927.829
197.388	20.953	1211.827	928.585
198.402	21.126	1211.585	929.240
199.417	21.392	1211.582	930.572
200.432	21.654	1210.618	931.145
201.446	21.622	1210.099	930.493
202.461	21.746	1209.397	930.527
203.475	21.677	1208.422	929.329
204.490	21.379	1206.898	926.496
205.504	21.118	1205.280	923.789
206.519	20.997	1204.051	922.128
207.534	20.829	1203.409	920.663
208.548	20.935	1202.026	920.087
209.563	20.965	1201.560	919.805
210.577	21.019	1200.295	919.040
211.592	21.149	1199.924	919.360
212.607	21.385	1199.621	920.290
213.621	21.483	1198.168	919.608
214.636	21.354	1197.460	918.306
215.650	21.420	1196.574	917.889
216.665	21.471	1196.117	917.727
217.680	21.685	1195.701	918.447
218.694	21.768	1194.985	918.250
219.709	21.689	1193.225	916.407
220.723	21.603	1192.712	915.479
221.738	21.627	1192.294	915.205
222.753	21.488	1191.215	913.568
223.767	21.445	1190.666	912.841
224.782	21.652	1190.517	913.729
225.796	21.861	1189.842	914.217
226.811	21.744	1189.055	912.922
227.826	21.624	1187.738	911.206
228.840	21.483	1186.990	909.817
229.855	21.319	1186.219	908.297
230.869	21.294	1185.554	907.577
231.884	21.228	1184.950	906.691
232.899	21.152	1183.673	905.242
233.913	21.062	1182.846	904.062
234.928	21.020	1182.201	903.273
235.942	20.886	1181.672	902.090
236.957	20.933	1180.407	901.289
237.972	20.924	1179.553	900.511
238.986	21.011	1178.608	900.162
240.001	20.907	1178.756	899.658
241.015	20.978	1177.923	899.308
242.030	21.199	1176.873	899.566
243.045	21.259	1176.963	899.864
244.059	21.403	1175.877	899.697
245.074	21.462	1175.136	899.349
246.088	21.522	1174.586	899.160
247.103	21.642	1173.723	899.035
248.117	21.719	1173.355	899.068
249.132	22.017	1173.046	900.281
250.147	22.325	1172.814	901.603
251.161	22.513	1172.340	902.121
252.176	22.533	1171.717	901.664
253.190	22.637	1171.336	901.823
254.205	22.721	1170.727	901.704
255.220	22.843	1169.912	901.620
256.234	22.692	1169.625	900.544
257.249	22.603	1168.871	899.434
258.263	22.521	1167.973	898.243
259.278	22.567	1166.943	897.607
260.293	22.743	1166.428	898.026
261.307	22.692	1166.214	897.520
262.322	22.767	1165.271	897.097
263.336	22.636	1164.876	896.051
264.351	22.717	1164.483	896.077
265.366	22.718	1163.879	895.542
266.380	22.728	1163.161	894.959
267.395	22.591	1162.096	893.368
268.409	22.397	1161.277	891.673
269.424	22.377	1160.645	891.010
270.439	22.441	1159.881	890.669
271.453	22.277	1159.064	889.130
272.468	22.191	1157.798	887.647
273.482	22.158	1157.139	886.898
274.497	22.136	1156.725	886.392
275.512	22.104	1155.886	885.511
276.526	22.117	1155.240	885.003
277.541	22.334	1153.982	885.050
278.555	22.310	1153.771	884.690
279.570	22.455	1153.869	885.416
280.585	22.663	1153.185	885.859
281.599	22.617	1151.961	884.608
282.614	22.336	1150.540	882.031
283.628	22.320	1149.236	880.875
284.643	22.275	1148.245	879.811
285.657	22.335	1147.663	879.588
286.672	22.278	1146.727	878.504
287.687	22.338	1145.451	877.749
288.701	22.317	1145.147	877.332
289.716	22.353	1144.365	876.835
290.730	22.342	1143.786	876.261
291.745	22.483	1143.184	876.424
292.760	22.305	1142.852	875.205
293.774	22.372	1141.896	874.732
294.789	22.665	1141.807	876.040
295.803	22.767	1140.462	875.437
296.818	22.384	1140.100	873.184
297.833	22.337	1139.410	872.343
298.847	22.256	1138.741	871.355
299.862	22.408	1137.178	870.833
300.876	22.317	1137.074	870.226
301.891	22.566	1136.544	870.971
302.906	22.773	1136.044	871.536
303.920	22.880	1135.643	871.680
304.935	23.062	1135.158	872.126
305.949	23.034	1134.732	871.584
306.964	22.967	1133.870	870.517
307.979	22.860	1133.150	869.360
308.993	22.759	1132.231	868.079
310.008	22.903	1131.083	867.833
311.022	22.985	1130.505	867.715
312.037	22.899	1129.791	866.668
313.052	22.751	1128.808	865.108
314.066	22.402	1127.475	862.303
315.081	22.275	1126.378	860.768
316.095	22.116	1125.694	859.387
317.110	22.197	1124.924	859.122
318.125	22.274	1124.064	858.761
319.139	22.181	1123.580	857.866
320.154	22.224	1122.865	857.451
321.168	22.249	1122.019	856.853
322.183	22.129	1121.746	855.986
323.197	22.334	1121.230	856.513
324.212	22.289	1120.610	855.744
325.227	22.480	1120.030	856.152
326.241	22.442	1119.366	855.387
327.256	22.399	1118.689	854.586
328.270	22.204	1117.814	852.896
329.285	22.343	1116.522	852.508
330.300	22.429	1115.379	851.973
331.314	22.239	1114.946	850.647
332.329	22.278	1114.253	850.235
333.343	22.402	1113.452	850.147
334.358	22.434	1112.931	849.829
335.373	22.685	1112.151	850.368
336.387	22.767	1111.515	850.203
337.402	22.894	1110.761	850.161
338.416	22.812	1110.574	849.548
339.431	23.053	1109.815	850.052
340.446	23.161	1109.372	850.154
341.460	23.331	1109.057	850.655
342.475	23.388	1108.475	850.408
343.489	23.516	1107.081	849.876
344.504	23.501	1106.594	849.353
345.519	23.602	1105.940	849.262
346.533	23.616	1105.036	848.560
347.548	23.679	1104.508	848.380
348.562	23.573	1103.490	847.014
349.577	23.164	1102.215	844.013
350.592	22.840	1101.011	841.472
351.606	22.819	1100.460	840.875
352.621	22.671	1099.729	839.538
353.635	22.522	1099.086	838.265
354.650	22.614	1098.333	838.050
355.665	22.776	1097.596	838.186
356.679	22.895	1097.305	838.453
357.694	22.934	1096.575	838.008
358.708	23.042	1095.753	837.817
359.723	23.152	1095.413	838.005
360.738	23.167	1094.665	837.430
361.752	23.023	1094.202	836.318
362.767	23.152	1093.630	836.415
363.781	23.082	1093.343	835.793
364.796	23.422	1092.634	836.780
365.810	23.635	1092.346	837.494
366.825	23.695	1091.762	837.256
367.840	23.900	1091.375	837.851
368.854	23.962	1091.292	838.005
369.869	23.803	1090.679	836.711
370.883	23.709	1089.183	835.047
371.898	23.578	1087.918	833.388
372.913	23.376	1088.284	832.643
373.927	23.547	1087.426	832.717
374.942	23.755	1087.102	833.371
375.956	23.760	1086.293	832.702
376.971	23.686	1085.434	831.620
377.986	23.673	1085.530	831.560
379.000	23.916	1084.915	832.152
380.015	24.090	1084.707	832.733
381.029	24.094	1083.651	831.871
382.044	24.061	1083.142	831.252
383.059	23.936	1082.413	830.035
384.073	23.931	1081.569	829.288
385.088	23.935	1080.722	828.588
386.102	23.834	1079.575	827.161
387.117	23.674	1078.037	825.166
388.132	23.426	1077.012	823.157
389.146	23.302	1076.400	822.045
390.161	23.202	1075.895	821.122
391.175	23.391	1074.872	821.142
392.190	23.589	1074.982	822.073
393.205	23.879	1074.280	822.802
394.219	23.789	1073.380	821.624
395.234	23.700	1071.997	820.085
396.248	23.369	1071.082	817.786
397.263	23.309	1070.588	817.058
398.278	23.253	1069.911	816.212
399.292	23.154	1068.594	814.679
400.307	23.169	1068.152	814.336
401.321	23.119	1067.580	813.602
402.336	23.099	1066.458	812.582
403.350	23.112	1065.660	811.961
404.365	23.253	1065.719	812.581
405.380	23.476	1065.011	812.991
406.394	23.515	1064.042	812.357
407.409	23.578	1063.992	812.535
408.423	23.949	1063.534	813.811
409.438	24.184	1062.357	813.915
410.453	24.100	1061.696	812.950
411.467	24.241	1061.078	813.050
412.482	24.227	1060.697	812.622
413.496	24.294	1060.151	812.439
414.511	24.294	1060.087	812.317
415.526	24.462	1059.392	812.478
416.540	24.569	1059.230	812.769
417.555	24.518	1058.688	812.049
418.569	24.317	1058.025	810.555
419.584	24.305	1057.145	809.756
420.599	24.180	1056.647	808.735
421.613	156.515	1404.051	1796.616
422.628	143.790	1454.647	1796.734
