DTS Sentinel unit serial number:	SN413079Multiplexer serial number:	ORYXHardware model number:	OX4-SRSoftware version number:	ORYX F/W v4.00 Oryx Data Collector v3.7.2.0data status	okinstallation	princeton_trtdifferential loss correction	single-endedforward channel	channel 2reverse channel	N/Adate	2019/09/15time	04:07:35forward acquisition time	60.00reverse acquisition time	0.00gamma	496.2192k internal	0.2325k external	0.2325temperature offset calibration	1.0029default loss term (dB/km)	0.3790temperature slope calibration	1.0000multiplexer offset coefficient	1.0000multiplexer slope coefficient	1.0000fibre end	0.00T internal ref (°C)	30.94T ext. ref 1 (°C)	4.63T ext. ref 2 (°C)	25.84length (m)	temperature (°C)	Stokes	anti-Stokes-747.200	-138.434	-0.086	-0.010
-746.185	-0.172	-0.285	-0.205
-745.171	-200.000	-0.029	-0.290
-744.156	156.491	0.168	-0.233
-743.142	328.643	0.123	-0.238
-742.127	-200.000	0.018	0.120
-741.112	538.850	0.172	-0.412
-740.098	-200.000	-0.001	0.018
-739.083	228.370	-0.073	-0.121
-738.069	-115.282	0.163	0.031
-737.054	363.312	0.075	0.153
-736.039	-139.244	-0.168	0.018
-735.025	-3.146	0.241	-0.170
-734.010	513.546	-0.066	-0.155
-732.996	-195.704	-0.130	0.001
-731.981	18.665	-0.039	-0.031
-730.966	800.000	-0.024	-0.094
-729.952	567.428	-0.202	-0.494
-728.937	-158.344	0.212	-0.012
-727.923	31.355	-0.149	0.129
-726.908	313.488	-0.101	0.191
-725.894	76.289	0.035	0.037
-724.879	-200.000	0.008	0.189
-723.864	144.506	-0.120	0.162
-722.850	800.000	-0.033	-0.108
-721.835	-200.000	-0.002	-0.150
-720.821	26.306	-0.263	0.222
-719.806	-200.000	0.065	0.358
-718.791	649.795	0.121	-0.313
-717.777	-16.929	0.261	-0.166
-716.762	338.629	-0.096	-0.188
-715.748	-141.043	-0.253	-0.026
-714.733	-200.000	-0.024	0.308
-713.718	-54.336	0.369	-0.169
-712.704	-62.713	0.233	-0.098
-711.689	-78.451	-0.302	-0.104
-710.675	-67.112	0.185	-0.073
-709.660	248.477	0.119	-0.203
-708.645	57.592	0.039	0.039
-707.631	-200.000	0.000	0.088
-706.616	-200.000	0.015	-0.118
-705.602	574.019	-0.073	0.180
-704.587	578.899	0.066	-0.163
-703.572	277.661	-0.167	0.300
-702.558	-63.688	0.186	-0.077
-701.543	34.697	-0.039	-0.035
-700.529	290.039	0.101	-0.185
-699.514	770.381	-0.067	-0.183
-698.499	-200.000	-0.009	0.353
-697.485	557.968	-0.032	-0.078
-696.470	-77.609	-0.149	0.052
-695.456	-145.860	-0.040	-0.004
-694.441	800.000	-0.015	-0.060
-693.426	81.226	0.208	0.226
-692.412	146.726	-0.147	0.199
-691.397	263.881	-0.090	-0.158
-690.383	51.988	-0.127	0.122
-689.368	192.640	0.172	-0.261
-688.354	-200.000	0.006	-0.310
-687.339	609.668	-0.073	-0.184
-686.324	34.036	-0.218	0.191
-685.310	28.219	0.086	0.073
-684.295	-37.787	-0.186	0.100
-683.281	107.999	0.154	0.185
-682.266	136.771	-0.214	-0.281
-681.251	-200.000	0.005	0.159
-680.237	59.520	0.167	-0.165
-679.222	190.934	-0.036	-0.055
-678.208	-91.702	-0.068	0.019
-677.193	113.098	0.172	-0.210
-676.178	673.907	-0.068	0.178
-675.164	-0.461	-0.255	0.183
-674.149	-98.310	0.263	-0.068
-673.135	-177.022	0.070	0.002
-672.120	-106.183	0.127	-0.029
-671.105	75.935	0.132	0.140
-670.091	-18.700	-0.235	-0.147
-669.076	33.243	-0.394	-0.344
-668.062	800.000	0.200	-0.579
-667.047	-200.000	-0.058	-0.283
-666.032	-98.885	0.508	-0.130
-665.018	583.441	-0.039	0.096
-664.003	397.343	-0.066	0.138
-662.989	-50.174	0.059	0.028
-661.974	-200.000	0.008	-0.103
-660.959	334.985	0.154	0.299
-659.945	-132.241	-0.201	0.026
-658.930	205.727	0.116	0.181
-657.916	-44.505	-0.159	0.080
-656.901	-200.000	0.006	0.112
-655.886	-200.000	-0.033	-0.322
-654.872	121.724	-0.171	-0.214
-653.857	539.847	-0.058	-0.138
-652.843	236.932	-0.030	-0.051
-651.828	-200.000	0.012	-0.165
-650.814	0.269	-0.164	-0.117
-649.799	-89.851	-0.076	-0.022
-648.784	-27.008	0.081	0.048
-647.770	-10.464	0.328	0.218
-646.755	-95.918	-0.127	0.034
-645.741	-96.856	0.043	0.011
-644.726	-200.000	0.016	-0.220
-643.711	-10.794	0.201	0.133
-642.697	134.208	0.092	0.120
-641.682	800.000	0.037	0.135
-640.668	800.000	0.065	-0.182
-639.653	106.935	-0.171	0.204
-638.638	250.868	-0.070	-0.119
-637.624	119.894	-0.036	0.044
-636.609	-112.633	0.126	-0.025
-635.595	-200.000	0.039	0.195
-634.580	-28.033	0.231	0.134
-633.565	-16.107	0.316	0.202
-632.551	-146.464	-0.124	0.011
-631.536	10.582	-0.144	0.111
-630.522	-42.019	-0.351	-0.180
-629.507	184.349	0.090	-0.134
-628.492	78.310	0.067	0.072
-627.478	-5.765	-0.294	0.202
-626.463	800.000	-0.080	0.265
-625.449	496.552	-0.092	0.212
-624.434	-106.098	0.330	-0.074
-623.419	-43.513	-0.275	-0.139
-622.405	-200.000	0.017	0.105
-621.390	-200.000	-0.153	-0.001
-620.376	800.000	-0.056	-0.221
-619.361	160.428	-0.064	-0.090
-618.346	-95.619	0.072	0.019
-617.332	-77.623	-0.282	0.098
-616.317	800.000	0.022	-0.096
-615.303	157.796	-0.129	0.180
-614.288	-200.000	-0.041	-0.220
-613.273	800.000	0.132	0.382
-612.259	-119.496	0.154	-0.027
-611.244	-138.839	-0.109	-0.012
-610.230	4.303	0.062	0.046
-609.215	-106.397	0.110	-0.025
-608.201	800.000	0.023	0.083
-607.186	-39.789	0.112	-0.059
-606.171	319.245	0.153	0.291
-605.157	-109.078	0.049	0.010
-604.142	-12.416	-0.304	0.199
-603.128	-18.427	0.042	-0.026
-602.113	-31.557	-0.147	0.083
-601.098	800.000	0.041	-0.174
-600.084	-158.232	0.354	0.021
-599.069	-75.477	0.241	0.086
-598.055	-200.000	-0.000	-0.047
-597.040	132.211	0.129	0.167
-596.025	106.361	-0.178	0.211
-595.011	218.600	-0.193	-0.309
-593.996	15.034	0.084	-0.066
-592.982	-109.612	0.397	-0.084
-591.967	112.260	0.071	-0.086
-590.952	37.163	0.266	0.236
-589.938	154.210	-0.268	0.369
-588.923	-200.000	0.014	0.073
-587.909	-200.000	0.012	-0.178
-586.894	164.946	-0.087	-0.123
-585.879	544.460	-0.126	-0.301
-584.865	-200.000	-0.007	-0.226
-583.850	650.310	-0.086	0.222
-582.836	-200.000	0.035	0.208
-581.821	-200.000	0.055	0.278
-580.806	-24.052	-0.064	0.038
-579.792	-98.734	-0.170	-0.043
-578.777	-20.080	0.306	0.189
-577.763	-87.749	-0.088	-0.027
-576.748	-108.360	-0.083	-0.018
-575.733	-185.411	-0.155	-0.002
-574.719	-200.000	-0.038	-0.245
-573.704	-52.732	0.187	0.086
-572.690	800.000	0.092	-0.256
-571.675	736.159	-0.054	-0.145
-570.661	-121.368	0.024	-0.004
-569.646	-115.995	0.201	-0.038
-568.631	-139.506	-0.286	-0.031
-567.617	800.000	0.058	0.170
-566.602	-68.113	0.100	-0.039
-565.588	396.795	0.177	-0.370
-564.573	362.689	-0.121	0.244
-563.558	19.834	0.041	-0.033
-562.544	6.969	-0.141	0.105
-561.529	-60.981	0.037	-0.016
-560.515	56.308	0.188	-0.182
-559.500	-200.000	-0.001	-0.359
-558.485	449.354	-0.101	0.222
-557.471	-200.000	0.014	-0.135
-556.456	-21.417	-0.096	-0.059
-555.442	-34.023	-0.076	-0.042
-554.427	158.522	0.057	0.079
-553.412	174.600	0.119	-0.172
-552.398	-2.261	-0.249	-0.175
-551.383	-69.887	-0.252	0.096
-550.369	39.849	0.065	0.058
-549.354	6.597	-0.061	-0.046
-548.339	-200.000	0.000	0.115
-547.325	1.424	-0.164	-0.118
-546.310	71.950	0.273	-0.284
-545.296	-200.000	-0.005	0.081
-544.281	135.847	-0.128	0.167
-543.266	-200.000	0.065	0.432
-542.252	3.744	0.151	0.111
-541.237	800.000	0.060	-0.233
-540.223	-200.000	0.005	0.113
-539.208	166.097	-0.020	-0.028
-538.193	-62.573	0.239	0.099
-537.179	24.409	-0.290	-0.240
-536.164	-129.543	0.201	0.028
-535.150	-200.000	-0.032	0.172
-534.135	-118.195	-0.062	-0.011
-533.121	-200.000	0.024	-0.413
-532.106	-104.455	-0.116	-0.027
-531.091	56.670	-0.231	0.225
-530.077	-200.000	0.010	-0.231
-529.062	127.999	-0.166	0.211
-528.048	-94.487	0.218	-0.059
-527.033	105.741	-0.041	-0.049
-526.018	53.611	-0.249	0.239
-525.004	7.580	0.147	0.110
-523.989	-200.000	-0.039	0.233
-522.975	800.000	-0.029	0.105
-521.960	-200.000	-0.015	0.082
-520.945	115.512	-0.326	0.399
-519.931	-112.234	0.078	-0.016
-518.916	-7.365	0.220	0.149
-517.902	-53.946	-0.215	0.098
-516.887	800.000	-0.145	0.428
-515.872	301.647	-0.065	0.120
-514.858	-84.701	0.147	-0.046
-513.843	135.802	0.084	0.110
-512.829	-138.036	0.196	0.022
-511.814	129.483	0.079	-0.101
-510.799	155.783	0.164	0.226
-509.785	-200.000	0.051	-0.560
-508.770	800.000	-0.088	-0.257
-507.756	-128.144	-0.326	-0.047
-506.741	-200.000	0.009	0.087
-505.726	-98.740	-0.146	0.037
-504.712	-38.472	0.182	-0.096
-503.697	-126.944	0.132	-0.019
-502.683	-200.000	-0.014	0.118
-501.668	800.000	-0.070	0.205
-500.653	-94.264	0.143	0.039
-499.639	119.434	-0.092	-0.114
-498.624	-149.681	-0.269	0.021
-497.610	84.124	-0.191	0.208
-496.595	59.337	0.162	0.159
-495.581	515.207	-0.097	-0.226
-494.566	-20.168	-0.073	-0.045
-493.551	-200.000	-0.009	0.157
-492.537	-3.830	0.119	0.083
-491.522	285.891	-0.107	-0.193
-490.508	55.629	0.389	-0.377
-489.493	-170.616	-0.194	0.007
-488.478	-200.000	-0.008	0.195
-487.464	555.313	-0.010	-0.025
-486.449	643.404	0.172	0.438
-485.435	-6.903	0.239	-0.162
-484.420	-200.000	-0.000	0.373
-483.405	-198.970	0.228	0.001
-482.391	41.968	-0.047	-0.043
-481.376	-54.990	-0.238	-0.107
-480.362	66.325	0.320	-0.325
-479.347	-140.019	-0.126	-0.013
-478.332	403.656	-0.157	0.329
-477.318	264.338	0.117	0.203
-476.303	-200.000	0.019	0.164
-475.289	-23.090	0.133	-0.080
-474.274	407.369	-0.157	-0.332
-473.259	-200.000	0.002	0.404
-472.245	377.823	-0.038	-0.077
-471.230	92.178	0.197	0.221
-470.216	89.598	0.072	-0.080
-469.201	-140.644	-0.104	-0.011
-468.186	110.146	-0.253	0.303
-467.172	-62.356	-0.199	-0.083
-466.157	-23.424	-0.042	0.025
-465.143	800.000	-0.079	0.270
-464.128	50.238	0.240	-0.227
-463.113	-175.259	-0.175	0.005
-462.099	48.483	-0.188	0.176
-461.084	478.918	-0.039	-0.088
-460.070	-74.540	0.115	0.041
-459.055	800.000	-0.080	0.258
-458.040	-200.000	-0.009	0.189
-457.026	-200.000	-0.004	-0.090
-456.011	1.101	0.111	0.080
-454.997	-200.000	0.027	-0.200
-453.982	755.699	-0.106	-0.286
-452.968	-101.419	-0.387	-0.094
-451.953	247.480	0.215	-0.363
-450.938	76.251	-0.090	-0.095
-449.924	615.341	-0.123	0.307
-448.909	-128.916	-0.069	-0.010
-447.895	-200.000	0.000	0.017
-446.880	-8.462	0.183	0.123
-445.865	-200.000	0.025	-0.126
-444.851	21.976	-0.099	0.080
-443.836	-9.559	-0.167	0.111
-442.822	800.000	-0.078	-0.231
-441.807	453.075	0.113	-0.249
-440.792	-142.088	0.149	-0.015
-439.778	-13.921	-0.032	0.021
-438.763	58.684	-0.156	-0.153
-437.749	-186.588	-0.461	0.007
-436.734	175.859	0.143	-0.206
-435.719	14.626	-0.212	-0.165
-434.705	-25.464	-0.266	-0.157
-433.690	-156.094	-0.224	0.014
-432.676	-200.000	-0.005	0.045
-431.661	69.995	-0.226	0.232
-430.646	-88.685	-0.152	0.045
-429.632	-124.886	-0.215	0.033
-428.617	-120.104	0.168	0.029
-427.603	-32.510	-0.252	-0.140
-426.588	-90.513	0.159	0.046
-425.573	265.991	0.196	0.340
-424.559	800.000	0.019	0.058
-423.544	167.564	-0.197	-0.279
-422.530	6.480	0.436	0.323
-421.515	-97.747	-0.132	0.034
-420.500	-94.149	0.126	0.034
-419.486	-125.596	-0.336	0.051
-418.471	-3.368	-0.051	0.036
-417.457	-9.008	-0.283	0.188
-416.442	-144.265	0.267	0.025
-415.428	-133.975	-0.239	0.030
-414.413	-75.179	0.179	-0.064
-413.398	800.000	-0.076	-0.312
-412.384	800.000	0.048	0.159
-411.369	-200.000	0.007	0.221
-410.355	2.611	0.189	0.136
-409.340	-200.000	0.034	-0.222
-408.325	395.659	0.077	0.161
-407.311	-32.116	-0.089	0.050
-406.296	641.530	0.038	0.097
-405.282	126.122	0.076	0.095
-404.267	-64.150	-0.436	0.177
-403.252	800.000	0.085	-0.310
-402.238	794.915	0.151	-0.415
-401.223	642.419	0.132	-0.335
-400.209	43.787	-0.328	0.299
-399.194	-49.511	0.081	0.039
-398.179	-200.000	-0.010	-0.388
-397.165	-108.609	-0.126	-0.027
-396.150	-200.000	-0.064	-0.351
-395.136	-120.417	0.116	-0.020
-394.121	-200.000	0.027	-0.239
-393.106	-200.000	0.044	-0.224
-392.092	92.027	0.143	0.160
-391.077	39.718	0.040	-0.036
-390.063	81.903	-0.141	0.152
-389.048	-23.407	-0.096	-0.057
-388.033	-186.109	0.146	0.002
-387.019	-200.000	-0.015	-0.244
-386.004	800.000	0.048	-0.207
-384.990	341.451	-0.174	-0.338
-383.975	94.061	0.184	0.207
-382.960	-21.925	0.244	0.147
-381.946	800.000	-0.072	-0.232
-380.931	800.000	0.155	0.481
-379.917	-127.224	-0.151	-0.022
-378.902	96.732	0.030	-0.034
-377.888	-137.951	-0.245	-0.027
-376.873	-113.766	0.319	-0.062
-375.858	-79.339	-0.107	-0.036
-374.844	-79.407	-0.118	-0.040
-373.829	257.077	-0.033	-0.056
-372.815	800.000	-0.039	0.152
-371.800	-99.786	-0.379	0.094
-370.785	-54.810	-0.229	0.103
-369.771	785.721	0.106	0.288
-368.756	-84.591	0.264	0.083
-367.742	-200.000	0.017	-0.107
-366.727	-75.220	0.382	0.136
-365.712	431.110	-0.042	-0.091
-364.698	-52.783	0.295	0.135
-363.683	-34.591	0.247	-0.134
-362.669	565.139	0.070	-0.169
-361.654	713.505	0.112	-0.294
-360.639	800.000	-0.047	-0.137
-359.625	149.113	0.187	0.251
-358.610	800.000	0.033	-0.093
-357.596	-67.487	-0.071	-0.028
-356.581	-130.629	0.250	-0.034
-355.566	-66.350	-0.167	0.066
-354.552	-139.446	-0.581	-0.062
-353.537	646.634	0.212	-0.537
-352.523	226.035	-0.070	0.113
-351.508	5.581	0.241	-0.177
-350.493	367.855	0.181	-0.363
-349.479	186.395	-0.134	0.198
-348.464	-55.577	-0.385	0.171
-347.450	-53.766	-0.294	0.133
-346.435	0.434	-0.165	-0.117
-345.420	6.633	0.146	-0.108
-344.406	-92.878	0.383	-0.106
-343.391	59.647	0.181	-0.178
-342.377	-104.102	0.095	0.022
-341.362	-27.275	-0.084	-0.049
-340.348	-200.000	-0.013	-0.103
-339.333	-28.314	0.256	-0.147
-338.318	-200.000	-0.001	-0.121
-337.304	40.476	0.063	-0.056
-336.289	-200.000	0.017	-0.132
-335.275	-156.323	0.111	0.007
-334.260	800.000	-0.082	-0.244
-333.245	20.284	0.022	-0.018
-332.231	132.820	-0.098	0.126
-331.216	204.833	-0.199	0.307
-330.202	-120.844	0.257	0.043
-329.187	230.149	-0.168	0.273
-328.172	-84.476	0.047	-0.015
-327.158	579.629	-0.050	0.122
-326.143	198.967	-0.233	0.354
-325.129	23.372	0.253	-0.206
-324.114	116.424	-0.189	0.230
-323.099	-94.964	0.342	0.092
-322.085	21.954	0.221	0.179
-321.070	-57.775	0.160	0.069
-320.056	800.000	-0.023	0.062
-319.041	-22.786	-0.175	-0.105
-318.026	18.079	0.102	-0.080
-317.012	-129.416	-0.349	-0.048
-315.997	-124.241	0.250	-0.039
-314.983	800.000	0.023	-0.073
-313.968	598.378	0.044	0.108
-312.953	260.331	0.115	-0.197
-311.939	-200.000	-0.032	-0.142
-310.924	170.030	0.087	-0.123
-309.910	-56.152	0.267	0.118
-308.895	8.116	0.208	-0.155
-307.880	232.341	-0.129	-0.210
-306.866	78.577	0.302	-0.320
-305.851	-21.397	-0.157	0.095
-304.837	39.115	-0.091	0.080
-303.822	-53.001	0.134	0.061
-302.807	-28.302	-0.179	0.103
-301.793	-96.362	-0.233	0.061
-300.778	-46.760	0.233	-0.113
-299.764	212.815	0.075	-0.117
-298.749	-32.259	-0.419	-0.232
-297.735	-110.853	0.213	-0.043
-296.720	283.540	0.094	0.167
-295.705	-200.000	-0.043	0.371
-294.691	-14.364	-0.081	-0.052
-293.676	-77.130	0.094	-0.032
-292.662	-81.971	0.077	-0.025
-291.647	145.371	-0.249	-0.331
-290.632	-92.073	-0.264	0.074
-289.618	-192.978	0.101	-0.001
-288.603	-82.675	-0.228	0.073
-287.589	-200.000	-0.004	-0.195
-286.574	374.818	-0.041	0.084
-285.559	298.203	0.061	-0.111
-284.545	-55.096	0.280	0.125
-283.530	463.248	0.102	0.226
-282.516	157.331	-0.204	0.279
-281.501	-75.892	-0.153	-0.054
-280.486	800.000	0.144	0.474
-279.472	28.878	0.127	0.106
-278.457	-111.698	-0.059	-0.012
-277.443	-200.000	-0.033	-0.511
-276.428	13.932	-0.300	-0.231
-275.413	-200.000	-0.003	-0.111
-274.399	-200.000	0.011	-0.137
-273.384	-200.000	-0.003	-0.105
-272.370	-99.285	0.392	0.098
-271.355	-200.000	-0.025	0.459
-270.340	-22.310	-0.206	0.124
-269.326	518.138	-0.094	0.219
-268.311	-90.843	0.112	0.032
-267.297	-200.000	0.002	-0.133
-266.282	800.000	0.069	0.231
-265.267	61.079	0.210	-0.207
-264.253	34.251	-0.251	-0.217
-263.238	55.275	0.036	0.034
-262.224	-113.887	0.138	0.027
-261.209	-54.884	-0.116	-0.052
-260.195	12.495	-0.294	0.225
-259.180	631.143	-0.143	0.357
-258.165	1.929	-0.051	-0.036
-257.151	-200.000	0.019	0.172
-256.136	3.342	-0.101	-0.073
-255.122	-122.845	-0.356	0.057
-254.107	6.213	-0.161	0.118
-253.092	-200.000	-0.002	0.280
-252.078	-28.747	0.260	0.148
-251.063	124.028	-0.157	0.195
-250.049	48.412	-0.125	-0.116
-249.034	-45.505	-0.187	-0.092
-248.019	-145.434	-0.374	0.033
-247.005	-178.071	0.309	0.007
-245.990	-12.971	-0.246	0.158
-244.976	58.361	0.175	-0.170
-243.961	-133.447	0.342	0.042
-242.946	491.461	-0.114	-0.259
-241.932	-200.000	0.004	0.069
-240.917	-117.987	-0.186	0.033
-239.903	800.000	-0.076	-0.308
-238.888	-200.000	-0.020	-0.171
-237.873	-185.102	-0.092	-0.001
-236.859	-91.186	-0.136	-0.038
-235.844	-149.426	0.190	-0.015
-234.830	-200.000	0.032	-0.290
-233.815	-58.959	-0.319	-0.136
-232.800	-51.854	0.269	0.124
-231.786	-108.258	0.075	0.016
-230.771	800.000	0.035	0.097
-229.757	615.343	0.005	0.013
-228.742	-81.194	-0.132	0.043
-227.727	-200.000	0.024	-0.223
-226.713	-125.089	0.158	0.024
-225.698	-101.403	0.310	-0.075
-224.684	-49.124	-0.329	-0.156
-223.669	-200.000	0.010	0.245
-222.655	-117.693	-0.127	0.023
-221.640	191.854	-0.160	0.238
-220.625	800.000	-0.056	0.157
-219.611	-139.662	0.182	0.019
-218.596	-22.518	0.239	-0.143
-217.582	-129.607	-0.200	0.027
-216.567	-26.324	0.087	0.050
-215.552	-200.000	0.001	0.090
-214.538	-132.613	-0.186	0.024
-213.523	-0.592	-0.224	-0.157
-212.509	208.421	-0.133	-0.205
-211.494	800.000	-0.036	0.140
-210.479	-36.133	0.276	-0.147
-209.465	144.574	-0.110	-0.145
-208.450	299.359	0.183	-0.332
-207.436	183.622	-0.106	-0.155
-206.421	-200.000	-0.015	-0.108
-205.406	38.680	0.203	0.179
-204.392	69.802	-0.099	-0.100
-203.377	-44.927	0.305	0.150
-202.363	317.456	-0.084	0.157
-201.348	-79.683	0.155	0.052
-200.333	-200.000	-0.039	-0.196
-199.319	37.986	0.058	-0.051
-198.304	800.000	0.053	0.166
-197.290	27.178	0.137	-0.114
-196.275	-118.245	0.071	-0.012
-195.260	-73.027	0.181	0.066
-194.246	504.825	0.027	-0.062
-193.231	148.512	-0.137	-0.183
-192.217	-42.308	0.374	0.189
-191.202	274.992	-0.173	-0.303
-190.187	508.824	0.100	0.230
-189.173	-200.000	0.015	-0.229
-188.158	-200.000	0.074	-0.338
-187.144	-40.236	0.226	-0.116
-186.129	-171.789	-0.087	0.003
-185.114	-109.001	0.147	-0.031
-184.100	-87.690	0.454	0.135
-183.085	800.000	0.061	-0.234
-182.071	-66.087	-0.072	-0.028
-181.056	800.000	0.044	-0.131
-180.042	-39.043	0.123	0.064
-179.027	-200.000	-0.011	-0.063
-178.012	162.384	0.153	-0.211
-176.998	43.055	-0.191	-0.172
-175.983	79.178	0.044	-0.046
-174.969	402.503	0.106	-0.219
-173.954	12.964	0.252	-0.192
-172.939	-36.726	0.134	0.071
-171.925	128.216	0.148	0.186
-170.910	-200.000	0.012	-0.205
-169.896	517.381	-0.060	-0.139
-168.881	800.000	0.115	-0.423
-167.866	-85.553	-0.315	-0.097
-166.852	-200.000	0.026	-0.278
-165.837	800.000	-0.067	0.218
-164.823	230.611	0.243	0.392
-163.808	800.000	0.024	-0.097
-162.793	800.000	0.049	-0.147
-161.779	-200.000	-0.037	0.242
-160.764	266.579	0.057	0.098
-159.750	219.141	-0.054	0.084
-158.735	-51.414	0.010	-0.005
-157.720	106.364	-0.142	0.166
-156.706	19.549	-0.139	0.110
-155.691	-80.746	0.411	0.135
-154.677	-6.629	-0.076	0.051
-153.662	-170.542	-0.112	0.004
-152.647	20.779	-0.174	0.139
-151.633	-91.700	0.067	-0.019
-150.618	42.931	0.239	0.214
-149.604	-65.834	0.312	0.123
-148.589	800.000	0.045	0.177
-147.574	-81.314	-0.249	-0.081
-146.560	100.617	0.128	-0.147
-145.545	-73.585	-0.237	-0.085
-144.531	-102.037	0.030	-0.007
-143.516	-184.573	-0.168	-0.003
-142.502	33.758	-0.161	-0.138
-141.487	372.281	0.076	-0.152
-140.472	-170.141	-0.248	0.009
-139.458	12.546	0.171	-0.130
-138.443	-9.476	-0.252	0.165
-137.429	-112.077	-0.129	-0.026
-136.414	67.327	-0.149	-0.150
-135.399	-66.653	-0.044	-0.017
-134.385	217.518	0.125	-0.196
-133.370	-93.011	-0.043	-0.012
-132.356	-200.000	0.011	-0.066
-131.341	224.515	-0.109	-0.174
-130.326	-56.234	-0.397	0.174
-129.312	-200.000	-0.089	0.523
-128.297	800.000	-0.045	0.152
-127.283	-115.732	-0.070	-0.013
-126.268	-59.411	-0.158	0.067
-125.253	432.752	-0.139	-0.296
-124.239	156.636	-0.178	-0.242
-123.224	-62.570	0.183	0.075
-122.210	621.247	-0.078	0.193
-121.195	590.361	-0.132	0.320
-120.180	800.000	-0.033	-0.143
-119.166	50.767	-0.118	-0.110
-118.151	16.655	-0.125	-0.097
-117.137	308.654	0.022	-0.041
-116.122	-89.189	0.301	0.088
-115.107	-46.331	-0.168	-0.081
-114.093	-13.095	0.171	0.109
-113.078	-200.000	0.036	-0.256
-112.064	800.000	0.061	-0.243
-111.049	391.453	0.127	0.260
-110.034	-200.000	0.056	0.346
-109.020	22.654	0.148	0.119
-108.005	-11.351	-0.339	0.220
-106.991	-200.000	-0.022	0.319
-105.976	-200.000	0.035	0.222
-104.962	800.000	-0.025	0.088
-103.947	-200.000	0.023	0.192
-102.932	-5.857	0.345	0.233
-101.918	403.510	-0.068	-0.142
-100.903	-200.000	-0.033	-0.268
-99.889	19.283	0.111	-0.087
-98.874	24.573	0.212	-0.173
-97.859	-125.350	0.222	-0.033
-96.845	-48.530	0.139	-0.066
-95.830	-200.000	0.010	-0.047
-94.816	-26.971	-0.127	0.073
-93.801	800.000	0.104	0.424
-92.786	94.080	0.132	0.147
-91.772	615.596	0.058	-0.143
-90.757	-200.000	0.312	-0.001
-89.743	-200.000	0.073	-0.333
-88.728	479.873	-0.073	-0.164
-87.713	23.065	0.070	0.056
-86.699	-41.182	-0.234	0.119
-85.684	591.881	-0.014	0.035
-84.670	225.481	-0.049	-0.077
-83.655	-138.766	-0.030	-0.003
-82.640	-74.287	0.158	-0.056
-81.626	716.124	-0.050	-0.129
-80.611	-200.000	0.013	0.117
-79.597	-200.000	0.022	0.345
-78.582	800.000	-0.072	0.204
-77.567	124.806	0.225	-0.278
-76.553	-75.960	0.098	0.034
-75.538	-200.000	0.035	-0.170
-74.524	39.544	0.131	-0.115
-73.509	-176.200	0.309	-0.008
-72.494	37.830	0.074	0.065
-71.480	800.000	0.053	0.190
-70.465	128.897	-0.012	-0.016
-69.451	-148.067	0.073	0.006
-68.436	-19.850	0.397	-0.241
-67.422	-200.000	0.063	0.389
-66.407	-200.000	0.003	-0.119
-65.392	800.000	-0.064	0.226
-64.378	143.281	0.125	-0.163
-63.363	-83.763	0.065	0.020
-62.349	232.004	0.146	0.236
-61.334	157.687	-0.767	-1.044
-60.319	11.811	0.504	0.380
-59.305	800.000	-0.266	-0.890
-58.290	62.878	0.814	0.800
-57.276	543.417	0.682	1.598
-56.261	-200.000	101.617	593.034
-55.246	568.888	1417.100	3382.397
-54.232	189.737	2610.735	3845.340
-53.217	110.344	2276.885	2686.038
-52.203	40.366	1895.532	1675.154
-51.188	34.197	1684.803	1442.305
-50.173	31.593	1640.551	1385.129
-49.159	49.197	1691.006	1560.439
-48.144	50.681	1706.898	1586.196
-47.130	33.819	1666.442	1423.529
-46.115	31.073	1651.834	1390.559
-45.100	30.996	1647.390	1386.186
-44.086	30.823	1644.811	1382.678
-43.071	30.827	1642.160	1380.423
-42.057	30.847	1639.895	1378.617
-41.042	30.778	1637.810	1376.299
-40.027	30.845	1635.661	1374.932
-39.013	30.837	1634.269	1373.650
-37.998	30.818	1632.430	1371.907
-36.984	30.816	1631.181	1370.789
-35.969	30.906	1629.944	1370.359
-34.954	31.022	1627.945	1369.471
-33.940	30.934	1626.360	1367.437
-32.925	30.879	1625.084	1365.906
-31.911	31.029	1623.129	1365.311
-30.896	30.910	1621.604	1363.104
-29.881	30.977	1619.463	1361.738
-28.867	30.919	1618.011	1360.042
-27.852	30.850	1616.956	1358.594
-26.838	30.969	1614.935	1357.712
-25.823	30.992	1613.592	1356.695
-24.809	30.962	1612.507	1355.515
-23.794	31.000	1610.960	1354.431
-22.779	30.904	1610.147	1352.997
-21.765	30.927	1607.805	1351.142
-20.750	30.930	1606.222	1349.780
-19.736	30.952	1605.333	1349.140
-18.721	31.056	1602.796	1347.704
-17.706	30.955	1601.735	1346.031
-16.692	30.859	1600.255	1344.043
-15.677	30.958	1599.223	1343.836
-14.663	31.030	1597.897	1343.185
-13.648	31.003	1596.033	1341.375
-12.633	30.926	1595.038	1339.929
-11.619	30.891	1593.552	1338.379
-10.604	30.875	1592.533	1337.349
-9.590	30.970	1590.824	1336.545
-8.575	31.012	1588.999	1335.262
-7.560	30.987	1588.200	1334.359
-6.546	31.049	1586.926	1333.675
-5.531	31.007	1586.276	1332.774
-4.517	30.893	1584.734	1330.614
-3.502	30.968	1583.756	1330.279
-2.487	31.039	1582.113	1329.348
-1.473	30.767	1570.350	1317.486
-0.458	27.999	1551.572	1282.291
0.556	23.813	1552.040	1251.540
1.571	21.432	1575.987	1253.688
2.586	20.968	1588.934	1260.523
3.600	18.701	1535.358	1202.056
4.615	11.447	1428.605	1070.946
5.629	5.489	1368.158	988.012
6.644	4.652	1360.678	977.268
7.659	4.639	1359.028	975.912
8.673	4.564	1358.102	974.689
9.688	4.665	1355.873	973.636
10.702	4.494	1353.088	970.484
11.717	7.302	1358.442	991.827
12.731	14.308	1371.728	1045.567
13.746	18.843	1378.376	1079.088
14.761	18.764	1376.727	1077.208
15.775	17.785	1373.652	1068.575
16.790	16.637	1371.146	1059.347
17.804	15.848	1368.877	1052.575
18.819	15.492	1367.400	1049.120
19.834	15.247	1366.319	1046.666
20.848	14.979	1365.337	1044.152
21.863	14.769	1363.981	1041.708
22.877	14.625	1362.923	1039.911
23.892	14.567	1362.165	1038.882
24.907	14.525	1361.464	1037.994
25.921	14.600	1360.290	1037.471
26.936	14.633	1359.544	1037.019
27.950	14.628	1358.470	1036.073
28.965	14.635	1357.526	1035.308
29.980	14.929	1356.302	1036.104
30.994	14.913	1355.334	1035.174
32.009	14.894	1354.247	1034.136
33.023	14.896	1352.702	1032.874
34.038	14.888	1351.479	1031.799
35.053	14.729	1350.178	1029.734
36.067	14.661	1349.512	1028.721
37.082	14.790	1348.423	1028.592
38.096	14.856	1347.007	1027.825
39.111	14.807	1346.371	1026.950
40.126	14.807	1345.549	1026.231
41.140	14.536	1344.982	1024.042
42.155	14.575	1344.042	1023.479
43.169	14.510	1344.121	1023.047
44.184	14.527	1343.683	1022.727
45.199	14.502	1343.401	1022.268
46.213	14.607	1343.002	1022.517
47.228	14.759	1341.759	1022.410
48.242	14.695	1340.456	1020.938
49.257	14.683	1338.936	1019.618
50.271	14.603	1337.588	1018.012
51.286	14.651	1336.896	1017.687
52.301	14.684	1335.241	1016.538
53.315	14.565	1334.505	1015.164
54.330	14.631	1332.793	1014.173
55.344	14.510	1331.729	1012.540
56.359	14.602	1330.783	1012.290
57.374	14.482	1330.167	1011.002
58.388	14.513	1328.617	1009.922
59.403	14.413	1328.802	1009.369
60.417	14.340	1328.335	1008.483
61.432	14.394	1327.228	1007.877
62.447	14.432	1326.284	1007.302
63.461	14.345	1324.949	1005.673
64.476	14.362	1323.905	1004.896
65.490	14.326	1323.152	1004.016
66.505	14.412	1321.460	1003.164
67.520	14.416	1320.173	1002.121
68.534	14.382	1318.982	1000.927
69.549	14.390	1317.823	1000.003
70.563	14.347	1317.234	999.210
71.578	14.318	1315.618	997.721
72.593	14.281	1315.149	997.056
73.607	14.251	1314.064	995.970
74.622	14.305	1314.100	996.232
75.636	14.268	1313.225	995.260
76.651	14.222	1312.467	994.322
77.666	14.297	1311.621	994.042
78.680	14.304	1311.349	993.786
79.695	14.410	1310.240	993.488
80.709	14.465	1309.603	993.244
81.724	14.436	1309.178	992.662
82.739	14.561	1308.132	992.526
83.753	14.628	1307.081	992.039
84.768	14.613	1306.283	991.255
85.782	14.805	1305.349	991.599
86.797	14.679	1304.120	989.830
87.812	14.655	1303.012	988.762
88.826	14.650	1301.654	987.612
89.841	14.680	1300.283	986.666
90.855	14.757	1299.623	986.531
91.870	14.645	1298.992	985.301
92.884	14.821	1297.949	985.465
93.899	14.727	1297.252	984.292
94.914	14.758	1296.777	984.030
95.928	14.834	1295.817	983.660
96.943	14.761	1294.944	982.480
97.957	14.806	1293.867	981.842
98.972	14.771	1292.520	980.523
99.987	14.732	1291.887	979.728
101.001	14.722	1290.818	978.772
102.016	14.769	1289.619	978.056
103.030	14.890	1288.667	977.955
104.045	14.732	1287.907	976.368
105.060	14.615	1286.749	974.717
106.074	14.541	1285.402	973.181
107.089	14.491	1283.853	971.631
108.103	14.505	1282.261	970.421
109.118	14.425	1281.650	969.407
110.133	14.434	1280.416	968.440
111.147	14.503	1278.976	967.665
112.162	14.495	1277.886	966.711
113.176	14.660	1276.278	966.362
114.191	14.537	1275.698	965.125
115.206	14.676	1274.456	964.906
116.220	14.608	1272.906	963.254
117.235	14.539	1272.390	962.381
118.249	14.521	1271.614	961.603
119.264	14.578	1269.640	960.352
120.279	14.493	1268.789	959.137
121.293	14.418	1267.921	957.963
122.308	14.370	1267.162	957.029
123.322	14.404	1266.220	956.427
124.337	14.354	1265.000	955.138
125.352	14.391	1263.744	954.315
126.366	14.347	1263.187	953.560
127.381	14.336	1262.175	952.648
128.395	14.390	1260.794	951.826
129.410	14.402	1260.018	951.226
130.424	14.339	1259.519	950.407
131.439	14.465	1258.124	949.987
132.454	14.514	1257.022	949.353
133.468	14.568	1256.532	949.205
134.483	14.544	1255.690	948.346
135.497	14.610	1254.622	947.834
136.512	14.606	1253.144	946.608
137.527	14.546	1252.014	945.334
138.541	14.553	1250.903	944.450
139.556	14.674	1249.493	943.984
140.570	14.649	1248.969	943.367
141.585	14.780	1247.423	942.851
142.600	14.719	1246.504	941.730
143.614	14.795	1245.497	941.313
144.629	14.757	1244.677	940.396
145.643	14.893	1243.074	939.866
146.658	14.925	1241.633	938.877
147.673	14.672	1240.709	936.672
148.687	14.616	1239.921	935.684
149.702	14.653	1238.615	934.819
150.716	14.677	1237.059	933.697
151.731	14.686	1235.753	932.678
152.746	14.733	1234.692	932.061
153.760	14.725	1233.953	931.373
154.775	14.699	1232.892	930.344
155.789	14.796	1232.161	930.253
156.804	14.793	1230.720	929.067
157.819	14.788	1230.056	928.456
158.833	14.855	1229.224	928.118
159.848	14.960	1228.172	927.822
160.862	14.895	1227.235	926.671
161.877	14.857	1226.042	925.480
162.892	14.831	1224.324	923.957
163.906	14.677	1224.444	923.112
164.921	14.764	1223.264	922.622
165.935	14.920	1221.830	922.321
166.950	14.788	1221.510	921.267
167.964	14.906	1220.485	921.064
168.979	14.754	1220.346	920.044
169.994	14.791	1219.269	919.350
171.008	14.906	1218.045	918.977
172.023	14.910	1217.787	918.724
173.037	14.959	1216.831	918.192
174.052	14.862	1216.322	917.193
175.067	14.893	1214.451	915.870
176.081	14.789	1213.574	914.562
177.096	14.799	1213.226	914.273
178.110	14.809	1212.082	913.384
179.125	14.871	1210.553	912.491
180.140	14.911	1209.531	911.858
181.154	14.864	1208.438	910.695
182.169	14.921	1207.305	910.069
183.183	15.059	1206.014	909.765
184.198	15.093	1204.879	909.017
185.213	15.091	1203.819	908.125
186.227	15.101	1202.695	907.252
187.242	15.107	1201.947	906.637
188.256	15.176	1200.801	906.065
189.271	15.120	1199.913	905.014
190.286	15.071	1199.236	904.157
191.300	14.881	1198.136	902.226
192.315	14.890	1197.070	901.391
193.329	14.813	1196.742	900.646
194.344	14.882	1196.010	900.391
195.359	14.965	1195.718	900.537
196.373	15.114	1194.800	900.567
197.388	15.234	1194.523	900.925
198.402	15.281	1194.461	901.047
199.417	15.342	1193.768	900.776
200.432	15.496	1192.020	900.202
201.446	15.500	1192.113	900.212
202.461	15.341	1191.116	898.530
203.475	15.521	1190.181	898.709
204.490	15.395	1188.879	896.974
205.504	15.391	1187.395	895.752
206.519	15.238	1186.562	894.226
207.534	15.294	1185.407	893.577
208.548	15.255	1184.356	892.500
209.563	15.289	1183.754	892.144
210.577	15.342	1182.932	891.727
211.592	15.323	1182.124	890.942
212.607	15.523	1181.165	891.199
213.621	15.447	1180.364	890.115
214.636	15.394	1179.558	889.146
215.650	15.569	1178.237	888.996
216.665	15.573	1177.279	888.219
217.680	15.640	1176.917	888.223
218.694	15.689	1175.779	887.541
219.709	15.525	1175.374	886.291
220.723	15.631	1174.316	885.972
221.738	15.709	1173.449	885.655
222.753	15.566	1172.777	884.312
223.767	15.556	1172.344	883.857
224.782	15.726	1171.489	884.026
225.796	15.695	1171.088	883.482
226.811	15.769	1170.379	883.258
227.826	15.611	1169.495	881.685
228.840	15.580	1168.818	880.934
229.855	15.870	1167.691	881.524
230.869	15.715	1167.408	880.422
231.884	15.612	1166.382	879.033
232.899	15.646	1165.281	878.301
233.913	15.603	1164.874	877.694
234.928	15.638	1164.100	877.216
235.942	15.582	1163.654	876.507
236.957	15.672	1162.572	876.088
237.972	15.628	1161.955	875.314
238.986	15.607	1161.278	874.618
240.001	15.570	1160.622	873.852
241.015	15.760	1159.240	873.725
242.030	15.749	1158.545	873.065
243.045	15.781	1158.061	872.789
244.059	15.726	1157.600	872.078
245.074	15.747	1156.499	871.279
246.088	15.818	1155.849	871.081
247.103	15.900	1154.760	870.607
248.117	15.917	1154.257	870.241
249.132	15.944	1153.774	869.937
250.147	16.162	1153.217	870.565
251.161	16.209	1152.632	870.292
252.176	16.174	1152.108	869.638
253.190	16.324	1151.074	869.552
254.205	16.271	1150.095	868.462
255.220	16.396	1149.688	868.722
256.234	16.299	1149.398	867.928
257.249	16.203	1148.981	867.043
258.263	16.152	1148.344	866.221
259.278	16.281	1147.541	866.205
260.293	16.384	1146.673	866.000
261.307	16.386	1145.892	865.340
262.322	16.424	1145.558	865.209
263.336	16.535	1144.436	864.852
264.351	16.558	1143.836	864.437
265.366	16.443	1143.183	863.282
266.380	16.364	1143.017	862.675
267.395	16.417	1141.805	861.957
268.409	16.450	1140.997	861.439
269.424	16.355	1140.392	860.421
270.439	16.442	1140.042	860.526
271.453	16.352	1139.137	859.309
272.468	16.384	1137.854	858.428
273.482	16.316	1137.185	857.502
274.497	16.297	1137.321	857.430
275.512	16.348	1136.199	856.765
276.526	16.317	1135.990	856.376
277.541	16.496	1134.832	856.332
278.555	16.486	1133.881	855.490
279.570	16.538	1133.328	855.261
280.585	16.565	1132.568	854.747
281.599	16.568	1131.971	854.236
282.614	16.520	1130.829	853.057
283.628	16.567	1129.548	852.253
284.643	16.550	1128.839	851.558
285.657	16.484	1128.249	850.704
286.672	16.660	1126.952	850.535
287.687	16.541	1126.103	849.220
288.701	16.570	1125.602	848.915
289.716	16.574	1124.507	848.032
290.730	16.580	1124.031	847.627
291.745	16.682	1122.929	847.234
292.760	16.625	1122.543	846.581
293.774	16.645	1122.268	846.400
294.789	16.812	1121.493	846.576
295.803	16.811	1120.981	846.106
296.818	16.644	1120.337	844.715
297.833	16.685	1119.352	844.101
298.847	16.644	1118.623	843.270
299.862	16.857	1117.539	843.439
300.876	16.786	1117.105	842.687
301.891	16.833	1116.524	842.409
302.906	16.854	1115.569	841.714
303.920	16.983	1115.067	841.902
304.935	16.986	1114.432	841.364
305.949	17.088	1113.720	841.257
306.964	17.128	1113.035	840.862
307.979	17.050	1112.171	839.752
308.993	17.109	1111.250	839.272
310.008	17.065	1110.529	838.435
311.022	17.111	1110.157	838.309
312.037	17.093	1109.186	837.413
313.052	17.014	1108.164	836.176
314.066	16.968	1107.322	835.243
315.081	16.906	1106.376	834.146
316.095	16.941	1105.619	833.675
317.110	16.910	1104.982	832.969
318.125	16.941	1104.071	832.362
319.139	16.837	1103.888	831.637
320.154	17.040	1102.773	831.723
321.168	17.019	1102.720	831.506
322.183	17.030	1101.736	830.742
323.197	17.065	1100.802	830.134
324.212	17.117	1100.795	830.312
325.227	16.861	1100.400	828.687
326.241	17.046	1099.476	828.820
327.256	17.051	1098.924	828.358
328.270	17.170	1097.577	827.849
329.285	16.995	1096.508	826.118
330.300	17.039	1095.944	825.834
331.314	16.973	1095.347	824.990
332.329	17.051	1093.782	824.116
333.343	17.030	1093.007	823.360
334.358	17.268	1092.168	823.808
335.373	17.149	1091.862	822.928
336.387	17.170	1090.874	822.213
337.402	17.169	1090.238	821.651
338.416	17.179	1089.692	821.216
339.431	17.333	1089.012	821.379
340.446	17.337	1088.574	820.994
341.460	17.428	1087.980	820.913
342.475	17.506	1086.910	820.409
343.489	17.613	1086.122	820.254
344.504	17.583	1085.326	819.436
345.519	17.523	1084.357	818.343
346.533	17.706	1083.217	818.289
347.548	17.744	1082.573	817.915
348.562	17.654	1082.222	817.145
349.577	17.459	1081.567	815.641
350.592	17.467	1080.692	814.949
351.606	17.552	1079.578	814.444
352.621	17.398	1079.239	813.379
353.635	17.336	1078.931	812.778
354.650	17.421	1077.652	812.150
355.665	17.391	1076.969	811.420
356.679	17.578	1076.505	811.891
357.694	17.664	1075.909	811.779
358.708	17.676	1075.122	811.170
359.723	17.604	1074.736	810.466
360.738	17.671	1073.772	809.984
361.752	17.615	1073.385	809.355
362.767	17.549	1072.884	808.594
363.781	17.548	1072.597	808.299
364.796	17.740	1071.715	808.476
365.810	17.880	1071.038	808.554
366.825	17.830	1070.616	807.926
367.840	17.891	1069.974	807.662
368.854	17.909	1069.836	807.569
369.869	17.867	1068.879	806.580
370.883	17.936	1067.849	806.056
371.898	17.852	1066.928	804.892
372.913	17.802	1066.694	804.409
373.927	17.839	1066.241	804.171
374.942	18.067	1065.389	804.528
375.956	17.954	1065.354	803.899
376.971	17.900	1064.701	803.084
377.986	17.916	1064.207	802.712
379.000	18.036	1063.427	802.617
380.015	18.269	1062.677	803.074
381.029	18.220	1062.249	802.448
382.044	18.030	1061.747	801.109
383.059	18.242	1060.575	801.144
384.073	18.248	1059.599	800.368
385.088	18.260	1059.072	799.956
386.102	18.131	1058.287	798.685
387.117	18.120	1056.649	797.329
388.132	18.084	1055.955	796.569
389.146	18.079	1055.703	796.285
390.161	18.084	1054.710	795.485
391.175	18.137	1053.764	794.949
392.190	18.102	1053.184	794.279
393.205	18.253	1052.474	794.373
394.219	18.199	1051.820	793.560
395.234	18.113	1050.661	792.218
396.248	18.165	1049.654	791.627
397.263	18.216	1048.558	790.968
398.278	18.128	1048.167	790.196
399.292	18.068	1047.174	789.099
400.307	18.056	1046.327	788.339
401.321	18.093	1046.189	788.334
402.336	18.002	1045.455	787.289
403.350	18.198	1044.535	787.432
404.365	18.158	1044.278	786.983
405.380	18.142	1043.568	786.306
406.394	18.238	1042.539	785.902
407.409	18.415	1041.877	786.146
408.423	18.293	1041.580	785.291
409.438	18.461	1040.562	785.227
410.453	18.427	1040.314	784.814
411.467	18.576	1039.156	784.554
412.482	18.600	1038.262	783.917
413.496	18.621	1037.769	783.573
414.511	18.535	1037.147	782.639
415.526	18.528	1037.214	782.591
416.540	18.619	1036.773	782.600
417.555	18.770	1035.731	782.434
418.569	18.682	1035.535	781.814
419.584	18.632	1034.846	780.999
420.599	18.633	1034.472	780.653
421.613	150.929	1401.885	1798.129
422.628	137.819	1455.396	1798.210
