DTS Sentinel unit serial number:	SN413079Multiplexer serial number:	ORYXHardware model number:	OX4-SRSoftware version number:	ORYX F/W v4.00 Oryx Data Collector v3.7.2.0data status	okinstallation	princeton_trtdifferential loss correction	single-endedforward channel	channel 2reverse channel	N/Adate	2019/09/11time	08:17:11forward acquisition time	60.00reverse acquisition time	0.00gamma	496.2192k internal	0.2323k external	0.2323temperature offset calibration	0.9969default loss term (dB/km)	0.3790temperature slope calibration	1.0000multiplexer offset coefficient	1.0000multiplexer slope coefficient	1.0000fibre end	0.00T internal ref (°C)	32.62T ext. ref 1 (°C)	0.12T ext. ref 2 (°C)	29.64length (m)	temperature (°C)	Stokes	anti-Stokes-747.200	435.774	0.113	0.249
-746.185	-74.424	-0.310	0.113
-745.171	-200.000	-0.019	-0.085
-744.156	115.013	-0.162	0.200
-743.142	-128.095	-0.251	-0.036
-742.127	297.156	0.048	-0.090
-741.112	-198.931	0.123	-0.001
-740.098	-200.000	-0.007	0.045
-739.083	-59.574	-0.215	0.093
-738.069	83.523	-0.142	0.156
-737.054	-126.481	0.093	0.014
-736.039	152.630	-0.131	-0.181
-735.025	800.000	0.042	0.181
-734.010	800.000	-0.065	-0.265
-732.996	233.098	-0.088	-0.145
-731.981	-49.394	-0.362	0.174
-730.966	20.559	-0.191	0.156
-729.952	-51.645	-0.417	0.196
-728.937	231.764	-0.139	-0.231
-727.923	158.229	-0.162	-0.227
-726.908	-84.308	-0.287	-0.092
-725.894	112.718	-0.029	-0.036
-724.879	107.033	-0.185	-0.222
-723.864	-200.000	0.006	-0.093
-722.850	181.786	-0.053	-0.079
-721.835	-130.341	0.139	-0.019
-720.821	62.015	-0.111	-0.111
-719.806	-173.350	0.192	0.006
-718.791	386.294	0.100	0.207
-717.777	800.000	-0.125	-0.373
-716.762	-72.707	-0.069	-0.026
-715.748	-29.201	0.007	0.004
-714.733	54.152	-0.170	0.165
-713.718	-115.821	0.093	-0.018
-712.704	800.000	0.059	-0.252
-711.689	229.881	-0.073	-0.120
-710.675	53.056	-0.239	-0.231
-709.660	-110.911	-0.184	0.038
-708.645	-66.043	-0.183	-0.074
-707.631	-124.346	0.393	0.062
-706.616	-20.928	0.061	-0.037
-705.602	547.129	0.141	-0.339
-704.587	-61.215	-0.376	0.160
-703.572	-200.000	0.102	0.530
-702.558	-142.094	-0.353	-0.035
-701.543	-95.633	-0.289	-0.078
-700.529	-2.611	0.044	-0.031
-699.514	-45.211	-0.317	0.159
-698.499	-147.553	-0.127	-0.011
-697.485	234.153	-0.140	-0.233
-696.470	27.199	-0.270	-0.229
-695.456	275.785	-0.093	-0.167
-694.441	259.594	-0.056	-0.097
-693.426	800.000	0.093	-0.289
-692.412	-45.477	0.091	-0.045
-691.397	-95.578	-0.017	-0.005
-690.383	-170.662	-0.270	0.009
-689.368	19.820	0.182	0.148
-688.354	-200.000	-0.007	0.302
-687.339	89.370	-0.095	0.107
-686.324	232.682	0.128	0.211
-685.310	184.516	-0.056	0.083
-684.295	31.909	-0.285	-0.247
-683.281	-68.622	-0.184	-0.072
-682.266	5.259	-0.173	0.128
-681.251	-80.474	-0.194	-0.065
-680.237	3.320	-0.110	0.080
-679.222	-124.674	0.162	-0.025
-678.208	-181.710	-0.134	-0.003
-677.193	79.637	-0.199	-0.215
-676.178	40.338	-0.180	-0.163
-675.164	14.220	0.032	-0.025
-674.149	-119.475	-0.362	-0.063
-673.135	-200.000	0.022	-0.278
-672.120	-51.350	-0.186	0.087
-671.105	126.796	0.150	0.191
-670.091	20.434	-0.214	-0.174
-669.076	-113.015	-0.352	-0.070
-668.062	299.375	0.201	-0.373
-667.047	800.000	-0.122	-0.370
-666.032	-200.000	-0.003	-0.190
-665.018	68.224	0.243	-0.250
-664.003	35.194	0.100	-0.088
-662.989	-142.216	0.303	0.030
-661.974	101.036	-0.167	-0.195
-660.959	800.000	-0.083	0.258
-659.945	-200.000	-0.026	0.158
-658.930	-63.974	-0.287	0.118
-657.916	291.812	-0.038	-0.069
-656.901	-200.000	-0.024	-0.377
-655.886	-40.368	0.065	-0.034
-654.872	175.092	-0.039	0.057
-653.857	8.328	0.378	-0.286
-652.843	-200.000	0.030	0.251
-651.828	800.000	0.046	-0.186
-650.814	-200.000	0.001	0.216
-649.799	800.000	-0.039	0.124
-648.784	-200.000	0.018	0.315
-647.770	800.000	0.036	0.106
-646.755	-130.651	0.135	-0.018
-645.741	-138.959	-0.130	-0.014
-644.726	5.203	-0.323	-0.239
-643.711	-45.916	0.200	-0.099
-642.697	-109.486	0.042	0.009
-641.682	104.677	-0.192	-0.227
-640.668	-200.000	0.010	0.205
-639.653	131.389	0.197	0.254
-638.638	163.710	0.162	-0.229
-637.624	-55.807	-0.170	-0.076
-636.609	273.562	0.040	0.071
-635.595	-151.675	-0.506	-0.037
-634.580	-13.594	-0.274	0.179
-633.565	17.276	0.050	0.040
-632.551	57.340	0.210	0.206
-631.536	259.254	0.078	0.136
-630.522	-81.879	-0.214	-0.070
-629.507	-75.259	-0.026	-0.009
-628.492	154.833	0.045	-0.062
-627.478	-200.000	-0.023	-0.165
-626.463	41.694	-0.047	-0.043
-625.449	-128.697	0.129	-0.018
-624.434	-12.675	-0.044	-0.029
-623.419	-10.720	-0.217	0.144
-622.405	-200.000	-0.010	0.100
-621.390	800.000	-0.026	-0.087
-620.376	-6.401	-0.219	0.150
-619.361	-12.789	-0.261	-0.171
-618.346	-169.324	0.042	-0.002
-617.332	101.990	-0.237	-0.278
-616.317	800.000	-0.098	0.357
-615.303	271.765	-0.252	-0.447
-614.288	-77.621	-0.244	0.085
-613.273	274.659	0.068	0.120
-612.259	81.366	0.347	0.377
-611.244	5.546	-0.335	0.248
-610.230	-200.000	0.059	-0.360
-609.215	-166.993	0.259	-0.011
-608.201	-70.795	-0.058	0.022
-607.186	326.422	-0.169	-0.326
-606.171	-176.697	0.401	-0.010
-605.157	188.023	-0.185	-0.278
-604.142	135.686	-0.157	-0.205
-603.128	-126.834	0.133	0.020
-602.113	-200.000	0.009	-0.216
-601.098	-128.966	-0.119	-0.017
-600.084	134.756	-0.104	0.135
-599.069	-142.167	0.454	0.045
-598.055	230.994	0.076	-0.125
-597.040	-32.019	0.315	0.177
-596.025	-200.000	-0.008	0.133
-595.011	-50.369	-0.107	-0.051
-593.996	-96.048	-0.231	0.062
-592.982	800.000	0.056	-0.158
-591.967	-103.207	0.169	-0.040
-590.952	-0.379	0.349	-0.249
-589.938	-200.000	-0.005	-0.212
-588.923	134.219	0.178	0.231
-587.909	800.000	-0.029	0.089
-586.894	-49.861	-0.182	0.087
-585.879	525.649	-0.038	-0.089
-584.865	-116.891	0.302	-0.055
-583.850	-59.360	-0.256	0.110
-582.836	-200.000	-0.002	-0.092
-581.821	361.427	-0.194	-0.390
-580.806	379.821	0.060	0.123
-579.792	-200.000	0.042	0.379
-578.777	274.269	-0.197	-0.349
-577.763	-156.282	-0.350	-0.022
-576.748	109.342	-0.085	-0.102
-575.733	-70.209	0.348	-0.133
-574.719	158.746	-0.286	-0.399
-573.704	-91.662	0.166	0.047
-572.690	-21.208	-0.220	-0.135
-571.675	-60.452	-0.135	-0.057
-570.661	-200.000	-0.004	0.083
-569.646	339.010	-0.147	0.286
-568.631	-115.109	-0.168	0.032
-567.617	132.681	0.201	-0.260
-566.602	682.012	-0.084	-0.220
-565.588	77.253	-0.208	-0.222
-564.573	-82.191	0.066	0.021
-563.558	-105.387	0.286	-0.065
-562.544	-141.884	0.062	-0.006
-561.529	-135.902	0.335	0.040
-560.515	-44.046	0.187	-0.094
-559.500	800.000	0.061	0.221
-558.485	800.000	0.064	0.235
-557.471	-99.183	-0.222	0.056
-556.456	-145.693	-0.212	-0.019
-555.442	99.533	0.179	0.208
-554.427	-200.000	-0.007	-0.192
-553.412	-196.107	0.199	-0.001
-552.398	104.280	0.148	-0.174
-551.383	-87.149	-0.374	-0.114
-550.369	-115.654	0.259	-0.049
-549.354	156.282	-0.186	0.258
-548.339	800.000	-0.071	0.205
-547.325	-11.674	-0.152	-0.100
-546.310	800.000	0.041	0.148
-545.296	-171.139	-0.226	0.008
-544.281	-200.000	0.021	-0.228
-543.266	139.729	0.067	0.089
-542.252	-200.000	-0.032	0.213
-541.237	-200.000	0.022	0.110
-540.223	-120.487	0.452	-0.077
-539.208	-0.721	-0.331	0.235
-538.193	349.133	-0.164	-0.324
-537.179	238.389	-0.115	-0.192
-536.164	-30.036	0.165	-0.094
-535.150	54.365	-0.142	0.137
-534.135	800.000	0.049	-0.150
-533.121	-107.786	0.087	0.019
-532.106	800.000	0.091	-0.271
-531.091	557.361	0.018	-0.044
-530.077	800.000	0.039	0.172
-529.062	787.798	0.036	-0.098
-528.048	-163.712	-0.502	0.024
-527.033	94.065	-0.095	0.108
-526.018	-200.000	0.017	-0.089
-525.004	275.237	0.047	0.084
-523.989	-106.266	-0.102	-0.023
-522.975	-200.000	-0.029	-0.131
-521.960	142.598	-0.099	-0.132
-520.945	-78.135	0.136	0.047
-519.931	800.000	-0.082	0.339
-518.916	216.299	0.066	0.105
-517.902	-104.101	-0.048	-0.011
-516.887	529.061	-0.120	-0.284
-515.872	284.797	-0.019	0.035
-514.858	-95.846	0.137	0.037
-513.843	-200.000	-0.002	0.219
-512.829	118.930	-0.191	-0.236
-511.814	-200.000	0.002	0.140
-510.799	800.000	0.040	0.113
-509.785	113.536	0.107	-0.131
-508.770	618.084	0.072	-0.180
-507.756	449.730	0.004	0.009
-506.741	106.629	-0.318	-0.378
-505.726	276.913	-0.218	-0.389
-504.712	88.397	0.045	-0.050
-503.697	309.977	0.022	-0.041
-502.683	53.512	-0.096	-0.092
-501.668	378.638	0.119	-0.244
-500.653	135.723	0.205	0.267
-499.639	800.000	-0.060	0.197
-498.624	-47.189	0.228	0.111
-497.610	-59.050	0.537	0.232
-496.595	99.190	0.115	0.133
-495.581	-26.815	-0.431	0.252
-494.566	-86.914	0.171	0.052
-493.551	75.857	0.149	0.158
-492.537	-116.701	0.147	0.027
-491.522	214.137	0.221	-0.349
-490.508	104.993	-0.316	-0.372
-489.493	46.351	-0.081	0.075
-488.478	-7.217	-0.082	0.056
-487.464	235.793	-0.095	-0.157
-486.449	131.790	-0.100	-0.129
-485.435	83.700	-0.163	-0.178
-484.420	-200.000	0.014	-0.224
-483.405	-113.968	-0.207	-0.040
-482.391	-38.318	0.186	0.098
-481.376	-200.000	0.005	-0.060
-480.362	800.000	0.018	-0.076
-479.347	34.043	0.121	0.105
-478.332	236.722	-0.220	0.365
-477.318	-40.762	-0.133	0.069
-476.303	338.360	0.128	0.250
-475.289	-72.783	-0.270	0.099
-474.274	280.852	-0.067	0.121
-473.259	-200.000	-0.014	0.088
-472.245	-200.000	-0.038	0.228
-471.230	-89.912	0.434	0.127
-470.216	207.985	-0.223	-0.349
-469.201	-192.124	0.210	-0.002
-468.186	-114.854	0.176	0.033
-467.172	309.029	-0.087	-0.162
-466.157	-112.816	0.325	-0.064
-465.143	178.808	-0.109	0.159
-464.128	-200.000	0.022	0.171
-463.113	731.840	-0.067	-0.180
-462.099	185.612	-0.109	-0.162
-461.084	225.438	-0.098	-0.159
-460.070	-120.723	-0.109	0.018
-459.055	-200.000	-0.025	-0.279
-458.040	800.000	0.082	0.300
-457.026	-171.143	0.353	0.012
-456.011	-200.000	0.025	0.111
-454.997	378.773	-0.064	0.132
-453.982	-200.000	0.017	0.141
-452.968	-71.727	-0.240	-0.089
-451.953	-200.000	-0.016	-0.210
-450.938	183.828	-0.027	-0.040
-449.924	58.830	0.269	0.264
-448.909	248.835	-0.075	0.127
-447.895	-109.937	0.076	0.016
-446.880	-47.071	0.081	0.039
-445.865	-108.508	-0.041	-0.009
-444.851	-169.881	-0.127	-0.005
-443.836	-168.405	-0.187	-0.007
-442.822	-126.712	0.015	-0.002
-441.807	238.727	0.235	-0.390
-440.792	800.000	0.024	-0.074
-439.778	-200.000	0.014	-0.196
-438.763	-59.359	-0.132	0.056
-437.749	262.551	-0.167	-0.290
-436.734	-146.208	0.179	-0.016
-435.719	-200.000	0.049	-0.384
-434.705	96.386	-0.240	0.274
-433.690	148.399	0.135	0.181
-432.676	-40.088	-0.119	-0.062
-431.661	-200.000	-0.058	-0.298
-430.646	-91.246	-0.197	-0.056
-429.632	800.000	0.153	0.481
-428.617	-200.000	-0.001	0.037
-427.603	-200.000	0.025	0.215
-426.588	306.190	0.085	0.157
-425.573	-81.219	-0.230	-0.076
-424.559	61.521	-0.238	-0.236
-423.544	-200.000	-0.014	-0.127
-422.530	-83.679	-0.229	0.073
-421.515	-200.000	0.003	0.025
-420.500	-85.315	-0.086	-0.027
-419.486	-69.807	-0.374	-0.143
-418.471	76.876	0.138	0.146
-417.457	-90.556	-0.132	0.038
-416.442	91.527	0.107	-0.120
-415.428	800.000	-0.040	-0.164
-414.413	-200.000	0.006	0.241
-413.398	5.199	-0.058	0.043
-412.384	450.127	-0.068	0.149
-411.369	-122.552	0.017	-0.003
-410.355	403.616	0.076	-0.158
-409.340	796.495	0.074	-0.204
-408.325	-200.000	0.007	-0.249
-407.311	225.830	-0.215	-0.348
-406.296	-79.824	0.271	-0.091
-405.282	-71.408	-0.255	0.095
-404.267	37.708	-0.225	-0.199
-403.252	108.018	-0.115	0.136
-402.238	-133.709	-0.252	0.031
-401.223	-166.695	0.121	0.005
-400.209	452.569	-0.034	0.074
-399.194	-47.346	0.068	-0.033
-398.179	-200.000	-0.036	-0.226
-397.165	721.772	-0.032	0.086
-396.150	-200.000	-0.027	0.234
-395.136	124.055	-0.071	0.089
-394.121	-200.000	-0.036	0.177
-393.106	-36.313	0.155	-0.083
-392.092	191.997	-0.178	-0.267
-391.077	0.320	0.119	0.085
-390.063	-200.000	0.013	0.132
-389.048	-200.000	-0.017	-0.143
-388.033	278.568	0.139	0.247
-387.019	-92.931	-0.126	0.035
-386.004	-109.558	-0.195	-0.041
-384.990	21.281	0.100	-0.080
-383.975	91.068	-0.179	0.200
-382.960	318.520	0.204	-0.385
-381.946	800.000	-0.059	0.176
-380.931	-200.000	-0.023	0.259
-379.917	-200.000	-0.027	-0.135
-378.902	188.333	-0.166	-0.247
-377.888	-167.689	-0.296	-0.012
-376.873	-99.668	0.135	-0.034
-375.858	13.503	0.134	0.104
-374.844	800.000	0.030	0.115
-373.829	-138.259	0.158	0.017
-372.815	-93.642	0.430	-0.118
-371.800	14.567	-0.232	0.181
-370.785	-200.000	-0.013	0.086
-369.771	-155.228	-0.107	-0.007
-368.756	681.147	-0.037	0.097
-367.742	-120.084	0.207	-0.035
-366.727	216.386	0.027	0.042
-365.712	800.000	0.121	-0.360
-364.698	-36.663	-0.247	0.132
-363.683	-43.453	-0.299	0.150
-362.669	-200.000	-0.007	-0.046
-361.654	-76.532	0.195	0.068
-360.639	-200.000	-0.033	-0.267
-359.625	50.065	-0.189	0.178
-358.610	103.593	0.070	0.082
-357.596	-125.626	-0.084	0.013
-356.581	77.883	0.113	0.120
-355.566	-80.690	-0.078	0.026
-354.552	150.652	0.049	0.066
-353.537	45.436	-0.144	0.133
-352.523	-200.000	0.296	0.001
-351.508	-42.132	0.072	-0.036
-350.493	276.029	0.017	-0.030
-349.479	-200.000	0.047	-0.243
-348.464	65.190	-0.230	0.231
-347.450	74.974	0.149	0.156
-346.435	98.546	-0.140	0.160
-345.420	-200.000	0.073	0.413
-344.406	-19.674	0.243	0.149
-343.391	-200.000	-0.009	-0.192
-342.377	-71.007	-0.095	0.036
-341.362	160.908	-0.126	0.176
-340.348	-200.000	0.001	0.251
-339.333	800.000	-0.065	-0.231
-338.318	695.520	-0.051	-0.133
-337.304	665.499	0.121	0.312
-336.289	193.100	0.068	-0.102
-335.275	-88.118	0.394	-0.117
-334.260	326.209	0.095	0.181
-333.245	-153.423	0.307	-0.021
-332.231	71.584	-0.047	0.048
-331.216	109.987	-0.181	0.216
-330.202	283.091	0.145	0.258
-329.187	-131.913	0.403	-0.052
-328.172	-46.326	0.229	-0.112
-327.158	28.715	-0.130	-0.109
-326.143	-45.547	-0.291	0.143
-325.129	237.025	0.138	0.227
-324.114	7.261	0.298	0.221
-323.099	800.000	-0.068	0.233
-322.085	-147.740	0.290	0.024
-321.070	-24.429	-0.043	-0.025
-320.056	152.985	0.216	-0.293
-319.041	-112.143	-0.180	-0.036
-318.026	-91.482	0.263	-0.075
-317.012	57.596	-0.140	-0.136
-315.997	670.463	-0.014	0.036
-314.983	-153.023	-0.130	0.009
-313.968	256.285	0.074	-0.126
-312.953	-104.061	-0.118	-0.027
-311.939	800.000	-0.012	-0.046
-310.924	149.782	-0.206	0.277
-309.910	-12.616	-0.262	0.169
-308.895	-192.855	0.320	0.003
-307.880	14.907	-0.157	0.122
-306.866	-86.206	0.162	0.050
-305.851	-163.796	0.180	-0.008
-304.837	477.909	0.135	-0.303
-303.822	-119.100	-0.276	0.048
-302.807	29.773	-0.214	0.181
-301.793	800.000	-0.071	0.217
-300.778	-200.000	-0.428	0.001
-299.764	-53.347	-0.200	-0.091
-298.749	-200.000	-0.031	0.385
-297.735	-200.000	-0.019	0.181
-296.720	307.152	-0.054	0.100
-295.705	-11.679	-0.223	-0.145
-294.691	800.000	0.031	0.134
-293.676	-200.000	0.003	-0.232
-292.662	-8.950	-0.184	-0.122
-291.647	-57.759	-0.089	0.039
-290.632	-135.656	-0.074	0.009
-289.618	151.364	0.039	0.053
-288.603	-81.527	0.287	-0.094
-287.589	-9.412	-0.169	-0.112
-286.574	-3.248	-0.253	-0.175
-285.559	3.399	0.204	0.148
-284.545	-17.548	0.094	-0.059
-283.530	-200.000	0.012	-0.091
-282.516	-168.416	0.314	0.012
-281.501	800.000	-0.082	0.243
-280.486	-39.287	0.237	0.123
-279.472	85.594	0.149	-0.162
-278.457	-52.825	-0.120	0.055
-277.443	-82.053	0.325	0.105
-276.428	800.000	0.052	-0.152
-275.413	65.846	0.366	-0.368
-274.399	-18.035	-0.183	0.114
-273.384	621.224	0.091	-0.228
-272.370	-28.844	0.090	0.051
-271.355	65.145	-0.065	-0.065
-270.340	533.999	0.094	-0.222
-269.326	-25.713	-0.055	-0.032
-268.311	-200.000	0.006	-0.128
-267.297	-156.247	0.063	-0.004
-266.282	-200.000	0.026	-0.329
-265.267	-63.213	-0.214	-0.087
-264.253	-105.014	0.161	-0.036
-263.238	-78.048	0.348	0.119
-262.224	-33.621	-0.304	0.166
-261.209	219.134	-0.035	-0.056
-260.195	570.380	0.014	0.033
-259.180	15.549	-0.146	-0.114
-258.165	43.824	0.126	0.114
-257.151	-200.000	-0.024	-0.209
-256.136	-33.702	0.300	0.164
-255.122	-181.657	-0.173	-0.003
-254.107	86.327	-0.072	-0.078
-253.092	-123.615	-0.225	-0.035
-252.078	114.573	0.112	-0.136
-251.063	-71.788	-0.050	0.018
-250.049	103.372	-0.051	-0.059
-249.034	-168.719	0.045	-0.002
-248.019	0.516	-0.090	-0.064
-247.005	-18.614	-0.024	0.015
-245.990	-200.000	-0.013	0.217
-244.976	210.677	0.100	-0.155
-243.961	-200.000	-0.016	0.342
-242.946	-47.824	0.287	0.138
-241.932	-3.191	0.150	-0.104
-240.917	-43.553	-0.079	0.040
-239.903	-16.128	0.124	0.078
-238.888	428.894	-0.268	-0.573
-237.873	800.000	-0.061	-0.194
-236.859	-49.848	-0.231	-0.108
-235.844	-200.000	-0.036	-0.262
-234.830	44.956	-0.143	0.130
-233.815	-131.807	0.115	0.015
-232.800	800.000	0.027	0.077
-231.786	55.557	-0.113	-0.108
-230.771	-77.236	-0.118	-0.041
-229.757	-46.686	0.157	0.076
-228.742	-35.289	-0.330	-0.178
-227.727	-51.087	0.618	0.287
-226.713	-20.150	-0.123	0.075
-225.698	735.920	-0.056	-0.148
-224.684	-41.730	0.160	-0.081
-223.669	159.386	0.165	-0.227
-222.655	-140.327	-0.075	-0.008
-221.640	-67.668	-0.310	0.120
-220.625	-107.839	-0.250	0.054
-219.611	645.572	-0.111	0.279
-218.596	-3.524	0.159	-0.109
-217.582	3.739	0.357	-0.258
-216.567	47.412	-0.251	-0.232
-215.552	-93.011	0.458	-0.126
-214.538	-104.021	-0.269	-0.062
-213.523	800.000	0.031	-0.114
-212.509	-96.895	0.089	-0.023
-211.494	99.293	0.038	0.043
-210.479	-152.035	0.242	-0.017
-209.465	-46.779	0.186	0.090
-208.450	135.984	0.090	-0.117
-207.436	254.787	0.245	-0.415
-206.421	-128.432	-0.259	-0.036
-205.406	-200.000	-0.026	0.143
-204.392	-44.221	0.123	-0.061
-203.377	-152.133	0.320	-0.023
-202.363	-200.000	0.053	0.257
-201.348	-75.290	-0.069	0.024
-200.333	-94.319	0.260	-0.070
-199.319	23.746	0.123	0.101
-198.304	194.369	-0.014	0.021
-197.290	-200.000	0.009	0.113
-196.275	-67.077	-0.190	-0.074
-195.260	691.970	0.068	0.176
-194.246	800.000	-0.027	0.091
-193.231	798.028	-0.030	0.083
-192.217	-200.000	0.024	0.216
-191.202	15.383	-0.190	-0.147
-190.187	167.905	-0.223	-0.314
-189.173	-137.116	-0.298	0.034
-188.158	800.000	0.067	0.199
-187.144	-59.152	0.263	0.112
-186.129	-93.708	0.293	-0.080
-185.114	-200.000	-0.030	0.211
-184.100	800.000	0.087	0.321
-183.085	58.889	-0.309	0.301
-182.071	-88.938	0.296	0.087
-181.056	-71.190	-0.214	-0.079
-180.042	800.000	-0.052	0.183
-179.027	-133.244	0.565	-0.070
-178.012	800.000	-0.026	0.097
-176.998	800.000	0.011	-0.042
-175.983	74.331	-0.154	0.160
-174.969	-0.114	0.095	0.067
-173.954	531.929	0.134	-0.313
-172.939	-200.000	-0.039	0.421
-171.925	800.000	0.038	0.128
-170.910	-125.915	0.191	-0.028
-169.896	-61.745	-0.151	0.062
-168.881	-140.982	0.194	-0.020
-167.866	-200.000	0.026	0.211
-166.852	-200.000	0.063	0.414
-165.837	-64.770	0.208	0.083
-164.823	506.386	0.019	-0.043
-163.808	115.903	0.111	-0.134
-162.793	-192.242	-0.339	0.003
-161.779	-200.000	0.005	-0.050
-160.764	167.719	-0.058	0.082
-159.750	-8.035	0.245	-0.163
-158.735	-75.395	0.263	-0.093
-157.720	13.390	0.297	0.227
-156.706	125.471	-0.223	0.277
-155.691	-134.606	0.393	0.047
-154.677	800.000	0.048	-0.137
-153.662	-200.000	0.027	0.233
-152.647	-175.791	0.232	0.006
-151.633	91.128	-0.181	-0.200
-150.618	-174.430	0.594	-0.017
-149.604	-200.000	-0.037	0.275
-148.589	-200.000	0.017	0.111
-147.574	54.744	0.169	0.161
-146.560	-88.797	0.211	0.062
-145.545	800.000	-0.080	0.342
-144.531	37.790	0.104	0.091
-143.516	800.000	0.068	-0.247
-142.502	491.746	-0.080	0.181
-141.487	-200.000	0.056	-0.267
-140.472	800.000	0.069	-0.291
-139.458	800.000	-0.085	-0.307
-138.443	800.000	0.050	-0.173
-137.429	2.772	-0.039	-0.028
-136.414	386.636	0.176	0.358
-135.399	-35.025	0.171	-0.092
-134.385	320.187	0.062	0.116
-133.370	-157.685	0.334	-0.020
-132.356	-200.000	0.026	0.138
-131.341	-46.474	-0.128	-0.062
-130.326	169.230	-0.048	-0.068
-129.312	52.511	0.241	-0.227
-128.297	574.275	0.046	0.110
-127.283	-43.600	0.076	-0.038
-126.268	-200.000	-0.059	0.276
-125.253	14.621	-0.211	-0.162
-124.239	-66.254	0.235	0.092
-123.224	-82.186	-0.175	0.056
-122.210	-200.000	0.044	-0.330
-121.195	-200.000	-0.010	0.261
-120.180	409.634	-0.096	0.201
-119.166	19.921	-0.178	-0.141
-118.151	-80.865	0.024	-0.008
-117.137	-200.000	-0.002	0.081
-116.122	-131.074	-0.302	-0.040
-115.107	800.000	0.092	-0.298
-114.093	92.437	-0.138	0.153
-113.078	539.434	0.084	-0.197
-112.064	-98.528	0.181	0.045
-111.049	445.143	-0.076	0.164
-110.034	-5.893	0.128	0.086
-109.020	-64.100	0.216	-0.087
-108.005	61.795	0.090	0.088
-106.991	151.625	0.125	-0.168
-105.976	478.280	0.168	0.375
-104.962	270.055	0.067	-0.116
-103.947	244.689	0.105	0.173
-102.932	800.000	-0.016	0.065
-101.918	430.085	-0.108	-0.230
-100.903	-92.562	0.343	0.095
-99.889	-94.778	-0.200	0.053
-98.874	-200.000	0.092	0.399
-97.859	27.849	0.110	-0.091
-96.845	-117.313	0.155	0.028
-95.830	10.141	-0.205	-0.153
-94.816	-200.000	0.058	-0.299
-93.801	49.114	0.280	0.259
-92.786	27.293	0.035	0.029
-91.772	169.503	0.148	0.208
-90.757	-200.000	0.010	0.091
-89.743	-78.953	0.260	-0.087
-88.728	800.000	0.114	-0.349
-87.713	800.000	0.026	0.105
-86.699	-4.261	-0.359	0.245
-85.684	58.877	0.254	0.246
-84.670	-29.578	-0.700	0.394
-83.655	-200.000	-0.053	-0.227
-82.640	-111.997	0.389	-0.077
-81.626	-29.776	-0.123	0.069
-80.611	65.575	0.088	-0.088
-79.597	-200.000	-0.025	0.240
-78.582	800.000	-0.067	-0.234
-77.567	800.000	-0.039	0.113
-76.553	52.269	-0.173	0.162
-75.538	-200.000	-0.002	0.366
-74.524	76.764	-0.196	0.205
-73.509	-137.786	0.142	0.016
-72.494	-123.807	-0.327	0.051
-71.480	164.649	-0.089	0.123
-70.465	-155.990	-0.117	-0.007
-69.451	443.433	0.051	-0.110
-68.436	-200.000	0.066	-0.328
-67.422	-200.000	0.011	0.231
-66.407	-117.163	0.355	0.064
-65.392	-200.000	0.025	0.225
-64.378	16.929	-0.209	-0.163
-63.363	211.932	0.200	-0.310
-62.349	42.129	0.239	-0.213
-61.334	57.825	-1.075	-1.034
-60.319	800.000	0.045	0.135
-59.305	224.383	-0.383	-0.608
-58.290	211.382	0.540	0.836
-57.276	486.452	0.618	1.385
-56.261	-200.000	102.574	656.957
-55.246	633.943	1460.106	3639.480
-54.232	177.177	2686.152	3844.090
-53.217	113.820	2323.300	2775.868
-52.203	42.414	1929.985	1725.102
-51.188	35.794	1719.188	1485.708
-50.173	33.127	1674.574	1426.992
-49.159	52.779	1726.957	1622.588
-48.144	54.919	1741.980	1652.971
-47.130	35.622	1698.171	1465.996
-46.115	32.717	1682.568	1430.465
-45.100	32.528	1677.863	1424.979
-44.086	32.457	1675.349	1422.254
-43.071	32.537	1671.932	1419.903
-42.057	32.553	1669.900	1418.237
-41.042	32.458	1667.897	1415.765
-40.027	32.499	1665.659	1414.117
-39.013	32.484	1663.923	1412.478
-37.998	32.457	1662.562	1411.064
-36.984	32.552	1661.318	1410.662
-35.969	32.702	1658.976	1409.743
-34.954	32.651	1657.972	1408.451
-33.940	32.572	1656.310	1406.390
-32.925	32.579	1654.698	1405.022
-31.911	32.568	1652.649	1403.140
-30.896	32.617	1650.626	1401.731
-29.881	32.582	1649.120	1400.136
-28.867	32.573	1647.530	1398.666
-27.852	32.624	1645.958	1397.654
-26.838	32.613	1644.160	1395.990
-25.823	32.672	1642.637	1395.079
-24.809	32.661	1642.012	1394.414
-23.794	32.610	1640.656	1392.826
-22.779	32.687	1638.642	1391.632
-21.765	32.630	1636.984	1389.745
-20.750	32.726	1635.125	1388.821
-19.736	32.689	1634.137	1387.652
-18.721	32.728	1632.654	1386.623
-17.706	32.569	1631.209	1384.176
-16.692	32.667	1629.783	1383.627
-15.677	32.592	1628.607	1382.027
-14.663	32.662	1627.215	1381.302
-13.648	32.699	1625.347	1379.933
-12.633	32.715	1624.050	1378.893
-11.619	32.577	1622.954	1376.901
-10.604	32.696	1620.928	1375.997
-9.590	32.643	1619.661	1374.480
-8.575	32.721	1618.009	1373.595
-7.560	32.695	1617.344	1372.785
-6.546	32.626	1616.096	1371.167
-5.531	32.666	1614.898	1370.389
-4.517	32.732	1613.501	1369.630
-3.502	32.675	1612.429	1368.246
-2.487	32.708	1610.568	1366.854
-1.473	32.661	1599.485	1357.057
-0.458	30.383	1580.515	1324.680
0.556	25.294	1582.277	1295.590
1.571	23.261	1606.988	1300.793
2.586	22.659	1620.740	1307.347
3.600	19.557	1565.415	1240.360
4.615	10.015	1450.634	1085.497
5.629	1.728	1384.174	982.373
6.644	0.225	1375.819	966.715
7.659	0.140	1374.351	965.057
8.673	0.069	1373.448	963.882
9.688	0.046	1371.675	962.403
10.702	-0.093	1368.579	959.260
11.717	3.133	1374.689	984.116
12.731	12.893	1394.553	1061.341
13.746	20.882	1408.155	1123.317
14.761	22.798	1410.939	1137.801
15.775	23.272	1410.155	1140.118
16.790	23.157	1410.384	1139.464
17.804	23.295	1409.654	1139.661
18.819	23.497	1408.898	1140.248
19.834	23.570	1408.578	1140.357
20.848	23.708	1407.365	1140.162
21.863	23.624	1406.596	1138.900
22.877	23.564	1406.174	1138.071
23.892	23.603	1405.122	1137.370
24.907	23.659	1404.007	1136.724
25.921	23.548	1403.429	1135.444
26.936	23.646	1402.340	1135.091
27.950	23.572	1401.450	1133.798
28.965	23.566	1399.950	1132.443
29.980	23.652	1398.165	1131.446
30.994	23.713	1396.845	1130.671
32.009	23.659	1395.833	1129.407
33.023	23.555	1395.077	1128.033
34.038	23.621	1393.845	1127.358
35.053	23.691	1392.160	1126.338
36.067	23.641	1391.634	1125.498
37.082	23.625	1391.137	1124.890
38.096	23.565	1390.317	1123.750
39.111	23.524	1389.269	1122.543
40.126	23.489	1388.828	1121.864
41.140	23.603	1387.969	1121.796
42.155	23.555	1387.845	1121.289
43.169	23.637	1387.766	1121.643
44.184	23.610	1387.141	1120.872
45.199	23.646	1386.401	1120.400
46.213	23.602	1386.094	1119.777
47.228	23.630	1385.374	1119.272
48.242	23.608	1384.411	1118.254
49.257	23.675	1382.511	1117.044
50.271	23.598	1381.028	1115.265
51.286	23.587	1379.704	1114.025
52.301	23.612	1378.422	1113.048
53.315	23.557	1377.922	1112.200
54.330	23.634	1376.927	1111.782
55.344	23.546	1376.167	1110.520
56.359	23.582	1374.804	1109.549
57.374	23.596	1374.000	1108.890
58.388	23.533	1373.571	1108.049
59.403	23.615	1372.524	1107.621
60.417	23.606	1372.486	1107.435
61.432	23.544	1371.650	1106.276
62.447	23.619	1370.364	1105.610
63.461	23.589	1369.430	1104.569
64.476	23.613	1368.502	1103.875
65.490	23.613	1367.477	1102.948
66.505	23.690	1365.504	1101.736
67.520	23.611	1364.604	1100.421
68.534	23.566	1363.544	1099.192
69.549	23.574	1362.894	1098.619
70.563	23.603	1361.615	1097.673
71.578	23.749	1359.773	1096.990
72.593	23.609	1359.924	1096.151
73.607	23.607	1359.168	1095.432
74.622	23.663	1357.943	1094.693
75.636	23.589	1357.799	1094.026
76.651	23.653	1356.885	1093.586
77.666	23.624	1356.265	1092.813
78.680	23.643	1355.693	1092.370
79.695	23.645	1354.517	1091.341
80.709	23.583	1354.417	1090.778
81.724	23.626	1353.177	1089.952
82.739	23.598	1352.292	1088.966
83.753	23.569	1351.316	1087.906
84.768	23.629	1350.326	1087.385
85.782	23.700	1349.028	1086.678
86.797	23.691	1347.581	1085.357
87.812	23.650	1346.666	1084.275
88.826	23.741	1345.396	1083.709
89.841	23.661	1344.715	1082.580
90.855	23.699	1343.643	1081.852
91.870	23.721	1342.466	1080.940
92.884	23.801	1341.470	1080.534
93.899	23.599	1341.454	1079.197
94.914	23.710	1340.638	1079.120
95.928	23.733	1339.324	1078.107
96.943	23.654	1338.771	1077.085
97.957	23.757	1338.182	1077.136
98.972	23.652	1337.299	1075.696
99.987	23.618	1336.285	1074.581
101.001	23.726	1335.007	1074.112
102.016	23.649	1334.166	1072.875
103.030	23.689	1333.516	1072.496
104.045	23.729	1332.380	1071.727
105.060	23.623	1331.789	1070.522
106.074	23.642	1330.500	1069.505
107.089	23.735	1329.365	1069.057
108.103	23.745	1328.476	1068.311
109.118	23.752	1327.426	1067.414
110.133	23.714	1325.862	1065.830
111.147	23.729	1325.325	1065.396
112.162	23.682	1323.872	1063.851
113.176	23.786	1322.840	1063.552
114.191	23.727	1321.966	1062.398
115.206	23.742	1320.906	1061.545
116.220	23.767	1319.491	1060.460
117.235	23.679	1318.620	1059.144
118.249	23.796	1317.580	1058.913
119.264	23.730	1316.875	1057.857
120.279	23.808	1316.029	1057.547
121.293	23.807	1315.376	1056.928
122.308	23.820	1314.151	1055.925
123.322	23.767	1313.370	1054.891
124.337	23.771	1312.710	1054.292
125.352	23.770	1311.689	1053.372
126.366	23.832	1310.519	1052.706
127.381	23.834	1309.837	1052.073
128.395	23.847	1308.470	1050.962
129.410	23.788	1308.003	1050.145
130.424	23.877	1307.249	1049.974
131.439	23.825	1306.271	1048.786
132.454	23.720	1305.997	1047.857
133.468	23.769	1304.796	1047.087
134.483	23.804	1304.341	1046.832
135.497	23.754	1303.577	1045.834
136.512	23.759	1302.938	1045.262
137.527	23.806	1301.285	1044.117
138.541	23.712	1299.855	1042.326
139.556	23.749	1298.656	1041.489
140.570	23.735	1297.932	1040.736
141.585	23.761	1296.491	1039.638
142.600	23.795	1295.496	1038.950
143.614	23.795	1294.561	1038.104
144.629	23.734	1293.908	1037.136
145.643	23.696	1292.435	1035.641
146.658	23.649	1291.623	1034.625
147.673	23.726	1290.501	1034.080
148.687	23.693	1289.648	1033.114
149.702	23.775	1288.730	1032.763
150.716	23.698	1287.461	1031.211
151.731	23.840	1285.802	1030.613
152.746	23.701	1285.640	1029.589
153.760	23.880	1284.188	1029.368
154.775	23.821	1283.191	1028.137
155.789	23.823	1282.541	1027.539
156.804	23.779	1281.664	1026.489
157.819	23.680	1280.891	1025.205
158.833	23.668	1280.382	1024.638
159.848	23.825	1279.304	1024.593
160.862	23.848	1278.128	1023.691
161.877	23.921	1277.685	1023.669
162.892	23.861	1276.849	1022.563
163.906	23.929	1276.096	1022.258
164.921	23.914	1275.127	1021.304
165.935	23.941	1274.481	1020.851
166.950	23.863	1273.974	1019.912
167.964	23.850	1273.649	1019.485
168.979	23.823	1272.959	1018.684
169.994	23.940	1271.705	1018.262
171.008	23.990	1271.291	1018.128
172.023	23.890	1270.574	1016.892
173.037	23.918	1269.704	1016.268
174.052	23.836	1269.371	1015.442
175.067	23.898	1268.396	1014.922
176.081	23.778	1267.595	1013.508
177.096	23.915	1266.636	1013.431
178.110	23.934	1266.198	1013.101
179.125	23.863	1265.017	1011.661
180.140	23.931	1263.580	1010.812
181.154	23.951	1262.601	1010.049
182.169	23.894	1261.486	1008.747
183.183	23.932	1260.653	1008.208
184.198	23.940	1259.478	1007.222
185.213	23.930	1258.342	1006.170
186.227	23.955	1257.666	1005.679
187.242	24.036	1256.654	1005.241
188.256	24.017	1256.048	1004.559
189.271	23.999	1255.169	1003.664
190.286	23.912	1254.702	1002.714
191.300	23.945	1253.936	1002.200
192.315	23.900	1253.491	1001.500
193.329	23.889	1253.079	1001.024
194.344	23.980	1252.988	1001.371
195.359	23.986	1252.356	1000.814
196.373	23.843	1251.941	999.588
197.388	23.924	1250.953	999.163
198.402	23.903	1251.019	999.013
199.417	23.890	1250.568	998.489
200.432	24.022	1249.507	998.294
201.446	24.049	1248.842	997.825
202.461	23.946	1248.224	996.667
203.475	23.921	1247.234	995.651
204.490	23.961	1246.305	995.042
205.504	23.989	1245.416	994.400
206.519	24.131	1244.607	994.462
207.534	24.048	1243.389	992.935
208.548	24.128	1241.954	992.147
209.563	24.011	1241.832	991.310
210.577	24.037	1241.068	990.761
211.592	24.043	1240.270	990.065
212.607	24.119	1239.238	989.578
213.621	24.155	1238.316	988.953
214.636	24.176	1237.853	988.612
215.650	24.110	1236.886	987.389
216.665	24.116	1235.922	986.565
217.680	24.067	1234.794	985.308
218.694	23.984	1234.645	984.642
219.709	24.144	1233.469	984.502
220.723	24.154	1233.087	984.164
221.738	24.119	1232.128	983.116
222.753	24.140	1231.075	982.303
223.767	24.103	1231.283	982.182
224.782	24.220	1230.165	981.845
225.796	24.227	1229.879	981.567
226.811	24.174	1228.987	980.477
227.826	24.106	1228.631	979.735
228.840	24.149	1228.142	979.491
229.855	24.123	1227.628	978.857
230.869	24.145	1226.991	978.379
231.884	24.163	1226.023	977.619
232.899	24.231	1225.014	977.105
233.913	24.186	1224.661	976.487
234.928	24.240	1224.376	976.468
235.942	24.314	1223.482	976.075
236.957	24.258	1222.621	974.994
237.972	24.287	1221.677	974.318
238.986	24.257	1221.477	973.905
240.001	24.250	1220.984	973.387
241.015	24.348	1219.811	972.900
242.030	24.420	1219.053	972.606
243.045	24.260	1218.626	971.307
244.059	24.426	1217.356	971.109
245.074	24.354	1216.575	970.009
246.088	24.417	1216.263	970.018
247.103	24.484	1215.137	969.397
248.117	24.445	1214.092	968.269
249.132	24.522	1213.248	967.924
250.147	24.396	1213.045	966.996
251.161	24.378	1212.442	966.332
252.176	24.476	1211.223	965.803
253.190	24.401	1210.951	965.099
254.205	24.346	1210.420	964.289
255.220	24.410	1209.992	964.211
256.234	24.383	1209.303	963.431
257.249	24.511	1208.499	963.393
258.263	24.480	1207.724	962.524
259.278	24.454	1207.404	962.044
260.293	24.588	1206.801	962.202
261.307	24.491	1206.390	961.267
262.322	24.564	1206.057	961.307
263.336	24.546	1204.557	959.933
264.351	24.496	1204.008	959.141
265.366	24.468	1203.561	958.549
266.380	24.543	1202.567	958.072
267.395	24.580	1202.029	957.761
268.409	24.417	1202.167	956.908
269.424	24.544	1201.315	956.827
270.439	24.573	1200.889	956.559
271.453	24.631	1199.921	956.015
272.468	24.644	1198.942	955.219
273.482	24.465	1198.750	954.022
274.497	24.583	1198.174	954.114
275.512	24.608	1197.534	953.654
276.526	24.538	1196.742	952.565
277.541	24.588	1196.458	952.521
278.555	24.648	1195.487	951.982
279.570	24.657	1194.708	951.322
280.585	24.571	1194.223	950.395
281.599	24.617	1193.107	949.667
282.614	24.611	1192.175	948.813
283.628	24.629	1191.140	948.002
284.643	24.697	1190.287	947.599
285.657	24.684	1189.406	946.745
286.672	24.562	1189.034	945.719
287.687	24.687	1188.244	945.664
288.701	24.705	1187.516	945.100
289.716	24.729	1186.788	944.561
290.730	24.725	1186.069	943.884
291.745	24.833	1185.067	943.574
292.760	24.804	1184.674	943.027
293.774	24.737	1184.224	942.232
294.789	24.835	1183.787	942.314
295.803	24.743	1183.202	941.280
296.818	24.774	1182.622	940.897
297.833	24.758	1181.810	940.089
298.847	24.875	1180.791	939.809
299.862	24.827	1180.240	939.035
300.876	24.766	1179.737	938.230
301.891	24.822	1179.270	938.071
302.906	24.868	1178.457	937.580
303.920	24.881	1177.925	937.141
304.935	24.914	1176.725	936.277
305.949	24.970	1176.586	936.379
306.964	24.930	1176.015	935.629
307.979	24.898	1175.084	934.639
308.993	24.928	1174.607	934.335
310.008	24.908	1174.103	933.747
311.022	24.996	1172.941	933.199
312.037	24.914	1172.243	932.132
313.052	24.982	1171.204	931.580
314.066	24.934	1170.581	930.754
315.081	24.835	1169.761	929.505
316.095	24.864	1169.649	929.484
317.110	25.009	1168.697	929.394
318.125	25.044	1168.161	929.068
319.139	25.013	1167.259	928.108
320.154	24.978	1166.973	927.618
321.168	25.054	1166.054	927.197
322.183	24.998	1165.403	926.307
323.197	24.973	1164.939	925.730
324.212	24.808	1165.213	925.014
325.227	25.066	1164.048	925.337
326.241	25.161	1163.515	925.322
327.256	25.111	1162.504	924.176
328.270	25.089	1161.549	923.226
329.285	25.120	1161.136	922.971
330.300	25.107	1160.442	922.273
331.314	25.131	1159.291	921.400
332.329	25.221	1158.421	921.089
333.343	25.229	1157.733	920.504
334.358	25.239	1156.846	919.764
335.373	25.255	1156.327	919.354
336.387	25.115	1156.230	918.478
337.402	25.227	1154.855	917.880
338.416	25.263	1154.369	917.595
339.431	25.302	1153.850	917.299
340.446	25.328	1153.126	916.776
341.460	25.244	1152.503	915.771
342.475	25.444	1151.156	915.639
343.489	25.265	1150.825	914.383
344.504	25.371	1149.802	914.028
345.519	25.355	1148.798	913.069
346.533	25.253	1148.773	912.448
347.548	25.353	1147.575	911.926
348.562	25.422	1146.986	911.727
349.577	25.361	1146.072	910.612
350.592	25.339	1145.007	909.572
351.606	25.264	1144.364	908.603
352.621	25.280	1144.511	908.719
353.635	25.392	1143.777	908.623
354.650	25.329	1143.139	907.718
355.665	25.221	1142.813	906.828
356.679	25.421	1142.028	907.139
357.694	25.496	1140.899	906.537
358.708	25.452	1140.347	905.796
359.723	25.522	1139.730	905.579
360.738	25.400	1138.945	904.265
361.752	25.577	1138.027	904.344
362.767	25.598	1137.807	904.194
363.781	25.618	1137.053	903.617
364.796	25.605	1136.803	903.272
365.810	25.532	1136.296	902.420
366.825	25.447	1135.982	901.668
367.840	25.525	1135.172	901.335
368.854	25.604	1134.834	901.383
369.869	25.648	1133.542	900.497
370.883	25.541	1133.286	899.679
371.898	25.668	1132.064	899.265
372.913	25.524	1131.810	898.264
373.927	25.574	1131.307	898.032
374.942	25.629	1130.867	897.881
375.956	25.613	1130.501	897.428
376.971	25.765	1129.506	897.319
377.986	25.648	1129.386	896.561
379.000	25.698	1128.687	896.173
380.015	25.818	1127.907	896.074
381.029	25.743	1127.223	895.080
382.044	25.748	1126.417	894.385
383.059	25.740	1125.858	893.823
384.073	25.789	1125.134	893.408
385.088	25.766	1124.274	892.535
386.102	25.746	1123.327	891.603
387.117	25.688	1122.609	890.666
388.132	25.738	1121.737	890.146
389.146	25.836	1120.793	889.802
390.161	25.788	1120.639	889.365
391.175	25.780	1119.890	888.653
392.190	25.836	1119.043	888.178
393.205	25.872	1118.389	887.756
394.219	25.960	1117.548	887.445
395.234	25.998	1116.825	886.976
396.248	25.838	1116.356	885.742
397.263	25.926	1114.942	884.972
398.278	25.943	1114.984	885.011
399.292	25.911	1114.296	884.229
400.307	25.970	1113.594	883.882
401.321	26.059	1112.725	883.551
402.336	26.005	1111.817	882.485
403.350	25.955	1111.204	881.676
404.365	26.022	1110.704	881.528
405.380	26.130	1109.997	881.417
406.394	26.011	1109.131	880.073
407.409	26.147	1107.941	879.714
408.423	26.182	1107.769	879.670
409.438	26.180	1107.129	879.075
410.453	26.138	1106.759	878.498
411.467	26.174	1106.098	878.069
412.482	26.216	1104.912	877.256
413.496	26.215	1104.528	876.868
414.511	26.091	1104.026	875.791
415.526	26.096	1103.694	875.474
416.540	26.198	1102.566	874.996
417.555	26.114	1102.571	874.515
418.569	26.248	1101.755	874.439
419.584	26.230	1101.383	873.981
420.599	26.137	1101.291	873.378
421.613	147.715	1403.563	1796.812
422.628	137.020	1447.571	1796.890
