DTS Sentinel unit serial number:	SN413079Multiplexer serial number:	ORYXHardware model number:	OX4-SRSoftware version number:	ORYX F/W v4.00 Oryx Data Collector v3.7.2.0data status	okinstallation	princeton_trtdifferential loss correction	single-endedforward channel	channel 2reverse channel	N/Adate	2019/09/17time	20:23:35forward acquisition time	60.00reverse acquisition time	0.00gamma	496.2192k internal	0.2333k external	0.2333temperature offset calibration	0.9989default loss term (dB/km)	0.3790temperature slope calibration	1.0000multiplexer offset coefficient	1.0000multiplexer slope coefficient	1.0000fibre end	0.00T internal ref (°C)	31.17T ext. ref 1 (°C)	0.22T ext. ref 2 (°C)	21.67length (m)	temperature (°C)	Stokes	anti-Stokes-747.200	-200.000	0.018	0.168
-746.185	11.390	0.200	0.154
-745.171	293.425	0.110	-0.202
-744.156	-200.000	-0.005	0.388
-743.142	-103.436	-0.160	0.038
-742.127	-72.642	0.254	-0.094
-741.112	-200.000	0.049	0.362
-740.098	800.000	0.055	0.175
-739.083	-185.561	-0.399	-0.006
-738.069	-47.632	-0.082	0.040
-737.054	800.000	-0.112	-0.438
-736.039	-200.000	-0.027	-0.392
-735.025	-200.000	-0.006	-0.135
-734.010	-36.715	-0.406	-0.219
-732.996	-26.761	-0.238	-0.140
-731.981	-200.000	-0.039	0.298
-730.966	-200.000	-0.038	-0.276
-729.952	19.878	-0.109	0.088
-728.937	255.672	0.117	-0.202
-727.923	63.165	-0.148	-0.149
-726.908	-200.000	-0.044	-0.326
-725.894	800.000	0.017	-0.049
-724.879	-24.157	-0.286	-0.171
-723.864	-45.081	0.287	-0.143
-722.850	-19.952	0.064	0.040
-721.835	-109.913	-0.211	0.044
-720.821	69.948	0.201	0.208
-719.806	120.318	-0.251	-0.313
-718.791	-200.000	0.025	-0.342
-717.777	318.032	-0.121	0.230
-716.762	193.157	0.112	-0.170
-715.748	-104.687	-0.227	0.053
-714.733	1.510	-0.274	-0.198
-713.718	-200.000	0.013	-0.182
-712.704	66.955	0.041	0.042
-711.689	-73.145	0.112	-0.041
-710.675	130.631	-0.135	-0.174
-709.660	348.541	-0.134	0.265
-708.645	-65.909	-0.404	0.162
-707.631	-200.000	0.000	-0.102
-706.616	75.730	-0.191	-0.203
-705.602	-128.843	-0.049	-0.007
-704.587	233.781	0.128	0.211
-703.572	4.469	-0.166	0.123
-702.558	-37.340	-0.097	0.052
-701.543	-37.633	-0.069	-0.037
-700.529	800.000	0.045	0.127
-699.514	125.523	-0.149	-0.189
-698.499	800.000	-0.086	-0.363
-697.485	-11.619	-0.332	-0.219
-696.470	-200.000	-0.049	-0.444
-695.456	493.238	0.054	-0.124
-694.441	-79.331	0.243	0.083
-693.426	-200.000	-0.002	0.118
-692.412	566.435	0.124	0.301
-691.397	-44.624	-0.203	0.102
-690.383	-35.335	0.174	-0.095
-689.368	-117.163	0.108	0.020
-688.354	-158.653	-0.196	-0.011
-687.339	-142.738	-0.274	0.027
-686.324	55.103	0.344	0.334
-685.310	-22.378	0.259	0.158
-684.295	381.269	-0.153	-0.315
-683.281	58.885	0.044	-0.044
-682.266	-146.069	0.017	0.001
-681.251	72.746	-0.208	-0.218
-680.237	277.541	-0.206	-0.368
-679.222	-191.880	0.251	0.002
-678.208	800.000	-0.044	0.166
-677.193	800.000	-0.050	-0.179
-676.178	314.263	-0.062	-0.117
-675.164	-24.672	-0.205	-0.123
-674.149	-21.776	-0.120	0.073
-673.135	304.151	0.139	-0.258
-672.120	158.996	-0.132	-0.185
-671.105	503.128	-0.092	0.213
-670.091	313.649	0.063	-0.118
-669.076	20.263	0.257	-0.208
-668.062	338.886	-0.084	-0.164
-667.047	-23.707	0.275	-0.165
-666.032	800.000	-0.045	0.195
-665.018	-18.335	0.263	-0.165
-664.003	800.000	-0.088	-0.335
-662.989	800.000	-0.100	-0.390
-661.974	97.615	0.121	-0.140
-660.959	91.951	0.185	0.209
-659.945	-113.488	-0.163	0.032
-658.930	512.697	0.071	0.166
-657.916	-64.370	-0.078	-0.032
-656.901	179.315	0.106	-0.155
-655.886	800.000	0.026	0.073
-654.872	-200.000	0.013	-0.289
-653.857	167.457	-0.112	0.159
-652.843	-200.000	-0.058	-0.288
-651.828	800.000	0.028	0.119
-650.814	26.618	0.200	-0.167
-649.799	-122.948	0.234	-0.038
-648.784	-21.385	-0.083	-0.051
-647.770	19.902	0.204	0.164
-646.755	-106.109	0.190	-0.043
-645.741	191.762	-0.147	-0.222
-644.726	-153.265	0.378	-0.026
-643.711	383.069	0.048	0.100
-642.697	426.399	-0.095	-0.204
-641.682	169.096	-0.086	-0.122
-640.668	-200.000	0.013	0.168
-639.653	48.215	-0.280	-0.263
-638.638	-148.549	-0.083	0.007
-637.624	-200.000	-0.025	-0.136
-636.609	-200.000	0.038	-0.339
-635.595	-200.000	-0.012	0.125
-634.580	43.324	-0.216	-0.197
-633.565	-140.678	-0.170	0.018
-632.551	-12.665	-0.227	0.148
-631.536	569.441	0.077	-0.188
-630.522	-77.684	0.246	0.085
-629.507	800.000	0.113	-0.353
-628.492	-98.612	-0.183	-0.047
-627.478	-112.203	0.349	0.070
-626.463	404.535	0.040	-0.084
-625.449	507.613	0.059	-0.137
-624.434	-73.671	0.211	0.077
-623.419	53.236	-0.210	-0.201
-622.405	-127.119	-0.153	-0.022
-621.390	21.503	-0.071	0.058
-620.376	-167.639	0.215	0.009
-619.361	-200.000	-0.031	0.202
-618.346	235.645	0.117	-0.193
-617.332	-200.000	-0.019	0.189
-616.317	-130.075	0.163	-0.022
-615.303	-156.873	-0.270	0.017
-614.288	800.000	0.044	0.136
-613.273	55.977	-0.310	0.301
-612.259	207.312	0.109	-0.170
-611.244	800.000	-0.037	0.111
-610.230	783.633	-0.166	-0.456
-609.215	-89.640	0.420	-0.123
-608.201	656.772	0.099	-0.255
-607.186	5.685	-0.255	0.189
-606.171	-58.917	0.271	0.117
-605.157	-200.000	-0.002	-0.053
-604.142	459.085	-0.038	-0.086
-603.128	-200.000	-0.019	-0.199
-602.113	-158.276	-0.088	0.005
-601.098	-200.000	0.005	0.146
-600.084	50.610	-0.094	-0.089
-599.069	653.695	0.137	-0.351
-598.055	-32.947	0.238	-0.132
-597.040	49.021	-0.317	-0.297
-596.025	800.000	0.066	-0.208
-595.011	-90.965	0.117	-0.034
-593.996	-110.070	0.151	-0.031
-592.982	595.909	0.139	0.343
-591.967	-200.000	-0.054	0.301
-590.952	-28.787	-0.277	-0.159
-589.938	800.000	0.039	0.151
-588.923	-200.000	-0.006	0.315
-587.909	-5.922	0.031	0.021
-586.894	800.000	0.026	0.108
-585.879	623.680	0.076	0.191
-584.865	-22.330	0.240	0.145
-583.850	159.771	0.081	0.113
-582.836	-177.156	0.149	-0.004
-581.821	-86.310	0.160	0.049
-580.806	-71.746	0.068	-0.026
-579.792	-93.681	-0.131	0.036
-578.777	-1.159	-0.356	-0.251
-577.763	800.000	-0.045	-0.192
-576.748	-200.000	0.008	0.157
-575.733	-185.247	0.188	0.003
-574.719	800.000	0.037	0.147
-573.704	550.954	0.081	-0.195
-572.690	-200.000	-0.014	-0.259
-571.675	-95.423	0.209	0.056
-570.661	422.533	0.087	0.186
-569.646	-58.715	-0.051	0.022
-568.631	-108.211	-0.119	0.026
-567.617	-143.811	0.210	-0.020
-566.602	-200.000	0.022	0.252
-565.588	91.921	0.273	-0.307
-564.573	-200.000	0.025	0.343
-563.558	83.727	0.023	-0.025
-562.544	704.320	-0.071	-0.186
-561.529	-200.000	0.149	-0.000
-560.515	-131.588	-0.263	-0.035
-559.500	8.098	0.111	-0.083
-558.485	41.861	0.466	-0.422
-557.471	-26.354	-0.316	0.185
-556.456	-119.894	0.086	-0.015
-555.442	290.607	-0.152	-0.275
-554.427	-200.000	0.036	-0.344
-553.412	547.811	-0.014	0.032
-552.398	57.192	0.179	0.174
-551.383	-89.422	-0.197	-0.058
-550.369	800.000	0.045	-0.160
-549.354	800.000	-0.066	0.183
-548.339	512.847	-0.075	0.174
-547.325	-200.000	-0.008	0.317
-546.310	800.000	-0.021	0.068
-545.296	37.129	0.088	-0.078
-544.281	-44.779	-0.112	0.056
-543.266	134.191	-0.115	-0.149
-542.252	800.000	-0.079	0.226
-541.237	800.000	-0.049	-0.153
-540.223	661.117	-0.096	0.246
-539.208	-99.606	-0.144	0.036
-538.193	-200.000	-0.003	-0.222
-537.179	-19.056	-0.316	0.196
-536.164	47.317	0.288	0.268
-535.150	800.000	-0.080	-0.229
-534.135	94.945	0.149	0.169
-533.121	-73.568	0.190	-0.069
-532.106	161.328	0.103	0.143
-531.091	-200.000	-0.019	-0.220
-530.077	53.906	0.120	0.115
-529.062	520.003	0.058	-0.135
-528.048	-200.000	0.059	0.264
-527.033	615.361	0.047	0.118
-526.018	75.003	-0.231	-0.243
-525.004	103.704	0.022	-0.026
-523.989	-162.991	-0.166	-0.008
-522.975	301.659	-0.166	-0.306
-521.960	-96.508	0.265	-0.070
-520.945	-200.000	-0.037	-0.165
-519.931	52.190	-0.100	0.095
-518.916	80.771	-0.129	0.139
-517.902	-29.687	0.117	0.066
-516.887	-105.500	-0.146	0.033
-515.872	-56.094	0.127	0.056
-514.858	-169.305	0.046	-0.002
-513.843	-144.663	-0.357	-0.033
-512.829	8.163	0.176	0.132
-511.814	26.590	0.115	-0.096
-510.799	800.000	0.064	-0.249
-509.785	800.000	0.075	-0.234
-508.770	-200.000	0.012	-0.267
-507.756	-200.000	-0.002	-0.157
-506.741	11.757	0.243	0.186
-505.726	471.550	-0.079	-0.176
-504.712	-200.000	0.020	0.164
-503.697	106.856	0.129	0.152
-502.683	-19.658	-0.270	-0.166
-501.668	35.463	-0.132	-0.116
-500.653	-15.132	0.109	-0.070
-499.639	-61.165	-0.268	-0.113
-498.624	800.000	0.137	-0.496
-497.610	-200.000	0.001	0.033
-496.595	-130.269	-0.135	-0.018
-495.581	800.000	0.050	-0.172
-494.566	-135.071	-0.338	0.041
-493.551	153.883	0.129	-0.175
-492.537	-200.000	0.016	-0.084
-491.522	114.839	0.228	0.277
-490.508	-56.846	-0.468	-0.206
-489.493	-155.936	-0.218	-0.014
-488.478	-0.102	-0.093	-0.066
-487.464	-118.615	0.179	-0.031
-486.449	404.693	0.186	0.390
-485.435	-162.275	-0.170	0.008
-484.420	-200.000	-0.029	-0.447
-483.405	-200.000	-0.026	-0.207
-482.391	240.841	0.033	0.054
-481.376	-39.326	0.237	0.124
-480.362	-16.118	-0.126	-0.080
-479.347	-1.801	-0.011	0.007
-478.332	-59.632	0.033	-0.014
-477.318	136.378	0.234	-0.303
-476.303	-86.314	-0.355	0.109
-475.289	291.426	0.029	-0.053
-474.274	-156.951	-0.147	0.009
-473.259	-103.504	0.341	-0.080
-472.245	-200.000	-0.033	0.256
-471.230	-200.000	-0.042	0.284
-470.216	-200.000	0.036	0.320
-469.201	-32.169	0.167	-0.093
-468.186	-200.000	-0.008	-0.355
-467.172	120.783	0.127	0.157
-466.157	406.473	0.121	0.254
-465.143	300.615	0.097	-0.177
-464.128	176.540	0.117	-0.169
-463.113	114.367	0.150	0.182
-462.099	-200.000	0.011	-0.112
-461.084	800.000	0.059	-0.232
-460.070	736.387	0.079	-0.209
-459.055	-77.640	0.425	0.146
-458.040	-87.644	-0.153	-0.046
-457.026	-15.841	-0.203	-0.128
-456.011	550.640	-0.069	0.164
-454.997	-147.351	-0.114	0.010
-453.982	486.722	-0.282	-0.639
-452.968	800.000	-0.075	-0.270
-451.953	800.000	0.114	-0.351
-450.938	800.000	-0.006	-0.022
-449.924	-84.953	0.174	0.054
-448.909	1.874	-0.214	-0.153
-447.895	50.643	0.160	0.150
-446.880	-157.852	-0.224	0.013
-445.865	-200.000	-0.009	-0.155
-444.851	-106.778	0.104	-0.023
-443.836	-95.131	-0.333	0.089
-442.822	-200.000	0.040	-0.236
-441.807	-51.871	0.094	-0.044
-440.792	10.833	0.061	-0.046
-439.778	-200.000	0.044	0.292
-438.763	800.000	-0.041	-0.127
-437.749	42.518	-0.088	-0.080
-436.734	-40.389	-0.315	-0.163
-435.719	212.370	0.196	0.306
-434.705	-200.000	-0.019	-0.199
-433.690	-152.471	0.012	0.001
-432.676	-91.491	-0.275	-0.078
-431.661	-57.337	0.244	0.107
-430.646	148.721	-0.139	-0.186
-429.632	532.785	0.095	-0.223
-428.617	800.000	-0.073	0.214
-427.603	-135.999	0.130	0.015
-426.588	-94.577	0.079	0.021
-425.573	431.678	-0.073	-0.158
-424.559	-155.158	-0.210	0.014
-423.544	110.732	0.139	0.166
-422.530	65.930	-0.330	0.332
-421.515	-37.076	-0.218	-0.116
-420.500	-10.413	-0.091	-0.060
-419.486	-176.213	0.111	-0.003
-418.471	-200.000	0.004	0.046
-417.457	267.686	0.133	-0.231
-416.442	82.987	-0.157	0.170
-415.428	426.561	-0.136	0.291
-414.413	32.827	0.039	0.033
-413.398	80.616	-0.098	0.105
-412.384	658.328	-0.076	0.193
-411.369	-200.000	-0.032	0.215
-410.355	236.216	-0.150	-0.246
-409.340	-55.619	0.182	-0.081
-408.325	-32.780	-0.055	-0.031
-407.311	-77.802	0.112	-0.038
-406.296	-200.000	-0.028	-0.132
-405.282	233.002	-0.184	0.300
-404.267	-164.396	-0.212	0.010
-403.252	-200.000	-0.020	-0.174
-402.238	-95.616	-0.474	-0.126
-401.223	800.000	-0.041	0.116
-400.209	370.695	0.074	0.148
-399.194	59.642	-0.291	0.285
-398.179	-61.007	-0.186	0.078
-397.165	-200.000	0.044	0.254
-396.150	-200.000	0.187	0.001
-395.136	83.831	-0.142	0.154
-394.121	40.707	-0.131	0.117
-393.106	-88.045	-0.420	-0.125
-392.092	720.802	0.016	0.042
-391.077	93.766	-0.059	0.066
-390.063	75.131	-0.264	-0.276
-389.048	800.000	-0.032	0.112
-388.033	-16.535	-0.011	0.007
-387.019	-42.528	0.304	0.153
-386.004	-77.487	-0.331	0.114
-384.990	-32.568	0.071	-0.039
-383.975	-130.103	0.317	-0.043
-382.960	-99.016	-0.131	0.033
-381.946	-63.594	-0.086	0.035
-380.931	-200.000	0.008	0.187
-379.917	-200.000	0.022	0.312
-378.902	39.246	-0.301	-0.267
-377.888	-147.823	0.163	-0.013
-376.873	800.000	0.040	-0.130
-375.858	92.078	-0.159	0.178
-374.844	424.717	0.150	-0.320
-373.829	-24.803	0.138	-0.081
-372.815	-27.345	0.283	-0.163
-371.800	-122.389	-0.266	-0.043
-370.785	-200.000	-0.003	0.205
-369.771	-200.000	0.168	-0.001
-368.756	214.852	0.042	0.065
-367.742	106.850	-0.141	0.166
-366.727	54.243	-0.054	0.052
-365.712	6.819	-0.238	-0.176
-364.698	-85.192	-0.108	0.034
-363.683	800.000	-0.028	0.107
-362.669	-174.135	-0.490	0.014
-361.654	-94.979	0.102	0.027
-360.639	-172.002	0.233	-0.007
-359.625	-200.000	0.011	-0.049
-358.610	-200.000	-0.005	0.249
-357.596	800.000	0.021	0.073
-356.581	800.000	-0.031	0.085
-355.566	-104.631	-0.078	0.018
-354.552	800.000	-0.041	0.143
-353.537	19.061	0.147	0.117
-352.523	34.661	0.104	0.090
-351.508	41.957	-0.168	-0.151
-350.493	-149.605	0.172	-0.013
-349.479	598.904	0.011	0.026
-348.464	-21.719	-0.285	0.172
-347.450	-93.112	0.364	-0.100
-346.435	3.984	0.163	-0.118
-345.420	151.679	0.090	-0.121
-344.406	194.308	-0.048	-0.072
-343.391	103.194	-0.152	-0.177
-342.377	-200.000	0.004	0.231
-341.362	-10.425	-0.335	0.220
-340.348	-72.214	0.157	-0.057
-339.333	38.711	0.123	-0.109
-338.318	-95.410	0.165	0.044
-337.304	-148.678	0.193	-0.016
-336.289	155.482	0.119	-0.162
-335.275	45.111	0.104	0.095
-334.260	-161.877	0.116	-0.006
-333.245	-200.000	-0.001	0.298
-332.231	-200.000	0.011	0.135
-331.216	-24.595	0.099	0.058
-330.202	59.458	0.143	0.140
-329.187	800.000	0.069	0.194
-328.172	103.901	0.203	-0.236
-327.158	-103.012	-0.188	-0.044
-326.143	-79.498	0.066	0.022
-325.129	721.648	-0.069	0.180
-324.114	290.676	-0.131	0.235
-323.099	-200.000	-0.028	0.192
-322.085	800.000	-0.096	-0.348
-321.070	152.835	-0.052	-0.070
-320.056	-200.000	-0.046	-0.270
-319.041	-80.882	0.063	0.021
-318.026	579.714	0.108	0.263
-317.012	161.394	0.063	0.087
-315.997	55.792	-0.104	-0.100
-314.983	-116.150	0.267	0.049
-313.968	72.617	0.155	-0.159
-312.953	-130.873	0.133	-0.018
-311.939	48.983	0.132	0.123
-310.924	-111.646	0.121	-0.024
-309.910	38.609	-0.122	0.107
-308.895	48.744	-0.103	-0.095
-307.880	-200.000	-0.019	0.124
-306.866	34.575	0.196	0.170
-305.851	-200.000	-0.014	0.175
-304.837	39.576	-0.369	-0.327
-303.822	-200.000	-0.008	0.066
-302.807	800.000	-0.043	0.181
-301.793	-200.000	-0.036	0.213
-300.778	-200.000	-0.054	0.273
-299.764	281.313	-0.193	0.341
-298.749	-200.000	0.018	-0.155
-297.735	-97.824	0.115	0.029
-296.720	-7.116	-0.378	0.253
-295.705	90.595	0.177	-0.195
-294.691	-80.595	-0.281	0.092
-293.676	-82.878	-0.070	-0.022
-292.662	-200.000	0.038	-0.167
-291.647	-124.055	-0.231	0.036
-290.632	-152.947	-0.157	-0.011
-289.618	800.000	0.110	-0.343
-288.603	-56.046	0.105	0.046
-287.589	724.620	0.105	0.277
-286.574	344.849	0.103	0.199
-285.559	-32.150	-0.247	0.136
-284.545	-200.000	-0.005	-0.446
-283.530	-200.000	-0.013	0.185
-282.516	-12.370	0.152	-0.098
-281.501	208.993	-0.075	0.116
-280.486	-136.007	0.368	0.043
-279.472	723.632	-0.048	-0.127
-278.457	187.314	0.294	-0.433
-277.443	-200.000	-0.040	-0.738
-276.428	340.407	0.139	0.267
-275.413	54.994	0.306	0.292
-274.399	-8.272	0.050	-0.033
-273.384	205.513	-0.191	0.293
-272.370	103.406	0.172	0.199
-271.355	45.273	-0.220	-0.201
-270.340	-47.401	0.242	0.116
-269.326	-91.754	-0.191	0.053
-268.311	253.314	0.141	-0.238
-267.297	-110.762	-0.151	-0.031
-266.282	72.317	0.028	-0.029
-265.267	-200.000	-0.004	-0.032
-264.253	-99.407	-0.308	0.077
-263.238	-166.617	-0.422	0.017
-262.224	0.870	-0.113	0.080
-261.209	135.436	0.152	0.195
-260.195	332.687	0.190	-0.362
-259.180	-200.000	0.079	-0.376
-258.165	75.175	-0.106	-0.110
-257.151	800.000	-0.025	-0.073
-256.136	217.821	-0.119	0.187
-255.122	-6.568	0.137	0.092
-254.107	-40.960	0.165	0.084
-253.092	-150.770	0.195	0.015
-252.078	620.668	0.240	-0.597
-251.063	-37.354	-0.244	0.129
-250.049	49.231	-0.151	-0.140
-249.034	-1.119	0.377	0.263
-248.019	83.893	-0.054	-0.058
-247.005	67.402	0.272	-0.274
-245.990	-45.342	-0.308	-0.151
-244.976	-200.000	0.006	0.198
-243.961	325.265	0.144	0.272
-242.946	800.000	0.025	-0.088
-241.932	-78.639	-0.241	-0.081
-240.917	-200.000	0.015	-0.185
-239.903	-69.212	0.238	0.090
-238.888	-179.531	0.175	-0.004
-237.873	47.507	-0.179	0.164
-236.859	38.143	-0.228	0.200
-235.844	15.995	-0.114	-0.088
-234.830	-89.386	-0.241	-0.070
-233.815	87.572	0.121	0.132
-232.800	-3.941	-0.024	-0.016
-231.786	447.134	0.023	-0.049
-230.771	-7.927	0.430	-0.286
-229.757	376.458	0.084	0.169
-228.742	800.000	0.055	0.162
-227.727	-200.000	-0.021	0.165
-226.713	-14.294	0.040	-0.026
-225.698	128.253	-0.065	-0.081
-224.684	85.222	0.265	0.287
-223.669	-200.000	0.003	-0.021
-222.655	311.571	-0.084	-0.156
-221.640	135.261	-0.075	-0.096
-220.625	-77.669	-0.257	-0.088
-219.611	800.000	0.059	-0.179
-218.596	219.284	-0.097	0.152
-217.582	-115.837	0.209	0.039
-216.567	-200.000	0.259	-0.000
-215.552	557.862	-0.059	-0.141
-214.538	-104.436	-0.161	0.037
-213.523	25.444	0.106	0.087
-212.509	-87.154	-0.128	0.038
-211.494	711.139	-0.056	0.145
-210.479	28.459	-0.143	0.119
-209.465	-200.000	-0.004	0.087
-208.450	107.071	-0.068	-0.080
-207.436	36.976	-0.072	-0.062
-206.421	-200.000	-0.009	0.159
-205.406	-200.000	0.031	0.181
-204.392	-133.589	0.192	-0.024
-203.377	-153.240	0.392	0.027
-202.363	-154.013	-0.174	-0.012
-201.348	-200.000	-0.045	0.302
-200.333	-21.027	-0.175	0.105
-199.319	141.636	0.104	0.135
-198.304	13.155	-0.067	0.051
-197.290	800.000	-0.074	-0.229
-196.275	395.666	0.037	0.077
-195.260	-9.641	-0.059	0.039
-194.246	-200.000	-0.011	0.255
-193.231	207.219	0.017	0.026
-192.217	-52.666	-0.158	0.072
-191.202	-200.000	0.004	0.052
-190.187	-50.278	-0.321	0.149
-189.173	-32.675	-0.280	0.153
-188.158	-64.046	0.281	-0.113
-187.144	-48.281	0.168	-0.079
-186.129	241.235	-0.278	0.457
-185.114	-95.034	-0.216	0.058
-184.100	586.823	0.094	0.227
-183.085	-200.000	-0.000	-0.158
-182.071	800.000	-0.117	-0.324
-181.056	36.029	-0.327	-0.283
-180.042	-147.558	0.010	0.001
-179.027	-86.958	0.044	0.013
-178.012	800.000	-0.092	-0.318
-176.998	35.929	0.109	0.094
-175.983	172.474	-0.060	-0.085
-174.969	-45.465	-0.197	0.096
-173.954	28.204	0.207	-0.172
-172.939	800.000	0.047	-0.150
-171.925	319.987	-0.057	0.106
-170.910	800.000	0.057	0.228
-169.896	-115.275	-0.276	0.051
-168.881	800.000	0.063	-0.205
-167.866	-41.227	-0.144	0.073
-166.852	667.631	0.045	0.115
-165.837	-200.000	-0.020	0.104
-164.823	76.093	0.255	0.265
-163.808	-200.000	-0.010	-0.142
-162.793	159.648	-0.123	0.168
-161.779	800.000	0.137	0.384
-160.764	-200.000	-0.020	0.104
-159.750	-42.912	0.480	0.240
-158.735	-49.246	0.364	-0.171
-157.720	-132.874	0.339	-0.042
-156.706	800.000	0.054	0.199
-155.691	741.905	0.147	0.387
-154.677	-104.788	0.286	-0.065
-153.662	42.593	0.117	-0.104
-152.647	-15.401	0.291	-0.183
-151.633	-138.336	-0.153	0.017
-150.618	-200.000	-0.041	0.232
-149.604	-200.000	-0.047	-0.229
-148.589	175.509	-0.276	-0.394
-147.574	-49.118	0.164	-0.077
-146.560	-166.568	0.540	0.022
-145.545	3.476	0.074	0.053
-144.531	-200.000	0.003	0.053
-143.516	631.671	-0.058	0.145
-142.502	-21.956	0.309	0.184
-141.487	-172.452	-0.188	0.006
-140.472	395.934	0.047	-0.096
-139.458	81.704	-0.181	-0.193
-138.443	84.438	0.272	-0.293
-137.429	96.290	-0.138	-0.155
-136.414	800.000	-0.048	0.207
-135.399	-200.000	0.050	-0.216
-134.385	-118.379	-0.187	-0.033
-133.370	-126.112	-0.163	0.024
-132.356	-200.000	0.020	0.128
-131.341	-58.326	0.436	0.186
-130.326	800.000	0.019	0.059
-129.312	-200.000	-0.065	-0.351
-128.297	-60.934	-0.176	0.073
-127.283	-42.097	0.179	-0.090
-126.268	-67.604	-0.143	0.055
-125.253	-165.224	-0.159	0.007
-124.239	291.949	0.118	0.211
-123.224	-129.909	0.196	0.026
-122.210	85.859	-0.274	-0.295
-121.195	-200.000	-0.023	0.104
-120.180	745.094	0.072	-0.191
-119.166	800.000	0.107	0.290
-118.151	-133.829	0.275	-0.034
-117.137	-1.708	0.227	0.157
-116.122	420.830	-0.091	-0.192
-115.107	800.000	-0.073	-0.235
-114.093	61.703	-0.200	0.195
-113.078	5.059	0.141	-0.101
-112.064	26.647	0.345	0.283
-111.049	-32.232	0.445	-0.244
-110.034	96.186	-0.358	-0.402
-109.020	-200.000	-0.003	0.145
-108.005	-160.875	0.080	-0.004
-106.991	-200.000	0.356	-0.001
-105.976	800.000	0.112	0.332
-104.962	183.875	0.083	-0.120
-103.947	-179.304	0.266	0.006
-102.932	-1.641	-0.117	-0.081
-101.918	-200.000	0.046	-0.399
-100.903	28.207	-0.295	-0.244
-99.889	-200.000	-0.011	0.061
-98.874	201.013	-0.006	0.010
-97.859	-3.117	-0.305	-0.208
-96.845	145.751	0.070	0.092
-95.830	-110.140	0.073	-0.015
-94.816	714.050	0.117	0.304
-93.801	35.330	-0.069	0.059
-92.786	800.000	-0.056	-0.225
-91.772	-61.524	-0.152	-0.063
-90.757	800.000	-0.060	-0.183
-89.743	-187.994	0.258	0.003
-88.728	-200.000	0.005	0.153
-87.713	800.000	-0.060	-0.208
-86.699	-55.479	0.236	-0.104
-85.684	-193.010	-0.084	0.001
-84.670	-90.204	0.211	0.060
-83.655	-200.000	-0.058	-0.488
-82.640	-67.773	-0.285	0.109
-81.626	11.988	0.276	-0.208
-80.611	-27.541	-0.272	-0.155
-79.597	471.971	-0.183	-0.404
-78.582	-96.803	-0.175	-0.045
-77.567	268.642	-0.036	-0.062
-76.553	-111.722	-0.225	0.045
-75.538	-200.000	-0.003	-0.288
-74.524	-200.000	-0.039	-0.403
-73.509	-200.000	0.007	-0.057
-72.494	157.360	0.167	0.227
-71.480	-48.845	0.193	0.091
-70.465	-11.120	-0.321	-0.207
-69.451	56.964	-0.295	0.281
-68.436	243.474	-0.133	0.218
-67.422	447.677	0.288	0.621
-66.407	411.648	-0.108	-0.224
-65.392	-200.000	0.008	0.360
-64.378	800.000	-0.072	-0.221
-63.363	-132.400	0.152	-0.019
-62.349	-120.616	0.203	0.034
-61.334	42.230	-1.057	-0.940
-60.319	-18.580	0.883	0.539
-59.305	800.000	-0.229	-0.862
-58.290	149.768	0.779	1.034
-57.276	545.377	0.752	1.759
-56.261	-200.000	106.600	605.792
-55.246	466.787	1473.714	3232.368
-54.232	149.327	2654.539	3517.447
-53.217	104.011	2277.230	2620.230
-52.203	40.422	1896.884	1671.419
-51.188	34.555	1690.711	1445.417
-50.173	31.840	1647.902	1388.686
-49.159	51.420	1700.558	1580.782
-48.144	52.189	1715.973	1600.821
-47.130	34.086	1674.311	1427.646
-46.115	31.303	1660.105	1394.732
-45.100	31.121	1655.579	1389.521
-44.086	31.125	1652.840	1387.195
-43.071	31.151	1650.232	1385.146
-42.057	31.081	1647.998	1382.700
-41.042	31.036	1645.818	1380.480
-40.027	31.094	1643.965	1379.303
-39.013	31.025	1642.159	1377.223
-37.998	30.973	1640.869	1375.700
-36.984	30.964	1639.603	1374.522
-35.969	31.180	1637.938	1374.660
-34.954	31.315	1635.630	1373.664
-33.940	31.242	1634.262	1371.920
-32.925	31.155	1632.614	1369.843
-31.911	31.150	1631.350	1368.690
-30.896	31.140	1629.398	1366.925
-29.881	31.109	1628.161	1365.610
-28.867	31.214	1626.398	1364.841
-27.852	31.153	1624.807	1363.011
-26.838	31.205	1623.707	1362.411
-25.823	31.172	1622.080	1360.749
-24.809	31.166	1621.179	1359.898
-23.794	31.218	1619.433	1358.756
-22.779	31.193	1618.002	1357.318
-21.765	31.174	1616.212	1355.627
-20.750	31.162	1614.634	1354.163
-19.736	31.216	1613.021	1353.147
-18.721	31.241	1611.645	1352.124
-17.706	31.259	1609.989	1350.808
-16.692	31.206	1608.258	1348.923
-15.677	31.150	1607.188	1347.562
-14.663	31.302	1605.440	1347.144
-13.648	31.193	1604.651	1345.639
-12.633	31.223	1602.589	1344.070
-11.619	31.156	1602.117	1343.141
-10.604	31.136	1600.247	1341.379
-9.590	31.268	1598.809	1341.067
-8.575	31.211	1597.450	1339.465
-7.560	31.226	1596.712	1338.904
-6.546	31.203	1595.695	1337.829
-5.531	31.185	1594.231	1336.423
-4.517	31.118	1593.502	1335.278
-3.502	31.212	1592.056	1334.686
-2.487	31.267	1590.070	1333.359
-1.473	30.567	1577.688	1317.960
-0.458	26.377	1555.738	1270.210
0.556	19.869	1553.628	1225.877
1.571	16.739	1575.033	1220.139
2.586	15.845	1588.037	1223.613
3.600	14.359	1535.626	1172.665
4.615	8.241	1429.673	1051.455
5.629	1.724	1367.640	964.564
6.644	0.370	1359.813	950.426
7.659	0.191	1358.357	948.197
8.673	0.212	1357.516	947.659
9.688	0.096	1355.911	945.726
10.702	0.054	1352.260	942.829
11.717	3.167	1356.529	965.276
12.731	10.530	1367.862	1019.688
13.746	16.181	1375.378	1060.833
14.761	17.117	1376.243	1067.294
15.775	16.289	1374.498	1060.646
16.790	15.303	1371.922	1052.379
17.804	14.530	1369.759	1045.780
18.819	14.258	1367.741	1042.445
19.834	13.992	1366.457	1039.712
20.848	13.672	1365.098	1036.582
21.863	13.425	1364.237	1034.297
22.877	13.242	1362.740	1031.923
23.892	13.230	1361.975	1031.178
24.907	13.259	1361.195	1030.679
25.921	13.229	1360.306	1029.726
26.936	13.276	1359.511	1029.326
27.950	13.316	1358.454	1028.683
28.965	13.359	1357.481	1028.125
29.980	13.279	1356.841	1027.054
30.994	13.500	1355.840	1027.576
32.009	13.505	1354.862	1026.774
33.023	13.560	1353.158	1025.735
34.038	13.547	1352.066	1024.734
35.053	13.418	1351.097	1023.110
36.067	13.411	1350.037	1022.173
37.082	13.487	1348.953	1021.730
38.096	13.529	1348.274	1021.390
39.111	13.385	1347.849	1020.087
40.126	13.403	1346.754	1019.280
41.140	13.250	1346.056	1017.717
42.155	13.255	1345.706	1017.396
43.169	13.347	1345.083	1017.401
44.184	13.283	1344.781	1016.686
45.199	13.233	1344.553	1016.115
46.213	13.322	1343.866	1016.056
47.228	13.341	1343.105	1015.504
48.242	13.363	1341.914	1014.651
49.257	13.321	1340.405	1013.161
50.271	13.374	1338.724	1012.128
51.286	13.357	1337.891	1011.305
52.301	13.399	1336.238	1010.222
53.315	13.276	1335.353	1008.715
54.330	13.325	1334.269	1008.101
55.344	13.340	1332.835	1007.023
56.359	13.330	1331.845	1006.125
57.374	13.187	1331.390	1004.824
58.388	13.284	1330.278	1004.485
59.403	13.170	1330.111	1003.578
60.417	13.240	1329.209	1003.232
61.432	13.151	1328.403	1001.996
62.447	13.163	1327.479	1001.280
63.461	13.219	1325.684	1000.175
64.476	13.118	1324.881	998.872
65.490	13.100	1323.711	997.790
66.505	13.263	1321.657	997.137
67.520	13.175	1320.888	995.939
68.534	13.184	1319.857	995.132
69.549	13.200	1318.956	994.456
70.563	13.208	1317.728	993.493
71.578	13.163	1316.745	992.393
72.593	13.255	1315.758	992.115
73.607	13.139	1315.019	990.773
74.622	13.170	1314.130	990.200
75.636	13.059	1313.884	989.265
76.651	13.166	1312.413	988.711
77.666	13.108	1312.425	988.284
78.680	13.094	1311.886	987.706
79.695	13.130	1310.469	986.765
80.709	13.226	1309.921	986.842
81.724	13.200	1309.225	986.073
82.739	13.160	1308.383	985.114
83.753	13.322	1307.329	985.199
84.768	13.339	1306.312	984.445
85.782	13.427	1304.696	983.660
86.797	13.392	1303.672	982.598
87.812	13.223	1302.928	980.948
88.826	13.282	1301.347	980.019
89.841	13.316	1300.529	979.519
90.855	13.362	1299.570	978.979
91.870	13.404	1298.620	978.426
92.884	13.344	1298.013	977.527
93.899	13.390	1296.668	976.702
94.914	13.473	1296.011	976.611
95.928	13.406	1295.351	975.629
96.943	13.422	1294.154	974.735
97.957	13.403	1293.614	974.134
98.972	13.501	1292.413	973.719
99.987	13.413	1291.283	972.259
101.001	13.382	1290.556	971.449
102.016	13.400	1289.420	970.609
103.030	13.364	1288.688	969.763
104.045	13.289	1287.931	968.671
105.060	13.434	1286.203	968.132
106.074	13.284	1285.240	966.446
107.089	13.283	1283.938	965.376
108.103	13.296	1282.445	964.242
109.118	13.229	1281.423	962.995
110.133	13.329	1279.751	962.239
111.147	13.293	1278.303	960.854
112.162	13.288	1277.479	960.119
113.176	13.288	1276.328	959.172
114.191	13.434	1275.632	959.413
115.206	13.438	1274.238	958.302
116.220	13.314	1273.097	956.641
117.235	13.325	1272.305	956.025
118.249	13.269	1271.173	954.767
119.264	13.286	1270.008	953.904
120.279	13.304	1268.830	953.036
121.293	13.325	1267.753	952.263
122.308	13.292	1266.676	951.185
123.322	13.264	1266.186	950.571
124.337	13.166	1265.103	949.107
125.352	13.202	1263.622	948.123
126.366	13.303	1262.262	947.595
127.381	13.277	1261.265	946.614
128.395	13.264	1260.081	945.566
129.410	13.192	1259.317	944.498
130.424	13.300	1258.542	944.452
131.439	13.433	1257.082	944.033
132.454	13.387	1256.277	943.080
133.468	13.391	1255.257	942.257
134.483	13.307	1254.701	941.273
135.497	13.313	1253.492	940.317
136.512	13.359	1252.005	939.381
137.527	13.319	1250.650	938.053
138.541	13.334	1249.025	936.839
139.556	13.387	1248.030	936.310
140.570	13.375	1247.440	935.715
141.585	13.466	1245.887	934.981
142.600	13.460	1245.056	934.242
143.614	13.507	1244.111	933.713
144.629	13.504	1242.992	932.779
145.643	13.436	1241.867	931.465
146.658	13.476	1240.521	930.601
147.673	13.538	1238.845	929.609
148.687	13.449	1237.870	928.296
149.702	13.411	1236.372	926.877
150.716	13.449	1235.476	926.334
151.731	13.440	1234.589	925.538
152.746	13.514	1233.007	924.685
153.760	13.397	1231.727	922.991
154.775	13.534	1231.020	923.143
155.789	13.542	1230.135	922.439
156.804	13.378	1228.961	920.566
157.819	13.583	1227.559	920.573
158.833	13.578	1226.954	920.009
159.848	13.654	1226.058	919.679
160.862	13.647	1225.161	918.887
161.877	13.623	1223.743	917.611
162.892	13.455	1222.877	915.950
163.906	13.512	1221.991	915.519
164.921	13.419	1221.360	914.450
165.935	13.506	1219.782	913.669
166.950	13.519	1219.581	913.508
167.964	13.563	1218.793	913.078
168.979	13.646	1217.281	912.322
169.994	13.535	1217.146	911.532
171.008	13.552	1216.195	910.834
172.023	13.684	1215.128	910.679
173.037	13.778	1214.416	910.582
174.052	13.714	1213.446	909.422
175.067	13.628	1212.721	908.323
176.081	13.547	1211.795	907.108
177.096	13.578	1210.857	906.495
178.110	13.639	1209.808	905.966
179.125	13.618	1208.433	904.739
180.140	13.688	1207.169	904.093
181.154	13.711	1206.208	903.419
182.169	13.760	1204.777	902.532
183.183	13.770	1203.915	901.861
184.198	13.785	1203.079	901.237
185.213	13.896	1201.265	900.399
186.227	13.804	1200.566	899.299
187.242	13.932	1199.716	899.277
188.256	13.968	1197.907	898.036
189.271	13.855	1197.228	896.837
190.286	13.734	1196.742	895.742
191.300	13.708	1195.620	894.682
192.315	13.718	1194.911	894.126
193.329	13.731	1194.214	893.593
194.344	13.769	1193.404	893.112
195.359	13.810	1192.930	892.897
196.373	13.912	1192.431	892.997
197.388	13.996	1191.867	892.945
198.402	14.026	1191.368	892.653
199.417	14.097	1190.457	892.271
200.432	14.041	1189.652	891.290
201.446	14.110	1189.119	891.184
202.461	14.131	1187.929	890.324
203.475	14.191	1187.311	890.103
204.490	14.157	1185.963	888.835
205.504	14.094	1184.931	887.642
206.519	14.120	1183.519	886.647
207.534	14.078	1182.463	885.556
208.548	14.094	1181.467	884.812
209.563	14.062	1180.687	883.981
210.577	14.188	1179.576	883.742
211.592	14.194	1179.030	883.284
212.607	14.263	1178.217	882.964
213.621	14.255	1177.609	882.389
214.636	14.113	1176.755	880.921
215.650	14.180	1175.617	880.344
216.665	14.165	1174.939	879.679
217.680	14.474	1173.888	880.444
218.694	14.283	1173.049	878.729
219.709	14.354	1171.990	878.232
220.723	14.289	1171.985	877.809
221.738	14.293	1171.037	877.045
222.753	14.305	1169.943	876.208
223.767	14.353	1169.797	876.275
224.782	14.436	1168.685	875.801
225.796	14.480	1167.852	875.329
226.811	14.362	1167.487	874.361
227.826	14.372	1166.701	873.745
228.840	14.469	1165.893	873.571
229.855	14.301	1165.673	872.450
230.869	14.353	1164.993	872.134
231.884	14.426	1163.632	871.420
232.899	14.451	1162.878	870.912
233.913	14.415	1161.984	869.975
234.928	14.405	1161.147	869.221
235.942	14.354	1160.638	868.497
236.957	14.445	1159.579	868.103
237.972	14.401	1158.915	867.300
238.986	14.479	1158.297	867.161
240.001	14.539	1157.663	866.922
241.015	14.423	1156.640	865.481
242.030	14.512	1155.918	865.324
243.045	14.615	1154.831	864.965
244.059	14.592	1154.115	864.236
245.074	14.555	1153.681	863.642
246.088	14.558	1152.750	862.886
247.103	14.674	1152.423	863.163
248.117	14.647	1151.258	862.075
249.132	14.736	1150.591	861.959
250.147	14.684	1150.204	861.324
251.161	14.696	1149.608	860.865
252.176	14.835	1148.423	860.614
253.190	14.862	1147.812	860.223
254.205	14.846	1147.255	859.645
255.220	14.875	1146.847	859.413
256.234	14.906	1146.305	859.089
257.249	14.951	1145.404	858.570
258.263	14.980	1144.678	858.097
259.278	14.911	1144.235	857.334
260.293	14.981	1143.469	857.044
261.307	15.027	1143.074	856.908
262.322	15.083	1142.279	856.522
263.336	15.088	1141.688	856.027
264.351	15.047	1141.087	855.296
265.366	15.088	1140.633	855.089
266.380	15.106	1139.635	854.355
267.395	15.094	1138.922	853.683
268.409	15.011	1137.890	852.409
269.424	15.061	1137.376	852.208
270.439	15.121	1137.059	852.198
271.453	15.097	1136.236	851.385
272.468	14.971	1135.404	850.043
273.482	15.120	1134.325	849.917
274.497	15.080	1134.010	849.406
275.512	15.199	1133.373	849.456
276.526	15.038	1132.932	848.234
277.541	15.123	1131.720	847.683
278.555	15.189	1131.347	847.659
279.570	15.250	1130.118	846.975
280.585	15.288	1129.545	846.663
281.599	15.259	1128.330	845.532
282.614	15.290	1127.420	844.929
283.628	15.225	1126.580	843.897
284.643	15.266	1125.741	843.399
285.657	15.231	1125.079	842.656
286.672	15.166	1124.317	841.682
287.687	15.301	1123.074	841.354
288.701	15.366	1122.087	840.867
289.716	15.449	1121.176	840.526
290.730	15.374	1120.895	839.864
291.745	15.454	1119.905	839.448
292.760	15.377	1119.457	838.652
293.774	15.323	1119.529	838.365
294.789	15.497	1118.516	838.400
295.803	15.445	1117.790	837.522
296.818	15.557	1117.018	837.428
297.833	15.448	1116.507	836.426
298.847	15.430	1115.785	835.723
299.862	15.415	1114.969	834.962
300.876	15.602	1113.945	835.054
301.891	15.609	1113.369	834.583
302.906	15.535	1112.542	833.520
303.920	15.566	1111.997	833.192
304.935	15.751	1111.314	833.520
305.949	15.576	1110.971	832.325
306.964	15.679	1110.236	832.212
307.979	15.760	1109.110	831.695
308.993	15.661	1108.619	830.764
310.008	15.749	1107.603	830.362
311.022	15.794	1107.166	830.184
312.037	15.827	1106.252	829.587
313.052	15.856	1105.275	828.923
314.066	15.728	1104.660	827.758
315.081	15.709	1103.520	826.740
316.095	15.731	1102.828	826.256
317.110	15.605	1102.517	825.327
318.125	15.742	1101.760	825.360
319.139	15.841	1100.808	825.063
320.154	15.678	1100.129	823.682
321.168	15.712	1099.800	823.529
322.183	15.714	1098.924	822.808
323.197	15.765	1098.483	822.655
324.212	15.737	1097.711	821.869
325.227	15.835	1097.144	821.848
326.241	15.889	1096.013	821.193
327.256	15.856	1095.304	820.428
328.270	15.860	1094.468	819.747
329.285	15.869	1093.831	819.241
330.300	15.845	1092.920	818.372
331.314	15.863	1091.825	817.564
332.329	15.896	1091.159	817.154
333.343	15.916	1090.544	816.720
334.358	15.965	1089.704	816.254
335.373	16.001	1088.892	815.749
336.387	16.000	1088.254	815.193
337.402	16.028	1087.128	814.416
338.416	16.064	1086.406	813.973
339.431	15.972	1086.178	813.286
340.446	16.138	1085.795	813.730
341.460	16.156	1084.643	812.883
342.475	16.060	1083.860	811.762
343.489	16.075	1083.151	811.230
344.504	16.183	1082.248	811.000
345.519	16.308	1081.258	810.786
346.533	16.392	1080.362	810.449
347.548	16.376	1080.084	810.091
348.562	16.387	1078.911	809.191
349.577	16.181	1078.279	807.660
350.592	16.145	1077.679	806.967
351.606	16.281	1076.482	806.650
352.621	16.175	1076.149	805.821
353.635	16.302	1075.384	805.782
354.650	16.287	1074.666	805.104
355.665	16.280	1074.077	804.557
356.679	16.314	1073.707	804.373
357.694	16.428	1073.028	804.336
358.708	16.379	1072.332	803.509
359.723	16.396	1071.589	802.962
360.738	16.476	1070.752	802.640
361.752	16.457	1070.311	802.151
362.767	16.426	1069.907	801.628
363.781	16.433	1069.536	801.312
364.796	16.494	1069.097	801.201
365.810	16.482	1068.339	800.507
366.825	16.471	1067.888	800.048
367.840	16.588	1067.267	800.066
368.854	16.541	1066.594	799.266
369.869	16.640	1065.560	798.886
370.883	16.602	1064.702	797.994
371.898	16.685	1064.325	798.032
372.913	16.629	1063.666	797.205
373.927	16.580	1063.413	796.714
374.942	16.665	1062.618	796.446
375.956	16.529	1062.441	795.606
376.971	16.726	1061.243	795.565
377.986	16.630	1060.923	794.801
379.000	16.787	1060.274	794.984
380.015	16.773	1059.900	794.564
381.029	16.893	1059.117	794.471
382.044	16.836	1058.383	793.582
383.059	16.779	1057.905	792.886
384.073	16.792	1056.942	792.154
385.088	16.834	1056.180	791.713
386.102	17.048	1054.759	791.573
387.117	16.850	1054.138	790.117
388.132	16.907	1053.207	789.613
389.146	16.856	1052.271	788.603
390.161	16.897	1051.730	788.317
391.175	16.946	1051.074	787.986
392.190	16.967	1050.166	787.332
393.205	16.952	1049.952	787.031
394.219	16.968	1048.996	786.321
395.234	16.905	1047.897	785.134
396.248	16.993	1046.844	784.685
397.263	17.039	1045.691	783.962
398.278	16.808	1045.641	782.788
399.292	16.795	1044.936	782.134
400.307	16.958	1044.150	782.225
401.321	16.862	1043.607	781.308
402.336	16.993	1042.592	781.084
403.350	16.989	1042.208	780.707
404.365	17.016	1041.457	780.199
405.380	17.012	1040.893	779.689
406.394	17.186	1039.959	779.720
407.409	17.120	1039.130	778.724
408.423	17.190	1038.511	778.513
409.438	17.175	1037.554	777.659
410.453	17.212	1037.198	777.491
411.467	17.272	1036.599	777.250
412.482	17.273	1035.310	776.221
413.496	17.306	1035.064	776.116
414.511	17.248	1034.790	775.578
415.526	17.275	1034.101	775.115
416.540	17.540	1033.534	775.831
417.555	17.384	1033.384	774.940
418.569	17.368	1032.362	774.030
419.584	17.420	1032.090	773.996
420.599	17.420	1031.812	773.717
421.613	104.351	1322.570	1469.443
422.628	95.562	1364.888	1469.552
