DTS Sentinel unit serial number:	SN413079Multiplexer serial number:	ORYXHardware model number:	OX4-SRSoftware version number:	ORYX F/W v4.00 Oryx Data Collector v3.7.2.0data status	okinstallation	princeton_trtdifferential loss correction	single-endedforward channel	channel 2reverse channel	N/Adate	2019/09/19time	06:39:35forward acquisition time	60.00reverse acquisition time	0.00gamma	496.2192k internal	0.2349k external	0.2349temperature offset calibration	1.0014default loss term (dB/km)	0.3790temperature slope calibration	1.0000multiplexer offset coefficient	1.0000multiplexer slope coefficient	1.0000fibre end	0.00T internal ref (°C)	19.00T ext. ref 1 (°C)	0.56T ext. ref 2 (°C)	12.83length (m)	temperature (°C)	Stokes	anti-Stokes-747.200	721.457	0.072	-0.191
-746.185	-167.739	-0.238	0.009
-745.171	51.104	0.089	-0.084
-744.156	-1.671	-0.334	0.235
-743.142	237.096	-0.071	0.117
-742.127	175.623	0.179	0.260
-741.112	-156.294	0.226	0.014
-740.098	-169.442	-0.388	-0.014
-739.083	-78.827	0.279	-0.095
-738.069	-170.942	-0.145	0.005
-737.054	-61.584	-0.428	-0.179
-736.039	11.352	0.089	0.068
-735.025	50.959	0.054	-0.051
-734.010	58.882	-0.210	-0.206
-732.996	-77.168	-0.358	-0.125
-731.981	-108.128	-0.308	0.067
-730.966	31.104	-0.136	-0.117
-729.952	-38.342	-0.289	0.152
-728.937	-87.129	-0.232	0.070
-727.923	-142.844	-0.488	0.047
-726.908	-155.168	-0.218	-0.014
-725.894	87.290	0.267	0.295
-724.879	-166.298	-0.298	0.013
-723.864	-200.000	0.001	-0.363
-722.850	-10.106	-0.284	0.189
-721.835	-200.000	-0.007	0.034
-720.821	-200.000	-0.086	0.470
-719.806	388.726	0.046	-0.094
-718.791	536.171	-0.183	-0.433
-717.777	511.031	0.065	-0.150
-716.762	-132.741	-0.095	-0.012
-715.748	-200.000	0.041	0.305
-714.733	369.347	0.086	0.174
-713.718	-67.231	0.061	-0.024
-712.704	-112.362	0.318	0.063
-711.689	-30.602	-0.113	-0.064
-710.675	-71.177	0.093	0.035
-709.660	-200.000	-0.006	-0.157
-708.645	267.119	0.184	-0.320
-707.631	140.802	0.186	0.245
-706.616	195.244	0.128	0.194
-705.602	-38.370	0.196	-0.104
-704.587	-200.000	0.031	0.269
-703.572	114.057	-0.165	0.200
-702.558	-86.476	-0.306	0.094
-701.543	280.401	0.085	-0.152
-700.529	-0.432	-0.171	-0.121
-699.514	-39.030	-0.259	0.136
-698.499	249.662	0.079	0.133
-697.485	56.254	-0.289	0.280
-696.470	-26.891	-0.221	-0.128
-695.456	94.307	-0.111	-0.126
-694.441	433.665	-0.059	-0.127
-693.426	-95.599	0.072	-0.019
-692.412	506.071	-0.130	0.301
-691.397	-159.761	0.196	-0.011
-690.383	-95.547	0.161	-0.043
-689.368	-13.021	-0.115	-0.075
-688.354	-200.000	-0.045	-0.350
-687.339	99.256	-0.205	0.236
-686.324	-200.000	0.007	-0.243
-685.310	-127.527	0.232	-0.033
-684.295	-100.519	-0.230	-0.057
-683.281	800.000	0.080	0.225
-682.266	50.679	0.236	-0.222
-681.251	-200.000	-0.008	0.081
-680.237	800.000	0.088	-0.329
-679.222	-14.942	0.134	0.085
-678.208	-200.000	-0.000	-0.314
-677.193	88.911	-0.046	-0.051
-676.178	-69.441	-0.193	-0.074
-675.164	56.962	-0.189	-0.183
-674.149	-43.091	0.375	-0.189
-673.135	218.598	-0.164	-0.262
-672.120	800.000	0.032	0.103
-671.105	800.000	-0.106	0.324
-670.091	150.409	-0.152	0.206
-669.076	-20.275	-0.218	0.134
-668.062	800.000	-0.074	-0.221
-667.047	-147.855	0.394	-0.033
-666.032	132.440	-0.045	0.058
-665.018	415.485	0.148	0.315
-664.003	-71.841	0.211	-0.078
-662.989	-77.347	0.236	0.082
-661.974	-10.815	0.147	0.097
-660.959	315.368	-0.071	0.133
-659.945	800.000	-0.014	-0.048
-658.930	-65.359	0.174	0.070
-657.916	-158.530	0.076	-0.004
-656.901	800.000	0.002	-0.007
-655.886	42.004	-0.104	-0.094
-654.872	52.662	-0.177	0.169
-653.857	223.702	-0.049	0.079
-652.843	30.853	0.148	-0.126
-651.828	560.920	-0.069	-0.166
-650.814	-83.376	-0.305	-0.097
-649.799	38.767	0.216	0.192
-648.784	241.313	0.124	-0.206
-647.770	800.000	0.115	-0.325
-646.755	118.170	-0.110	0.134
-645.741	-200.000	-0.004	0.022
-644.726	-29.465	-0.294	0.167
-643.711	76.078	0.109	-0.114
-642.697	22.901	0.041	0.034
-641.682	341.804	-0.150	-0.291
-640.668	11.384	-0.157	-0.120
-639.653	800.000	0.085	0.297
-638.638	-57.196	-0.129	-0.056
-637.624	-200.000	-0.029	-0.224
-636.609	-200.000	-0.030	-0.171
-635.595	55.320	0.115	-0.111
-634.580	-65.610	-0.050	-0.020
-633.565	131.450	-0.034	-0.044
-632.551	-200.000	0.021	-0.131
-631.536	-125.354	0.172	0.026
-630.522	-200.000	-0.114	0.575
-629.507	-133.483	-0.353	0.044
-628.492	7.308	0.033	-0.024
-627.478	243.644	0.122	-0.204
-626.463	16.796	-0.421	0.331
-625.449	-16.503	-0.264	-0.166
-624.434	-51.791	-0.369	-0.171
-623.419	390.983	-0.045	-0.093
-622.405	71.434	-0.085	0.088
-621.390	46.617	-0.041	0.038
-620.376	-37.867	0.109	0.058
-619.361	-59.459	-0.172	-0.074
-618.346	51.952	0.260	-0.246
-617.332	-34.195	-0.569	-0.310
-616.317	-73.002	0.138	0.051
-615.303	80.468	-0.014	0.015
-614.288	-200.000	-0.005	-0.062
-613.273	-1.898	-0.187	-0.131
-612.259	700.236	0.025	0.066
-611.244	76.619	0.026	-0.027
-610.230	12.517	-0.170	-0.130
-609.215	-200.000	-0.020	0.236
-608.201	84.316	-0.095	0.103
-607.186	-106.529	-0.325	-0.072
-606.171	-200.000	-0.037	0.203
-605.157	-90.577	-0.486	0.140
-604.142	-200.000	0.006	0.482
-603.128	202.443	0.172	0.264
-602.113	-168.120	0.140	0.005
-601.098	-149.044	-0.254	0.020
-600.084	45.375	-0.030	0.027
-599.069	-138.818	-0.093	-0.010
-598.055	-200.000	0.024	0.151
-597.040	688.852	-0.060	-0.156
-596.025	341.837	-0.133	-0.258
-595.011	-42.679	-0.073	0.037
-593.996	729.278	-0.099	-0.262
-592.982	547.373	-0.168	-0.398
-591.967	-200.000	-0.011	-0.154
-590.952	800.000	-0.139	0.516
-589.938	295.004	0.131	-0.238
-588.923	800.000	0.102	-0.422
-587.909	14.360	-0.163	0.126
-586.894	95.355	0.068	-0.077
-585.879	-99.270	-0.228	-0.057
-584.865	68.349	-0.016	-0.017
-583.850	-159.769	-0.256	0.014
-582.836	83.520	-0.151	-0.163
-581.821	-3.459	0.105	-0.072
-580.806	-45.510	0.053	-0.026
-579.792	-134.198	0.348	-0.043
-578.777	50.088	-0.178	0.167
-577.763	-84.815	0.184	-0.057
-576.748	13.170	-0.119	0.091
-575.733	387.290	0.176	0.361
-574.719	8.266	-0.180	0.134
-573.704	123.920	-0.056	0.069
-572.690	205.927	-0.191	-0.295
-571.675	36.743	-0.071	-0.063
-570.661	-200.000	-0.006	0.226
-569.646	-200.000	0.036	-0.230
-568.631	800.000	0.029	0.105
-567.617	24.577	-0.184	0.151
-566.602	403.668	-0.053	0.110
-565.588	800.000	-0.079	-0.247
-564.573	523.891	0.057	0.133
-563.558	3.079	0.420	-0.303
-562.544	512.923	0.058	0.135
-561.529	-200.000	-0.011	-0.063
-560.515	-200.000	-0.021	-0.334
-559.500	-200.000	0.020	0.280
-558.485	-42.834	-0.283	0.142
-557.471	18.849	-0.305	0.242
-556.456	631.109	-0.108	0.270
-555.442	-61.969	-0.231	0.096
-554.427	-76.925	-0.053	-0.018
-553.412	800.000	-0.105	0.405
-552.398	-200.000	-0.028	0.217
-551.383	729.713	0.079	0.209
-550.369	-70.164	0.144	0.054
-549.354	77.510	-0.207	0.218
-548.339	160.827	0.095	0.132
-547.325	289.852	0.054	-0.097
-546.310	-77.836	0.229	0.078
-545.296	-50.728	-0.236	-0.110
-544.281	184.281	0.164	-0.241
-543.266	-123.788	0.171	-0.027
-542.252	724.214	0.047	0.123
-541.237	-193.351	0.109	0.001
-540.223	-200.000	-0.003	-0.112
-539.208	800.000	0.065	-0.193
-538.193	122.196	0.140	0.173
-537.179	232.833	-0.143	-0.233
-536.164	-135.271	-0.180	-0.021
-535.150	242.065	-0.063	-0.104
-534.135	120.522	0.098	-0.120
-533.121	106.702	-0.028	-0.033
-532.106	-200.000	0.029	0.137
-531.091	-96.674	0.131	-0.034
-530.077	288.638	-0.047	0.084
-529.062	800.000	-0.136	0.392
-528.048	-7.574	0.176	0.118
-527.033	800.000	-0.040	0.155
-526.018	-57.540	0.098	-0.043
-525.004	-107.857	-0.469	0.101
-523.989	-200.000	-0.055	-0.278
-522.975	-76.805	0.279	0.097
-521.960	349.051	-0.054	-0.106
-520.945	800.000	0.073	-0.210
-519.931	39.110	0.155	-0.137
-518.916	156.804	-0.259	-0.354
-517.902	8.794	0.154	0.115
-516.887	-169.668	-0.313	-0.011
-515.872	-181.108	0.343	-0.007
-514.858	-153.594	-0.501	-0.034
-513.843	-30.482	0.195	0.109
-512.829	-111.966	-0.323	-0.064
-511.814	-59.958	-0.101	-0.043
-510.799	-109.043	-0.285	0.060
-509.785	-200.000	0.019	-0.147
-508.770	278.245	0.084	0.148
-507.756	800.000	0.110	-0.324
-506.741	13.898	-0.248	-0.191
-505.726	-139.654	-0.356	-0.037
-504.712	21.513	0.292	-0.235
-503.697	535.132	0.097	0.227
-502.683	-88.549	0.045	-0.013
-501.668	-87.322	-0.245	0.073
-500.653	-200.000	0.012	0.209
-499.639	15.723	0.048	0.037
-498.624	-12.269	0.447	-0.289
-497.610	19.976	-0.066	-0.053
-496.595	-65.876	0.482	0.191
-495.581	6.870	-0.142	0.105
-494.566	-32.306	0.296	-0.163
-493.551	800.000	0.071	-0.232
-492.537	-105.974	0.243	-0.054
-491.522	-200.000	0.062	0.354
-490.508	508.716	-0.062	-0.143
-489.493	-19.092	0.490	0.301
-488.478	8.353	-0.043	-0.032
-487.464	67.164	-0.224	-0.226
-486.449	-200.000	0.017	0.170
-485.435	12.150	-0.076	-0.058
-484.420	-76.709	-0.284	0.098
-483.405	413.786	0.057	0.121
-482.391	-200.000	0.014	0.088
-481.376	486.230	0.155	-0.349
-480.362	800.000	0.063	0.240
-479.347	-87.519	0.343	-0.103
-478.332	-62.621	-0.122	0.050
-477.318	36.221	0.314	0.274
-476.303	800.000	-0.025	0.086
-475.289	-112.775	-0.240	-0.047
-474.274	10.389	-0.018	-0.014
-473.259	800.000	0.033	-0.137
-472.245	800.000	-0.120	-0.455
-471.230	-195.764	-0.389	-0.003
-470.216	-21.610	-0.222	0.134
-469.201	-200.000	-0.074	0.353
-468.186	302.422	0.104	-0.190
-467.172	-14.666	-0.111	-0.070
-466.157	196.762	-0.187	-0.281
-465.143	487.614	0.075	0.168
-464.128	179.373	-0.087	-0.126
-463.113	-109.348	0.234	0.049
-462.099	-200.000	-0.006	0.292
-461.084	-66.576	0.367	0.144
-460.070	800.000	0.103	-0.346
-459.055	-130.813	0.281	0.037
-458.040	-200.000	-0.065	-0.346
-457.026	-162.695	0.189	-0.009
-456.011	176.482	-0.149	0.214
-454.997	-200.000	-0.029	-0.129
-453.982	361.596	-0.070	-0.139
-452.968	800.000	0.062	0.239
-451.953	-172.018	0.128	-0.004
-450.938	-79.053	0.134	0.045
-449.924	800.000	-0.110	-0.425
-448.909	-34.869	0.270	-0.146
-447.895	-50.541	0.177	-0.082
-446.880	227.538	-0.034	-0.054
-445.865	235.469	0.076	0.124
-444.851	113.360	-0.176	0.211
-443.836	-18.512	0.164	0.101
-442.822	210.888	-0.174	-0.270
-441.807	800.000	-0.086	0.292
-440.792	0.522	-0.155	-0.109
-439.778	-3.826	0.150	-0.103
-438.763	-135.605	-0.253	-0.030
-437.749	196.738	0.098	-0.147
-436.734	119.938	0.057	-0.069
-435.719	800.000	-0.031	0.088
-434.705	-200.000	-0.047	-0.245
-433.690	-3.949	0.399	-0.273
-432.676	766.745	0.029	-0.077
-431.661	-122.240	0.041	0.007
-430.646	-121.336	-0.115	-0.019
-429.632	269.388	-0.147	0.255
-428.617	-200.000	0.062	0.345
-427.603	800.000	-0.046	-0.150
-426.588	-155.804	0.386	-0.024
-425.573	-177.850	-0.397	0.009
-424.559	-47.866	-0.140	-0.067
-423.544	-123.701	-0.069	0.011
-422.530	209.586	0.038	-0.059
-421.515	-65.730	0.154	-0.061
-420.500	-27.478	-0.069	0.040
-419.486	56.021	0.081	0.077
-418.471	-200.000	0.023	-0.224
-417.457	141.373	-0.071	-0.092
-416.442	-36.784	-0.297	0.157
-415.428	-10.487	-0.114	0.075
-414.413	-29.921	-0.151	0.085
-413.398	-95.872	0.272	0.072
-412.384	205.161	-0.189	0.289
-411.369	-152.693	0.259	0.018
-410.355	800.000	-0.073	-0.283
-409.340	110.428	-0.048	0.057
-408.325	124.035	-0.232	0.288
-407.311	-93.773	0.198	-0.054
-406.296	800.000	0.041	0.121
-405.282	-200.000	-0.015	-0.163
-404.267	217.778	-0.159	-0.250
-403.252	-32.306	0.054	-0.030
-402.238	-49.374	0.208	-0.098
-401.223	633.949	-0.137	-0.343
-400.209	164.855	-0.082	0.113
-399.194	-83.102	-0.156	0.049
-398.179	-200.000	0.004	0.139
-397.165	360.983	0.086	0.170
-396.150	-200.000	-0.009	-0.111
-395.136	-54.459	0.156	0.070
-394.121	302.594	0.205	-0.374
-393.106	-79.659	-0.128	0.042
-392.092	800.000	-0.091	-0.378
-391.077	800.000	-0.051	0.192
-390.063	-169.589	0.259	0.009
-389.048	-154.115	-0.179	0.012
-388.033	-81.916	0.044	0.014
-387.019	64.695	-0.107	0.106
-386.004	396.361	0.204	0.419
-384.990	800.000	-0.076	0.266
-383.975	800.000	0.014	-0.060
-382.960	-58.022	-0.310	0.133
-381.946	-200.000	0.009	-0.046
-380.931	-80.167	0.216	0.071
-379.917	-6.062	-0.156	0.105
-378.902	-114.295	0.139	0.026
-377.888	17.706	-0.252	-0.197
-376.873	29.580	0.217	-0.182
-375.858	-80.501	-0.230	-0.075
-374.844	-200.000	-0.038	0.235
-373.829	-200.000	0.035	0.194
-372.815	544.190	-0.116	0.273
-371.800	21.777	0.257	0.206
-370.785	-200.000	0.011	-0.052
-369.771	202.089	0.158	-0.239
-368.756	368.864	0.176	0.350
-367.742	24.845	0.155	0.127
-366.727	-93.779	-0.110	-0.030
-365.712	-200.000	0.030	-0.355
-364.698	-182.577	-0.121	-0.002
-363.683	-20.473	-0.157	0.095
-362.669	692.558	0.049	-0.125
-361.654	430.396	-0.063	-0.135
-360.639	800.000	0.105	0.352
-359.625	515.378	0.219	0.503
-358.610	-89.627	-0.183	-0.053
-357.596	-200.000	-0.001	0.193
-356.581	-157.191	-0.432	-0.026
-355.566	31.365	-0.176	-0.149
-354.552	-200.000	-0.019	0.171
-353.537	-6.792	-0.366	0.245
-352.523	464.162	0.086	0.189
-351.508	-200.000	0.083	-0.423
-350.493	800.000	0.087	-0.245
-349.479	5.787	-0.405	0.294
-348.464	-97.179	0.217	-0.056
-347.450	-57.318	-0.108	-0.047
-346.435	-200.000	0.015	-0.247
-345.420	-200.000	0.055	-0.432
-344.406	-75.415	-0.412	0.144
-343.391	29.733	0.125	0.105
-342.377	-200.000	0.034	-0.212
-341.362	43.148	0.233	-0.209
-340.348	306.583	-0.079	0.144
-339.333	-200.000	0.113	-0.584
-338.318	-117.008	0.233	0.042
-337.304	-52.384	0.092	-0.042
-336.289	800.000	0.030	0.122
-335.275	299.141	0.180	0.325
-334.260	-200.000	0.077	-0.430
-333.245	231.137	-0.085	-0.136
-332.231	124.090	-0.029	-0.036
-331.216	-200.000	-0.036	0.205
-330.202	258.113	0.207	-0.351
-329.187	-200.000	-0.040	0.182
-328.172	84.410	0.005	0.005
-327.158	6.921	-0.188	-0.138
-326.143	-200.000	0.035	0.222
-325.129	136.870	-0.130	-0.167
-324.114	-58.200	0.293	0.125
-323.099	-124.969	-0.174	-0.026
-322.085	-200.000	-0.059	0.389
-321.070	-69.453	0.230	0.087
-320.056	-4.634	0.163	0.111
-319.041	-200.000	0.018	-0.503
-318.026	-125.749	-0.303	-0.045
-317.012	-200.000	-0.042	0.239
-315.997	-200.000	0.008	0.289
-314.983	-45.680	-0.165	0.080
-313.968	-186.162	-0.086	0.001
-312.953	-24.061	0.078	0.046
-311.939	800.000	-0.139	-0.486
-310.924	196.620	0.161	0.241
-309.910	800.000	-0.137	0.471
-308.895	800.000	0.102	0.293
-307.880	-200.000	-0.003	0.065
-306.866	-52.047	-0.195	-0.089
-305.851	-13.082	0.069	0.044
-304.837	3.020	-0.030	-0.021
-303.822	-148.593	-0.305	-0.024
-302.807	-70.972	0.324	0.120
-301.793	-200.000	0.014	-0.278
-300.778	312.160	-0.272	0.502
-299.764	-136.535	-0.180	-0.020
-298.749	158.506	-0.209	0.285
-297.735	116.379	-0.125	0.150
-296.720	-112.982	-0.253	-0.049
-295.705	68.454	0.192	0.193
-294.691	-200.000	0.091	0.519
-293.676	-146.787	0.264	-0.022
-292.662	-200.000	0.046	-0.507
-291.647	-147.380	0.049	-0.004
-290.632	715.003	-0.086	0.225
-289.618	-18.857	0.378	-0.231
-288.603	800.000	0.059	0.238
-287.589	-200.000	0.019	0.218
-286.574	-200.000	0.037	0.196
-285.559	158.530	-0.134	0.183
-284.545	-108.551	-0.143	0.030
-283.530	774.501	0.078	-0.208
-282.516	-155.836	0.103	-0.006
-281.501	-63.205	0.168	0.068
-280.486	477.483	-0.118	-0.261
-279.472	348.573	0.197	0.380
-278.457	68.968	-0.276	0.278
-277.443	17.756	0.107	-0.083
-276.428	-200.000	0.013	-0.121
-275.413	-108.564	0.183	0.038
-274.399	800.000	0.080	0.326
-273.384	131.680	-0.228	-0.287
-272.370	-200.000	-0.004	0.163
-271.355	196.458	0.199	0.298
-270.340	131.757	0.092	-0.116
-269.326	198.565	0.172	-0.259
-268.311	695.710	-0.075	-0.194
-267.297	6.993	-0.117	0.085
-266.282	150.082	-0.223	-0.297
-265.267	230.925	0.204	-0.327
-264.253	186.429	0.179	0.261
-263.238	-145.412	-0.140	0.012
-262.224	-18.800	0.168	-0.103
-261.209	7.619	0.486	-0.357
-260.195	86.928	-0.110	-0.119
-259.180	-200.000	-0.033	0.301
-258.165	-200.000	0.110	-0.000
-257.151	-200.000	-0.015	-0.119
-256.136	140.408	-0.081	0.105
-255.122	210.004	0.037	0.056
-254.107	395.490	-0.116	-0.238
-253.092	85.197	-0.143	0.154
-252.078	35.549	0.129	-0.111
-251.063	-150.706	0.346	-0.026
-250.049	-171.954	-0.231	-0.007
-249.034	-66.612	0.376	-0.146
-248.019	800.000	-0.015	-0.062
-247.005	475.565	-0.018	-0.041
-245.990	49.379	0.129	-0.119
-244.976	247.519	-0.100	0.166
-243.961	165.392	0.172	-0.238
-242.946	599.515	0.081	-0.196
-241.932	800.000	-0.047	0.192
-240.917	238.660	-0.122	0.199
-239.903	-153.910	0.152	-0.010
-238.888	-130.774	0.146	0.019
-237.873	177.127	-0.113	-0.161
-236.859	-84.439	0.261	0.081
-235.844	-200.000	0.009	0.366
-234.830	-116.306	-0.100	-0.018
-233.815	-200.000	0.046	0.302
-232.800	-149.553	-0.231	-0.018
-231.786	-200.000	0.319	0.001
-230.771	-21.155	-0.185	-0.111
-229.757	698.480	0.073	-0.188
-228.742	286.032	-0.068	-0.120
-227.727	800.000	0.097	0.405
-226.713	800.000	-0.038	-0.143
-225.698	57.155	0.091	0.087
-224.684	375.467	0.173	-0.346
-223.669	190.227	-0.219	-0.322
-222.655	-200.000	0.228	0.001
-221.640	379.794	0.127	-0.255
-220.625	-150.802	0.483	-0.036
-219.611	-110.797	-0.354	-0.071
-218.596	89.906	0.097	-0.107
-217.582	-200.000	-0.426	-0.001
-216.567	-200.000	0.003	0.082
-215.552	-200.000	0.012	-0.083
-214.538	-200.000	0.035	0.200
-213.523	800.000	-0.053	-0.217
-212.509	-105.935	0.238	-0.052
-211.494	-128.025	0.123	-0.017
-210.479	-200.000	-0.001	0.051
-209.465	1.798	0.144	-0.102
-208.450	236.130	0.153	0.247
-207.436	-19.511	0.222	-0.134
-206.421	14.071	0.082	0.062
-205.406	800.000	0.090	0.252
-204.392	-200.000	0.057	0.466
-203.377	44.094	-0.007	-0.007
-202.363	800.000	0.034	0.123
-201.348	60.098	0.175	0.169
-200.333	-200.000	0.406	0.001
-199.319	-30.307	0.210	0.116
-198.304	-200.000	0.049	0.228
-197.290	21.502	0.262	-0.209
-196.275	-200.000	0.082	0.388
-195.260	-74.099	-0.055	-0.020
-194.246	-85.783	-0.038	0.011
-193.231	-53.142	0.197	0.088
-192.217	-109.094	-0.153	-0.032
-191.202	77.127	0.257	-0.266
-190.187	-58.984	-0.469	-0.198
-189.173	800.000	-0.060	0.172
-188.158	-200.000	-0.015	-0.198
-187.144	-67.131	0.191	0.074
-186.129	800.000	-0.041	-0.172
-185.114	800.000	-0.071	0.255
-184.100	-9.398	-0.139	-0.090
-183.085	-200.000	0.014	-0.116
-182.071	-102.865	0.144	-0.033
-181.056	541.574	0.086	-0.200
-180.042	53.108	-0.068	-0.063
-179.027	-130.710	0.298	0.039
-178.012	398.190	0.116	-0.237
-176.998	-123.401	-0.250	-0.039
-175.983	-2.729	0.364	0.249
-174.969	-152.507	0.285	-0.020
-173.954	267.642	0.057	0.097
-172.939	-98.921	0.161	-0.040
-171.925	46.588	-0.250	-0.226
-170.910	313.536	-0.084	0.155
-169.896	-200.000	0.003	-0.036
-168.881	5.904	-0.212	0.153
-167.866	626.516	0.028	0.068
-166.852	-159.952	0.263	-0.014
-165.837	71.951	0.094	-0.096
-164.823	-116.113	-0.088	0.016
-163.808	9.172	-0.249	0.183
-162.793	-32.618	-0.305	-0.166
-161.779	-106.429	0.312	-0.068
-160.764	272.528	-0.077	0.132
-159.750	89.490	0.040	-0.044
-158.735	-101.402	0.176	-0.042
-157.720	43.554	-0.337	-0.301
-156.706	378.427	0.089	0.178
-155.691	122.801	-0.210	-0.257
-154.677	57.951	0.364	-0.347
-153.662	485.376	0.085	-0.188
-152.647	-68.491	0.188	0.071
-151.633	79.307	-0.254	-0.265
-150.618	-200.000	-0.010	0.298
-149.604	119.811	-0.070	0.084
-148.589	-167.749	-0.236	0.009
-147.574	-119.965	-0.025	-0.004
-146.560	800.000	0.162	0.521
-145.545	-200.000	-0.038	0.403
-144.531	50.783	0.252	-0.233
-143.516	-200.000	0.057	-0.249
-142.502	-22.746	-0.109	0.064
-141.487	-116.155	-0.227	-0.041
-140.472	247.664	-0.105	0.173
-139.458	-200.000	0.021	0.165
-138.443	-17.460	0.132	0.081
-137.429	-200.000	-0.021	0.135
-136.414	-200.000	0.037	-0.206
-135.399	-200.000	-0.011	0.171
-134.385	108.778	0.103	0.121
-133.370	-149.546	0.117	-0.009
-132.356	613.725	0.086	0.211
-131.341	125.954	-0.057	0.070
-130.326	-28.427	0.353	0.199
-129.312	-200.000	-0.015	0.096
-128.297	246.524	-0.149	-0.245
-127.283	-77.350	0.376	-0.127
-126.268	-44.893	-0.496	-0.241
-125.253	-4.096	-0.381	0.257
-124.239	31.332	0.097	0.081
-123.224	-128.694	-0.403	0.055
-122.210	43.995	0.383	0.342
-121.195	178.276	-0.032	-0.045
-120.180	-119.857	0.122	0.020
-119.166	409.655	-0.095	0.195
-118.151	100.692	-0.201	0.227
-117.137	-200.000	0.017	0.223
-116.122	-26.213	0.228	-0.130
-115.107	65.087	0.109	0.108
-114.093	-41.208	-0.147	0.074
-113.078	-139.789	0.053	-0.005
-112.064	4.000	0.103	0.073
-111.049	-28.618	-0.173	0.097
-110.034	800.000	0.019	0.067
-109.020	264.482	0.212	0.360
-108.005	701.135	0.044	0.114
-106.991	-200.000	-0.010	0.354
-105.976	-200.000	-0.004	0.095
-104.962	-54.180	0.229	0.101
-103.947	142.335	-0.057	-0.074
-102.932	-200.000	0.005	-0.079
-101.918	-200.000	0.020	0.202
-100.903	737.608	0.081	-0.211
-99.889	-103.960	0.154	-0.035
-98.874	-16.996	-0.062	0.038
-97.859	800.000	-0.036	0.117
-96.845	15.723	-0.131	-0.101
-95.830	264.262	0.122	0.207
-94.816	-200.000	0.046	0.413
-93.801	-200.000	-0.001	0.214
-92.786	72.835	0.107	-0.109
-91.772	-200.000	0.001	0.087
-90.757	239.462	-0.182	0.295
-89.743	-200.000	0.046	0.250
-88.728	-200.000	0.009	-0.218
-87.713	432.658	-0.068	0.143
-86.699	-117.475	-0.132	-0.023
-85.684	-75.300	-0.207	-0.072
-84.670	-114.764	0.381	-0.071
-83.655	-126.677	0.243	0.035
-82.640	183.086	0.040	-0.058
-81.626	587.849	0.090	-0.217
-80.611	165.248	-0.224	-0.307
-79.597	130.128	0.274	0.341
-78.582	-171.305	0.381	-0.012
-77.567	55.550	0.020	0.019
-76.553	-126.477	-0.248	0.036
-75.538	-72.897	-0.157	0.056
-74.524	15.829	-0.051	-0.039
-73.509	512.100	0.094	-0.213
-72.494	7.842	0.256	0.187
-71.480	235.557	-0.212	-0.341
-70.465	-127.103	0.173	0.025
-69.451	154.344	0.161	-0.215
-68.436	215.627	0.224	0.345
-67.422	478.202	-0.037	0.081
-66.407	-128.097	0.265	-0.037
-65.392	-200.000	0.013	-0.187
-64.378	391.086	-0.104	0.211
-63.363	8.443	0.418	0.306
-62.349	2.191	0.178	0.125
-61.334	105.587	-1.294	-1.487
-60.319	-10.185	1.016	0.656
-59.305	136.527	-1.064	-1.350
-58.290	129.515	1.189	1.477
-57.276	800.000	0.500	1.488
-56.261	-200.000	135.952	628.210
-55.246	347.389	1633.137	3126.303
-54.232	137.661	2779.736	3537.507
-53.217	76.018	2299.021	2363.784
-52.203	27.250	1906.438	1556.223
-51.188	21.809	1702.980	1348.369
-50.173	20.095	1666.989	1306.904
-49.159	41.113	1740.897	1528.333
-48.144	37.254	1749.664	1506.106
-47.130	21.368	1701.500	1343.594
-46.115	19.135	1686.528	1314.684
-45.100	19.024	1681.079	1309.542
-44.086	18.888	1678.142	1306.169
-43.071	18.809	1676.121	1303.942
-42.057	18.827	1673.690	1302.134
-41.042	18.916	1671.673	1301.189
-40.027	18.924	1669.435	1299.454
-39.013	18.829	1667.800	1297.418
-37.998	18.815	1666.609	1296.330
-36.984	18.936	1665.278	1296.160
-35.969	18.971	1663.964	1295.349
-34.954	19.089	1661.411	1294.196
-33.940	19.013	1660.048	1292.512
-32.925	18.848	1658.828	1290.274
-31.911	18.951	1656.824	1289.431
-30.896	18.882	1655.797	1288.065
-29.881	18.958	1654.226	1287.364
-28.867	19.061	1652.058	1286.394
-27.852	19.046	1651.166	1285.535
-26.838	18.990	1649.604	1283.852
-25.823	19.067	1648.200	1283.281
-24.809	19.056	1646.785	1282.048
-23.794	18.967	1645.667	1280.460
-22.779	19.057	1643.934	1279.736
-21.765	19.037	1642.235	1278.212
-20.750	18.991	1640.940	1276.811
-19.736	19.173	1639.351	1276.872
-18.721	19.112	1638.010	1275.323
-17.706	19.075	1636.583	1273.891
-16.692	19.026	1635.382	1272.539
-15.677	19.069	1633.781	1271.567
-14.663	19.040	1632.965	1270.661
-13.648	19.046	1631.319	1269.378
-12.633	19.025	1629.558	1267.802
-11.619	18.989	1627.543	1265.918
-10.604	18.985	1626.332	1264.898
-9.590	19.061	1625.405	1264.687
-8.575	19.059	1623.861	1263.420
-7.560	19.076	1623.005	1262.827
-6.546	18.980	1622.252	1261.487
-5.531	18.950	1621.829	1260.891
-4.517	19.061	1619.840	1260.107
-3.502	19.059	1618.818	1259.244
-2.487	19.023	1617.232	1257.695
-1.473	18.534	1604.867	1244.485
-0.458	15.718	1585.548	1209.230
0.556	11.143	1588.081	1178.269
1.571	9.129	1611.800	1180.961
2.586	8.906	1624.174	1188.266
3.600	8.448	1569.257	1144.708
4.615	4.921	1464.322	1044.459
5.629	1.186	1410.587	981.898
6.644	0.566	1404.337	973.461
7.659	0.546	1403.346	972.564
8.673	0.534	1402.482	971.797
9.688	0.604	1399.250	969.925
10.702	0.401	1396.383	966.546
11.717	2.271	1397.749	979.397
12.731	7.770	1405.887	1020.372
13.746	14.192	1415.231	1068.418
14.761	16.845	1420.183	1089.136
15.775	16.584	1418.165	1085.816
16.790	15.633	1415.812	1077.824
17.804	14.828	1413.449	1070.776
18.819	14.467	1411.627	1066.991
19.834	14.271	1410.922	1065.106
20.848	14.016	1410.016	1062.700
21.863	13.790	1408.037	1059.671
22.877	13.656	1407.092	1058.007
23.892	13.513	1405.861	1056.077
24.907	13.507	1405.645	1055.783
25.921	13.570	1404.176	1054.990
26.936	13.632	1403.048	1054.444
27.950	13.661	1402.554	1054.164
28.965	13.659	1401.238	1053.066
29.980	13.621	1400.725	1052.345
30.994	13.639	1399.541	1051.477
32.009	13.807	1398.507	1051.675
33.023	13.730	1397.505	1050.338
34.038	13.638	1396.114	1048.620
35.053	13.686	1395.042	1048.022
36.067	13.626	1394.106	1046.852
37.082	13.711	1392.861	1046.358
38.096	13.620	1392.431	1045.371
39.111	13.720	1391.288	1045.052
40.126	13.751	1390.280	1044.394
41.140	13.608	1389.590	1042.884
42.155	13.563	1389.223	1042.232
43.169	13.635	1388.980	1042.409
44.184	13.579	1388.715	1041.769
45.199	13.550	1388.297	1041.179
46.213	13.471	1387.626	1040.091
47.228	13.534	1386.917	1039.859
48.242	13.703	1384.970	1039.365
49.257	13.580	1384.240	1037.960
50.271	13.588	1382.178	1036.370
51.286	13.714	1380.811	1036.041
52.301	13.667	1379.587	1034.735
53.315	13.612	1378.561	1033.533
54.330	13.638	1377.592	1032.878
55.344	13.648	1376.598	1032.103
56.359	13.635	1375.305	1030.962
57.374	13.602	1374.373	1029.966
58.388	13.567	1373.474	1028.984
59.403	13.547	1373.131	1028.512
60.417	13.474	1372.483	1027.484
61.432	13.478	1371.332	1026.551
62.447	13.504	1370.234	1025.805
63.461	13.469	1369.187	1024.711
64.476	13.392	1368.304	1023.482
65.490	13.538	1366.857	1023.215
66.505	13.579	1365.212	1022.144
67.520	13.563	1364.136	1021.150
68.534	13.448	1363.235	1019.675
69.549	13.579	1361.508	1019.098
70.563	13.495	1360.968	1018.087
71.578	13.495	1359.361	1016.794
72.593	13.449	1358.594	1015.847
73.607	13.406	1358.152	1015.166
74.622	13.407	1357.078	1014.281
75.636	13.519	1356.238	1014.247
76.651	13.403	1355.677	1013.026
77.666	13.453	1354.592	1012.435
78.680	13.425	1354.462	1012.078
79.695	13.499	1352.909	1011.281
80.709	13.493	1352.541	1010.880
81.724	13.540	1351.762	1010.493
82.739	13.555	1350.702	1009.699
83.753	13.600	1349.452	1008.954
84.768	13.686	1348.432	1008.626
85.782	13.702	1347.232	1007.732
86.797	13.604	1346.299	1006.352
87.812	13.586	1344.818	1005.047
88.826	13.559	1343.609	1003.893
89.841	13.605	1342.968	1003.601
90.855	13.728	1341.540	1003.187
91.870	13.650	1340.790	1002.066
92.884	13.676	1339.905	1001.475
93.899	13.665	1339.218	1000.807
94.914	13.841	1337.722	1000.664
95.928	13.706	1337.405	999.522
96.943	13.686	1336.674	998.765
97.957	13.746	1335.262	997.986
98.972	13.722	1334.494	997.179
99.987	13.638	1333.809	996.076
101.001	13.606	1332.275	994.648
102.016	13.655	1331.573	994.332
103.030	13.688	1330.301	993.487
104.045	13.670	1329.160	992.443
105.060	13.777	1327.952	992.094
106.074	13.703	1326.307	990.334
107.089	13.551	1325.617	988.821
108.103	13.601	1324.001	987.830
109.118	13.640	1322.615	986.936
110.133	13.617	1321.551	985.922
111.147	13.582	1320.037	984.499
112.162	13.573	1318.738	983.386
113.176	13.634	1317.522	982.754
114.191	13.531	1316.834	981.545
115.206	13.687	1315.823	981.628
116.220	13.716	1313.998	980.352
117.235	13.698	1312.801	979.264
118.249	13.595	1312.741	978.524
119.264	13.619	1310.981	977.265
120.279	13.569	1310.037	976.185
121.293	13.519	1308.665	974.781
122.308	13.692	1307.421	974.786
123.322	13.660	1306.497	973.818
124.337	13.560	1305.988	972.766
125.352	13.538	1304.422	971.387
126.366	13.593	1303.280	970.771
127.381	13.584	1301.865	969.582
128.395	13.499	1301.046	968.387
129.410	13.604	1300.110	968.219
130.424	13.559	1298.865	966.946
131.439	13.566	1298.176	966.386
132.454	13.601	1297.018	965.642
133.468	13.593	1296.013	964.763
134.483	13.585	1295.281	964.086
135.497	13.636	1294.076	963.397
136.512	13.576	1292.763	961.986
137.527	13.603	1291.317	960.983
138.541	13.615	1289.892	959.909
139.556	13.563	1288.858	958.750
140.570	13.663	1287.999	958.606
141.585	13.826	1285.888	957.893
142.600	13.795	1284.917	956.903
143.614	13.740	1284.380	956.105
144.629	13.786	1283.503	955.631
145.643	13.788	1282.234	954.616
146.658	13.786	1280.845	953.485
147.673	13.768	1279.516	952.308
148.687	13.842	1278.230	951.691
149.702	13.704	1277.209	950.052
150.716	13.762	1275.599	949.106
151.731	13.817	1274.417	948.456
152.746	13.841	1272.972	947.434
153.760	13.794	1272.019	946.371
154.775	13.834	1271.055	945.796
155.789	13.761	1270.162	944.635
156.804	13.895	1268.616	944.166
157.819	13.866	1267.855	943.347
158.833	13.974	1267.345	943.500
159.848	13.984	1265.714	942.256
160.862	14.003	1264.742	941.557
161.877	13.911	1263.765	940.227
162.892	13.873	1262.835	939.240
163.906	13.847	1262.095	938.459
164.921	13.987	1260.914	938.287
165.935	14.024	1259.936	937.684
166.950	13.925	1259.355	936.613
167.964	13.991	1258.316	936.129
168.979	13.997	1257.565	935.519
169.994	13.929	1257.147	934.743
171.008	13.996	1255.800	934.037
172.023	14.053	1254.943	933.634
173.037	13.977	1254.280	932.634
174.052	14.070	1253.540	932.524
175.067	14.059	1252.155	931.347
176.081	13.981	1251.189	930.111
177.096	14.052	1250.598	929.988
178.110	14.032	1249.037	928.633
179.125	14.013	1248.049	927.708
180.140	14.045	1246.977	927.008
181.154	14.070	1245.350	925.852
182.169	14.089	1244.300	925.096
183.183	14.171	1243.328	924.747
184.198	14.205	1242.124	923.963
185.213	14.188	1240.762	922.774
186.227	14.235	1239.347	921.896
187.242	14.223	1238.466	921.093
188.256	14.154	1238.153	920.399
189.271	14.300	1236.700	920.042
190.286	14.241	1235.722	918.907
191.300	14.133	1234.611	917.406
192.315	14.066	1234.285	916.710
193.329	14.193	1233.377	916.658
194.344	14.176	1233.117	916.288
195.359	14.285	1231.839	915.856
196.373	14.312	1231.442	915.628
197.388	14.305	1230.744	914.991
198.402	14.322	1230.610	914.905
199.417	14.349	1230.019	914.530
200.432	14.418	1228.490	913.696
201.446	14.499	1227.778	913.527
202.461	14.457	1227.505	913.012
203.475	14.496	1226.043	912.057
204.490	14.458	1224.934	910.944
205.504	14.486	1223.570	910.002
206.519	14.548	1222.319	909.328
207.534	14.514	1221.194	908.229
208.548	14.421	1220.427	907.071
209.563	14.468	1219.435	906.509
210.577	14.557	1218.188	905.982
211.592	14.521	1218.017	905.584
212.607	14.596	1216.801	905.003
213.621	14.644	1215.427	904.162
214.636	14.499	1215.390	903.271
215.650	14.602	1214.223	902.878
216.665	14.591	1212.936	901.783
217.680	14.686	1211.988	901.510
218.694	14.609	1211.553	900.691
219.709	14.684	1210.317	900.097
220.723	14.660	1210.071	899.709
221.738	14.673	1209.270	899.101
222.753	14.771	1208.160	898.726
223.767	14.847	1207.438	898.514
224.782	14.694	1207.399	897.586
225.796	14.819	1206.422	897.448
226.811	14.799	1205.752	896.766
227.826	14.808	1205.030	896.199
228.840	14.786	1204.574	895.662
229.855	14.903	1203.437	895.363
230.869	14.902	1202.533	894.602
231.884	14.821	1201.706	893.475
232.899	14.838	1201.267	893.164
233.913	14.818	1200.131	892.132
234.928	14.846	1199.600	891.810
235.942	14.812	1198.819	890.970
236.957	14.769	1198.091	890.121
237.972	14.843	1197.313	889.856
238.986	14.912	1196.769	889.742
240.001	14.797	1196.354	888.743
241.015	14.970	1194.736	888.379
242.030	14.985	1194.137	887.936
243.045	14.927	1193.482	887.064
244.059	14.866	1192.897	886.224
245.074	14.800	1191.951	885.096
246.088	14.967	1191.092	885.260
247.103	15.057	1190.208	885.003
248.117	15.128	1189.180	884.533
249.132	15.088	1188.584	883.802
250.147	15.157	1188.017	883.668
251.161	15.233	1186.965	883.204
252.176	15.195	1186.687	882.719
253.190	15.283	1185.755	882.410
254.205	15.203	1185.426	881.669
255.220	15.209	1185.025	881.324
256.234	15.245	1184.003	880.676
257.249	15.269	1183.484	880.338
258.263	15.258	1182.943	879.801
259.278	15.253	1182.340	879.244
260.293	15.450	1181.437	879.530
261.307	15.395	1181.110	878.918
262.322	15.351	1180.502	878.159
263.336	15.454	1179.542	877.909
264.351	15.526	1178.655	877.543
265.366	15.468	1178.051	876.714
266.380	15.427	1177.784	876.223
267.395	15.532	1176.316	875.600
268.409	15.483	1175.609	874.741
269.424	15.453	1175.467	874.402
270.439	15.547	1174.504	874.097
271.453	15.539	1173.595	873.306
272.468	15.564	1172.977	872.897
273.482	15.464	1172.142	871.677
274.497	15.607	1171.714	872.023
275.512	15.631	1170.749	871.355
276.526	15.622	1169.968	870.650
277.541	15.622	1169.193	869.998
278.555	15.544	1168.633	869.100
279.570	15.668	1167.884	869.104
280.585	15.696	1166.710	868.301
281.599	15.666	1166.077	867.595
282.614	15.681	1165.170	866.923
283.628	15.806	1163.767	866.448
284.643	15.666	1163.295	865.298
285.657	15.761	1162.296	864.968
286.672	15.742	1161.624	864.292
287.687	15.619	1160.977	863.100
288.701	15.751	1159.422	862.546
289.716	15.806	1158.428	862.014
290.730	15.762	1157.920	861.331
291.745	15.887	1157.131	861.309
292.760	15.811	1156.668	860.499
293.774	15.890	1155.968	860.306
294.789	15.833	1155.572	859.647
295.803	15.954	1155.015	859.770
296.818	15.801	1154.586	858.597
297.833	15.792	1154.018	858.053
298.847	15.940	1152.549	857.637
299.862	15.989	1151.432	856.981
300.876	16.012	1150.968	856.674
301.891	15.950	1150.127	855.656
302.906	16.023	1149.575	855.542
303.920	16.041	1149.163	855.254
304.935	16.100	1148.466	854.958
305.949	16.170	1147.361	854.412
306.964	16.142	1146.858	853.819
307.979	16.160	1146.419	853.511
308.993	16.236	1145.220	852.924
310.008	16.054	1144.844	851.652
311.022	16.263	1143.540	851.662
312.037	16.202	1142.924	850.816
313.052	16.137	1141.920	849.667
314.066	16.166	1141.162	849.176
315.081	16.073	1140.454	848.105
316.095	16.079	1139.838	847.605
317.110	16.135	1139.057	847.227
318.125	16.143	1137.954	846.370
319.139	16.157	1137.494	846.027
320.154	16.136	1136.724	845.271
321.168	16.201	1135.736	844.788
322.183	16.214	1135.176	844.363
323.197	16.172	1135.076	844.004
324.212	16.201	1134.232	843.448
325.227	16.160	1133.763	842.820
326.241	16.261	1132.728	842.478
327.256	16.308	1131.853	841.985
328.270	16.229	1131.285	841.096
329.285	16.285	1130.204	840.498
330.300	16.262	1128.825	839.284
331.314	16.286	1128.286	838.926
332.329	16.284	1127.286	838.098
333.343	16.344	1126.533	837.762
334.358	16.387	1125.429	837.081
335.373	16.518	1124.190	836.732
336.387	16.366	1124.078	835.823
337.402	16.333	1123.805	835.384
338.416	16.636	1122.566	835.887
339.431	16.419	1122.169	834.444
340.446	16.500	1121.809	834.503
341.460	16.557	1120.432	833.688
342.475	16.664	1119.040	833.104
343.489	16.632	1119.037	832.872
344.504	16.601	1118.425	832.188
345.519	16.636	1117.414	831.534
346.533	16.540	1116.296	830.155
347.548	16.870	1115.377	831.018
348.562	16.758	1114.900	830.041
349.577	16.692	1114.226	829.143
350.592	16.696	1113.498	828.546
351.606	16.645	1112.752	827.671
352.621	16.655	1111.935	827.039
353.635	16.783	1111.038	826.919
354.650	16.711	1110.025	825.744
355.665	16.777	1109.981	825.960
356.679	16.735	1109.322	825.189
357.694	16.890	1108.430	825.211
358.708	16.758	1107.708	823.957
359.723	16.803	1107.365	823.847
360.738	16.776	1107.370	823.649
361.752	16.752	1106.369	822.713
362.767	16.796	1105.582	822.267
363.781	16.873	1104.556	821.808
364.796	16.890	1104.533	821.800
365.810	17.008	1103.533	821.552
366.825	16.877	1103.429	820.770
367.840	16.979	1102.501	820.498
368.854	17.041	1101.824	820.225
369.869	17.035	1101.217	819.667
370.883	17.010	1100.175	818.702
371.898	16.966	1099.369	817.817
372.913	17.105	1098.690	817.906
373.927	17.079	1098.284	817.406
374.942	17.074	1098.089	817.167
375.956	17.072	1097.389	816.562
376.971	17.117	1096.361	815.941
377.986	17.176	1096.234	816.060
379.000	17.151	1095.662	815.442
380.015	17.253	1095.062	815.414
381.029	17.209	1094.215	814.500
382.044	17.315	1093.212	814.190
383.059	17.288	1092.474	813.439
384.073	17.333	1091.805	813.083
385.088	17.314	1091.224	812.484
386.102	17.262	1090.069	811.305
387.117	17.237	1089.115	810.406
388.132	17.284	1088.091	809.794
389.146	17.276	1087.916	809.554
390.161	17.322	1086.646	808.757
391.175	17.317	1085.786	808.024
392.190	17.326	1085.448	807.740
393.205	17.288	1084.647	806.895
394.219	17.324	1083.987	806.502
395.234	17.281	1082.853	805.385
396.248	17.308	1081.750	804.617
397.263	17.464	1080.831	804.604
398.278	17.424	1080.383	804.011
399.292	17.498	1079.433	803.580
400.307	17.437	1078.628	802.623
401.321	17.290	1077.854	801.281
402.336	17.456	1077.602	801.808
403.350	17.610	1076.208	801.422
404.365	17.431	1076.041	800.384
405.380	17.433	1075.340	799.801
406.394	17.639	1074.326	799.944
407.409	17.519	1073.919	799.010
408.423	17.528	1073.224	798.462
409.438	17.695	1072.261	798.458
410.453	17.611	1071.625	797.521
411.467	17.745	1070.710	797.393
412.482	17.736	1070.072	796.809
413.496	17.724	1069.613	796.341
414.511	17.736	1068.797	795.715
415.526	17.671	1068.755	795.312
416.540	17.774	1067.817	795.025
417.555	17.800	1067.687	794.980
418.569	17.862	1067.007	794.688
419.584	17.836	1066.303	793.977
420.599	17.910	1065.691	793.791
421.613	109.836	1332.772	1494.552
422.628	101.565	1371.626	1494.625
