DTS Sentinel unit serial number:	SN413079Multiplexer serial number:	ORYXHardware model number:	OX4-SRSoftware version number:	ORYX F/W v4.00 Oryx Data Collector v3.7.2.0data status	okinstallation	princeton_trtdifferential loss correction	single-endedforward channel	channel 2reverse channel	N/Adate	2019/09/15time	01:07:34forward acquisition time	60.00reverse acquisition time	0.00gamma	496.2192k internal	0.2325k external	0.2325temperature offset calibration	1.0037default loss term (dB/km)	0.3790temperature slope calibration	1.0000multiplexer offset coefficient	1.0000multiplexer slope coefficient	1.0000fibre end	0.00T internal ref (°C)	31.98T ext. ref 1 (°C)	4.53T ext. ref 2 (°C)	26.84length (m)	temperature (°C)	Stokes	anti-Stokes-747.200	800.000	0.111	0.359
-746.185	616.788	-0.050	0.128
-745.171	44.922	0.043	0.040
-744.156	-94.546	0.113	0.031
-743.142	800.000	0.179	-0.507
-742.127	-1.384	-0.208	0.148
-741.112	393.996	-0.053	0.112
-740.098	800.000	0.103	0.304
-739.083	800.000	0.032	0.142
-738.069	588.973	-0.108	0.268
-737.054	124.288	-0.164	-0.208
-736.039	-116.871	-0.172	0.032
-735.025	-108.975	0.085	0.018
-734.010	-72.393	-0.296	0.111
-732.996	12.126	-0.293	-0.227
-731.981	12.247	-0.318	0.247
-730.966	9.475	-0.234	-0.179
-729.952	-135.516	-0.465	-0.056
-728.937	-50.460	0.093	0.044
-727.923	-200.000	0.006	-0.210
-726.908	257.831	0.150	0.260
-725.894	-61.597	-0.215	-0.091
-724.879	-12.357	0.199	0.131
-723.864	800.000	0.056	-0.218
-722.850	800.000	-0.079	-0.259
-721.835	-118.015	-0.446	-0.080
-720.821	-147.860	-0.387	-0.033
-719.806	-153.800	-0.414	0.029
-718.791	-86.089	0.186	-0.058
-717.777	222.671	-0.153	-0.248
-716.762	475.314	0.115	-0.261
-715.748	4.584	-0.156	-0.116
-714.733	800.000	-0.017	-0.065
-713.718	-200.000	-0.013	-0.258
-712.704	800.000	-0.031	-0.103
-711.689	-27.918	-0.146	0.085
-710.675	87.074	-0.181	0.202
-709.660	-200.000	0.061	-0.283
-708.645	90.027	-0.061	0.069
-707.631	79.046	-0.133	0.144
-706.616	-77.636	0.340	0.119
-705.602	-200.000	-0.008	0.037
-704.587	-97.536	0.015	-0.004
-703.572	189.051	-0.131	-0.197
-702.558	152.615	0.205	-0.282
-701.543	-200.000	0.033	0.227
-700.529	-7.868	-0.295	-0.201
-699.514	-200.000	-0.028	-0.202
-698.499	800.000	-0.014	-0.043
-697.485	-94.040	0.230	-0.063
-696.470	-200.000	-0.002	-0.189
-695.456	-157.222	0.099	-0.006
-694.441	46.898	-0.226	0.212
-693.426	-78.109	0.279	-0.097
-692.412	426.459	0.082	0.177
-691.397	489.976	0.116	-0.266
-690.383	-200.000	0.104	0.490
-689.368	-200.000	-0.044	0.213
-688.354	-86.933	-0.072	-0.022
-687.339	218.201	0.168	-0.270
-686.324	-117.547	0.184	0.033
-685.310	717.525	-0.045	-0.121
-684.295	159.456	-0.034	0.047
-683.281	201.884	0.275	-0.427
-682.266	-200.000	-0.008	-0.320
-681.251	-200.000	-0.002	-0.017
-680.237	-96.430	-0.236	0.063
-679.222	674.420	-0.051	-0.133
-678.208	-82.932	0.351	0.114
-677.193	-102.764	-0.157	0.038
-676.178	51.447	0.182	-0.174
-675.164	-200.000	0.003	0.106
-674.149	-200.000	-0.031	-0.261
-673.135	800.000	0.052	-0.173
-672.120	475.172	0.127	-0.288
-671.105	57.278	0.065	0.064
-670.091	-69.849	-0.318	-0.122
-669.076	-65.449	0.236	0.096
-668.062	-115.447	-0.246	0.047
-667.047	-200.000	0.004	0.091
-666.032	490.710	-0.063	-0.145
-665.018	800.000	-0.049	-0.139
-664.003	148.273	-0.233	-0.316
-662.989	-15.641	0.148	0.095
-661.974	-200.000	-0.008	0.069
-660.959	240.254	0.115	-0.193
-659.945	-200.000	0.019	0.091
-658.930	-200.000	-0.039	-0.205
-657.916	-21.134	-0.058	-0.036
-656.901	800.000	-0.028	-0.090
-655.886	366.189	0.078	-0.158
-654.872	291.223	-0.060	-0.110
-653.857	-48.111	-0.296	-0.144
-652.843	62.371	-0.141	-0.142
-651.828	-49.419	-0.195	-0.093
-650.814	-69.282	-0.073	0.028
-649.799	0.995	-0.320	-0.231
-648.784	-117.380	-0.295	-0.054
-647.770	92.064	0.063	-0.071
-646.755	132.386	-0.088	0.114
-645.741	-200.000	0.020	-0.095
-644.726	-200.000	-0.010	0.061
-643.711	126.745	-0.080	0.102
-642.697	163.462	0.088	0.124
-641.682	132.006	-0.081	-0.105
-640.668	800.000	0.100	0.423
-639.653	-200.000	-0.004	-0.047
-638.638	-55.126	-0.211	-0.096
-637.624	160.480	0.026	-0.036
-636.609	81.535	0.217	-0.236
-635.595	-12.929	0.093	-0.061
-634.580	133.662	0.198	-0.258
-633.565	-43.030	0.178	-0.091
-632.551	-27.830	-0.344	0.200
-631.536	334.419	0.166	-0.324
-630.522	-200.000	-0.049	-0.386
-629.507	-15.787	-0.227	-0.145
-628.492	224.187	0.049	0.080
-627.478	-17.889	-0.307	-0.193
-626.463	127.799	-0.084	-0.107
-625.449	-23.625	0.549	-0.331
-624.434	-7.757	0.249	0.169
-623.419	-111.593	-0.398	0.081
-622.405	18.528	0.221	-0.177
-621.390	800.000	0.046	-0.151
-620.376	374.424	0.047	0.096
-619.361	-98.169	-0.276	-0.071
-618.346	800.000	-0.090	-0.263
-617.332	-200.000	0.013	-0.137
-616.317	249.767	-0.202	0.344
-615.303	800.000	0.083	0.297
-614.288	-74.787	-0.076	-0.027
-613.273	-149.769	-0.310	-0.024
-612.259	-200.000	0.028	-0.256
-611.244	223.547	-0.149	0.242
-610.230	101.283	0.178	-0.208
-609.215	-146.707	-0.223	-0.019
-608.201	-95.243	-0.195	0.053
-607.186	384.820	-0.098	0.202
-606.171	-200.000	0.077	0.356
-605.157	40.488	0.170	0.154
-604.142	-200.000	0.018	0.132
-603.128	-10.061	0.047	-0.031
-602.113	-67.939	-0.218	0.086
-601.098	-86.002	0.265	0.082
-600.084	-144.163	-0.299	-0.028
-599.069	-176.138	-0.361	0.010
-598.055	133.942	0.215	-0.280
-597.040	800.000	0.054	0.233
-596.025	64.109	0.065	0.066
-595.011	23.017	-0.060	0.049
-593.996	82.857	-0.059	0.064
-592.982	46.094	-0.311	0.289
-591.967	154.818	-0.114	-0.157
-590.952	800.000	-0.041	0.122
-589.938	-120.223	0.360	0.062
-588.923	89.193	-0.288	0.322
-587.909	-46.492	-0.231	-0.114
-586.894	331.767	-0.201	-0.388
-585.879	541.473	-0.094	0.225
-584.865	352.176	-0.147	0.293
-583.850	46.184	-0.230	0.213
-582.836	800.000	0.062	-0.204
-581.821	73.947	0.094	-0.099
-580.806	-85.301	0.324	-0.102
-579.792	55.812	0.116	0.113
-578.777	-71.787	0.293	0.109
-577.763	416.631	0.154	0.330
-576.748	800.000	0.135	-0.550
-575.733	800.000	-0.026	0.084
-574.719	800.000	0.060	-0.201
-573.704	88.219	-0.236	-0.262
-572.690	-8.036	-0.149	-0.101
-571.675	-119.091	0.273	0.048
-570.661	11.685	0.270	0.208
-569.646	800.000	-0.041	-0.113
-568.631	800.000	0.059	-0.213
-567.617	48.825	0.328	-0.308
-566.602	554.994	-0.107	0.259
-565.588	137.293	-0.136	0.178
-564.573	-200.000	0.010	-0.215
-563.558	-130.412	0.129	0.018
-562.544	9.939	-0.188	0.143
-561.529	800.000	0.089	0.248
-560.515	-89.928	0.198	-0.058
-559.500	-200.000	-0.056	-0.331
-558.485	182.629	0.131	-0.193
-557.471	-200.000	0.014	0.190
-556.456	351.965	0.105	0.209
-555.442	-43.837	0.157	-0.079
-554.427	-169.581	-0.082	0.003
-553.412	111.035	0.287	0.346
-552.398	-49.161	0.084	-0.040
-551.383	-157.539	-0.244	-0.015
-550.369	-29.155	0.269	-0.154
-549.354	-52.751	0.086	-0.040
-548.339	31.111	0.127	0.109
-547.325	335.981	-0.177	-0.345
-546.310	-78.107	-0.259	-0.089
-545.296	544.659	-0.173	0.413
-544.281	-182.593	-0.055	-0.001
-543.266	-178.031	0.224	-0.005
-542.252	-69.328	-0.316	0.122
-541.237	-200.000	-0.006	-0.055
-540.223	145.064	-0.169	0.226
-539.208	-65.726	-0.217	-0.087
-538.193	660.634	-0.113	-0.292
-537.179	229.312	-0.120	-0.195
-536.164	17.815	-0.054	-0.043
-535.150	-145.752	0.063	0.006
-534.135	-54.438	-0.042	0.019
-533.121	53.658	-0.132	0.127
-532.106	-29.631	0.261	0.149
-531.091	-200.000	0.016	0.606
-530.077	269.468	-0.202	0.356
-529.062	3.800	0.151	-0.110
-528.048	-83.539	-0.214	-0.068
-527.033	800.000	-0.045	0.148
-526.018	-200.000	-0.003	-0.033
-525.004	-200.000	-0.001	-0.335
-523.989	69.214	-0.043	-0.044
-522.975	-200.000	-0.004	0.231
-521.960	116.578	-0.168	0.207
-520.945	-94.218	-0.138	0.038
-519.931	800.000	0.032	0.104
-518.916	140.498	0.086	-0.113
-517.902	-78.779	0.250	-0.085
-516.887	24.647	0.066	0.055
-515.872	800.000	-0.088	-0.324
-514.858	-25.882	-0.051	0.030
-513.843	138.780	-0.162	0.213
-512.829	122.709	0.026	0.033
-511.814	29.151	0.237	0.201
-510.799	-82.196	-0.082	-0.027
-509.785	165.546	-0.265	-0.375
-508.770	-159.228	-0.143	0.008
-507.756	263.398	-0.128	0.222
-506.741	-22.165	0.428	-0.260
-505.726	-200.000	0.003	-0.062
-504.712	-189.009	0.050	0.001
-503.697	-173.938	-0.117	0.003
-502.683	648.077	0.055	0.141
-501.668	-168.044	-0.182	-0.007
-500.653	1.539	-0.233	0.168
-499.639	-122.230	0.139	-0.023
-498.624	-52.838	-0.103	0.047
-497.610	-86.991	0.200	0.061
-496.595	-200.000	0.034	-0.474
-495.581	247.159	-0.147	-0.248
-494.566	-200.000	-0.017	-0.077
-493.551	303.599	0.158	-0.292
-492.537	60.683	-0.186	-0.184
-491.522	71.301	0.211	-0.219
-490.508	-55.683	-0.102	-0.046
-489.493	-101.157	0.268	0.066
-488.478	367.378	-0.125	-0.253
-487.464	86.886	0.186	0.205
-486.449	-6.785	0.216	-0.147
-485.435	-11.114	0.049	-0.032
-484.420	-35.799	0.234	0.126
-483.405	233.988	0.098	-0.161
-482.391	-200.000	0.014	-0.096
-481.376	-200.000	-0.008	-0.089
-480.362	-200.000	0.024	-0.484
-479.347	-200.000	-0.007	0.051
-478.332	82.407	-0.120	0.130
-477.318	152.515	-0.099	0.134
-476.303	11.473	-0.133	-0.102
-475.289	-200.000	-0.039	-0.369
-474.274	634.565	-0.178	-0.450
-473.259	-200.000	0.025	-0.296
-472.245	-89.440	0.233	0.068
-471.230	396.858	0.055	0.115
-470.216	40.062	-0.481	-0.431
-469.201	-146.947	0.197	0.017
-468.186	14.410	0.034	0.027
-467.172	-57.509	-0.193	0.084
-466.157	-72.191	-0.099	0.037
-465.143	102.210	-0.196	0.229
-464.128	0.486	-0.130	-0.093
-463.113	-166.278	-0.207	-0.009
-462.099	-58.588	-0.152	-0.066
-461.084	135.575	0.173	-0.224
-460.070	-200.000	0.005	-0.177
-459.055	295.834	-0.068	0.124
-458.040	-200.000	-0.040	0.192
-457.026	-96.774	-0.153	-0.040
-456.011	-50.459	-0.169	-0.080
-454.997	54.021	0.058	-0.055
-453.982	-25.396	0.036	0.022
-452.968	55.662	-0.216	-0.209
-451.953	301.606	0.092	0.169
-450.938	-154.239	-0.081	-0.005
-449.924	-184.464	0.246	-0.004
-448.909	2.232	0.250	-0.180
-447.895	153.774	-0.143	-0.195
-446.880	-32.153	-0.111	0.062
-445.865	800.000	0.074	-0.208
-444.851	-2.128	-0.184	0.129
-443.836	-180.122	0.084	-0.002
-442.822	-200.000	0.006	-0.174
-441.807	800.000	-0.133	0.491
-440.792	-200.000	-0.052	0.412
-439.778	-128.033	0.094	0.014
-438.763	-66.505	-0.356	0.141
-437.749	-38.529	-0.079	-0.042
-436.734	-140.654	-0.085	0.009
-435.719	-166.325	0.039	-0.002
-434.705	69.707	-0.091	0.093
-433.690	136.495	0.315	-0.410
-432.676	372.838	0.096	0.195
-431.661	359.908	-0.117	-0.234
-430.646	121.105	0.070	-0.087
-429.632	630.777	-0.147	0.371
-428.617	-71.526	-0.129	-0.048
-427.603	800.000	0.118	0.497
-426.588	16.034	0.067	-0.052
-425.573	-21.438	-0.259	-0.157
-424.559	321.517	-0.065	-0.124
-423.544	45.340	0.276	0.253
-422.530	-151.181	0.102	0.008
-421.515	-125.458	0.291	-0.044
-420.500	-48.859	0.365	0.174
-419.486	-0.686	0.260	-0.184
-418.471	710.211	0.155	0.409
-417.457	-63.273	-0.194	0.080
-416.442	131.576	-0.154	-0.198
-415.428	255.632	0.072	-0.123
-414.413	-97.144	0.292	-0.076
-413.398	51.543	-0.123	-0.117
-412.384	800.000	-0.040	-0.166
-411.369	-88.361	-0.496	0.148
-410.355	-123.348	0.146	0.023
-409.340	-3.608	0.244	0.169
-408.325	9.931	0.202	-0.153
-407.311	-200.000	-0.022	0.280
-406.296	457.998	-0.116	0.257
-405.282	-53.309	0.106	-0.048
-404.267	-25.290	0.141	0.083
-403.252	-133.827	0.176	-0.022
-402.238	-1.134	0.293	-0.207
-401.223	800.000	-0.069	-0.254
-400.209	-26.269	-0.295	-0.172
-399.194	-200.000	-0.007	-0.103
-398.179	-142.917	0.412	0.040
-397.165	-200.000	0.012	-0.312
-396.150	-68.697	0.382	0.147
-395.136	-123.463	0.080	0.013
-394.121	-39.261	-0.406	-0.212
-393.106	800.000	-0.042	0.181
-392.092	152.899	-0.088	-0.119
-391.077	59.963	0.274	-0.270
-390.063	-197.484	-0.043	-0.000
-389.048	77.174	0.129	0.136
-388.033	-40.720	0.137	-0.071
-387.019	60.508	-0.155	-0.152
-386.004	190.121	-0.071	0.107
-384.990	149.487	0.074	0.100
-383.975	-20.432	0.134	-0.082
-382.960	-137.800	0.141	-0.016
-381.946	65.321	0.085	0.085
-380.931	64.148	0.251	-0.252
-379.917	-200.000	-0.006	-0.088
-378.902	3.577	0.168	0.122
-377.888	-200.000	0.035	0.192
-376.873	-170.992	-0.346	0.012
-375.858	-140.781	0.273	-0.028
-374.844	-200.000	-0.012	-0.322
-373.829	-52.301	-0.165	0.076
-372.815	-161.782	0.199	-0.010
-371.800	6.022	-0.180	0.133
-370.785	-200.000	-0.014	-0.104
-369.771	-85.290	0.143	0.044
-368.756	-66.232	-0.325	-0.129
-367.742	800.000	-0.069	-0.258
-366.727	-28.995	-0.245	0.140
-365.712	-200.000	0.034	0.208
-364.698	243.781	-0.029	0.048
-363.683	-102.656	0.192	-0.046
-362.669	-200.000	-0.096	0.433
-361.654	-24.066	-0.062	0.037
-360.639	-6.137	-0.202	0.137
-359.625	800.000	-0.044	0.124
-358.610	234.361	0.036	0.058
-357.596	-69.484	-0.280	0.107
-356.581	709.654	0.042	0.110
-355.566	-115.829	-0.078	0.015
-354.552	89.972	0.210	0.233
-353.537	225.143	-0.128	-0.207
-352.523	76.970	0.116	0.122
-351.508	-200.000	0.052	-0.329
-350.493	360.838	-0.032	0.065
-349.479	-73.709	0.174	0.063
-348.464	-50.356	0.359	0.168
-347.450	236.170	0.287	0.471
-346.435	-200.000	-0.059	0.273
-345.420	-83.309	-0.379	0.121
-344.406	-120.056	0.313	0.053
-343.391	800.000	0.106	0.370
-342.377	-129.948	-0.240	0.033
-341.362	24.029	0.054	-0.044
-340.348	65.368	0.181	-0.182
-339.333	-27.511	0.312	-0.180
-338.318	-55.060	-0.258	-0.115
-337.304	800.000	-0.068	0.227
-336.289	-6.785	0.185	-0.125
-335.275	-162.377	-0.049	0.002
-334.260	125.594	-0.095	-0.119
-333.245	-145.949	-0.210	-0.019
-332.231	-121.729	0.174	0.029
-331.216	51.666	-0.427	0.403
-330.202	800.000	-0.024	0.100
-329.187	800.000	-0.117	-0.388
-328.172	101.647	0.068	-0.078
-327.158	-30.719	-0.269	0.151
-326.143	27.242	0.239	-0.199
-325.129	-200.000	-0.028	-0.281
-324.114	-39.478	-0.146	-0.076
-323.099	-127.581	-0.041	0.006
-322.085	800.000	-0.079	-0.256
-321.070	800.000	0.028	-0.080
-320.056	-200.000	0.029	0.482
-319.041	-4.100	0.199	0.137
-318.026	-80.541	0.194	-0.064
-317.012	173.408	0.142	0.203
-315.997	-18.879	-0.121	0.075
-314.983	430.429	0.152	-0.327
-313.968	-140.947	0.173	-0.018
-312.953	-181.466	0.220	-0.004
-311.939	-182.789	-0.084	0.001
-310.924	-200.000	-0.008	0.146
-309.910	573.790	-0.174	0.421
-308.895	71.166	0.204	0.210
-307.880	-11.896	0.204	0.133
-306.866	-56.307	-0.174	-0.077
-305.851	800.000	0.072	-0.202
-304.837	-200.000	0.047	-0.518
-303.822	-182.850	-0.292	0.005
-302.807	242.590	0.147	0.244
-301.793	-142.699	0.168	-0.016
-300.778	-63.729	-0.162	0.066
-299.764	-200.000	0.014	-0.143
-298.749	0.272	-0.166	-0.117
-297.735	247.837	-0.071	0.119
-296.720	200.682	0.042	-0.063
-295.705	-86.453	0.196	-0.060
-294.691	28.180	0.133	0.112
-293.676	-171.689	0.222	-0.007
-292.662	800.000	-0.055	0.188
-291.647	229.234	0.020	-0.033
-290.632	0.197	0.291	0.206
-289.618	422.294	-0.153	0.325
-288.603	540.053	0.054	0.127
-287.589	115.813	0.114	-0.138
-286.574	246.389	0.151	0.252
-285.559	-63.871	0.115	0.047
-284.545	-42.483	-0.242	-0.122
-283.530	800.000	-0.059	-0.165
-282.516	-113.045	0.382	0.075
-281.501	-54.764	-0.235	0.105
-280.486	-200.000	0.044	0.320
-279.472	-57.129	-0.217	0.095
-278.457	37.251	0.267	0.235
-277.443	-156.132	0.294	-0.018
-276.428	174.336	-0.185	0.265
-275.413	-154.678	0.137	-0.009
-274.399	11.914	0.029	0.022
-273.384	200.752	0.143	0.218
-272.370	91.021	-0.251	-0.279
-271.355	-62.267	-0.204	0.084
-270.340	-101.295	-0.076	0.018
-269.326	-91.962	-0.102	0.029
-268.311	-200.000	-0.029	-0.247
-267.297	800.000	0.024	-0.071
-266.282	-57.516	0.069	0.030
-265.267	-200.000	-0.036	-0.330
-264.253	7.057	0.350	-0.258
-263.238	-0.032	-0.035	0.024
-262.224	-200.000	-0.007	-0.285
-261.209	-95.812	-0.151	-0.040
-260.195	239.208	0.153	0.253
-259.180	88.012	-0.079	0.086
-258.165	349.335	0.159	-0.311
-257.151	-69.311	-0.159	-0.060
-256.136	571.378	-0.109	-0.263
-255.122	-52.522	-0.187	0.086
-254.107	34.496	0.103	0.089
-253.092	271.658	-0.110	0.193
-252.078	358.888	0.009	-0.018
-251.063	-54.160	-0.295	-0.133
-250.049	-40.655	0.214	-0.110
-249.034	-42.558	0.280	-0.141
-248.019	-41.040	-0.197	-0.101
-247.005	-200.000	0.007	-0.047
-245.990	-79.757	-0.022	-0.007
-244.976	-10.070	0.172	0.113
-243.961	-59.006	-0.078	-0.033
-242.946	-101.047	0.172	-0.042
-241.932	-200.000	0.019	-0.182
-240.917	-44.542	0.296	-0.147
-239.903	-200.000	-0.165	0.000
-238.888	-200.000	0.013	-0.135
-237.873	-81.796	0.173	0.056
-236.859	-45.482	-0.363	0.178
-235.844	124.948	0.127	-0.158
-234.830	206.983	-0.052	-0.081
-233.815	-75.870	-0.272	-0.095
-232.800	-149.031	-0.222	0.018
-231.786	-39.847	-0.068	-0.035
-230.771	-98.893	-0.066	0.017
-229.757	-200.000	-0.012	-0.117
-228.742	29.444	0.237	-0.200
-227.727	400.186	-0.189	-0.392
-226.713	529.858	0.066	-0.154
-225.698	288.557	-0.066	-0.118
-224.684	-144.394	-0.289	0.027
-223.669	111.026	-0.078	-0.093
-222.655	-118.571	0.081	0.014
-221.640	-169.055	0.208	-0.008
-220.625	-95.987	-0.210	-0.055
-219.611	800.000	0.048	-0.134
-218.596	800.000	-0.048	0.173
-217.582	-200.000	-0.003	0.190
-216.567	440.349	0.081	0.174
-215.552	214.640	0.178	0.279
-214.538	-200.000	0.073	0.439
-213.523	-30.058	0.113	0.063
-212.509	-55.829	-0.042	0.018
-211.494	105.375	-0.250	0.291
-210.479	800.000	-0.069	0.200
-209.465	25.961	0.206	-0.169
-208.450	278.489	0.118	0.208
-207.436	55.389	0.094	-0.090
-206.421	81.678	0.171	-0.183
-205.406	66.847	-0.108	-0.109
-204.392	76.228	0.074	-0.077
-203.377	-24.228	0.115	0.068
-202.363	-131.719	0.100	0.013
-201.348	525.047	-0.129	0.300
-200.333	354.936	-0.117	0.230
-199.319	382.871	-0.075	-0.152
-198.304	-200.000	-0.025	0.260
-197.290	-200.000	-0.027	0.320
-196.275	-108.848	-0.017	0.004
-195.260	305.814	-0.114	0.210
-194.246	228.338	0.141	-0.227
-193.231	-141.572	0.184	-0.018
-192.217	100.036	-0.280	0.320
-191.202	526.223	-0.103	0.240
-190.187	-139.761	0.086	-0.009
-189.173	-200.000	0.011	-0.335
-188.158	-72.887	-0.338	-0.123
-187.144	13.151	0.117	0.090
-186.129	670.966	0.014	-0.037
-185.114	80.681	-0.181	-0.193
-184.100	-119.065	0.241	-0.042
-183.085	800.000	-0.059	0.180
-182.071	-200.000	-0.006	-0.189
-181.056	-200.000	-0.008	0.570
-180.042	183.196	-0.077	-0.112
-179.027	0.193	0.199	0.140
-178.012	0.263	0.132	0.093
-176.998	-200.000	0.020	0.273
-175.983	468.772	-0.074	-0.164
-174.969	204.487	0.243	0.371
-173.954	-200.000	-0.006	0.142
-172.939	-65.107	0.129	0.051
-171.925	-100.648	0.199	0.048
-170.910	800.000	0.064	-0.200
-169.896	-13.874	-0.227	0.145
-168.881	45.471	0.091	-0.083
-167.866	46.266	0.027	0.025
-166.852	-47.454	0.248	-0.119
-165.837	-200.000	-0.012	-0.341
-164.823	-37.617	-0.253	0.133
-163.808	800.000	0.074	0.265
-162.793	-200.000	0.017	-0.392
-161.779	333.895	0.079	0.151
-160.764	-200.000	-0.017	0.129
-159.750	-129.064	-0.152	-0.021
-158.735	-63.084	0.041	0.017
-157.720	-200.000	-0.011	-0.159
-156.706	-48.579	-0.238	-0.113
-155.691	-121.243	0.268	0.044
-154.677	-9.948	-0.092	0.061
-153.662	22.035	-0.042	-0.034
-152.647	-138.610	-0.172	0.019
-151.633	-200.000	-0.013	-0.282
-150.618	-53.762	0.203	0.092
-149.604	52.624	0.048	-0.046
-148.589	-190.907	0.175	0.002
-147.574	-2.741	-0.308	0.213
-146.560	238.988	0.069	0.113
-145.545	749.032	0.077	0.205
-144.531	-200.000	0.001	-0.144
-143.516	31.702	0.198	-0.168
-142.502	-200.000	-0.006	0.166
-141.487	-200.000	-0.019	0.194
-140.472	800.000	-0.123	0.381
-139.458	-129.727	-0.189	0.026
-138.443	-13.495	-0.089	-0.057
-137.429	473.337	0.055	-0.122
-136.414	-25.035	-0.124	0.072
-135.399	-138.145	0.122	-0.013
-134.385	800.000	-0.038	0.138
-133.370	800.000	0.109	0.422
-132.356	1.057	0.201	0.142
-131.341	800.000	-0.044	0.140
-130.326	12.894	0.210	0.160
-129.312	438.117	-0.061	0.131
-128.297	-103.879	0.516	-0.119
-127.283	559.949	-0.023	0.056
-126.268	-155.144	0.399	0.026
-125.253	4.535	-0.112	-0.081
-124.239	236.729	0.089	-0.145
-123.224	-200.000	-0.027	-0.248
-122.210	57.830	-0.144	0.138
-121.195	-200.000	0.051	0.227
-120.180	186.443	0.141	-0.207
-119.166	278.235	-0.068	-0.120
-118.151	2.789	-0.044	0.032
-117.137	-110.220	-0.240	0.049
-116.122	-176.202	0.280	-0.007
-115.107	-159.442	-0.162	-0.009
-114.093	-200.000	0.036	0.210
-113.078	257.596	-0.136	-0.231
-112.064	-7.193	0.072	0.048
-111.049	800.000	-0.010	-0.034
-110.034	-53.539	0.139	0.063
-109.020	-47.665	-0.046	0.022
-108.005	-200.000	-0.011	-0.155
-106.991	-73.004	-0.118	0.043
-105.976	-56.534	-0.098	0.043
-104.962	-200.000	0.044	-0.247
-103.947	52.014	-0.156	-0.146
-102.932	800.000	0.067	-0.239
-101.918	445.396	-0.064	0.138
-100.903	42.872	0.182	0.164
-99.889	90.756	-0.074	-0.082
-98.874	-151.896	0.118	0.008
-97.859	-90.526	0.276	0.079
-96.845	71.996	0.226	0.231
-95.830	-200.000	0.005	0.291
-94.816	-55.989	0.016	-0.007
-93.801	297.737	0.075	0.136
-92.786	268.529	-0.141	-0.243
-91.772	45.602	-0.116	-0.106
-90.757	201.066	-0.140	0.212
-89.743	-75.113	-0.142	-0.050
-88.728	-128.717	-0.409	0.057
-87.713	275.539	-0.190	0.332
-86.699	-14.129	-0.090	-0.057
-85.684	289.562	0.159	0.284
-84.670	-153.174	0.349	0.024
-83.655	-2.148	0.229	0.158
-82.640	59.696	-0.101	-0.098
-81.626	19.683	0.077	0.061
-80.611	151.689	0.148	0.199
-79.597	30.527	-0.185	0.155
-78.582	459.525	-0.055	-0.120
-77.567	316.322	0.058	-0.108
-76.553	-100.535	0.286	-0.070
-75.538	209.879	-0.032	-0.050
-74.524	-15.448	-0.160	-0.101
-73.509	-102.931	0.313	0.073
-72.494	508.132	0.073	0.166
-71.480	31.401	-0.123	0.104
-70.465	-147.982	-0.210	-0.017
-69.451	28.152	-0.092	0.077
-68.436	561.275	-0.044	0.104
-67.422	-200.000	0.025	-0.169
-66.407	-76.090	-0.241	0.084
-65.392	226.389	0.141	-0.225
-64.378	-9.386	-0.314	0.206
-63.363	327.322	0.032	0.060
-62.349	800.000	-0.102	-0.406
-61.334	8.856	-0.744	-0.551
-60.319	-23.931	0.617	0.363
-59.305	-200.000	-0.177	-0.850
-58.290	128.954	0.862	1.080
-57.276	521.115	0.612	1.409
-56.261	-200.000	95.395	592.361
-55.246	656.472	1368.497	3453.911
-54.232	199.135	2553.091	3842.672
-53.217	113.862	2268.722	2708.880
-52.203	41.563	1896.912	1687.005
-51.188	35.221	1687.331	1452.675
-50.173	32.524	1643.346	1394.809
-49.159	50.140	1688.564	1565.676
-48.144	51.743	1705.488	1593.325
-47.130	34.941	1666.771	1432.645
-46.115	32.155	1652.462	1399.569
-45.100	31.974	1647.761	1394.190
-44.086	31.922	1645.118	1391.509
-43.071	31.923	1642.533	1389.275
-42.057	31.875	1640.103	1386.815
-41.042	31.987	1637.710	1385.557
-40.027	31.886	1635.909	1383.241
-39.013	31.834	1634.358	1381.484
-37.998	31.768	1632.481	1379.360
-36.984	31.853	1631.579	1379.167
-35.969	31.957	1629.949	1378.501
-34.954	32.096	1627.528	1377.418
-33.940	31.946	1626.234	1375.172
-32.925	31.928	1625.141	1374.056
-31.911	32.016	1622.686	1372.571
-30.896	31.950	1621.422	1370.962
-29.881	32.083	1619.237	1370.033
-28.867	31.932	1617.767	1367.639
-27.852	31.965	1616.380	1366.650
-26.838	31.930	1615.103	1365.258
-25.823	31.910	1613.652	1363.832
-24.809	32.065	1611.950	1363.466
-23.794	32.018	1610.636	1361.962
-22.779	32.023	1609.401	1360.896
-21.765	32.082	1607.307	1359.501
-20.750	32.018	1605.848	1357.753
-19.736	32.027	1604.669	1356.764
-18.721	32.061	1603.157	1355.681
-17.706	32.099	1601.637	1354.615
-16.692	32.070	1600.234	1353.165
-15.677	31.964	1598.847	1351.175
-14.663	32.037	1597.335	1350.370
-13.648	32.035	1595.902	1349.089
-12.633	32.007	1594.764	1347.870
-11.619	32.002	1593.131	1346.399
-10.604	32.007	1591.430	1344.944
-9.590	32.039	1590.264	1344.135
-8.575	32.000	1589.071	1342.795
-7.560	32.013	1587.947	1341.887
-6.546	32.043	1586.892	1341.158
-5.531	31.941	1586.076	1339.684
-4.517	32.047	1584.509	1339.065
-3.502	32.096	1583.061	1338.134
-2.487	32.036	1581.362	1336.221
-1.473	31.811	1569.704	1324.725
-0.458	28.994	1550.493	1288.759
0.556	24.903	1550.859	1257.545
1.571	22.562	1574.676	1260.027
2.586	22.040	1586.949	1265.974
3.600	19.446	1534.013	1205.540
4.615	11.771	1426.486	1070.882
5.629	5.647	1364.379	985.724
6.644	4.740	1356.641	974.373
7.659	4.480	1355.507	971.846
8.673	4.454	1354.502	970.873
9.688	4.436	1352.265	969.072
10.702	4.434	1349.384	966.909
11.717	7.351	1355.290	989.274
12.731	14.617	1368.133	1044.179
13.746	19.238	1375.093	1078.389
14.761	18.905	1373.470	1074.936
15.775	17.806	1371.097	1066.123
16.790	16.861	1368.169	1057.855
17.804	16.067	1366.033	1051.163
18.819	15.567	1364.796	1047.003
19.834	15.415	1363.171	1044.713
20.848	15.048	1362.954	1042.175
21.863	14.855	1360.913	1039.317
22.877	14.779	1359.619	1037.768
23.892	14.784	1358.960	1037.204
24.907	14.796	1358.385	1036.749
25.921	14.798	1356.807	1035.467
26.936	14.750	1356.632	1034.941
27.950	14.870	1355.343	1034.608
28.965	15.000	1354.393	1034.597
29.980	15.091	1353.523	1034.405
30.994	15.131	1352.409	1033.705
32.009	15.108	1350.906	1032.323
33.023	15.179	1349.806	1031.831
34.038	15.077	1348.194	1029.880
35.053	14.950	1346.901	1028.018
36.067	15.046	1346.238	1028.011
37.082	14.952	1345.596	1026.856
38.096	15.051	1344.099	1026.228
39.111	14.986	1343.519	1025.297
40.126	14.893	1342.654	1023.975
41.140	14.808	1341.779	1022.699
42.155	14.679	1341.629	1021.705
43.169	14.607	1341.476	1021.053
44.184	14.631	1341.541	1021.161
45.199	14.696	1340.337	1020.553
46.213	14.776	1340.070	1020.748
47.228	14.886	1339.540	1020.923
48.242	14.907	1338.017	1019.801
49.257	14.881	1336.409	1018.325
50.271	14.846	1334.958	1016.919
51.286	14.897	1333.371	1015.929
52.301	14.937	1332.140	1015.145
53.315	14.801	1331.371	1013.646
54.330	14.775	1329.981	1012.337
55.344	14.661	1329.323	1011.057
56.359	14.794	1328.025	1010.786
57.374	14.735	1326.795	1009.405
58.388	14.693	1326.462	1008.807
59.403	14.669	1325.968	1008.199
60.417	14.688	1325.280	1007.699
61.432	14.558	1324.507	1006.240
62.447	14.583	1323.247	1005.344
63.461	14.621	1321.934	1004.484
64.476	14.599	1320.765	1003.376
65.490	14.545	1319.880	1002.292
66.505	14.558	1318.151	1000.964
67.520	14.589	1317.400	1000.495
68.534	14.621	1316.233	999.708
69.549	14.567	1314.777	998.190
70.563	14.657	1313.997	998.051
71.578	14.489	1313.009	996.205
72.593	14.442	1312.248	995.265
73.607	14.432	1311.358	994.440
74.622	14.383	1310.522	993.427
75.636	14.523	1309.538	993.426
76.651	14.499	1309.055	992.827
77.666	14.451	1308.751	992.226
78.680	14.481	1308.376	992.029
79.695	14.478	1307.650	991.377
80.709	14.589	1306.974	991.435
81.724	14.607	1305.692	990.482
82.739	14.792	1304.709	990.744
83.753	14.690	1304.186	989.654
84.768	14.810	1303.259	989.574
85.782	14.978	1301.971	989.500
86.797	14.960	1300.692	988.336
87.812	14.920	1299.106	986.808
88.826	14.828	1298.687	985.861
89.841	14.901	1297.401	985.227
90.855	14.900	1296.820	984.693
91.870	14.926	1295.930	984.085
92.884	14.941	1294.750	983.189
93.899	14.971	1294.494	983.084
94.914	15.102	1292.924	982.571
95.928	15.085	1292.553	982.105
96.943	15.022	1291.655	980.964
97.957	15.075	1290.112	980.018
98.972	14.856	1289.920	978.500
99.987	14.968	1288.545	978.024
101.001	15.014	1287.323	977.283
102.016	15.012	1286.537	976.584
103.030	15.032	1285.576	975.890
104.045	15.050	1284.554	975.133
105.060	14.857	1283.484	973.106
106.074	14.793	1281.920	971.465
107.089	14.727	1280.766	970.120
108.103	14.578	1279.446	968.171
109.118	14.550	1278.272	967.034
110.133	14.597	1277.053	966.298
111.147	14.586	1275.910	965.284
112.162	14.678	1274.581	964.726
113.176	14.666	1273.526	963.771
114.191	14.742	1272.305	963.202
115.206	14.777	1271.459	962.677
116.220	14.764	1269.970	961.389
117.235	14.791	1268.741	960.527
118.249	14.671	1267.846	959.080
119.264	14.655	1266.820	958.122
120.279	14.678	1265.490	957.169
121.293	14.650	1264.756	956.367
122.308	14.597	1263.622	955.118
123.322	14.690	1261.973	954.324
124.337	14.607	1261.469	953.384
125.352	14.484	1260.505	951.869
126.366	14.675	1258.853	951.624
127.381	14.665	1258.236	951.019
128.395	14.655	1256.949	949.905
129.410	14.645	1256.320	949.285
130.424	14.718	1255.652	949.113
131.439	14.706	1254.445	948.045
132.454	14.715	1253.700	947.451
133.468	14.726	1253.099	946.977
134.483	14.670	1252.060	945.788
135.497	14.834	1251.226	946.004
136.512	14.704	1249.939	944.212
137.527	14.763	1248.486	943.366
138.541	14.776	1246.931	942.180
139.556	14.842	1245.888	941.683
140.570	14.979	1244.662	941.443
141.585	14.966	1243.246	940.213
142.600	15.065	1242.090	939.811
143.614	14.985	1241.604	938.911
144.629	15.011	1240.760	938.337
145.643	15.065	1239.410	937.538
146.658	15.071	1237.601	936.121
147.673	14.928	1236.646	934.514
148.687	14.799	1235.621	932.939
149.702	14.963	1233.810	932.400
150.716	14.811	1232.753	930.672
151.731	14.807	1231.881	929.913
152.746	14.870	1230.550	929.173
153.760	14.966	1228.903	928.381
154.775	14.979	1228.498	928.062
155.789	14.969	1227.559	927.216
156.804	15.043	1226.713	926.907
157.819	15.073	1225.992	926.446
158.833	15.079	1225.246	925.832
159.848	15.264	1223.658	925.570
160.862	15.222	1222.670	924.510
161.877	15.022	1221.987	922.813
162.892	14.991	1220.606	921.517
163.906	14.888	1220.092	920.480
164.921	14.871	1219.357	919.752
165.935	14.966	1218.255	919.360
166.950	15.043	1217.744	919.313
167.964	15.033	1216.636	918.344
168.979	14.945	1216.203	917.449
169.994	15.055	1215.294	917.286
171.008	14.977	1214.754	916.372
172.023	15.130	1213.600	916.255
173.037	15.170	1213.097	916.012
174.052	15.222	1211.804	915.240
175.067	15.187	1210.819	914.227
176.081	14.979	1210.023	912.410
177.096	14.986	1209.338	911.848
178.110	14.948	1207.791	910.398
179.125	15.171	1206.396	910.479
180.140	15.110	1205.347	909.272
181.154	15.091	1204.223	908.242
182.169	15.233	1202.869	907.912
183.183	15.290	1201.712	907.263
184.198	15.295	1200.825	906.538
185.213	15.382	1198.938	905.504
186.227	15.261	1198.624	904.533
187.242	15.413	1197.431	904.373
188.256	15.413	1196.511	903.600
189.271	15.357	1195.757	902.649
190.286	15.311	1194.396	901.294
191.300	15.002	1193.693	899.023
192.315	14.935	1193.090	898.129
193.329	14.999	1192.173	897.703
194.344	15.093	1191.691	897.768
195.359	15.085	1191.511	897.506
196.373	15.304	1190.732	898.015
197.388	15.410	1189.950	897.914
198.402	15.364	1190.040	897.654
199.417	15.620	1188.865	898.058
200.432	15.607	1188.559	897.679
201.446	15.566	1187.833	896.829
202.461	15.693	1186.661	896.545
203.475	15.642	1185.619	895.409
204.490	15.627	1184.170	894.153
205.504	15.482	1182.958	892.390
206.519	15.436	1182.265	891.543
207.534	15.436	1180.738	890.310
208.548	15.487	1179.242	889.376
209.563	15.474	1179.132	889.145
210.577	15.578	1177.867	888.661
211.592	15.608	1177.224	888.255
212.607	15.688	1176.786	888.270
213.621	15.585	1175.746	886.862
214.636	15.650	1174.886	886.479
215.650	15.646	1173.921	885.653
216.665	15.722	1173.167	885.404
217.680	15.741	1172.277	884.756
218.694	15.871	1171.242	884.578
219.709	15.877	1170.285	883.810
220.723	15.893	1169.212	883.003
221.738	15.707	1169.354	882.055
222.753	15.784	1168.307	881.595
223.767	15.844	1167.345	881.101
224.782	15.986	1166.659	881.252
225.796	15.953	1166.245	880.689
226.811	15.897	1165.722	879.921
227.826	15.885	1164.928	879.182
228.840	15.753	1164.641	878.197
229.855	15.905	1163.361	877.946
230.869	15.859	1162.619	877.073
231.884	15.918	1161.949	876.792
232.899	15.863	1161.039	875.746
233.913	15.668	1160.628	874.342
234.928	15.760	1159.489	873.884
235.942	15.732	1158.962	873.267
236.957	15.667	1157.923	872.067
237.972	15.739	1157.324	871.911
238.986	15.799	1156.734	871.705
240.001	15.821	1155.797	871.033
241.015	15.810	1155.052	870.338
242.030	15.856	1154.528	870.102
243.045	15.916	1153.839	869.815
244.059	16.044	1152.557	869.432
245.074	15.917	1152.032	868.304
246.088	16.032	1151.517	868.434
247.103	16.091	1150.364	867.790
248.117	16.102	1149.746	867.305
249.132	16.151	1149.559	867.340
250.147	16.330	1148.595	867.457
251.161	16.359	1147.733	866.874
252.176	16.311	1147.398	866.301
253.190	16.384	1146.492	865.910
254.205	16.462	1146.146	865.975
255.220	16.438	1145.457	865.253
256.234	16.531	1144.995	865.303
257.249	16.509	1144.019	864.376
258.263	16.527	1143.295	863.844
259.278	16.381	1143.052	862.838
260.293	16.490	1142.406	862.833
261.307	16.589	1141.998	862.953
262.322	16.594	1141.007	862.152
263.336	16.659	1140.633	862.125
264.351	16.592	1140.193	861.377
265.366	16.665	1139.355	861.040
266.380	16.742	1138.439	860.660
267.395	16.543	1137.955	859.207
268.409	16.556	1136.939	858.432
269.424	16.511	1136.530	857.818
270.439	16.582	1135.728	857.495
271.453	16.565	1134.568	856.460
272.468	16.494	1133.722	855.384
273.482	16.463	1133.547	855.020
274.497	16.542	1132.516	854.565
275.512	16.479	1132.371	854.065
276.526	16.532	1131.298	853.448
277.541	16.637	1130.516	853.312
278.555	16.740	1129.565	853.035
279.570	16.673	1129.127	852.290
280.585	16.705	1128.756	852.099
281.599	16.795	1127.606	851.605
282.614	16.757	1126.166	850.254
283.628	16.610	1125.129	848.658
284.643	16.721	1124.118	848.376
285.657	16.712	1123.914	848.101
286.672	16.704	1122.864	847.195
287.687	16.805	1121.862	846.867
288.701	16.684	1121.319	845.777
289.716	16.864	1120.096	845.682
290.730	16.758	1119.816	844.867
291.745	16.877	1118.931	844.717
292.760	16.825	1118.580	844.114
293.774	16.948	1117.809	844.071
294.789	16.912	1117.674	843.715
295.803	16.912	1116.733	842.932
296.818	16.953	1115.635	842.230
297.833	16.904	1115.110	841.519
298.847	16.859	1114.373	840.666
299.862	16.819	1113.519	839.747
300.876	16.837	1113.191	839.516
301.891	17.032	1112.435	839.834
302.906	17.115	1111.520	839.480
303.920	17.048	1111.137	838.784
304.935	17.235	1110.371	839.054
305.949	17.213	1110.037	838.619
306.964	17.245	1109.402	838.225
307.979	17.173	1108.526	837.134
308.993	17.123	1107.587	836.106
310.008	17.238	1106.671	835.905
311.022	17.298	1105.935	835.569
312.037	17.219	1105.070	834.456
313.052	17.040	1104.519	833.085
314.066	17.180	1103.294	832.776
315.081	17.050	1102.431	831.414
316.095	17.007	1101.857	830.699
317.110	16.973	1101.031	829.833
318.125	17.000	1100.729	829.664
319.139	17.055	1099.668	829.059
320.154	16.978	1099.694	828.632
321.168	17.095	1098.695	828.376
322.183	17.051	1098.034	827.587
323.197	17.220	1097.152	827.673
324.212	17.206	1096.886	827.333
325.227	17.186	1096.429	826.815
326.241	17.152	1095.797	826.102
327.256	17.131	1094.717	825.111
328.270	17.065	1093.592	823.871
329.285	17.124	1092.856	823.530
330.300	17.149	1091.977	822.917
331.314	17.175	1090.841	822.111
332.329	17.285	1089.828	821.811
333.343	17.301	1088.917	821.124
334.358	17.292	1088.274	820.527
335.373	17.414	1087.994	820.828
336.387	17.517	1086.780	820.338
337.402	17.488	1085.954	819.502
338.416	17.491	1085.893	819.397
339.431	17.429	1085.162	818.475
340.446	17.574	1084.227	818.395
341.460	17.625	1084.075	818.454
342.475	17.748	1082.947	818.116
343.489	17.672	1082.116	817.053
344.504	17.754	1080.814	816.393
345.519	17.763	1080.389	816.040
346.533	17.830	1079.857	815.889
347.548	17.807	1079.143	815.167
348.562	17.844	1078.183	814.545
349.577	17.702	1077.113	812.986
350.592	17.514	1076.841	811.816
351.606	17.438	1076.136	810.851
352.621	17.549	1075.403	810.751
353.635	17.567	1074.658	810.203
354.650	17.525	1074.146	809.550
355.665	17.640	1072.994	809.156
356.679	17.702	1072.587	809.068
357.694	17.740	1072.129	808.834
358.708	17.760	1071.324	808.248
359.723	17.735	1070.521	807.454
360.738	17.803	1069.742	807.117
361.752	17.803	1069.390	806.779
362.767	17.821	1068.644	806.230
363.781	17.817	1068.226	805.824
364.796	17.918	1068.159	806.180
365.810	18.008	1067.037	805.688
366.825	17.969	1066.709	805.183
367.840	18.051	1065.954	804.929
368.854	18.085	1065.608	804.757
369.869	18.077	1065.017	804.202
370.883	17.908	1064.032	802.589
371.898	18.040	1063.178	802.498
372.913	18.050	1062.654	802.075
373.927	18.075	1062.389	801.921
374.942	18.149	1061.852	801.796
375.956	18.100	1061.311	801.084
376.971	18.185	1060.505	800.802
377.986	18.117	1060.334	800.285
379.000	18.260	1059.559	800.298
380.015	18.304	1058.856	799.900
381.029	18.396	1058.570	800.045
382.044	18.306	1057.645	798.855
383.059	18.325	1057.003	798.388
384.073	18.311	1056.319	797.737
385.088	18.295	1055.422	796.913
386.102	18.416	1053.989	796.322
387.117	18.193	1053.532	794.873
388.132	18.221	1052.278	793.984
389.146	18.286	1051.149	793.363
390.161	18.211	1050.636	792.559
391.175	18.376	1050.004	792.774
392.190	18.331	1049.322	791.983
393.205	18.504	1048.510	792.099
394.219	18.354	1048.119	791.042
395.234	18.362	1047.084	790.224
396.248	18.360	1045.666	789.077
397.263	18.396	1044.772	788.498
398.278	18.244	1044.656	787.643
399.292	18.343	1043.471	787.134
400.307	18.185	1042.891	785.901
401.321	18.268	1042.215	785.700
402.336	18.117	1042.107	784.859
403.350	18.263	1040.895	784.545
404.365	18.412	1040.290	784.702
405.380	18.401	1039.804	784.215
406.394	18.520	1038.638	783.812
407.409	18.463	1038.027	783.019
408.423	18.509	1037.696	782.914
409.438	18.626	1036.899	782.777
410.453	18.722	1036.107	782.544
411.467	18.713	1035.621	782.069
412.482	18.704	1034.983	781.477
413.496	18.660	1034.558	780.887
414.511	18.724	1033.996	780.686
415.526	18.914	1033.288	780.944
416.540	18.920	1032.907	780.613
417.555	18.844	1032.011	779.521
418.569	18.805	1031.985	779.257
419.584	18.858	1031.068	778.736
420.599	18.751	1030.940	778.084
421.613	150.821	1400.886	1795.307
422.628	137.628	1454.752	1795.397
