DTS Sentinel unit serial number:	SN413079Multiplexer serial number:	ORYXHardware model number:	OX4-SRSoftware version number:	ORYX F/W v4.00 Oryx Data Collector v3.7.2.0data status	okinstallation	princeton_trtdifferential loss correction	single-endedforward channel	channel 2reverse channel	N/Adate	2019/09/15time	03:39:35forward acquisition time	60.00reverse acquisition time	0.00gamma	496.2192k internal	0.2326k external	0.2326temperature offset calibration	1.0031default loss term (dB/km)	0.3790temperature slope calibration	1.0000multiplexer offset coefficient	1.0000multiplexer slope coefficient	1.0000fibre end	0.00T internal ref (°C)	31.00T ext. ref 1 (°C)	4.60T ext. ref 2 (°C)	25.87length (m)	temperature (°C)	Stokes	anti-Stokes-747.200	576.101	-0.086	0.212
-746.185	127.632	0.174	0.222
-745.171	-14.924	0.271	-0.175
-744.156	191.941	-0.110	0.167
-743.142	-162.086	0.107	0.005
-742.127	-84.912	-0.346	-0.110
-741.112	117.806	0.136	0.169
-740.098	-4.799	-0.328	0.228
-739.083	-31.697	0.293	-0.166
-738.069	-126.941	-0.229	0.034
-737.054	-200.000	-0.061	-0.471
-736.039	-14.580	-0.120	-0.078
-735.025	183.986	0.143	-0.213
-734.010	7.558	-0.325	-0.245
-732.996	337.889	-0.087	0.171
-731.981	-84.464	-0.239	0.076
-730.966	705.771	-0.081	-0.216
-729.952	-134.849	0.241	0.029
-728.937	23.328	-0.211	0.175
-727.923	-101.590	0.200	-0.049
-726.908	272.351	0.169	0.301
-725.894	800.000	-0.018	0.063
-724.879	728.607	-0.095	0.255
-723.864	-200.000	0.020	-0.317
-722.850	800.000	-0.040	0.134
-721.835	135.475	-0.165	0.216
-720.821	-198.013	-0.188	-0.001
-719.806	59.392	-0.242	-0.240
-718.791	-124.175	-0.099	0.016
-717.777	539.836	-0.090	0.216
-716.762	156.426	0.089	0.124
-715.748	16.903	0.168	0.134
-714.733	1.215	-0.245	0.177
-713.718	504.152	0.197	-0.460
-712.704	597.068	-0.115	0.287
-711.689	8.097	-0.117	0.089
-710.675	440.746	-0.087	0.192
-709.660	800.000	-0.130	0.386
-708.645	-100.188	-0.146	0.037
-707.631	800.000	0.104	0.438
-706.616	-200.000	-0.012	-0.214
-705.602	-81.905	0.206	0.068
-704.587	-200.000	0.003	0.043
-703.572	-200.000	0.003	-0.045
-702.558	800.000	0.095	-0.333
-701.543	-15.123	-0.204	0.132
-700.529	277.811	-0.171	0.306
-699.514	717.327	0.058	-0.156
-698.499	-2.239	-0.269	-0.190
-697.485	159.171	0.207	-0.289
-696.470	-192.489	0.338	0.003
-695.456	-200.000	0.001	0.025
-694.441	-22.369	0.077	-0.047
-693.426	234.154	-0.082	-0.136
-692.412	288.473	-0.035	-0.064
-691.397	-200.000	-0.018	0.152
-690.383	-145.295	-0.314	-0.029
-689.368	81.231	0.246	-0.267
-688.354	65.269	-0.266	-0.271
-687.339	-160.727	-0.218	0.012
-686.324	675.906	0.153	-0.401
-685.310	84.800	-0.125	-0.138
-684.295	-200.000	0.019	0.098
-683.281	-67.654	-0.422	-0.166
-682.266	-79.698	-0.282	-0.096
-681.251	268.922	0.046	0.081
-680.237	129.717	-0.067	-0.087
-679.222	-200.000	-0.011	-0.062
-678.208	-86.439	-0.377	-0.116
-677.193	-23.958	-0.522	-0.314
-676.178	-28.537	-0.039	0.023
-675.164	11.413	-0.176	-0.135
-674.149	-15.513	-0.274	0.176
-673.135	-34.531	-0.254	-0.140
-672.120	-111.611	0.446	-0.091
-671.105	-200.000	-0.029	0.362
-670.091	-200.000	0.335	0.000
-669.076	-3.834	-0.146	0.102
-668.062	-200.000	0.013	0.148
-667.047	15.669	-0.136	-0.107
-666.032	68.476	-0.024	-0.024
-665.018	800.000	0.035	0.139
-664.003	800.000	-0.014	0.050
-662.989	83.860	0.127	-0.140
-661.974	342.963	0.130	-0.256
-660.959	-67.232	0.153	-0.061
-659.945	-96.782	-0.013	0.003
-658.930	68.326	0.018	-0.018
-657.916	41.319	-0.356	0.324
-656.901	-200.000	-0.050	0.292
-655.886	32.358	-0.153	-0.133
-654.872	-55.094	0.229	-0.104
-653.857	11.334	0.257	-0.198
-652.843	-40.621	0.151	-0.079
-651.828	-67.172	-0.075	-0.030
-650.814	-81.083	-0.230	0.077
-649.799	800.000	0.047	0.186
-648.784	800.000	0.125	-0.401
-647.770	800.000	-0.061	-0.244
-646.755	-6.394	0.291	-0.200
-645.741	639.072	0.036	0.092
-644.726	15.978	0.205	-0.162
-643.711	800.000	-0.072	-0.227
-642.697	-16.926	0.164	0.104
-641.682	-200.000	0.072	-0.377
-640.668	685.021	0.058	0.152
-639.653	-200.000	-0.048	0.215
-638.638	69.592	-0.155	0.160
-637.624	-200.000	-0.003	0.027
-636.609	-200.000	-0.018	-0.146
-635.595	74.162	-0.195	0.206
-634.580	-137.883	0.493	0.055
-633.565	461.965	-0.101	-0.225
-632.551	265.753	-0.257	0.451
-631.536	6.111	-0.295	-0.219
-630.522	-163.535	-0.170	0.008
-629.507	299.004	-0.052	0.096
-628.492	-79.696	-0.079	0.027
-627.478	-154.567	0.185	-0.012
-626.463	74.958	0.045	-0.048
-625.449	-47.997	0.145	-0.070
-624.434	-154.226	-0.294	0.020
-623.419	90.077	-0.178	0.200
-622.405	800.000	-0.013	0.040
-621.390	-200.000	0.042	0.267
-620.376	-0.081	0.075	-0.054
-619.361	282.125	-0.064	-0.115
-618.346	-109.383	-0.104	0.022
-617.332	-176.086	-0.148	0.004
-616.317	-140.213	0.122	0.013
-615.303	280.397	0.123	-0.221
-614.288	738.743	0.098	-0.263
-613.273	416.397	0.200	-0.429
-612.259	526.840	-0.083	-0.196
-611.244	-200.000	0.013	0.102
-610.230	-134.224	0.063	0.008
-609.215	-69.032	0.293	-0.113
-608.201	-200.000	-0.039	-0.300
-607.186	-200.000	-0.013	-0.286
-606.171	-58.342	0.080	-0.035
-605.157	-200.000	-0.032	-0.186
-604.142	800.000	0.049	0.168
-603.128	800.000	-0.063	0.225
-602.113	-94.747	-0.290	-0.079
-601.098	245.128	-0.160	-0.270
-600.084	-43.501	-0.208	-0.106
-599.069	800.000	0.104	-0.390
-598.055	393.908	0.078	0.162
-597.040	34.671	0.145	0.127
-596.025	447.530	0.130	0.288
-595.011	311.312	0.014	0.026
-593.996	-200.000	-0.021	0.152
-592.982	-19.908	-0.244	0.151
-591.967	-82.135	-0.450	-0.147
-590.952	-159.134	-0.321	0.018
-589.938	42.927	0.110	0.100
-588.923	800.000	-0.023	0.073
-587.909	-165.039	0.257	0.011
-586.894	57.036	-0.021	0.021
-585.879	800.000	0.008	-0.028
-584.865	-197.455	0.224	0.001
-583.850	-36.537	0.423	0.228
-582.836	-58.696	0.181	0.079
-581.821	85.740	-0.027	0.029
-580.806	140.928	0.048	0.064
-579.792	800.000	0.089	-0.313
-578.777	-39.716	-0.148	0.078
-577.763	-200.000	-0.004	-0.254
-576.748	356.183	-0.169	-0.336
-575.733	113.535	-0.058	0.070
-574.719	669.103	0.033	0.087
-573.704	227.800	0.122	-0.199
-572.690	137.486	0.182	0.239
-571.675	-200.000	-0.021	0.141
-570.661	-200.000	0.014	-0.494
-569.646	-91.914	0.071	-0.020
-568.631	67.934	0.139	-0.143
-567.617	-67.913	0.151	-0.059
-566.602	-92.681	0.283	0.079
-565.588	-21.942	0.108	-0.066
-564.573	-96.571	-0.211	-0.056
-563.558	-104.846	0.217	-0.050
-562.544	143.199	0.165	0.220
-561.529	342.470	-0.031	-0.061
-560.515	-200.000	0.003	0.154
-559.500	249.433	-0.086	0.146
-558.485	55.537	-0.064	-0.062
-557.471	-87.039	-0.107	-0.033
-556.456	629.483	0.030	0.076
-555.442	765.034	0.003	-0.008
-554.427	-200.000	-0.008	-0.124
-553.412	800.000	-0.095	-0.333
-552.398	65.589	-0.062	0.063
-551.383	-35.661	0.034	0.019
-550.369	153.623	0.064	-0.088
-549.354	217.665	-0.069	0.109
-548.339	-64.182	0.198	0.081
-547.325	-200.000	0.033	0.337
-546.310	462.058	-0.099	0.222
-545.296	-200.000	-0.007	0.110
-544.281	6.499	0.102	0.076
-543.266	-33.587	-0.435	0.240
-542.252	-200.000	0.029	-0.226
-541.237	800.000	-0.106	-0.463
-540.223	-73.939	0.226	-0.082
-539.208	61.139	0.032	-0.032
-538.193	44.530	0.140	-0.128
-537.179	43.266	-0.231	-0.211
-536.164	711.090	0.092	0.244
-535.150	-62.516	-0.316	-0.131
-534.135	800.000	-0.043	-0.166
-533.121	-21.317	0.113	-0.069
-532.106	57.584	-0.194	0.190
-531.091	-200.000	-0.023	-0.401
-530.077	237.893	-0.171	-0.283
-529.062	800.000	-0.119	-0.415
-528.048	-192.423	0.341	-0.003
-527.033	-72.114	-0.324	-0.120
-526.018	-200.000	0.005	0.094
-525.004	185.262	-0.105	-0.155
-523.989	57.820	-0.222	0.217
-522.975	108.063	0.102	-0.121
-521.960	-39.578	-0.313	-0.164
-520.945	-200.000	-0.003	0.075
-519.931	66.438	0.048	-0.048
-518.916	0.354	-0.106	-0.076
-517.902	778.144	-0.060	0.164
-516.887	-27.048	-0.348	0.203
-515.872	800.000	-0.094	0.299
-514.858	24.049	-0.121	-0.100
-513.843	-200.000	-0.013	0.283
-512.829	99.420	-0.206	0.239
-511.814	-175.232	-0.121	-0.003
-510.799	86.228	-0.083	0.091
-509.785	95.158	0.019	0.022
-508.770	-200.000	-0.018	0.263
-507.756	534.727	-0.131	0.311
-506.741	-200.000	-0.045	0.237
-505.726	-200.000	-0.073	-0.444
-504.712	-200.000	-0.017	0.137
-503.697	229.432	0.099	-0.162
-502.683	800.000	0.125	-0.446
-501.668	542.281	0.067	-0.159
-500.653	-37.868	-0.233	-0.124
-499.639	-150.088	-0.190	0.015
-498.624	78.669	0.112	-0.120
-497.610	-200.000	0.055	0.243
-496.595	800.000	-0.050	-0.152
-495.581	800.000	-0.114	-0.348
-494.566	188.262	-0.101	0.151
-493.551	-4.926	0.096	-0.066
-492.537	-43.289	-0.169	-0.085
-491.522	-184.515	-0.169	0.003
-490.508	800.000	0.038	0.115
-489.493	-200.000	0.029	-0.168
-488.478	678.264	0.044	0.114
-487.464	-0.606	-0.165	-0.117
-486.449	-86.427	0.263	-0.081
-485.435	267.437	-0.070	-0.122
-484.420	-200.000	-0.003	0.167
-483.405	-140.270	-0.191	-0.020
-482.391	4.486	0.155	-0.113
-481.376	-12.245	0.362	0.236
-480.362	-50.203	-0.036	0.017
-479.347	-6.706	0.263	0.179
-478.332	72.314	0.172	0.178
-477.318	-115.465	0.424	0.080
-476.303	604.252	0.022	-0.055
-475.289	800.000	-0.076	0.209
-474.274	-44.890	0.148	0.074
-473.259	800.000	0.016	0.068
-472.245	-75.931	-0.303	0.107
-471.230	800.000	0.076	0.332
-470.216	-63.082	0.114	0.047
-469.201	800.000	0.077	0.263
-468.186	-71.465	-0.164	0.061
-467.172	-136.226	0.128	-0.015
-466.157	-70.489	0.360	0.136
-465.143	35.801	0.112	0.099
-464.128	573.416	0.042	0.102
-463.113	267.754	-0.181	-0.317
-462.099	94.985	-0.150	0.171
-461.084	437.297	-0.179	0.389
-460.070	-136.895	0.180	0.021
-459.055	687.736	-0.100	-0.262
-458.040	660.482	0.030	0.077
-457.026	-200.000	0.006	-0.039
-456.011	259.348	-0.074	-0.128
-454.997	-58.547	0.349	0.151
-453.982	-97.025	0.118	0.031
-452.968	800.000	-0.117	0.391
-451.953	32.822	-0.159	0.137
-450.938	-200.000	-0.017	-0.128
-449.924	-200.000	0.013	-0.085
-448.909	102.421	0.056	-0.065
-447.895	-96.913	-0.223	0.058
-446.880	301.209	-0.078	0.144
-445.865	800.000	0.057	-0.164
-444.851	83.586	0.079	0.085
-443.836	800.000	0.100	0.323
-442.822	-162.702	-0.265	0.013
-441.807	-150.143	-0.231	0.018
-440.792	-200.000	-0.060	-0.318
-439.778	251.774	-0.027	-0.046
-438.763	4.049	-0.116	0.084
-437.749	-59.050	0.309	-0.133
-436.734	-89.427	0.046	0.013
-435.719	-24.279	-0.133	-0.079
-434.705	-154.171	0.223	-0.015
-433.690	245.381	-0.018	-0.030
-432.676	800.000	0.124	0.486
-431.661	-200.000	0.003	0.219
-430.646	-200.000	0.009	-0.194
-429.632	-138.692	-0.235	-0.026
-428.617	-20.657	-0.256	-0.157
-427.603	-155.941	0.090	-0.006
-426.588	-200.000	-0.073	-0.416
-425.573	-50.268	-0.248	-0.117
-424.559	800.000	-0.102	0.297
-423.544	-200.000	0.006	-0.111
-422.530	-200.000	-0.099	-0.613
-421.515	800.000	0.059	-0.191
-420.500	-119.765	-0.398	0.068
-419.486	-200.000	0.028	0.397
-418.471	-122.226	0.177	0.029
-417.457	47.719	0.070	-0.065
-416.442	572.575	0.110	0.268
-415.428	-60.580	-0.212	-0.090
-414.413	-200.000	0.060	0.333
-413.398	-94.343	0.139	0.038
-412.384	800.000	-0.095	0.285
-411.369	-14.825	0.261	0.167
-410.355	-93.215	-0.201	0.056
-409.340	800.000	0.092	0.296
-408.325	-22.394	0.268	-0.162
-407.311	-6.807	-0.193	0.130
-406.296	-113.358	0.283	-0.055
-405.282	-200.000	0.003	-0.264
-404.267	325.865	0.111	-0.211
-403.252	-200.000	-0.035	-0.330
-402.238	96.888	0.114	-0.130
-401.223	-124.826	0.363	0.056
-400.209	245.139	0.063	0.105
-399.194	441.434	0.117	0.255
-398.179	-78.870	0.141	-0.048
-397.165	304.360	-0.100	-0.185
-396.150	628.861	0.079	-0.199
-395.136	-97.002	-0.120	0.031
-394.121	13.784	0.150	0.116
-393.106	-97.848	0.123	0.032
-392.092	472.834	-0.036	-0.082
-391.077	-10.198	-0.217	-0.143
-390.063	106.961	-0.068	0.081
-389.048	800.000	-0.017	0.065
-388.033	800.000	0.046	-0.128
-387.019	-107.467	0.185	0.040
-386.004	-141.320	0.256	-0.026
-384.990	-96.646	-0.266	-0.070
-383.975	-66.224	-0.072	-0.028
-382.960	-200.000	-0.022	0.419
-381.946	-66.594	0.237	-0.094
-380.931	-136.718	-0.089	-0.010
-379.917	-200.000	0.017	-0.159
-378.902	540.722	0.181	0.428
-377.888	800.000	-0.182	0.556
-376.873	800.000	-0.022	0.067
-375.858	76.161	0.074	-0.078
-374.844	16.059	0.110	-0.087
-373.829	69.709	0.054	0.056
-372.815	-0.061	0.043	0.031
-371.800	196.040	0.198	-0.299
-370.785	-76.097	-0.108	-0.038
-369.771	-142.401	-0.385	0.038
-368.756	21.596	0.148	-0.119
-367.742	47.306	-0.104	0.097
-366.727	-200.000	0.017	-0.091
-365.712	112.812	0.027	-0.033
-364.698	537.135	-0.090	-0.213
-363.683	-69.962	-0.098	-0.037
-362.669	-200.000	0.012	0.119
-361.654	16.365	-0.039	-0.031
-360.639	-200.000	0.002	-0.189
-359.625	61.673	0.052	-0.051
-358.610	-24.871	-0.188	0.111
-357.596	231.242	0.160	-0.261
-356.581	-200.000	-0.030	0.153
-355.566	79.483	-0.146	0.156
-354.552	22.962	0.113	-0.092
-353.537	800.000	-0.026	0.114
-352.523	9.478	-0.116	0.088
-351.508	-200.000	-0.022	-0.192
-350.493	-97.422	-0.160	-0.041
-349.479	800.000	-0.028	-0.086
-348.464	126.262	0.142	-0.178
-347.450	110.835	-0.049	-0.058
-346.435	-200.000	0.001	0.011
-345.420	-126.072	0.388	-0.058
-344.406	-136.848	0.267	-0.030
-343.391	-200.000	0.005	0.034
-342.377	800.000	-0.043	-0.121
-341.362	47.520	0.130	-0.120
-340.348	-111.413	-0.163	0.033
-339.333	800.000	0.122	0.349
-338.318	-22.420	0.079	-0.047
-337.304	-0.761	-0.018	-0.013
-336.289	-159.117	0.165	0.009
-335.275	-159.753	-0.416	0.023
-334.260	-90.333	-0.442	-0.127
-333.245	49.097	-0.191	-0.178
-332.231	294.809	0.081	-0.148
-331.216	-200.000	0.019	-0.225
-330.202	-186.591	-0.352	0.005
-329.187	-59.705	-0.207	-0.088
-328.172	19.119	-0.077	-0.062
-327.158	282.756	-0.149	-0.266
-326.143	-200.000	0.033	0.220
-325.129	-200.000	0.022	0.157
-324.114	-200.000	-0.023	-0.173
-323.099	-5.038	-0.146	-0.100
-322.085	318.789	0.090	0.169
-321.070	47.134	-0.124	-0.114
-320.056	75.597	0.021	-0.022
-319.041	-50.269	0.137	-0.064
-318.026	-200.000	-0.012	-0.136
-317.012	-77.238	-0.029	-0.010
-315.997	-200.000	-0.026	-0.149
-314.983	-8.498	0.381	-0.254
-313.968	98.991	0.115	-0.131
-312.953	-200.000	-0.019	0.317
-311.939	119.948	-0.102	0.126
-310.924	-139.548	-0.162	0.017
-309.910	-132.859	0.076	-0.010
-308.895	33.184	-0.141	-0.121
-307.880	-60.239	0.173	-0.073
-306.866	-47.543	-0.265	-0.128
-305.851	231.597	0.175	0.285
-304.837	-119.897	0.310	0.053
-303.822	110.604	0.213	0.254
-302.807	-70.590	-0.452	0.169
-301.793	310.614	-0.114	0.213
-300.778	-150.631	0.126	0.010
-299.764	800.000	-0.058	0.243
-298.749	-121.907	-0.505	-0.083
-297.735	-155.847	0.238	-0.015
-296.720	-25.601	-0.114	-0.067
-295.705	77.535	0.023	0.024
-294.691	529.821	-0.012	0.029
-293.676	129.287	0.145	-0.184
-292.662	-200.000	0.004	0.328
-291.647	800.000	0.084	0.254
-290.632	-200.000	-0.016	0.112
-289.618	494.555	0.003	-0.006
-288.603	-200.000	0.008	-0.238
-287.589	16.260	-0.065	0.051
-286.574	359.093	0.245	-0.485
-285.559	-6.954	0.257	0.173
-284.545	29.327	-0.227	-0.191
-283.530	360.996	-0.054	-0.107
-282.516	-200.000	-0.013	-0.351
-281.501	-200.000	-0.034	-0.178
-280.486	-200.000	0.058	0.500
-279.472	-53.080	-0.331	-0.151
-278.457	-200.000	-0.034	0.168
-277.443	5.255	0.298	0.217
-276.428	-61.738	0.107	-0.044
-275.413	-46.982	0.272	-0.132
-274.399	800.000	-0.041	0.180
-273.384	-159.496	-0.187	-0.010
-272.370	231.505	-0.068	0.110
-271.355	1.275	-0.176	0.125
-270.340	228.485	0.144	0.232
-269.326	40.567	-0.032	0.029
-268.311	65.215	-0.295	-0.296
-267.297	413.762	-0.044	-0.092
-266.282	160.509	0.147	0.202
-265.267	-56.472	-0.100	-0.044
-264.253	119.733	0.113	0.139
-263.238	800.000	-0.071	0.257
-262.224	86.816	-0.143	0.157
-261.209	26.432	0.162	-0.134
-260.195	482.372	0.021	0.046
-259.180	-200.000	-0.010	0.413
-258.165	-132.264	-0.317	0.041
-257.151	-56.436	0.277	0.122
-256.136	-33.831	-0.194	-0.106
-255.122	-111.011	-0.359	-0.073
-254.107	-97.197	-0.269	0.070
-253.092	-77.960	0.125	-0.043
-252.078	-200.000	-0.002	-0.010
-251.063	800.000	-0.070	0.279
-250.049	173.656	0.116	0.166
-249.034	-78.221	0.207	-0.071
-248.019	-113.170	-0.114	0.022
-247.005	800.000	0.043	-0.162
-245.990	26.847	0.217	-0.180
-244.976	45.552	0.159	0.145
-243.961	-63.300	0.236	0.096
-242.946	-80.196	-0.268	0.089
-241.932	105.545	0.256	0.300
-240.917	-97.952	-0.112	0.029
-239.903	28.769	0.210	-0.176
-238.888	-19.086	0.086	-0.053
-237.873	-200.000	-0.026	-0.391
-236.859	-44.247	-0.192	-0.095
-235.844	188.771	0.151	-0.224
-234.830	14.200	0.153	-0.118
-233.815	-200.000	-0.036	0.155
-232.800	-53.270	0.209	0.095
-231.786	800.000	-0.090	-0.265
-230.771	-73.049	-0.114	0.041
-229.757	430.730	0.041	0.087
-228.742	-141.391	0.117	0.012
-227.727	372.118	0.056	-0.112
-226.713	-40.631	0.254	-0.130
-225.698	800.000	-0.077	-0.254
-224.684	193.674	0.190	0.284
-223.669	413.521	0.042	-0.088
-222.655	32.502	0.138	0.118
-221.640	522.935	-0.043	0.101
-220.625	-39.467	0.092	-0.048
-219.611	-196.623	0.166	0.001
-218.596	800.000	0.090	0.279
-217.582	19.623	0.294	0.234
-216.567	-200.000	-0.028	-0.291
-215.552	40.168	0.235	-0.209
-214.538	35.222	0.168	0.145
-213.523	-163.823	0.008	0.000
-212.509	800.000	0.019	0.073
-211.494	-117.620	0.093	-0.017
-210.479	25.813	-0.182	-0.149
-209.465	-40.581	0.418	0.214
-208.450	-141.677	-0.478	0.048
-207.436	65.015	-0.275	0.274
-206.421	80.676	-0.233	0.248
-205.406	-21.093	0.074	-0.045
-204.392	7.796	-0.182	0.134
-203.377	-200.000	-0.023	0.269
-202.363	-142.978	0.119	-0.011
-201.348	362.664	0.122	0.243
-200.333	-142.469	0.329	0.032
-199.319	661.890	-0.049	0.125
-198.304	800.000	0.038	-0.136
-197.290	-41.421	-0.136	0.069
-196.275	-108.635	-0.204	0.043
-195.260	45.773	-0.079	0.072
-194.246	800.000	0.115	0.427
-193.231	108.935	0.229	0.270
-192.217	-45.385	0.073	0.036
-191.202	-177.322	0.033	0.001
-190.187	-23.673	-0.268	0.159
-189.173	800.000	0.053	0.153
-188.158	-129.360	-0.122	-0.017
-187.144	-57.142	-0.024	-0.011
-186.129	-22.602	-0.247	-0.147
-185.114	-97.746	-0.352	-0.090
-184.100	800.000	-0.051	-0.204
-183.085	785.394	0.083	0.223
-182.071	33.706	0.052	-0.044
-181.056	-19.483	-0.089	-0.054
-180.042	800.000	0.117	-0.343
-179.027	-196.472	0.142	0.001
-178.012	102.202	0.151	0.174
-176.998	-151.072	-0.135	-0.010
-175.983	119.325	0.292	-0.356
-174.969	235.763	0.086	-0.140
-173.954	-200.000	0.004	-0.090
-172.939	-200.000	0.003	0.291
-171.925	-200.000	-0.006	-0.130
-170.910	-79.661	-0.348	0.116
-169.896	-200.000	-0.073	0.379
-168.881	-129.738	0.218	0.030
-167.866	-55.700	0.156	-0.069
-166.852	-98.114	0.059	-0.015
-165.837	-200.000	0.001	-0.147
-164.823	-148.508	0.154	-0.012
-163.808	83.354	0.145	-0.156
-162.793	184.242	-0.096	-0.140
-161.779	-24.246	0.215	0.127
-160.764	-128.623	0.226	0.032
-159.750	800.000	-0.029	-0.126
-158.735	-200.000	-0.001	-0.179
-157.720	150.130	0.023	-0.030
-156.706	94.036	0.112	0.125
-155.691	-200.000	0.017	-0.149
-154.677	11.121	-0.333	0.251
-153.662	104.701	-0.113	-0.132
-152.647	124.123	-0.219	-0.271
-151.633	800.000	-0.122	-0.340
-150.618	-16.510	0.201	-0.126
-149.604	5.062	0.279	0.202
-148.589	-67.769	0.154	0.060
-147.574	-172.970	0.318	0.010
-146.560	-143.323	-0.068	0.006
-145.545	258.491	0.043	-0.073
-144.531	-142.065	-0.040	0.004
-143.516	-129.495	-0.142	-0.019
-142.502	800.000	0.075	0.211
-141.487	31.132	0.144	-0.122
-140.472	27.790	-0.180	-0.149
-139.458	243.581	0.136	0.225
-138.443	57.426	-0.035	-0.034
-137.429	-146.466	0.273	0.023
-136.414	22.116	0.141	0.113
-135.399	-51.675	0.339	0.155
-134.385	194.357	-0.179	-0.268
-133.370	146.070	0.163	-0.216
-132.356	510.369	-0.098	0.223
-131.341	182.117	0.140	-0.203
-130.326	-200.000	-0.007	-0.085
-129.312	-141.421	0.056	-0.006
-128.297	-25.976	0.271	0.157
-127.283	-107.075	-0.208	0.045
-126.268	267.966	0.114	-0.196
-125.253	800.000	0.110	-0.447
-124.239	18.178	0.050	-0.040
-123.224	800.000	0.038	0.116
-122.210	247.783	-0.108	0.181
-121.195	-150.805	0.283	0.021
-120.180	-82.323	-0.105	-0.034
-119.166	74.135	0.162	0.167
-118.151	800.000	0.065	0.201
-117.137	-33.215	-0.202	-0.110
-116.122	800.000	-0.035	-0.100
-115.107	800.000	-0.050	-0.159
-114.093	169.500	0.200	0.281
-113.078	-200.000	-0.015	-0.082
-112.064	800.000	0.092	-0.271
-111.049	-200.000	-0.018	0.111
-110.034	121.208	-0.111	-0.136
-109.020	-113.062	0.342	-0.067
-108.005	-26.207	0.170	0.098
-106.991	-104.109	-0.094	-0.022
-105.976	-200.000	0.028	0.377
-104.962	70.524	-0.208	0.211
-103.947	-131.643	-0.171	0.022
-102.932	800.000	-0.074	0.239
-101.918	302.360	0.041	0.075
-100.903	15.394	-0.272	0.210
-99.889	-94.301	0.217	0.058
-98.874	3.786	0.099	-0.071
-97.859	-158.860	0.266	-0.015
-96.845	800.000	0.069	-0.210
-95.830	-200.000	0.023	0.124
-94.816	-87.530	0.213	0.063
-93.801	-72.004	-0.168	0.061
-92.786	118.155	0.058	-0.071
-91.772	-142.437	0.386	-0.037
-90.757	-89.955	0.093	0.027
-89.743	740.049	0.011	0.028
-88.728	-40.508	0.418	0.213
-87.713	-53.302	-0.206	-0.093
-86.699	688.459	-0.020	-0.051
-85.684	67.069	0.179	-0.180
-84.670	355.663	0.128	0.251
-83.655	188.932	-0.118	0.173
-82.640	800.000	-0.094	0.300
-81.626	800.000	-0.236	0.733
-80.611	92.971	0.060	-0.067
-79.597	-79.655	-0.061	0.020
-78.582	18.483	-0.227	-0.178
-77.567	108.333	-0.042	0.049
-76.553	44.130	0.229	0.206
-75.538	100.151	0.143	0.163
-74.524	446.683	-0.138	-0.298
-73.509	-112.263	0.085	-0.017
-72.494	-97.582	-0.122	-0.031
-71.480	53.703	0.063	0.059
-70.465	69.970	0.059	0.060
-69.451	121.905	-0.131	0.161
-68.436	800.000	-0.069	-0.227
-67.422	800.000	-0.052	0.204
-66.407	-113.035	-0.090	-0.017
-65.392	108.009	0.089	-0.104
-64.378	-36.065	0.280	-0.149
-63.363	252.742	-0.079	-0.133
-62.349	-6.465	0.145	0.097
-61.334	152.785	-0.773	-1.037
-60.319	170.642	0.308	0.433
-59.305	280.956	-0.608	-1.068
-58.290	248.016	0.652	1.082
-57.276	790.642	0.542	1.462
-56.261	-200.000	101.501	598.791
-55.246	577.757	1414.108	3395.644
-54.232	190.368	2607.702	3846.023
-53.217	111.351	2276.019	2693.802
-52.203	40.448	1895.202	1675.352
-51.188	34.285	1684.137	1442.235
-50.173	31.708	1640.214	1385.526
-49.159	49.293	1690.593	1560.594
-48.144	50.977	1706.399	1587.760
-47.130	33.718	1666.427	1422.590
-46.115	31.183	1651.038	1390.543
-45.100	30.888	1647.078	1384.954
-44.086	30.955	1644.063	1382.861
-43.071	30.887	1641.895	1380.484
-42.057	30.901	1639.141	1378.214
-41.042	30.832	1637.335	1376.134
-40.027	30.942	1635.157	1375.059
-39.013	30.909	1633.174	1373.095
-37.998	30.810	1632.069	1371.381
-36.984	30.935	1630.556	1370.972
-35.969	31.043	1628.976	1370.387
-34.954	31.048	1627.320	1368.976
-33.940	31.004	1625.756	1367.282
-32.925	31.060	1624.276	1366.394
-31.911	31.053	1622.328	1364.646
-30.896	31.105	1620.103	1363.107
-29.881	31.017	1619.162	1361.615
-28.867	31.006	1617.513	1360.095
-27.852	31.037	1616.061	1359.044
-26.838	30.954	1614.532	1357.098
-25.823	31.034	1613.317	1356.609
-24.809	31.055	1611.817	1355.444
-23.794	30.957	1610.648	1353.694
-22.779	31.029	1609.179	1352.935
-21.765	31.028	1607.408	1351.380
-20.750	30.978	1605.881	1349.680
-19.736	30.958	1604.860	1348.626
-18.721	31.052	1603.071	1347.745
-17.706	31.071	1601.112	1346.188
-16.692	30.940	1600.245	1344.458
-15.677	30.985	1598.524	1343.279
-14.663	31.047	1597.373	1342.710
-13.648	31.108	1595.705	1341.688
-12.633	31.030	1594.453	1340.022
-11.619	30.989	1592.857	1338.335
-10.604	30.928	1591.676	1336.855
-9.590	30.993	1590.087	1335.934
-8.575	31.036	1588.778	1335.083
-7.560	31.028	1587.498	1333.898
-6.546	30.965	1586.677	1332.709
-5.531	31.056	1585.463	1332.284
-4.517	30.959	1584.095	1330.391
-3.502	31.059	1583.253	1330.341
-2.487	31.099	1581.465	1329.074
-1.473	30.810	1569.923	1317.278
-0.458	28.033	1551.035	1281.933
0.556	23.948	1551.596	1251.653
1.571	21.550	1575.388	1253.575
2.586	21.103	1588.004	1260.278
3.600	18.819	1534.737	1201.935
4.615	11.588	1427.878	1070.913
5.629	5.589	1366.881	987.342
6.644	4.746	1359.646	976.742
7.659	4.530	1358.836	974.713
8.673	4.477	1357.745	973.514
9.688	4.637	1355.975	973.164
10.702	4.615	1352.574	970.499
11.717	7.311	1358.022	991.199
12.731	14.365	1370.399	1044.510
13.746	18.938	1377.485	1078.575
14.761	18.796	1376.080	1076.488
15.775	17.748	1373.594	1067.893
16.790	16.771	1371.043	1059.699
17.804	15.915	1368.898	1052.600
18.819	15.492	1367.510	1048.803
19.834	15.231	1365.784	1045.754
20.848	15.035	1365.234	1044.020
21.863	14.741	1363.828	1041.017
22.877	14.546	1362.677	1038.832
23.892	14.581	1361.608	1038.146
24.907	14.703	1360.388	1037.881
25.921	14.766	1359.417	1037.441
26.936	14.535	1359.212	1035.758
27.950	14.724	1357.735	1035.711
28.965	14.638	1357.199	1034.677
29.980	14.869	1355.959	1035.071
30.994	14.918	1354.692	1034.315
32.009	14.935	1354.030	1033.824
33.023	14.922	1352.480	1032.473
34.038	14.796	1350.996	1030.469
35.053	14.842	1349.680	1029.661
36.067	14.739	1348.463	1028.006
37.082	14.936	1347.187	1028.153
38.096	14.918	1346.784	1027.643
39.111	14.852	1345.807	1026.402
40.126	14.748	1345.449	1025.399
41.140	14.642	1344.340	1023.813
42.155	14.541	1343.432	1022.414
43.169	14.529	1343.842	1022.558
44.184	14.574	1342.986	1022.092
45.199	14.592	1342.553	1021.784
46.213	14.583	1342.434	1021.548
47.228	14.655	1341.777	1021.397
48.242	14.725	1340.077	1020.439
49.257	14.759	1338.417	1019.295
50.271	14.801	1337.080	1018.438
51.286	14.806	1335.859	1017.450
52.301	14.708	1334.752	1015.920
53.315	14.647	1333.953	1014.851
54.330	14.634	1332.578	1013.639
55.344	14.547	1331.175	1011.956
56.359	14.589	1330.457	1011.570
57.374	14.597	1329.613	1010.892
58.388	14.516	1328.822	1009.708
59.403	14.481	1328.362	1009.059
60.417	14.535	1327.400	1008.568
61.432	14.491	1326.165	1007.269
62.447	14.458	1326.093	1006.928
63.461	14.410	1324.506	1005.345
64.476	14.426	1323.851	1004.857
65.490	14.332	1322.340	1003.054
66.505	14.535	1320.488	1002.780
67.520	14.486	1319.295	1001.489
68.534	14.480	1318.271	1000.589
69.549	14.473	1317.511	999.882
70.563	14.481	1316.204	998.848
71.578	14.340	1315.082	997.065
72.593	14.324	1314.107	996.144
73.607	14.279	1313.884	995.618
74.622	14.308	1313.344	995.292
75.636	14.326	1312.014	994.305
76.651	14.387	1311.341	994.068
77.666	14.332	1310.917	993.335
78.680	14.414	1310.348	993.300
79.695	14.413	1309.666	992.691
80.709	14.416	1308.975	992.099
81.724	14.525	1308.488	992.291
82.739	14.598	1307.524	991.904
83.753	14.666	1306.586	991.511
84.768	14.689	1305.984	991.100
85.782	14.830	1304.737	990.901
86.797	14.775	1303.429	989.498
87.812	14.691	1302.085	987.890
88.826	14.692	1300.811	986.840
89.841	14.800	1299.890	986.692
90.855	14.691	1299.307	985.522
91.870	14.762	1298.240	985.046
92.884	14.795	1297.560	984.638
93.899	14.830	1296.807	984.182
94.914	14.925	1295.410	983.595
95.928	14.849	1294.831	982.621
96.943	14.856	1293.987	981.934
97.957	14.802	1293.124	980.873
98.972	14.884	1291.511	980.045
99.987	14.821	1291.091	979.270
101.001	14.826	1289.997	978.382
102.016	14.778	1289.071	977.314
103.030	14.888	1287.770	976.885
104.045	14.729	1287.684	975.802
105.060	14.726	1286.047	974.461
106.074	14.644	1284.308	972.579
107.089	14.559	1283.272	971.213
108.103	14.430	1282.144	969.525
109.118	14.511	1280.979	969.025
110.133	14.547	1279.107	967.732
111.147	14.550	1277.909	966.761
112.162	14.564	1276.800	965.917
113.176	14.572	1275.883	965.183
114.191	14.626	1274.841	964.620
115.206	14.557	1273.995	963.496
116.220	14.647	1272.471	962.781
117.235	14.584	1271.824	961.842
118.249	14.541	1270.478	960.490
119.264	14.566	1269.409	959.744
120.279	14.516	1268.222	958.470
121.293	14.517	1267.186	957.609
122.308	14.534	1265.809	956.581
123.322	14.467	1265.397	955.803
124.337	14.388	1264.401	954.515
125.352	14.515	1262.834	953.971
126.366	14.369	1262.040	952.450
127.381	14.399	1261.197	951.904
128.395	14.461	1260.135	951.371
129.410	14.512	1259.063	950.767
130.424	14.577	1258.158	950.369
131.439	14.536	1257.418	949.493
132.454	14.658	1255.866	948.930
133.468	14.662	1255.390	948.513
134.483	14.680	1254.649	947.970
135.497	14.655	1253.524	946.897
136.512	14.618	1252.722	945.992
137.527	14.657	1251.351	945.097
138.541	14.728	1249.858	944.286
139.556	14.672	1248.399	942.784
140.570	14.772	1247.752	942.776
141.585	14.856	1246.378	942.127
142.600	14.824	1245.543	941.235
143.614	14.919	1244.446	940.857
144.629	14.900	1243.219	939.737
145.643	14.896	1242.574	939.147
146.658	14.867	1241.085	937.776
147.673	14.642	1239.720	935.402
148.687	14.641	1238.903	934.695
149.702	14.664	1237.241	933.489
150.716	14.727	1235.982	932.807
151.731	14.702	1235.322	932.084
152.746	14.791	1233.996	931.502
153.760	14.776	1232.721	930.368
154.775	14.784	1232.171	929.919
155.789	14.886	1231.153	929.635
156.804	14.877	1229.753	928.448
157.819	14.990	1228.873	928.324
158.833	15.000	1227.564	927.311
159.848	15.022	1227.421	927.242
160.862	14.895	1226.344	925.644
161.877	14.893	1225.063	924.584
162.892	14.747	1224.074	922.949
163.906	14.747	1223.335	922.310
164.921	14.793	1222.410	921.783
165.935	14.831	1221.268	921.050
166.950	14.812	1221.141	920.772
167.964	14.811	1219.915	919.756
168.979	14.702	1219.177	918.520
169.994	14.854	1218.218	918.551
171.008	14.952	1217.420	918.405
172.023	14.987	1216.682	917.961
173.037	15.002	1215.901	917.375
174.052	15.115	1214.744	917.035
175.067	14.903	1213.941	915.191
176.081	14.896	1212.987	914.352
177.096	14.850	1211.950	913.238
178.110	14.876	1210.787	912.422
179.125	14.850	1209.771	911.434
180.140	15.016	1208.521	911.318
181.154	14.945	1207.850	910.342
182.169	14.990	1206.421	909.432
183.183	15.132	1205.238	909.228
184.198	15.176	1203.556	908.119
185.213	15.154	1202.647	907.234
186.227	15.156	1201.767	906.497
187.242	15.148	1200.712	905.580
188.256	15.207	1199.967	905.258
189.271	15.277	1198.822	904.689
190.286	15.127	1197.934	903.133
191.300	14.906	1196.617	900.871
192.315	14.819	1196.525	900.251
193.329	14.852	1195.642	899.687
194.344	14.926	1194.768	899.343
195.359	15.101	1194.372	899.906
196.373	15.131	1193.872	899.610
197.388	15.251	1193.568	899.947
198.402	15.250	1193.292	899.657
199.417	15.454	1192.325	899.943
200.432	15.527	1191.836	899.881
201.446	15.525	1190.880	899.071
202.461	15.611	1190.083	898.852
203.475	15.485	1189.338	897.534
204.490	15.480	1188.075	896.474
205.504	15.373	1186.639	894.741
206.519	15.319	1185.192	893.282
207.534	15.479	1184.098	893.231
208.548	15.234	1183.554	891.438
209.563	15.400	1182.579	891.510
210.577	15.360	1181.850	890.667
211.592	15.490	1180.842	890.520
212.607	15.600	1180.272	890.594
213.621	15.492	1179.193	889.128
214.636	15.595	1178.043	888.726
215.650	15.550	1177.293	887.846
216.665	15.628	1176.167	887.326
217.680	15.672	1175.701	887.133
218.694	15.665	1174.762	886.310
219.709	15.550	1174.169	885.176
220.723	15.630	1173.141	884.743
221.738	15.632	1172.742	884.373
222.753	15.597	1171.743	883.361
223.767	15.647	1171.357	883.250
224.782	15.677	1170.544	882.719
225.796	15.723	1170.143	882.578
226.811	15.813	1169.117	882.198
227.826	15.714	1168.417	881.075
228.840	15.708	1167.761	880.473
229.855	15.756	1167.133	880.173
230.869	15.740	1166.251	879.341
231.884	15.727	1165.131	878.355
232.899	15.490	1164.942	876.897
233.913	15.591	1163.842	876.519
234.928	15.590	1163.276	876.008
235.942	15.641	1162.516	875.623
236.957	15.595	1161.835	874.795
237.972	15.677	1160.987	874.506
238.986	15.654	1160.440	873.895
240.001	15.647	1159.626	873.168
241.015	15.634	1159.137	872.655
242.030	15.758	1158.352	872.630
243.045	15.737	1157.569	871.854
244.059	15.705	1156.484	870.794
245.074	15.845	1155.240	870.503
246.088	15.865	1155.009	870.357
247.103	15.911	1154.360	870.029
248.117	16.020	1153.222	869.657
249.132	16.091	1152.889	869.695
250.147	16.118	1152.356	869.358
251.161	16.263	1151.017	869.014
252.176	16.323	1150.363	868.752
253.190	16.266	1150.341	868.368
254.205	16.380	1149.672	868.373
255.220	16.352	1149.001	867.641
256.234	16.331	1148.507	867.086
257.249	16.377	1147.430	866.434
258.263	16.306	1147.179	865.800
259.278	16.401	1146.466	865.674
260.293	16.277	1145.876	864.514
261.307	16.355	1144.995	864.175
262.322	16.462	1144.478	864.256
263.336	16.483	1143.403	863.475
264.351	16.475	1143.013	863.062
265.366	16.486	1142.514	862.667
266.380	16.612	1141.590	862.532
267.395	16.443	1140.739	860.952
268.409	16.445	1140.176	860.461
269.424	16.398	1139.304	859.486
270.439	16.456	1138.659	859.220
271.453	16.402	1137.897	858.297
272.468	16.376	1136.816	857.274
273.482	16.350	1136.530	856.849
274.497	16.368	1135.863	856.360
275.512	16.464	1135.342	856.381
276.526	16.583	1134.557	856.311
277.541	16.447	1133.688	854.892
278.555	16.473	1133.011	854.437
279.570	16.556	1132.357	854.288
280.585	16.619	1131.445	853.846
281.599	16.704	1130.744	853.667
282.614	16.480	1129.831	851.773
283.628	16.666	1128.164	851.377
284.643	16.562	1127.483	850.265
285.657	16.665	1126.669	850.094
286.672	16.509	1126.046	848.769
287.687	16.657	1124.994	848.641
288.701	16.632	1124.202	847.842
289.716	16.683	1123.433	847.444
290.730	16.668	1122.971	846.943
291.745	16.780	1122.036	846.722
292.760	16.714	1121.756	846.108
293.774	16.815	1121.095	846.039
294.789	16.721	1120.596	845.116
295.803	16.886	1119.865	845.315
296.818	16.738	1119.200	844.001
297.833	16.686	1118.426	843.082
298.847	16.829	1117.640	843.129
299.862	16.793	1116.834	842.269
300.876	16.741	1116.633	841.780
301.891	16.938	1115.654	841.948
302.906	16.831	1114.704	840.624
303.920	16.942	1113.940	840.525
304.935	17.037	1113.680	840.727
305.949	17.058	1113.122	840.336
306.964	16.999	1112.604	839.574
307.979	17.057	1111.543	838.989
308.993	16.999	1110.560	837.885
310.008	17.095	1109.927	837.810
311.022	17.151	1109.046	837.345
312.037	17.171	1108.243	836.761
313.052	17.042	1107.473	835.471
314.066	17.026	1106.421	834.526
315.081	16.981	1105.603	833.614
316.095	17.043	1104.787	833.230
317.110	16.871	1104.241	831.898
318.125	16.943	1103.345	831.505
319.139	16.895	1102.903	830.861
320.154	16.944	1101.999	830.345
321.168	16.983	1101.742	830.271
322.183	17.009	1101.257	829.958
323.197	17.054	1100.348	829.419
324.212	16.998	1099.900	828.737
325.227	17.073	1099.260	828.546
326.241	17.112	1098.817	828.331
327.256	17.057	1097.782	827.209
328.270	17.076	1096.661	826.385
329.285	17.050	1095.732	825.482
330.300	17.084	1094.874	824.928
331.314	17.118	1094.016	824.375
332.329	17.063	1092.886	823.186
333.343	17.184	1091.910	822.960
334.358	17.259	1091.328	822.815
335.373	17.306	1090.673	822.473
336.387	17.354	1090.167	822.253
337.402	17.378	1089.294	821.639
338.416	17.309	1088.849	820.894
339.431	17.342	1088.245	820.525
340.446	17.469	1087.625	820.597
341.460	17.532	1086.949	820.317
342.475	17.613	1086.268	820.124
343.489	17.520	1085.558	819.069
344.504	17.602	1084.321	818.457
345.519	17.580	1083.732	817.835
346.533	17.534	1083.076	817.044
347.548	17.773	1081.963	817.277
348.562	17.705	1080.878	816.060
349.577	17.503	1080.797	814.959
350.592	17.529	1079.690	814.176
351.606	17.497	1078.848	813.317
352.621	17.513	1078.318	812.923
353.635	17.580	1077.611	812.639
354.650	17.432	1076.998	811.397
355.665	17.579	1076.240	811.454
356.679	17.474	1075.567	810.377
357.694	17.505	1075.269	810.227
358.708	17.576	1074.571	809.969
359.723	17.684	1073.437	809.555
360.738	17.744	1073.187	809.576
361.752	17.720	1072.466	808.851
362.767	17.756	1071.738	808.400
363.781	17.748	1071.095	807.804
364.796	17.779	1070.713	807.591
365.810	17.737	1070.311	807.019
366.825	17.972	1069.638	807.549
367.840	17.976	1069.299	807.241
368.854	17.843	1069.221	806.483
369.869	17.925	1068.177	806.012
370.883	18.002	1066.850	805.302
371.898	17.925	1066.125	804.322
372.913	17.878	1065.894	803.853
373.927	17.983	1065.233	803.778
374.942	18.017	1064.936	803.645
375.956	17.803	1064.348	802.121
376.971	18.015	1063.218	802.195
377.986	18.114	1062.678	802.183
379.000	18.132	1062.382	801.971
380.015	18.269	1061.761	802.072
381.029	18.174	1061.199	801.134
382.044	18.046	1060.440	799.892
383.059	18.267	1059.412	800.080
384.073	18.172	1058.848	799.135
385.088	18.180	1058.037	798.490
386.102	18.104	1057.482	797.647
387.117	18.207	1055.769	796.763
388.132	18.050	1055.327	795.631
389.146	18.035	1054.288	794.704
390.161	18.220	1053.515	794.912
391.175	18.058	1052.790	793.542
392.190	18.207	1052.102	793.645
393.205	18.351	1051.112	793.498
394.219	18.345	1050.635	793.040
395.234	18.212	1049.722	791.663
396.248	18.241	1048.602	790.884
397.263	18.234	1047.600	790.023
398.278	18.178	1047.050	789.280
399.292	18.097	1046.430	788.373
400.307	17.976	1046.127	787.516
401.321	18.136	1045.292	787.554
402.336	18.022	1044.971	786.719
403.350	18.067	1043.882	786.036
404.365	18.161	1043.198	785.881
405.380	18.224	1042.795	785.799
406.394	18.187	1041.901	784.883
407.409	18.297	1041.290	784.858
408.423	18.356	1040.650	784.576
409.438	18.356	1040.258	784.212
410.453	18.488	1039.235	783.975
411.467	18.612	1038.431	783.866
412.482	18.567	1037.894	783.188
413.496	18.657	1037.108	782.933
414.511	18.585	1036.564	782.128
415.526	18.613	1036.497	782.133
416.540	18.680	1035.890	781.914
417.555	18.728	1035.110	781.475
418.569	18.731	1034.621	781.049
419.584	18.669	1034.355	780.497
420.599	18.782	1033.903	780.603
421.613	151.111	1402.132	1798.660
422.628	137.965	1455.762	1798.744
