DTS Sentinel unit serial number:	SN413079Multiplexer serial number:	ORYXHardware model number:	OX4-SRSoftware version number:	ORYX F/W v4.00 Oryx Data Collector v3.7.2.0data status	okinstallation	princeton_trtdifferential loss correction	single-endedforward channel	channel 2reverse channel	N/Adate	2019/09/19time	00:07:35forward acquisition time	60.00reverse acquisition time	0.00gamma	496.2192k internal	0.2352k external	0.2352temperature offset calibration	1.0014default loss term (dB/km)	0.3790temperature slope calibration	1.0000multiplexer offset coefficient	1.0000multiplexer slope coefficient	1.0000fibre end	0.00T internal ref (°C)	22.94T ext. ref 1 (°C)	0.75T ext. ref 2 (°C)	15.82length (m)	temperature (°C)	Stokes	anti-Stokes-747.200	21.172	0.132	-0.107
-746.185	-88.319	-0.417	0.124
-745.171	-200.000	-0.040	-0.201
-744.156	-200.000	0.011	0.366
-743.142	800.000	-0.131	0.414
-742.127	534.887	0.029	-0.069
-741.112	-139.978	0.185	-0.019
-740.098	19.510	0.155	0.124
-739.083	-77.853	-0.038	0.013
-738.069	-121.917	0.060	0.010
-737.054	-69.772	-0.138	0.052
-736.039	15.061	-0.240	0.188
-735.025	375.486	0.219	0.445
-734.010	-3.925	-0.300	-0.208
-732.996	800.000	0.147	-0.466
-731.981	70.514	-0.086	0.088
-730.966	80.659	-0.273	-0.293
-729.952	43.573	0.167	-0.152
-728.937	-1.552	-0.311	-0.219
-727.923	800.000	0.089	0.359
-726.908	40.176	-0.207	-0.186
-725.894	15.952	0.021	-0.017
-724.879	127.188	-0.098	0.124
-723.864	695.327	0.202	-0.528
-722.850	-200.000	-0.007	-0.229
-721.835	100.926	0.196	-0.227
-720.821	145.328	-0.082	-0.109
-719.806	-192.026	-0.243	0.002
-718.791	-53.149	-0.101	-0.046
-717.777	-200.000	0.033	0.161
-716.762	-91.476	-0.311	-0.089
-715.748	-200.000	-0.036	0.241
-714.733	800.000	-0.058	-0.170
-713.718	-72.911	-0.302	0.111
-712.704	-11.534	-0.169	0.110
-711.689	-200.000	-0.008	-0.137
-710.675	-8.768	-0.151	0.101
-709.660	222.576	0.064	0.102
-708.645	-116.386	-0.281	-0.052
-707.631	7.626	-0.192	-0.143
-706.616	800.000	-0.080	0.228
-705.602	3.403	-0.081	-0.059
-704.587	-200.000	0.008	0.224
-703.572	287.608	0.077	-0.139
-702.558	800.000	0.077	-0.238
-701.543	270.549	0.058	-0.101
-700.529	-82.216	0.053	0.017
-699.514	-86.478	0.195	-0.060
-698.499	-200.000	0.015	-0.080
-697.485	112.572	0.083	0.100
-696.470	-200.000	0.044	-0.251
-695.456	-200.000	-0.054	0.394
-694.441	-84.045	-0.159	-0.050
-693.426	81.715	0.103	-0.111
-692.412	-59.263	0.114	-0.049
-691.397	-200.000	0.005	-0.144
-690.383	-87.315	-0.374	0.113
-689.368	-200.000	0.014	0.092
-688.354	-25.743	0.306	0.180
-687.339	800.000	0.028	0.093
-686.324	0.225	-0.193	0.137
-685.310	-73.746	0.308	-0.112
-684.295	78.148	-0.154	-0.164
-683.281	-76.732	-0.171	-0.060
-682.266	32.158	0.157	0.135
-681.251	128.916	-0.209	-0.265
-680.237	-121.662	-0.220	0.036
-679.222	229.627	-0.100	-0.162
-678.208	37.740	-0.153	0.135
-677.193	-63.671	-0.119	0.049
-676.178	-82.265	-0.236	0.076
-675.164	-137.248	-0.286	-0.032
-674.149	61.103	-0.118	0.116
-673.135	-200.000	0.032	-0.289
-672.120	-149.749	0.125	-0.010
-671.105	167.675	0.124	-0.175
-670.091	-200.000	-0.313	0.001
-669.076	-200.000	0.037	0.305
-668.062	-41.583	-0.350	-0.179
-667.047	240.530	-0.099	-0.164
-666.032	167.200	-0.070	-0.099
-665.018	451.826	0.108	0.238
-664.003	298.608	0.245	-0.448
-662.989	305.782	-0.074	-0.137
-661.974	800.000	0.071	0.202
-660.959	-58.104	-0.168	-0.073
-659.945	-200.000	0.009	-0.188
-658.930	44.826	0.241	-0.221
-657.916	-200.000	0.021	0.297
-656.901	-82.640	0.470	0.151
-655.886	165.158	-0.159	-0.223
-654.872	800.000	0.145	0.510
-653.857	181.323	-0.165	0.241
-652.843	171.748	-0.059	0.085
-651.828	-105.480	0.120	-0.027
-650.814	-200.000	0.009	-0.170
-649.799	800.000	-0.075	0.233
-648.784	24.923	-0.132	-0.109
-647.770	68.846	0.077	-0.078
-646.755	-83.278	-0.186	0.060
-645.741	-200.000	0.044	0.350
-644.726	26.436	0.137	0.114
-643.711	-141.022	-0.076	0.008
-642.697	-18.987	0.096	-0.060
-641.682	19.779	0.220	0.176
-640.668	76.372	-0.104	0.110
-639.653	-200.000	-0.011	-0.050
-638.638	-98.080	-0.054	-0.014
-637.624	673.661	0.052	-0.133
-636.609	-12.392	0.077	0.050
-635.595	312.660	-0.053	-0.100
-634.580	462.790	-0.060	0.132
-633.565	-106.498	0.240	0.053
-632.551	-28.715	0.367	-0.210
-631.536	-200.000	0.010	0.058
-630.522	800.000	0.082	-0.251
-629.507	-79.409	0.234	0.079
-628.492	283.717	0.081	0.145
-627.478	174.416	0.078	-0.112
-626.463	-200.000	-0.045	-0.252
-625.449	-99.727	0.240	0.060
-624.434	-77.375	0.203	0.070
-623.419	-166.297	-0.142	0.006
-622.405	-156.524	0.170	0.011
-621.390	308.345	0.131	-0.243
-620.376	-82.176	0.304	-0.098
-619.361	800.000	-0.104	-0.395
-618.346	-75.642	-0.411	0.145
-617.332	-200.000	0.017	-0.088
-616.317	125.016	-0.102	0.127
-615.303	60.849	-0.216	0.213
-614.288	-200.000	-0.002	-0.057
-613.273	160.480	-0.241	0.333
-612.259	-150.022	0.320	0.025
-611.244	800.000	-0.158	-0.527
-610.230	-40.567	0.130	0.067
-609.215	-140.945	0.275	0.028
-608.201	-37.775	-0.216	0.114
-607.186	-200.000	-0.008	-0.046
-606.171	-130.018	-0.073	0.010
-605.157	-111.343	0.246	0.050
-604.142	173.994	0.051	-0.074
-603.128	800.000	-0.057	-0.195
-602.113	-8.402	-0.190	0.127
-601.098	116.226	0.169	0.205
-600.084	-52.590	-0.367	-0.168
-599.069	113.488	0.112	0.134
-598.055	-2.514	0.517	0.359
-597.040	217.803	-0.096	-0.152
-596.025	-200.000	-0.023	0.313
-595.011	-183.362	0.112	0.002
-593.996	-26.779	-0.148	0.086
-592.982	129.692	0.122	-0.155
-591.967	348.363	-0.108	-0.211
-590.952	-200.000	0.004	0.214
-589.938	288.747	-0.046	-0.083
-588.923	252.753	-0.056	0.095
-587.909	-87.123	-0.245	0.074
-586.894	454.410	0.203	-0.447
-585.879	620.294	-0.150	0.375
-584.865	-200.000	-0.062	0.357
-583.850	5.729	0.265	-0.194
-582.836	158.213	-0.291	-0.400
-581.821	-200.000	-0.023	-0.237
-580.806	-108.959	-0.125	-0.026
-579.792	-200.000	-0.040	0.331
-578.777	-200.000	0.006	0.202
-577.763	-84.460	-0.111	0.035
-576.748	767.669	-0.128	0.346
-575.733	-175.348	0.206	0.006
-574.719	-78.492	0.112	-0.038
-573.704	-42.054	-0.214	0.108
-572.690	-117.151	0.055	-0.010
-571.675	800.000	0.058	0.218
-570.661	-85.785	0.141	-0.043
-569.646	-111.399	0.239	-0.048
-568.631	-66.645	-0.184	-0.072
-567.617	800.000	-0.055	-0.205
-566.602	-109.441	-0.482	0.101
-565.588	800.000	0.092	-0.256
-564.573	800.000	0.079	0.224
-563.558	-97.507	-0.187	0.048
-562.544	-200.000	0.000	0.150
-561.529	159.411	0.115	0.158
-560.515	-16.724	-0.128	0.080
-559.500	800.000	-0.016	0.047
-558.485	27.251	-0.156	-0.130
-557.471	800.000	0.067	0.185
-556.456	-112.812	0.105	-0.021
-555.442	72.408	0.226	-0.233
-554.427	-75.878	-0.050	-0.017
-553.412	-200.000	-0.012	0.074
-552.398	-73.100	0.334	-0.121
-551.383	278.391	0.146	-0.258
-550.369	85.183	-0.202	-0.220
-549.354	-169.880	-0.064	-0.002
-548.339	-200.000	0.028	0.169
-547.325	-8.818	-0.072	0.047
-546.310	800.000	0.064	0.269
-545.296	-144.021	0.109	-0.010
-544.281	-52.624	0.155	-0.071
-543.266	-200.000	-0.020	0.342
-542.252	-200.000	-0.014	-0.072
-541.237	184.337	-0.145	-0.213
-540.223	4.695	0.007	-0.005
-539.208	0.169	-0.171	-0.121
-538.193	80.694	0.199	-0.213
-537.179	200.981	0.094	-0.144
-536.164	-18.819	0.146	-0.090
-535.150	19.224	-0.253	-0.201
-534.135	271.557	-0.303	0.529
-533.121	-61.448	0.190	0.079
-532.106	333.917	-0.129	0.246
-531.091	-200.000	0.013	0.239
-530.077	-146.742	-0.378	0.032
-529.062	106.877	0.052	-0.061
-528.048	81.554	0.313	-0.335
-527.033	-40.281	-0.212	-0.109
-526.018	160.710	0.255	-0.352
-525.004	-22.782	-0.299	-0.179
-523.989	330.910	-0.064	-0.121
-522.975	-24.624	0.240	0.141
-521.960	21.999	0.073	-0.059
-520.945	-150.158	0.261	0.020
-519.931	75.173	-0.165	-0.172
-518.916	-200.000	-0.011	-0.324
-517.902	-55.966	0.086	0.038
-516.887	-30.652	0.131	-0.073
-515.872	285.542	0.187	-0.333
-514.858	106.849	0.120	-0.140
-513.843	-77.115	0.178	-0.061
-512.829	800.000	0.143	0.524
-511.814	33.990	0.238	-0.205
-510.799	59.826	0.158	0.154
-509.785	-200.000	-0.030	0.186
-508.770	800.000	-0.023	-0.095
-507.756	-125.403	0.516	0.078
-506.741	44.022	-0.216	-0.195
-505.726	114.797	-0.070	-0.085
-504.712	-102.302	-0.107	-0.025
-503.697	35.318	0.352	0.305
-502.683	671.513	-0.071	-0.181
-501.668	-200.000	0.003	-0.205
-500.653	-140.696	0.198	-0.020
-499.639	91.163	0.343	-0.380
-498.624	-200.000	0.038	0.248
-497.610	14.934	0.081	-0.063
-496.595	59.378	0.154	0.150
-495.581	-60.985	-0.224	-0.093
-494.566	563.888	-0.112	0.269
-493.551	-115.412	-0.263	0.049
-492.537	-163.469	-0.219	-0.010
-491.522	246.558	-0.069	-0.116
-490.508	-200.000	-0.006	-0.094
-489.493	12.957	-0.171	0.131
-488.478	-147.815	-0.210	0.017
-487.464	440.244	-0.089	0.192
-486.449	655.092	-0.029	-0.074
-485.435	-51.373	-0.161	-0.074
-484.420	800.000	-0.055	-0.159
-483.405	-102.781	-0.153	-0.036
-482.391	254.476	-0.151	-0.255
-481.376	83.456	0.087	0.094
-480.362	47.612	0.118	0.108
-479.347	-110.817	-0.512	-0.104
-478.332	-28.382	0.186	0.106
-477.318	246.882	-0.078	0.131
-476.303	-200.000	-0.011	0.091
-475.289	-104.966	-0.286	0.065
-474.274	-85.377	-0.109	-0.033
-473.259	-40.761	-0.252	0.129
-472.245	133.451	-0.154	-0.197
-471.230	233.951	-0.165	-0.268
-470.216	-36.726	0.055	0.029
-469.201	-79.136	0.324	-0.109
-468.186	-200.000	0.024	-0.221
-467.172	298.006	-0.094	-0.170
-466.157	-167.211	-0.176	-0.007
-465.143	171.826	0.078	-0.110
-464.128	-89.780	-0.236	-0.068
-463.113	49.900	0.285	-0.266
-462.099	-200.000	-0.017	-0.184
-461.084	-19.466	-0.071	0.043
-460.070	-200.000	0.037	0.272
-459.055	-101.331	0.250	0.060
-458.040	-7.986	0.028	-0.019
-457.026	-51.104	-0.241	0.112
-456.011	28.252	-0.151	0.126
-454.997	800.000	-0.078	-0.220
-453.982	-200.000	-0.039	0.204
-452.968	19.873	-0.076	0.060
-451.953	-200.000	-0.067	-0.313
-450.938	-113.872	0.152	0.029
-449.924	-200.000	0.026	0.300
-448.909	-86.075	0.396	-0.121
-447.895	-178.775	-0.220	-0.005
-446.880	-200.000	0.034	-0.239
-445.865	24.323	-0.141	0.115
-444.851	-68.398	-0.308	-0.118
-443.836	-100.065	0.461	-0.113
-442.822	222.614	-0.097	0.155
-441.807	-133.374	-0.133	-0.017
-440.792	72.706	0.240	-0.247
-439.778	234.766	0.073	-0.118
-438.763	35.942	-0.210	-0.182
-437.749	145.385	-0.194	-0.257
-436.734	616.867	0.028	-0.068
-435.719	-200.000	0.003	0.026
-434.705	54.581	-0.356	-0.339
-433.690	104.418	-0.165	-0.192
-432.676	-10.233	-0.470	0.308
-431.661	-33.004	0.353	-0.193
-430.646	92.973	-0.091	-0.101
-429.632	-10.559	0.244	-0.159
-428.617	-101.455	-0.360	0.086
-427.603	-200.000	0.010	0.116
-426.588	213.159	0.175	-0.273
-425.573	-38.111	0.284	-0.149
-424.559	-200.000	0.044	0.264
-423.544	800.000	-0.059	-0.166
-422.530	162.278	-0.071	-0.098
-421.515	569.294	-0.073	0.175
-420.500	8.780	-0.303	-0.225
-419.486	102.586	0.164	-0.189
-418.471	-20.809	-0.200	-0.121
-417.457	-93.315	-0.237	0.065
-416.442	-106.853	0.399	-0.087
-415.428	349.733	-0.199	0.386
-414.413	582.873	0.153	-0.369
-413.398	124.561	-0.115	-0.143
-412.384	113.772	0.151	-0.180
-411.369	-31.302	-0.493	0.273
-410.355	-200.000	-0.034	-0.312
-409.340	51.910	-0.009	0.009
-408.325	-200.000	0.043	-0.433
-407.311	-200.000	-0.011	-0.098
-406.296	-71.891	-0.223	0.082
-405.282	-145.956	0.268	-0.023
-404.267	117.941	0.103	0.125
-403.252	31.686	-0.076	-0.064
-402.238	-117.603	-0.130	-0.023
-401.223	513.871	-0.123	0.283
-400.209	-200.000	-0.032	0.217
-399.194	-30.700	-0.130	-0.072
-398.179	-200.000	-0.070	0.407
-397.165	264.926	-0.212	-0.364
-396.150	-200.000	0.073	-0.453
-395.136	85.193	-0.171	0.185
-394.121	-189.710	-0.329	-0.004
-393.106	-200.000	-0.039	-0.335
-392.092	89.356	0.252	-0.277
-391.077	800.000	0.064	-0.210
-390.063	-200.000	-0.023	0.182
-389.048	787.880	0.105	-0.285
-388.033	-74.795	-0.301	-0.106
-387.019	656.694	0.043	-0.108
-386.004	-183.042	-0.204	0.004
-384.990	-22.315	-0.197	0.118
-383.975	81.202	0.123	0.130
-382.960	-134.777	-0.089	0.011
-381.946	8.142	-0.203	0.150
-380.931	800.000	-0.006	-0.024
-379.917	92.774	-0.251	0.278
-378.902	-117.438	-0.231	0.041
-377.888	-117.013	0.093	-0.017
-376.873	123.738	0.248	-0.306
-375.858	37.506	-0.315	-0.274
-374.844	800.000	-0.058	0.231
-373.829	800.000	-0.043	-0.137
-372.815	-38.906	0.162	0.084
-371.800	24.596	0.094	-0.076
-370.785	169.875	0.198	0.278
-369.771	133.706	0.219	-0.278
-368.756	-200.000	-0.030	0.236
-367.742	73.075	-0.137	-0.141
-366.727	-71.243	0.250	-0.092
-365.712	-88.499	-0.336	0.098
-364.698	267.970	0.114	0.195
-363.683	18.454	0.183	0.144
-362.669	-200.000	0.017	-0.150
-361.654	141.799	-0.097	0.126
-360.639	-55.961	0.050	0.022
-359.625	41.901	0.185	0.165
-358.610	-124.486	0.160	0.024
-357.596	440.258	0.214	0.460
-356.581	-89.324	-0.254	0.073
-355.566	658.533	0.113	0.285
-354.552	-52.821	0.179	0.081
-353.537	83.021	-0.191	0.204
-352.523	9.861	-0.086	0.064
-351.508	-108.869	-0.046	-0.010
-350.493	-102.963	-0.055	0.013
-349.479	-43.624	-0.336	-0.166
-348.464	-136.121	0.629	0.072
-347.450	-151.792	-0.445	0.032
-346.435	-200.000	0.031	-0.148
-345.420	-200.000	-0.013	0.251
-344.406	-20.042	0.034	0.021
-343.391	30.459	0.279	-0.234
-342.377	462.211	0.055	-0.120
-341.362	-13.666	0.161	-0.102
-340.348	-58.268	-0.259	0.111
-339.333	60.940	-0.165	-0.161
-338.318	-200.000	-0.015	-0.179
-337.304	800.000	-0.011	-0.037
-336.289	-71.950	-0.126	-0.046
-335.275	-200.000	0.025	0.182
-334.260	-156.062	-0.175	-0.011
-333.245	223.737	0.157	-0.249
-332.231	40.717	-0.128	0.113
-331.216	-200.000	0.011	0.075
-330.202	-126.870	-0.440	0.064
-329.187	-200.000	0.001	-0.098
-328.172	190.541	0.037	-0.054
-327.158	98.807	0.125	-0.141
-326.143	27.715	0.144	-0.119
-325.129	88.372	-0.400	0.436
-324.114	83.598	-0.233	0.250
-323.099	35.751	0.347	0.300
-322.085	-45.433	0.114	0.056
-321.070	289.942	-0.160	0.286
-320.056	-10.104	0.205	0.134
-319.041	354.720	-0.046	-0.089
-318.026	-64.386	0.241	-0.096
-317.012	346.330	0.050	0.097
-315.997	800.000	-0.023	0.063
-314.983	-42.958	0.190	0.095
-313.968	-200.000	-0.030	-0.261
-312.953	-25.088	0.125	-0.073
-311.939	-200.000	-0.018	-0.245
-310.924	158.138	0.104	0.142
-309.910	-146.833	-0.223	0.019
-308.895	-92.578	-0.192	0.053
-307.880	113.697	-0.067	-0.080
-306.866	0.586	0.182	0.127
-305.851	764.766	0.046	-0.123
-304.837	-165.138	0.103	0.004
-303.822	337.165	0.077	0.146
-302.807	-16.544	0.160	0.099
-301.793	-200.000	-0.000	-0.256
-300.778	368.379	0.157	0.312
-299.764	191.649	0.014	-0.021
-298.749	422.197	-0.146	0.308
-297.735	-62.548	-0.228	-0.093
-296.720	-200.000	-0.025	0.192
-295.705	-200.000	0.034	-0.270
-294.691	-79.529	0.540	0.179
-293.676	800.000	-0.044	0.124
-292.662	-25.569	0.238	0.138
-291.647	-106.152	0.090	0.020
-290.632	-81.727	-0.157	0.050
-289.618	800.000	0.053	0.201
-288.603	-125.775	-0.074	0.011
-287.589	-17.526	-0.046	0.029
-286.574	-164.477	0.279	0.012
-285.559	14.441	-0.328	0.251
-284.545	30.409	-0.268	0.224
-283.530	-89.381	0.249	-0.072
-282.516	121.804	-0.192	0.235
-281.501	-48.700	0.204	-0.096
-280.486	484.005	0.044	0.097
-279.472	-138.154	0.247	0.027
-278.457	-155.861	-0.193	0.012
-277.443	-97.977	0.296	-0.075
-276.428	-58.235	0.043	-0.018
-275.413	56.158	-0.191	0.182
-274.399	-68.847	-0.335	0.127
-273.384	158.017	-0.031	0.042
-272.370	6.504	0.134	-0.097
-271.355	113.298	-0.155	-0.184
-270.340	234.544	0.173	0.280
-269.326	293.425	-0.132	0.237
-268.311	666.264	0.064	0.162
-267.297	25.789	0.014	0.012
-266.282	248.083	-0.079	0.130
-265.267	-36.800	-0.365	-0.192
-264.253	-137.797	0.267	0.029
-263.238	-16.649	-0.092	-0.057
-262.224	-87.802	-0.076	-0.022
-261.209	33.502	-0.175	0.149
-260.195	-153.292	0.228	0.016
-259.180	255.568	-0.159	-0.266
-258.165	260.715	-0.052	-0.089
-257.151	248.482	0.081	-0.135
-256.136	-200.000	-0.013	0.092
-255.122	149.664	-0.321	-0.426
-254.107	-200.000	-0.020	-0.145
-253.092	800.000	0.031	0.098
-252.078	-200.000	0.002	0.217
-251.063	-62.230	-0.247	0.101
-250.049	49.563	-0.222	0.205
-249.034	-200.000	0.010	-0.189
-248.019	-122.113	-0.190	0.030
-247.005	155.847	0.273	0.368
-245.990	800.000	-0.046	-0.173
-244.976	20.833	0.208	0.165
-243.961	-101.027	-0.120	-0.029
-242.946	114.735	0.252	-0.301
-241.932	-80.237	0.316	-0.104
-240.917	-119.484	-0.278	-0.047
-239.903	179.821	-0.213	-0.305
-238.888	25.923	0.270	0.220
-237.873	469.462	0.042	-0.093
-236.859	86.643	-0.286	0.308
-235.844	800.000	-0.165	-0.564
-234.830	-21.734	0.304	0.181
-233.815	-171.895	-0.186	-0.006
-232.800	67.247	0.222	-0.221
-231.786	22.761	-0.164	0.131
-230.771	-200.000	0.037	0.201
-229.757	125.896	0.240	0.297
-228.742	318.506	0.170	-0.314
-227.727	143.873	0.108	0.141
-226.713	-103.221	-0.207	-0.048
-225.698	-125.958	0.197	-0.029
-224.684	-200.000	0.022	-0.276
-223.669	359.788	0.103	-0.202
-222.655	36.607	0.059	0.051
-221.640	-107.785	-0.358	0.076
-220.625	-79.831	0.137	-0.045
-219.611	58.147	0.152	0.146
-218.596	800.000	-0.056	0.185
-217.582	98.344	0.316	0.356
-216.567	-144.361	-0.424	-0.039
-215.552	147.020	-0.300	-0.394
-214.538	-180.547	0.112	-0.002
-213.523	-200.000	0.041	-0.217
-212.509	42.537	-0.083	0.074
-211.494	692.359	-0.109	-0.279
-210.479	125.143	-0.092	-0.113
-209.465	272.959	0.035	-0.060
-208.450	131.817	-0.060	0.075
-207.436	800.000	-0.050	-0.194
-206.421	-200.000	-0.021	0.112
-205.406	15.699	0.067	0.052
-204.392	49.447	0.023	0.021
-203.377	116.450	0.041	0.049
-202.363	111.004	0.149	0.175
-201.348	-196.295	0.265	-0.002
-200.333	132.335	-0.302	0.380
-199.319	56.190	0.079	0.075
-198.304	-69.933	0.198	0.074
-197.290	127.866	0.182	0.226
-196.275	-105.287	0.266	-0.059
-195.260	26.689	-0.255	0.209
-194.246	-71.700	0.268	0.098
-193.231	83.825	0.201	-0.214
-192.217	-74.479	0.092	-0.032
-191.202	-200.000	-0.032	0.322
-190.187	63.557	0.115	0.112
-189.173	296.900	0.107	-0.191
-188.158	-53.034	-0.156	0.070
-187.144	-4.740	0.164	-0.110
-186.129	10.501	0.158	0.117
-185.114	-200.000	0.001	-0.114
-184.100	185.469	0.174	-0.252
-183.085	360.651	-0.076	0.149
-182.071	-107.495	-0.148	0.032
-181.056	-200.000	-0.024	-0.245
-180.042	231.253	-0.059	-0.094
-179.027	-188.047	0.438	0.005
-178.012	258.674	-0.177	-0.298
-176.998	60.629	0.055	0.054
-175.983	30.400	0.132	0.110
-174.969	156.847	-0.218	0.293
-173.954	-98.563	0.197	-0.049
-172.939	800.000	0.076	0.264
-171.925	-200.000	0.059	0.264
-170.910	-60.039	-0.095	0.040
-169.896	-34.364	-0.114	0.061
-168.881	387.632	0.115	-0.233
-167.866	60.282	0.191	-0.184
-166.852	80.226	-0.130	-0.137
-165.837	800.000	-0.032	0.092
-164.823	283.191	0.103	0.180
-163.808	166.225	-0.015	-0.021
-162.793	800.000	0.041	0.175
-161.779	326.851	-0.181	0.338
-160.764	800.000	0.038	0.159
-159.750	-109.027	0.280	0.058
-158.735	168.769	0.038	-0.053
-157.720	-200.000	-0.016	-0.073
-156.706	-200.000	0.078	0.376
-155.691	-200.000	-0.003	0.064
-154.677	-200.000	-0.001	-0.292
-153.662	-17.278	0.179	0.110
-152.647	271.714	0.063	-0.108
-151.633	-86.449	0.233	-0.070
-150.618	800.000	0.064	-0.254
-149.604	800.000	-0.055	0.196
-148.589	663.161	-0.091	-0.229
-147.574	-28.923	0.103	-0.058
-146.560	34.994	0.068	-0.058
-145.545	72.261	-0.142	-0.145
-144.531	267.553	0.148	-0.252
-143.516	35.763	0.103	0.088
-142.502	-69.962	-0.380	-0.141
-141.487	-151.710	0.134	0.010
-140.472	1.106	-0.201	0.140
-139.458	81.964	-0.162	-0.171
-138.443	800.000	0.021	-0.055
-137.429	-138.306	-0.131	-0.014
-136.414	800.000	-0.078	-0.253
-135.399	4.376	-0.158	0.113
-134.385	292.829	-0.133	0.236
-133.370	-192.405	-0.077	0.001
-132.356	-200.000	0.033	0.159
-131.341	42.675	0.240	0.212
-130.326	205.309	0.057	0.086
-129.312	-4.344	-0.291	-0.196
-128.297	55.822	0.065	0.061
-127.283	-105.681	-0.214	-0.047
-126.268	151.477	-0.148	-0.196
-125.253	-200.000	-0.045	0.400
-124.239	800.000	0.050	0.206
-123.224	-118.298	0.158	-0.027
-122.210	126.096	0.110	0.135
-121.195	125.639	-0.082	0.100
-120.180	60.253	0.050	0.048
-119.166	800.000	0.061	-0.247
-118.151	68.230	-0.080	-0.079
-117.137	148.280	0.149	-0.196
-116.122	10.234	0.322	-0.239
-115.107	44.162	0.102	0.091
-114.093	-200.000	-0.033	0.181
-113.078	-200.000	-0.011	0.158
-112.064	264.790	0.105	-0.178
-111.049	-89.672	-0.133	-0.038
-110.034	369.969	0.113	0.222
-109.020	3.486	0.057	-0.041
-108.005	-200.000	0.040	0.205
-106.991	-1.088	-0.252	-0.173
-105.976	207.278	-0.043	0.065
-104.962	-85.333	0.313	0.095
-103.947	800.000	0.054	-0.193
-102.932	-174.332	-0.207	-0.006
-101.918	-200.000	0.006	-0.139
-100.903	-200.000	-0.016	-0.080
-99.889	-24.028	0.331	-0.192
-98.874	-114.491	0.324	-0.060
-97.859	-200.000	-0.011	0.165
-96.845	-72.705	-0.170	0.061
-95.830	79.542	-0.080	-0.083
-94.816	-41.553	0.126	0.063
-93.801	154.875	-0.065	0.086
-92.786	-19.994	0.313	0.188
-91.772	800.000	-0.105	-0.308
-90.757	509.533	0.120	0.271
-89.743	97.168	0.061	-0.068
-88.728	-74.731	0.083	0.029
-87.713	800.000	-0.075	0.300
-86.699	-200.000	-0.301	-0.000
-85.684	535.102	0.068	-0.156
-84.670	19.055	-0.181	0.141
-83.655	161.347	0.227	0.309
-82.640	-66.322	-0.284	0.110
-81.626	623.923	0.022	0.054
-80.611	231.528	-0.282	-0.449
-79.597	-50.988	-0.098	-0.045
-78.582	-51.298	0.433	-0.197
-77.567	-63.675	0.287	-0.114
-76.553	-32.438	0.190	0.103
-75.538	50.006	0.226	0.207
-74.524	-138.261	0.231	-0.025
-73.509	-36.685	0.122	-0.064
-72.494	-49.302	0.146	0.068
-71.480	-16.176	0.061	0.038
-70.465	793.865	-0.023	0.060
-69.451	45.440	0.163	0.146
-68.436	24.515	-0.128	-0.103
-67.422	11.457	0.166	-0.124
-66.407	-83.439	-0.267	-0.083
-65.392	36.942	-0.014	-0.012
-64.378	-91.864	0.182	-0.050
-63.363	-127.425	-0.188	0.027
-62.349	-137.996	0.295	0.032
-61.334	65.478	-1.202	-1.182
-60.319	141.965	0.592	0.762
-59.305	397.403	-0.647	-1.314
-58.290	647.768	0.706	1.753
-57.276	800.000	0.521	1.662
-56.261	-200.000	129.237	693.650
-55.246	403.052	1627.282	3324.120
-54.232	137.011	2788.834	3539.177
-53.217	89.914	2300.836	2495.693
-52.203	32.141	1900.228	1591.349
-51.188	26.004	1695.066	1372.933
-50.173	23.824	1656.765	1325.618
-49.159	45.878	1726.908	1550.861
-48.144	43.058	1737.994	1539.254
-47.130	25.502	1689.107	1364.077
-46.115	23.015	1673.675	1332.838
-45.100	22.857	1668.252	1327.277
-44.086	22.828	1665.463	1324.787
-43.071	22.786	1663.473	1322.837
-42.057	22.758	1661.338	1320.877
-41.042	22.784	1658.975	1319.142
-40.027	22.756	1657.357	1317.589
-39.013	22.819	1655.527	1316.557
-37.998	22.716	1654.282	1314.746
-36.984	22.868	1652.698	1314.567
-35.969	22.955	1651.054	1313.853
-34.954	22.978	1649.296	1312.572
-33.940	22.914	1647.815	1310.869
-32.925	22.876	1646.155	1309.214
-31.911	22.845	1644.636	1307.722
-30.896	22.870	1642.811	1306.405
-29.881	22.979	1641.001	1305.716
-28.867	22.919	1640.243	1304.618
-27.852	22.889	1638.593	1303.039
-26.838	22.922	1636.962	1301.927
-25.823	23.002	1635.686	1301.455
-24.809	22.945	1634.520	1300.054
-23.794	22.983	1632.885	1298.980
-22.779	22.990	1631.306	1297.723
-21.765	22.954	1629.511	1295.978
-20.750	22.884	1628.391	1294.529
-19.736	22.940	1627.435	1294.126
-18.721	22.960	1625.752	1292.880
-17.706	23.033	1623.990	1291.962
-16.692	22.930	1622.725	1290.150
-15.677	23.040	1621.280	1289.754
-14.663	23.016	1620.055	1288.556
-13.648	22.988	1618.292	1286.895
-12.633	22.953	1617.079	1285.625
-11.619	22.968	1615.289	1284.261
-10.604	22.945	1613.950	1282.983
-9.590	23.002	1612.839	1282.456
-8.575	22.960	1611.928	1281.378
-7.560	23.012	1610.467	1280.545
-6.546	23.005	1609.911	1279.998
-5.531	23.042	1607.972	1278.676
-4.517	22.917	1607.193	1277.099
-3.502	22.918	1606.104	1276.191
-2.487	23.038	1603.938	1275.290
-1.473	22.542	1591.513	1261.805
-0.458	19.283	1572.457	1223.549
0.556	14.384	1573.209	1189.367
1.571	12.048	1596.926	1190.247
2.586	11.665	1608.574	1196.016
3.600	10.911	1555.283	1150.954
4.615	6.361	1450.118	1042.950
5.629	1.670	1392.556	971.572
6.644	0.774	1386.449	961.533
7.659	0.774	1385.669	960.904
8.673	0.750	1384.470	959.835
9.688	0.712	1382.134	957.887
10.702	0.519	1378.429	954.021
11.717	2.847	1381.535	970.816
12.731	9.142	1391.156	1017.477
13.746	15.164	1399.983	1062.134
14.761	17.190	1402.390	1076.722
15.775	16.695	1401.185	1072.564
16.790	15.709	1398.188	1063.936
17.804	14.938	1395.988	1057.297
18.819	14.505	1394.604	1053.420
19.834	14.338	1393.289	1051.281
20.848	14.138	1391.910	1048.885
21.863	13.811	1390.459	1045.642
22.877	13.662	1389.699	1044.037
23.892	13.634	1388.465	1042.843
24.907	13.624	1387.652	1042.078
25.921	13.684	1386.700	1041.646
26.936	13.777	1385.172	1040.990
27.950	13.735	1384.453	1040.095
28.965	13.697	1384.112	1039.507
29.980	13.765	1383.403	1039.313
30.994	13.808	1381.946	1038.391
32.009	13.757	1381.127	1037.365
33.023	13.894	1379.576	1036.965
34.038	13.956	1377.885	1035.991
35.053	13.764	1377.502	1034.411
36.067	13.799	1376.383	1033.698
37.082	13.828	1375.095	1032.818
38.096	13.803	1374.455	1032.094
39.111	13.822	1373.477	1031.385
40.126	13.804	1372.896	1030.749
41.140	13.693	1372.098	1029.365
42.155	13.624	1371.685	1028.538
43.169	13.595	1371.686	1028.264
44.184	13.645	1371.134	1028.075
45.199	13.666	1370.561	1027.684
46.213	13.673	1369.943	1027.172
47.228	13.828	1368.744	1027.140
48.242	13.813	1367.489	1026.017
49.257	13.685	1366.044	1024.049
50.271	13.735	1364.738	1023.288
51.286	13.793	1363.108	1022.334
52.301	13.753	1362.423	1021.482
53.315	13.675	1361.367	1020.120
54.330	13.765	1360.324	1019.800
55.344	13.614	1359.383	1018.079
56.359	13.613	1358.112	1017.034
57.374	13.610	1357.344	1016.349
58.388	13.602	1356.430	1015.523
59.403	13.560	1356.270	1015.056
60.417	13.675	1354.855	1014.614
61.432	13.611	1354.551	1013.903
62.447	13.578	1353.299	1012.674
63.461	13.576	1351.710	1011.386
64.476	13.624	1351.470	1011.410
65.490	13.601	1349.878	1009.989
66.505	13.607	1348.168	1008.654
67.520	13.658	1346.701	1007.778
68.534	13.601	1346.051	1006.858
69.549	13.596	1345.026	1005.968
70.563	13.678	1343.631	1005.334
71.578	13.599	1342.876	1004.205
72.593	13.542	1342.034	1003.140
73.607	13.564	1341.007	1002.412
74.622	13.599	1340.068	1001.833
75.636	13.575	1339.514	1001.187
76.651	13.682	1338.372	1000.890
77.666	13.467	1338.346	999.485
78.680	13.455	1337.959	999.033
79.695	13.652	1336.405	998.974
80.709	13.578	1336.135	998.237
81.724	13.630	1335.015	997.629
82.739	13.692	1334.063	997.201
83.753	13.737	1332.990	996.581
84.768	13.730	1331.733	995.507
85.782	13.774	1330.745	994.945
86.797	13.761	1329.288	993.693
87.812	13.658	1327.741	991.830
88.826	13.555	1327.162	990.694
89.841	13.660	1326.140	990.473
90.855	13.869	1324.745	990.591
91.870	13.751	1323.756	989.056
92.884	13.792	1322.945	988.608
93.899	13.782	1322.278	987.962
94.914	13.821	1321.408	987.457
95.928	13.778	1320.849	986.695
96.943	13.818	1319.578	985.900
97.957	13.732	1318.913	984.807
98.972	13.817	1317.761	984.360
99.987	13.774	1316.556	983.117
101.001	13.772	1315.596	982.301
102.016	13.858	1315.033	982.306
103.030	13.777	1314.018	980.981
104.045	13.840	1313.153	980.619
105.060	13.843	1311.514	979.329
106.074	13.693	1310.604	977.675
107.089	13.731	1308.898	976.543
108.103	13.694	1307.485	975.183
109.118	13.716	1306.469	974.471
110.133	13.585	1305.604	972.970
111.147	13.740	1303.568	972.272
112.162	13.725	1302.287	971.143
113.176	13.747	1301.338	970.478
114.191	13.764	1300.106	969.572
115.206	13.770	1299.284	968.909
116.220	13.684	1297.816	967.227
117.235	13.747	1296.605	966.605
118.249	13.694	1296.071	965.816
119.264	13.764	1294.564	965.016
120.279	13.717	1293.465	963.836
121.293	13.777	1292.350	963.270
122.308	13.718	1291.838	962.457
123.322	13.682	1290.588	961.234
124.337	13.767	1289.431	960.778
125.352	13.722	1288.195	959.513
126.366	13.801	1287.155	959.107
127.381	13.695	1286.380	957.832
128.395	13.624	1285.166	956.435
129.410	13.700	1284.506	956.298
130.424	13.668	1283.693	955.424
131.439	13.690	1282.239	954.386
132.454	13.730	1281.037	953.639
133.468	13.706	1280.360	952.912
134.483	13.793	1279.813	952.917
135.497	13.730	1278.988	951.860
136.512	13.765	1277.163	950.616
137.527	13.745	1276.032	949.578
138.541	13.729	1274.611	948.343
139.556	13.767	1273.155	947.391
140.570	13.732	1272.398	946.544
141.585	13.898	1271.134	946.469
142.600	13.842	1269.814	945.086
143.614	13.928	1269.061	944.925
144.629	14.020	1267.729	944.377
145.643	14.032	1266.335	943.321
146.658	13.913	1265.188	941.709
147.673	13.943	1263.900	940.838
148.687	13.866	1263.024	939.664
149.702	13.851	1261.840	938.615
150.716	13.959	1260.363	938.046
151.731	13.882	1259.432	936.833
152.746	13.910	1258.039	935.875
153.760	13.952	1256.740	935.061
154.775	13.931	1255.862	934.204
155.789	14.023	1254.638	933.728
156.804	14.120	1253.887	933.634
157.819	13.917	1252.897	931.674
158.833	14.157	1251.399	931.822
159.848	14.101	1250.823	930.996
160.862	14.017	1249.856	929.727
161.877	14.054	1248.458	928.811
162.892	13.926	1247.530	927.321
163.906	14.101	1246.167	927.206
164.921	13.946	1245.718	925.922
165.935	14.026	1244.720	925.545
166.950	14.090	1244.098	925.356
167.964	14.013	1243.329	924.276
168.979	14.125	1242.257	924.019
169.994	14.041	1241.980	923.267
171.008	14.084	1240.931	922.643
172.023	14.183	1239.724	922.210
173.037	14.235	1239.188	922.019
174.052	14.219	1238.139	921.069
175.067	14.203	1236.863	919.949
176.081	14.188	1236.066	919.193
177.096	14.160	1235.322	918.402
178.110	14.174	1234.403	917.714
179.125	14.140	1232.716	916.191
180.140	14.192	1231.728	915.665
181.154	14.328	1230.622	915.507
182.169	14.161	1229.738	913.855
183.183	14.225	1228.375	913.110
184.198	14.280	1227.274	912.515
185.213	14.277	1226.110	911.550
186.227	14.278	1225.139	910.751
187.242	14.314	1224.249	910.208
188.256	14.337	1222.923	909.268
189.271	14.431	1221.908	908.946
190.286	14.310	1221.037	907.558
191.300	14.276	1220.130	906.615
192.315	14.200	1219.802	905.878
193.329	14.186	1219.138	905.229
194.344	14.337	1218.191	905.267
195.359	14.383	1217.343	904.810
196.373	14.331	1216.959	904.161
197.388	14.443	1216.573	904.402
198.402	14.471	1215.814	903.909
199.417	14.491	1215.467	903.677
200.432	14.486	1214.627	902.946
201.446	14.570	1213.835	902.730
202.461	14.560	1212.561	901.651
203.475	14.589	1211.600	901.012
204.490	14.598	1210.229	899.961
205.504	14.559	1209.733	899.302
206.519	14.669	1208.090	898.596
207.534	14.605	1206.854	897.250
208.548	14.512	1206.322	896.280
209.563	14.598	1205.135	895.779
210.577	14.663	1204.236	895.380
211.592	14.633	1203.580	894.652
212.607	14.654	1202.739	894.056
213.621	14.801	1201.501	893.845
214.636	14.721	1200.819	892.835
215.650	14.747	1200.195	892.430
216.665	14.795	1198.859	891.612
217.680	14.843	1197.886	891.063
218.694	14.887	1197.162	890.680
219.709	14.879	1196.528	890.088
220.723	14.730	1196.047	888.858
221.738	14.833	1194.789	888.394
222.753	14.844	1194.126	887.881
223.767	14.803	1193.857	887.386
224.782	14.941	1193.197	887.545
225.796	14.923	1192.242	886.662
226.811	14.974	1191.402	886.230
227.826	14.982	1190.908	885.828
228.840	14.893	1190.367	884.876
229.855	14.935	1189.136	884.103
230.869	15.003	1188.422	883.854
231.884	14.980	1187.830	883.212
232.899	15.046	1186.611	882.574
233.913	15.070	1186.105	882.247
234.928	14.832	1185.556	880.510
235.942	14.909	1184.536	880.077
236.957	14.913	1183.648	879.361
237.972	15.009	1183.186	879.445
238.986	14.955	1182.444	878.531
240.001	15.028	1181.619	878.227
241.015	15.103	1180.603	877.788
242.030	15.111	1179.836	877.182
243.045	15.002	1179.358	876.179
244.059	15.100	1178.842	876.229
245.074	15.071	1177.708	875.156
246.088	15.207	1176.684	875.028
247.103	15.148	1176.360	874.403
248.117	15.196	1175.180	873.700
249.132	15.257	1174.600	873.505
250.147	15.355	1173.757	873.311
251.161	15.397	1172.847	872.779
252.176	15.338	1172.326	872.005
253.190	15.317	1171.825	871.445
254.205	15.317	1171.364	871.028
255.220	15.383	1170.696	870.796
256.234	15.422	1169.967	870.380
257.249	15.508	1169.108	870.106
258.263	15.428	1168.889	869.450
259.278	15.537	1167.784	869.118
260.293	15.518	1167.383	868.645
261.307	15.579	1166.688	868.368
262.322	15.499	1166.093	867.433
263.336	15.685	1165.080	867.565
264.351	15.582	1164.981	866.882
265.366	15.567	1164.250	866.181
266.380	15.652	1163.322	865.853
267.395	15.669	1162.596	865.325
268.409	15.581	1161.818	864.217
269.424	15.690	1161.367	864.365
270.439	15.612	1160.689	863.380
271.453	15.691	1159.850	863.088
272.468	15.602	1159.149	862.035
273.482	15.696	1157.825	861.453
274.497	15.641	1157.465	860.830
275.512	15.700	1156.688	860.476
276.526	15.768	1156.076	860.290
277.541	15.581	1155.581	858.894
278.555	15.686	1155.017	858.934
279.570	15.699	1154.344	858.424
280.585	15.873	1153.174	858.366
281.599	15.846	1152.206	857.430
282.614	15.863	1151.243	856.724
283.628	15.758	1150.448	855.523
284.643	15.900	1148.975	855.073
285.657	15.853	1148.667	854.532
286.672	15.852	1147.855	853.845
287.687	15.957	1146.453	853.257
288.701	15.783	1146.217	852.124
289.716	15.862	1145.347	851.803
290.730	15.982	1144.223	851.501
291.745	15.907	1144.035	850.902
292.760	16.091	1142.997	850.988
293.774	15.927	1142.989	850.078
294.789	16.103	1141.859	850.047
295.803	16.059	1140.970	849.088
296.818	16.105	1139.987	848.516
297.833	16.107	1139.090	847.780
298.847	16.016	1139.043	847.216
299.862	16.075	1138.054	846.701
300.876	16.139	1137.463	846.507
301.891	16.120	1136.884	845.906
302.906	16.155	1136.186	845.486
303.920	16.150	1135.391	844.798
304.935	16.255	1134.482	844.568
305.949	16.241	1134.111	844.149
306.964	16.222	1133.577	843.582
307.979	16.214	1132.569	842.718
308.993	16.120	1132.095	841.821
310.008	16.203	1131.507	841.724
311.022	16.300	1130.251	841.196
312.037	16.251	1129.710	840.478
313.052	16.296	1128.305	839.579
314.066	16.341	1127.243	838.940
315.081	16.236	1126.948	838.125
316.095	16.291	1126.029	837.640
317.110	16.360	1125.214	837.300
318.125	16.343	1124.449	836.572
319.139	16.266	1123.987	835.777
320.154	16.271	1123.370	835.266
321.168	16.328	1122.734	835.004
322.183	16.309	1122.194	834.434
323.197	16.276	1121.532	833.702
324.212	16.425	1120.701	833.748
325.227	16.445	1120.457	833.592
326.241	16.381	1119.537	832.516
327.256	16.452	1118.628	832.118
328.270	16.465	1117.987	831.629
329.285	16.412	1117.165	830.685
330.300	16.427	1115.758	829.641
331.314	16.392	1114.911	828.762
332.329	16.385	1114.148	828.088
333.343	16.432	1113.305	827.617
334.358	16.501	1112.498	827.285
335.373	16.535	1111.654	826.749
336.387	16.567	1110.946	826.305
337.402	16.494	1110.324	825.414
338.416	16.540	1109.550	824.990
339.431	16.508	1109.256	824.543
340.446	16.641	1108.271	824.383
341.460	16.549	1107.612	823.376
342.475	16.792	1106.507	823.662
343.489	16.768	1105.560	822.769
344.504	16.820	1104.824	822.398
345.519	16.849	1103.980	821.836
346.533	16.873	1102.829	821.026
347.548	16.856	1102.469	820.601
348.562	16.745	1101.890	819.564
349.577	16.851	1100.878	819.250
350.592	16.753	1100.213	818.208
351.606	16.868	1099.339	818.038
352.621	16.729	1099.050	817.085
353.635	16.736	1098.564	816.683
354.650	16.806	1097.669	816.280
355.665	16.779	1096.552	815.249
356.679	16.836	1096.278	815.245
357.694	16.841	1095.389	814.539
358.708	16.869	1094.934	814.263
359.723	16.922	1094.191	813.892
360.738	16.871	1093.668	813.186
361.752	16.950	1093.031	813.020
362.767	16.970	1092.608	812.729
363.781	16.931	1092.273	812.221
364.796	17.027	1091.184	811.801
365.810	17.091	1090.518	811.536
366.825	17.020	1090.041	810.772
367.840	17.057	1089.519	810.491
368.854	17.129	1088.956	810.342
369.869	17.101	1088.171	809.554
370.883	17.096	1087.473	808.937
371.898	17.203	1086.243	808.458
372.913	17.155	1085.886	807.895
373.927	17.258	1085.624	808.117
374.942	17.221	1084.785	807.246
375.956	17.224	1084.386	806.891
376.971	17.307	1083.575	806.613
377.986	17.341	1083.139	806.377
379.000	17.304	1082.504	805.658
380.015	17.179	1082.183	804.754
381.029	17.376	1081.382	805.020
382.044	17.369	1080.523	804.276
383.059	17.460	1079.877	804.156
384.073	17.370	1079.403	803.303
385.088	17.473	1078.210	802.833
386.102	17.458	1077.340	802.041
387.117	17.464	1076.339	801.254
388.132	17.317	1075.459	799.837
389.146	17.335	1074.595	799.208
390.161	17.359	1074.270	799.009
391.175	17.486	1073.393	798.881
392.190	17.511	1072.797	798.484
393.205	17.648	1071.833	798.338
394.219	17.497	1070.963	796.914
395.234	17.438	1070.027	795.872
396.248	17.557	1069.090	795.657
397.263	17.561	1067.988	794.788
398.278	17.527	1067.210	793.981
399.292	17.531	1066.632	793.498
400.307	17.447	1066.648	793.047
401.321	17.554	1065.762	792.818
402.336	17.534	1065.012	792.097
403.350	17.487	1064.487	791.416
404.365	17.595	1063.675	791.246
405.380	17.633	1062.872	790.753
406.394	17.682	1062.050	790.299
407.409	17.672	1061.381	789.684
408.423	17.741	1060.726	789.445
409.438	17.917	1059.904	789.578
410.453	17.755	1059.136	788.187
411.467	17.876	1058.092	787.900
412.482	17.741	1057.762	786.962
413.496	17.853	1057.224	787.011
414.511	17.915	1056.918	786.999
415.526	17.916	1056.024	786.267
416.540	17.963	1055.897	786.318
417.555	17.953	1055.022	785.551
418.569	17.914	1055.052	785.323
419.584	18.026	1054.439	785.317
420.599	17.922	1054.223	784.606
421.613	110.066	1330.433	1491.760
422.628	101.501	1370.597	1491.832
