DTS Sentinel unit serial number:	SN413079Multiplexer serial number:	ORYXHardware model number:	OX4-SRSoftware version number:	ORYX F/W v4.00 Oryx Data Collector v3.7.2.0data status	okinstallation	princeton_trtdifferential loss correction	single-endedforward channel	channel 2reverse channel	N/Adate	2019/09/12time	12:45:11forward acquisition time	60.00reverse acquisition time	0.00gamma	496.2192k internal	0.2297k external	0.2297temperature offset calibration	1.0075default loss term (dB/km)	0.3790temperature slope calibration	1.0000multiplexer offset coefficient	1.0000multiplexer slope coefficient	1.0000fibre end	0.00T internal ref (°C)	40.55T ext. ref 1 (°C)	2.03T ext. ref 2 (°C)	37.80length (m)	temperature (°C)	Stokes	anti-Stokes-747.200	-136.980	-0.156	0.018
-746.185	29.316	0.071	0.062
-745.171	-200.000	0.046	-0.271
-744.156	37.131	-0.262	0.236
-743.142	-104.448	-0.015	0.004
-742.127	608.852	0.027	0.069
-741.112	185.863	0.089	0.134
-740.098	-200.000	-0.016	0.581
-739.083	-71.800	0.094	0.036
-738.069	97.478	-0.137	-0.161
-737.054	-149.319	-0.218	-0.018
-736.039	168.197	-0.128	0.186
-735.025	-200.000	-0.008	-0.122
-734.010	223.156	0.238	-0.392
-732.996	50.295	0.193	-0.187
-731.981	-200.000	0.001	-0.070
-730.966	-31.003	-0.129	0.075
-729.952	-38.709	-0.239	-0.129
-728.937	62.019	0.103	0.105
-727.923	250.431	-0.101	-0.175
-726.908	-200.000	0.035	0.302
-725.894	-135.014	0.091	-0.011
-724.879	-129.721	-0.451	-0.063
-723.864	506.583	0.075	-0.177
-722.850	74.421	-0.101	0.109
-721.835	-200.000	-0.020	-0.263
-720.821	-200.000	-0.015	-0.113
-719.806	-55.638	-0.206	-0.094
-718.791	-74.295	0.314	0.116
-717.777	-77.035	-0.383	-0.136
-716.762	191.203	0.225	-0.346
-715.748	-113.861	-0.121	0.024
-714.733	-45.291	0.181	0.091
-713.718	800.000	-0.060	0.207
-712.704	57.659	-0.181	0.180
-711.689	46.959	-0.236	-0.224
-710.675	800.000	0.068	0.225
-709.660	60.269	0.160	0.161
-708.645	-101.127	0.109	0.027
-707.631	-135.918	-0.233	-0.028
-706.616	-200.000	-0.010	-0.096
-705.602	254.915	-0.041	-0.072
-704.587	232.063	0.152	-0.254
-703.572	-200.000	0.014	0.088
-702.558	103.120	-0.025	-0.030
-701.543	1.367	0.186	0.136
-700.529	691.829	0.080	-0.214
-699.514	416.877	0.035	-0.076
-698.499	-130.178	-0.137	-0.019
-697.485	-71.257	-0.209	-0.080
-696.470	-200.000	-0.030	-0.182
-695.456	146.560	0.162	-0.222
-694.441	86.797	-0.186	-0.209
-693.426	5.387	-0.071	-0.053
-692.412	-200.000	0.013	-0.127
-691.397	195.749	-0.188	-0.291
-690.383	-13.403	-0.176	-0.116
-689.368	800.000	-0.063	-0.219
-688.354	289.304	-0.201	-0.370
-687.339	-189.555	-0.200	-0.002
-686.324	-200.000	-0.050	0.300
-685.310	-1.610	-0.027	-0.019
-684.295	315.155	0.122	-0.235
-683.281	-84.386	-0.146	0.047
-682.266	800.000	0.080	-0.230
-681.251	-9.149	-0.167	0.114
-680.237	-112.559	-0.199	-0.040
-679.222	-200.000	-0.025	-0.230
-678.208	187.358	-0.061	-0.093
-677.193	-84.755	0.212	0.068
-676.178	-145.720	0.104	-0.009
-675.164	110.365	0.126	-0.154
-674.149	198.487	0.098	0.153
-673.135	171.228	-0.168	0.245
-672.120	-128.907	-0.251	-0.036
-671.105	-200.000	-0.004	-0.084
-670.091	-60.460	-0.201	0.087
-669.076	239.679	0.206	0.350
-668.062	-95.441	-0.262	-0.072
-667.047	-200.000	0.006	-0.275
-666.032	-104.040	0.240	0.057
-665.018	-41.946	0.295	0.154
-664.003	249.951	-0.167	-0.288
-662.989	-30.461	-0.161	0.093
-661.974	-95.480	0.145	-0.040
-660.959	-143.531	-0.239	0.023
-659.945	-149.815	-0.487	-0.039
-658.930	162.350	-0.056	-0.080
-657.916	-42.702	0.118	-0.061
-656.901	-200.000	-0.010	-0.221
-655.886	85.377	0.322	0.359
-654.872	-128.695	-0.189	0.027
-653.857	27.045	0.110	0.094
-652.843	-200.000	-0.011	0.134
-651.828	-200.000	0.035	-0.195
-650.814	-200.000	0.007	-0.248
-649.799	800.000	0.048	-0.156
-648.784	619.015	-0.096	-0.244
-647.770	-107.588	-0.351	0.078
-646.755	172.081	0.104	0.152
-645.741	-29.207	-0.320	-0.186
-644.726	160.927	-0.058	-0.083
-643.711	524.301	0.028	-0.066
-642.697	-2.281	-0.272	0.194
-641.682	637.193	-0.081	0.209
-640.668	-38.751	0.147	0.079
-639.653	276.020	0.206	-0.372
-638.638	-161.180	0.126	0.007
-637.624	-200.000	0.027	-0.319
-636.609	47.915	-0.093	-0.088
-635.595	-132.979	0.271	0.035
-634.580	35.574	-0.190	-0.170
-633.565	352.954	-0.187	-0.377
-632.551	-37.312	-0.206	-0.112
-631.536	-123.689	0.109	-0.018
-630.522	122.216	0.045	0.058
-629.507	-87.937	0.251	0.077
-628.492	-16.721	0.252	-0.162
-627.478	-148.583	0.235	0.019
-626.463	109.543	-0.130	-0.159
-625.449	275.037	-0.072	-0.129
-624.434	-63.885	0.226	-0.094
-623.419	56.555	0.097	-0.096
-622.405	-200.000	-0.024	-0.139
-621.390	265.007	-0.050	-0.088
-620.376	-156.008	0.339	0.022
-619.361	800.000	-0.066	0.292
-618.346	154.123	0.183	0.255
-617.332	7.916	-0.317	0.242
-616.317	-109.498	-0.124	0.027
-615.303	109.818	-0.094	0.115
-614.288	-174.338	-0.304	0.009
-613.273	-14.239	-0.150	0.098
-612.259	-200.000	0.008	-0.227
-611.244	-106.685	-0.225	0.051
-610.230	-200.000	-0.027	0.212
-609.215	38.926	-0.071	0.065
-608.201	-59.045	-0.215	0.094
-607.186	-115.993	-0.477	-0.090
-606.171	-172.256	-0.273	-0.009
-605.157	800.000	0.070	0.277
-604.142	-54.555	0.186	-0.085
-603.128	708.979	0.128	0.343
-602.113	-200.000	-0.038	-0.206
-601.098	800.000	-0.107	-0.383
-600.084	184.462	-0.174	0.261
-599.069	-200.000	-0.029	0.580
-598.055	-200.000	0.045	-0.222
-597.040	800.000	-0.059	-0.209
-596.025	26.240	0.056	0.048
-595.011	501.983	0.063	-0.148
-593.996	-200.000	0.183	-0.000
-592.982	800.000	0.048	-0.156
-591.967	271.708	0.022	-0.039
-590.952	61.689	0.258	0.260
-589.938	42.114	-0.116	-0.107
-588.923	20.747	-0.147	-0.121
-587.909	-139.784	-0.109	0.012
-586.894	-200.000	-0.035	0.213
-585.879	800.000	0.007	0.026
-584.865	261.997	0.137	0.242
-583.850	-181.685	0.196	-0.004
-582.836	317.253	0.118	0.227
-581.821	289.492	-0.137	-0.251
-580.806	-8.404	0.094	0.064
-579.792	-77.408	0.165	0.058
-578.777	14.366	0.347	-0.274
-577.763	-200.000	0.027	-0.161
-576.748	-128.018	0.180	-0.026
-575.733	653.605	-0.042	-0.110
-574.719	800.000	0.071	-0.271
-573.704	-43.404	-0.267	-0.137
-572.690	800.000	0.084	-0.252
-571.675	-152.984	-0.435	-0.031
-570.661	45.974	0.267	-0.250
-569.646	800.000	0.057	0.186
-568.631	-200.000	-0.026	-0.200
-567.617	-22.819	-0.216	0.132
-566.602	-16.282	-0.355	-0.229
-565.588	-200.000	-0.063	-0.386
-564.573	-108.585	-0.207	-0.045
-563.558	432.424	-0.152	-0.335
-562.544	689.911	0.127	-0.337
-561.529	102.076	-0.164	0.195
-560.515	-21.906	-0.047	0.029
-559.500	86.910	-0.183	0.205
-558.485	193.034	-0.108	-0.166
-557.471	800.000	-0.022	-0.074
-556.456	-124.147	0.180	0.029
-555.442	-66.501	-0.234	-0.094
-554.427	-65.250	0.350	0.143
-553.412	2.212	-0.140	0.103
-552.398	-200.000	-0.020	-0.092
-551.383	-200.000	-0.043	-0.268
-550.369	-200.000	0.012	-0.219
-549.354	476.279	-0.149	-0.342
-548.339	800.000	-0.028	0.118
-547.325	-200.000	0.017	-0.092
-546.310	-65.124	-0.105	0.043
-545.296	156.666	0.047	-0.065
-544.281	-43.271	0.212	-0.109
-543.266	-127.409	-0.080	0.012
-542.252	-47.852	0.345	0.169
-541.237	-154.516	0.274	-0.019
-540.223	-200.000	0.022	0.147
-539.208	-200.000	-0.019	-0.148
-538.193	-190.328	-0.325	0.004
-537.179	37.026	0.177	0.158
-536.164	-200.000	0.029	-0.194
-535.150	70.199	-0.089	0.094
-534.135	-54.887	0.012	-0.005
-533.121	-118.097	-0.414	-0.075
-532.106	-22.469	-0.169	0.104
-531.091	-33.988	0.081	-0.045
-530.077	-200.000	0.010	0.198
-529.062	24.126	-0.262	-0.219
-528.048	27.312	-0.175	0.149
-527.033	-164.786	0.189	0.009
-526.018	237.774	0.046	0.077
-525.004	306.898	0.205	0.387
-523.989	382.993	0.019	-0.039
-522.975	-134.495	0.277	0.034
-521.960	13.676	-0.084	-0.066
-520.945	126.012	-0.118	-0.151
-519.931	-161.714	0.463	0.024
-518.916	-68.588	0.198	-0.078
-517.902	5.144	0.087	0.065
-516.887	103.518	0.097	-0.116
-515.872	800.000	-0.153	0.452
-514.858	-70.669	0.210	0.080
-513.843	789.205	0.138	0.383
-512.829	800.000	0.143	0.419
-511.814	-118.124	0.254	-0.046
-510.799	-15.286	-0.110	0.071
-509.785	800.000	-0.096	-0.378
-508.770	182.203	0.039	0.058
-507.756	-36.184	0.081	-0.044
-506.741	48.807	-0.205	0.194
-505.726	800.000	0.022	-0.068
-504.712	43.753	0.290	0.268
-503.697	501.198	0.078	-0.182
-502.683	-200.000	0.059	-0.295
-501.668	-15.911	-0.204	0.131
-500.653	-120.462	-0.253	0.043
-499.639	-100.861	0.176	0.044
-498.624	-3.545	0.223	0.157
-497.610	97.066	-0.121	0.140
-496.595	-73.149	-0.139	0.051
-495.581	800.000	0.109	0.341
-494.566	-90.211	0.173	0.051
-493.551	23.907	0.215	0.179
-492.537	49.387	0.261	-0.248
-491.522	47.271	-0.034	0.032
-490.508	-200.000	-0.022	0.112
-489.493	273.547	-0.189	-0.338
-488.478	-165.754	0.197	-0.009
-487.464	-200.000	-0.038	-0.258
-486.449	260.130	-0.070	0.122
-485.435	-200.000	0.098	-0.530
-484.420	44.099	-0.126	0.117
-483.405	148.235	0.146	0.200
-482.391	-78.235	-0.088	0.031
-481.376	-163.868	-0.071	-0.003
-480.362	-141.100	0.234	-0.024
-479.347	101.629	0.227	0.268
-478.332	358.953	-0.100	-0.202
-477.318	28.116	-0.210	0.179
-476.303	-30.205	0.179	0.103
-475.289	800.000	-0.061	0.188
-474.274	3.200	0.071	0.052
-473.259	468.854	-0.172	-0.390
-472.245	-200.000	0.017	-0.142
-471.230	-200.000	0.012	-0.114
-470.216	-105.806	-0.220	-0.050
-469.201	-200.000	-0.034	-0.162
-468.186	23.956	-0.214	0.179
-467.172	146.315	0.191	-0.259
-466.157	-181.529	-0.112	-0.002
-465.143	800.000	-0.099	-0.330
-464.128	649.386	0.165	-0.426
-463.113	-152.764	-0.235	-0.017
-462.099	-200.000	-0.002	0.149
-461.084	35.808	0.413	0.367
-460.070	158.335	0.174	0.244
-459.055	-200.000	-0.048	-0.302
-458.040	170.729	-0.066	-0.095
-457.026	-102.489	-0.289	0.070
-456.011	21.054	0.097	-0.079
-454.997	75.840	0.117	0.125
-453.982	-93.866	-0.148	0.041
-452.968	203.172	0.216	-0.337
-451.953	-93.928	-0.107	-0.030
-450.938	800.000	0.092	0.407
-449.924	162.065	0.100	-0.141
-448.909	-121.524	-0.036	-0.006
-447.895	-200.000	-0.006	0.138
-446.880	-4.407	0.125	-0.087
-445.865	30.912	-0.093	-0.080
-444.851	800.000	0.037	-0.104
-443.836	-90.968	0.247	0.072
-442.822	800.000	0.098	0.281
-441.807	-193.581	0.344	0.003
-440.792	-87.006	-0.229	-0.070
-439.778	-91.280	0.105	0.030
-438.763	-104.790	0.039	0.009
-437.749	-89.073	-0.347	-0.104
-436.734	-200.000	0.022	0.447
-435.719	-144.254	-0.185	0.017
-434.705	74.297	-0.093	0.099
-433.690	37.261	-0.182	0.162
-432.676	-104.603	0.107	0.025
-431.661	-200.000	-0.024	0.252
-430.646	97.261	-0.213	-0.247
-429.632	-16.853	-0.239	0.152
-428.617	-200.000	-0.075	-0.383
-427.603	169.770	-0.226	0.326
-426.588	-68.366	0.304	0.119
-425.573	303.054	-0.048	-0.090
-424.559	-142.685	-0.275	-0.027
-423.544	-41.955	-0.235	-0.121
-422.530	-145.494	-0.154	0.014
-421.515	-200.000	-0.002	0.152
-420.500	45.286	-0.389	0.361
-419.486	-124.847	0.224	0.035
-418.471	800.000	-0.029	-0.114
-417.457	800.000	-0.049	0.209
-416.442	7.881	-0.195	0.147
-415.428	-65.359	-0.204	-0.083
-414.413	-200.000	-0.065	0.336
-413.398	-1.899	0.102	0.072
-412.384	800.000	-0.036	0.147
-411.369	126.582	-0.432	0.551
-410.355	219.705	-0.133	-0.215
-409.340	800.000	0.055	0.170
-408.325	-53.526	0.224	0.103
-407.311	-200.000	0.058	-0.396
-406.296	24.265	-0.056	-0.047
-405.282	53.309	-0.209	0.201
-404.267	-86.247	0.231	-0.072
-403.252	150.438	-0.119	0.162
-402.238	-132.046	0.056	-0.007
-401.223	-115.898	0.130	-0.024
-400.209	-200.000	-0.018	0.190
-399.194	-123.964	-0.269	0.043
-398.179	333.896	-0.153	0.297
-397.165	800.000	-0.058	-0.234
-396.150	22.245	-0.159	0.131
-395.136	6.840	-0.149	0.112
-394.121	27.820	-0.317	0.269
-393.106	-98.536	-0.142	-0.037
-392.092	800.000	-0.021	-0.061
-391.077	-1.518	0.076	-0.054
-390.063	-76.295	-0.440	0.156
-389.048	-116.315	-0.030	-0.006
-388.033	65.664	0.011	-0.012
-387.019	339.513	0.097	-0.191
-386.004	482.684	0.168	-0.384
-384.990	143.466	-0.263	-0.353
-383.975	-75.923	-0.185	-0.066
-382.960	-132.614	0.223	0.029
-381.946	588.281	-0.144	0.358
-380.931	449.468	0.131	0.290
-379.917	698.415	-0.071	-0.188
-378.902	-80.884	0.136	0.045
-377.888	181.988	-0.297	-0.441
-376.873	16.175	-0.302	-0.240
-375.858	-63.853	-0.202	-0.083
-374.844	-89.275	0.412	-0.122
-373.829	-27.609	-0.273	-0.159
-372.815	-116.997	0.033	-0.006
-371.800	-200.000	0.028	0.269
-370.785	87.432	-0.092	-0.103
-369.771	195.395	-0.210	0.321
-368.756	3.749	-0.324	-0.238
-367.742	231.290	0.065	0.108
-366.727	190.562	-0.202	-0.305
-365.712	108.132	-0.044	-0.053
-364.698	-200.000	0.063	-0.284
-363.683	800.000	-0.036	0.143
-362.669	437.809	0.065	-0.142
-361.654	55.429	-0.070	0.068
-360.639	-135.707	0.336	-0.040
-359.625	59.011	0.077	-0.076
-358.610	-157.527	0.320	-0.019
-357.596	-68.228	-0.437	0.171
-356.581	-200.000	-0.037	0.181
-355.566	-200.000	-0.000	-0.039
-354.552	8.335	0.040	0.030
-353.537	-200.000	-0.004	-0.139
-352.523	800.000	-0.088	-0.371
-351.508	-200.000	0.013	-0.193
-350.493	-114.574	0.124	0.024
-349.479	42.650	-0.083	0.076
-348.464	-153.046	0.243	-0.017
-347.450	139.382	-0.118	0.156
-346.435	-76.284	-0.276	-0.098
-345.420	109.466	0.109	0.131
-344.406	329.277	-0.152	-0.294
-343.391	687.469	-0.100	-0.261
-342.377	483.215	0.052	0.119
-341.362	29.490	-0.102	-0.087
-340.348	-51.733	0.180	-0.084
-339.333	269.844	0.098	0.173
-338.318	-200.000	-0.009	0.276
-337.304	-97.874	0.278	0.072
-336.289	-188.121	-0.232	0.003
-335.275	185.013	-0.224	0.333
-334.260	-200.000	-0.001	0.124
-333.245	-158.084	-0.112	-0.007
-332.231	215.155	0.082	-0.130
-331.216	-28.575	0.095	0.055
-330.202	303.948	-0.042	0.078
-329.187	9.509	0.237	0.180
-328.172	-145.751	0.494	0.044
-327.158	299.482	-0.169	-0.312
-326.143	387.049	-0.171	0.355
-325.129	391.007	-0.120	0.250
-324.114	-61.636	0.182	0.077
-323.099	105.877	0.225	0.268
-322.085	-83.892	0.085	0.027
-321.070	-78.338	0.176	-0.060
-320.056	800.000	0.029	0.119
-319.041	-133.090	-0.216	-0.028
-318.026	-3.258	-0.280	-0.196
-317.012	43.897	-0.047	0.044
-315.997	-79.592	-0.418	0.142
-314.983	700.576	0.051	0.135
-313.968	800.000	-0.046	0.201
-312.953	800.000	0.022	-0.071
-311.939	107.295	-0.165	0.197
-310.924	428.333	-0.027	0.058
-309.910	-200.000	0.009	-0.135
-308.895	-193.523	-0.176	0.002
-307.880	-179.866	0.249	0.005
-306.866	800.000	0.085	0.297
-305.851	-41.808	0.167	0.086
-304.837	800.000	0.094	-0.274
-303.822	-200.000	0.052	0.384
-302.807	-200.000	-0.016	0.434
-301.793	-59.741	0.200	0.086
-300.778	129.573	-0.050	-0.064
-299.764	13.940	0.273	0.213
-298.749	-200.000	-0.040	0.176
-297.735	800.000	0.085	-0.279
-296.720	-112.037	0.176	0.035
-295.705	1.329	0.089	-0.064
-294.691	-172.050	-0.163	-0.005
-293.676	-58.513	0.196	-0.086
-292.662	800.000	0.066	-0.251
-291.647	250.014	-0.094	-0.159
-290.632	-191.587	-0.241	0.002
-289.618	-200.000	0.094	-0.480
-288.603	256.215	-0.126	-0.216
-287.589	-2.755	-0.275	-0.193
-286.574	-141.071	-0.182	-0.019
-285.559	800.000	0.110	-0.317
-284.545	-180.383	0.119	-0.002
-283.530	-147.237	0.026	0.002
-282.516	-122.069	-0.091	-0.015
-281.501	595.390	-0.059	0.146
-280.486	407.410	0.039	-0.083
-279.472	134.872	-0.205	0.266
-278.457	211.888	0.191	-0.302
-277.443	110.614	-0.175	-0.211
-276.428	-157.368	0.458	-0.028
-275.413	-200.000	0.015	0.188
-274.399	72.827	0.129	-0.135
-273.384	-131.881	-0.118	-0.015
-272.370	54.441	0.101	-0.098
-271.355	800.000	0.020	0.087
-270.340	21.491	0.070	-0.057
-269.326	-39.340	0.124	-0.065
-268.311	29.709	-0.167	0.143
-267.297	104.340	-0.111	-0.131
-266.282	-200.000	-0.045	0.208
-265.267	-54.223	0.407	-0.185
-264.253	44.788	-0.278	-0.256
-263.238	-123.202	-0.178	-0.029
-262.224	8.892	0.213	0.161
-261.209	-30.202	0.432	0.246
-260.195	39.439	0.161	-0.145
-259.180	-200.000	0.031	0.305
-258.165	-33.054	0.151	0.084
-257.151	800.000	0.063	0.263
-256.136	-200.000	-0.015	-0.264
-255.122	-152.465	0.208	-0.015
-254.107	205.191	0.147	0.229
-253.092	-110.997	0.365	0.075
-252.078	25.418	0.127	-0.106
-251.063	-95.244	0.163	-0.044
-250.049	800.000	-0.014	0.048
-249.034	657.348	0.101	-0.260
-248.019	-200.000	-0.004	0.244
-247.005	52.059	-0.247	0.235
-245.990	-200.000	0.052	0.244
-244.976	-96.612	-0.387	-0.102
-243.961	-90.419	-0.140	-0.041
-242.946	-200.000	0.008	0.080
-241.932	40.575	0.033	-0.029
-240.917	-118.357	-0.264	-0.047
-239.903	60.155	0.255	-0.253
-238.888	-102.376	-0.115	0.028
-237.873	26.815	0.254	-0.213
-236.859	68.774	0.292	-0.300
-235.844	-200.000	-0.001	-0.076
-234.830	193.379	0.180	-0.272
-233.815	-27.568	-0.409	-0.238
-232.800	247.998	-0.117	-0.198
-231.786	-22.024	0.135	-0.082
-230.771	518.423	0.202	0.472
-229.757	-188.841	0.283	0.003
-228.742	116.007	0.162	0.199
-227.727	70.147	0.074	-0.076
-226.713	-200.000	-0.015	-0.139
-225.698	-200.000	-0.019	0.106
-224.684	201.099	-0.190	0.293
-223.669	-171.387	0.276	0.009
-222.655	800.000	-0.041	0.141
-221.640	-12.356	0.137	0.090
-220.625	-200.000	-0.020	-0.115
-219.611	-200.000	0.010	-0.199
-218.596	186.295	-0.089	0.133
-217.582	-14.428	-0.077	-0.050
-216.567	-194.601	0.377	0.003
-215.552	-64.064	0.335	-0.137
-214.538	-96.835	0.430	-0.113
-213.523	-200.000	0.004	-0.085
-212.509	103.310	0.189	-0.222
-211.494	799.220	-0.148	-0.408
-210.479	292.535	0.105	0.191
-209.465	386.496	-0.069	-0.141
-208.450	-200.000	-0.019	0.110
-207.436	-165.600	0.363	0.016
-206.421	18.799	-0.204	-0.163
-205.406	-200.000	0.002	-0.159
-204.392	-200.000	-0.064	-0.391
-203.377	330.845	0.044	0.085
-202.363	1.639	-0.109	-0.078
-201.348	-200.000	0.019	-0.560
-200.333	201.017	0.180	0.276
-199.319	-5.597	-0.054	-0.037
-198.304	-102.201	-0.179	-0.043
-197.290	32.231	0.140	0.121
-196.275	522.953	-0.055	-0.128
-195.260	-143.370	-0.288	-0.028
-194.246	20.871	-0.096	0.078
-193.231	22.109	-0.360	0.294
-192.217	142.809	0.098	0.131
-191.202	309.094	-0.167	0.312
-190.187	800.000	-0.082	-0.329
-189.173	415.993	-0.088	0.187
-188.158	-24.613	0.186	-0.111
-187.144	800.000	-0.061	-0.211
-186.129	-79.984	0.322	0.108
-185.114	-178.670	0.442	0.010
-184.100	8.397	0.378	0.284
-183.085	86.899	-0.211	-0.233
-182.071	800.000	0.053	0.168
-181.056	67.156	0.163	0.166
-180.042	-200.000	0.056	0.251
-179.027	653.081	-0.054	0.138
-178.012	800.000	-0.037	0.161
-176.998	-18.157	-0.117	-0.073
-175.983	-74.434	0.220	0.079
-174.969	203.856	0.101	0.157
-173.954	738.273	0.059	-0.158
-172.939	9.460	0.244	0.184
-171.925	-69.207	-0.278	0.107
-170.910	-15.200	-0.248	-0.158
-169.896	-200.000	0.003	0.310
-168.881	-71.248	-0.266	-0.100
-167.866	-150.672	-0.254	0.019
-166.852	-69.168	0.307	-0.118
-165.837	-10.372	-0.217	-0.144
-164.823	-200.000	0.029	0.150
-163.808	-200.000	0.029	-0.276
-162.793	-95.086	0.257	0.069
-161.779	-59.771	-0.030	-0.013
-160.764	-44.408	0.126	0.063
-159.750	800.000	0.082	0.249
-158.735	-200.000	-0.013	0.165
-157.720	-84.206	-0.172	0.054
-156.706	-139.456	0.344	-0.037
-155.691	281.109	0.083	-0.149
-154.677	-65.259	0.161	0.065
-153.662	-200.000	0.000	0.454
-152.647	43.015	-0.131	0.119
-151.633	-55.167	0.098	-0.044
-150.618	800.000	-0.042	0.172
-149.604	800.000	0.039	-0.145
-148.589	135.781	-0.140	-0.182
-147.574	-128.005	0.277	0.040
-146.560	-11.858	-0.171	0.112
-145.545	242.930	-0.202	0.337
-144.531	73.944	0.170	0.178
-143.516	-200.000	-0.001	-0.148
-142.502	-144.632	0.161	-0.015
-141.487	-200.000	0.030	-0.139
-140.472	10.508	0.217	0.165
-139.458	-63.395	0.279	0.114
-138.443	-155.650	0.198	0.013
-137.429	63.276	0.279	-0.279
-136.414	223.914	-0.071	-0.114
-135.399	-76.416	0.185	-0.065
-134.385	90.418	-0.091	0.102
-133.370	103.562	-0.063	0.073
-132.356	285.742	0.117	-0.210
-131.341	-64.573	0.270	-0.109
-130.326	-104.387	-0.357	0.083
-129.312	202.304	0.150	0.231
-128.297	-76.794	0.243	0.085
-127.283	273.356	0.116	-0.204
-126.268	-51.725	0.204	-0.095
-125.253	-200.000	-0.040	-0.243
-124.239	367.628	-0.069	-0.138
-123.224	-200.000	-0.024	-0.149
-122.210	-79.069	0.118	0.040
-121.195	-104.980	0.095	0.022
-120.180	800.000	-0.039	0.155
-119.166	-151.724	0.075	0.006
-118.151	-66.421	0.080	0.031
-117.137	159.631	0.228	0.316
-116.122	150.062	-0.170	0.230
-115.107	-16.076	0.193	-0.122
-114.093	29.420	0.084	-0.071
-113.078	137.965	0.149	-0.195
-112.064	92.891	-0.207	-0.233
-111.049	62.697	-0.160	0.160
-110.034	-119.478	0.101	-0.017
-109.020	-110.290	-0.061	0.013
-108.005	-128.058	-0.177	0.025
-106.991	136.948	0.198	-0.257
-105.976	-200.000	-0.036	-0.347
-104.962	-200.000	-0.045	-0.240
-103.947	127.233	-0.196	-0.248
-102.932	800.000	-0.074	-0.209
-101.918	-118.961	0.373	-0.065
-100.903	0.444	-0.243	-0.173
-99.889	18.060	-0.052	-0.041
-98.874	-200.000	0.006	0.116
-97.859	-88.958	-0.127	-0.037
-96.845	-200.000	-0.025	-0.137
-95.830	-86.757	-0.181	0.055
-94.816	-109.634	-0.247	-0.052
-93.801	800.000	0.106	0.350
-92.786	-200.000	-0.022	0.188
-91.772	-200.000	0.015	0.133
-90.757	464.662	0.030	0.067
-89.743	625.621	-0.037	0.093
-88.728	-40.618	-0.274	0.142
-87.713	-157.876	0.246	-0.014
-86.699	-124.828	-0.173	0.027
-85.684	-177.635	0.066	-0.002
-84.670	-200.000	-0.013	0.445
-83.655	-61.945	0.085	0.035
-82.640	-49.899	-0.286	0.135
-81.626	-66.660	0.502	0.198
-80.611	-97.069	0.337	-0.088
-79.597	122.360	0.107	0.134
-78.582	410.817	0.153	0.323
-77.567	-200.000	0.027	-0.248
-76.553	-88.162	-0.150	-0.045
-75.538	113.482	-0.110	-0.133
-74.524	-68.844	0.057	-0.022
-73.509	295.291	0.100	-0.182
-72.494	-200.000	0.019	0.182
-71.480	-70.444	0.377	-0.142
-70.465	-123.855	-0.313	0.049
-69.451	-200.000	0.056	0.275
-68.436	-200.000	0.015	0.435
-67.422	-13.858	0.117	0.075
-66.407	-200.000	0.022	-0.158
-65.392	800.000	-0.061	0.208
-64.378	-200.000	-0.006	-0.102
-63.363	-189.659	-0.250	0.003
-62.349	-119.889	0.056	-0.010
-61.334	77.981	-0.641	-0.679
-60.319	11.702	0.516	0.394
-59.305	-200.000	0.115	-0.820
-58.290	79.429	0.353	0.376
-57.276	-200.000	0.341	1.657
-56.261	-200.000	76.405	510.791
-55.246	523.603	1334.305	3117.338
-54.232	145.586	2574.152	3427.425
-53.217	111.084	2349.103	2811.943
-52.203	49.879	1962.811	1839.488
-51.188	43.828	1751.658	1594.098
-50.173	41.077	1705.416	1530.825
-49.159	55.434	1740.705	1674.053
-48.144	60.689	1759.226	1732.501
-47.130	43.783	1723.186	1567.584
-46.115	40.532	1709.427	1529.975
-45.100	40.431	1704.763	1524.964
-44.086	40.434	1702.415	1522.827
-43.071	40.416	1700.142	1520.598
-42.057	40.362	1697.450	1517.718
-41.042	40.440	1695.192	1516.230
-40.027	40.428	1693.105	1514.214
-39.013	40.470	1691.272	1512.835
-37.998	40.461	1689.953	1511.524
-36.984	40.483	1688.508	1510.345
-35.969	40.558	1686.968	1509.476
-34.954	40.610	1685.233	1508.255
-33.940	40.567	1683.692	1506.496
-32.925	40.514	1681.754	1504.297
-31.911	40.467	1680.515	1502.770
-30.896	40.553	1678.341	1501.422
-29.881	40.494	1676.332	1499.118
-28.867	40.534	1674.651	1497.853
-27.852	40.548	1673.185	1496.590
-26.838	40.563	1672.012	1495.596
-25.823	40.567	1670.677	1494.371
-24.809	40.666	1668.624	1493.223
-23.794	40.619	1667.215	1491.546
-22.779	40.583	1665.782	1489.934
-21.765	40.630	1664.287	1488.894
-20.750	40.558	1663.476	1487.566
-19.736	40.701	1661.081	1486.436
-18.721	40.568	1659.929	1484.350
-17.706	40.569	1658.271	1482.823
-16.692	40.580	1656.943	1481.652
-15.677	40.599	1655.374	1480.332
-14.663	40.588	1654.054	1479.014
-13.648	40.546	1653.122	1477.812
-12.633	40.513	1651.238	1475.818
-11.619	40.498	1649.862	1474.420
-10.604	40.494	1648.185	1472.834
-9.590	40.500	1646.381	1471.210
-8.575	40.612	1645.310	1471.020
-7.560	40.582	1643.701	1469.304
-6.546	40.531	1642.792	1468.055
-5.531	40.521	1642.006	1467.218
-4.517	40.576	1640.256	1466.002
-3.502	40.559	1639.224	1464.897
-2.487	40.576	1638.157	1464.015
-1.473	40.702	1627.024	1454.930
-0.458	38.369	1607.710	1420.677
0.556	34.874	1606.627	1385.949
1.571	31.968	1630.229	1384.774
2.586	30.917	1643.332	1387.951
3.600	26.557	1587.236	1309.009
4.615	14.489	1466.517	1128.187
5.629	4.030	1392.244	1003.459
6.644	2.164	1383.059	984.729
7.659	2.117	1381.313	983.098
8.673	1.970	1380.391	981.408
9.688	1.879	1378.436	979.349
10.702	1.624	1375.631	975.631
11.717	5.459	1384.137	1006.286
12.731	16.821	1406.054	1096.008
13.746	25.399	1420.256	1162.769
14.761	26.743	1421.719	1172.566
15.775	26.803	1421.530	1172.696
16.790	26.869	1420.641	1172.280
17.804	26.998	1419.675	1172.213
18.819	27.206	1419.572	1173.372
19.834	27.226	1419.205	1173.089
20.848	27.319	1417.949	1172.549
21.863	27.270	1417.226	1171.534
22.877	27.348	1416.049	1170.957
23.892	27.296	1415.412	1169.990
24.907	27.177	1414.901	1168.702
25.921	27.214	1413.520	1167.697
26.936	27.235	1412.839	1167.162
27.950	27.275	1411.529	1166.234
28.965	27.231	1410.580	1165.063
29.980	27.239	1409.147	1163.831
30.994	27.273	1407.654	1162.711
32.009	27.244	1406.769	1161.691
33.023	27.241	1405.615	1160.618
34.038	27.137	1404.794	1159.173
35.053	27.189	1403.799	1158.579
36.067	27.225	1402.710	1157.806
37.082	27.215	1401.978	1157.039
38.096	27.201	1400.759	1155.842
39.111	27.299	1399.919	1155.671
40.126	27.252	1399.391	1154.829
41.140	27.278	1398.411	1154.086
42.155	27.200	1398.232	1153.341
43.169	27.193	1398.637	1153.529
44.184	27.215	1398.201	1153.205
45.199	27.166	1397.528	1152.241
46.213	27.225	1397.110	1152.165
47.228	27.270	1395.821	1151.289
48.242	27.242	1394.723	1150.103
49.257	27.323	1393.435	1149.448
50.271	27.219	1391.780	1147.324
51.286	27.305	1390.366	1146.602
52.301	27.266	1389.286	1145.361
53.315	27.315	1388.432	1144.865
54.330	27.314	1387.463	1143.959
55.344	27.191	1386.575	1142.355
56.359	27.150	1385.418	1141.041
57.374	27.255	1384.369	1140.733
58.388	27.208	1384.049	1140.075
59.403	27.280	1383.354	1139.852
60.417	27.290	1382.806	1139.363
61.432	27.228	1382.103	1138.298
62.447	27.304	1381.010	1137.772
63.461	27.155	1380.191	1136.064
64.476	27.236	1378.986	1135.474
65.490	27.241	1378.294	1134.839
66.505	27.276	1376.340	1133.348
67.520	27.193	1375.443	1131.993
68.534	27.194	1374.495	1131.116
69.549	27.235	1373.649	1130.578
70.563	27.248	1372.117	1129.297
71.578	27.294	1371.413	1128.902
72.593	27.318	1370.500	1128.197
73.607	27.255	1370.528	1127.730
74.622	27.284	1369.136	1126.669
75.636	27.426	1367.873	1126.403
76.651	27.154	1367.682	1124.468
77.666	27.264	1367.199	1124.650
78.680	27.287	1366.584	1124.183
79.695	27.274	1365.798	1123.357
80.709	27.275	1365.165	1122.748
81.724	27.158	1364.792	1121.615
82.739	27.226	1363.499	1120.878
83.753	27.295	1362.286	1120.206
84.768	27.289	1361.299	1119.254
85.782	27.196	1360.571	1117.986
86.797	27.145	1359.276	1116.513
87.812	27.199	1358.322	1115.958
88.826	27.274	1356.989	1115.228
89.841	27.298	1355.925	1114.401
90.855	27.309	1354.817	1113.459
91.870	27.304	1354.005	1112.662
92.884	27.311	1353.166	1111.914
93.899	27.295	1352.416	1111.101
94.914	27.411	1351.724	1111.144
95.928	27.319	1351.186	1110.045
96.943	27.287	1349.885	1108.683
97.957	27.389	1349.429	1108.830
98.972	27.433	1347.930	1107.766
99.987	27.307	1347.472	1106.528
101.001	27.228	1346.657	1105.277
102.016	27.348	1345.394	1104.874
103.030	27.246	1345.028	1103.859
104.045	27.365	1344.030	1103.662
105.060	27.337	1343.184	1102.700
106.074	27.351	1341.996	1101.709
107.089	27.335	1340.918	1100.631
108.103	27.406	1339.913	1100.138
109.118	27.387	1338.834	1099.038
110.133	27.456	1338.116	1098.771
111.147	27.375	1336.810	1097.114
112.162	27.315	1335.729	1095.769
113.176	27.384	1334.638	1095.193
114.191	27.424	1333.615	1094.493
115.206	27.306	1332.574	1092.833
116.220	27.340	1331.511	1092.071
117.235	27.346	1330.348	1091.058
118.249	27.400	1329.661	1090.718
119.264	27.428	1328.557	1089.885
120.279	27.403	1328.258	1089.392
121.293	27.531	1327.370	1089.334
122.308	27.461	1326.515	1088.118
123.322	27.501	1325.849	1087.716
124.337	27.470	1325.176	1086.880
125.352	27.532	1323.887	1086.099
126.366	27.431	1323.730	1085.270
127.381	27.577	1322.297	1084.865
128.395	27.427	1322.260	1083.848
129.410	27.444	1320.990	1082.815
130.424	27.519	1320.380	1082.665
131.439	27.423	1319.611	1081.367
132.454	27.439	1318.568	1080.508
133.468	27.451	1318.256	1080.231
134.483	27.432	1317.675	1079.549
135.497	27.523	1316.406	1078.950
136.512	27.514	1315.576	1078.121
137.527	27.413	1314.274	1076.364
138.541	27.503	1313.260	1075.970
139.556	27.485	1311.961	1074.704
140.570	27.464	1310.996	1073.691
141.585	27.433	1309.739	1072.383
142.600	27.543	1308.576	1071.988
143.614	27.410	1308.122	1070.736
144.629	27.536	1307.063	1070.514
145.643	27.404	1306.281	1069.003
146.658	27.345	1305.313	1067.771
147.673	27.433	1303.681	1066.857
148.687	27.389	1303.204	1066.116
149.702	27.296	1301.699	1064.245
150.716	27.347	1300.496	1063.465
151.731	27.414	1299.584	1063.018
152.746	27.442	1298.407	1062.123
153.760	27.507	1297.576	1061.731
154.775	27.478	1296.594	1060.666
155.789	27.422	1295.877	1059.657
156.804	27.450	1294.863	1058.898
157.819	27.402	1294.159	1057.951
158.833	27.378	1293.819	1057.437
159.848	27.353	1292.877	1056.430
160.862	27.445	1291.926	1056.095
161.877	27.489	1291.196	1055.658
162.892	27.438	1290.247	1054.491
163.906	27.544	1289.275	1054.218
164.921	27.527	1288.697	1053.556
165.935	27.545	1287.926	1052.933
166.950	27.427	1287.383	1051.714
167.964	27.490	1286.770	1051.483
168.979	27.532	1286.006	1051.010
169.994	27.480	1285.867	1050.506
171.008	27.615	1284.607	1050.162
172.023	27.517	1284.400	1049.331
173.037	27.470	1283.645	1048.351
174.052	27.581	1282.581	1048.032
175.067	27.658	1281.626	1047.601
176.081	27.590	1280.930	1046.547
177.096	27.548	1280.053	1045.495
178.110	27.562	1279.141	1044.737
179.125	27.565	1278.030	1043.756
180.140	27.571	1277.023	1042.875
181.154	27.544	1275.897	1041.709
182.169	27.498	1274.932	1040.567
183.183	27.639	1273.762	1040.324
184.198	27.622	1272.517	1039.117
185.213	27.542	1272.138	1038.260
186.227	27.615	1271.384	1037.972
187.242	27.597	1270.445	1037.007
188.256	27.518	1269.755	1035.905
189.271	27.717	1268.398	1035.835
190.286	27.733	1267.817	1035.363
191.300	27.594	1267.675	1034.364
192.315	27.582	1267.055	1033.702
193.329	27.524	1266.667	1032.964
194.344	27.572	1266.284	1032.829
195.359	27.627	1265.529	1032.435
196.373	27.522	1264.992	1031.310
197.388	27.675	1264.220	1031.454
198.402	27.562	1264.256	1030.757
199.417	27.600	1263.834	1030.534
200.432	27.617	1263.104	1029.945
201.446	27.679	1262.318	1029.565
202.461	27.623	1261.814	1028.743
203.475	27.751	1260.925	1028.650
204.490	27.608	1259.880	1026.904
205.504	27.601	1259.289	1026.290
206.519	27.658	1258.245	1025.670
207.534	27.687	1256.960	1024.691
208.548	27.782	1255.918	1024.284
209.563	27.681	1255.233	1023.067
210.577	27.674	1254.762	1022.558
211.592	27.639	1253.779	1021.466
212.607	27.727	1252.772	1021.052
213.621	27.857	1251.720	1020.828
214.636	27.790	1251.217	1019.957
215.650	27.802	1250.319	1019.198
216.665	27.738	1249.482	1018.070
217.680	27.741	1248.757	1017.407
218.694	27.735	1248.250	1016.867
219.709	27.880	1246.919	1016.500
220.723	27.805	1246.833	1015.923
221.738	27.793	1245.751	1014.889
222.753	27.625	1245.244	1013.452
223.767	27.835	1244.268	1013.732
224.782	27.821	1243.926	1013.285
225.796	27.859	1243.338	1012.926
226.811	27.806	1242.749	1012.065
227.826	27.765	1242.656	1011.673
228.840	27.915	1241.688	1011.627
229.855	27.980	1240.955	1011.296
230.869	27.860	1240.549	1010.213
231.884	27.773	1239.949	1009.156
232.899	27.803	1239.191	1008.617
233.913	27.851	1238.046	1007.858
234.928	27.884	1237.790	1007.743
235.942	27.953	1236.984	1007.380
236.957	27.894	1236.235	1006.351
237.972	27.959	1235.400	1005.940
238.986	27.876	1235.142	1005.187
240.001	27.935	1234.669	1005.038
241.015	27.901	1234.022	1004.234
242.030	28.037	1233.050	1004.103
243.045	28.036	1232.077	1003.217
244.059	28.099	1231.325	1002.858
245.074	28.063	1230.458	1001.866
246.088	27.971	1229.923	1000.841
247.103	28.012	1229.034	1000.255
248.117	28.039	1228.263	999.686
249.132	28.031	1227.326	998.787
250.147	28.103	1226.511	998.428
251.161	28.069	1226.148	997.860
252.176	28.058	1225.112	996.872
253.190	28.136	1224.564	996.761
254.205	28.149	1224.128	996.386
255.220	28.081	1223.725	995.603
256.234	28.222	1222.567	995.339
257.249	28.120	1222.398	994.556
258.263	28.125	1221.267	993.576
259.278	28.043	1221.265	993.041
260.293	28.122	1220.711	992.930
261.307	28.191	1219.800	992.480
262.322	28.299	1219.130	992.430
263.336	28.137	1218.585	991.024
264.351	28.154	1217.973	990.527
265.366	28.240	1217.285	990.344
266.380	28.164	1216.831	989.477
267.395	28.197	1215.923	988.833
268.409	28.086	1215.632	987.906
269.424	28.037	1215.372	987.343
270.439	28.192	1214.406	987.307
271.453	28.250	1213.479	986.781
272.468	28.212	1212.603	985.772
273.482	28.142	1212.395	985.143
274.497	28.243	1211.863	985.165
275.512	28.170	1211.596	984.466
276.526	28.230	1210.613	983.905
277.541	28.228	1209.803	983.148
278.555	28.189	1209.348	982.480
279.570	28.291	1208.370	982.148
280.585	28.305	1207.605	981.513
281.599	28.296	1206.494	980.476
282.614	28.189	1205.805	979.256
283.628	28.274	1204.405	978.487
284.643	28.196	1204.282	977.884
285.657	28.268	1203.118	977.237
286.672	28.455	1202.005	977.242
287.687	28.320	1201.480	976.010
288.701	28.363	1201.114	975.856
289.716	28.423	1200.211	975.359
290.730	28.393	1199.803	974.779
291.745	28.479	1198.958	974.461
292.760	28.507	1198.142	973.863
293.774	28.423	1197.447	972.764
294.789	28.357	1197.090	972.041
295.803	28.507	1196.256	972.072
296.818	28.499	1196.263	971.948
297.833	28.544	1195.218	971.249
298.847	28.517	1194.752	970.645
299.862	28.468	1193.943	969.640
300.876	28.573	1193.068	969.400
301.891	28.515	1192.477	968.528
302.906	28.532	1191.907	968.071
303.920	28.606	1191.296	967.879
304.935	28.533	1190.689	966.915
305.949	28.527	1190.103	966.319
306.964	28.583	1189.659	966.170
307.979	28.517	1188.956	965.165
308.993	28.599	1188.123	964.835
310.008	28.585	1187.252	963.971
311.022	28.723	1186.187	963.744
312.037	28.647	1185.700	962.865
313.052	28.534	1184.870	961.513
314.066	28.512	1184.204	960.771
315.081	28.692	1183.453	961.018
316.095	28.611	1182.689	959.889
317.110	28.651	1182.128	959.559
318.125	28.542	1181.991	958.795
319.139	28.659	1180.760	958.321
320.154	28.658	1180.221	957.793
321.168	28.677	1180.107	957.713
322.183	28.565	1179.341	956.428
323.197	28.671	1178.308	956.056
324.212	28.735	1177.830	955.913
325.227	28.813	1177.514	955.981
326.241	28.815	1176.810	955.337
327.256	28.801	1176.093	954.596
328.270	28.774	1175.448	953.849
329.285	28.799	1174.625	953.226
330.300	28.648	1173.934	951.795
331.314	28.812	1173.036	951.834
332.329	28.800	1172.011	950.856
333.343	28.860	1171.240	950.454
334.358	28.800	1171.181	950.014
335.373	28.825	1170.047	949.138
336.387	28.906	1169.426	948.968
337.402	28.865	1168.587	947.992
338.416	28.831	1168.299	947.500
339.431	28.862	1167.554	946.970
340.446	28.875	1166.831	946.367
341.460	28.980	1166.344	946.431
342.475	28.867	1165.482	945.068
343.489	28.942	1164.547	944.607
344.504	29.009	1163.370	943.917
345.519	28.966	1162.865	943.202
346.533	28.947	1161.561	941.964
347.548	29.122	1160.716	942.090
348.562	28.992	1160.556	941.214
349.577	29.122	1159.896	941.257
350.592	28.916	1159.039	939.427
351.606	28.973	1158.245	938.990
352.621	29.081	1157.731	939.043
353.635	29.021	1157.205	938.226
354.650	29.196	1156.202	938.220
355.665	29.104	1155.950	937.465
356.679	29.107	1155.570	937.089
357.694	29.131	1154.704	936.425
358.708	29.188	1153.571	935.716
359.723	29.078	1153.152	934.731
360.738	29.070	1152.475	934.063
361.752	29.122	1151.878	933.759
362.767	29.266	1151.356	933.982
363.781	29.199	1150.788	933.098
364.796	29.306	1150.194	933.079
365.810	29.306	1150.022	932.855
366.825	29.199	1149.356	931.689
367.840	29.327	1148.588	931.631
368.854	29.331	1147.953	931.054
369.869	29.180	1147.538	929.873
370.883	29.281	1146.968	929.840
371.898	29.311	1145.743	928.917
372.913	29.397	1145.110	928.755
373.927	29.428	1144.471	928.307
374.942	29.454	1143.938	927.924
375.956	29.351	1143.775	927.194
376.971	29.205	1143.335	926.022
377.986	29.324	1142.470	925.837
379.000	29.341	1142.275	925.683
380.015	29.378	1141.785	925.385
381.029	29.333	1141.212	924.613
382.044	29.447	1140.154	924.249
383.059	29.446	1139.607	923.719
384.073	29.462	1138.919	923.158
385.088	29.367	1137.805	921.698
386.102	29.353	1137.282	921.123
387.117	29.413	1136.488	920.696
388.132	29.333	1135.843	919.697
389.146	29.392	1135.004	919.231
390.161	29.450	1134.392	918.941
391.175	29.465	1133.500	918.213
392.190	29.515	1132.575	917.628
393.205	29.405	1132.157	916.665
394.219	29.577	1131.406	916.827
395.234	29.499	1130.486	915.616
396.248	29.592	1129.545	915.230
397.263	29.545	1128.777	914.297
398.278	29.618	1128.383	914.256
399.292	29.692	1127.740	914.023
400.307	29.645	1127.066	913.161
401.321	29.621	1126.422	912.440
402.336	29.640	1125.746	911.908
403.350	29.762	1125.089	911.895
404.365	29.659	1124.582	910.897
405.380	29.710	1123.609	910.276
406.394	29.684	1123.079	909.641
407.409	29.706	1122.415	909.130
408.423	29.855	1121.181	908.782
409.438	29.759	1120.829	907.943
410.453	29.615	1120.551	906.932
411.467	29.781	1119.646	906.933
412.482	29.777	1118.621	906.005
413.496	29.816	1118.039	905.644
414.511	29.833	1117.500	905.212
415.526	29.796	1117.380	904.850
416.540	29.919	1116.570	904.715
417.555	29.768	1116.396	903.758
418.569	29.770	1115.885	903.273
419.584	29.833	1115.582	903.255
420.599	29.935	1114.987	903.192
421.613	89.052	1303.593	1379.326
422.628	83.667	1331.081	1379.466
