DTS Sentinel unit serial number:	SN413079Multiplexer serial number:	ORYXHardware model number:	OX4-SRSoftware version number:	ORYX F/W v4.00 Oryx Data Collector v3.7.2.0data status	okinstallation	princeton_trtdifferential loss correction	single-endedforward channel	channel 2reverse channel	N/Adate	2019/09/12time	19:42:49forward acquisition time	15.00reverse acquisition time	0.00gamma	496.2192k internal	0.2327k external	0.2327temperature offset calibration	1.0160default loss term (dB/km)	0.3790temperature slope calibration	1.0000multiplexer offset coefficient	1.0000multiplexer slope coefficient	1.0000fibre end	0.00T internal ref (°C)	32.06T ext. ref 1 (°C)	3.51T ext. ref 2 (°C)	26.54length (m)	temperature (°C)	Stokes	anti-Stokes-747.200	800.000	0.098	0.411
-746.185	-200.000	0.041	0.241
-745.171	800.000	0.068	0.293
-744.156	22.009	0.020	-0.016
-743.142	137.620	-0.422	-0.557
-742.127	164.662	-0.265	-0.377
-741.112	800.000	-0.086	-0.284
-740.098	-12.675	-0.313	0.206
-739.083	19.195	-0.597	-0.483
-738.069	-66.962	0.986	0.392
-737.054	17.125	-0.476	-0.381
-736.039	-198.331	-1.144	0.007
-735.025	114.011	0.192	-0.236
-734.010	76.604	-0.712	-0.761
-732.996	51.807	-0.551	-0.529
-731.981	16.342	-0.212	0.169
-730.966	181.533	0.335	-0.497
-729.952	136.793	0.377	-0.496
-728.937	-200.000	-0.066	-0.786
-727.923	402.831	-0.186	0.394
-726.908	-200.000	-0.091	0.976
-725.894	532.223	0.184	-0.440
-724.879	-200.000	-0.056	-0.250
-723.864	696.946	-0.119	-0.315
-722.850	-200.000	-0.069	-0.449
-721.835	60.159	0.143	-0.142
-720.821	168.496	0.124	-0.179
-719.806	-133.488	-0.796	-0.101
-718.791	-89.524	-0.408	0.121
-717.777	-200.000	0.038	0.380
-716.762	305.918	0.420	-0.788
-715.748	-90.045	0.890	-0.261
-714.733	-157.470	0.184	0.011
-713.718	-55.027	0.055	-0.025
-712.704	-101.964	-0.624	0.152
-711.689	363.083	0.193	-0.391
-710.675	591.200	0.286	-0.711
-709.660	368.119	-0.168	0.342
-708.645	672.602	-0.243	0.633
-707.631	800.000	0.077	0.234
-706.616	256.466	-0.524	-0.905
-705.602	-200.000	0.013	0.455
-704.587	800.000	-0.107	-0.334
-703.572	50.794	-0.431	0.411
-702.558	118.140	-0.307	0.381
-701.543	81.470	0.260	0.283
-700.529	29.778	-0.796	0.683
-699.514	800.000	-0.139	0.393
-698.499	284.158	-0.075	-0.136
-697.485	408.930	0.325	-0.693
-696.470	295.498	0.348	0.642
-695.456	800.000	0.222	0.624
-694.441	201.266	-0.631	-0.978
-693.426	-131.863	0.347	0.046
-692.412	484.973	0.184	0.423
-691.397	45.188	-0.510	-0.473
-690.383	-90.701	-0.968	-0.281
-689.368	800.000	0.078	0.232
-688.354	-33.332	-0.308	-0.172
-687.339	275.129	-0.020	0.036
-686.324	-200.000	0.140	-0.869
-685.310	271.534	-0.362	0.642
-684.295	-28.790	-0.706	-0.409
-683.281	27.398	0.443	-0.374
-682.266	-177.283	0.608	0.015
-681.251	-176.277	-0.690	0.018
-680.237	800.000	0.165	-0.479
-679.222	132.767	-0.109	0.141
-678.208	83.252	0.226	0.248
-677.193	50.834	-0.237	-0.225
-676.178	-81.508	0.806	-0.267
-675.164	-184.387	-0.664	-0.011
-674.149	-200.000	-0.220	-1.257
-673.135	59.880	0.117	0.116
-672.120	-151.280	0.668	-0.050
-671.105	-64.720	-1.186	0.483
-670.091	160.647	0.438	-0.615
-669.076	501.723	0.183	0.424
-668.062	99.387	0.272	-0.316
-667.047	-125.029	-0.287	-0.044
-666.032	-48.414	0.343	0.166
-665.018	-10.207	-0.824	-0.550
-664.003	-74.122	-0.107	-0.039
-662.989	-60.834	0.963	0.410
-661.974	150.729	0.117	-0.160
-660.959	96.199	0.508	-0.583
-659.945	7.294	-0.894	-0.671
-658.930	2.364	0.643	-0.468
-657.916	-68.511	-0.283	0.110
-656.901	225.930	0.756	-1.232
-655.886	13.674	0.728	-0.568
-654.872	45.643	-0.550	0.511
-653.857	-92.174	-0.632	0.179
-652.843	-200.000	0.048	-0.247
-651.828	59.729	0.179	-0.177
-650.814	800.000	-0.196	-0.667
-649.799	-80.963	-0.881	0.293
-648.784	-200.000	-0.079	-0.599
-647.770	-114.140	0.858	0.167
-646.755	105.850	-0.121	-0.144
-645.741	143.555	-0.308	0.412
-644.726	188.729	0.419	0.629
-643.711	800.000	-0.190	-0.794
-642.697	-133.647	1.178	0.148
-641.682	105.514	-0.118	-0.140
-640.668	-200.000	0.036	0.221
-639.653	-24.794	-0.716	-0.427
-638.638	-94.306	-0.957	0.263
-637.624	800.000	0.035	-0.136
-636.609	-200.000	-0.004	-0.442
-635.595	42.909	-0.152	0.139
-634.580	-200.000	-0.117	-0.662
-633.565	-44.337	0.141	0.071
-632.551	145.010	-0.120	-0.161
-631.536	-200.000	-0.036	0.368
-630.522	-110.921	-0.388	-0.080
-629.507	-82.313	0.247	-0.081
-628.492	263.664	-0.353	0.617
-627.478	-58.935	-0.988	0.429
-626.463	800.000	0.124	0.507
-625.449	-200.000	-0.030	-0.621
-624.434	-152.268	-0.218	-0.016
-623.419	153.454	0.432	-0.594
-622.405	-200.000	0.190	-1.105
-621.390	97.984	0.635	-0.733
-620.376	-142.176	0.306	-0.030
-619.361	-158.347	0.912	-0.053
-618.346	-120.896	0.675	-0.114
-617.332	800.000	-0.068	0.274
-616.317	50.394	-0.203	0.192
-615.303	169.819	0.205	-0.294
-614.288	-90.338	0.616	-0.179
-613.273	82.764	-0.191	-0.208
-612.259	800.000	0.267	-0.997
-611.244	-128.001	-0.856	0.123
-610.230	-150.723	0.457	-0.035
-609.215	254.366	-0.313	-0.536
-608.201	-99.014	-0.129	-0.033
-607.186	-200.000	0.017	-0.112
-606.171	-42.056	0.717	-0.368
-605.157	42.098	0.073	-0.066
-604.142	-166.528	-1.030	-0.043
-603.128	-12.067	0.650	0.427
-602.113	800.000	-0.178	0.644
-601.098	-70.292	-0.708	-0.270
-600.084	-24.874	-0.639	-0.380
-599.069	-54.570	-0.543	-0.246
-598.055	97.955	0.185	0.214
-597.040	350.671	0.138	-0.274
-596.025	-41.411	-0.819	0.423
-595.011	-95.097	-0.557	0.151
-593.996	-125.116	-0.318	0.049
-592.982	-69.669	-0.497	-0.191
-591.967	140.168	0.453	-0.599
-590.952	-18.294	0.317	-0.199
-589.938	137.788	0.346	-0.454
-588.923	-61.221	-0.218	-0.092
-587.909	566.696	-0.337	-0.820
-586.894	485.606	0.307	0.701
-585.879	155.047	-0.381	0.525
-584.865	192.265	0.555	-0.839
-583.850	-98.337	0.507	-0.130
-582.836	-167.096	-0.565	-0.023
-581.821	-71.705	-0.893	0.334
-580.806	-200.000	0.115	-0.530
-579.792	800.000	0.084	-0.282
-578.777	-200.000	0.019	-0.101
-577.763	87.385	0.439	-0.486
-576.748	-200.000	0.023	0.885
-575.733	479.434	0.147	0.333
-574.719	170.792	-0.253	-0.363
-573.704	-25.421	0.362	-0.214
-572.690	12.390	0.117	0.090
-571.675	316.320	-0.445	-0.842
-570.661	480.595	0.111	-0.252
-569.646	28.434	0.604	0.512
-568.631	-50.093	-0.307	-0.146
-567.617	-131.613	0.889	-0.117
-566.602	-145.514	0.619	-0.056
-565.588	800.000	0.120	-0.430
-564.573	-79.550	0.445	-0.150
-563.558	204.534	-0.119	0.185
-562.544	-0.141	-0.840	0.598
-561.529	134.029	-0.610	0.791
-560.515	-200.000	0.014	0.115
-559.500	304.145	-0.222	0.412
-558.485	-149.921	0.293	0.023
-557.471	-200.000	0.024	0.184
-556.456	182.142	0.405	0.598
-555.442	-22.857	0.560	0.338
-554.427	514.822	-0.167	0.390
-553.412	-200.000	0.728	-0.002
-552.398	-200.000	-0.873	-0.004
-551.383	75.355	-0.713	0.753
-550.369	50.527	-0.824	0.780
-549.354	62.771	0.715	-0.716
-548.339	373.669	-0.330	0.672
-547.325	394.066	0.282	-0.587
-546.310	-81.143	-0.972	-0.321
-545.296	103.511	-0.068	-0.080
-544.281	261.158	0.528	-0.914
-543.266	-47.082	0.944	-0.461
-542.252	-133.525	-0.568	0.071
-541.237	19.349	0.561	-0.451
-540.223	-120.646	-0.477	0.081
-539.208	66.109	0.374	-0.380
-538.193	343.530	-0.075	-0.147
-537.179	238.854	-0.063	0.105
-536.164	-132.418	1.090	-0.141
-535.150	314.363	0.442	-0.833
-534.135	-200.000	-0.082	1.280
-533.121	515.011	-0.363	0.848
-532.106	163.871	0.449	-0.633
-531.091	2.282	-0.361	0.261
-530.077	-200.000	0.121	0.630
-529.062	-22.544	-0.506	-0.306
-528.048	-200.000	0.023	-0.283
-527.033	800.000	-0.138	-0.507
-526.018	-93.260	-0.914	0.254
-525.004	-41.525	-0.661	-0.340
-523.989	616.684	0.105	0.263
-522.975	0.667	-0.744	0.532
-521.960	57.749	0.368	-0.359
-520.945	151.107	0.465	0.632
-519.931	-200.000	-0.057	-0.671
-518.916	-124.694	0.369	-0.057
-517.902	-200.000	0.048	-0.445
-516.887	366.075	-0.154	-0.309
-515.872	322.779	0.264	0.503
-514.858	21.961	-0.239	0.195
-513.843	-72.685	0.439	0.162
-512.829	-14.650	-0.282	-0.181
-511.814	-64.302	0.695	-0.283
-510.799	331.172	0.218	0.419
-509.785	-134.901	0.544	-0.066
-508.770	670.715	-0.357	0.923
-507.756	368.048	0.198	0.400
-506.741	-154.534	-0.719	-0.048
-505.726	-200.000	0.057	-0.923
-504.712	0.205	0.316	-0.225
-503.697	151.838	0.244	-0.332
-502.683	800.000	0.202	-0.628
-501.668	-155.935	-0.533	0.034
-500.653	800.000	0.330	1.040
-499.639	215.029	0.764	1.210
-498.624	-134.501	-0.609	0.074
-497.610	800.000	0.058	0.218
-496.595	487.247	0.223	-0.509
-495.581	-48.487	0.420	0.202
-494.566	-87.284	0.495	0.150
-493.551	-102.197	-0.676	-0.162
-492.537	-99.325	0.246	-0.062
-491.522	-71.003	-0.255	-0.096
-490.508	-0.369	-0.758	0.538
-489.493	558.753	-0.084	0.202
-488.478	72.796	-0.538	0.560
-487.464	-95.603	-0.028	-0.007
-486.449	-200.000	-0.099	0.437
-485.435	63.995	0.244	-0.245
-484.420	-50.679	0.124	-0.058
-483.405	-200.000	0.061	-0.288
-482.391	781.381	0.205	-0.559
-481.376	800.000	-0.074	-0.291
-480.362	113.194	-0.342	-0.414
-479.347	123.764	0.078	0.097
-478.332	-200.000	0.064	-0.689
-477.318	19.512	0.270	-0.216
-476.303	-38.106	0.490	0.260
-475.289	800.000	-0.282	0.948
-474.274	-200.000	-0.116	0.517
-473.259	76.547	-0.489	-0.517
-472.245	28.509	-0.135	-0.114
-471.230	-8.336	-0.219	0.147
-470.216	-200.000	0.010	0.441
-469.201	15.004	0.270	-0.211
-468.186	482.220	-0.423	-0.958
-467.172	-200.000	0.183	-0.838
-466.157	80.612	0.190	0.204
-465.143	800.000	0.045	-0.162
-464.128	-200.000	0.152	1.248
-463.113	-38.340	-0.816	0.431
-462.099	-125.818	0.308	0.046
-461.084	800.000	0.228	0.715
-460.070	-200.000	-0.131	0.739
-459.055	161.316	-0.597	0.832
-458.040	-83.078	-1.403	-0.450
-457.026	133.409	0.116	-0.150
-456.011	-16.492	0.243	0.153
-454.997	98.732	0.549	-0.632
-453.982	718.834	-0.260	0.688
-452.968	10.083	-0.623	-0.472
-451.953	-74.498	0.849	0.305
-450.938	-116.974	-0.670	-0.122
-449.924	-147.183	-0.382	0.032
-448.909	-200.000	-0.033	0.197
-447.895	128.810	0.071	-0.090
-446.880	171.571	-0.344	-0.493
-445.865	-24.540	0.221	0.131
-444.851	-70.031	0.270	-0.102
-443.836	-200.000	0.162	-0.881
-442.822	-108.479	0.748	-0.160
-441.807	18.914	-0.461	0.368
-440.792	-67.515	0.572	0.224
-439.778	-200.000	0.034	-0.220
-438.763	63.030	-0.022	-0.022
-437.749	229.664	0.377	0.613
-436.734	-59.471	-0.171	0.073
-435.719	-200.000	-0.116	0.521
-434.705	6.315	0.280	-0.207
-433.690	564.855	0.298	0.719
-432.676	455.504	0.154	0.341
-431.661	74.802	-0.447	0.469
-430.646	514.271	-0.336	0.782
-429.632	-65.094	1.106	0.445
-428.617	800.000	0.220	0.631
-427.603	-7.923	-0.272	0.183
-426.588	-9.947	-0.330	0.219
-425.573	-200.000	-0.014	0.706
-424.559	105.962	-0.517	-0.609
-423.544	15.129	-0.325	0.254
-422.530	-53.952	0.096	0.044
-421.515	-200.000	-0.036	0.410
-420.500	-45.432	-0.292	-0.144
-419.486	730.247	0.107	-0.285
-418.471	-55.370	-0.257	-0.115
-417.457	757.772	0.226	0.608
-416.442	-21.153	-0.307	-0.187
-415.428	113.821	0.045	-0.054
-414.413	-134.664	0.849	-0.103
-413.398	-200.000	-0.112	-0.640
-412.384	269.705	-0.420	-0.735
-411.369	-200.000	-0.026	-0.130
-410.355	-138.120	-0.694	-0.077
-409.340	-22.629	0.497	0.299
-408.325	800.000	0.285	0.823
-407.311	198.349	-0.517	-0.787
-406.296	127.791	0.460	0.582
-405.282	203.920	-0.121	0.187
-404.267	-200.000	-0.038	-1.028
-403.252	-79.363	0.547	0.184
-402.238	460.167	-0.151	0.334
-401.223	-145.880	-0.814	0.072
-400.209	800.000	0.163	-0.453
-399.194	-38.244	0.545	0.287
-398.179	-5.840	0.484	-0.330
-397.165	19.680	0.567	-0.454
-396.150	-20.493	-0.199	-0.122
-395.136	-20.443	0.561	-0.343
-394.121	-52.017	0.260	-0.120
-393.106	-160.060	-0.688	0.037
-392.092	-65.543	0.217	-0.087
-391.077	80.029	0.647	0.692
-390.063	-15.181	0.416	-0.265
-389.048	-87.533	0.381	-0.115
-388.033	2.506	0.298	0.214
-387.019	-72.097	-0.767	-0.283
-386.004	-77.700	0.628	0.216
-384.990	20.641	0.431	-0.347
-383.975	29.864	0.487	-0.412
-382.960	76.936	-0.580	0.612
-381.946	-200.000	0.105	0.828
-380.931	-8.308	-0.215	-0.144
-379.917	-145.686	-0.414	0.037
-378.902	-131.066	-0.382	0.051
-377.888	-200.000	-0.050	0.522
-376.873	254.517	-0.387	0.657
-375.858	-65.170	0.499	-0.200
-374.844	172.200	-0.542	-0.774
-373.829	72.836	0.299	0.311
-372.815	341.623	-0.405	-0.786
-371.800	53.524	0.395	0.376
-370.785	-117.083	-0.450	-0.081
-369.771	235.966	-0.324	-0.532
-368.756	-86.006	-0.516	-0.158
-367.742	-166.554	0.201	-0.008
-366.727	-111.561	-0.397	0.080
-365.712	-21.275	-0.532	0.323
-364.698	-156.646	0.214	-0.013
-363.683	80.404	0.135	-0.144
-362.669	181.415	0.343	0.501
-361.654	176.508	-0.425	-0.613
-360.639	424.724	-0.251	0.536
-359.625	271.126	0.166	-0.291
-358.610	-125.717	-0.318	0.048
-357.596	-200.000	-0.013	-0.240
-356.581	-44.640	0.783	-0.389
-355.566	54.983	-0.083	0.079
-354.552	-62.141	0.658	0.272
-353.537	-69.213	0.298	0.114
-352.523	-99.354	0.335	-0.084
-351.508	62.069	-0.275	0.272
-350.493	-200.000	0.004	-0.485
-349.479	-126.313	-0.122	0.018
-348.464	-114.298	0.220	0.042
-347.450	-200.000	-0.198	1.009
-346.435	557.658	-0.181	-0.433
-345.420	227.707	-0.410	0.662
-344.406	39.841	0.428	-0.382
-343.391	11.409	0.411	0.313
-342.377	2.738	0.633	-0.455
-341.362	63.847	0.567	-0.565
-340.348	-67.735	-0.634	0.246
-339.333	-86.708	0.659	0.200
-338.318	8.610	-0.369	-0.275
-337.304	67.813	0.438	-0.444
-336.289	1.339	0.077	0.055
-335.275	22.700	-0.227	-0.184
-334.260	436.693	-0.140	-0.302
-333.245	-30.199	-0.529	-0.298
-332.231	-127.726	1.357	0.194
-331.216	-129.259	-0.640	0.088
-330.202	313.338	-0.222	0.415
-329.187	-200.000	-0.037	-0.731
-328.172	-200.000	0.062	0.379
-327.158	555.475	0.348	0.832
-326.143	-86.068	-0.546	-0.167
-325.129	117.680	0.458	-0.560
-324.114	-200.000	0.029	0.137
-323.099	163.324	0.412	-0.574
-322.085	41.106	-0.068	-0.061
-321.070	-200.000	0.124	0.919
-320.056	-200.000	0.189	-1.038
-319.041	89.516	0.420	-0.464
-318.026	800.000	0.242	-0.671
-317.012	50.604	-0.147	0.138
-315.997	-7.060	-0.483	0.325
-314.983	-200.000	0.034	0.977
-313.968	-200.000	-0.016	-0.152
-312.953	291.561	-0.546	0.986
-311.939	-130.671	0.097	0.013
-310.924	800.000	-0.159	0.676
-309.910	-63.330	0.979	0.400
-308.895	215.735	0.121	0.191
-307.880	-118.862	-0.583	0.102
-306.866	-200.000	0.102	-0.913
-305.851	-200.000	0.004	0.287
-304.837	800.000	0.105	0.355
-303.822	58.431	-0.564	0.549
-302.807	-200.000	-0.171	0.866
-301.793	800.000	0.215	0.676
-300.778	-117.451	0.503	-0.090
-299.764	-96.819	-0.257	0.067
-298.749	100.022	0.420	-0.482
-297.735	-149.664	-0.618	-0.048
-296.720	800.000	0.078	0.245
-295.705	640.420	0.397	1.002
-294.691	-131.262	-1.180	0.155
-293.676	-142.058	0.255	-0.025
-292.662	-115.100	-0.352	-0.066
-291.647	-144.857	1.321	-0.120
-290.632	-139.824	-0.916	-0.096
-289.618	82.689	0.375	-0.404
-288.603	800.000	0.092	0.308
-287.589	521.122	0.194	0.452
-286.574	64.394	-0.864	-0.862
-285.559	-200.000	-0.194	-1.413
-284.545	204.435	0.224	-0.344
-283.530	-139.269	-0.670	0.071
-282.516	202.469	0.107	-0.164
-281.501	-106.714	0.211	-0.046
-280.486	-63.670	0.665	-0.270
-279.472	-75.781	-0.594	-0.209
-278.457	-200.000	0.080	0.567
-277.443	800.000	-0.055	0.159
-276.428	-10.641	-0.126	-0.082
-275.413	16.480	-0.497	-0.388
-274.399	-200.000	0.030	-0.646
-273.384	312.434	0.211	-0.393
-272.370	356.819	0.121	-0.239
-271.355	-47.309	-0.521	0.251
-270.340	241.189	-0.378	-0.626
-269.326	-200.000	0.031	0.349
-268.311	-200.000	-0.001	0.240
-267.297	-17.395	0.658	-0.410
-266.282	-200.000	0.116	0.647
-265.267	-200.000	-0.083	-0.671
-264.253	-141.465	0.237	-0.024
-263.238	17.312	0.559	-0.439
-262.224	-36.110	-0.557	0.298
-261.209	-91.773	1.234	-0.347
-260.195	-185.818	1.078	0.016
-259.180	-121.102	0.553	-0.092
-258.165	-200.000	-0.050	0.258
-257.151	800.000	-0.154	-0.603
-256.136	-105.707	-0.282	-0.063
-255.122	-57.845	-0.917	-0.397
-254.107	29.008	-0.210	-0.176
-253.092	76.567	-0.428	-0.449
-252.078	-43.321	0.656	-0.328
-251.063	-200.000	0.042	-0.373
-250.049	693.620	0.203	-0.526
-249.034	7.219	0.478	0.353
-248.019	-200.000	0.015	0.208
-247.005	-200.000	-0.149	0.987
-245.990	-93.180	0.425	-0.117
-244.976	66.683	0.196	0.197
-243.961	-31.087	-0.281	0.157
-242.946	-200.000	0.051	0.503
-241.932	27.418	-0.208	0.173
-240.917	55.623	0.493	0.472
-239.903	-77.768	0.412	-0.141
-238.888	64.767	0.374	0.373
-237.873	27.387	-0.418	0.348
-236.859	-77.411	0.273	0.094
-235.844	129.257	-0.689	-0.869
-234.830	416.086	-0.066	0.139
-233.815	91.710	-0.364	0.404
-232.800	464.613	0.272	-0.601
-231.786	-200.000	-0.078	-0.642
-230.771	800.000	-0.179	0.503
-229.757	-81.409	0.469	-0.153
-228.742	-200.000	-0.034	0.225
-227.727	-200.000	-0.037	-0.653
-226.713	183.896	0.435	0.635
-225.698	-23.050	0.473	-0.282
-224.684	-200.000	-0.017	-0.087
-223.669	106.582	0.509	0.596
-222.655	800.000	-0.229	-0.754
-221.640	-100.317	0.616	-0.151
-220.625	-98.393	0.385	0.097
-219.611	-200.000	0.018	0.166
-218.596	-118.281	0.942	-0.166
-217.582	192.005	0.073	-0.109
-216.567	-166.013	0.338	0.014
-215.552	643.617	0.221	-0.558
-214.538	116.331	-0.577	0.699
-213.523	-77.442	-0.578	0.198
-212.509	63.142	-0.628	-0.622
-211.494	-85.596	0.518	0.159
-210.479	540.128	-0.156	-0.366
-209.465	800.000	-0.183	-0.631
-208.450	-1.115	-0.282	-0.197
-207.436	61.788	-0.511	-0.503
-206.421	489.358	0.128	-0.289
-205.406	-147.372	-0.466	0.039
-204.392	-101.999	-0.487	0.116
-203.377	5.399	-0.642	0.468
-202.363	-200.000	-0.108	-0.523
-201.348	441.953	0.126	-0.273
-200.333	-82.111	-0.429	-0.138
-199.319	-55.886	0.088	0.039
-198.304	455.057	-0.037	0.081
-197.290	-105.884	0.540	0.120
-196.275	580.610	0.182	-0.439
-195.260	800.000	0.112	0.381
-194.246	207.910	0.178	-0.275
-193.231	-200.000	0.162	0.792
-192.217	-32.191	0.400	0.220
-191.202	334.367	0.380	0.727
-190.187	-74.237	-0.388	0.139
-189.173	3.063	0.432	-0.310
-188.158	120.467	-0.516	0.632
-187.144	31.186	0.443	0.375
-186.129	800.000	-0.148	-0.450
-185.114	-98.633	-0.482	-0.121
-184.100	-200.000	-0.059	0.539
-183.085	-78.853	-0.476	-0.160
-182.071	116.343	-0.506	-0.612
-181.056	-7.188	0.454	0.304
-180.042	-171.026	0.056	0.002
-179.027	122.944	0.215	-0.266
-178.012	-137.873	-0.122	-0.013
-176.998	50.578	-0.202	-0.188
-175.983	154.354	0.171	0.232
-174.969	561.188	-0.179	-0.427
-173.954	242.449	0.127	0.209
-172.939	-31.241	0.889	0.494
-171.925	-171.016	-0.459	-0.015
-170.910	188.548	0.183	-0.270
-169.896	-200.000	0.008	0.075
-168.881	-200.000	0.001	0.165
-167.866	23.446	-0.528	-0.428
-166.852	187.691	-0.088	0.130
-165.837	27.147	-0.202	0.167
-164.823	-200.000	-0.097	0.491
-163.808	-36.138	0.232	0.123
-162.793	115.766	-0.198	0.239
-161.779	303.985	0.048	0.088
-160.764	241.766	0.338	0.556
-159.750	80.241	0.165	0.175
-158.735	-54.095	-0.868	-0.389
-157.720	-84.340	-0.833	-0.260
-156.706	56.394	-0.337	-0.323
-155.691	234.433	0.168	0.273
-154.677	599.359	0.234	0.571
-153.662	-93.168	-0.565	0.155
-152.647	11.006	-0.558	0.420
-151.633	-130.906	-0.186	-0.025
-150.618	18.964	-0.404	0.319
-149.604	-154.684	0.532	0.035
-148.589	-157.452	0.714	0.042
-147.574	-134.408	0.475	-0.057
-146.560	-200.000	0.042	0.275
-145.545	-55.371	0.556	0.246
-144.531	800.000	-0.149	-0.470
-143.516	-63.530	-0.629	-0.254
-142.502	-71.427	-0.024	-0.009
-141.487	3.837	0.226	0.162
-140.472	-200.000	-0.097	0.578
-139.458	785.277	0.121	-0.328
-138.443	-67.023	0.496	0.193
-137.429	-127.212	0.741	0.107
-136.414	419.745	-0.187	0.393
-135.399	77.592	0.145	-0.152
-134.385	-112.806	-0.721	-0.141
-133.370	-157.253	-1.120	0.067
-132.356	13.220	0.334	0.254
-131.341	316.265	0.235	-0.437
-130.326	-200.000	-0.019	0.978
-129.312	109.833	-0.319	0.376
-128.297	-43.519	0.630	-0.313
-127.283	101.076	0.820	-0.939
-126.268	-157.704	0.623	0.037
-125.253	-159.423	0.430	-0.024
-124.239	-200.000	-0.087	0.860
-123.224	755.186	0.137	0.366
-122.210	15.721	-0.601	0.465
-121.195	40.107	-0.433	-0.383
-120.180	576.379	0.188	-0.451
-119.166	-8.623	0.378	-0.250
-118.151	99.120	-0.166	-0.189
-117.137	548.652	-0.119	-0.280
-116.122	438.346	0.099	-0.213
-115.107	-200.000	0.002	0.176
-114.093	800.000	0.132	-0.500
-113.078	-140.134	0.227	-0.024
-112.064	19.540	0.798	0.632
-111.049	143.714	0.263	0.345
-110.034	232.871	-0.634	1.024
-109.020	325.450	-0.341	-0.641
-108.005	-200.000	0.098	0.779
-106.991	54.708	0.378	0.359
-105.976	-6.749	0.218	0.146
-104.962	-200.000	0.060	-0.928
-103.947	-200.000	0.014	0.184
-102.932	-200.000	0.001	-0.311
-101.918	-124.648	0.397	0.061
-100.903	-37.999	-0.359	-0.188
-99.889	-166.561	0.788	0.032
-98.874	800.000	0.167	-0.683
-97.859	76.263	-0.584	0.608
-96.845	-103.099	0.859	-0.200
-95.830	-82.293	-0.420	-0.134
-94.816	800.000	-0.076	0.227
-93.801	141.658	-0.167	0.218
-92.786	-40.402	0.779	0.398
-91.772	-172.826	0.687	-0.021
-90.757	-172.961	-0.480	-0.015
-89.743	800.000	-0.112	-0.390
-88.728	-40.295	0.795	0.406
-87.713	87.650	-0.479	0.522
-86.699	-32.057	-0.619	0.340
-85.684	22.890	-0.337	-0.271
-84.670	-41.186	0.480	-0.243
-83.655	-177.149	1.240	-0.030
-82.640	-64.704	0.523	-0.208
-81.626	463.423	0.165	-0.363
-80.611	-200.000	-0.064	-0.829
-79.597	-178.203	0.443	0.010
-78.582	149.383	0.529	-0.704
-77.567	155.687	-0.335	-0.454
-76.553	-23.459	-0.479	0.283
-75.538	-146.096	-0.581	-0.050
-74.524	10.960	-0.709	-0.532
-73.509	800.000	0.099	-0.333
-72.494	-80.763	0.688	0.225
-71.480	-200.000	0.046	-0.261
-70.465	612.611	-0.216	0.530
-69.451	-200.000	-0.066	0.296
-68.436	71.996	-0.500	0.511
-67.422	-119.564	0.469	0.080
-66.407	-52.989	0.172	-0.077
-65.392	480.218	0.297	0.662
-64.378	-197.081	-0.190	0.001
-63.363	-117.842	0.572	0.101
-62.349	-31.631	-0.118	0.065
-61.334	-38.543	-1.328	-0.689
-60.319	10.752	0.761	0.570
-59.305	50.339	-0.677	-0.628
-58.290	-96.279	1.029	0.268
-57.276	-200.000	0.187	1.358
-56.261	-200.000	96.628	601.305
-55.246	664.007	1356.929	3436.704
-54.232	203.389	2530.108	3840.902
-53.217	113.646	2246.904	2678.780
-52.203	41.576	1880.437	1671.129
-51.188	35.313	1672.165	1439.162
-50.173	32.728	1629.833	1383.734
-49.159	51.231	1679.505	1564.089
-48.144	52.051	1695.827	1585.330
-47.130	35.039	1656.384	1423.314
-46.115	32.370	1642.015	1391.207
-45.100	31.929	1636.610	1383.319
-44.086	32.051	1634.279	1382.188
-43.071	31.863	1631.742	1378.613
-42.057	31.830	1629.039	1376.029
-41.042	31.907	1628.580	1376.154
-40.027	31.961	1625.523	1373.906
-39.013	31.858	1623.280	1371.208
-37.998	31.933	1621.302	1370.028
-36.984	32.128	1619.646	1369.998
-35.969	32.023	1618.652	1368.335
-34.954	32.245	1616.310	1367.917
-33.940	31.989	1616.641	1366.281
-32.925	31.790	1615.113	1363.484
-31.911	32.220	1611.872	1363.816
-30.896	32.069	1610.174	1361.235
-29.881	32.198	1608.452	1360.656
-28.867	32.081	1606.864	1358.413
-27.852	32.127	1604.969	1357.090
-26.838	31.981	1604.327	1355.439
-25.823	32.064	1601.775	1353.825
-24.809	32.020	1601.139	1352.922
-23.794	32.140	1600.188	1352.928
-22.779	32.013	1597.521	1349.702
-21.765	32.052	1597.453	1349.876
-20.750	31.990	1595.588	1347.798
-19.736	32.117	1593.943	1347.270
-18.721	32.071	1592.161	1345.380
-17.706	32.153	1590.879	1344.828
-16.692	31.988	1589.930	1342.794
-15.677	32.093	1588.054	1341.905
-14.663	32.203	1585.903	1340.819
-13.648	32.187	1586.166	1340.877
-12.633	32.070	1583.418	1337.665
-11.619	31.855	1582.672	1335.452
-10.604	32.029	1580.492	1334.796
-9.590	32.072	1579.494	1334.203
-8.575	32.167	1578.096	1333.644
-7.560	32.203	1577.073	1332.985
-6.546	32.022	1575.915	1330.670
-5.531	32.209	1574.909	1331.091
-4.517	32.327	1573.060	1330.312
-3.502	32.008	1573.401	1328.286
-2.487	32.246	1570.093	1327.120
-1.473	31.989	1557.959	1315.018
-0.458	28.852	1539.512	1277.626
0.556	26.911	1540.365	1246.771
1.571	24.549	1562.580	1248.156
2.586	23.754	1575.622	1252.856
3.600	21.206	1522.734	1193.311
4.615	12.638	1414.988	1054.128
5.629	4.850	1351.302	958.805
6.644	3.602	1342.831	945.074
7.659	3.294	1342.961	943.195
8.673	3.588	1340.598	943.247
9.688	3.556	1337.825	941.017
10.702	3.304	1335.968	938.093
11.717	6.616	1343.223	963.357
12.731	15.975	1359.017	1032.197
13.746	23.195	1371.902	1086.380
14.761	24.806	1372.528	1096.664
15.775	25.033	1370.729	1096.516
16.790	24.436	1371.055	1093.027
17.804	24.070	1369.679	1089.594
18.819	24.360	1367.966	1089.904
19.834	23.974	1368.786	1088.102
20.848	24.251	1366.822	1088.135
21.863	24.243	1366.493	1087.728
22.877	24.224	1365.904	1087.048
23.892	23.965	1365.689	1085.202
24.907	24.192	1363.228	1084.533
25.921	24.060	1363.506	1083.851
26.936	24.128	1362.665	1083.502
27.950	24.307	1359.959	1082.341
28.965	24.494	1359.704	1083.175
29.980	24.137	1359.422	1080.691
30.994	24.488	1358.389	1081.904
32.009	24.532	1357.708	1081.531
33.023	24.219	1356.707	1078.745
34.038	24.402	1353.664	1077.333
35.053	24.331	1354.329	1077.335
36.067	24.220	1352.228	1074.899
37.082	24.370	1351.397	1075.053
38.096	24.288	1351.109	1074.231
39.111	24.396	1349.726	1073.685
40.126	24.135	1349.770	1072.058
41.140	23.933	1349.017	1070.145
42.155	23.769	1347.418	1067.802
43.169	23.669	1347.822	1067.423
44.184	23.826	1347.679	1068.159
45.199	23.809	1346.974	1067.403
46.213	23.836	1347.705	1068.053
47.228	24.134	1347.409	1069.509
48.242	24.313	1344.894	1068.496
49.257	24.280	1344.065	1067.540
50.271	24.242	1342.018	1065.593
51.286	24.241	1340.717	1064.461
52.301	24.109	1340.435	1063.356
53.315	24.171	1339.398	1062.808
54.330	24.246	1337.634	1061.764
55.344	24.060	1337.258	1060.261
56.359	23.975	1336.401	1058.984
57.374	24.018	1333.976	1057.225
58.388	24.145	1333.720	1057.679
59.403	23.860	1334.592	1056.585
60.417	23.686	1334.230	1055.173
61.432	23.997	1332.277	1055.380
62.447	23.644	1331.338	1052.449
63.461	23.633	1330.139	1051.343
64.476	23.712	1329.495	1051.209
65.490	23.805	1327.442	1050.041
66.505	23.775	1326.546	1049.061
67.520	23.811	1325.462	1048.324
68.534	23.632	1324.866	1046.704
69.549	23.687	1323.523	1045.878
70.563	23.350	1322.743	1043.185
71.578	23.471	1321.647	1042.939
72.593	23.603	1320.643	1042.828
73.607	23.561	1319.370	1041.483
74.622	23.482	1319.559	1041.077
75.636	23.659	1318.274	1041.010
76.651	23.515	1317.744	1039.654
77.666	23.409	1317.917	1039.077
78.680	23.402	1318.027	1039.035
79.695	23.644	1316.404	1039.078
80.709	23.890	1315.756	1039.913
81.724	23.791	1315.170	1038.778
82.739	23.876	1314.852	1038.930
83.753	24.331	1314.193	1040.974
84.768	24.370	1313.602	1040.646
85.782	24.480	1311.800	1039.762
86.797	24.572	1310.587	1039.249
87.812	24.480	1310.267	1038.367
88.826	24.368	1308.737	1036.413
89.841	24.105	1308.680	1034.746
90.855	24.328	1307.294	1034.850
91.870	24.716	1306.216	1036.155
92.884	24.376	1306.567	1034.371
93.899	24.621	1304.146	1033.783
94.914	24.562	1304.444	1033.585
95.928	24.488	1303.396	1032.237
96.943	24.683	1303.072	1033.017
97.957	24.359	1301.361	1029.695
98.972	24.725	1299.554	1030.284
99.987	24.476	1299.679	1028.857
101.001	24.241	1300.027	1027.686
102.016	24.206	1298.398	1026.108
103.030	24.244	1297.995	1025.920
104.045	24.146	1296.365	1023.974
105.060	24.118	1294.636	1022.355
106.074	24.086	1294.097	1021.661
107.089	23.930	1292.925	1019.750
108.103	23.755	1291.664	1017.658
109.118	23.737	1290.093	1016.229
110.133	23.808	1288.595	1015.368
111.147	23.576	1287.111	1012.781
112.162	23.492	1286.605	1011.815
113.176	23.762	1285.847	1012.669
114.191	23.755	1284.499	1011.479
115.206	23.853	1283.681	1011.303
116.220	23.886	1283.279	1011.083
117.235	23.952	1281.350	1009.852
118.249	23.674	1280.194	1007.270
119.264	23.541	1279.634	1005.987
120.279	23.727	1278.638	1006.170
121.293	23.594	1277.194	1004.192
122.308	23.512	1276.727	1003.269
123.322	23.181	1275.860	1000.629
124.337	23.463	1274.429	1001.011
125.352	23.559	1273.760	1000.938
126.366	23.495	1272.875	999.793
127.381	23.703	1271.551	999.839
128.395	23.200	1271.343	996.753
129.410	23.384	1269.658	996.380
130.424	22.996	1269.948	994.335
131.439	23.508	1268.997	996.382
132.454	23.710	1268.317	996.890
133.468	23.748	1267.088	996.050
134.483	23.529	1268.455	995.809
135.497	24.007	1265.803	996.317
136.512	23.769	1265.046	994.297
137.527	23.730	1264.173	993.310
138.541	23.829	1261.848	991.947
139.556	23.807	1262.114	991.946
140.570	24.065	1260.267	991.843
141.585	23.982	1260.107	991.165
142.600	24.307	1259.945	992.759
143.614	24.418	1259.527	992.960
144.629	24.236	1258.402	990.976
145.643	24.219	1256.184	989.045
146.658	24.155	1254.784	987.504
147.673	24.272	1254.256	987.649
148.687	24.184	1253.084	986.151
149.702	24.026	1250.494	983.151
150.716	23.403	1250.309	979.477
151.731	23.693	1248.703	979.734
152.746	23.662	1247.846	978.802
153.760	24.007	1246.229	979.345
154.775	24.413	1245.786	981.143
155.789	24.428	1244.922	980.459
156.804	24.345	1244.315	979.441
157.819	23.901	1244.236	976.852
158.833	24.141	1242.567	976.770
159.848	24.379	1241.629	977.253
160.862	24.276	1241.596	976.576
161.877	24.017	1240.556	974.251
162.892	23.977	1239.080	972.791
163.906	23.684	1237.988	970.247
164.921	23.644	1237.607	969.641
165.935	23.788	1237.095	969.943
166.950	23.807	1237.195	970.039
167.964	23.877	1235.345	968.883
168.979	23.846	1234.830	968.224
169.994	24.095	1233.214	968.226
171.008	24.103	1233.003	968.017
172.023	24.153	1232.004	967.418
173.037	24.160	1230.751	966.390
174.052	24.178	1231.235	966.779
175.067	23.852	1230.456	964.315
176.081	23.717	1228.949	962.318
177.096	23.719	1228.727	962.070
178.110	23.766	1228.172	961.801
179.125	23.704	1226.529	960.094
180.140	23.680	1225.955	959.431
181.154	24.048	1223.910	959.731
182.169	24.307	1223.353	960.608
183.183	24.361	1222.144	959.864
184.198	24.350	1220.970	958.795
185.213	24.184	1220.598	957.528
186.227	24.161	1220.552	957.280
187.242	24.195	1218.898	956.082
188.256	24.376	1217.960	956.233
189.271	24.468	1216.651	955.612
190.286	24.110	1216.746	953.684
191.300	23.992	1215.242	951.793
192.315	23.948	1214.594	950.963
193.329	24.212	1212.660	950.775
194.344	23.629	1213.609	948.320
195.359	23.779	1212.234	947.965
196.373	23.663	1210.836	946.170
197.388	23.758	1210.712	946.494
198.402	24.111	1211.492	948.903
199.417	24.281	1210.980	949.321
200.432	24.586	1210.534	950.509
201.446	24.345	1210.213	948.893
202.461	24.447	1210.184	949.328
203.475	24.270	1208.429	946.928
204.490	23.976	1207.590	944.626
205.504	23.634	1206.738	942.063
206.519	23.686	1205.114	940.983
207.534	23.659	1203.920	939.825
208.548	23.499	1202.768	937.999
209.563	23.839	1201.902	939.038
210.577	23.738	1201.185	937.862
211.592	23.864	1199.425	937.066
212.607	24.083	1200.341	938.854
213.621	24.009	1200.224	938.288
214.636	24.148	1197.460	936.775
215.650	23.920	1197.472	935.504
216.665	24.402	1196.856	937.476
217.680	24.793	1194.684	937.741
218.694	24.546	1194.820	936.470
219.709	24.422	1194.270	935.305
220.723	24.456	1191.997	933.619
221.738	24.295	1192.785	933.311
222.753	23.920	1192.375	930.947
223.767	24.043	1190.997	930.432
224.782	24.457	1190.630	932.223
225.796	24.696	1190.288	933.120
226.811	24.569	1188.836	931.237
227.826	24.200	1188.594	929.043
228.840	24.076	1188.283	928.071
229.855	24.309	1186.749	928.003
230.869	24.186	1186.936	927.430
231.884	23.941	1186.109	925.423
232.899	23.889	1184.086	923.494
233.913	23.906	1184.266	923.643
234.928	24.043	1183.030	923.308
235.942	23.898	1183.024	922.470
236.957	23.549	1182.135	919.883
237.972	23.486	1181.206	918.754
238.986	23.787	1180.792	919.910
240.001	24.012	1178.718	919.375
241.015	23.848	1178.948	918.624
242.030	23.933	1177.932	918.191
243.045	23.954	1177.611	917.966
244.059	23.883	1177.374	917.338
245.074	24.293	1176.320	918.545
246.088	24.286	1175.801	918.021
247.103	24.501	1174.371	917.931
248.117	24.462	1175.169	918.273
249.132	24.446	1174.434	917.534
250.147	24.942	1173.881	919.570
251.161	25.170	1172.756	919.777
252.176	25.111	1173.160	919.708
253.190	24.935	1172.312	918.061
254.205	25.132	1171.729	918.531
255.220	24.974	1171.479	917.447
256.234	25.273	1170.632	918.231
257.249	25.252	1169.757	917.356
258.263	25.111	1168.975	915.942
259.278	25.056	1168.637	915.313
260.293	25.213	1167.553	915.187
261.307	25.302	1167.817	915.765
262.322	25.187	1166.857	914.348
263.336	25.298	1165.947	914.118
264.351	25.051	1165.733	912.610
265.366	25.439	1165.138	914.037
266.380	25.292	1164.482	912.697
267.395	25.039	1163.588	910.630
268.409	24.884	1161.804	908.364
269.424	24.963	1161.494	908.441
270.439	24.588	1162.063	906.905
271.453	24.832	1160.475	906.824
272.468	24.680	1159.619	905.301
273.482	24.552	1159.149	904.210
274.497	24.563	1158.153	903.405
275.512	24.561	1157.571	902.864
276.526	24.488	1157.172	902.103
277.541	24.604	1156.423	902.026
278.555	24.549	1156.268	901.548
279.570	25.128	1155.372	903.688
280.585	25.270	1154.099	903.325
281.599	25.300	1153.299	902.769
282.614	24.981	1151.338	899.554
283.628	24.855	1150.544	898.220
284.643	24.776	1150.749	897.907
285.657	24.566	1149.429	895.742
286.672	24.705	1149.203	896.183
287.687	24.849	1147.968	895.863
288.701	25.075	1146.822	896.022
289.716	24.785	1146.292	894.075
290.730	24.738	1145.112	892.844
291.745	24.905	1145.142	893.619
292.760	24.877	1144.768	893.113
293.774	25.040	1143.613	892.944
294.789	25.364	1143.529	894.411
295.803	25.315	1143.318	893.922
296.818	24.903	1142.041	890.794
297.833	24.871	1141.195	889.896
298.847	24.559	1141.439	888.458
299.862	24.717	1140.062	888.093
300.876	24.860	1138.462	887.480
301.891	24.997	1139.115	888.589
302.906	24.977	1139.121	888.415
303.920	25.079	1138.350	888.239
304.935	25.362	1136.995	888.505
305.949	25.197	1136.735	887.409
306.964	25.547	1136.303	888.720
307.979	25.279	1136.070	887.135
308.993	25.279	1134.217	885.609
310.008	25.229	1133.012	884.347
311.022	25.197	1132.871	883.997
312.037	25.721	1131.070	885.091
313.052	25.251	1131.317	882.897
314.066	25.101	1129.431	880.606
315.081	24.668	1128.457	877.648
316.095	24.459	1127.941	876.143
317.110	24.959	1126.657	877.517
318.125	24.823	1126.033	876.285
319.139	24.584	1125.634	874.731
320.154	24.723	1125.201	874.995
321.168	24.189	1125.944	872.880
322.183	24.637	1124.338	873.748
323.197	24.791	1124.197	874.317
324.212	24.891	1123.572	874.241
325.227	24.735	1122.921	872.894
326.241	24.738	1122.405	872.430
327.256	24.785	1121.785	872.103
328.270	24.856	1119.897	870.903
329.285	24.781	1119.523	870.171
330.300	24.806	1119.352	870.082
331.314	24.724	1117.449	868.128
332.329	24.760	1115.929	867.042
333.343	24.964	1115.978	867.993
334.358	25.069	1115.423	867.995
335.373	25.193	1115.409	868.507
336.387	25.207	1114.862	868.072
337.402	25.055	1115.182	867.506
338.416	25.501	1112.655	867.620
339.431	25.708	1112.120	868.120
340.446	25.577	1112.380	867.615
341.460	25.631	1112.097	867.579
342.475	26.014	1110.905	868.420
343.489	26.100	1109.734	867.840
344.504	25.793	1109.159	865.837
345.519	25.706	1109.592	865.681
346.533	25.953	1107.998	865.547
347.548	25.726	1108.106	864.463
348.562	25.662	1106.388	862.738
349.577	25.527	1105.009	860.941
350.592	25.349	1104.888	859.918
351.606	25.551	1102.626	859.046
352.621	25.160	1102.887	857.307
353.635	25.108	1101.803	856.137
354.650	24.866	1100.781	854.114
355.665	25.071	1101.094	855.262
356.679	25.164	1100.285	854.999
357.694	25.668	1099.499	856.712
358.708	25.579	1099.341	856.093
359.723	25.477	1098.140	854.596
360.738	25.531	1097.803	854.513
361.752	25.472	1096.583	853.208
362.767	25.469	1096.377	852.957
363.781	25.148	1097.357	852.118
364.796	25.394	1096.206	852.318
365.810	25.872	1096.181	854.489
366.825	25.832	1094.854	853.194
367.840	26.137	1094.753	854.482
368.854	26.108	1094.877	854.363
369.869	26.149	1093.632	853.511
370.883	25.951	1091.822	851.092
371.898	25.810	1092.237	850.670
372.913	25.582	1091.123	848.653
373.927	25.624	1090.494	848.287
374.942	25.810	1090.475	849.072
375.956	26.320	1088.600	849.937
376.971	25.843	1088.796	847.771
377.986	25.697	1089.146	847.282
379.000	25.866	1089.505	848.282
380.015	26.175	1088.572	848.934
381.029	25.971	1087.687	847.210
382.044	25.899	1086.775	846.086
383.059	25.837	1085.592	844.798
384.073	26.007	1085.044	845.097
385.088	26.213	1083.955	845.136
386.102	25.848	1083.902	843.314
387.117	25.840	1082.007	841.728
388.132	25.445	1081.221	839.197
389.146	25.733	1079.698	839.282
390.161	25.689	1078.927	838.405
391.175	25.584	1079.223	838.069
392.190	25.495	1078.468	836.995
393.205	25.966	1078.577	839.200
394.219	26.183	1076.520	838.532
395.234	25.710	1076.593	836.318
396.248	25.594	1075.545	834.892
397.263	25.696	1073.959	834.058
398.278	25.394	1073.557	832.272
399.292	25.724	1072.778	833.122
400.307	25.702	1072.219	832.513
401.321	25.716	1071.581	832.010
402.336	25.429	1069.875	829.288
403.350	25.463	1068.961	828.664
404.365	25.546	1069.314	829.243
405.380	25.793	1068.179	829.428
406.394	25.922	1067.778	829.638
407.409	25.970	1067.796	829.800
408.423	26.122	1067.671	830.329
409.438	26.240	1066.327	829.750
410.453	26.004	1065.797	828.184
411.467	26.461	1064.647	829.308
412.482	26.177	1065.049	828.247
413.496	26.065	1064.102	826.924
414.511	26.324	1063.852	827.844
415.526	26.388	1063.504	827.790
416.540	26.249	1063.436	827.032
417.555	26.647	1062.304	827.898
418.569	26.077	1061.984	824.971
419.584	26.176	1061.092	824.654
420.599	26.052	1060.702	823.712
421.613	154.439	1404.251	1794.133
422.628	141.968	1454.271	1794.216
