DTS Sentinel unit serial number:	SN413079Multiplexer serial number:	ORYXHardware model number:	OX4-SRSoftware version number:	ORYX F/W v4.00 Oryx Data Collector v3.7.2.0data status	okinstallation	princeton_trtdifferential loss correction	single-endedforward channel	channel 2reverse channel	N/Adate	2019/09/15time	20:51:35forward acquisition time	60.00reverse acquisition time	0.00gamma	496.2192k internal	0.2332k external	0.2332temperature offset calibration	0.9935default loss term (dB/km)	0.3790temperature slope calibration	1.0000multiplexer offset coefficient	1.0000multiplexer slope coefficient	1.0000fibre end	0.00T internal ref (°C)	32.22T ext. ref 1 (°C)	7.99T ext. ref 2 (°C)	24.43length (m)	temperature (°C)	Stokes	anti-Stokes-747.200	-94.430	0.250	-0.069
-746.185	155.157	0.147	0.204
-745.171	-179.480	0.062	0.001
-744.156	-86.541	0.045	0.014
-743.142	-45.366	-0.120	0.060
-742.127	-143.882	-0.208	-0.020
-741.112	800.000	-0.121	-0.352
-740.098	612.398	0.078	0.196
-739.083	-86.984	-0.206	0.063
-738.069	-27.872	-0.083	0.049
-737.054	-116.231	0.226	-0.042
-736.039	386.473	-0.094	-0.194
-735.025	13.191	0.445	0.346
-734.010	413.388	-0.081	-0.172
-732.996	-99.188	-0.138	-0.035
-731.981	-53.124	-0.351	-0.162
-730.966	292.974	0.165	-0.303
-729.952	-72.091	-0.207	0.077
-728.937	-125.021	-0.257	0.040
-727.923	72.510	-0.099	0.104
-726.908	-24.091	-0.212	-0.127
-725.894	-115.499	-0.357	0.067
-724.879	-200.000	-0.005	-0.163
-723.864	-77.931	0.299	-0.104
-722.850	294.581	-0.199	-0.366
-721.835	164.884	-0.201	-0.284
-720.821	-200.000	0.013	0.279
-719.806	-104.659	-0.209	0.048
-718.791	-200.000	-0.030	0.179
-717.777	-21.164	0.197	0.121
-716.762	-44.261	-0.123	-0.062
-715.748	14.015	0.364	0.285
-714.733	35.362	0.198	-0.175
-713.718	-139.154	0.244	0.027
-712.704	249.239	-0.088	0.150
-711.689	381.729	0.076	0.157
-710.675	311.961	-0.065	-0.123
-709.660	40.761	0.154	-0.139
-708.645	-136.253	0.253	0.030
-707.631	-73.422	0.287	-0.105
-706.616	-21.240	0.306	0.188
-705.602	32.954	-0.142	0.124
-704.587	-117.685	0.171	-0.031
-703.572	61.415	-0.244	-0.244
-702.558	-48.025	-0.101	-0.049
-701.543	-43.546	0.277	-0.141
-700.529	89.552	0.107	0.119
-699.514	-200.000	-0.050	0.235
-698.499	-61.505	-0.138	0.058
-697.485	14.065	0.164	-0.128
-696.470	-38.293	-0.217	-0.115
-695.456	-73.509	0.151	-0.055
-694.441	207.399	0.100	-0.157
-693.426	-45.285	0.100	0.050
-692.412	-187.987	-0.221	0.003
-691.397	800.000	-0.031	0.105
-690.383	-43.626	-0.086	-0.044
-689.368	289.658	0.051	-0.092
-688.354	-200.000	0.037	-0.266
-687.339	95.642	0.151	-0.173
-686.324	-200.000	0.004	-0.155
-685.310	10.396	-0.057	-0.043
-684.295	-34.616	-0.160	-0.088
-683.281	800.000	-0.050	-0.141
-682.266	5.835	-0.117	-0.087
-681.251	800.000	-0.126	-0.364
-680.237	-46.660	0.316	-0.155
-679.222	212.986	-0.158	0.250
-678.208	-200.000	0.016	-0.309
-677.193	-60.186	0.289	-0.123
-676.178	800.000	-0.034	-0.150
-675.164	800.000	0.026	0.074
-674.149	-200.000	0.046	-0.341
-673.135	-130.788	0.151	0.020
-672.120	-100.571	-0.200	-0.050
-671.105	-17.333	0.329	0.208
-670.091	800.000	-0.083	-0.259
-669.076	-101.145	0.312	-0.077
-668.062	-39.815	-0.227	0.119
-667.047	-2.776	-0.082	0.058
-666.032	306.636	-0.053	-0.099
-665.018	-12.610	0.138	-0.090
-664.003	97.892	0.113	0.131
-662.989	285.427	0.114	-0.206
-661.974	-65.397	-0.123	-0.050
-660.959	-113.007	0.224	-0.044
-659.945	-200.000	-0.000	0.134
-658.930	435.364	0.049	-0.107
-657.916	800.000	0.091	0.253
-656.901	-38.885	-0.063	0.034
-655.886	-26.320	0.069	-0.041
-654.872	167.526	0.246	-0.350
-653.857	-121.969	0.411	0.068
-652.843	5.956	0.317	-0.236
-651.828	312.256	-0.171	-0.322
-650.814	-50.302	0.227	0.108
-649.799	-200.000	0.013	0.089
-648.784	-131.408	0.187	0.025
-647.770	-145.051	-0.116	0.011
-646.755	120.492	-0.290	0.361
-645.741	153.589	-0.093	-0.127
-644.726	-130.638	0.119	-0.016
-643.711	800.000	0.021	0.067
-642.697	-145.115	-0.438	0.040
-641.682	79.629	-0.191	0.205
-640.668	-38.127	-0.104	-0.055
-639.653	-135.003	-0.325	-0.039
-638.638	-109.709	-0.163	0.034
-637.624	166.071	0.096	0.136
-636.609	800.000	0.108	-0.302
-635.595	-45.708	0.116	0.058
-634.580	800.000	-0.084	0.233
-633.565	92.196	-0.355	0.400
-632.551	-158.272	0.154	0.009
-631.536	79.356	0.262	0.281
-630.522	800.000	0.067	0.194
-629.507	390.781	-0.023	0.048
-628.492	-35.516	-0.334	0.182
-627.478	-128.490	0.106	-0.015
-626.463	14.844	0.327	0.256
-625.449	-34.395	-0.043	0.024
-624.434	163.264	-0.118	-0.167
-623.419	800.000	0.035	0.103
-622.405	-123.972	0.112	0.018
-621.390	49.269	0.351	0.330
-620.376	-200.000	-0.039	-0.175
-619.361	-129.642	-0.182	0.025
-618.346	286.227	0.242	-0.437
-617.332	63.220	-0.325	0.326
-616.317	800.000	-0.138	-0.434
-615.303	41.597	0.396	0.359
-614.288	-97.325	-0.221	-0.058
-613.273	800.000	-0.032	-0.116
-612.259	-200.000	-0.126	0.000
-611.244	800.000	0.066	-0.208
-610.230	-200.000	0.016	-0.240
-609.215	543.556	0.051	-0.122
-608.201	-78.835	0.132	0.045
-607.186	800.000	0.020	-0.084
-606.171	4.021	-0.275	0.201
-605.157	-9.661	0.122	-0.081
-604.142	74.770	-0.265	-0.279
-603.128	-34.196	-0.249	-0.137
-602.113	-51.903	-0.077	0.036
-601.098	50.100	0.035	-0.033
-600.084	-152.175	0.211	-0.015
-599.069	-200.000	0.020	0.095
-598.055	-32.690	-0.064	-0.036
-597.040	164.690	0.236	-0.334
-596.025	-43.840	0.191	-0.096
-595.011	81.183	-0.123	-0.133
-593.996	-5.000	0.270	-0.186
-592.982	800.000	0.118	-0.336
-591.967	800.000	0.088	-0.247
-590.952	184.841	0.053	-0.079
-589.938	52.814	0.096	-0.092
-588.923	-200.000	0.054	0.300
-587.909	-200.000	-0.032	-0.229
-586.894	-172.928	-0.114	-0.004
-585.879	-200.000	0.010	0.114
-584.865	-43.866	0.161	0.081
-583.850	-200.000	0.002	-0.107
-582.836	-70.436	-0.226	-0.086
-581.821	-119.070	-0.075	-0.013
-580.806	-31.962	-0.254	0.142
-579.792	-31.393	0.185	-0.104
-578.777	-120.266	-0.335	0.057
-577.763	442.735	-0.087	-0.191
-576.748	-200.000	0.008	-0.072
-575.733	-136.652	-0.089	-0.010
-574.719	2.626	-0.031	0.022
-573.704	-200.000	-0.070	0.327
-572.690	-43.731	-0.198	-0.100
-571.675	-37.638	-0.183	0.098
-570.661	137.676	0.098	-0.128
-569.646	23.358	0.083	-0.068
-568.631	7.556	0.040	-0.030
-567.617	-113.509	0.090	-0.018
-566.602	800.000	0.065	-0.226
-565.588	21.634	-0.083	-0.067
-564.573	398.538	0.058	0.121
-563.558	-90.747	-0.209	0.060
-562.544	-200.000	0.061	0.320
-561.529	-55.214	-0.291	-0.131
-560.515	-200.000	-0.033	0.160
-559.500	28.267	-0.158	0.133
-558.485	800.000	0.057	0.217
-557.471	-67.236	-0.003	-0.001
-556.456	-150.638	-0.301	-0.023
-555.442	109.299	0.191	0.229
-554.427	800.000	0.024	-0.089
-553.412	-200.000	0.012	-0.144
-552.398	800.000	0.081	-0.224
-551.383	-43.120	-0.100	-0.051
-550.369	31.233	-0.177	-0.151
-549.354	-102.173	0.252	-0.060
-548.339	800.000	0.051	0.175
-547.325	271.021	-0.190	-0.334
-546.310	-110.892	-0.356	-0.073
-545.296	-139.896	0.193	-0.020
-544.281	-12.845	0.206	0.134
-543.266	-18.305	-0.232	-0.145
-542.252	56.254	-0.236	-0.229
-541.237	288.389	0.218	-0.394
-540.223	-91.721	-0.046	-0.013
-539.208	-200.000	0.000	-0.084
-538.193	-23.679	0.157	-0.094
-537.179	-200.000	0.018	-0.264
-536.164	-200.000	-0.018	-0.083
-535.150	-28.532	0.396	0.228
-534.135	137.072	0.111	-0.145
-533.121	411.340	-0.143	-0.303
-532.106	-34.663	-0.062	0.034
-531.091	3.255	0.246	0.178
-530.077	179.584	-0.197	-0.288
-529.062	-62.851	0.160	0.066
-528.048	-42.784	0.288	-0.146
-527.033	4.934	0.270	0.198
-526.018	150.028	0.051	0.069
-525.004	38.720	-0.010	0.009
-523.989	-134.736	0.060	-0.007
-522.975	-200.000	-0.063	0.377
-521.960	115.117	-0.249	0.303
-520.945	2.888	0.280	-0.203
-519.931	-40.315	-0.121	-0.063
-518.916	142.881	0.014	0.018
-517.902	-162.950	0.219	0.011
-516.887	-39.597	0.472	-0.246
-515.872	273.394	-0.121	-0.214
-514.858	-200.000	0.011	-0.189
-513.843	51.627	0.030	0.029
-512.829	60.529	0.098	-0.097
-511.814	-200.000	0.003	-0.032
-510.799	255.004	-0.160	0.272
-509.785	-85.725	0.136	-0.042
-508.770	-120.799	-0.335	0.056
-507.756	800.000	0.060	-0.261
-506.741	297.864	0.142	-0.260
-505.726	-107.074	0.310	-0.068
-504.712	-33.024	-0.122	0.067
-503.697	-200.000	-0.018	0.086
-502.683	-200.000	0.010	0.217
-501.668	-44.103	-0.104	0.052
-500.653	-14.135	-0.139	-0.090
-499.639	145.589	0.104	0.139
-498.624	79.202	-0.152	0.162
-497.610	386.691	0.088	0.181
-496.595	156.118	-0.091	-0.125
-495.581	-80.910	-0.284	-0.094
-494.566	-62.832	0.322	-0.133
-493.551	-137.076	0.052	-0.006
-492.537	-200.000	0.022	-0.119
-491.522	30.380	-0.233	-0.198
-490.508	-200.000	-0.076	-0.486
-489.493	179.507	0.107	-0.156
-488.478	191.781	0.123	0.185
-487.464	258.223	-0.060	-0.102
-486.449	-111.257	0.237	-0.048
-485.435	11.235	0.312	0.238
-484.420	23.704	0.334	0.274
-483.405	62.320	0.091	0.090
-482.391	281.607	0.023	-0.040
-481.376	-87.064	0.230	0.070
-480.362	-103.068	0.139	-0.033
-479.347	-200.000	-0.261	-0.000
-478.332	0.701	0.104	0.074
-477.318	-49.557	-0.222	0.105
-476.303	800.000	0.070	0.227
-475.289	-200.000	-0.052	-0.295
-474.274	-200.000	-0.038	-0.309
-473.259	424.541	0.084	0.180
-472.245	-9.455	0.181	-0.120
-471.230	800.000	0.091	-0.287
-470.216	241.117	-0.125	0.208
-469.201	-156.619	-0.133	0.008
-468.186	800.000	0.050	-0.152
-467.172	-51.296	0.170	-0.079
-466.157	800.000	-0.060	0.214
-465.143	283.585	-0.102	0.183
-464.128	175.401	-0.168	0.242
-463.113	-139.431	0.302	0.032
-462.099	-113.195	-0.031	-0.006
-461.084	2.756	0.124	-0.090
-460.070	174.038	-0.189	-0.271
-459.055	-200.000	-0.023	0.177
-458.040	-123.490	-0.111	0.018
-457.026	147.288	0.097	0.130
-456.011	-90.562	0.196	0.056
-454.997	215.616	-0.200	0.316
-453.982	-48.792	-0.179	-0.086
-452.968	225.751	-0.099	-0.159
-451.953	800.000	0.058	0.222
-450.938	795.369	-0.008	-0.021
-449.924	-200.000	0.106	-0.525
-448.909	-171.158	0.050	0.002
-447.895	474.795	0.042	0.095
-446.880	-24.801	0.136	-0.080
-445.865	-68.157	-0.340	0.132
-444.851	428.226	-0.133	-0.287
-443.836	-167.107	-0.197	0.008
-442.822	296.974	-0.148	-0.269
-441.807	800.000	-0.152	-0.451
-440.792	235.191	-0.047	-0.078
-439.778	497.946	-0.029	0.067
-438.763	-163.213	0.260	-0.012
-437.749	-188.012	-0.090	0.001
-436.734	-112.144	0.192	0.038
-435.719	-200.000	-0.011	-0.440
-434.705	219.177	-0.029	-0.046
-433.690	1.307	0.190	-0.136
-432.676	-6.848	0.078	0.052
-431.661	-17.394	-0.124	0.077
-430.646	-123.739	0.251	-0.039
-429.632	-109.831	0.135	0.028
-428.617	-45.322	-0.298	0.147
-427.603	125.614	-0.109	-0.137
-426.588	-96.900	-0.076	0.020
-425.573	413.688	0.104	-0.220
-424.559	-200.000	-0.026	-0.173
-423.544	-200.000	-0.013	0.140
-422.530	800.000	0.073	-0.276
-421.515	141.377	0.026	-0.034
-420.500	47.661	-0.296	0.274
-419.486	430.701	-0.188	0.405
-418.471	-121.454	-0.289	-0.048
-417.457	-17.840	0.192	0.120
-416.442	-200.000	0.024	-0.160
-415.428	57.883	0.092	-0.090
-414.413	-62.105	-0.193	-0.080
-413.398	185.817	-0.030	0.044
-412.384	382.069	0.086	0.176
-411.369	-1.139	0.115	0.081
-410.355	-200.000	-0.066	0.349
-409.340	-66.387	-0.263	0.104
-408.325	-200.000	0.030	-0.195
-407.311	0.971	-0.192	0.137
-406.296	418.483	0.144	-0.305
-405.282	-76.685	-0.172	0.060
-404.267	-38.055	0.180	-0.095
-403.252	16.375	-0.136	0.106
-402.238	107.667	-0.126	0.149
-401.223	-135.596	0.388	0.046
-400.209	-63.795	-0.258	-0.105
-399.194	-9.094	-0.021	-0.014
-398.179	-3.243	0.190	-0.132
-397.165	-71.249	-0.162	0.060
-396.150	89.085	0.073	0.080
-395.136	8.390	0.196	-0.146
-394.121	-88.372	0.126	0.037
-393.106	22.365	-0.090	-0.073
-392.092	-17.561	0.128	-0.080
-391.077	-83.489	-0.103	-0.033
-390.063	800.000	-0.092	0.318
-389.048	-91.584	0.069	0.019
-388.033	-200.000	-0.028	-0.168
-387.019	-148.428	0.213	0.017
-386.004	-155.202	-0.210	-0.014
-384.990	288.114	0.103	0.186
-383.975	-43.509	0.239	0.120
-382.960	-136.427	-0.277	-0.032
-381.946	555.787	0.106	0.254
-380.931	387.165	-0.134	0.275
-379.917	-73.680	-0.052	-0.019
-378.902	-200.000	-0.019	-0.270
-377.888	14.855	-0.205	-0.159
-376.873	-20.359	0.200	0.122
-375.858	-200.000	-0.034	0.344
-374.844	349.661	0.109	0.214
-373.829	-119.164	0.215	-0.037
-372.815	-200.000	0.010	-0.196
-371.800	-86.815	-0.089	-0.027
-370.785	698.435	0.030	0.079
-369.771	523.007	0.017	0.039
-368.756	-134.937	0.304	0.036
-367.742	255.596	-0.171	-0.290
-366.727	-200.000	0.016	0.316
-365.712	-200.000	0.006	-0.078
-364.698	-86.917	-0.175	0.053
-363.683	-134.290	-0.185	-0.023
-362.669	-200.000	-0.057	-0.262
-361.654	-63.776	-0.406	-0.165
-360.639	-147.476	0.124	-0.010
-359.625	-200.000	0.024	0.183
-358.610	239.650	0.105	0.174
-357.596	-55.612	-0.325	0.144
-356.581	687.784	-0.045	0.116
-355.566	104.699	-0.180	0.210
-354.552	800.000	-0.066	0.249
-353.537	-83.339	0.140	-0.044
-352.523	-200.000	0.037	-0.385
-351.508	-54.532	0.148	-0.066
-350.493	-190.387	-0.340	0.004
-349.479	256.935	-0.125	0.212
-348.464	-89.976	0.122	-0.035
-347.450	130.338	0.206	0.262
-346.435	-200.000	0.117	0.564
-345.420	-200.000	0.000	-0.279
-344.406	-50.388	-0.221	-0.103
-343.391	-174.954	-0.205	0.006
-342.377	-46.558	-0.083	-0.040
-341.362	-200.000	-0.031	-0.229
-340.348	425.675	-0.120	-0.256
-339.333	-200.000	-0.061	-0.285
-338.318	-200.000	-0.003	0.168
-337.304	-26.845	-0.199	-0.115
-336.289	-112.292	0.391	0.078
-335.275	-38.232	-0.181	0.095
-334.260	-142.855	-0.388	0.037
-333.245	-74.795	0.168	-0.060
-332.231	800.000	0.041	0.127
-331.216	102.604	-0.164	-0.190
-330.202	-62.778	0.318	0.131
-329.187	189.340	-0.252	0.374
-328.172	-100.924	-0.003	-0.001
-327.158	-56.880	0.091	0.040
-326.143	253.233	0.082	-0.138
-325.129	8.880	0.247	0.185
-324.114	-77.900	0.010	0.004
-323.099	353.604	-0.144	-0.283
-322.085	2.999	0.030	-0.021
-321.070	-161.239	-0.129	-0.007
-320.056	199.480	-0.027	0.042
-319.041	98.313	0.088	-0.100
-318.026	-22.831	0.125	0.075
-317.012	-200.000	-0.006	-0.408
-315.997	223.448	-0.089	0.142
-314.983	-200.000	0.064	0.358
-313.968	-121.313	-0.287	0.047
-312.953	306.888	-0.140	0.258
-311.939	-111.179	-0.236	-0.048
-310.924	800.000	0.061	0.198
-309.910	-90.044	-0.191	-0.055
-308.895	185.330	-0.091	0.133
-307.880	-55.387	-0.201	0.089
-306.866	-138.274	0.390	-0.043
-305.851	-30.830	0.154	0.086
-304.837	-31.823	0.248	-0.137
-303.822	-187.283	0.479	-0.006
-302.807	116.169	0.226	-0.274
-301.793	-200.000	-0.016	-0.091
-300.778	-74.370	-0.025	-0.009
-299.764	44.477	0.192	0.175
-298.749	27.434	-0.258	0.215
-297.735	-200.000	0.011	0.062
-296.720	195.049	-0.088	-0.131
-295.705	175.894	-0.067	-0.095
-294.691	-37.705	-0.263	0.138
-293.676	727.500	-0.101	0.265
-292.662	-27.932	0.335	0.192
-291.647	34.175	0.173	0.149
-290.632	-136.812	-0.178	-0.020
-289.618	27.168	-0.196	-0.163
-288.603	-82.414	-0.263	-0.084
-287.589	-42.388	-0.144	0.073
-286.574	-200.000	-0.002	-0.150
-285.559	-34.468	0.216	0.117
-284.545	-123.070	-0.343	-0.054
-283.530	181.921	-0.130	0.189
-282.516	-87.266	-0.152	0.045
-281.501	89.740	-0.154	-0.170
-280.486	-200.000	-0.011	0.376
-279.472	-200.000	-0.020	-0.411
-278.457	171.746	-0.155	-0.220
-277.443	-64.059	-0.252	0.101
-276.428	144.477	-0.183	0.241
-275.413	-188.009	0.079	0.001
-274.399	-106.435	0.125	0.027
-273.384	-160.720	-0.206	0.011
-272.370	800.000	0.072	-0.203
-271.355	-93.404	-0.129	0.035
-270.340	-200.000	-0.033	-0.146
-269.326	7.228	-0.220	-0.162
-268.311	249.117	-0.071	0.119
-267.297	34.688	-0.033	-0.028
-266.282	150.730	-0.089	0.119
-265.267	-200.000	-0.011	0.087
-264.253	140.159	0.204	-0.266
-263.238	488.248	-0.162	-0.365
-262.224	800.000	0.042	0.165
-261.209	215.076	0.057	-0.090
-260.195	-200.000	-0.015	0.153
-259.180	139.991	-0.143	0.185
-258.165	89.429	0.158	-0.173
-257.151	39.570	0.060	0.053
-256.136	-200.000	0.002	-0.168
-255.122	33.891	-0.139	0.119
-254.107	-35.134	-0.099	0.053
-253.092	64.000	-0.160	-0.159
-252.078	-20.921	-0.278	-0.168
-251.063	15.874	0.125	0.097
-250.049	800.000	0.072	0.298
-249.034	322.377	-0.125	-0.234
-248.019	-13.211	0.165	0.106
-247.005	-113.515	-0.213	0.041
-245.990	-127.929	-0.212	0.030
-244.976	72.678	0.174	-0.179
-243.961	-104.557	0.207	-0.047
-242.946	-58.092	0.243	0.105
-241.932	685.350	0.116	-0.298
-240.917	59.522	0.105	-0.102
-239.903	276.693	0.285	0.499
-238.888	-200.000	0.009	0.158
-237.873	135.412	0.082	-0.105
-236.859	-200.000	-0.014	-0.182
-235.844	231.858	-0.252	0.407
-234.830	347.527	0.084	0.163
-233.815	800.000	0.124	-0.338
-232.800	14.464	0.201	0.155
-231.786	287.678	0.075	0.134
-230.771	-50.384	-0.158	0.073
-229.757	357.872	-0.030	-0.059
-228.742	65.145	0.203	0.202
-227.727	359.874	0.095	0.187
-226.713	487.491	0.072	0.162
-225.698	690.382	-0.067	0.173
-224.684	463.340	-0.069	0.152
-223.669	-200.000	0.266	-0.001
-222.655	-54.144	-0.196	0.088
-221.640	153.925	0.141	0.190
-220.625	-76.278	-0.097	-0.034
-219.611	-78.320	0.144	-0.049
-218.596	155.491	0.092	0.125
-217.582	4.642	0.094	-0.068
-216.567	-170.679	-0.060	0.002
-215.552	53.805	-0.186	0.176
-214.538	52.331	-0.167	0.157
-213.523	542.600	0.077	-0.181
-212.509	-200.000	-0.004	0.131
-211.494	98.401	0.044	-0.050
-210.479	256.754	0.091	0.154
-209.465	40.055	0.105	-0.093
-208.450	-15.291	0.273	-0.172
-207.436	-200.000	0.027	-0.121
-206.421	-86.650	-0.192	-0.058
-205.406	-20.969	0.341	-0.206
-204.392	-200.000	-0.007	0.084
-203.377	-35.519	0.189	-0.101
-202.363	-64.114	0.204	-0.082
-201.348	112.173	-0.145	0.173
-200.333	-119.207	0.297	0.051
-199.319	-71.539	-0.211	-0.078
-198.304	800.000	0.019	0.056
-197.290	423.458	-0.157	-0.333
-196.275	188.791	0.066	0.097
-195.260	-155.755	0.265	0.017
-194.246	41.005	-0.197	0.176
-193.231	723.124	0.051	-0.133
-192.217	800.000	0.087	0.268
-191.202	305.770	0.170	-0.311
-190.187	-99.175	0.303	0.075
-189.173	-200.000	0.015	-0.267
-188.158	56.578	0.326	0.312
-187.144	43.209	0.057	0.051
-186.129	111.430	0.346	0.410
-185.114	93.535	-0.263	-0.293
-184.100	33.664	0.122	-0.104
-183.085	145.801	0.129	0.170
-182.071	-7.070	-0.331	-0.221
-181.056	157.648	0.239	-0.326
-180.042	67.087	0.183	-0.184
-179.027	-136.367	-0.278	0.032
-178.012	772.063	0.043	0.116
-176.998	39.196	0.343	0.302
-175.983	229.835	0.063	0.102
-174.969	-200.000	0.019	0.311
-173.954	800.000	-0.023	0.079
-172.939	-85.109	0.463	-0.143
-171.925	800.000	-0.091	0.309
-170.910	148.943	0.158	0.211
-169.896	81.269	0.075	-0.079
-168.881	-200.000	0.028	-0.132
-167.866	435.321	0.171	-0.367
-166.852	-148.344	0.217	0.018
-165.837	-200.000	-0.002	-0.123
-164.823	-115.525	0.344	0.064
-163.808	-200.000	0.063	-0.294
-162.793	800.000	0.099	0.333
-161.779	101.059	-0.267	-0.305
-160.764	-160.589	-0.380	0.020
-159.750	725.177	0.128	-0.335
-158.735	72.131	0.140	0.144
-157.720	368.018	-0.102	0.202
-156.706	-112.024	0.157	-0.031
-155.691	-100.961	-0.337	0.081
-154.677	800.000	-0.078	0.222
-153.662	-200.000	-0.039	0.221
-152.647	43.710	-0.160	-0.144
-151.633	-138.994	-0.177	-0.019
-150.618	-109.816	0.114	-0.024
-149.604	50.548	0.232	0.216
-148.589	800.000	0.033	-0.142
-147.574	325.265	0.117	0.220
-146.560	110.272	-0.138	0.163
-145.545	-200.000	0.022	-0.306
-144.531	599.913	0.068	-0.166
-143.516	-113.295	0.193	-0.037
-142.502	-123.178	-0.343	0.054
-141.487	350.660	0.048	0.094
-140.472	571.971	0.076	-0.181
-139.458	800.000	-0.067	0.229
-138.443	107.636	-0.134	-0.157
-137.429	413.749	-0.073	-0.153
-136.414	5.012	0.112	0.081
-135.399	-200.000	-0.012	-0.329
-134.385	242.834	-0.100	-0.165
-133.370	-200.000	0.007	-0.102
-132.356	800.000	-0.023	0.091
-131.341	40.307	-0.170	-0.150
-130.326	-10.339	-0.040	0.026
-129.312	-131.954	0.271	-0.035
-128.297	-71.412	0.146	-0.054
-127.283	12.164	-0.119	-0.090
-126.268	-200.000	0.045	0.243
-125.253	-66.127	-0.051	-0.020
-124.239	87.495	-0.216	0.234
-123.224	538.885	0.083	0.194
-122.210	63.637	0.190	-0.188
-121.195	-163.762	0.122	0.006
-120.180	-200.000	-0.015	-0.257
-119.166	-82.254	-0.100	-0.032
-118.151	311.297	0.089	0.163
-117.137	-200.000	-0.044	0.243
-116.122	-190.146	0.140	0.002
-115.107	266.187	-0.228	-0.391
-114.093	800.000	0.029	0.104
-113.078	128.600	-0.127	-0.158
-112.064	27.917	0.117	-0.097
-111.049	-200.000	-0.009	0.228
-110.034	148.086	-0.325	0.430
-109.020	391.735	-0.023	0.047
-108.005	-22.299	0.398	0.237
-106.991	44.316	-0.228	0.205
-105.976	308.663	0.063	-0.115
-104.962	-139.786	0.051	0.005
-103.947	-112.415	0.150	-0.029
-102.932	22.240	0.101	0.081
-101.918	45.389	0.079	-0.071
-100.903	-62.723	0.223	0.090
-99.889	68.939	-0.301	-0.303
-98.874	-200.000	-0.035	-0.161
-97.859	-89.831	0.150	-0.043
-96.845	553.081	-0.130	-0.306
-95.830	-200.000	-0.098	-0.498
-94.816	32.179	0.234	-0.198
-93.801	-86.720	0.266	-0.080
-92.786	800.000	-0.089	0.269
-91.772	-38.343	-0.098	-0.051
-90.757	-66.313	-0.144	0.056
-89.743	800.000	-0.054	0.178
-88.728	-11.917	0.268	-0.172
-87.713	14.030	-0.240	0.183
-86.699	-116.734	0.215	0.039
-85.684	-200.000	-0.037	-0.175
-84.670	731.681	0.100	-0.263
-83.655	-200.000	-0.005	-0.400
-82.640	-200.000	-0.013	-0.150
-81.626	-8.742	-0.301	0.198
-80.611	-42.250	0.372	0.186
-79.597	-36.449	0.140	0.074
-78.582	145.806	-0.029	0.038
-77.567	174.714	0.059	-0.084
-76.553	-135.075	0.186	0.022
-75.538	-107.993	0.355	0.076
-74.524	-99.269	-0.152	-0.038
-73.509	114.550	0.128	0.153
-72.494	800.000	-0.040	0.126
-71.480	316.498	0.266	0.492
-70.465	0.509	0.238	0.167
-69.451	-200.000	-0.019	-0.133
-68.436	-61.035	0.214	0.089
-67.422	-200.000	-0.001	-0.106
-66.407	-200.000	-0.001	0.139
-65.392	-117.094	0.132	-0.024
-64.378	-200.000	-0.008	0.184
-63.363	-64.923	0.212	0.084
-62.349	-200.000	0.030	0.495
-61.334	59.554	-0.971	-0.937
-60.319	162.501	0.400	0.549
-59.305	800.000	-0.319	-1.093
-58.290	336.664	0.652	1.239
-57.276	565.189	0.688	1.634
-56.261	-200.000	96.096	581.301
-55.246	536.911	1376.419	3200.809
-54.232	163.195	2549.469	3508.249
-53.217	106.310	2255.283	2616.890
-52.203	41.474	1886.943	1672.211
-51.188	35.456	1680.322	1443.944
-50.173	32.814	1637.117	1387.359
-49.159	50.512	1684.947	1560.248
-48.144	52.037	1701.855	1587.213
-47.130	34.998	1662.606	1425.080
-46.115	32.366	1648.584	1393.539
-45.100	32.260	1643.790	1388.649
-44.086	32.265	1640.778	1386.083
-43.071	32.144	1639.007	1383.646
-42.057	32.203	1635.942	1381.435
-41.042	32.259	1633.899	1380.071
-40.027	32.217	1632.386	1378.428
-39.013	32.108	1630.528	1376.006
-37.998	32.002	1629.548	1374.347
-36.984	32.080	1627.738	1373.337
-35.969	32.183	1626.284	1372.809
-34.954	32.244	1624.898	1372.027
-33.940	32.230	1622.757	1370.066
-32.925	32.188	1621.168	1368.364
-31.911	32.157	1619.419	1366.604
-30.896	32.150	1617.897	1365.219
-29.881	32.134	1616.609	1363.960
-28.867	32.221	1614.416	1362.689
-27.852	32.231	1612.847	1361.381
-26.838	32.186	1611.642	1359.981
-25.823	32.257	1610.029	1359.083
-24.809	32.194	1609.008	1357.712
-23.794	32.271	1607.395	1356.854
-22.779	32.263	1606.319	1355.831
-21.765	32.193	1604.743	1353.946
-20.750	32.215	1602.926	1352.514
-19.736	32.277	1601.306	1351.537
-18.721	32.304	1600.217	1350.761
-17.706	32.241	1598.815	1349.069
-16.692	32.217	1597.436	1347.681
-15.677	32.235	1595.726	1346.316
-14.663	32.305	1594.398	1345.639
-13.648	32.249	1593.570	1344.486
-12.633	32.321	1591.171	1342.927
-11.619	32.248	1590.287	1341.603
-10.604	32.310	1588.286	1340.307
-9.590	32.342	1587.313	1339.663
-8.575	32.307	1585.870	1338.138
-7.560	32.254	1585.238	1337.177
-6.546	32.303	1583.932	1336.370
-5.531	32.266	1583.261	1335.489
-4.517	32.381	1581.307	1334.600
-3.502	32.280	1580.208	1332.908
-2.487	32.281	1578.801	1331.675
-1.473	31.893	1565.905	1318.018
-0.458	28.306	1545.498	1275.855
0.556	21.465	1544.785	1237.299
1.571	18.747	1566.486	1235.046
2.586	17.992	1579.725	1239.895
3.600	16.790	1529.305	1191.768
4.615	12.825	1429.834	1088.029
5.629	8.872	1371.932	1018.794
6.644	8.010	1364.789	1007.945
7.659	8.042	1363.182	1006.871
8.673	8.028	1362.233	1005.991
9.688	7.870	1359.869	1003.166
10.702	7.836	1357.035	1000.769
11.717	9.549	1360.576	1014.082
12.731	14.033	1367.994	1047.852
13.746	16.870	1372.489	1069.122
14.761	16.860	1371.378	1068.101
15.775	16.053	1368.152	1060.419
16.790	14.961	1366.071	1051.847
17.804	14.101	1363.558	1044.423
18.819	13.699	1362.004	1040.616
19.834	13.467	1360.687	1038.061
20.848	13.201	1359.361	1035.294
21.863	12.961	1358.097	1032.738
22.877	12.839	1357.313	1031.286
23.892	12.645	1356.742	1029.548
24.907	12.757	1355.233	1029.010
25.921	12.717	1354.834	1028.367
26.936	12.812	1353.609	1027.938
27.950	12.858	1352.307	1027.147
28.965	12.865	1351.349	1026.368
29.980	13.010	1350.242	1026.341
30.994	13.069	1348.815	1025.533
32.009	13.094	1347.736	1024.775
33.023	13.039	1346.842	1023.662
34.038	13.033	1345.574	1022.575
35.053	12.944	1344.370	1021.016
36.067	12.900	1343.364	1019.887
37.082	12.918	1342.471	1019.230
38.096	12.981	1341.343	1018.675
39.111	12.944	1340.796	1017.944
40.126	12.825	1339.878	1016.422
41.140	12.726	1338.867	1014.956
42.155	12.718	1338.074	1014.215
43.169	12.741	1338.103	1014.287
44.184	12.775	1337.475	1013.931
45.199	12.696	1337.309	1013.228
46.213	12.751	1336.764	1013.062
47.228	12.809	1336.017	1012.763
48.242	12.952	1334.558	1012.447
49.257	12.812	1333.239	1010.498
50.271	12.897	1331.856	1009.883
51.286	12.934	1330.367	1008.891
52.301	12.921	1329.175	1007.816
53.315	12.778	1328.792	1006.566
54.330	12.778	1327.064	1005.167
55.344	12.831	1325.497	1004.215
56.359	12.817	1325.289	1003.882
57.374	12.655	1324.159	1001.949
58.388	12.602	1323.847	1001.303
59.403	12.673	1322.935	1000.958
60.417	12.741	1322.290	1000.791
61.432	12.646	1321.275	999.359
62.447	12.710	1320.276	998.905
63.461	12.491	1319.714	997.062
64.476	12.652	1318.296	996.878
65.490	12.623	1317.183	995.772
66.505	12.602	1315.974	994.645
67.520	12.649	1314.411	993.656
68.534	12.647	1313.744	993.056
69.549	12.674	1312.327	992.059
70.563	12.618	1311.224	990.798
71.578	12.538	1310.548	989.721
72.593	12.517	1309.484	988.703
73.607	12.588	1308.504	988.301
74.622	12.451	1308.032	987.034
75.636	12.561	1307.304	987.057
76.651	12.593	1306.197	986.327
77.666	12.502	1306.084	985.609
78.680	12.552	1305.374	985.286
79.695	12.662	1304.692	985.340
80.709	12.606	1304.307	984.630
81.724	12.652	1303.608	984.287
82.739	12.654	1302.520	983.392
83.753	12.711	1301.298	982.722
84.768	12.865	1300.564	982.999
85.782	13.011	1298.702	982.373
86.797	12.948	1297.946	981.343
87.812	12.803	1296.955	979.641
88.826	12.800	1296.181	978.952
89.841	12.799	1294.935	977.918
90.855	12.851	1294.338	977.690
91.870	12.904	1292.977	976.888
92.884	12.942	1291.868	976.189
93.899	12.943	1291.456	975.798
94.914	12.915	1291.274	975.411
95.928	13.053	1290.135	975.281
96.943	12.923	1289.301	973.792
97.957	13.036	1287.622	973.109
98.972	12.939	1286.624	971.695
99.987	12.917	1285.950	970.967
101.001	12.940	1284.598	970.000
102.016	12.948	1284.027	969.529
103.030	12.969	1283.115	968.875
104.045	12.931	1282.471	968.080
105.060	12.884	1280.981	966.598
106.074	12.727	1279.787	964.692
107.089	12.597	1278.010	962.505
108.103	12.630	1277.071	961.905
109.118	12.621	1275.897	960.885
110.133	12.575	1274.510	959.485
111.147	12.643	1273.507	959.040
112.162	12.694	1272.136	958.222
113.176	12.777	1271.134	957.866
114.191	12.813	1269.863	957.034
115.206	12.770	1268.927	955.991
116.220	12.750	1267.568	954.767
117.235	12.829	1266.420	954.275
118.249	12.780	1265.140	952.941
119.264	12.719	1264.197	951.793
120.279	12.664	1263.443	950.828
121.293	12.741	1262.234	950.277
122.308	12.632	1261.687	949.150
123.322	12.633	1260.290	948.026
124.337	12.689	1259.050	947.331
125.352	12.681	1257.908	946.341
126.366	12.613	1257.074	945.237
127.381	12.602	1255.892	944.205
128.395	12.686	1254.824	943.795
129.410	12.659	1254.251	943.128
130.424	12.716	1253.685	942.948
131.439	12.718	1252.667	942.108
132.454	12.772	1251.645	941.565
133.468	12.718	1250.916	940.627
134.483	12.836	1249.786	940.365
135.497	12.780	1249.119	939.462
136.512	12.772	1247.850	938.376
137.527	12.828	1246.431	937.548
138.541	12.867	1245.010	936.616
139.556	12.867	1243.931	935.722
140.570	12.916	1243.287	935.433
141.585	13.031	1241.730	934.829
142.600	12.980	1241.017	933.920
143.614	13.051	1239.691	933.242
144.629	13.055	1238.551	932.325
145.643	13.000	1237.257	930.955
146.658	13.072	1235.633	930.057
147.673	12.981	1235.069	929.037
148.687	12.903	1233.909	927.644
149.702	12.882	1232.433	926.334
150.716	12.805	1231.197	924.892
151.731	12.810	1230.244	924.122
152.746	12.954	1229.046	923.947
153.760	12.985	1227.501	922.879
154.775	13.027	1226.361	922.173
155.789	13.055	1225.590	921.670
156.804	13.027	1224.797	920.838
157.819	13.025	1223.741	919.947
158.833	13.112	1222.931	919.744
159.848	13.150	1222.054	919.214
160.862	13.144	1221.048	918.340
161.877	13.072	1219.611	916.782
162.892	13.012	1218.768	915.732
163.906	12.984	1217.959	914.889
164.921	12.987	1216.899	914.029
165.935	12.985	1216.363	913.534
166.950	13.032	1215.294	912.907
167.964	13.039	1214.666	912.398
168.979	13.144	1213.777	912.229
169.994	13.080	1213.383	911.495
171.008	13.062	1212.304	910.508
172.023	13.197	1211.360	910.460
173.037	13.185	1211.033	910.066
174.052	13.308	1209.737	909.690
175.067	13.162	1209.072	908.309
176.081	13.050	1208.029	906.830
177.096	13.087	1207.144	906.286
178.110	13.129	1205.900	905.505
179.125	13.138	1204.862	904.691
180.140	13.171	1203.467	903.747
181.154	13.208	1202.168	902.892
182.169	13.276	1201.059	902.348
183.183	13.282	1200.091	901.575
184.198	13.355	1198.660	900.816
185.213	13.334	1197.757	899.949
186.227	13.302	1196.862	899.022
187.242	13.457	1195.836	899.010
188.256	13.465	1194.690	898.114
189.271	13.488	1193.588	897.330
190.286	13.262	1192.830	895.457
191.300	13.153	1192.000	894.166
192.315	13.073	1191.279	893.111
193.329	13.064	1190.698	892.550
194.344	13.135	1190.345	892.592
195.359	13.200	1189.457	892.199
196.373	13.315	1188.810	892.252
197.388	13.339	1188.386	891.986
198.402	13.453	1188.072	892.282
199.417	13.524	1187.046	891.816
200.432	13.662	1186.190	891.838
201.446	13.610	1185.646	891.070
202.461	13.633	1184.206	890.032
203.475	13.668	1183.714	889.771
204.490	13.652	1182.246	888.502
205.504	13.548	1181.116	887.022
206.519	13.626	1179.651	886.259
207.534	13.464	1178.766	884.646
208.548	13.498	1177.900	884.103
209.563	13.572	1176.802	883.595
210.577	13.668	1176.163	883.550
211.592	13.576	1175.574	882.540
212.607	13.636	1174.765	882.169
213.621	13.662	1174.264	881.854
214.636	13.595	1173.230	880.645
215.650	13.575	1172.400	879.836
216.665	13.811	1171.128	880.056
217.680	13.857	1170.090	879.444
218.694	13.883	1169.520	879.076
219.709	13.766	1168.819	877.848
220.723	13.817	1167.594	877.125
221.738	13.867	1167.094	876.935
222.753	13.839	1166.597	876.334
223.767	13.740	1166.421	875.604
224.782	13.811	1165.602	875.282
225.796	13.800	1164.729	874.496
226.811	13.989	1163.832	874.740
227.826	13.956	1163.018	873.874
228.840	13.907	1162.360	873.046
229.855	13.907	1161.748	872.507
230.869	13.908	1160.729	871.672
231.884	13.865	1159.697	870.595
232.899	13.841	1159.244	870.053
233.913	13.680	1158.716	868.733
234.928	13.769	1158.326	868.829
235.942	13.781	1157.251	868.008
236.957	13.801	1156.512	867.482
237.972	13.752	1155.669	866.519
238.986	13.832	1155.147	866.466
240.001	13.832	1154.289	865.750
241.015	13.861	1153.215	865.017
242.030	13.873	1152.549	864.502
243.045	13.887	1151.588	863.782
244.059	13.999	1150.787	863.684
245.074	14.066	1149.908	863.298
246.088	14.029	1149.652	862.835
247.103	14.076	1148.815	862.373
248.117	14.145	1147.897	861.965
249.132	14.299	1147.216	862.176
250.147	14.235	1146.676	861.364
251.161	14.483	1145.514	861.693
252.176	14.337	1145.480	860.838
253.190	14.305	1144.799	860.086
254.205	14.433	1144.100	860.143
255.220	14.487	1143.648	860.008
256.234	14.398	1142.912	858.920
257.249	14.423	1142.326	858.533
258.263	14.422	1142.034	858.231
259.278	14.447	1140.936	857.458
260.293	14.621	1139.938	857.529
261.307	14.461	1139.682	856.435
262.322	14.521	1139.402	856.458
263.336	14.587	1138.310	855.901
264.351	14.530	1137.811	855.156
265.366	14.729	1137.206	855.646
266.380	14.606	1136.400	854.334
267.395	14.573	1135.573	853.470
268.409	14.553	1134.929	852.808
269.424	14.656	1134.214	852.723
270.439	14.579	1133.927	852.037
271.453	14.572	1132.860	851.122
272.468	14.595	1132.358	850.786
273.482	14.448	1131.631	849.420
274.497	14.653	1130.499	849.535
275.512	14.587	1129.902	848.677
276.526	14.567	1129.229	847.996
277.541	14.606	1128.451	847.535
278.555	14.587	1128.172	847.150
279.570	14.730	1127.318	847.160
280.585	14.705	1126.416	846.284
281.599	14.803	1125.574	846.071
282.614	14.745	1124.560	844.942
283.628	14.688	1123.569	843.833
284.643	14.678	1122.527	842.927
285.657	14.647	1121.900	842.222
286.672	14.779	1120.765	841.960
287.687	14.773	1120.336	841.536
288.701	14.860	1119.324	841.136
289.716	14.837	1118.462	840.299
290.730	14.815	1118.294	839.990
291.745	14.875	1117.064	839.292
292.760	14.895	1116.417	838.833
293.774	14.856	1116.421	838.564
294.789	14.944	1115.553	838.283
295.803	14.923	1114.879	837.596
296.818	14.991	1113.497	836.820
297.833	14.973	1113.045	836.319
298.847	15.051	1112.446	836.183
299.862	15.029	1111.551	835.327
300.876	15.067	1110.852	834.920
301.891	15.021	1110.127	834.071
302.906	15.049	1109.703	833.818
303.920	15.097	1108.928	833.397
304.935	15.148	1108.184	833.021
305.949	15.305	1107.541	833.242
306.964	15.260	1107.020	832.553
307.979	15.142	1106.329	831.375
308.993	15.281	1105.335	831.244
310.008	15.238	1104.710	830.487
311.022	15.294	1103.734	829.957
312.037	15.253	1102.887	829.044
313.052	15.158	1102.402	828.136
314.066	15.142	1101.095	827.001
315.081	15.130	1100.144	826.158
316.095	15.134	1099.517	825.632
317.110	15.159	1099.139	825.397
318.125	15.137	1098.225	824.532
319.139	15.072	1098.002	823.972
320.154	15.140	1096.961	823.452
321.168	15.138	1096.484	823.011
322.183	15.186	1095.664	822.556
323.197	15.203	1095.471	822.422
324.212	15.262	1094.514	821.919
325.227	15.187	1094.183	821.232
326.241	15.289	1093.374	821.053
327.256	15.302	1092.576	820.442
328.270	15.126	1091.638	818.807
329.285	15.353	1090.723	819.154
330.300	15.349	1089.648	818.257
331.314	15.354	1088.749	817.534
332.329	15.180	1088.332	816.299
333.343	15.325	1086.807	815.788
334.358	15.379	1086.236	815.551
335.373	15.453	1085.518	815.299
336.387	15.356	1085.191	814.511
337.402	15.505	1084.032	814.291
338.416	15.436	1083.692	813.632
339.431	15.509	1083.255	813.584
340.446	15.609	1082.246	813.237
341.460	15.627	1081.449	812.651
342.475	15.646	1080.549	811.998
343.489	15.713	1079.711	811.618
344.504	15.765	1079.105	811.342
345.519	15.710	1078.325	810.420
346.533	15.648	1077.390	809.344
347.548	15.642	1077.010	808.960
348.562	15.753	1076.155	808.779
349.577	15.663	1075.066	807.459
350.592	15.701	1074.397	807.068
351.606	15.523	1074.059	805.886
352.621	15.671	1072.958	805.696
353.635	15.612	1072.265	804.827
354.650	15.586	1071.992	804.421
355.665	15.592	1071.216	803.798
356.679	15.626	1070.408	803.285
357.694	15.732	1070.079	803.474
358.708	15.793	1069.212	803.041
359.723	15.775	1068.651	802.463
360.738	15.770	1068.132	801.979
361.752	15.830	1067.474	801.701
362.767	15.730	1067.435	801.125
363.781	15.878	1066.357	800.949
364.796	15.962	1065.670	800.762
365.810	15.968	1065.268	800.415
366.825	15.955	1064.785	799.922
367.840	16.078	1064.273	800.050
368.854	16.076	1063.662	799.508
369.869	16.128	1062.619	798.901
370.883	16.072	1061.894	798.018
371.898	16.054	1061.032	797.214
372.913	16.142	1060.760	797.357
373.927	16.007	1060.321	796.317
374.942	16.129	1059.837	796.460
375.956	16.136	1058.676	795.552
376.971	16.120	1058.489	795.264
377.986	16.228	1057.817	795.197
379.000	16.225	1057.520	794.891
380.015	16.192	1057.156	794.392
381.029	16.192	1056.253	793.644
382.044	16.258	1055.188	793.080
383.059	16.289	1054.630	792.737
384.073	16.322	1053.829	792.220
385.088	16.261	1053.056	791.285
386.102	16.346	1052.210	790.976
387.117	16.216	1050.976	789.370
388.132	16.283	1050.147	788.992
389.146	16.329	1049.525	788.667
390.161	16.105	1048.788	786.999
391.175	16.296	1047.812	787.089
392.190	16.235	1047.836	786.751
393.205	16.341	1047.235	786.723
394.219	16.508	1045.792	786.348
395.234	16.402	1045.184	785.329
396.248	16.308	1044.095	784.003
397.263	16.169	1043.262	782.665
398.278	16.258	1042.449	782.398
399.292	16.310	1041.529	781.877
400.307	16.283	1041.395	781.586
401.321	16.294	1040.380	780.805
402.336	16.274	1039.774	780.189
403.350	16.317	1039.114	779.823
404.365	16.365	1038.211	779.298
405.380	16.419	1037.751	779.131
406.394	16.414	1037.228	778.646
407.409	16.419	1036.551	778.093
408.423	16.499	1035.647	777.714
409.438	16.628	1034.939	777.708
410.453	16.673	1034.440	777.469
411.467	16.795	1033.188	777.018
412.482	16.748	1032.463	776.191
413.496	16.719	1032.427	775.963
414.511	16.746	1031.630	775.415
415.526	16.705	1031.259	774.882
416.540	16.801	1031.283	775.268
417.555	16.770	1030.515	774.485
418.569	16.731	1030.054	773.892
419.584	16.692	1029.678	773.359
420.599	16.695	1029.222	772.962
421.613	101.652	1319.143	1460.287
422.628	92.980	1361.360	1460.368
