DTS Sentinel unit serial number:	SN413079Multiplexer serial number:	ORYXHardware model number:	OX4-SRSoftware version number:	ORYX F/W v4.00 Oryx Data Collector v3.7.2.0data status	okinstallation	princeton_trtdifferential loss correction	single-endedforward channel	channel 2reverse channel	N/Adate	2019/09/17time	23:47:34forward acquisition time	60.00reverse acquisition time	0.00gamma	496.2192k internal	0.2349k external	0.2349temperature offset calibration	0.9984default loss term (dB/km)	0.3790temperature slope calibration	1.0000multiplexer offset coefficient	1.0000multiplexer slope coefficient	1.0000fibre end	0.00T internal ref (°C)	24.02T ext. ref 1 (°C)	0.17T ext. ref 2 (°C)	17.40length (m)	temperature (°C)	Stokes	anti-Stokes-747.200	725.788	0.021	-0.057
-746.185	800.000	-0.034	0.144
-745.171	717.577	-0.101	-0.267
-744.156	-200.000	0.088	0.467
-743.142	-118.699	-0.169	-0.030
-742.127	-141.130	-0.184	-0.019
-741.112	800.000	0.020	-0.070
-740.098	-48.994	-0.244	0.117
-739.083	-200.000	-0.009	-0.137
-738.069	-33.926	-0.203	-0.112
-737.054	43.707	0.183	0.167
-736.039	349.180	0.055	-0.108
-735.025	654.771	0.074	0.189
-734.010	-200.000	-0.005	0.142
-732.996	113.919	-0.194	-0.235
-731.981	16.093	-0.331	0.260
-730.966	-68.445	-0.168	0.065
-729.952	-11.951	-0.089	-0.059
-728.937	-117.434	-0.251	-0.045
-727.923	-89.467	-0.204	-0.060
-726.908	-200.000	0.015	-0.183
-725.894	-129.019	0.018	-0.002
-724.879	264.100	-0.110	0.190
-723.864	-43.882	0.062	0.031
-722.850	108.505	-0.127	-0.152
-721.835	114.531	-0.037	0.045
-720.821	316.127	0.108	0.203
-719.806	-134.383	-0.171	0.021
-718.791	-140.991	-0.154	-0.016
-717.777	121.428	-0.034	0.042
-716.762	-101.415	-0.064	-0.016
-715.748	468.238	0.131	0.293
-714.733	-200.000	0.014	-0.177
-713.718	-85.519	-0.520	0.162
-712.704	341.288	-0.142	0.277
-711.689	109.434	0.125	0.150
-710.675	8.934	0.128	-0.097
-709.660	-57.374	-0.275	-0.121
-708.645	396.420	0.094	0.195
-707.631	152.344	0.096	0.131
-706.616	-42.969	-0.312	-0.158
-705.602	-97.397	-0.243	-0.063
-704.587	390.384	-0.105	-0.218
-703.572	92.245	0.122	-0.137
-702.558	-29.448	-0.140	0.080
-701.543	-62.244	-0.358	-0.149
-700.529	800.000	0.080	0.283
-699.514	800.000	-0.088	-0.249
-698.499	797.683	-0.132	-0.361
-697.485	-200.000	0.037	-0.288
-696.470	523.968	0.059	0.138
-695.456	61.592	0.064	0.064
-694.441	-108.760	-0.148	-0.032
-693.426	-137.500	-0.397	0.045
-692.412	4.098	0.196	-0.143
-691.397	424.397	0.108	-0.232
-690.383	412.304	0.099	-0.210
-689.368	-200.000	0.035	-0.175
-688.354	-79.087	0.133	0.045
-687.339	-33.137	-0.152	0.084
-686.324	-64.014	-0.145	0.059
-685.310	110.869	0.180	0.216
-684.295	228.955	-0.100	-0.163
-683.281	10.980	-0.147	0.112
-682.266	-154.074	-0.114	0.008
-681.251	-200.000	0.017	-0.107
-680.237	-96.356	0.476	-0.125
-679.222	-96.434	-0.433	-0.114
-678.208	800.000	0.051	-0.146
-677.193	-200.000	0.002	-0.050
-676.178	-50.133	0.101	0.048
-675.164	800.000	0.032	-0.110
-674.149	-200.000	-0.007	-0.172
-673.135	-123.417	0.225	-0.036
-672.120	800.000	-0.095	0.404
-671.105	280.956	0.054	0.096
-670.091	-107.332	-0.120	0.026
-669.076	-196.770	-0.265	-0.002
-668.062	-200.000	0.027	0.144
-667.047	40.113	-0.190	-0.170
-666.032	800.000	0.053	-0.165
-665.018	-200.000	0.015	-0.145
-664.003	-117.415	-0.428	0.077
-662.989	800.000	-0.114	-0.413
-661.974	41.959	-0.160	-0.145
-660.959	-67.326	-0.322	-0.126
-659.945	31.586	0.138	-0.118
-658.930	-200.000	-0.007	-0.250
-657.916	-200.000	0.023	0.109
-656.901	-200.000	0.019	0.162
-655.886	-200.000	0.007	-0.185
-654.872	275.171	-0.050	0.088
-653.857	800.000	-0.069	0.274
-652.843	-122.608	-0.264	-0.043
-651.828	-200.000	0.054	0.379
-650.814	13.285	0.194	-0.149
-649.799	-7.366	-0.147	0.099
-648.784	-131.785	0.307	-0.040
-647.770	800.000	0.047	-0.147
-646.755	-103.018	-0.009	-0.002
-645.741	-91.280	-0.359	0.102
-644.726	-159.761	-0.095	0.005
-643.711	263.114	0.099	-0.172
-642.697	101.766	-0.021	-0.024
-641.682	-177.403	0.259	0.006
-640.668	800.000	-0.026	-0.075
-639.653	-148.779	0.317	-0.026
-638.638	-87.530	0.290	-0.087
-637.624	-6.042	0.093	-0.063
-636.609	-138.007	-0.228	0.025
-635.595	800.000	-0.065	0.256
-634.580	25.973	-0.235	0.195
-633.565	-21.598	0.065	0.039
-632.551	515.118	-0.047	0.110
-631.536	800.000	-0.011	0.035
-630.522	-52.996	0.227	0.104
-629.507	-200.000	-0.081	-0.397
-628.492	-147.600	-0.163	-0.014
-627.478	127.935	0.056	-0.071
-626.463	183.930	0.127	-0.188
-625.449	-188.663	-0.257	-0.003
-624.434	-147.806	-0.134	0.011
-623.419	-82.492	-0.085	0.027
-622.405	-100.144	-0.245	0.061
-621.390	780.048	0.013	0.034
-620.376	206.655	-0.089	-0.137
-619.361	-200.000	-0.048	0.262
-618.346	349.042	-0.117	0.229
-617.332	-200.000	-0.005	-0.063
-616.317	800.000	-0.046	-0.172
-615.303	800.000	-0.034	-0.143
-614.288	800.000	-0.121	-0.344
-613.273	304.397	0.159	-0.293
-612.259	-200.000	-0.017	-0.150
-611.244	245.620	-0.134	0.225
-610.230	-200.000	-0.026	0.115
-609.215	80.721	-0.225	0.241
-608.201	-32.282	0.050	0.028
-607.186	78.670	-0.246	-0.262
-606.171	-43.277	0.133	0.067
-605.157	63.833	-0.165	0.165
-604.142	800.000	0.036	0.146
-603.128	12.904	-0.181	-0.139
-602.113	44.337	-0.082	-0.074
-601.098	587.575	0.051	-0.125
-600.084	-91.272	-0.041	0.012
-599.069	-200.000	-0.028	-0.247
-598.055	-122.516	-0.126	0.020
-597.040	0.926	-0.217	0.154
-596.025	133.467	0.112	-0.144
-595.011	86.257	0.067	0.074
-593.996	-100.056	0.085	-0.021
-592.982	-62.674	-0.268	-0.111
-591.967	800.000	0.016	-0.056
-590.952	-21.767	-0.082	-0.049
-589.938	-48.259	-0.104	0.050
-588.923	-200.000	0.054	0.242
-587.909	243.447	-0.188	-0.313
-586.894	-200.000	0.001	-0.023
-585.879	624.658	0.022	-0.055
-584.865	-23.831	0.062	0.037
-583.850	-128.305	-0.209	-0.030
-582.836	-200.000	0.018	0.220
-581.821	-200.000	0.050	0.269
-580.806	-200.000	0.006	-0.092
-579.792	-39.375	0.367	0.191
-578.777	118.766	-0.373	-0.457
-577.763	800.000	-0.113	0.361
-576.748	-1.988	-0.335	0.234
-575.733	800.000	0.020	0.063
-574.719	-56.484	0.298	0.131
-573.704	-200.000	0.015	-0.078
-572.690	669.431	0.053	0.136
-571.675	-138.595	-0.252	-0.027
-570.661	-3.392	0.119	0.082
-569.646	323.644	0.089	0.168
-568.631	167.942	-0.074	-0.105
-567.617	-58.334	-0.245	0.106
-566.602	-200.000	-0.022	0.257
-565.588	-116.085	0.232	0.043
-564.573	-139.005	0.159	-0.017
-563.558	-200.000	-0.016	-0.117
-562.544	-101.582	0.152	0.037
-561.529	-44.341	0.097	0.048
-560.515	136.802	-0.121	-0.156
-559.500	458.366	0.052	-0.115
-558.485	-28.514	-0.127	0.073
-557.471	-121.736	-0.152	-0.025
-556.456	-6.380	-0.036	0.024
-555.442	552.612	-0.203	0.484
-554.427	-127.047	0.339	0.049
-553.412	800.000	-0.059	0.201
-552.398	791.052	-0.067	0.181
-551.383	-60.388	-0.208	0.088
-550.369	-94.692	-0.233	0.063
-549.354	-200.000	-0.005	0.173
-548.339	-200.000	0.015	-0.204
-547.325	101.491	0.312	-0.360
-546.310	63.604	-0.075	-0.075
-545.296	201.460	-0.159	-0.243
-544.281	800.000	-0.159	-0.479
-543.266	82.576	0.017	0.018
-542.252	69.225	-0.375	-0.382
-541.237	75.056	-0.190	-0.198
-540.223	-46.303	0.086	-0.042
-539.208	-128.374	0.062	-0.009
-538.193	-200.000	-0.063	-0.432
-537.179	-83.175	0.248	0.079
-536.164	-200.000	0.054	-0.345
-535.150	48.817	0.047	0.044
-534.135	23.887	0.118	0.096
-533.121	272.998	0.109	0.191
-532.106	120.807	0.425	-0.524
-531.091	194.166	-0.064	0.096
-530.077	-200.000	0.042	-0.211
-529.062	-158.363	0.057	0.003
-528.048	-83.227	0.359	-0.114
-527.033	292.518	0.127	-0.230
-526.018	-6.334	-0.132	0.089
-525.004	-200.000	-0.055	0.289
-523.989	-1.881	-0.253	0.176
-522.975	800.000	-0.055	0.174
-521.960	65.227	0.132	-0.132
-520.945	-16.871	-0.113	0.071
-519.931	43.304	0.162	0.146
-518.916	-200.000	0.005	0.238
-517.902	-60.320	-0.094	0.039
-516.887	117.844	0.058	-0.070
-515.872	-130.724	-0.020	-0.003
-514.858	63.843	-0.043	-0.043
-513.843	222.993	0.177	0.282
-512.829	-62.797	0.131	0.054
-511.814	574.943	0.024	0.059
-510.799	-85.519	0.058	-0.018
-509.785	283.711	-0.107	-0.191
-508.770	273.154	-0.224	0.392
-507.756	287.060	-0.185	-0.331
-506.741	620.952	-0.060	-0.150
-505.726	800.000	-0.041	-0.156
-504.712	-78.443	-0.065	0.022
-503.697	-103.866	0.203	0.047
-502.683	-81.736	-0.624	-0.202
-501.668	-153.237	-0.156	0.011
-500.653	77.989	-0.076	0.080
-499.639	276.892	0.084	0.148
-498.624	-44.923	0.085	0.042
-497.610	-66.105	0.143	-0.057
-496.595	800.000	0.075	0.211
-495.581	191.679	0.171	-0.254
-494.566	-200.000	-0.015	-0.155
-493.551	-125.822	0.322	-0.048
-492.537	-200.000	-0.051	-0.289
-491.522	-158.959	0.055	0.003
-490.508	-200.000	-0.015	0.346
-489.493	-200.000	-0.014	0.168
-488.478	214.730	-0.137	0.215
-487.464	213.580	0.113	0.176
-486.449	-92.163	-0.285	0.080
-485.435	-147.640	-0.248	-0.021
-484.420	800.000	0.059	-0.221
-483.405	-200.000	-0.019	-0.106
-482.391	49.861	-0.257	-0.239
-481.376	40.745	-0.246	0.219
-480.362	-64.569	-0.275	0.110
-479.347	-119.736	-0.218	-0.037
-478.332	153.364	0.208	-0.282
-477.318	-147.240	0.263	-0.022
-476.303	81.117	-0.177	0.188
-475.289	74.133	0.071	-0.074
-474.274	-91.940	-0.148	-0.041
-473.259	-120.914	-0.382	-0.064
-472.245	81.523	-0.180	-0.192
-471.230	-166.814	-0.265	0.011
-470.216	95.547	0.253	0.285
-469.201	147.970	0.230	-0.306
-468.186	-200.000	0.011	-0.051
-467.172	800.000	0.101	0.311
-466.157	-118.189	-0.308	-0.054
-465.143	291.366	0.179	0.322
-464.128	-101.496	0.253	-0.061
-463.113	52.367	-0.062	0.058
-462.099	-200.000	-0.014	-0.074
-461.084	-114.569	0.202	0.038
-460.070	-113.006	0.387	-0.076
-459.055	232.812	0.037	0.060
-458.040	-1.397	0.315	0.220
-457.026	-62.373	0.307	0.126
-456.011	-108.004	-0.062	0.013
-454.997	-24.619	0.164	0.097
-453.982	-46.464	0.341	0.165
-452.968	266.796	0.134	-0.232
-451.953	736.298	0.068	-0.179
-450.938	119.582	-0.188	0.230
-449.924	184.360	0.096	-0.141
-448.909	-122.831	0.212	0.034
-447.895	747.781	-0.077	0.204
-446.880	-52.755	0.132	-0.060
-445.865	33.603	0.055	0.047
-444.851	216.509	-0.137	-0.215
-443.836	-102.394	0.259	-0.061
-442.822	800.000	0.051	0.196
-441.807	-54.818	0.389	-0.173
-440.792	-200.000	-0.101	-0.000
-439.778	326.616	-0.138	-0.261
-438.763	-102.063	0.117	-0.028
-437.749	115.878	-0.109	-0.132
-436.734	-25.801	-0.078	-0.045
-435.719	238.736	0.180	-0.294
-434.705	-200.000	0.022	0.246
-433.690	244.174	0.105	0.173
-432.676	-65.322	0.158	0.063
-431.661	-78.282	-0.245	-0.083
-430.646	-60.453	-0.560	0.235
-429.632	-200.000	0.026	-0.210
-428.617	-47.531	-0.187	0.089
-427.603	-156.414	-0.108	-0.007
-426.588	-200.000	0.020	-0.156
-425.573	800.000	-0.067	0.218
-424.559	27.151	0.147	0.122
-423.544	453.373	0.156	0.341
-422.530	593.627	-0.022	-0.053
-421.515	-87.504	0.100	-0.030
-420.500	-17.326	-0.278	0.173
-419.486	-99.238	0.245	0.061
-418.471	378.900	0.105	0.213
-417.457	-200.000	0.020	0.236
-416.442	148.102	-0.205	-0.273
-415.428	459.299	-0.076	0.167
-414.413	-14.828	0.217	-0.138
-413.398	-200.000	-0.028	-0.189
-412.384	144.063	0.163	-0.215
-411.369	511.339	-0.154	-0.352
-410.355	-159.370	-0.275	-0.015
-409.340	177.212	0.230	-0.330
-408.325	-70.735	-0.162	0.060
-407.311	-102.995	-0.175	0.041
-406.296	-108.995	-0.112	-0.023
-405.282	109.916	0.187	-0.221
-404.267	312.844	0.093	0.172
-403.252	165.573	0.178	0.248
-402.238	124.872	0.081	0.100
-401.223	-43.336	-0.080	-0.040
-400.209	-91.578	-0.125	-0.035
-399.194	127.256	-0.071	-0.089
-398.179	183.055	0.071	-0.104
-397.165	397.260	0.042	0.086
-396.150	407.007	-0.077	0.160
-395.136	91.254	-0.080	0.088
-394.121	-57.821	-0.315	-0.136
-393.106	-95.007	0.180	0.048
-392.092	397.322	-0.107	-0.220
-391.077	-200.000	0.008	-0.137
-390.063	-200.000	-0.017	0.214
-389.048	-68.941	-0.172	0.065
-388.033	-200.000	-0.044	-0.299
-387.019	-78.595	-0.143	-0.048
-386.004	-168.081	0.182	-0.007
-384.990	-200.000	-0.029	0.132
-383.975	279.137	-0.115	0.202
-382.960	23.638	-0.069	-0.056
-381.946	-66.475	0.403	-0.158
-380.931	-200.000	0.032	-0.166
-379.917	-23.657	0.080	-0.047
-378.902	-49.637	-0.146	-0.068
-377.888	-200.000	-0.025	0.371
-376.873	352.105	-0.088	0.172
-375.858	-60.781	0.263	-0.110
-374.844	32.493	0.028	0.024
-373.829	-178.111	0.190	0.004
-372.815	-126.625	-0.321	-0.047
-371.800	-200.000	0.034	0.195
-370.785	-142.985	0.086	0.008
-369.771	72.487	-0.195	-0.200
-368.756	800.000	0.068	-0.238
-367.742	-58.515	-0.172	-0.073
-366.727	346.863	-0.031	0.060
-365.712	700.966	-0.117	0.302
-364.698	-120.501	0.417	0.070
-363.683	-200.000	0.267	0.001
-362.669	233.556	0.067	-0.109
-361.654	-104.659	-0.310	0.070
-360.639	-16.528	0.204	-0.127
-359.625	381.631	0.077	-0.156
-358.610	-200.000	-0.006	0.035
-357.596	-53.540	0.204	0.092
-356.581	263.847	-0.168	0.288
-355.566	389.464	-0.222	0.452
-354.552	-45.368	-0.294	0.144
-353.537	-200.000	0.003	-0.096
-352.523	-133.513	0.054	-0.007
-351.508	99.317	-0.051	-0.058
-350.493	4.186	-0.174	0.125
-349.479	-91.510	-0.077	0.022
-348.464	-200.000	-0.095	-0.501
-347.450	251.787	-0.250	0.418
-346.435	609.610	-0.101	0.247
-345.420	3.250	-0.113	0.081
-344.406	237.779	-0.182	-0.296
-343.391	-58.799	-0.339	-0.144
-342.377	64.152	-0.070	0.069
-341.362	-200.000	-0.079	-0.395
-340.348	77.051	-0.087	0.091
-339.333	-105.088	0.126	-0.028
-338.318	562.555	0.148	-0.352
-337.304	-92.121	-0.191	-0.053
-336.289	-200.000	-0.044	0.199
-335.275	25.249	0.291	-0.238
-334.260	239.582	0.204	-0.333
-333.245	-200.000	-0.030	0.278
-332.231	-200.000	-0.021	0.097
-331.216	73.697	0.223	-0.230
-330.202	-31.198	0.144	-0.080
-329.187	-200.000	-0.013	0.445
-328.172	-200.000	-0.038	0.193
-327.158	-32.288	0.363	0.199
-326.143	67.578	-0.273	-0.274
-325.129	31.951	-0.068	-0.058
-324.114	29.331	0.216	-0.180
-323.099	120.697	0.183	0.223
-322.085	-98.741	0.224	0.056
-321.070	8.948	0.093	-0.069
-320.056	141.622	0.213	-0.277
-319.041	-200.000	0.061	-0.384
-318.026	100.322	0.204	0.233
-317.012	-115.446	0.330	-0.061
-315.997	-200.000	0.028	-0.136
-314.983	800.000	0.067	0.273
-313.968	-160.376	0.294	-0.016
-312.953	-200.000	0.013	-0.083
-311.939	-46.039	-0.096	-0.047
-310.924	-106.298	0.327	-0.072
-309.910	-91.592	0.226	0.063
-308.895	800.000	0.085	0.247
-307.880	-45.839	-0.170	0.083
-306.866	660.083	0.176	-0.444
-305.851	-59.012	-0.496	0.210
-304.837	-120.966	-0.256	0.042
-303.822	2.442	0.126	-0.089
-302.807	3.095	0.063	-0.045
-301.793	0.933	-0.334	0.235
-300.778	-46.846	0.182	-0.087
-299.764	-35.162	0.064	-0.034
-298.749	-129.292	-0.435	0.059
-297.735	-103.944	0.247	-0.057
-296.720	10.409	-0.380	-0.284
-295.705	12.046	0.174	-0.132
-294.691	-95.188	-0.341	-0.090
-293.676	-165.501	-0.081	0.003
-292.662	42.324	-0.126	0.113
-291.647	500.461	-0.055	-0.125
-290.632	69.862	0.224	-0.226
-289.618	387.831	0.153	-0.310
-288.603	301.681	0.091	-0.165
-287.589	-120.425	-0.177	-0.029
-286.574	526.701	-0.045	-0.103
-285.559	-45.394	0.101	-0.049
-284.545	-22.062	0.246	0.146
-283.530	-46.614	0.194	-0.093
-282.516	-200.000	0.004	0.329
-281.501	149.904	-0.078	0.103
-280.486	242.635	-0.037	-0.060
-279.472	392.982	0.098	0.201
-278.457	11.550	0.055	-0.041
-277.443	-60.053	-0.109	0.046
-276.428	254.088	-0.158	0.265
-275.413	-200.000	-0.040	-0.277
-274.399	-121.272	-0.166	-0.027
-273.384	-111.505	0.142	0.028
-272.370	-108.568	0.033	-0.007
-271.355	76.436	-0.152	0.158
-270.340	-135.314	0.252	0.030
-269.326	82.053	0.190	-0.202
-268.311	800.000	0.047	-0.135
-267.297	5.646	0.252	0.182
-266.282	-200.000	-0.011	-0.155
-265.267	-200.000	-0.025	0.229
-264.253	-103.563	0.354	-0.081
-263.238	81.908	-0.178	0.189
-262.224	-200.000	0.076	0.446
-261.209	168.663	0.125	-0.174
-260.195	-45.127	0.050	0.025
-259.180	280.655	0.274	0.480
-258.165	247.101	0.075	-0.124
-257.151	800.000	0.034	0.140
-256.136	-200.000	0.023	0.240
-255.122	219.504	-0.061	-0.095
-254.107	800.000	0.087	-0.340
-253.092	-199.827	0.128	0.001
-252.078	-91.971	-0.294	0.082
-251.063	-200.000	0.016	-0.410
-250.049	-120.265	-0.173	-0.029
-249.034	28.174	-0.050	0.041
-248.019	-4.611	-0.052	-0.035
-247.005	-68.221	-0.186	0.071
-245.990	573.709	-0.037	-0.088
-244.976	800.000	0.093	0.308
-243.961	-84.303	0.244	-0.076
-242.946	209.410	0.118	0.182
-241.932	-200.000	-0.032	0.300
-240.917	-62.155	0.287	-0.117
-239.903	-100.696	-0.225	0.054
-238.888	-24.528	-0.140	-0.082
-237.873	-200.000	0.001	-0.069
-236.859	-103.680	0.273	-0.063
-235.844	-73.773	0.220	-0.078
-234.830	175.705	0.157	-0.223
-233.815	-200.000	0.006	-0.109
-232.800	342.825	-0.169	-0.324
-231.786	-101.291	-0.161	0.038
-230.771	147.799	-0.044	0.058
-229.757	-200.000	-0.012	0.374
-228.742	190.194	0.105	-0.154
-227.727	-140.249	0.099	-0.010
-226.713	-200.000	0.006	-0.261
-225.698	110.505	0.167	-0.197
-224.684	57.893	0.280	0.268
-223.669	467.113	0.017	-0.038
-222.655	-1.651	0.148	0.102
-221.640	324.776	0.074	0.138
-220.625	506.575	-0.040	-0.092
-219.611	60.173	0.084	0.082
-218.596	800.000	0.044	-0.140
-217.582	800.000	0.032	-0.098
-216.567	800.000	0.039	-0.124
-215.552	573.353	-0.180	0.429
-214.538	-9.158	-0.091	0.060
-213.523	605.588	-0.060	0.147
-212.509	240.573	0.235	-0.384
-211.494	-200.000	-0.013	0.183
-210.479	800.000	-0.065	0.236
-209.465	164.026	0.223	0.308
-208.450	800.000	-0.068	0.224
-207.436	578.036	0.104	0.248
-206.421	-22.108	0.358	-0.212
-205.406	-167.465	0.086	0.003
-204.392	-200.000	0.039	0.243
-203.377	-200.000	-0.009	-0.339
-202.363	77.309	0.037	-0.039
-201.348	228.789	-0.118	0.187
-200.333	-40.009	-0.382	0.195
-199.319	-31.055	-0.087	0.048
-198.304	-37.897	0.247	-0.128
-197.290	-61.787	-0.330	-0.135
-196.275	-200.000	0.023	0.129
-195.260	300.440	-0.092	0.165
-194.246	280.309	0.160	-0.279
-193.231	-159.659	-0.084	0.005
-192.217	-119.991	-0.120	0.020
-191.202	-25.551	0.144	-0.083
-190.187	-158.721	-0.283	-0.016
-189.173	16.376	-0.325	-0.251
-188.158	21.566	-0.197	-0.156
-187.144	187.526	-0.066	-0.096
-186.129	21.628	-0.202	0.161
-185.114	800.000	-0.028	0.102
-184.100	-39.273	0.072	-0.037
-183.085	108.641	0.321	0.374
-182.071	569.181	-0.137	0.325
-181.056	-99.306	0.209	-0.051
-180.042	800.000	-0.126	-0.406
-179.027	-200.000	0.001	0.074
-178.012	-52.579	-0.187	-0.084
-176.998	800.000	-0.048	-0.178
-175.983	638.982	0.048	0.119
-174.969	-200.000	0.010	-0.060
-173.954	270.038	-0.118	-0.202
-172.939	-87.068	0.218	-0.065
-171.925	344.045	-0.076	0.145
-170.910	-67.373	0.244	-0.094
-169.896	-12.938	-0.101	0.064
-168.881	102.964	0.013	0.015
-167.866	150.457	0.255	0.338
-166.852	-128.583	0.013	-0.002
-165.837	125.451	-0.032	-0.039
-164.823	-200.000	0.030	0.169
-163.808	-99.727	0.075	-0.018
-162.793	-89.093	0.295	-0.085
-161.779	-109.651	-0.123	-0.025
-160.764	-141.777	-0.161	-0.016
-159.750	636.341	0.074	0.183
-158.735	136.446	0.132	0.168
-157.720	320.159	-0.078	0.145
-156.706	-43.938	-0.203	0.100
-155.691	43.633	0.038	0.034
-154.677	-42.086	-0.161	-0.080
-153.662	88.806	-0.105	-0.114
-152.647	-200.000	0.064	-0.326
-151.633	-200.000	-0.055	0.364
-150.618	-200.000	-0.099	0.475
-149.604	331.116	0.106	0.200
-148.589	-52.946	0.035	-0.016
-147.574	363.999	-0.125	-0.245
-146.560	-200.000	-0.047	-0.323
-145.545	37.181	0.160	-0.138
-144.531	800.000	-0.018	0.067
-143.516	-86.181	0.115	-0.035
-142.502	5.285	0.171	0.123
-141.487	142.860	-0.162	-0.210
-140.472	-17.616	-0.140	0.086
-139.458	-0.564	0.045	0.031
-138.443	-185.347	-0.041	-0.001
-137.429	-200.000	0.032	0.168
-136.414	-200.000	0.011	-0.335
-135.399	57.335	0.031	-0.029
-134.385	126.699	0.068	0.084
-133.370	-129.994	0.505	0.067
-132.356	-69.151	-0.164	0.061
-131.341	-2.803	0.252	0.172
-130.326	221.553	-0.083	0.131
-129.312	43.164	0.214	-0.191
-128.297	-200.000	-0.007	-0.065
-127.283	-21.414	-0.069	0.041
-126.268	-188.698	-0.559	-0.007
-125.253	-22.106	0.161	-0.095
-124.239	800.000	-0.085	-0.283
-123.224	-184.987	0.239	-0.004
-122.210	353.980	0.025	0.048
-121.195	-200.000	0.016	0.126
-120.180	-66.925	-0.344	-0.132
-119.166	616.039	0.063	0.153
-118.151	159.395	-0.171	0.232
-117.137	492.218	0.196	-0.437
-116.122	-99.749	0.136	-0.033
-115.107	85.072	-0.236	0.252
-114.093	800.000	0.038	0.144
-113.078	-200.000	-0.056	0.251
-112.064	-200.000	0.049	-0.333
-111.049	73.375	0.027	0.027
-110.034	86.521	0.194	0.209
-109.020	800.000	-0.022	-0.079
-108.005	188.726	-0.123	-0.179
-106.991	-200.000	0.019	0.252
-105.976	106.790	0.285	0.330
-104.962	562.652	0.090	0.212
-103.947	251.360	-0.199	0.330
-102.932	-34.700	-0.119	0.063
-101.918	-98.093	-0.270	-0.068
-100.903	-100.356	0.161	0.039
-99.889	37.526	-0.186	-0.161
-98.874	-200.000	-0.001	0.454
-97.859	-156.739	-0.197	0.012
-96.845	65.980	-0.157	0.155
-95.830	263.040	0.243	0.411
-94.816	424.717	-0.237	-0.496
-93.801	-106.917	-0.225	0.048
-92.786	130.688	0.068	0.085
-91.772	800.000	0.006	-0.025
-90.757	73.600	0.247	-0.252
-89.743	-127.762	0.134	-0.019
-88.728	116.177	-0.133	-0.158
-87.713	-54.496	-0.050	0.022
-86.699	-200.000	0.010	-0.254
-85.684	194.675	0.245	0.361
-84.670	341.467	-0.096	0.183
-83.655	800.000	0.024	0.078
-82.640	-82.856	-0.212	0.067
-81.626	-176.192	0.129	-0.003
-80.611	-10.904	-0.279	0.179
-79.597	7.241	0.245	0.178
-78.582	158.517	-0.190	0.256
-77.567	675.959	0.038	-0.096
-76.553	72.481	-0.102	0.104
-75.538	-200.000	0.028	0.251
-74.524	125.528	0.062	-0.076
-73.509	171.923	-0.123	-0.173
-72.494	-200.000	-0.007	0.086
-71.480	-150.176	0.101	-0.008
-70.465	164.396	-0.175	-0.240
-69.451	278.566	0.118	-0.204
-68.436	197.937	-0.100	-0.149
-67.422	393.286	0.103	-0.207
-66.407	-4.421	-0.126	-0.085
-65.392	800.000	0.046	-0.170
-64.378	130.782	0.130	-0.162
-63.363	-88.020	-0.103	-0.030
-62.349	82.763	0.090	0.095
-61.334	49.186	-1.301	-1.189
-60.319	290.522	0.390	0.689
-59.305	248.816	-0.593	-0.977
-58.290	254.750	0.848	1.412
-57.276	402.727	0.677	1.385
-56.261	-200.000	122.203	647.187
-55.246	442.892	1530.988	3261.446
-54.232	149.080	2686.925	3533.831
-53.217	92.099	2273.124	2488.689
-52.203	32.900	1890.544	1591.443
-51.188	27.083	1688.388	1377.259
-50.173	24.822	1649.705	1328.878
-49.159	45.551	1717.860	1542.022
-48.144	43.709	1729.785	1538.679
-47.130	26.523	1681.567	1367.247
-46.115	24.111	1665.870	1336.356
-45.100	23.889	1661.188	1330.887
-44.086	23.936	1658.831	1329.293
-43.071	23.917	1656.264	1327.041
-42.057	23.875	1654.045	1324.899
-41.042	23.823	1652.596	1323.300
-40.027	23.863	1650.235	1321.651
-39.013	23.931	1647.700	1320.076
-37.998	23.826	1646.571	1318.341
-36.984	23.768	1645.702	1317.161
-35.969	24.016	1644.328	1317.846
-34.954	24.097	1642.701	1317.091
-33.940	23.952	1640.920	1314.535
-32.925	24.018	1639.436	1313.781
-31.911	23.991	1637.915	1312.317
-30.896	24.029	1635.893	1310.919
-29.881	24.030	1634.301	1309.601
-28.867	24.011	1632.722	1308.147
-27.852	24.040	1631.260	1307.135
-26.838	24.072	1629.682	1306.049
-25.823	24.018	1628.915	1304.988
-24.809	23.999	1627.474	1303.643
-23.794	24.003	1626.117	1302.536
-22.779	24.087	1624.380	1301.705
-21.765	23.968	1623.201	1299.841
-20.750	24.102	1620.745	1298.801
-19.736	23.998	1620.232	1297.577
-18.721	24.100	1618.703	1297.046
-17.706	24.021	1617.463	1295.425
-16.692	23.995	1615.746	1293.809
-15.677	24.123	1614.274	1293.507
-14.663	24.137	1612.425	1292.079
-13.648	24.116	1611.483	1291.123
-12.633	24.049	1609.911	1289.321
-11.619	24.040	1608.368	1287.973
-10.604	24.040	1606.730	1286.607
-9.590	24.086	1605.286	1285.736
-8.575	24.063	1604.570	1284.944
-7.560	24.012	1603.888	1283.979
-6.546	23.991	1602.207	1282.433
-5.531	24.041	1601.375	1282.072
-4.517	24.051	1600.381	1281.298
-3.502	23.963	1599.337	1279.782
-2.487	24.110	1597.364	1279.206
-1.473	23.608	1585.435	1266.024
-0.458	20.577	1565.492	1228.663
0.556	15.453	1567.213	1197.340
1.571	13.099	1590.810	1198.197
2.586	12.805	1602.971	1205.103
3.600	11.838	1548.411	1157.148
4.615	6.583	1442.625	1043.304
5.629	1.145	1384.377	966.496
6.644	0.178	1377.250	955.304
7.659	0.220	1375.531	954.291
8.673	0.148	1375.152	953.486
9.688	0.134	1372.359	951.378
10.702	-0.022	1369.526	948.344
11.717	2.572	1372.891	966.979
12.731	9.464	1383.164	1017.837
13.746	15.367	1391.308	1061.185
14.761	16.739	1393.318	1071.309
15.775	16.203	1391.431	1066.371
16.790	15.197	1388.686	1057.827
17.804	14.541	1386.087	1051.617
18.819	14.100	1384.884	1047.832
19.834	13.878	1383.804	1045.530
20.848	13.572	1382.901	1042.827
21.863	13.426	1381.122	1040.477
22.877	13.169	1380.411	1038.231
23.892	13.186	1379.032	1037.209
24.907	13.082	1378.660	1036.189
25.921	13.188	1376.977	1035.494
26.936	13.133	1376.827	1034.943
27.950	13.198	1375.382	1034.174
28.965	13.298	1374.476	1034.030
29.980	13.310	1373.576	1033.331
30.994	13.324	1373.102	1032.974
32.009	13.324	1371.714	1031.836
33.023	13.298	1371.014	1031.055
34.038	13.469	1369.272	1030.720
35.053	13.384	1368.343	1029.401
36.067	13.422	1366.846	1028.421
37.082	13.264	1366.471	1027.063
38.096	13.424	1365.322	1027.103
39.111	13.393	1364.604	1026.278
40.126	13.366	1363.728	1025.365
41.140	13.220	1362.916	1023.758
42.155	13.073	1362.921	1022.758
43.169	13.195	1362.607	1023.190
44.184	13.165	1362.123	1022.551
45.199	13.193	1361.375	1022.073
46.213	13.193	1360.564	1021.373
47.228	13.285	1359.603	1021.129
48.242	13.295	1358.837	1020.524
49.257	13.269	1357.379	1019.178
50.271	13.247	1355.462	1017.518
51.286	13.270	1354.418	1016.780
52.301	13.212	1353.260	1015.467
53.315	13.285	1352.170	1015.007
54.330	13.155	1351.065	1013.290
55.344	13.134	1350.204	1012.424
56.359	13.201	1348.801	1011.693
57.374	13.175	1347.835	1010.722
58.388	13.183	1347.066	1010.103
59.403	13.070	1346.659	1009.019
60.417	13.221	1345.605	1009.065
61.432	13.064	1345.122	1007.654
62.447	13.131	1343.267	1006.583
63.461	13.024	1342.388	1005.182
64.476	13.001	1341.566	1004.336
65.490	13.130	1339.922	1003.800
66.505	13.041	1338.393	1002.029
67.520	13.117	1337.610	1001.816
68.534	13.071	1336.351	1000.505
69.549	13.103	1335.618	1000.061
70.563	13.109	1334.359	999.063
71.578	13.058	1333.329	997.901
72.593	12.998	1332.616	996.913
73.607	13.018	1331.414	996.049
74.622	13.042	1330.474	995.400
75.636	12.962	1329.962	994.445
76.651	13.002	1329.265	994.080
77.666	13.034	1328.367	993.510
78.680	13.059	1327.886	993.217
79.695	13.036	1327.322	992.567
80.709	13.026	1326.196	991.579
81.724	13.155	1325.308	991.599
82.739	13.218	1324.020	990.923
83.753	13.184	1323.257	990.066
84.768	13.218	1322.442	989.567
85.782	13.298	1321.345	989.141
86.797	13.244	1320.061	987.771
87.812	13.216	1319.039	986.750
88.826	13.240	1317.488	985.644
89.841	13.193	1317.025	984.929
90.855	13.210	1315.567	983.853
91.870	13.271	1314.831	983.582
92.884	13.366	1313.833	983.311
93.899	13.256	1313.666	982.447
94.914	13.358	1312.456	982.059
95.928	13.374	1311.566	981.402
96.943	13.287	1310.716	980.164
97.957	13.340	1309.563	979.525
98.972	13.333	1308.338	978.483
99.987	13.246	1307.269	977.082
101.001	13.281	1306.290	976.472
102.016	13.195	1305.649	975.399
103.030	13.259	1304.733	975.004
104.045	13.267	1303.677	974.178
105.060	13.286	1302.110	973.034
106.074	13.260	1301.249	972.152
107.089	13.188	1299.955	970.672
108.103	13.154	1298.667	969.425
109.118	13.079	1297.497	968.030
110.133	13.117	1296.184	967.185
111.147	13.135	1294.439	965.901
112.162	13.211	1293.155	965.303
113.176	13.178	1292.089	964.227
114.191	13.263	1291.383	964.113
115.206	13.381	1290.066	963.735
116.220	13.175	1288.768	961.477
117.235	13.235	1287.753	960.982
118.249	13.226	1286.630	960.007
119.264	13.244	1285.245	958.996
120.279	13.185	1284.637	958.114
121.293	13.193	1283.746	957.414
122.308	13.142	1282.935	956.428
123.322	13.205	1281.661	955.755
124.337	13.187	1280.597	954.775
125.352	13.110	1279.743	953.606
126.366	13.168	1278.153	952.673
127.381	13.159	1277.276	951.885
128.395	13.187	1276.026	951.029
129.410	13.215	1275.297	950.562
130.424	13.216	1274.081	949.581
131.439	13.176	1273.258	948.651
132.454	13.228	1272.066	947.981
133.468	13.148	1271.591	947.084
134.483	13.268	1270.598	946.944
135.497	13.249	1269.908	946.237
136.512	13.058	1268.820	944.249
137.527	13.260	1267.276	944.173
138.541	13.216	1265.722	942.682
139.556	13.199	1264.538	941.621
140.570	13.352	1263.571	941.686
141.585	13.211	1262.247	939.815
142.600	13.271	1261.264	939.341
143.614	13.425	1259.949	939.153
144.629	13.397	1258.806	938.058
145.643	13.408	1257.722	937.229
146.658	13.408	1256.449	936.199
147.673	13.367	1255.245	934.987
148.687	13.288	1253.959	933.498
149.702	13.261	1253.054	932.592
150.716	13.196	1252.058	931.401
151.731	13.447	1249.854	931.090
152.746	13.326	1249.423	930.008
153.760	13.463	1247.809	929.491
154.775	13.398	1247.157	928.560
155.789	13.455	1245.674	927.694
156.804	13.412	1245.091	926.939
157.819	13.464	1243.535	925.987
158.833	13.503	1243.005	925.730
159.848	13.600	1241.430	925.017
160.862	13.549	1240.817	924.193
161.877	13.483	1239.492	922.758
162.892	13.541	1238.614	922.346
163.906	13.473	1238.205	921.578
164.921	13.534	1237.027	920.958
165.935	13.434	1235.979	919.545
166.950	13.495	1235.264	919.268
167.964	13.544	1234.613	918.972
168.979	13.467	1233.945	917.967
169.994	13.611	1232.956	917.949
171.008	13.566	1231.841	916.791
172.023	13.690	1231.007	916.774
173.037	13.716	1230.365	916.359
174.052	13.690	1230.035	915.886
175.067	13.542	1228.553	913.884
176.081	13.626	1227.549	913.521
177.096	13.583	1226.855	912.684
178.110	13.617	1225.471	911.762
179.125	13.573	1224.716	910.881
180.140	13.672	1223.344	910.324
181.154	13.612	1222.054	908.954
182.169	13.741	1220.828	908.665
183.183	13.702	1219.902	907.684
184.198	13.744	1218.768	906.989
185.213	13.827	1217.620	906.508
186.227	13.852	1216.263	905.554
187.242	13.845	1215.351	904.756
188.256	13.898	1214.499	904.329
189.271	13.907	1213.207	903.338
190.286	13.805	1212.402	902.106
191.300	13.708	1211.803	901.054
192.315	13.614	1211.193	900.009
193.329	13.682	1210.195	899.557
194.344	13.787	1209.704	899.678
195.359	13.817	1209.252	899.425
196.373	13.916	1208.279	899.161
197.388	13.822	1207.991	898.356
198.402	13.900	1207.632	898.433
199.417	14.009	1206.805	898.326
200.432	14.045	1205.916	897.781
201.446	14.109	1204.936	897.315
202.461	14.038	1203.898	896.079
203.475	14.009	1203.364	895.448
204.490	14.082	1201.440	894.328
205.504	13.984	1200.442	892.980
206.519	14.048	1199.075	892.229
207.534	14.053	1198.094	891.449
208.548	14.087	1197.179	890.871
209.563	14.072	1196.438	890.157
210.577	14.104	1195.472	889.531
211.592	14.195	1194.609	889.297
212.607	14.177	1193.871	888.572
213.621	14.152	1192.949	887.676
214.636	14.096	1192.416	886.900
215.650	14.218	1191.384	886.706
216.665	14.260	1190.385	886.108
217.680	14.224	1189.562	885.227
218.694	14.302	1188.405	884.700
219.709	14.296	1187.690	884.058
220.723	14.292	1187.207	883.600
221.738	14.266	1186.471	882.837
222.753	14.278	1185.607	882.178
223.767	14.228	1185.009	881.389
224.782	14.433	1184.377	881.924
225.796	14.410	1183.508	881.080
226.811	14.420	1182.738	880.483
227.826	14.374	1182.040	879.643
228.840	14.441	1181.349	879.404
229.855	14.434	1180.643	878.762
230.869	14.485	1179.851	878.362
231.884	14.378	1178.828	876.961
232.899	14.245	1178.530	875.960
233.913	14.242	1177.531	875.126
234.928	14.392	1176.578	875.130
235.942	14.421	1175.869	874.675
236.957	14.448	1174.964	874.067
237.972	14.450	1174.789	873.869
238.986	14.329	1173.853	872.462
240.001	14.416	1173.291	872.423
241.015	14.300	1172.262	870.974
242.030	14.455	1171.390	871.057
243.045	14.477	1170.407	870.366
244.059	14.496	1169.761	869.908
245.074	14.510	1168.800	869.188
246.088	14.645	1168.060	869.265
247.103	14.578	1167.237	868.228
248.117	14.576	1166.831	867.839
249.132	14.615	1165.863	867.243
250.147	14.733	1165.060	867.181
251.161	14.775	1163.869	866.434
252.176	14.719	1163.797	866.015
253.190	14.836	1163.255	866.140
254.205	14.847	1162.692	865.703
255.220	14.884	1162.037	865.333
256.234	14.895	1161.295	864.757
257.249	14.964	1160.520	864.463
258.263	14.910	1159.976	863.702
259.278	14.874	1159.255	862.905
260.293	14.882	1158.625	862.398
261.307	15.130	1158.472	863.487
262.322	15.001	1157.234	861.824
263.336	14.997	1156.759	861.374
264.351	15.081	1156.037	861.192
265.366	15.032	1155.151	860.201
266.380	15.001	1154.578	859.543
267.395	14.973	1154.160	859.010
268.409	14.971	1153.538	858.459
269.424	15.002	1152.668	857.898
270.439	15.148	1152.042	858.102
271.453	15.078	1151.172	857.018
272.468	14.996	1150.422	855.965
273.482	15.049	1149.532	855.501
274.497	15.057	1148.974	855.051
275.512	15.014	1148.622	854.491
276.526	15.058	1147.843	854.064
277.541	15.100	1146.948	853.532
278.555	15.045	1146.635	852.946
279.570	15.221	1145.575	852.975
280.585	15.265	1144.453	852.292
281.599	15.296	1143.334	851.538
282.614	15.319	1142.374	850.865
283.628	15.378	1141.374	850.343
284.643	15.266	1140.785	849.262
285.657	15.290	1139.559	848.394
286.672	15.238	1139.139	847.746
287.687	15.354	1137.707	847.192
288.701	15.322	1137.347	846.686
289.716	15.356	1136.445	846.112
290.730	15.154	1136.148	844.795
291.745	15.449	1135.182	845.489
292.760	15.246	1134.688	844.026
293.774	15.338	1134.123	843.991
294.789	15.426	1133.796	844.115
295.803	15.446	1132.420	843.118
296.818	15.368	1132.499	842.712
297.833	15.452	1131.008	841.948
298.847	15.558	1130.030	841.677
299.862	15.326	1129.799	840.269
300.876	15.435	1129.081	840.208
301.891	15.549	1128.316	840.133
302.906	15.585	1127.645	839.740
303.920	15.564	1127.114	839.162
304.935	15.666	1126.473	839.120
305.949	15.599	1125.598	838.063
306.964	15.687	1125.144	838.085
307.979	15.720	1124.251	837.513
308.993	15.707	1123.523	836.831
310.008	15.689	1123.135	836.378
311.022	15.869	1121.450	835.943
312.037	15.820	1120.976	835.272
313.052	15.751	1119.921	834.072
314.066	15.785	1119.308	833.710
315.081	15.614	1118.667	832.312
316.095	15.637	1118.237	832.031
317.110	15.596	1117.678	831.337
318.125	15.664	1116.153	830.466
319.139	15.695	1115.668	830.185
320.154	15.735	1114.832	829.688
321.168	15.693	1114.301	829.015
322.183	15.623	1113.300	827.850
323.197	15.716	1113.132	828.110
324.212	15.801	1112.339	827.864
325.227	15.715	1111.823	826.985
326.241	15.853	1111.122	827.069
327.256	15.860	1110.241	826.371
328.270	15.804	1109.110	825.182
329.285	15.804	1108.217	824.444
330.300	15.862	1107.480	824.109
331.314	15.819	1106.883	823.381
332.329	15.898	1105.591	822.734
333.343	15.856	1105.122	822.107
334.358	15.838	1104.371	821.386
335.373	15.943	1103.698	821.323
336.387	15.951	1102.494	820.399
337.402	15.905	1102.131	819.829
338.416	16.009	1101.249	819.606
339.431	15.920	1100.600	818.618
340.446	16.062	1099.762	818.612
341.460	16.103	1098.999	818.172
342.475	16.131	1098.106	817.571
343.489	16.154	1097.250	816.972
344.504	16.195	1096.208	816.324
345.519	16.199	1095.844	815.999
346.533	16.186	1094.778	815.068
347.548	16.326	1093.841	814.975
348.562	16.225	1093.385	814.075
349.577	16.174	1092.433	813.050
350.592	16.190	1092.027	812.754
351.606	16.160	1090.906	811.701
352.621	16.196	1090.577	811.560
353.635	16.273	1089.969	811.403
354.650	16.195	1089.195	810.384
355.665	16.200	1088.059	809.489
356.679	16.139	1087.613	808.791
357.694	16.266	1087.460	809.215
358.708	16.284	1086.412	808.449
359.723	16.389	1085.316	808.066
360.738	16.293	1085.484	807.661
361.752	16.299	1084.961	807.231
362.767	16.317	1084.197	806.676
363.781	16.511	1083.109	806.718
364.796	16.458	1082.992	806.308
365.810	16.520	1082.022	805.809
366.825	16.600	1081.498	805.729
367.840	16.638	1080.912	805.403
368.854	16.511	1080.856	804.685
369.869	16.610	1079.418	804.013
370.883	16.682	1078.271	803.428
371.898	16.599	1077.667	802.517
372.913	16.667	1077.397	802.565
373.927	16.634	1077.114	802.129
374.942	16.537	1076.755	801.328
375.956	16.600	1075.935	800.949
376.971	16.542	1075.764	800.475
377.986	16.670	1074.841	800.323
379.000	16.736	1074.437	800.262
380.015	16.689	1074.167	799.769
381.029	16.702	1073.374	799.168
382.044	16.818	1072.611	799.074
383.059	16.852	1071.634	798.436
384.073	16.793	1070.679	797.378
385.088	16.771	1070.127	796.791
386.102	16.862	1068.930	796.257
387.117	16.846	1068.336	795.671
388.132	16.812	1067.022	794.463
389.146	16.915	1065.784	793.951
390.161	16.872	1065.799	793.691
391.175	16.810	1064.791	792.581
392.190	16.777	1064.467	792.117
393.205	16.931	1063.727	792.214
394.219	16.914	1062.663	791.273
395.234	16.895	1061.990	790.614
396.248	16.896	1060.914	789.745
397.263	16.917	1060.019	789.106
398.278	16.841	1059.211	788.083
399.292	16.834	1058.739	787.631
400.307	16.937	1057.691	787.258
401.321	16.959	1057.240	786.953
402.336	16.935	1056.788	786.439
403.350	16.838	1055.894	785.255
404.365	17.073	1054.836	785.486
405.380	16.921	1054.900	784.760
406.394	17.041	1053.878	784.484
407.409	17.133	1052.905	784.114
408.423	17.130	1051.896	783.282
409.438	17.158	1051.449	783.007
410.453	17.180	1050.872	782.610
411.467	17.192	1049.946	781.909
412.482	17.156	1049.341	781.221
413.496	17.158	1048.859	780.801
414.511	17.319	1048.167	780.959
415.526	17.389	1047.620	780.802
416.540	17.489	1047.285	780.940
417.555	17.286	1046.543	779.391
418.569	17.340	1046.317	779.398
419.584	17.310	1045.748	778.770
420.599	17.408	1045.557	779.007
421.613	107.974	1329.814	1486.603
422.628	99.254	1371.169	1486.673
