DTS Sentinel unit serial number:	SN413079Multiplexer serial number:	ORYXHardware model number:	OX4-SRSoftware version number:	ORYX F/W v4.00 Oryx Data Collector v3.7.2.0data status	okinstallation	princeton_trtdifferential loss correction	single-endedforward channel	channel 2reverse channel	N/Adate	2019/09/14time	12:23:34forward acquisition time	60.00reverse acquisition time	0.00gamma	496.2192k internal	0.2307k external	0.2307temperature offset calibration	1.0154default loss term (dB/km)	0.3790temperature slope calibration	1.0000multiplexer offset coefficient	1.0000multiplexer slope coefficient	1.0000fibre end	0.00T internal ref (°C)	37.80T ext. ref 1 (°C)	4.76T ext. ref 2 (°C)	34.92length (m)	temperature (°C)	Stokes	anti-Stokes-747.200	-47.623	0.447	-0.221
-746.185	-70.411	-0.189	-0.073
-745.171	-135.002	-0.107	-0.013
-744.156	561.755	-0.139	0.342
-743.142	-17.777	-0.038	-0.024
-742.127	800.000	-0.106	0.426
-741.112	133.368	-0.132	-0.173
-740.098	26.798	-0.214	0.182
-739.083	-103.504	0.146	0.035
-738.069	-137.016	-0.201	-0.023
-737.054	-109.818	0.261	-0.056
-736.039	131.169	-0.250	0.327
-735.025	152.696	0.122	-0.170
-734.010	-57.198	0.241	-0.108
-732.996	-200.000	-0.035	-0.203
-731.981	524.046	-0.104	-0.249
-730.966	-23.174	-0.160	-0.098
-729.952	-200.000	0.001	0.193
-728.937	-200.000	0.003	0.112
-727.923	800.000	-0.043	0.143
-726.908	121.108	-0.050	-0.063
-725.894	70.147	-0.131	0.137
-724.879	69.652	0.202	0.211
-723.864	480.409	-0.023	0.054
-722.850	333.858	0.086	0.169
-721.835	-107.087	0.123	0.028
-720.821	800.000	-0.089	-0.277
-719.806	-200.000	-0.014	0.246
-718.791	-151.318	0.102	-0.008
-717.777	-150.593	0.063	0.005
-716.762	-108.124	-0.154	-0.034
-715.748	-23.149	0.084	-0.051
-714.733	297.576	-0.116	-0.217
-713.718	-138.023	0.146	0.016
-712.704	-32.814	0.158	-0.089
-711.689	800.000	-0.030	-0.128
-710.675	84.431	-0.312	0.347
-709.660	466.104	0.122	-0.277
-708.645	-29.717	-0.071	0.041
-707.631	67.702	0.172	-0.178
-706.616	-104.286	0.220	-0.052
-705.602	800.000	-0.055	0.180
-704.587	-100.009	0.321	-0.081
-703.572	-125.272	0.188	0.029
-702.558	-200.000	0.007	-0.258
-701.543	-86.873	-0.141	-0.044
-700.529	-99.662	-0.329	0.084
-699.514	33.055	-0.220	-0.194
-698.499	-112.747	-0.220	0.044
-697.485	-48.556	-0.156	-0.076
-696.470	800.000	-0.050	-0.197
-695.456	114.137	-0.275	0.339
-694.441	-1.006	-0.103	0.074
-693.426	-118.421	0.018	0.003
-692.412	800.000	-0.110	-0.323
-691.397	-5.760	-0.249	0.173
-690.383	437.873	0.098	0.216
-689.368	416.730	0.045	0.097
-688.354	371.259	-0.048	-0.098
-687.339	-58.669	0.128	-0.056
-686.324	-96.319	0.145	0.039
-685.310	-53.081	0.166	-0.077
-684.295	103.331	0.197	-0.235
-683.281	319.247	0.050	0.096
-682.266	-180.957	-0.245	0.005
-681.251	39.423	-0.280	0.255
-680.237	800.000	-0.061	-0.197
-679.222	-200.000	-0.018	0.246
-678.208	124.377	-0.065	0.083
-677.193	-200.000	0.070	-0.315
-676.178	158.952	-0.131	-0.185
-675.164	-38.276	0.192	0.103
-674.149	-68.916	-0.202	-0.079
-673.135	-67.166	-0.128	0.051
-672.120	800.000	0.020	-0.074
-671.105	800.000	0.065	0.201
-670.091	71.758	0.130	-0.137
-669.076	467.104	0.107	-0.244
-668.062	145.108	0.195	0.264
-667.047	-97.195	0.144	-0.038
-666.032	-200.000	0.024	-0.147
-665.018	-103.396	-0.099	-0.024
-664.003	118.827	-0.190	-0.238
-662.989	26.219	0.229	-0.194
-661.974	582.479	-0.198	-0.491
-660.959	511.074	-0.064	-0.152
-659.945	-200.000	-0.007	0.032
-658.930	-47.912	-0.131	0.064
-657.916	800.000	-0.069	-0.222
-656.901	37.503	-0.317	-0.285
-655.886	16.477	-0.146	-0.117
-654.872	-137.683	-0.285	0.032
-653.857	-128.146	-0.251	-0.036
-652.843	-200.000	0.001	0.196
-651.828	-103.984	0.313	-0.074
-650.814	-46.951	-0.173	0.086
-649.799	-53.999	-0.139	0.064
-648.784	-90.740	-0.156	0.046
-647.770	-43.799	0.057	-0.029
-646.755	0.810	0.283	0.206
-645.741	-200.000	0.007	0.122
-644.726	800.000	-0.066	0.210
-643.711	-165.970	-0.104	-0.004
-642.697	-200.000	0.006	-0.227
-641.682	-45.516	-0.269	-0.135
-640.668	92.694	0.084	0.096
-639.653	319.242	-0.018	0.035
-638.638	-76.545	-0.098	0.035
-637.624	279.324	0.150	-0.270
-636.609	-200.000	-0.029	-0.221
-635.595	343.940	0.080	0.159
-634.580	22.557	-0.289	-0.240
-633.565	-106.484	-0.212	0.048
-632.551	-200.000	0.017	-0.130
-631.536	30.756	-0.151	0.131
-630.522	468.789	-0.093	0.212
-629.507	281.495	-0.232	-0.421
-628.492	-162.471	0.083	0.004
-627.478	332.383	-0.071	0.139
-626.463	124.639	0.024	0.030
-625.449	72.815	-0.194	0.205
-624.434	-55.307	0.105	0.048
-623.419	800.000	0.093	-0.334
-622.405	112.643	0.036	-0.044
-621.390	-200.000	-0.012	0.128
-620.376	-200.000	-0.029	0.170
-619.361	24.795	0.194	-0.163
-618.346	-200.000	-0.016	-0.099
-617.332	-27.429	0.265	0.156
-616.317	178.716	0.166	0.246
-615.303	-200.000	-0.054	-0.424
-614.288	-200.000	-0.028	0.161
-613.273	339.749	-0.110	-0.218
-612.259	783.044	0.035	-0.097
-611.244	19.962	0.256	-0.209
-610.230	-114.196	-0.011	-0.002
-609.215	399.238	0.012	-0.026
-608.201	-200.000	0.004	0.072
-607.186	188.589	0.046	-0.070
-606.171	-200.000	0.041	0.319
-605.157	203.681	0.125	0.195
-604.142	800.000	0.121	0.368
-603.128	322.112	-0.139	-0.268
-602.113	-62.037	-0.048	-0.020
-601.098	-4.697	0.110	0.077
-600.084	800.000	-0.044	0.185
-599.069	-59.690	0.161	-0.070
-598.055	187.109	-0.050	-0.075
-597.040	-120.827	-0.308	-0.053
-596.025	242.448	-0.063	-0.107
-595.011	-8.864	0.132	-0.090
-593.996	-76.788	-0.051	-0.018
-592.982	97.296	0.098	-0.114
-591.967	61.226	-0.150	-0.150
-590.952	330.638	-0.159	0.310
-589.938	9.393	-0.108	0.082
-588.923	398.421	0.139	0.294
-587.909	-117.261	0.167	-0.031
-586.894	-200.000	-0.041	0.232
-585.879	280.383	-0.035	-0.063
-584.865	27.014	-0.227	-0.192
-583.850	-27.256	0.200	0.118
-582.836	-55.224	0.707	-0.321
-581.821	335.084	0.113	-0.221
-580.806	393.546	0.133	-0.280
-579.792	319.980	-0.187	-0.358
-578.777	-200.000	-0.003	0.065
-577.763	-200.000	0.065	-0.291
-576.748	13.054	-0.360	0.281
-575.733	141.529	-0.126	-0.168
-574.719	-169.061	0.160	0.006
-573.704	-96.608	-0.238	0.063
-572.690	17.149	-0.157	0.126
-571.675	42.065	-0.199	0.183
-570.661	-68.419	-0.288	-0.113
-569.646	800.000	0.044	0.187
-568.631	139.964	-0.077	-0.103
-567.617	-110.776	-0.251	0.052
-566.602	-200.000	0.017	-0.318
-565.588	-162.278	0.203	-0.010
-564.573	-51.976	-0.234	0.110
-563.558	689.867	0.052	-0.137
-562.544	166.890	-0.009	-0.013
-561.529	-11.223	0.338	-0.225
-560.515	460.385	-0.283	-0.635
-559.500	449.585	-0.099	-0.221
-558.485	740.372	0.168	-0.457
-557.471	260.013	-0.160	0.278
-556.456	800.000	0.099	0.435
-555.442	-191.468	0.364	-0.004
-554.427	24.520	-0.147	-0.122
-553.412	800.000	-0.016	-0.072
-552.398	-84.600	0.273	0.087
-551.383	-68.082	-0.122	-0.048
-550.369	-186.391	0.222	0.003
-549.354	-200.000	-0.085	-0.399
-548.339	-165.045	-0.120	-0.005
-547.325	800.000	-0.090	0.357
-546.310	97.025	-0.076	-0.087
-545.296	-123.633	-0.319	0.051
-544.281	102.859	-0.169	-0.200
-543.266	-200.000	-0.061	-0.276
-542.252	775.208	0.070	0.193
-541.237	-55.987	0.143	-0.064
-540.223	112.949	0.069	0.085
-539.208	607.237	-0.046	-0.115
-538.193	11.430	-0.265	0.205
-537.179	-200.000	-0.033	-0.167
-536.164	-200.000	0.058	0.278
-535.150	-200.000	-0.021	0.286
-534.135	-75.240	-0.211	-0.076
-533.121	-103.607	-0.477	0.113
-532.106	-49.928	0.336	0.161
-531.091	-146.686	0.246	0.022
-530.077	-41.250	-0.171	0.089
-529.062	-200.000	-0.025	0.291
-528.048	800.000	-0.044	-0.166
-527.033	79.359	0.228	0.246
-526.018	-200.000	0.002	-0.054
-525.004	-99.501	-0.630	0.160
-523.989	32.517	-0.368	-0.320
-522.975	800.000	-0.042	-0.150
-521.960	122.416	0.116	-0.146
-520.945	276.051	0.251	-0.450
-519.931	-32.072	0.116	0.065
-518.916	-200.000	0.014	-0.210
-517.902	74.773	0.069	-0.074
-516.887	-31.930	-0.242	-0.136
-515.872	-200.000	0.023	0.207
-514.858	-200.000	0.004	0.399
-513.843	-12.733	-0.089	-0.058
-512.829	500.658	-0.123	-0.287
-511.814	-150.675	-0.287	0.022
-510.799	-141.525	0.012	-0.001
-509.785	-200.000	-0.007	-0.062
-508.770	-200.000	0.037	0.259
-507.756	481.476	-0.128	-0.292
-506.741	51.225	0.191	0.182
-505.726	-64.755	-0.275	0.112
-504.712	-200.000	-0.077	-0.473
-503.697	694.511	0.080	0.213
-502.683	-200.000	-0.010	0.113
-501.668	-200.000	-0.010	-0.061
-500.653	-101.426	0.235	0.058
-499.639	158.358	-0.147	-0.205
-498.624	-200.000	0.006	0.072
-497.610	465.587	0.100	0.226
-496.595	-52.899	-0.312	0.145
-495.581	-137.408	0.223	-0.025
-494.566	800.000	-0.051	-0.206
-493.551	634.019	0.056	-0.144
-492.537	-200.000	-0.023	-0.192
-491.522	150.871	0.122	-0.166
-490.508	55.388	-0.159	0.155
-489.493	-50.759	-0.426	-0.202
-488.478	-8.743	0.240	0.162
-487.464	589.896	-0.083	-0.205
-486.449	800.000	0.097	-0.358
-485.435	45.776	-0.089	0.083
-484.420	-102.549	0.168	-0.040
-483.405	62.227	0.183	-0.184
-482.391	800.000	-0.056	0.209
-481.376	-140.645	0.246	0.026
-480.362	-48.779	-0.099	-0.048
-479.347	-54.878	-0.114	-0.052
-478.332	800.000	-0.033	-0.135
-477.318	-200.000	0.052	0.464
-476.303	620.159	0.087	-0.219
-475.289	-51.062	0.176	0.083
-474.274	-83.436	0.522	0.168
-473.259	-91.639	-0.158	-0.045
-472.245	800.000	0.051	0.168
-471.230	552.743	0.102	-0.246
-470.216	-200.000	0.007	-0.050
-469.201	-183.130	-0.361	-0.006
-468.186	-200.000	0.048	0.227
-467.172	134.250	-0.132	0.173
-466.157	55.129	-0.195	0.190
-465.143	-155.296	0.146	-0.010
-464.128	4.169	-0.057	0.042
-463.113	-200.000	0.001	-0.096
-462.099	81.747	0.160	0.174
-461.084	-105.086	0.302	-0.070
-460.070	800.000	-0.017	0.074
-459.055	-132.683	-0.032	0.004
-458.040	-100.933	0.202	0.050
-457.026	-200.000	0.024	-0.180
-456.011	800.000	0.054	-0.222
-454.997	28.161	0.189	0.161
-453.982	-58.645	-0.306	0.133
-452.968	800.000	0.054	0.162
-451.953	162.866	-0.055	-0.077
-450.938	2.898	-0.336	0.245
-449.924	19.269	-0.311	-0.251
-448.909	-39.177	0.143	0.076
-447.895	37.763	-0.195	-0.174
-446.880	171.724	-0.075	0.109
-445.865	17.339	0.052	-0.042
-444.851	-52.199	-0.234	0.109
-443.836	146.669	0.269	0.363
-442.822	-116.071	0.300	0.056
-441.807	-200.000	-0.027	0.183
-440.792	-200.000	-0.006	0.040
-439.778	800.000	0.043	0.134
-438.763	37.908	-0.252	0.225
-437.749	-200.000	-0.058	0.451
-436.734	267.791	0.159	-0.280
-435.719	105.465	0.171	0.203
-434.705	506.350	0.104	-0.242
-433.690	371.836	0.125	-0.254
-432.676	174.260	0.034	-0.049
-431.661	-200.000	0.062	0.275
-430.646	180.090	-0.052	-0.077
-429.632	-51.804	-0.123	-0.058
-428.617	82.711	-0.058	0.063
-427.603	-18.775	0.318	-0.199
-426.588	560.140	-0.115	-0.279
-425.573	-200.000	-0.019	-0.291
-424.559	2.329	0.223	0.162
-423.544	184.261	-0.156	-0.231
-422.530	-82.233	-0.471	-0.154
-421.515	-200.000	-0.009	0.067
-420.500	-200.000	0.024	0.273
-419.486	-114.443	0.115	0.022
-418.471	800.000	-0.094	-0.348
-417.457	-127.490	0.290	0.042
-416.442	-90.121	-0.177	-0.052
-415.428	-132.058	0.131	-0.017
-414.413	-177.568	0.253	0.006
-413.398	558.306	0.069	-0.167
-412.384	-160.433	0.244	0.013
-411.369	279.108	-0.070	0.126
-410.355	-100.282	-0.115	0.029
-409.340	-200.000	-0.068	-0.415
-408.325	29.827	0.132	-0.113
-407.311	-187.103	0.280	-0.004
-406.296	146.610	-0.217	-0.293
-405.282	-83.268	-0.012	0.004
-404.267	50.290	0.309	0.293
-403.252	0.633	0.219	0.157
-402.238	171.436	-0.040	-0.057
-401.223	47.568	-0.168	0.157
-400.209	126.640	0.100	0.127
-399.194	148.628	0.077	-0.104
-398.179	-28.936	-0.246	0.142
-397.165	-83.543	0.158	-0.051
-396.150	177.874	0.098	0.143
-395.136	800.000	-0.007	0.026
-394.121	800.000	0.077	-0.272
-393.106	-105.138	-0.199	0.046
-392.092	-86.088	-0.123	0.038
-391.077	-112.175	0.132	-0.027
-390.063	71.314	-0.195	0.203
-389.048	-23.055	0.035	0.021
-388.033	-200.000	-0.014	0.216
-387.019	85.779	0.046	0.050
-386.004	200.736	0.147	0.226
-384.990	16.747	-0.145	-0.115
-383.975	37.868	-0.065	-0.058
-382.960	-50.829	-0.267	0.126
-381.946	469.278	-0.109	-0.245
-380.931	-54.893	-0.385	-0.174
-379.917	-35.296	0.161	0.088
-378.902	800.000	0.137	0.437
-377.888	800.000	-0.067	-0.219
-376.873	7.516	-0.335	-0.251
-375.858	40.597	0.218	-0.197
-374.844	387.982	-0.046	-0.095
-373.829	75.617	0.073	0.078
-372.815	-4.536	-0.134	-0.093
-371.800	294.790	-0.089	0.164
-370.785	255.171	-0.101	0.173
-369.771	-52.904	-0.103	0.048
-368.756	-134.744	-0.346	0.042
-367.742	800.000	-0.067	0.281
-366.727	800.000	-0.138	0.452
-365.712	-200.000	0.006	0.188
-364.698	800.000	0.042	0.184
-363.683	-200.000	0.075	0.424
-362.669	291.936	-0.120	0.219
-361.654	-35.598	0.226	0.123
-360.639	-200.000	0.012	0.143
-359.625	800.000	0.051	0.156
-358.610	127.112	-0.093	-0.119
-357.596	-200.000	-0.086	0.000
-356.581	-47.025	-0.099	-0.048
-355.566	-78.676	0.362	0.124
-354.552	147.224	0.148	0.199
-353.537	800.000	0.104	0.326
-352.523	-100.533	0.401	-0.099
-351.508	800.000	0.115	0.439
-350.493	-42.680	0.409	-0.208
-349.479	-200.000	-0.077	-0.000
-348.464	49.000	-0.272	0.256
-347.450	25.329	0.052	0.043
-346.435	553.844	-0.102	0.246
-345.420	222.154	0.172	-0.277
-344.406	-104.704	0.254	0.059
-343.391	-200.000	-0.029	-0.280
-342.377	154.428	0.136	0.187
-341.362	767.326	-0.097	0.263
-340.348	-200.000	0.021	-0.107
-339.333	800.000	-0.012	-0.034
-338.318	-200.000	-0.093	-0.520
-337.304	25.429	-0.103	-0.085
-336.289	121.645	0.331	0.413
-335.275	-200.000	-0.041	0.212
-334.260	-200.000	-0.007	-0.231
-333.245	-5.392	-0.355	0.244
-332.231	226.797	-0.062	-0.101
-331.216	28.325	0.224	-0.189
-330.202	-77.349	0.112	0.039
-329.187	-185.162	0.098	-0.002
-328.172	12.347	-0.204	0.157
-327.158	310.743	0.044	-0.082
-326.143	104.403	-0.144	-0.169
-325.129	-109.920	-0.271	0.057
-324.114	-2.276	-0.538	-0.378
-323.099	800.000	0.015	-0.054
-322.085	-200.000	0.021	0.178
-321.070	408.496	-0.038	-0.080
-320.056	-22.654	0.097	-0.059
-319.041	-14.217	0.141	0.091
-318.026	-200.000	-0.025	-0.305
-317.012	118.835	-0.171	0.212
-315.997	185.025	0.235	0.348
-314.983	301.843	0.120	-0.221
-313.968	143.699	0.183	0.244
-312.953	-102.505	-0.234	0.056
-311.939	549.500	-0.006	0.014
-310.924	31.527	0.334	0.287
-309.910	-115.248	-0.042	0.008
-308.895	288.601	-0.098	-0.178
-307.880	0.992	-0.271	-0.194
-306.866	800.000	-0.099	0.369
-305.851	63.412	0.252	-0.253
-304.837	62.785	0.104	0.104
-303.822	800.000	0.020	0.085
-302.807	-5.807	-0.185	0.127
-301.793	-200.000	0.000	-0.050
-300.778	108.259	0.278	-0.331
-299.764	-91.307	-0.239	-0.068
-298.749	-119.814	0.216	-0.037
-297.735	35.394	0.221	-0.194
-296.720	-38.693	-0.065	0.035
-295.705	-59.015	-0.172	0.074
-294.691	392.997	-0.054	-0.113
-293.676	-53.129	-0.077	-0.035
-292.662	800.000	-0.032	0.100
-291.647	51.132	0.148	0.141
-290.632	-144.656	0.133	-0.012
-289.618	64.975	-0.106	0.107
-288.603	-8.816	-0.059	0.040
-287.589	160.744	-0.072	-0.100
-286.574	-62.897	0.220	0.091
-285.559	-1.506	0.459	0.323
-284.545	208.134	-0.029	-0.045
-283.530	-60.905	0.066	-0.028
-282.516	-200.000	-0.034	-0.271
-281.501	-11.315	0.362	-0.238
-280.486	-28.710	0.363	-0.209
-279.472	143.216	0.102	0.135
-278.457	5.367	-0.385	-0.284
-277.443	-142.219	0.159	0.016
-276.428	-102.718	-0.299	-0.071
-275.413	800.000	-0.027	0.114
-274.399	70.696	-0.167	0.173
-273.384	-200.000	0.039	-0.337
-272.370	-200.000	0.037	-0.165
-271.355	124.107	0.181	0.227
-270.340	800.000	-0.122	0.338
-269.326	6.955	0.290	0.216
-268.311	-200.000	0.008	0.058
-267.297	-29.061	-0.086	-0.049
-266.282	-161.963	-0.271	-0.014
-265.267	-48.375	0.176	0.085
-264.253	29.414	0.321	0.272
-263.238	562.804	-0.128	-0.309
-262.224	207.749	0.073	0.113
-261.209	197.960	-0.160	0.244
-260.195	-184.449	-0.061	0.001
-259.180	-200.000	-0.004	-0.333
-258.165	-200.000	0.021	0.297
-257.151	-200.000	0.047	-0.258
-256.136	16.495	0.192	-0.151
-255.122	-200.000	-0.017	0.164
-254.107	-76.473	0.228	-0.080
-253.092	-63.702	-0.068	-0.028
-252.078	-200.000	-0.023	0.205
-251.063	-200.000	0.011	-0.097
-250.049	-200.000	0.059	-0.290
-249.034	-180.685	-0.218	-0.004
-248.019	-101.181	-0.304	0.074
-247.005	-82.955	-0.062	0.020
-245.990	-200.000	-0.022	0.095
-244.976	-132.065	-0.245	-0.032
-243.961	800.000	0.089	0.282
-242.946	-170.965	0.144	0.005
-241.932	89.548	-0.084	0.093
-240.917	288.986	0.106	0.191
-239.903	-81.486	-0.038	0.013
-238.888	59.403	-0.056	-0.055
-237.873	-160.055	0.130	0.007
-236.859	60.818	0.343	0.339
-235.844	255.296	-0.131	-0.224
-234.830	103.623	0.045	0.053
-233.815	-200.000	-0.048	0.000
-232.800	-55.679	-0.166	-0.074
-231.786	-133.529	-0.166	0.021
-230.771	800.000	0.023	-0.065
-229.757	800.000	0.033	-0.109
-228.742	63.731	0.220	-0.220
-227.727	-76.841	0.295	0.103
-226.713	147.342	-0.122	0.163
-225.698	151.494	0.147	0.200
-224.684	800.000	0.051	0.177
-223.669	-200.000	-0.019	0.145
-222.655	800.000	0.070	-0.293
-221.640	-200.000	-0.003	-0.203
-220.625	-200.000	-0.078	-0.000
-219.611	-51.290	0.141	-0.066
-218.596	43.156	-0.213	0.194
-217.582	-66.705	0.523	-0.206
-216.567	-70.658	0.035	-0.013
-215.552	-200.000	0.085	0.648
-214.538	-200.000	0.000	0.113
-213.523	-64.869	0.304	0.122
-212.509	-145.746	-0.411	0.036
-211.494	188.139	-0.198	-0.295
-210.479	687.510	-0.117	-0.306
-209.465	-126.163	0.189	0.028
-208.450	800.000	0.031	-0.108
-207.436	800.000	0.107	-0.341
-206.421	-55.662	0.026	0.012
-205.406	-92.984	-0.235	-0.065
-204.392	44.876	0.240	-0.220
-203.377	800.000	0.093	-0.401
-202.363	-119.667	0.145	-0.025
-201.348	-55.421	-0.096	0.043
-200.333	-126.313	-0.317	-0.047
-199.319	-120.131	-0.048	0.008
-198.304	-34.496	0.202	0.110
-197.290	-37.956	-0.219	-0.116
-196.275	800.000	0.092	-0.398
-195.260	164.912	0.067	0.094
-194.246	91.068	-0.176	0.196
-193.231	600.752	0.063	-0.157
-192.217	-11.811	-0.073	0.048
-191.202	544.263	0.101	0.240
-190.187	-31.165	-0.302	-0.169
-189.173	337.930	0.081	-0.158
-188.158	-70.179	-0.293	-0.111
-187.144	-143.327	-0.273	0.026
-186.129	30.741	0.228	-0.195
-185.114	-200.000	-0.026	-0.184
-184.100	-75.897	-0.231	0.081
-183.085	-18.481	0.216	0.134
-182.071	386.543	0.208	0.426
-181.056	111.076	0.221	-0.265
-180.042	-134.479	0.180	0.022
-179.027	-200.000	0.034	-0.222
-178.012	-31.044	-0.204	0.114
-176.998	46.836	0.139	0.129
-175.983	-109.624	-0.069	0.015
-174.969	18.516	-0.044	0.035
-173.954	14.747	0.042	-0.032
-172.939	209.598	0.245	-0.381
-171.925	324.325	-0.037	-0.071
-170.910	65.314	0.117	-0.117
-169.896	-200.000	0.043	0.187
-168.881	-11.998	-0.178	0.116
-167.866	-50.598	0.362	-0.170
-166.852	-136.647	-0.175	-0.020
-165.837	202.440	-0.079	-0.122
-164.823	80.244	-0.084	0.090
-163.808	27.660	0.300	-0.251
-162.793	-2.524	-0.299	0.208
-161.779	-41.200	0.149	0.076
-160.764	175.241	0.048	-0.069
-159.750	353.657	-0.118	-0.234
-158.735	321.854	0.130	0.245
-157.720	-200.000	0.003	0.084
-156.706	-47.559	0.138	0.067
-155.691	82.902	-0.124	0.134
-154.677	-15.292	-0.357	0.227
-153.662	-200.000	-0.042	-0.244
-152.647	2.947	0.078	0.056
-151.633	-35.410	0.209	-0.113
-150.618	5.007	0.191	-0.139
-149.604	-184.218	0.081	-0.001
-148.589	-98.700	-0.181	0.046
-147.574	19.917	-0.100	-0.080
-146.560	800.000	0.031	-0.126
-145.545	-91.162	0.182	0.052
-144.531	11.305	-0.428	0.326
-143.516	800.000	-0.101	0.301
-142.502	-200.000	0.021	0.150
-141.487	-32.073	-0.166	-0.092
-140.472	-65.454	0.170	-0.068
-139.458	-200.000	-0.042	-0.443
-138.443	-24.966	0.235	-0.138
-137.429	191.289	0.102	0.153
-136.414	390.705	-0.077	0.158
-135.399	-167.902	-0.125	-0.005
-134.385	-137.099	-0.197	0.022
-133.370	569.624	-0.033	0.080
-132.356	16.173	0.094	0.074
-131.341	-44.070	-0.141	0.070
-130.326	-34.798	-0.289	-0.157
-129.312	-200.000	0.016	-0.181
-128.297	468.706	0.019	0.042
-127.283	411.895	0.066	0.140
-126.268	13.009	-0.160	-0.123
-125.253	-29.836	-0.051	0.029
-124.239	-191.444	-0.063	-0.001
-123.224	-117.040	0.319	-0.058
-122.210	-64.604	-0.198	0.080
-121.195	-35.218	0.178	-0.096
-120.180	-121.097	-0.043	-0.007
-119.166	-101.255	0.257	-0.062
-118.151	-11.540	0.147	0.096
-117.137	-177.625	-0.166	-0.004
-116.122	-200.000	-0.017	0.180
-115.107	800.000	0.080	-0.248
-114.093	-4.987	-0.198	-0.135
-113.078	800.000	-0.047	-0.172
-112.064	800.000	-0.037	-0.116
-111.049	800.000	-0.004	0.015
-110.034	-169.663	-0.444	0.016
-109.020	33.186	0.134	0.115
-108.005	-200.000	0.018	0.205
-106.991	800.000	-0.086	0.243
-105.976	-200.000	-0.007	-0.421
-104.962	172.944	0.205	0.293
-103.947	-200.000	0.035	0.261
-102.932	-152.541	-0.416	-0.030
-101.918	-200.000	-0.008	-0.117
-100.903	-98.947	0.189	0.047
-99.889	800.000	0.049	0.182
-98.874	33.884	-0.241	0.208
-97.859	-129.331	0.131	0.018
-96.845	-52.083	-0.147	-0.068
-95.830	-146.000	0.428	-0.038
-94.816	794.743	-0.111	-0.304
-93.801	-96.886	0.362	-0.094
-92.786	115.659	0.193	0.234
-91.772	300.426	0.091	0.166
-90.757	800.000	-0.104	-0.364
-89.743	-20.316	-0.066	-0.040
-88.728	426.420	0.111	0.237
-87.713	-89.306	-0.326	-0.095
-86.699	-43.392	-0.178	-0.089
-85.684	209.734	-0.138	0.215
-84.670	139.996	-0.006	0.008
-83.655	788.844	-0.041	-0.111
-82.640	-200.000	0.012	0.058
-81.626	375.737	0.086	0.174
-80.611	-45.015	0.266	-0.131
-79.597	-165.699	0.096	0.004
-78.582	14.166	-0.210	-0.162
-77.567	-65.216	0.267	-0.107
-76.553	-38.039	-0.343	-0.180
-75.538	-72.777	0.035	-0.013
-74.524	23.241	0.046	-0.038
-73.509	-76.877	-0.140	0.048
-72.494	90.778	0.094	-0.104
-71.480	-200.000	-0.045	0.279
-70.465	-55.399	0.241	0.107
-69.451	18.250	-0.170	0.135
-68.436	-74.945	-0.250	-0.089
-67.422	723.242	-0.124	0.327
-66.407	-40.393	-0.204	0.105
-65.392	-86.605	0.205	-0.062
-64.378	175.721	-0.099	0.142
-63.363	321.335	0.019	0.035
-62.349	-21.686	-0.340	-0.205
-61.334	254.721	-0.406	-0.687
-60.319	259.763	-0.133	0.227
-59.305	529.329	-0.347	-0.810
-58.290	155.182	0.613	0.835
-57.276	592.536	0.593	1.449
-56.261	-200.000	84.853	494.227
-55.246	511.543	1402.684	3232.635
-54.232	179.681	2638.391	3825.152
-53.217	111.970	2374.254	2838.877
-52.203	46.461	1978.664	1816.683
-51.188	40.917	1763.613	1575.398
-50.173	38.236	1717.882	1513.753
-49.159	52.898	1759.321	1665.377
-48.144	56.621	1777.731	1711.898
-47.130	40.846	1738.099	1551.807
-46.115	37.845	1723.481	1515.411
-45.100	37.663	1718.597	1509.641
-44.086	37.675	1715.989	1507.389
-43.071	37.622	1713.506	1504.734
-42.057	37.625	1710.711	1502.247
-41.042	37.667	1708.413	1500.487
-40.027	37.652	1707.015	1499.092
-39.013	37.607	1704.761	1496.705
-37.998	37.573	1703.243	1495.051
-36.984	37.663	1702.251	1494.808
-35.969	37.779	1700.043	1493.702
-34.954	37.887	1697.878	1492.565
-33.940	37.841	1696.519	1490.964
-32.925	37.827	1694.908	1489.377
-31.911	37.810	1693.430	1487.889
-30.896	37.797	1691.247	1485.813
-29.881	37.705	1689.782	1483.766
-28.867	37.770	1688.049	1482.685
-27.852	37.899	1686.240	1482.013
-26.838	37.818	1684.950	1480.207
-25.823	37.802	1683.712	1478.941
-24.809	37.848	1682.284	1477.976
-23.794	37.834	1681.035	1476.714
-22.779	37.808	1679.639	1475.236
-21.765	37.803	1677.419	1473.187
-20.750	37.866	1675.573	1471.983
-19.736	37.891	1674.332	1471.019
-18.721	37.805	1673.301	1469.411
-17.706	37.756	1671.405	1467.317
-16.692	37.771	1670.054	1466.188
-15.677	37.755	1668.799	1464.905
-14.663	37.833	1667.407	1464.213
-13.648	37.861	1666.049	1463.171
-12.633	37.815	1664.336	1461.263
-11.619	37.813	1662.856	1459.893
-10.604	37.819	1661.191	1458.419
-9.590	37.860	1660.147	1457.751
-8.575	37.845	1658.397	1456.040
-7.560	37.940	1656.706	1455.205
-6.546	37.865	1656.165	1454.118
-5.531	37.780	1655.084	1452.475
-4.517	37.782	1653.736	1451.252
-3.502	37.758	1652.548	1449.973
-2.487	37.809	1651.460	1449.342
-1.473	37.851	1639.672	1439.248
-0.458	35.380	1620.222	1404.062
0.556	33.289	1619.373	1368.963
1.571	30.618	1644.153	1370.138
2.586	29.465	1657.097	1372.232
3.600	25.376	1600.081	1295.472
4.615	15.021	1481.414	1129.759
5.629	6.357	1411.756	1020.582
6.644	4.860	1402.897	1004.438
7.659	4.725	1400.982	1002.114
8.673	4.693	1400.133	1001.210
9.688	4.782	1398.163	1000.286
10.702	4.741	1396.166	998.507
11.717	8.460	1403.358	1027.505
12.731	17.667	1420.764	1099.831
13.746	22.460	1427.553	1135.989
14.761	21.250	1424.453	1125.627
15.775	20.140	1421.736	1116.238
16.790	19.117	1418.498	1107.019
17.804	18.238	1416.218	1099.502
18.819	17.954	1414.553	1096.285
19.834	17.580	1413.715	1093.142
20.848	17.446	1412.142	1090.967
21.863	17.178	1410.989	1088.266
22.877	17.082	1409.819	1086.650
23.892	17.056	1408.639	1085.479
24.907	17.047	1408.105	1084.912
25.921	17.038	1407.461	1084.265
26.936	17.099	1406.435	1083.770
27.950	17.119	1405.174	1082.829
28.965	17.191	1404.347	1082.551
29.980	17.204	1403.082	1081.566
30.994	17.260	1402.063	1081.038
32.009	17.455	1400.788	1081.197
33.023	17.357	1399.609	1079.574
34.038	17.234	1398.318	1077.703
35.053	17.221	1396.987	1076.497
36.067	17.163	1395.929	1075.220
37.082	17.249	1395.284	1075.169
38.096	17.305	1394.142	1074.549
39.111	17.303	1392.882	1073.472
40.126	17.275	1392.116	1072.611
41.140	17.060	1391.148	1070.416
42.155	16.960	1390.398	1069.109
43.169	16.905	1390.072	1068.422
44.184	16.923	1389.727	1068.175
45.199	16.877	1389.503	1067.619
46.213	16.972	1389.223	1067.907
47.228	17.078	1388.318	1067.782
48.242	17.166	1387.027	1067.245
49.257	17.201	1385.643	1066.309
50.271	17.155	1383.813	1064.515
51.286	17.138	1382.622	1063.397
52.301	17.106	1381.558	1062.288
53.315	16.957	1380.112	1060.148
54.330	16.921	1379.302	1059.209
55.344	16.937	1377.641	1057.940
56.359	16.926	1376.448	1056.860
57.374	16.941	1375.894	1056.436
58.388	16.912	1374.933	1055.426
59.403	16.832	1374.521	1054.518
60.417	16.829	1373.813	1053.860
61.432	16.875	1372.571	1053.099
62.447	16.873	1371.731	1052.351
63.461	16.810	1370.207	1050.699
64.476	16.675	1369.558	1049.269
65.490	16.812	1368.220	1049.001
66.505	16.673	1366.850	1046.996
67.520	16.885	1364.310	1046.270
68.534	16.768	1364.449	1045.559
69.549	16.784	1363.245	1044.645
70.563	16.712	1361.939	1043.106
71.578	16.670	1360.435	1041.603
72.593	16.606	1360.001	1040.787
73.607	16.601	1359.447	1040.239
74.622	16.517	1358.766	1039.113
75.636	16.615	1357.686	1038.797
76.651	16.744	1356.783	1038.805
77.666	16.657	1356.206	1037.739
78.680	16.773	1355.812	1038.051
79.695	16.676	1355.787	1037.351
80.709	16.735	1354.482	1036.621
81.724	16.846	1353.548	1036.491
82.739	16.907	1352.731	1036.145
83.753	16.994	1352.061	1036.076
84.768	17.127	1350.862	1035.872
85.782	17.244	1349.651	1035.568
86.797	17.107	1348.686	1033.902
87.812	17.154	1347.165	1032.928
88.826	17.080	1345.919	1031.431
89.841	17.122	1344.354	1030.396
90.855	17.160	1343.577	1029.942
91.870	17.252	1343.046	1030.002
92.884	17.094	1342.765	1028.737
93.899	17.369	1341.204	1029.114
94.914	17.409	1340.430	1028.670
95.928	17.347	1339.689	1027.634
96.943	17.303	1338.311	1026.225
97.957	17.239	1337.708	1025.282
98.972	17.241	1336.679	1024.416
99.987	17.203	1335.951	1023.539
101.001	17.218	1335.160	1022.931
102.016	17.188	1333.895	1021.691
103.030	17.304	1332.782	1021.444
104.045	17.174	1332.279	1020.190
105.060	17.138	1330.509	1018.525
106.074	16.945	1329.440	1016.465
107.089	16.814	1327.671	1014.238
108.103	16.705	1326.384	1012.510
109.118	16.728	1325.280	1011.715
110.133	16.759	1324.093	1010.907
111.147	16.761	1322.403	1009.536
112.162	16.867	1320.998	1009.009
113.176	16.872	1320.147	1008.300
114.191	16.837	1319.444	1007.466
115.206	16.974	1317.939	1007.041
116.220	16.866	1316.637	1005.317
117.235	16.968	1315.638	1005.067
118.249	16.923	1314.664	1003.966
119.264	16.880	1313.465	1002.710
120.279	16.774	1312.172	1001.007
121.293	16.801	1311.301	1000.415
122.308	16.703	1310.292	998.977
123.322	16.711	1309.132	998.053
124.337	16.707	1308.187	997.220
125.352	16.737	1307.149	996.515
126.366	16.698	1305.663	995.065
127.381	16.604	1304.900	993.843
128.395	16.734	1303.806	993.685
129.410	16.790	1302.823	993.176
130.424	16.883	1302.195	993.153
131.439	16.874	1301.322	992.348
132.454	16.868	1300.052	991.255
133.468	16.854	1299.445	990.627
134.483	16.952	1298.597	990.466
135.497	16.914	1297.913	989.635
136.512	17.002	1296.360	988.874
137.527	16.982	1295.238	987.813
138.541	17.068	1293.700	987.055
139.556	16.969	1292.631	985.573
140.570	17.138	1291.364	985.503
141.585	17.226	1290.699	985.419
142.600	17.331	1288.583	984.322
143.614	17.264	1288.209	983.566
144.629	17.289	1287.034	982.724
145.643	17.332	1285.757	981.912
146.658	17.131	1284.467	979.677
147.673	17.125	1283.048	978.478
148.687	16.993	1281.847	976.715
149.702	17.006	1280.560	975.720
150.716	17.014	1278.993	974.486
151.731	16.973	1277.961	973.381
152.746	16.945	1277.007	972.403
153.760	17.045	1275.587	971.812
154.775	16.994	1274.678	970.743
155.789	17.205	1273.168	970.711
156.804	17.205	1272.417	970.049
157.819	17.206	1271.340	969.150
158.833	17.276	1270.486	968.812
159.848	17.387	1269.521	968.621
160.862	17.345	1268.527	967.540
161.877	17.094	1267.283	965.080
162.892	17.066	1265.962	963.830
163.906	17.013	1264.807	962.565
164.921	17.013	1264.043	961.898
165.935	17.142	1263.345	962.012
166.950	17.201	1262.590	961.688
167.964	17.269	1261.745	961.340
168.979	17.238	1261.226	960.684
169.994	17.160	1260.330	959.475
171.008	17.248	1259.470	959.236
172.023	17.284	1258.831	958.865
173.037	17.372	1257.858	958.535
174.052	17.357	1256.802	957.564
175.067	17.291	1255.689	956.257
176.081	17.162	1254.341	954.423
177.096	17.188	1253.787	954.065
178.110	17.196	1252.587	953.107
179.125	17.152	1251.740	952.136
180.140	17.204	1250.014	951.027
181.154	17.282	1248.859	950.503
182.169	17.390	1247.827	950.238
183.183	17.483	1246.806	949.892
184.198	17.393	1245.633	948.414
185.213	17.517	1244.329	948.025
186.227	17.454	1243.417	946.897
187.242	17.535	1242.572	946.622
188.256	17.622	1241.255	946.017
189.271	17.625	1240.532	945.398
190.286	17.414	1239.288	943.200
191.300	17.237	1237.900	941.077
192.315	17.021	1237.298	939.341
193.329	17.064	1236.895	939.192
194.344	17.183	1236.284	939.302
195.359	17.222	1235.696	938.988
196.373	17.338	1235.506	939.401
197.388	17.441	1235.167	939.629
198.402	17.593	1235.011	940.266
199.417	17.690	1233.704	939.720
200.432	17.821	1233.115	939.911
201.446	17.811	1232.169	939.054
202.461	17.835	1230.970	938.186
203.475	17.831	1230.139	937.451
204.490	17.809	1228.576	936.056
205.504	17.630	1227.659	934.290
206.519	17.609	1226.448	933.172
207.534	17.572	1225.407	932.093
208.548	17.734	1224.168	931.953
209.563	17.693	1223.247	930.948
210.577	17.638	1222.624	930.092
211.592	17.810	1221.664	930.214
212.607	17.790	1220.851	929.404
213.621	17.802	1220.064	928.791
214.636	17.762	1219.429	928.006
215.650	17.842	1217.951	927.236
216.665	17.878	1217.024	926.644
217.680	17.885	1216.985	926.571
218.694	17.987	1215.257	925.721
219.709	17.915	1214.872	924.961
220.723	17.837	1213.899	923.716
221.738	17.942	1212.973	923.493
222.753	18.000	1212.153	923.104
223.767	18.050	1211.389	922.708
224.782	18.099	1211.643	923.086
225.796	18.159	1210.481	922.443
226.811	18.084	1209.824	921.456
227.826	17.995	1208.910	920.200
228.840	18.019	1208.187	919.696
229.855	17.971	1207.744	919.018
230.869	17.994	1206.562	918.162
231.884	17.933	1205.658	917.063
232.899	17.931	1204.884	916.387
233.913	17.907	1204.570	915.939
234.928	17.896	1203.604	915.060
235.942	17.796	1203.069	914.036
236.957	17.790	1201.933	913.064
237.972	17.901	1201.321	913.112
238.986	17.876	1200.654	912.387
240.001	17.856	1200.127	911.798
241.015	17.986	1198.559	911.222
242.030	18.036	1197.966	910.958
243.045	18.050	1197.602	910.673
244.059	18.023	1196.986	909.982
245.074	18.068	1196.083	909.456
246.088	18.107	1195.328	909.008
247.103	18.176	1194.826	908.911
248.117	18.196	1193.938	908.262
249.132	18.516	1192.836	909.039
250.147	18.497	1192.549	908.639
251.161	18.538	1191.572	908.034
252.176	18.462	1191.365	907.391
253.190	18.578	1190.910	907.577
254.205	18.779	1189.759	907.682
255.220	18.727	1189.512	907.138
256.234	18.655	1189.095	906.362
257.249	18.757	1187.883	905.899
258.263	18.722	1187.063	905.008
259.278	18.656	1186.317	904.007
260.293	18.803	1185.619	904.169
261.307	18.752	1185.223	903.519
262.322	18.782	1184.794	903.270
263.336	18.883	1184.252	903.312
264.351	18.788	1183.498	902.157
265.366	18.897	1182.666	902.013
266.380	18.888	1181.888	901.296
267.395	18.896	1180.857	900.469
268.409	18.809	1180.048	899.316
269.424	18.636	1180.023	898.313
270.439	18.728	1179.092	898.006
271.453	18.696	1178.148	897.041
272.468	18.700	1177.215	896.274
273.482	18.644	1176.292	895.199
274.497	18.659	1175.996	894.969
275.512	18.672	1175.380	894.489
276.526	18.687	1174.447	893.778
277.541	18.751	1173.367	893.213
278.555	18.749	1173.018	892.854
279.570	18.885	1172.465	893.063
280.585	19.057	1171.130	892.858
281.599	19.039	1170.216	891.991
282.614	18.838	1169.537	890.352
283.628	18.944	1168.012	889.660
284.643	18.920	1167.007	888.691
285.657	18.953	1166.346	888.284
286.672	18.868	1165.685	887.260
287.687	18.957	1164.435	886.692
288.701	19.017	1163.686	886.349
289.716	18.898	1163.275	885.344
290.730	18.975	1162.553	885.115
291.745	18.962	1161.814	884.405
292.760	18.978	1161.332	884.046
293.774	19.100	1160.738	884.143
294.789	19.146	1160.186	883.876
295.803	19.113	1159.142	882.835
296.818	18.971	1158.783	881.754
297.833	19.039	1157.748	881.237
298.847	19.039	1156.895	880.510
299.862	19.080	1156.033	879.983
300.876	19.058	1155.810	879.627
301.891	19.127	1154.847	879.170
302.906	19.203	1154.114	878.920
303.920	19.270	1153.233	878.513
304.935	19.362	1152.630	878.445
305.949	19.466	1152.291	878.636
306.964	19.399	1151.341	877.495
307.979	19.414	1150.542	876.886
308.993	19.357	1149.876	876.008
310.008	19.413	1149.156	875.668
311.022	19.462	1148.378	875.248
312.037	19.473	1147.345	874.439
313.052	19.385	1146.243	873.074
314.066	19.299	1145.446	871.953
315.081	19.234	1144.514	870.842
316.095	19.205	1143.962	870.194
317.110	19.290	1142.877	869.723
318.125	19.149	1142.494	868.641
319.139	19.193	1142.092	868.482
320.154	19.169	1141.290	867.675
321.168	19.189	1140.572	867.153
322.183	19.204	1139.925	866.660
323.197	19.268	1139.451	866.545
324.212	19.167	1138.825	865.486
325.227	19.337	1138.313	865.872
326.241	19.276	1137.554	864.915
327.256	19.294	1136.419	864.063
328.270	19.269	1135.486	863.152
329.285	19.345	1134.347	862.588
330.300	19.392	1133.057	861.768
331.314	19.420	1132.526	861.426
332.329	19.400	1131.595	860.543
333.343	19.478	1130.523	860.040
334.358	19.568	1129.759	859.832
335.373	19.538	1129.282	859.244
336.387	19.583	1128.273	858.622
337.402	19.473	1128.154	857.912
338.416	19.525	1127.537	857.622
339.431	19.636	1126.847	857.574
340.446	19.788	1126.129	857.706
341.460	19.803	1125.287	857.063
342.475	19.904	1124.345	856.771
343.489	19.842	1123.714	855.906
344.504	19.938	1122.803	855.611
345.519	19.947	1121.700	854.741
346.533	19.990	1121.030	854.364
347.548	20.069	1120.081	853.958
348.562	19.988	1119.159	852.779
349.577	19.936	1118.426	851.887
350.592	19.848	1117.722	850.841
351.606	19.698	1116.809	849.335
352.621	19.679	1116.476	848.915
353.635	19.631	1115.605	847.943
354.650	19.727	1114.818	847.742
355.665	19.790	1113.921	847.292
356.679	19.867	1113.379	847.180
357.694	19.814	1113.112	846.641
358.708	19.873	1112.489	846.384
359.723	19.826	1112.091	845.774
360.738	19.919	1111.212	845.489
361.752	19.920	1110.607	844.955
362.767	19.930	1109.992	844.461
363.781	19.942	1109.411	844.002
364.796	19.972	1109.285	843.981
365.810	20.059	1108.468	843.706
366.825	20.188	1107.661	843.646
367.840	20.305	1107.169	843.767
368.854	20.301	1106.795	843.388
369.869	20.262	1105.836	842.390
370.883	20.295	1104.891	841.756
371.898	20.215	1103.941	840.572
372.913	20.179	1103.120	839.699
373.927	20.291	1102.880	839.981
374.942	20.374	1102.244	839.825
375.956	20.486	1101.308	839.579
376.971	20.341	1100.909	838.499
377.986	20.454	1100.539	838.689
379.000	20.479	1100.170	838.457
380.015	20.371	1099.950	837.692
381.029	20.490	1099.317	837.708
382.044	20.472	1098.251	836.735
383.059	20.499	1097.276	836.051
384.073	20.547	1096.438	835.570
385.088	20.468	1095.572	834.456
386.102	20.577	1094.501	834.088
387.117	20.529	1093.605	833.099
388.132	20.448	1092.587	831.865
389.146	20.355	1091.882	830.809
390.161	20.385	1091.161	830.331
391.175	20.426	1090.223	829.739
392.190	20.401	1089.798	829.222
393.205	20.534	1089.185	829.318
394.219	20.572	1088.151	828.638
395.234	20.563	1086.797	827.493
396.248	20.409	1086.316	826.319
397.263	20.494	1085.324	825.893
398.278	20.321	1084.595	824.445
399.292	20.448	1083.805	824.375
400.307	20.340	1082.898	823.098
401.321	20.382	1082.167	822.671
402.336	20.360	1081.483	821.971
403.350	20.420	1080.556	821.481
404.365	20.368	1080.550	821.158
405.380	20.478	1079.620	820.897
406.394	20.581	1078.726	820.631
407.409	20.562	1077.950	819.879
408.423	20.647	1077.744	820.051
409.438	20.740	1076.850	819.734
410.453	20.778	1076.111	819.277
411.467	20.851	1075.333	818.958
412.482	20.913	1074.468	818.519
413.496	20.971	1073.720	818.149
414.511	20.922	1073.462	817.649
415.526	20.892	1073.288	817.304
416.540	21.064	1072.576	817.494
417.555	21.121	1071.715	817.033
418.569	20.941	1071.353	815.841
419.584	20.992	1070.823	815.605
420.599	20.949	1070.607	815.167
421.613	148.703	1400.891	1777.841
422.628	136.992	1448.982	1777.974
