DTS Sentinel unit serial number:	SN413079Multiplexer serial number:	ORYXHardware model number:	OX4-SRSoftware version number:	ORYX F/W v4.00 Oryx Data Collector v3.7.2.0data status	okinstallation	princeton_trtdifferential loss correction	single-endedforward channel	channel 2reverse channel	N/Adate	2019/09/17time	04:43:34forward acquisition time	60.00reverse acquisition time	0.00gamma	496.2192k internal	0.2328k external	0.2328temperature offset calibration	0.9977default loss term (dB/km)	0.3790temperature slope calibration	1.0000multiplexer offset coefficient	1.0000multiplexer slope coefficient	1.0000fibre end	0.00T internal ref (°C)	29.62T ext. ref 1 (°C)	0.13T ext. ref 2 (°C)	24.04length (m)	temperature (°C)	Stokes	anti-Stokes-747.200	-117.857	-0.239	0.043
-746.185	276.096	-0.186	-0.333
-745.171	637.008	-0.059	-0.151
-744.156	800.000	-0.025	-0.079
-743.142	329.817	-0.153	0.298
-742.127	347.389	0.046	0.091
-741.112	617.371	0.052	0.130
-740.098	-200.000	-0.007	0.083
-739.083	-114.290	0.169	0.033
-738.069	94.838	-0.224	0.257
-737.054	-200.000	0.368	-0.001
-736.039	36.188	-0.165	0.147
-735.025	23.471	0.117	0.097
-734.010	-200.000	0.041	-0.194
-732.996	-19.151	-0.235	0.147
-731.981	133.340	0.078	-0.102
-730.966	-120.802	0.251	-0.043
-729.952	-109.218	-0.097	-0.021
-728.937	-62.255	-0.174	-0.073
-727.923	631.211	0.120	-0.306
-726.908	-100.709	-0.207	0.052
-725.894	302.044	0.108	-0.200
-724.879	-8.128	-0.242	-0.164
-723.864	31.844	-0.032	-0.027
-722.850	-200.000	-0.005	0.076
-721.835	-126.653	0.164	-0.025
-720.821	256.430	0.135	-0.233
-719.806	-11.978	-0.278	-0.184
-718.791	-200.000	0.002	0.077
-717.777	-9.198	0.149	0.100
-716.762	-89.984	-0.178	0.052
-715.748	6.449	-0.150	0.112
-714.733	289.120	0.141	0.257
-713.718	-200.000	0.014	-0.363
-712.704	-50.812	-0.410	0.194
-711.689	-52.251	-0.365	-0.170
-710.675	-95.562	-0.170	0.046
-709.660	570.426	-0.054	0.131
-708.645	124.196	-0.146	0.185
-707.631	-76.386	-0.195	0.069
-706.616	231.569	0.047	-0.078
-705.602	-4.236	0.134	-0.093
-704.587	32.372	0.213	-0.185
-703.572	-121.689	0.119	-0.020
-702.558	-65.299	0.106	0.043
-701.543	-159.645	0.031	0.002
-700.529	-200.000	0.062	0.429
-699.514	-48.837	-0.098	-0.047
-698.499	800.000	-0.058	-0.230
-697.485	-145.413	0.158	0.014
-696.470	383.956	0.122	0.253
-695.456	35.529	-0.177	-0.156
-694.441	-58.725	0.220	0.096
-693.426	800.000	-0.055	0.172
-692.412	-34.879	0.195	-0.107
-691.397	-44.449	0.295	0.148
-690.383	113.046	0.111	0.135
-689.368	-99.217	-0.157	0.040
-688.354	14.451	0.077	0.061
-687.339	87.419	-0.080	-0.089
-686.324	-63.346	0.167	-0.069
-685.310	48.886	-0.201	-0.190
-684.295	-187.374	0.135	0.002
-683.281	672.336	-0.089	0.233
-682.266	800.000	-0.023	0.101
-681.251	-160.937	0.371	-0.020
-680.237	800.000	0.117	-0.392
-679.222	-13.845	0.307	0.200
-678.208	-200.000	-0.016	0.097
-677.193	680.918	-0.022	-0.057
-676.178	-112.920	-0.305	-0.061
-675.164	-200.000	0.001	0.243
-674.149	128.897	0.216	-0.276
-673.135	103.213	-0.422	-0.497
-672.120	51.852	-0.188	-0.179
-671.105	-115.997	-0.393	0.074
-670.091	7.001	-0.112	0.084
-669.076	65.088	-0.083	-0.085
-668.062	-200.000	0.029	0.205
-667.047	10.739	-0.203	0.156
-666.032	800.000	-0.033	-0.118
-665.018	-108.499	-0.210	-0.045
-664.003	76.539	-0.072	0.077
-662.989	-200.000	-0.007	-0.292
-661.974	411.892	-0.108	-0.231
-660.959	-186.187	0.067	0.001
-659.945	68.293	0.299	-0.308
-658.930	800.000	-0.018	-0.052
-657.916	800.000	0.063	-0.214
-656.901	-200.000	0.015	0.225
-655.886	-74.442	-0.067	-0.024
-654.872	-56.707	-0.278	0.124
-653.857	-120.709	-0.427	0.073
-652.843	800.000	0.032	-0.129
-651.828	-62.171	-0.333	-0.140
-650.814	117.025	0.141	0.174
-649.799	36.905	-0.048	0.043
-648.784	-53.781	0.269	0.123
-647.770	-23.994	0.052	-0.031
-646.755	800.000	0.035	-0.124
-645.741	-188.241	-0.264	-0.003
-644.726	334.872	0.056	-0.109
-643.711	-200.000	-0.006	-0.294
-642.697	800.000	0.054	-0.195
-641.682	-42.500	-0.369	-0.189
-640.668	-151.505	0.139	0.010
-639.653	-18.816	-0.070	-0.044
-638.638	216.723	0.159	0.254
-637.624	-14.127	0.317	-0.205
-636.609	-7.801	-0.299	-0.203
-635.595	651.101	-0.075	-0.192
-634.580	-131.354	0.228	0.030
-633.565	-104.477	0.243	0.056
-632.551	194.530	0.087	-0.132
-631.536	-78.602	0.238	-0.082
-630.522	11.982	0.153	-0.118
-629.507	-200.000	-0.013	0.274
-628.492	-127.630	0.168	0.024
-627.478	-200.000	0.003	-0.126
-626.463	-113.095	0.293	0.058
-625.449	-56.244	-0.252	-0.113
-624.434	-200.000	0.026	-0.188
-623.419	105.107	-0.271	-0.321
-622.405	65.658	-0.296	0.300
-621.390	545.761	-0.059	0.142
-620.376	-157.690	0.371	0.022
-619.361	24.338	0.185	0.153
-618.346	-150.376	-0.333	0.026
-617.332	66.922	-0.042	-0.043
-616.317	64.683	-0.060	-0.060
-615.303	236.088	-0.189	0.314
-614.288	489.748	-0.121	0.278
-613.273	-200.000	-0.005	0.509
-612.259	41.858	0.209	-0.190
-611.244	64.908	-0.097	-0.098
-610.230	800.000	-0.099	-0.280
-609.215	105.968	-0.226	-0.268
-608.201	-71.789	0.275	-0.103
-607.186	362.229	-0.011	0.023
-606.171	-89.681	0.319	-0.094
-605.157	66.692	0.153	-0.156
-604.142	68.117	-0.204	0.209
-603.128	23.991	0.133	0.110
-602.113	-120.887	-0.032	0.005
-601.098	208.014	-0.036	0.056
-600.084	61.139	-0.099	0.098
-599.069	800.000	-0.144	0.440
-598.055	269.845	0.230	0.405
-597.040	-132.240	-0.268	0.035
-596.025	800.000	-0.107	-0.418
-595.011	-43.326	-0.383	-0.194
-593.996	-200.000	0.046	0.384
-592.982	-66.705	-0.193	0.076
-591.967	800.000	-0.080	-0.286
-590.952	132.532	-0.076	0.098
-589.938	-115.278	0.123	0.023
-588.923	-70.097	-0.245	-0.093
-587.909	95.812	0.106	-0.121
-586.894	-8.773	0.150	0.101
-585.879	800.000	0.038	-0.153
-584.865	97.382	0.106	-0.122
-583.850	356.799	-0.047	-0.094
-582.836	123.506	-0.077	-0.097
-581.821	-49.460	-0.208	0.099
-580.806	-132.287	-0.147	-0.019
-579.792	-200.000	0.022	0.261
-578.777	-50.884	0.088	-0.041
-577.763	207.108	-0.126	0.196
-576.748	-27.221	-0.076	0.044
-575.733	-52.175	0.197	-0.091
-574.719	-3.180	-0.223	-0.156
-573.704	800.000	0.070	-0.290
-572.690	311.105	0.150	0.281
-571.675	-85.592	0.096	-0.030
-570.661	-75.399	0.127	-0.045
-569.646	422.803	-0.073	0.157
-568.631	-94.658	-0.137	0.037
-567.617	800.000	-0.139	0.403
-566.602	123.276	-0.112	0.140
-565.588	-200.000	-0.052	0.000
-564.573	800.000	-0.087	0.263
-563.558	-200.000	-0.015	0.102
-562.544	544.886	0.012	-0.029
-561.529	-157.289	0.288	0.017
-560.515	-26.355	-0.248	-0.146
-559.500	800.000	-0.042	0.175
-558.485	-200.000	0.017	-0.095
-557.471	-200.000	0.034	-0.412
-556.456	-14.645	-0.086	-0.055
-555.442	90.838	0.187	-0.210
-554.427	-198.506	0.175	-0.001
-553.412	-107.122	-0.063	-0.014
-552.398	800.000	-0.065	-0.252
-551.383	800.000	0.076	0.285
-550.369	-200.000	-0.099	-0.450
-549.354	-48.502	-0.249	-0.120
-548.339	-200.000	0.054	0.380
-547.325	-200.000	0.004	0.188
-546.310	-200.000	-0.009	0.258
-545.296	-15.453	0.242	0.155
-544.281	-29.522	0.165	-0.094
-543.266	-58.412	-0.216	0.094
-542.252	-78.115	-0.168	-0.058
-541.237	-200.000	-0.013	-0.502
-540.223	561.848	-0.096	-0.232
-539.208	-200.000	0.037	-0.175
-538.193	-200.000	-0.107	-0.000
-537.179	194.680	-0.011	-0.016
-536.164	-200.000	-0.031	-0.258
-535.150	-55.566	0.174	0.078
-534.135	162.853	-0.094	-0.132
-533.121	217.506	0.224	0.357
-532.106	-43.672	-0.230	0.116
-531.091	-112.003	-0.193	0.039
-530.077	-182.326	0.445	-0.008
-529.062	-200.000	-0.050	-0.292
-528.048	-200.000	-0.047	-0.380
-527.033	-62.255	0.150	-0.062
-526.018	131.011	0.105	-0.135
-525.004	150.327	0.125	0.169
-523.989	118.098	0.204	-0.251
-522.975	800.000	-0.089	0.305
-521.960	-128.594	-0.226	0.032
-520.945	309.845	-0.210	0.393
-519.931	-200.000	0.041	0.267
-518.916	-200.000	0.031	0.244
-517.902	-62.708	-0.135	-0.056
-516.887	112.864	-0.169	-0.205
-515.872	-200.000	-0.008	0.154
-514.858	106.956	-0.064	0.076
-513.843	-147.212	0.212	-0.018
-512.829	-200.000	-0.019	-0.131
-511.814	252.967	-0.107	-0.182
-510.799	32.012	0.139	0.120
-509.785	-200.000	0.039	0.172
-508.770	-200.000	0.055	0.371
-507.756	74.935	-0.345	-0.362
-506.741	308.035	0.134	-0.249
-505.726	-136.883	0.289	0.033
-504.712	-102.603	-0.232	0.055
-503.697	291.199	-0.074	-0.134
-502.683	-200.000	0.065	0.359
-501.668	-1.349	0.303	0.214
-500.653	-81.405	-0.050	-0.017
-499.639	-5.581	-0.065	-0.045
-498.624	43.649	-0.158	-0.144
-497.610	-18.282	0.166	0.103
-496.595	99.998	0.007	-0.008
-495.581	49.467	0.121	-0.114
-494.566	76.438	-0.110	-0.116
-493.551	-9.762	-0.078	-0.052
-492.537	800.000	-0.061	0.224
-491.522	-81.147	0.303	0.100
-490.508	-200.000	-0.041	-0.336
-489.493	800.000	0.037	-0.145
-488.478	30.963	0.238	0.204
-487.464	255.534	-0.063	-0.108
-486.449	-69.423	-0.090	0.034
-485.435	80.053	-0.218	-0.234
-484.420	-200.000	0.008	-0.319
-483.405	-200.000	0.073	0.380
-482.391	313.475	-0.053	0.099
-481.376	755.196	0.102	0.275
-480.362	800.000	-0.100	-0.298
-479.347	32.311	0.051	-0.044
-478.332	-50.088	-0.118	-0.056
-477.318	36.757	-0.249	0.219
-476.303	368.114	-0.074	-0.149
-475.289	300.262	0.030	-0.056
-474.274	496.922	0.113	0.260
-473.259	-134.477	-0.358	-0.044
-472.245	62.382	0.156	0.155
-471.230	800.000	0.023	-0.070
-470.216	800.000	-0.015	-0.051
-469.201	143.655	0.295	0.392
-468.186	464.696	-0.231	-0.515
-467.172	-100.870	0.133	-0.033
-466.157	-200.000	-0.018	0.225
-465.143	-200.000	0.019	0.410
-464.128	-3.880	0.108	0.074
-463.113	183.385	-0.095	0.139
-462.099	800.000	0.180	0.495
-461.084	-40.956	-0.003	-0.002
-460.070	-111.645	-0.189	0.038
-459.055	-200.000	0.231	-0.000
-458.040	-40.961	0.107	0.055
-457.026	101.086	0.137	-0.159
-456.011	-30.295	0.297	-0.168
-454.997	9.611	-0.102	-0.077
-453.982	800.000	-0.088	-0.253
-452.968	14.300	-0.254	0.197
-451.953	-98.714	0.149	-0.038
-450.938	32.055	0.079	0.068
-449.924	363.028	0.036	0.073
-448.909	-46.604	-0.198	0.097
-447.895	124.763	0.086	-0.108
-446.880	-95.664	-0.234	0.062
-445.865	-91.824	-0.042	-0.012
-444.851	597.190	-0.102	-0.251
-443.836	800.000	0.047	-0.195
-442.822	-127.610	0.281	-0.041
-441.807	-70.215	0.353	0.134
-440.792	556.830	-0.016	0.037
-439.778	-160.970	-0.469	-0.025
-438.763	-160.393	0.210	-0.011
-437.749	35.853	-0.302	0.265
-436.734	800.000	-0.035	0.149
-435.719	-133.686	-0.328	0.041
-434.705	351.047	0.094	-0.184
-433.690	36.225	-0.226	0.199
-432.676	-56.844	0.097	0.043
-431.661	215.580	-0.207	-0.327
-430.646	-123.976	0.280	-0.044
-429.632	800.000	-0.100	-0.392
-428.617	15.699	-0.137	-0.107
-427.603	188.881	-0.188	0.280
-426.588	153.228	0.029	-0.040
-425.573	126.822	0.147	0.186
-424.559	-37.830	0.180	0.095
-423.544	-8.596	-0.096	0.064
-422.530	-130.322	-0.089	0.012
-421.515	126.639	-0.128	-0.161
-420.500	-15.692	-0.185	-0.117
-419.486	64.663	0.344	-0.345
-418.471	-74.029	0.194	0.070
-417.457	296.600	-0.045	-0.082
-416.442	265.493	0.038	-0.066
-415.428	152.494	0.060	-0.081
-414.413	184.473	-0.024	0.036
-413.398	0.098	0.041	-0.029
-412.384	-119.480	0.454	0.078
-411.369	-136.767	0.130	-0.015
-410.355	-200.000	-0.021	-0.242
-409.340	618.496	0.106	0.266
-408.325	-200.000	0.055	-0.302
-407.311	187.800	-0.227	-0.337
-406.296	-150.871	0.171	-0.013
-405.282	-186.653	-0.511	-0.007
-404.267	-200.000	-0.042	-0.263
-403.252	-149.913	-0.253	-0.020
-402.238	331.243	-0.039	-0.074
-401.223	-200.000	0.022	0.138
-400.209	800.000	0.040	-0.156
-399.194	-58.985	-0.192	0.082
-398.179	617.051	0.072	-0.179
-397.165	4.138	0.154	-0.112
-396.150	-123.834	-0.214	0.034
-395.136	-200.000	-0.000	-0.220
-394.121	-20.941	0.148	0.090
-393.106	768.089	-0.064	-0.172
-392.092	154.559	-0.221	0.302
-391.077	230.834	-0.109	0.177
-390.063	49.776	0.145	0.136
-389.048	-200.000	-0.004	0.044
-388.033	-200.000	0.075	-0.486
-387.019	-125.014	-0.154	0.024
-386.004	-88.004	0.324	0.097
-384.990	-200.000	-0.011	-0.169
-383.975	-200.000	0.023	0.193
-382.960	65.650	-0.156	0.157
-381.946	-200.000	-0.014	0.104
-380.931	-21.747	0.139	-0.084
-379.917	800.000	-0.067	0.256
-378.902	800.000	-0.050	0.184
-377.888	33.655	-0.126	0.108
-376.873	291.482	-0.180	-0.325
-375.858	-200.000	0.051	-0.325
-374.844	3.092	0.052	-0.037
-373.829	114.934	0.103	-0.125
-372.815	24.000	-0.264	-0.216
-371.800	100.663	-0.118	-0.136
-370.785	210.201	-0.106	-0.166
-369.771	535.584	0.094	-0.222
-368.756	-33.828	-0.027	0.015
-367.742	-128.144	0.192	-0.027
-366.727	30.752	0.129	-0.110
-365.712	38.541	0.210	-0.186
-364.698	-110.285	0.203	0.042
-363.683	389.240	-0.081	0.166
-362.669	800.000	0.123	-0.395
-361.654	128.021	0.221	0.279
-360.639	-200.000	-0.002	-0.123
-359.625	-4.374	0.153	-0.105
-358.610	72.344	0.062	0.064
-357.596	-68.091	0.270	-0.104
-356.581	286.267	0.029	-0.052
-355.566	-166.993	-0.233	-0.009
-354.552	10.132	-0.107	0.081
-353.537	247.517	-0.100	0.168
-352.523	-200.000	0.027	-0.188
-351.508	-10.705	0.094	-0.062
-350.493	-57.465	0.295	0.129
-349.479	38.455	0.227	0.201
-348.464	-64.609	0.088	-0.035
-347.450	12.359	0.282	0.216
-346.435	-44.063	-0.029	0.014
-345.420	-6.236	0.229	-0.155
-344.406	-173.046	-0.356	-0.011
-343.391	175.640	0.033	-0.048
-342.377	90.545	0.217	0.242
-341.362	-200.000	-0.040	-0.552
-340.348	-6.374	0.194	-0.131
-339.333	-130.623	-0.140	0.019
-338.318	-154.872	-0.183	0.012
-337.304	800.000	-0.111	-0.307
-336.289	-141.374	0.334	-0.034
-335.275	-137.791	-0.323	0.036
-334.260	-200.000	-0.015	0.247
-333.245	-200.000	-0.015	0.143
-332.231	100.727	-0.052	0.060
-331.216	-95.319	-0.162	0.043
-330.202	-1.256	0.203	0.142
-329.187	19.215	0.248	0.198
-328.172	-132.366	0.478	-0.061
-327.158	-200.000	0.051	-0.378
-326.143	-200.000	0.022	-0.122
-325.129	234.206	-0.096	0.157
-324.114	800.000	0.083	-0.258
-323.099	81.008	-0.144	-0.154
-322.085	800.000	0.038	0.114
-321.070	201.003	0.111	-0.169
-320.056	800.000	0.037	-0.111
-319.041	77.408	0.180	0.190
-318.026	33.571	0.307	0.265
-317.012	800.000	-0.116	-0.373
-315.997	43.645	-0.094	0.085
-314.983	388.162	-0.039	-0.080
-313.968	238.162	0.264	-0.434
-312.953	-200.000	-0.034	-0.288
-311.939	733.319	0.075	0.199
-310.924	487.287	0.133	-0.300
-309.910	-45.077	-0.062	-0.031
-308.895	-79.596	-0.215	-0.072
-307.880	256.245	-0.052	0.089
-306.866	-145.420	-0.383	0.034
-305.851	-200.000	-0.018	-0.455
-304.837	396.188	0.039	-0.082
-303.822	-200.000	0.008	0.042
-302.807	-81.435	0.118	-0.039
-301.793	-200.000	-0.324	-0.000
-300.778	150.194	0.166	-0.223
-299.764	-50.190	0.268	0.125
-298.749	90.175	-0.122	-0.135
-297.735	92.118	0.124	-0.138
-296.720	-200.000	-0.021	-0.111
-295.705	-200.000	0.004	0.247
-294.691	-94.396	-0.192	-0.052
-293.676	545.850	-0.157	0.371
-292.662	64.244	0.229	0.228
-291.647	248.597	-0.096	-0.161
-290.632	19.571	-0.291	-0.232
-289.618	227.789	-0.110	-0.177
-288.603	-200.000	0.020	-0.113
-287.589	307.415	0.103	-0.191
-286.574	-200.000	-0.002	-0.021
-285.559	-5.708	0.208	-0.141
-284.545	75.079	0.184	-0.192
-283.530	800.000	0.057	0.158
-282.516	800.000	0.018	0.074
-281.501	-200.000	0.043	-0.208
-280.486	-92.210	-0.399	-0.111
-279.472	86.095	0.175	0.190
-278.457	800.000	0.054	0.174
-277.443	80.969	-0.133	0.142
-276.428	-70.831	-0.325	-0.121
-275.413	-48.145	-0.067	-0.032
-274.399	800.000	-0.099	0.331
-273.384	-200.000	0.038	-0.332
-272.370	-86.173	0.348	-0.106
-271.355	22.256	-0.234	0.189
-270.340	-35.290	-0.248	0.134
-269.326	-121.550	-0.284	0.047
-268.311	-200.000	0.039	0.333
-267.297	234.319	0.099	0.161
-266.282	-200.000	-0.053	-0.242
-265.267	800.000	-0.035	0.124
-264.253	-119.949	0.061	-0.010
-263.238	18.674	-0.086	-0.068
-262.224	-200.000	-0.014	0.148
-261.209	276.380	-0.091	-0.161
-260.195	-79.670	-0.206	0.069
-259.180	800.000	-0.069	0.261
-258.165	-20.581	0.151	-0.091
-257.151	622.408	0.105	-0.260
-256.136	800.000	0.058	0.169
-255.122	-57.606	-0.270	-0.117
-254.107	493.816	0.093	0.210
-253.092	-119.984	0.257	0.044
-252.078	214.668	-0.016	-0.025
-251.063	-6.857	0.055	-0.037
-250.049	12.992	-0.184	-0.141
-249.034	89.277	-0.112	-0.123
-248.019	624.280	0.050	0.125
-247.005	269.398	0.035	0.060
-245.990	-200.000	-0.063	-0.447
-244.976	-55.081	-0.225	-0.100
-243.961	-7.969	0.180	-0.120
-242.946	241.981	0.115	0.190
-241.932	-19.281	0.049	0.030
-240.917	22.237	-0.206	-0.166
-239.903	313.870	0.003	0.006
-238.888	573.220	-0.017	-0.042
-237.873	271.444	-0.202	0.352
-236.859	590.667	-0.132	-0.321
-235.844	33.206	0.203	0.174
-234.830	164.373	0.111	0.155
-233.815	-122.993	0.283	-0.045
-232.800	82.371	0.065	0.069
-231.786	-41.100	0.143	0.073
-230.771	-119.383	0.198	0.034
-229.757	64.932	0.164	0.163
-228.742	-87.674	-0.136	0.041
-227.727	800.000	-0.131	0.531
-226.713	-33.923	-0.289	0.157
-225.698	-200.000	-0.022	0.286
-224.684	234.242	0.148	0.241
-223.669	-34.888	-0.106	0.057
-222.655	-11.652	0.218	0.142
-221.640	7.131	-0.051	-0.037
-220.625	290.363	-0.038	0.068
-219.611	64.503	0.060	0.059
-218.596	-200.000	0.067	-0.366
-217.582	-200.000	0.001	-0.149
-216.567	600.708	0.044	0.107
-215.552	-44.526	-0.131	-0.065
-214.538	-6.911	0.320	0.215
-213.523	86.722	-0.115	-0.125
-212.509	-158.445	-0.247	-0.014
-211.494	154.483	0.169	0.229
-210.479	-88.808	0.179	0.053
-209.465	-27.845	0.184	0.105
-208.450	410.545	-0.091	-0.190
-207.436	-67.775	-0.408	0.157
-206.421	-60.158	-0.129	0.054
-205.406	-111.296	0.273	0.055
-204.392	-200.000	-0.016	0.113
-203.377	-10.118	-0.270	0.177
-202.363	-200.000	0.023	0.247
-201.348	530.353	-0.092	0.214
-200.333	-97.334	-0.225	-0.058
-199.319	-200.000	-0.025	-0.193
-198.304	100.297	0.180	0.206
-197.290	-161.955	0.395	-0.020
-196.275	28.908	-0.049	0.041
-195.260	-8.603	-0.187	0.124
-194.246	-30.347	0.393	-0.220
-193.231	-200.000	0.008	0.162
-192.217	-19.201	-0.035	-0.021
-191.202	-150.387	0.287	-0.022
-190.187	-200.000	-0.060	0.309
-189.173	-82.206	-0.053	0.017
-188.158	-75.462	0.146	0.051
-187.144	-81.199	-0.245	0.080
-186.129	-164.111	-0.090	0.004
-185.114	-56.677	-0.262	-0.114
-184.100	-200.000	0.015	0.316
-183.085	-14.694	0.111	0.070
-182.071	800.000	0.081	0.310
-181.056	-200.000	0.039	0.391
-180.042	-200.000	0.013	0.126
-179.027	189.680	-0.176	0.261
-178.012	200.990	-0.131	-0.199
-176.998	-36.641	0.179	-0.095
-175.983	176.717	0.097	-0.139
-174.969	-200.000	-0.065	0.384
-173.954	138.732	-0.149	0.193
-172.939	294.858	-0.129	0.233
-171.925	-80.715	-0.131	0.043
-170.910	-38.587	0.245	-0.128
-169.896	800.000	-0.101	-0.365
-168.881	279.310	0.079	0.140
-167.866	-102.710	-0.284	-0.067
-166.852	208.185	0.131	-0.202
-165.837	122.171	-0.080	-0.099
-164.823	485.743	-0.059	0.132
-163.808	-116.605	-0.346	0.063
-162.793	84.157	0.224	-0.241
-161.779	-184.607	0.239	0.004
-160.764	224.077	0.187	0.298
-159.750	674.710	-0.054	0.137
-158.735	-200.000	-0.014	0.286
-157.720	-200.000	-0.022	0.150
-156.706	-9.550	0.103	-0.068
-155.691	-137.431	0.195	0.022
-154.677	800.000	-0.037	-0.118
-153.662	-200.000	0.022	0.400
-152.647	800.000	0.065	0.241
-151.633	258.467	-0.300	-0.509
-150.618	-200.000	-0.251	0.001
-149.604	57.691	0.476	0.458
-148.589	0.918	0.138	-0.097
-147.574	734.887	-0.181	-0.477
-146.560	-200.000	-0.063	0.000
-145.545	-200.000	-0.007	-0.211
-144.531	-97.254	0.052	-0.013
-143.516	14.468	0.036	0.028
-142.502	800.000	0.156	-0.439
-141.487	-128.311	-0.184	0.026
-140.472	-200.000	0.024	0.291
-139.458	11.028	0.084	-0.063
-138.443	-200.000	0.005	0.247
-137.429	60.508	-0.241	-0.235
-136.414	29.477	0.065	-0.054
-135.399	-123.199	0.187	-0.029
-134.385	58.614	0.292	-0.282
-133.370	-200.000	0.012	-0.347
-132.356	0.940	-0.119	-0.084
-131.341	-78.908	0.247	0.083
-130.326	25.992	-0.481	0.395
-129.312	142.118	-0.306	0.399
-128.297	704.201	0.086	0.222
-127.283	-68.119	-0.103	-0.040
-126.268	109.216	-0.207	-0.244
-125.253	-78.256	-0.234	-0.079
-124.239	-189.152	-0.224	-0.003
-123.224	-41.717	-0.074	-0.038
-122.210	-40.455	0.043	0.022
-121.195	-117.372	0.259	0.046
-120.180	-200.000	-0.002	-0.140
-119.166	-130.943	0.181	0.024
-118.151	781.641	0.023	-0.062
-117.137	-147.381	-0.357	-0.030
-116.122	800.000	-0.108	0.366
-115.107	-14.237	0.231	0.146
-114.093	-200.000	0.050	0.227
-113.078	266.016	0.100	0.171
-112.064	-0.191	-0.129	0.090
-111.049	-200.000	0.064	-0.389
-110.034	800.000	-0.027	-0.104
-109.020	-119.966	0.143	-0.024
-108.005	-142.961	0.123	-0.012
-106.991	203.044	0.057	0.086
-105.976	-200.000	-0.070	-0.480
-104.962	116.565	-0.114	-0.138
-103.947	20.529	-0.089	-0.071
-102.932	-152.200	-0.318	0.023
-101.918	800.000	0.142	-0.390
-100.903	800.000	0.144	0.490
-99.889	-40.574	0.093	0.047
-98.874	-200.000	-0.196	0.000
-97.859	132.392	0.133	-0.169
-96.845	-103.466	0.243	-0.056
-95.830	-129.524	-0.249	-0.034
-94.816	344.957	-0.142	-0.275
-93.801	25.093	-0.360	-0.293
-92.786	800.000	0.003	-0.009
-91.772	-89.175	0.274	0.079
-90.757	9.419	-0.258	-0.192
-89.743	-200.000	0.000	0.006
-88.728	580.479	-0.059	-0.142
-87.713	-182.084	0.347	0.006
-86.699	275.427	-0.117	-0.204
-85.684	-50.721	-0.412	-0.190
-84.670	0.768	0.273	0.192
-83.655	179.609	-0.113	0.163
-82.640	-171.770	0.201	0.006
-81.626	395.466	-0.049	0.100
-80.611	718.174	-0.027	-0.069
-79.597	-146.329	0.118	0.010
-78.582	-129.616	0.313	-0.042
-77.567	-200.000	0.030	-0.172
-76.553	273.465	-0.093	0.161
-75.538	262.174	-0.177	0.302
-74.524	-134.644	-0.190	-0.023
-73.509	-200.000	-0.015	0.214
-72.494	-83.228	-0.335	-0.106
-71.480	352.665	-0.127	0.248
-70.465	215.483	0.102	0.159
-69.451	28.182	0.111	-0.092
-68.436	800.000	0.032	0.090
-67.422	800.000	0.067	0.213
-66.407	-118.284	0.129	-0.023
-65.392	-140.043	0.165	0.017
-64.378	150.848	-0.167	0.223
-63.363	-79.944	0.178	0.059
-62.349	-13.738	0.254	0.161
-61.334	34.532	-1.340	-1.148
-60.319	293.070	0.375	0.671
-59.305	-200.000	0.023	-1.237
-58.290	276.565	0.693	1.208
-57.276	483.063	0.739	1.647
-56.261	-200.000	108.103	591.005
-55.246	447.306	1482.390	3199.847
-54.232	145.586	2676.735	3517.396
-53.217	99.633	2294.227	2604.912
-52.203	38.609	1904.549	1666.386
-51.188	32.905	1692.638	1437.623
-50.173	30.135	1649.844	1380.624
-49.159	48.989	1703.169	1568.417
-48.144	49.386	1718.057	1585.069
-47.130	32.450	1675.831	1419.694
-46.115	29.792	1661.499	1387.589
-45.100	29.581	1656.832	1382.057
-44.086	29.532	1654.213	1379.452
-43.071	29.490	1651.040	1376.437
-42.057	29.334	1649.464	1373.906
-41.042	29.514	1646.738	1372.920
-40.027	29.499	1645.075	1371.367
-39.013	29.452	1642.873	1369.126
-37.998	29.492	1641.706	1368.395
-36.984	29.467	1640.555	1367.198
-35.969	29.658	1638.637	1366.957
-34.954	29.689	1636.842	1365.636
-33.940	29.691	1635.448	1364.435
-32.925	29.676	1633.557	1362.689
-31.911	29.707	1631.535	1361.177
-30.896	29.634	1629.728	1359.081
-29.881	29.667	1628.266	1358.051
-28.867	29.527	1627.131	1356.021
-27.852	29.579	1625.782	1355.223
-26.838	29.602	1624.061	1353.904
-25.823	29.624	1622.715	1352.890
-24.809	29.647	1621.566	1352.050
-23.794	29.638	1619.924	1350.561
-22.779	29.655	1618.320	1349.290
-21.765	29.619	1616.907	1347.799
-20.750	29.584	1615.043	1345.935
-19.736	29.615	1613.913	1345.169
-18.721	29.592	1612.963	1344.153
-17.706	29.640	1610.843	1342.679
-16.692	29.692	1609.459	1341.850
-15.677	29.688	1607.913	1340.481
-14.663	29.722	1606.386	1339.401
-13.648	29.642	1604.947	1337.566
-12.633	29.714	1603.462	1336.802
-11.619	29.683	1602.172	1335.448
-10.604	29.613	1601.145	1334.030
-9.590	29.760	1599.351	1333.544
-8.575	29.742	1598.197	1332.404
-7.560	29.629	1597.295	1330.779
-6.546	29.556	1596.651	1329.667
-5.531	29.605	1595.174	1328.735
-4.517	29.605	1593.767	1327.511
-3.502	29.614	1592.731	1326.661
-2.487	29.823	1590.233	1326.024
-1.473	29.414	1578.648	1313.399
-0.458	26.479	1559.411	1276.668
0.556	21.105	1560.259	1244.061
1.571	18.840	1582.969	1245.652
2.586	18.378	1596.119	1252.510
3.600	16.957	1543.756	1201.260
4.615	9.470	1434.108	1066.406
5.629	1.836	1369.323	969.700
6.644	0.273	1361.353	954.081
7.659	0.125	1360.202	952.252
8.673	0.101	1358.833	951.061
9.688	0.031	1357.075	949.303
10.702	-0.061	1354.043	946.518
11.717	3.516	1359.955	973.165
12.731	11.935	1373.463	1036.196
13.746	17.289	1379.675	1074.731
14.761	17.265	1378.811	1073.808
15.775	16.250	1375.870	1065.021
16.790	15.161	1373.316	1056.089
17.804	14.530	1370.891	1050.161
18.819	14.090	1369.772	1046.442
19.834	13.888	1367.872	1043.627
20.848	13.642	1367.173	1041.455
21.863	13.302	1365.923	1038.274
22.877	13.170	1364.999	1036.654
23.892	13.138	1363.737	1035.405
24.907	13.069	1363.396	1034.622
25.921	13.069	1362.487	1033.837
26.936	13.210	1361.018	1033.516
27.950	13.246	1359.828	1032.748
28.965	13.288	1359.206	1032.444
29.980	13.474	1357.876	1032.501
30.994	13.396	1357.523	1031.657
32.009	13.348	1356.485	1030.475
33.023	13.402	1355.759	1030.173
34.038	13.396	1354.562	1029.135
35.053	13.246	1353.642	1027.410
36.067	13.399	1351.862	1026.918
37.082	13.263	1351.515	1025.720
38.096	13.324	1350.369	1025.140
39.111	13.417	1349.677	1025.097
40.126	13.244	1349.137	1023.525
41.140	13.240	1348.261	1022.742
42.155	13.162	1347.790	1021.814
43.169	13.184	1347.531	1021.667
44.184	13.142	1347.216	1021.075
45.199	13.161	1346.871	1020.843
46.213	13.167	1346.220	1020.296
47.228	13.315	1344.873	1020.093
48.242	13.275	1344.204	1019.253
49.257	13.308	1342.146	1017.804
50.271	13.288	1341.061	1016.769
51.286	13.268	1339.722	1015.538
52.301	13.265	1338.223	1014.297
53.315	13.187	1337.594	1013.248
54.330	13.253	1336.444	1012.693
55.344	13.242	1335.446	1011.781
56.359	13.239	1333.896	1010.499
57.374	13.130	1333.228	1009.236
58.388	13.159	1332.752	1008.967
59.403	13.136	1332.280	1008.378
60.417	13.177	1330.977	1007.555
61.432	13.074	1330.307	1006.331
62.447	13.041	1329.693	1005.576
63.461	13.127	1328.168	1004.856
64.476	13.046	1327.287	1003.609
65.490	13.120	1325.938	1002.950
66.505	13.025	1325.098	1001.649
67.520	13.066	1323.540	1000.628
68.534	13.236	1322.151	1000.519
69.549	13.117	1321.777	999.428
70.563	13.118	1320.697	998.532
71.578	13.061	1319.441	997.147
72.593	12.964	1318.405	995.689
73.607	12.947	1317.763	995.013
74.622	12.987	1316.954	994.558
75.636	12.976	1315.836	993.556
76.651	13.009	1315.399	993.337
77.666	13.059	1314.556	992.918
78.680	13.127	1314.027	992.834
79.695	13.018	1313.104	991.399
80.709	13.094	1312.560	991.358
81.724	13.123	1312.060	991.062
82.739	13.155	1311.089	990.437
83.753	13.296	1309.716	990.153
84.768	13.269	1309.258	989.559
85.782	13.311	1308.129	988.869
86.797	13.337	1306.225	987.499
87.812	13.220	1305.491	986.155
88.826	13.101	1304.695	984.759
89.841	13.292	1303.177	984.666
90.855	13.268	1302.038	983.575
91.870	13.302	1301.173	983.034
92.884	13.372	1300.593	982.923
93.899	13.287	1300.145	981.996
94.914	13.433	1298.983	981.897
95.928	13.363	1298.238	980.830
96.943	13.428	1296.851	980.081
97.957	13.372	1296.179	979.158
98.972	13.401	1295.351	978.612
99.987	13.349	1294.016	977.215
101.001	13.429	1292.925	976.774
102.016	13.359	1292.199	975.726
103.030	13.344	1291.492	975.019
104.045	13.344	1290.362	974.079
105.060	13.185	1289.671	972.538
106.074	13.248	1287.854	971.449
107.089	13.189	1286.320	969.859
108.103	13.222	1285.098	969.049
109.118	13.112	1283.890	967.404
110.133	13.198	1282.842	967.032
111.147	13.169	1281.492	965.759
112.162	13.342	1280.023	965.578
113.176	13.185	1279.433	964.130
114.191	13.297	1278.284	963.834
115.206	13.190	1277.410	962.466
116.220	13.235	1275.935	961.530
117.235	13.141	1275.326	960.442
118.249	13.216	1274.098	959.866
119.264	13.223	1272.448	958.578
120.279	13.255	1271.439	957.922
121.293	13.215	1270.391	956.813
122.308	13.253	1268.875	955.807
123.322	13.191	1268.700	955.233
124.337	13.071	1267.744	953.735
125.352	13.191	1266.210	953.187
126.366	13.301	1265.010	952.833
127.381	13.212	1264.217	951.640
128.395	13.154	1263.062	950.355
129.410	13.217	1262.087	949.895
130.424	13.210	1261.617	949.419
131.439	13.211	1260.244	948.311
132.454	13.215	1259.603	947.766
133.468	13.206	1258.670	946.928
134.483	13.275	1257.438	946.311
135.497	13.297	1256.728	945.821
136.512	13.273	1255.318	944.537
137.527	13.193	1253.990	942.998
138.541	13.225	1252.779	942.187
139.556	13.225	1251.316	941.004
140.570	13.299	1250.082	940.415
141.585	13.314	1249.001	939.601
142.600	13.245	1248.358	938.640
143.614	13.399	1246.933	938.362
144.629	13.449	1245.542	937.518
145.643	13.450	1244.674	936.786
146.658	13.333	1243.951	935.495
147.673	13.344	1241.965	933.979
148.687	13.311	1241.035	933.011
149.702	13.313	1239.466	931.764
150.716	13.397	1238.092	931.121
151.731	13.384	1236.850	930.032
152.746	13.349	1236.510	929.495
153.760	13.278	1235.128	927.976
154.775	13.414	1233.725	927.604
155.789	13.356	1232.929	926.598
156.804	13.477	1231.634	926.218
157.819	13.405	1230.897	925.182
158.833	13.501	1230.077	925.017
159.848	13.530	1229.024	924.307
160.862	13.549	1227.735	923.364
161.877	13.422	1227.101	922.096
162.892	13.425	1226.037	921.228
163.906	13.465	1224.885	920.506
164.921	13.463	1223.642	919.479
165.935	13.560	1222.522	919.097
166.950	13.549	1222.184	918.701
167.964	13.507	1221.680	918.004
168.979	13.516	1220.807	917.320
169.994	13.513	1220.127	916.710
171.008	13.611	1219.193	916.470
172.023	13.552	1218.395	915.460
173.037	13.609	1217.548	915.061
174.052	13.664	1216.818	914.732
175.067	13.604	1215.729	913.503
176.081	13.576	1214.677	912.479
177.096	13.511	1214.424	911.845
178.110	13.562	1212.395	910.525
179.125	13.640	1211.452	910.163
180.140	13.564	1210.805	909.180
181.154	13.594	1209.418	908.223
182.169	13.706	1207.860	907.584
183.183	13.789	1206.710	907.097
184.198	13.800	1205.477	906.148
185.213	13.716	1204.092	904.571
186.227	13.809	1203.003	904.177
187.242	13.859	1202.362	903.886
188.256	13.812	1201.246	902.716
189.271	13.773	1200.366	901.757
190.286	13.758	1199.287	900.788
191.300	13.602	1198.535	899.295
192.315	13.643	1197.923	898.980
193.329	13.635	1197.056	898.205
194.344	13.679	1196.684	898.084
195.359	13.740	1196.252	898.016
196.373	13.839	1195.400	897.829
197.388	13.836	1194.871	897.337
198.402	14.006	1194.312	897.754
199.417	14.016	1193.441	897.078
200.432	13.913	1193.120	896.201
201.446	14.076	1191.672	895.913
202.461	14.118	1190.741	895.359
203.475	14.131	1189.648	894.528
204.490	14.040	1188.318	892.960
205.504	14.063	1186.796	891.857
206.519	14.108	1185.865	891.321
207.534	14.123	1184.889	890.588
208.548	14.059	1184.218	889.662
209.563	13.998	1183.420	888.660
210.577	14.119	1182.359	888.429
211.592	14.122	1181.526	887.740
212.607	14.130	1180.711	887.094
213.621	14.103	1179.838	886.217
214.636	14.131	1178.668	885.408
215.650	14.261	1177.828	885.387
216.665	14.230	1177.050	884.562
217.680	14.318	1176.267	884.363
218.694	14.296	1174.833	883.092
219.709	14.223	1174.721	882.541
220.723	14.252	1174.342	882.333
221.738	14.160	1173.492	881.126
222.753	14.237	1172.524	880.730
223.767	14.288	1171.652	880.264
224.782	14.450	1170.869	880.454
225.796	14.415	1170.659	880.037
226.811	14.348	1169.614	878.816
227.826	14.500	1169.054	879.123
228.840	14.467	1168.310	878.313
229.855	14.478	1167.383	877.595
230.869	14.454	1166.557	876.771
231.884	14.368	1166.013	875.828
232.899	14.260	1165.495	874.795
233.913	14.338	1164.655	874.495
234.928	14.284	1164.173	873.774
235.942	14.261	1163.314	872.935
236.957	14.361	1162.239	872.571
237.972	14.306	1161.700	871.805
238.986	14.276	1161.297	871.267
240.001	14.271	1160.796	870.788
241.015	14.498	1159.277	870.756
242.030	14.415	1158.741	869.844
243.045	14.389	1158.089	869.140
244.059	14.444	1157.110	868.618
245.074	14.588	1156.092	868.523
246.088	14.564	1155.428	867.824
247.103	14.580	1154.614	867.218
248.117	14.589	1153.662	866.475
249.132	14.650	1153.360	866.487
250.147	14.868	1152.314	866.753
251.161	14.704	1152.217	865.757
252.176	14.821	1151.282	865.584
253.190	14.789	1150.811	864.986
254.205	14.884	1149.903	864.720
255.220	14.883	1149.441	864.289
256.234	14.850	1149.099	863.783
257.249	14.884	1147.843	862.939
258.263	14.955	1147.421	862.912
259.278	15.009	1147.141	862.906
260.293	14.948	1146.271	861.860
261.307	14.909	1145.574	861.056
262.322	15.045	1144.927	861.196
263.336	15.095	1144.283	860.890
264.351	15.156	1143.399	860.461
265.366	15.111	1142.674	859.611
266.380	15.003	1142.647	858.960
267.395	15.055	1141.684	858.428
268.409	14.992	1140.860	857.406
269.424	14.931	1140.399	856.672
270.439	15.076	1139.585	856.731
271.453	15.102	1138.781	856.180
272.468	15.032	1137.787	855.001
273.482	15.099	1137.133	854.777
274.497	15.103	1136.734	854.420
275.512	15.073	1136.382	853.928
276.526	15.123	1135.384	853.355
277.541	15.203	1134.105	852.725
278.555	15.140	1133.853	852.141
279.570	15.259	1132.823	851.896
280.585	15.373	1131.846	851.667
281.599	15.160	1131.752	850.436
282.614	15.222	1130.333	849.612
283.628	15.242	1129.486	849.000
284.643	15.316	1128.124	848.278
285.657	15.302	1127.467	847.637
286.672	15.247	1126.701	846.708
287.687	15.334	1125.800	846.394
288.701	15.478	1124.983	846.429
289.716	15.314	1124.356	845.056
290.730	15.336	1123.653	844.563
291.745	15.382	1123.170	844.357
292.760	15.374	1122.629	843.838
293.774	15.337	1122.093	843.173
294.789	15.503	1121.651	843.603
295.803	15.373	1121.179	842.521
296.818	15.351	1120.435	841.775
297.833	15.470	1118.797	841.067
298.847	15.445	1118.469	840.621
299.862	15.361	1117.968	839.751
300.876	15.521	1116.722	839.536
301.891	15.530	1116.201	839.120
302.906	15.537	1115.394	838.472
303.920	15.617	1114.768	838.325
304.935	15.600	1114.292	837.810
305.949	15.733	1113.750	837.991
306.964	15.752	1112.726	837.238
307.979	15.664	1112.159	836.301
308.993	15.677	1111.964	836.148
310.008	15.652	1110.986	835.212
311.022	15.750	1109.952	834.849
312.037	15.664	1109.235	833.805
313.052	15.795	1108.058	833.498
314.066	15.716	1107.115	832.325
315.081	15.637	1106.183	831.157
316.095	15.662	1105.628	830.790
317.110	15.717	1104.849	830.403
318.125	15.626	1104.529	829.640
319.139	15.573	1104.033	828.933
320.154	15.805	1102.866	829.126
321.168	15.697	1102.383	828.162
322.183	15.716	1102.276	828.100
323.197	15.714	1101.444	827.390
324.212	15.782	1100.385	826.858
325.227	15.812	1099.747	826.453
326.241	15.740	1099.481	825.823
327.256	15.709	1098.795	825.084
328.270	15.667	1098.174	824.340
329.285	15.724	1096.947	823.626
330.300	15.737	1095.746	822.713
331.314	15.855	1094.469	822.256
332.329	15.864	1093.791	821.719
333.343	15.770	1093.292	820.811
334.358	16.012	1091.927	820.893
335.373	15.953	1091.795	820.437
336.387	15.915	1091.134	819.683
337.402	16.054	1090.087	819.500
338.416	16.002	1089.694	818.880
339.431	16.013	1088.700	818.114
340.446	16.100	1087.761	817.757
341.460	16.155	1087.375	817.658
342.475	15.957	1087.032	816.370
343.489	16.190	1085.636	816.378
344.504	16.208	1084.834	815.786
345.519	16.184	1084.280	815.186
346.533	16.195	1083.420	814.516
347.548	16.246	1082.378	813.909
348.562	16.297	1081.701	813.573
349.577	16.229	1081.055	812.687
350.592	16.139	1080.342	811.648
351.606	16.176	1079.883	811.411
352.621	16.085	1079.335	810.486
353.635	16.261	1078.304	810.486
354.650	16.191	1077.804	809.704
355.665	16.089	1077.124	808.630
356.679	16.244	1076.313	808.695
357.694	16.368	1075.400	808.528
358.708	16.225	1075.207	807.630
359.723	16.296	1074.422	807.309
360.738	16.324	1073.744	806.860
361.752	16.234	1073.317	806.039
362.767	16.315	1072.804	805.970
363.781	16.367	1071.986	805.532
364.796	16.385	1071.639	805.285
365.810	16.396	1071.253	804.977
366.825	16.473	1070.345	804.590
367.840	16.444	1070.109	804.201
368.854	16.530	1068.951	803.669
369.869	16.611	1068.331	803.518
370.883	16.577	1067.498	802.659
371.898	16.510	1066.986	801.884
372.913	16.467	1066.231	801.040
373.927	16.392	1065.932	800.391
374.942	16.704	1065.081	801.160
375.956	16.740	1064.472	800.801
376.971	16.677	1063.732	799.873
377.986	16.724	1063.159	799.596
379.000	16.693	1063.338	799.512
380.015	16.671	1062.575	798.763
381.029	16.667	1061.826	798.112
382.044	16.737	1061.353	798.013
383.059	16.732	1060.329	797.149
384.073	16.911	1059.478	797.283
385.088	16.782	1058.734	796.046
386.102	16.798	1058.166	795.624
387.117	16.784	1056.816	794.470
388.132	16.748	1055.886	793.531
389.146	16.857	1055.133	793.409
390.161	16.768	1054.540	792.475
391.175	16.810	1054.131	792.292
392.190	16.853	1053.208	791.730
393.205	16.810	1052.651	791.041
394.219	16.850	1051.756	790.486
395.234	16.867	1050.741	789.730
396.248	16.905	1049.670	789.032
397.263	16.918	1048.840	788.400
398.278	16.896	1048.422	787.913
399.292	16.904	1047.546	787.222
400.307	16.928	1046.709	786.637
401.321	16.829	1046.567	786.000
402.336	16.890	1045.655	785.530
403.350	16.864	1044.858	784.740
404.365	16.907	1044.169	784.351
405.380	16.960	1043.302	783.879
406.394	16.952	1042.944	783.500
407.409	17.079	1041.852	783.199
408.423	16.994	1041.261	782.293
409.438	17.134	1040.621	782.385
410.453	17.274	1039.744	782.304
411.467	17.145	1039.284	781.295
412.482	17.245	1038.386	781.010
413.496	17.299	1037.863	780.796
414.511	17.237	1037.110	779.877
415.526	17.398	1036.763	780.284
416.540	17.334	1036.316	779.583
417.555	17.290	1036.320	779.316
418.569	17.362	1035.627	779.058
419.584	17.232	1034.828	777.793
420.599	17.280	1034.849	777.958
421.613	103.365	1322.738	1469.495
422.628	94.709	1364.624	1469.605
