DTS Sentinel unit serial number:	SN413079Multiplexer serial number:	ORYXHardware model number:	OX4-SRSoftware version number:	ORYX F/W v4.00 Oryx Data Collector v3.7.2.0data status	okinstallation	princeton_trtdifferential loss correction	single-endedforward channel	channel 2reverse channel	N/Adate	2019/09/17time	14:11:34forward acquisition time	60.00reverse acquisition time	0.00gamma	496.2192k internal	0.2315k external	0.2315temperature offset calibration	0.9987default loss term (dB/km)	0.3790temperature slope calibration	1.0000multiplexer offset coefficient	1.0000multiplexer slope coefficient	1.0000fibre end	0.00T internal ref (°C)	35.92T ext. ref 1 (°C)	0.41T ext. ref 2 (°C)	32.76length (m)	temperature (°C)	Stokes	anti-Stokes-747.200	-31.269	0.345	0.197
-746.185	-64.592	0.110	0.045
-745.171	498.834	-0.049	-0.115
-744.156	91.188	0.122	0.138
-743.142	-200.000	-0.050	0.323
-742.127	-200.000	-0.074	0.354
-741.112	-28.630	0.486	0.284
-740.098	-200.000	0.035	0.214
-739.083	-70.730	-0.214	-0.082
-738.069	783.929	0.079	0.220
-737.054	166.579	0.045	-0.065
-736.039	-59.803	0.223	0.097
-735.025	-48.956	0.180	-0.088
-734.010	-71.536	0.226	-0.086
-732.996	15.022	-0.264	-0.209
-731.981	-200.000	-0.015	-0.073
-730.966	-187.728	-0.377	0.005
-729.952	471.917	0.153	0.348
-728.937	14.235	-0.183	-0.145
-727.923	800.000	-0.032	0.095
-726.908	800.000	-0.066	-0.235
-725.894	-48.885	0.200	-0.097
-724.879	168.725	-0.092	-0.133
-723.864	-52.071	0.387	-0.182
-722.850	63.073	-0.070	-0.071
-721.835	-26.736	0.068	-0.041
-720.821	800.000	-0.072	-0.208
-719.806	279.963	-0.131	0.236
-718.791	271.598	0.143	0.256
-717.777	-40.045	0.314	-0.166
-716.762	-200.000	0.053	-0.289
-715.748	-200.000	0.030	-0.280
-714.733	37.350	0.013	0.011
-713.718	238.585	-0.073	-0.123
-712.704	-200.000	-0.043	-0.227
-711.689	1.567	0.036	-0.026
-710.675	-134.072	0.158	-0.020
-709.660	-101.887	-0.240	-0.059
-708.645	-151.577	0.068	-0.005
-707.631	90.761	0.235	0.267
-706.616	-200.000	-0.032	0.224
-705.602	800.000	0.110	0.432
-704.587	32.751	0.058	-0.051
-703.572	-24.166	-0.189	0.114
-702.558	-79.200	0.268	0.092
-701.543	800.000	0.140	-0.514
-700.529	-112.626	-0.241	0.048
-699.514	497.725	0.063	-0.147
-698.499	-158.816	-0.113	-0.007
-697.485	396.664	0.092	0.195
-696.470	9.203	0.123	-0.094
-695.456	-200.000	-0.149	0.000
-694.441	-10.524	-0.261	-0.175
-693.426	-5.365	-0.200	0.139
-692.412	-129.809	-0.279	0.039
-691.397	800.000	-0.042	0.178
-690.383	218.995	0.220	-0.356
-689.368	-110.762	0.330	-0.069
-688.354	-144.029	-0.128	0.012
-687.339	-121.027	-0.209	0.035
-686.324	-82.568	0.350	-0.115
-685.310	688.305	0.053	-0.139
-684.295	-173.667	0.153	-0.005
-683.281	267.271	-0.151	0.268
-682.266	800.000	0.039	0.172
-681.251	-109.047	0.326	0.070
-680.237	800.000	0.129	-0.404
-679.222	140.909	0.112	-0.150
-678.208	800.000	0.028	0.103
-677.193	-91.320	-0.215	-0.062
-676.178	-121.360	0.175	-0.030
-675.164	-146.278	-0.254	0.023
-674.149	32.009	-0.411	-0.358
-673.135	-148.170	-0.140	0.012
-672.120	-200.000	0.033	0.293
-671.105	54.903	0.220	-0.215
-670.091	197.899	0.092	-0.142
-669.076	-189.769	-0.153	0.002
-668.062	-123.460	0.240	-0.039
-667.047	-191.664	-0.091	-0.001
-666.032	109.556	0.168	0.204
-665.018	32.196	-0.139	0.121
-664.003	362.618	0.055	0.111
-662.989	390.921	0.149	0.313
-661.974	-20.774	0.178	-0.110
-660.959	-200.000	-0.006	-0.270
-659.945	-45.603	0.183	0.091
-658.930	165.537	0.156	-0.223
-657.916	86.844	0.129	0.144
-656.901	-162.167	-0.334	0.017
-655.886	190.873	-0.104	0.158
-654.872	128.365	-0.229	-0.295
-653.857	-200.000	0.027	-0.307
-652.843	-132.312	0.246	0.032
-651.828	215.071	-0.192	0.308
-650.814	376.116	0.048	0.099
-649.799	-200.000	0.057	0.355
-648.784	-136.034	0.178	-0.021
-647.770	201.897	0.088	-0.137
-646.755	-174.951	0.022	-0.001
-645.741	-33.617	-0.112	-0.063
-644.726	112.063	-0.324	-0.396
-643.711	-166.118	0.200	0.009
-642.697	-86.664	-0.212	-0.065
-641.682	152.422	0.138	-0.190
-640.668	-131.829	-0.312	0.041
-639.653	-89.240	-0.441	0.131
-638.638	-21.360	0.254	0.157
-637.624	-123.867	0.165	0.026
-636.609	-173.407	0.093	-0.003
-635.595	800.000	0.008	-0.029
-634.580	800.000	0.074	0.236
-633.565	-63.848	-0.341	0.141
-632.551	0.085	-0.205	-0.148
-631.536	-61.215	0.344	-0.146
-630.522	-200.000	-0.008	-0.300
-629.507	89.715	0.234	-0.264
-628.492	-47.569	-0.276	0.135
-627.478	-15.034	0.153	-0.099
-626.463	156.505	0.089	-0.124
-625.449	85.757	0.325	-0.361
-624.434	-200.000	0.019	-0.213
-623.419	-144.499	-0.389	-0.036
-622.405	49.181	0.101	0.096
-621.390	795.559	-0.067	0.186
-620.376	-200.000	0.036	-0.215
-619.361	329.197	0.120	-0.233
-618.346	223.498	0.104	-0.170
-617.332	-9.530	0.267	-0.180
-616.317	166.770	0.103	0.147
-615.303	-200.000	-0.019	-0.114
-614.288	-80.425	-0.330	0.111
-613.273	-26.712	0.364	-0.215
-612.259	39.346	0.136	0.123
-611.244	-115.332	0.153	0.029
-610.230	-200.000	0.008	-0.035
-609.215	99.940	-0.001	0.002
-608.201	-200.000	-0.003	-0.564
-607.186	77.676	-0.108	0.116
-606.171	-82.799	0.216	-0.070
-605.157	-200.000	-0.009	-0.175
-604.142	419.205	-0.167	-0.361
-603.128	-141.304	0.333	-0.034
-602.113	-200.000	-0.017	-0.250
-601.098	-70.500	0.030	-0.012
-600.084	-68.628	-0.299	-0.117
-599.069	188.626	0.224	0.338
-598.055	-144.290	-0.134	0.013
-597.040	800.000	0.085	-0.368
-596.025	-200.000	0.024	0.130
-595.011	-147.580	-0.115	0.010
-593.996	-55.772	-0.165	0.074
-592.982	800.000	-0.129	-0.372
-591.967	800.000	0.063	-0.248
-590.952	-120.041	-0.257	0.044
-589.938	29.796	-0.062	0.053
-588.923	-61.698	0.143	0.061
-587.909	800.000	0.050	0.203
-586.894	-162.629	0.048	0.002
-585.879	336.732	0.062	-0.120
-584.865	-200.000	-0.051	-0.378
-583.850	-200.000	-0.020	0.107
-582.836	595.629	0.028	0.069
-581.821	-72.945	0.161	0.059
-580.806	-38.603	-0.014	-0.007
-579.792	-200.000	-0.035	0.213
-578.777	-91.671	0.248	0.071
-577.763	-71.536	-0.090	-0.034
-576.748	11.055	-0.121	-0.093
-575.733	11.031	0.217	-0.167
-574.719	-37.827	0.362	-0.194
-573.704	550.815	0.039	0.095
-572.690	-77.148	0.305	0.107
-571.675	109.468	-0.163	0.197
-570.661	-200.000	0.030	0.345
-569.646	-200.000	-0.043	0.203
-568.631	-143.542	-0.116	-0.011
-567.617	800.000	0.082	-0.350
-566.602	800.000	0.068	-0.190
-565.588	123.138	0.068	-0.086
-564.573	-200.000	-0.004	0.073
-563.558	800.000	-0.032	0.132
-562.544	157.803	-0.123	-0.172
-561.529	-132.668	-0.170	-0.022
-560.515	376.046	-0.073	0.150
-559.500	-107.814	0.279	0.061
-558.485	-106.487	-0.180	-0.041
-557.471	-48.828	0.038	-0.018
-556.456	-30.215	0.064	-0.036
-555.442	-67.953	0.203	0.080
-554.427	287.448	0.064	-0.117
-553.412	285.845	0.089	0.162
-552.398	-21.531	0.118	0.072
-551.383	343.706	-0.126	0.249
-550.369	4.856	-0.303	-0.224
-549.354	306.643	0.135	-0.254
-548.339	568.071	0.116	-0.283
-547.325	-49.420	-0.112	-0.054
-546.310	-140.722	-0.449	0.047
-545.296	-200.000	0.018	0.139
-544.281	800.000	0.077	0.266
-543.266	-34.331	-0.080	0.044
-542.252	800.000	-0.039	-0.143
-541.237	-200.000	-0.029	-0.358
-540.223	-17.905	-0.403	-0.254
-539.208	-65.866	0.034	-0.014
-538.193	800.000	0.138	0.392
-537.179	800.000	0.084	-0.318
-536.164	-200.000	0.044	-0.305
-535.150	-32.492	-0.340	0.191
-534.135	-68.260	-0.122	0.048
-533.121	-200.000	0.033	-0.454
-532.106	-116.790	-0.288	0.053
-531.091	-8.492	-0.194	-0.131
-530.077	-93.479	-0.113	-0.031
-529.062	91.906	0.235	-0.266
-528.048	307.872	0.083	-0.156
-527.033	-86.447	-0.209	0.065
-526.018	30.748	-0.234	0.201
-525.004	156.762	0.180	0.250
-523.989	-200.000	-0.007	-0.154
-522.975	800.000	-0.073	0.254
-521.960	153.958	0.111	-0.153
-520.945	181.442	-0.087	0.129
-519.931	-125.964	-0.229	0.035
-518.916	60.586	0.031	-0.031
-517.902	80.574	-0.171	-0.185
-516.887	444.693	0.162	0.358
-515.872	211.681	0.083	-0.131
-514.858	-125.458	0.208	0.032
-513.843	297.288	-0.129	0.238
-512.829	800.000	-0.122	0.479
-511.814	311.665	0.102	0.191
-510.799	-200.000	0.027	-0.253
-509.785	-200.000	0.068	-0.532
-508.770	284.238	0.248	-0.448
-507.756	180.665	0.189	0.279
-506.741	-149.892	0.221	0.017
-505.726	59.700	0.321	0.318
-504.712	148.974	0.184	-0.250
-503.697	-45.512	0.358	-0.178
-502.683	-118.220	-0.208	0.037
-501.668	-84.547	-0.296	-0.094
-500.653	-200.000	0.007	-0.053
-499.639	-200.000	-0.029	0.170
-498.624	800.000	0.055	-0.196
-497.610	-79.487	0.150	0.051
-496.595	124.835	0.052	-0.066
-495.581	-200.000	-0.014	0.234
-494.566	-109.107	0.322	-0.069
-493.551	92.545	-0.044	-0.049
-492.537	151.136	0.077	0.105
-491.522	-200.000	-0.044	0.259
-490.508	18.708	0.124	-0.099
-489.493	61.039	0.262	0.261
-488.478	378.879	-0.110	0.225
-487.464	800.000	-0.067	-0.243
-486.449	426.844	-0.164	0.354
-485.435	-1.588	-0.201	0.142
-484.420	252.398	-0.112	-0.192
-483.405	-18.481	-0.083	-0.052
-482.391	52.927	0.129	-0.124
-481.376	414.770	-0.049	-0.105
-480.362	-101.404	0.387	-0.095
-479.347	-30.353	-0.105	0.060
-478.332	-200.000	-0.015	-0.133
-477.318	-200.000	-0.018	0.239
-476.303	800.000	-0.061	0.221
-475.289	-90.579	-0.095	0.027
-474.274	-97.889	-0.270	0.070
-473.259	-86.084	-0.164	0.051
-472.245	800.000	-0.060	0.184
-471.230	-24.034	-0.083	-0.050
-470.216	109.013	-0.217	-0.260
-469.201	-200.000	0.002	0.028
-468.186	-173.364	0.240	-0.007
-467.172	-36.919	-0.086	0.046
-466.157	-200.000	-0.089	-0.478
-465.143	173.524	-0.081	-0.118
-464.128	-130.363	-0.401	-0.054
-463.113	-200.000	-0.014	0.192
-462.099	311.270	-0.153	0.288
-461.084	-200.000	0.043	0.588
-460.070	40.221	0.162	0.146
-459.055	800.000	0.113	0.482
-458.040	270.049	0.095	0.167
-457.026	179.184	-0.188	-0.276
-456.011	-60.484	0.136	-0.058
-454.997	-96.835	0.336	-0.088
-453.982	270.981	-0.053	-0.094
-452.968	600.780	0.086	-0.215
-451.953	-52.613	0.164	0.076
-450.938	284.093	-0.104	0.188
-449.924	-107.364	-0.116	0.026
-448.909	379.748	-0.211	-0.433
-447.895	-29.837	0.288	-0.164
-446.880	-200.000	-0.020	-0.213
-445.865	-67.687	-0.177	-0.069
-444.851	675.383	0.072	-0.188
-443.836	-109.307	0.360	0.077
-442.822	160.921	-0.295	0.413
-441.807	242.114	-0.135	-0.226
-440.792	46.416	-0.066	0.061
-439.778	800.000	-0.093	-0.314
-438.763	-105.813	-0.218	-0.049
-437.749	98.120	0.042	-0.048
-436.734	189.373	-0.187	-0.280
-435.719	84.086	-0.030	0.033
-434.705	-33.327	0.149	-0.082
-433.690	-98.395	-0.284	0.073
-432.676	-35.941	0.042	-0.023
-431.661	78.040	-0.059	0.063
-430.646	-200.000	-0.013	-0.256
-429.632	800.000	-0.032	-0.112
-428.617	-83.426	-0.366	0.117
-427.603	-148.581	-0.550	0.045
-426.588	716.053	-0.103	0.274
-425.573	99.222	0.084	0.097
-424.559	290.738	0.050	0.090
-423.544	555.444	-0.105	0.253
-422.530	-200.000	0.007	0.432
-421.515	-13.492	0.057	-0.037
-420.500	-177.249	0.131	0.003
-419.486	-59.384	-0.353	-0.152
-418.471	123.266	0.090	-0.113
-417.457	130.613	-0.224	0.287
-416.442	800.000	-0.050	0.179
-415.428	-72.363	-0.207	0.077
-414.413	-200.000	0.009	-0.103
-413.398	31.107	-0.111	-0.095
-412.384	800.000	-0.103	-0.317
-411.369	-27.790	-0.096	0.056
-410.355	-108.971	-0.138	-0.029
-409.340	-68.801	0.057	0.022
-408.325	-8.815	-0.172	0.115
-407.311	-96.768	0.112	-0.030
-406.296	-170.424	0.254	0.009
-405.282	197.145	0.027	0.041
-404.267	129.183	-0.158	-0.202
-403.252	-47.130	0.227	0.111
-402.238	-171.776	-0.064	-0.002
-401.223	-200.000	-0.022	-0.253
-400.209	-200.000	-0.025	0.112
-399.194	84.142	-0.168	0.184
-398.179	-74.001	0.263	0.095
-397.165	219.713	-0.206	0.330
-396.150	-40.826	-0.158	0.082
-395.136	222.216	0.139	-0.223
-394.121	-55.251	0.167	0.075
-393.106	354.057	-0.104	0.207
-392.092	800.000	-0.025	0.097
-391.077	-200.000	0.005	0.076
-390.063	-200.000	-0.013	-0.079
-389.048	104.873	-0.047	0.056
-388.033	-200.000	-0.008	0.257
-387.019	-173.952	0.046	-0.001
-386.004	169.499	0.129	0.184
-384.990	-1.072	0.218	0.154
-383.975	166.360	0.150	-0.212
-382.960	-151.322	0.305	-0.023
-381.946	-16.455	-0.305	0.193
-380.931	-61.525	-0.028	-0.012
-379.917	-200.000	-0.007	-0.167
-378.902	439.206	-0.207	-0.452
-377.888	-165.362	0.278	-0.012
-376.873	-24.737	-0.095	0.056
-375.858	-200.000	0.040	-0.229
-374.844	-72.680	0.354	-0.130
-373.829	-57.040	-0.069	0.031
-372.815	124.744	0.058	-0.072
-371.800	-70.487	-0.323	0.122
-370.785	-200.000	-0.102	0.455
-369.771	-89.647	0.288	0.084
-368.756	-32.797	0.338	0.188
-367.742	780.907	-0.086	0.234
-366.727	-164.681	0.355	0.016
-365.712	800.000	-0.042	-0.129
-364.698	-200.000	-0.062	0.438
-363.683	800.000	0.030	0.095
-362.669	-24.133	-0.229	-0.136
-361.654	800.000	0.025	0.103
-360.639	-200.000	-0.018	0.165
-359.625	13.949	0.159	0.124
-358.610	-90.252	0.283	-0.082
-357.596	-44.914	-0.146	-0.073
-356.581	223.583	-0.077	-0.125
-355.566	-200.000	0.015	0.291
-354.552	22.364	0.256	0.209
-353.537	-41.535	0.250	0.128
-352.523	440.785	-0.133	-0.289
-351.508	366.633	-0.014	0.027
-350.493	-1.015	-0.090	0.063
-349.479	158.401	0.186	0.257
-348.464	-69.317	-0.267	0.102
-347.450	-200.000	-0.166	-0.000
-346.435	800.000	0.053	0.192
-345.420	-104.694	-0.105	-0.024
-344.406	692.374	-0.074	-0.193
-343.391	261.539	0.102	0.176
-342.377	223.397	0.165	0.266
-341.362	-200.000	0.041	0.294
-340.348	-96.744	0.246	-0.065
-339.333	-67.287	-0.256	-0.100
-338.318	-97.570	-0.193	0.050
-337.304	-50.436	0.115	0.054
-336.289	-106.637	0.152	-0.034
-335.275	800.000	-0.054	0.161
-334.260	151.540	0.062	-0.085
-333.245	5.256	-0.142	-0.105
-332.231	-200.000	-0.052	-0.268
-331.216	-200.000	-0.008	0.094
-330.202	0.074	0.165	0.117
-329.187	105.730	0.188	-0.222
-328.172	89.711	-0.159	-0.177
-327.158	-200.000	0.009	-0.266
-326.143	157.681	-0.090	-0.124
-325.129	366.887	-0.076	0.152
-324.114	54.868	-0.062	-0.060
-323.099	238.829	0.038	-0.063
-322.085	-200.000	0.008	0.098
-321.070	-97.059	0.244	-0.064
-320.056	-115.829	0.265	-0.049
-319.041	-149.595	0.177	0.014
-318.026	-31.390	-0.046	-0.026
-317.012	-98.376	0.143	-0.037
-315.997	-4.934	0.174	0.119
-314.983	29.114	0.231	-0.196
-313.968	63.787	0.217	-0.218
-312.953	-61.560	-0.130	0.054
-311.939	-26.956	-0.082	0.048
-310.924	-2.494	-0.102	-0.071
-309.910	-110.301	-0.102	0.021
-308.895	-146.293	0.260	-0.023
-307.880	-127.784	0.333	0.048
-306.866	-23.614	0.070	-0.042
-305.851	800.000	0.082	-0.249
-304.837	-200.000	-0.010	0.186
-303.822	-45.728	0.306	-0.151
-302.807	-200.000	0.083	-0.364
-301.793	-125.218	-0.188	0.029
-300.778	-14.295	0.125	0.080
-299.764	35.064	0.379	-0.331
-298.749	800.000	-0.098	-0.319
-297.735	487.108	0.096	-0.218
-296.720	44.790	-0.090	0.082
-295.705	-116.711	0.110	-0.020
-294.691	-169.575	-0.119	-0.004
-293.676	-98.544	0.103	-0.026
-292.662	-200.000	0.010	-0.167
-291.647	-96.472	-0.076	0.020
-290.632	158.079	-0.212	0.293
-289.618	191.613	-0.205	0.308
-288.603	-88.619	-0.066	-0.019
-287.589	35.940	-0.279	0.244
-286.574	81.648	-0.189	0.204
-285.559	-200.000	-0.015	0.382
-284.545	40.868	0.185	0.166
-283.530	-108.177	0.203	-0.044
-282.516	31.479	0.038	0.032
-281.501	-200.000	-0.037	-0.230
-280.486	800.000	-0.119	-0.484
-279.472	-200.000	0.018	-0.144
-278.457	28.612	0.050	0.042
-277.443	101.798	-0.310	-0.360
-276.428	7.090	0.228	-0.169
-275.413	-0.059	0.286	0.203
-274.399	635.426	-0.063	-0.159
-273.384	800.000	-0.086	-0.244
-272.370	56.503	-0.227	0.220
-271.355	33.624	0.175	-0.151
-270.340	363.268	-0.124	0.249
-269.326	800.000	-0.062	-0.268
-268.311	-20.709	-0.145	-0.088
-267.297	257.925	0.094	0.161
-266.282	264.054	-0.030	0.052
-265.267	92.839	0.258	0.290
-264.253	25.494	0.154	-0.128
-263.238	800.000	0.047	-0.158
-262.224	-138.939	-0.276	0.030
-261.209	-200.000	-0.079	0.422
-260.195	-121.924	0.435	-0.071
-259.180	20.102	0.152	-0.122
-258.165	4.245	-0.142	-0.103
-257.151	79.909	-0.251	-0.268
-256.136	-200.000	-0.008	0.128
-255.122	199.512	0.304	0.464
-254.107	-53.853	-0.221	0.100
-253.092	-155.928	-0.119	0.008
-252.078	-200.000	0.030	-0.289
-251.063	11.189	-0.252	0.192
-250.049	536.646	-0.071	-0.169
-249.034	225.131	0.071	-0.114
-248.019	434.563	0.082	-0.177
-247.005	-143.447	-0.178	-0.017
-245.990	-158.874	0.116	-0.007
-244.976	-39.657	0.156	-0.081
-243.961	370.424	0.039	-0.078
-242.946	624.692	-0.116	0.291
-241.932	220.857	-0.065	0.103
-240.917	-124.270	0.118	0.018
-239.903	-104.463	0.151	0.035
-238.888	86.357	-0.075	-0.082
-237.873	-87.633	-0.599	0.180
-236.859	237.619	-0.087	0.144
-235.844	-200.000	-0.000	0.051
-234.830	-173.049	-0.169	0.005
-233.815	-131.228	0.156	0.021
-232.800	24.088	0.064	-0.053
-231.786	-200.000	-0.063	0.370
-230.771	800.000	0.079	0.222
-229.757	247.083	0.165	0.276
-228.742	-200.000	0.026	0.249
-227.727	202.085	0.108	0.166
-226.713	40.087	0.270	0.241
-225.698	-70.094	0.209	-0.079
-224.684	82.749	0.037	0.040
-223.669	7.267	-0.125	-0.093
-222.655	-78.394	-0.176	-0.060
-221.640	-166.020	-0.190	-0.008
-220.625	-70.277	-0.512	-0.193
-219.611	-121.739	-0.135	-0.022
-218.596	-32.432	-0.122	-0.068
-217.582	-25.191	-0.136	-0.080
-216.567	-82.500	0.279	0.090
-215.552	-200.000	-0.003	-0.042
-214.538	800.000	0.144	0.413
-213.523	48.664	-0.142	0.132
-212.509	-200.000	-0.014	0.270
-211.494	1.965	0.331	-0.237
-210.479	0.398	0.042	-0.030
-209.465	-121.861	-0.412	0.067
-208.450	-72.743	-0.394	-0.144
-207.436	-128.285	-0.127	0.018
-206.421	130.971	0.137	-0.175
-205.406	-57.132	0.355	0.155
-204.392	0.081	-0.098	0.070
-203.377	27.432	-0.017	0.015
-202.363	-122.860	-0.330	0.053
-201.348	-37.532	0.156	-0.083
-200.333	346.386	-0.015	0.030
-199.319	224.051	0.081	0.130
-198.304	-101.632	0.145	0.035
-197.290	-200.000	-0.012	-0.171
-196.275	715.527	0.033	0.086
-195.260	-110.240	0.061	0.013
-194.246	41.716	0.107	-0.096
-193.231	-124.177	-0.294	-0.046
-192.217	-188.823	0.186	-0.002
-191.202	111.065	0.108	0.129
-190.187	32.647	-0.025	0.021
-189.173	-91.041	0.212	0.061
-188.158	-36.769	0.165	0.088
-187.144	-151.003	-0.105	0.008
-186.129	105.716	0.038	0.045
-185.114	150.361	-0.059	0.079
-184.100	667.215	0.166	0.426
-183.085	-49.526	0.121	0.057
-182.071	10.560	0.092	0.069
-181.056	184.165	-0.225	0.330
-180.042	-200.000	0.017	0.197
-179.027	52.816	-0.254	-0.241
-178.012	636.469	-0.018	0.046
-176.998	-155.656	0.168	0.011
-175.983	578.617	-0.047	-0.114
-174.969	-135.181	0.423	-0.050
-173.954	-103.164	-0.413	-0.097
-172.939	-84.333	0.078	0.024
-171.925	-1.827	-0.215	-0.150
-170.910	-81.408	-0.201	-0.066
-169.896	-78.820	0.092	0.031
-168.881	13.177	0.081	-0.062
-167.866	102.916	0.141	-0.164
-166.852	-200.000	-0.006	-0.031
-165.837	-122.957	-0.272	0.043
-164.823	-200.000	-0.014	-0.255
-163.808	147.685	-0.151	-0.202
-162.793	-41.982	0.065	-0.033
-161.779	-109.180	0.184	0.039
-160.764	254.072	0.224	0.379
-159.750	-71.328	0.047	0.018
-158.735	800.000	0.067	-0.248
-157.720	-104.830	-0.168	0.038
-156.706	53.799	-0.098	-0.094
-155.691	-200.000	0.020	-0.115
-154.677	-200.000	-0.021	0.118
-153.662	445.795	-0.135	0.293
-152.647	-11.498	0.116	-0.076
-151.633	-104.885	-0.148	0.034
-150.618	43.016	0.160	-0.145
-149.604	-200.000	-0.009	-0.283
-148.589	-25.098	0.188	0.110
-147.574	-104.803	-0.026	-0.006
-146.560	-66.249	-0.418	-0.165
-145.545	289.910	0.081	0.145
-144.531	249.913	0.055	-0.093
-143.516	-200.000	-0.003	-0.093
-142.502	37.975	0.123	-0.109
-141.487	239.525	-0.092	-0.152
-140.472	19.165	0.217	0.172
-139.458	83.928	-0.298	0.322
-138.443	-163.610	-0.203	0.009
-137.429	-110.741	-0.176	0.036
-136.414	165.101	-0.051	0.071
-135.399	800.000	0.053	-0.219
-134.385	-109.150	-0.183	0.038
-133.370	43.092	0.187	-0.168
-132.356	-137.588	0.169	0.019
-131.341	800.000	-0.122	-0.365
-130.326	56.935	0.094	-0.090
-129.312	-144.554	0.081	-0.007
-128.297	113.631	0.068	0.081
-127.283	-32.412	0.243	-0.134
-126.268	-200.000	0.015	-0.100
-125.253	-116.104	0.109	0.020
-124.239	-200.000	-0.027	0.150
-123.224	-117.118	-0.170	0.031
-122.210	-200.000	0.018	-0.203
-121.195	-200.000	0.011	-0.080
-120.180	106.987	0.102	-0.120
-119.166	-200.000	-0.049	0.326
-118.151	800.000	-0.025	0.092
-117.137	-200.000	0.025	-0.147
-116.122	-165.182	0.401	-0.018
-115.107	-200.000	0.034	-0.199
-114.093	212.794	-0.056	0.087
-113.078	-36.005	0.273	-0.146
-112.064	-51.022	-0.097	-0.045
-111.049	0.631	0.126	0.089
-110.034	6.978	-0.069	-0.051
-109.020	800.000	0.008	0.024
-108.005	437.223	-0.153	0.330
-106.991	-113.386	0.348	-0.068
-105.976	310.330	-0.089	-0.165
-104.962	-42.322	-0.164	-0.083
-103.947	513.072	-0.129	-0.297
-102.932	58.623	0.102	0.099
-101.918	800.000	-0.062	0.204
-100.903	34.712	0.448	-0.387
-99.889	-49.162	-0.218	0.103
-98.874	800.000	-0.057	0.166
-97.859	275.203	-0.063	0.111
-96.845	696.338	-0.068	0.176
-95.830	-22.898	-0.218	-0.130
-94.816	-200.000	0.022	0.204
-93.801	83.935	0.048	-0.052
-92.786	-34.950	0.206	0.111
-91.772	-200.000	-0.005	0.048
-90.757	-200.000	-0.013	0.138
-89.743	-158.446	-0.423	-0.024
-88.728	100.487	-0.109	-0.125
-87.713	19.868	0.089	-0.071
-86.699	-200.000	-0.019	-0.424
-85.684	316.147	-0.058	-0.107
-84.670	125.092	0.037	-0.046
-83.655	39.978	-0.228	0.203
-82.640	800.000	-0.133	0.478
-81.626	-90.800	-0.159	0.045
-80.611	192.012	-0.075	0.112
-79.597	800.000	0.146	-0.460
-78.582	125.433	-0.185	-0.231
-77.567	-16.570	0.156	0.098
-76.553	-0.385	-0.069	0.048
-75.538	781.427	0.187	-0.504
-74.524	439.736	-0.158	0.341
-73.509	44.324	-0.219	0.199
-72.494	773.869	0.072	0.195
-71.480	-17.828	-0.251	-0.155
-70.465	800.000	-0.024	0.092
-69.451	-200.000	0.065	0.332
-68.436	-200.000	0.023	-0.255
-67.422	-114.043	-0.419	0.080
-66.407	91.920	-0.174	0.193
-65.392	-82.574	-0.148	-0.047
-64.378	-162.754	0.107	0.005
-63.363	-21.563	0.134	-0.081
-62.349	-200.000	0.045	-0.536
-61.334	60.698	-0.828	-0.810
-60.319	-153.194	0.406	0.028
-59.305	-200.000	-0.149	-0.951
-58.290	169.064	0.727	1.024
-57.276	800.000	0.584	1.884
-56.261	-200.000	90.958	520.662
-55.246	459.726	1421.768	3123.032
-54.232	145.315	2634.604	3479.444
-53.217	105.009	2358.204	2744.532
-52.203	45.030	1962.079	1783.035
-51.188	39.093	1745.609	1539.910
-50.173	36.414	1700.802	1479.833
-49.159	51.835	1745.800	1638.965
-48.144	55.138	1763.432	1681.077
-47.130	39.016	1722.080	1518.319
-46.115	35.992	1707.091	1481.823
-45.100	35.794	1702.246	1476.036
-44.086	35.813	1699.640	1473.863
-43.071	35.751	1697.154	1471.175
-42.057	35.705	1694.976	1468.879
-41.042	35.733	1692.946	1467.275
-40.027	35.787	1690.868	1465.824
-39.013	35.801	1689.062	1464.312
-37.998	35.812	1687.522	1462.997
-36.984	35.886	1685.616	1461.851
-35.969	35.888	1684.688	1461.001
-34.954	35.988	1682.877	1460.132
-33.940	35.921	1681.193	1458.110
-32.925	36.015	1678.449	1456.380
-31.911	35.919	1677.686	1454.935
-30.896	35.864	1675.480	1452.552
-29.881	35.998	1673.314	1451.621
-28.867	35.904	1672.306	1449.983
-27.852	35.901	1670.787	1448.587
-26.838	35.933	1669.404	1447.572
-25.823	35.902	1668.141	1446.185
-24.809	35.922	1666.603	1444.943
-23.794	35.857	1665.747	1443.660
-22.779	35.970	1663.311	1442.332
-21.765	35.984	1661.815	1441.088
-20.750	35.976	1659.617	1439.059
-19.736	35.963	1658.894	1438.285
-18.721	35.991	1657.020	1436.804
-17.706	35.924	1655.346	1434.804
-16.692	35.875	1654.147	1433.342
-15.677	35.955	1652.308	1432.283
-14.663	35.914	1651.508	1431.231
-13.648	35.936	1650.041	1430.061
-12.633	36.043	1648.060	1429.085
-11.619	35.960	1646.953	1427.449
-10.604	35.980	1644.852	1425.722
-9.590	35.940	1644.104	1424.719
-8.575	35.902	1642.781	1423.235
-7.560	35.930	1641.455	1422.240
-6.546	35.928	1640.019	1420.921
-5.531	35.907	1639.542	1420.297
-4.517	35.979	1637.653	1419.137
-3.502	35.875	1636.779	1417.556
-2.487	36.012	1634.992	1416.960
-1.473	36.053	1623.728	1407.446
-0.458	33.653	1605.021	1373.819
0.556	28.198	1604.113	1337.212
1.571	25.173	1627.143	1333.836
2.586	23.904	1640.456	1335.107
3.600	21.506	1587.206	1274.214
4.615	12.162	1470.529	1117.100
5.629	2.587	1399.322	1000.617
6.644	0.513	1389.762	980.231
7.659	0.436	1388.072	978.458
8.673	0.350	1387.437	977.366
9.688	0.341	1385.299	975.710
10.702	0.084	1382.735	972.159
11.717	4.196	1389.361	1003.389
12.731	13.364	1404.258	1073.803
13.746	18.105	1410.279	1109.151
14.761	17.449	1407.705	1102.774
15.775	16.505	1404.601	1094.140
16.790	15.462	1402.230	1085.454
17.804	14.675	1399.735	1078.346
18.819	14.292	1398.169	1074.571
19.834	13.915	1396.906	1071.075
20.848	13.662	1396.126	1068.754
21.863	13.492	1394.248	1066.131
22.877	13.367	1393.074	1064.328
23.892	13.287	1391.909	1062.835
24.907	13.221	1391.613	1062.086
25.921	13.295	1390.616	1061.707
26.936	13.219	1390.225	1060.831
27.950	13.403	1388.758	1060.798
28.965	13.493	1387.280	1060.150
29.980	13.476	1386.675	1059.485
30.994	13.557	1385.612	1059.098
32.009	13.628	1384.627	1058.704
33.023	13.552	1383.203	1057.036
34.038	13.538	1382.296	1056.161
35.053	13.451	1381.146	1054.635
36.067	13.498	1380.228	1054.135
37.082	13.470	1379.179	1053.063
38.096	13.557	1378.004	1052.624
39.111	13.483	1377.764	1051.878
40.126	13.379	1376.905	1050.470
41.140	13.347	1375.647	1049.219
42.155	13.291	1375.443	1048.612
43.169	13.287	1375.420	1048.479
44.184	13.294	1374.574	1047.783
45.199	13.302	1374.477	1047.670
46.213	13.408	1373.571	1047.554
47.228	13.417	1372.781	1046.917
48.242	13.406	1371.859	1046.048
49.257	13.415	1369.792	1044.439
50.271	13.484	1368.160	1043.541
51.286	13.376	1367.465	1042.233
52.301	13.471	1365.855	1041.514
53.315	13.362	1365.125	1040.180
54.330	13.245	1364.189	1038.638
55.344	13.399	1362.830	1038.479
56.359	13.367	1361.633	1037.272
57.374	13.334	1361.281	1036.706
58.388	13.260	1360.597	1035.634
59.403	13.215	1359.800	1034.652
60.417	13.218	1359.203	1034.124
61.432	13.283	1358.276	1033.731
62.447	13.211	1357.547	1032.637
63.461	13.162	1355.918	1031.003
64.476	13.198	1354.776	1030.268
65.490	13.231	1353.507	1029.417
66.505	13.210	1352.104	1028.130
67.520	13.219	1350.960	1027.219
68.534	13.380	1349.267	1026.845
69.549	13.172	1348.858	1025.150
70.563	13.201	1347.515	1024.221
71.578	13.235	1346.450	1023.530
72.593	13.153	1345.539	1022.242
73.607	13.167	1344.894	1021.747
74.622	13.157	1344.116	1021.001
75.636	13.187	1343.064	1020.296
76.651	13.207	1342.297	1019.747
77.666	13.204	1341.586	1019.096
78.680	13.193	1341.107	1018.578
79.695	13.220	1339.781	1017.646
80.709	13.261	1339.316	1017.453
81.724	13.343	1338.312	1017.109
82.739	13.325	1337.614	1016.374
83.753	13.321	1336.877	1015.704
84.768	13.327	1335.918	1014.918
85.782	13.417	1334.211	1014.082
86.797	13.373	1332.875	1012.711
87.812	13.405	1331.562	1011.821
88.826	13.295	1330.995	1010.629
89.841	13.391	1329.375	1009.890
90.855	13.387	1328.696	1009.266
91.870	13.370	1327.692	1008.308
92.884	13.427	1326.938	1007.992
93.899	13.463	1325.958	1007.380
94.914	13.506	1325.284	1007.039
95.928	13.452	1324.707	1006.183
96.943	13.502	1323.417	1005.418
97.957	13.505	1322.751	1004.841
98.972	13.410	1321.520	1003.240
99.987	13.424	1320.941	1002.799
101.001	13.357	1319.491	1001.204
102.016	13.502	1318.327	1001.108
103.030	13.477	1317.671	1000.367
104.045	13.456	1316.831	999.514
105.060	13.385	1315.857	998.262
106.074	13.389	1314.221	996.954
107.089	13.361	1312.632	995.491
108.103	13.275	1311.476	994.011
109.118	13.264	1310.725	993.287
110.133	13.346	1309.150	992.496
111.147	13.308	1307.797	991.157
112.162	13.240	1306.666	989.806
113.176	13.373	1305.364	989.528
114.191	13.391	1304.531	988.913
115.206	13.372	1303.119	987.646
116.220	13.397	1301.906	986.789
117.235	13.353	1300.945	985.707
118.249	13.396	1299.805	985.015
119.264	13.322	1298.820	983.740
120.279	13.349	1297.603	982.894
121.293	13.324	1296.958	982.165
122.308	13.351	1295.558	981.178
123.322	13.236	1294.864	979.885
124.337	13.308	1293.854	979.461
125.352	13.262	1292.588	978.142
126.366	13.369	1291.278	977.697
127.381	13.381	1290.253	976.907
128.395	13.368	1289.366	976.071
129.410	13.404	1288.088	975.232
130.424	13.393	1287.706	974.793
131.439	13.407	1286.695	974.023
132.454	13.440	1285.671	973.357
133.468	13.463	1284.745	972.706
134.483	13.364	1283.948	971.433
135.497	13.419	1282.558	970.620
136.512	13.399	1281.273	969.443
137.527	13.425	1279.892	968.462
138.541	13.438	1278.716	967.566
139.556	13.491	1277.195	966.635
140.570	13.469	1276.379	965.804
141.585	13.446	1275.214	964.706
142.600	13.483	1273.849	963.800
143.614	13.537	1273.130	963.485
144.629	13.532	1272.089	962.583
145.643	13.554	1270.924	961.747
146.658	13.480	1269.716	960.317
147.673	13.445	1268.280	958.943
148.687	13.444	1267.199	958.032
149.702	13.384	1265.808	956.552
150.716	13.451	1264.142	955.594
151.731	13.543	1262.844	955.060
152.746	13.495	1261.704	953.837
153.760	13.500	1260.725	953.038
154.775	13.577	1259.379	952.384
155.789	13.460	1258.524	950.982
156.804	13.565	1257.599	950.798
157.819	13.666	1256.222	950.251
158.833	13.684	1255.090	949.416
159.848	13.715	1254.101	948.758
160.862	13.665	1253.327	947.802
161.877	13.544	1252.290	946.244
162.892	13.598	1250.628	945.216
163.906	13.533	1249.825	944.152
164.921	13.573	1249.254	943.868
165.935	13.603	1248.414	943.316
166.950	13.612	1247.468	942.574
167.964	13.602	1246.673	941.831
168.979	13.768	1246.048	942.216
169.994	13.739	1245.265	941.376
171.008	13.706	1244.312	940.385
172.023	13.622	1243.616	939.301
173.037	13.715	1242.806	939.133
174.052	13.739	1242.025	938.597
175.067	13.661	1240.986	937.284
176.081	13.683	1239.616	936.295
177.096	13.702	1239.040	935.881
178.110	13.732	1237.649	934.920
179.125	13.703	1236.750	933.995
180.140	13.700	1235.549	932.987
181.154	13.781	1234.374	932.473
182.169	13.770	1232.862	931.185
183.183	13.831	1231.997	930.791
184.198	13.858	1230.476	929.713
185.213	13.945	1229.216	929.162
186.227	13.942	1228.250	928.337
187.242	13.912	1227.358	927.410
188.256	14.013	1225.901	926.790
189.271	13.995	1225.104	926.008
190.286	13.815	1224.297	924.313
191.300	13.765	1223.606	923.431
192.315	13.696	1222.986	922.497
193.329	13.733	1222.147	921.986
194.344	13.858	1220.950	921.699
195.359	13.820	1220.736	921.246
196.373	13.891	1220.359	921.275
197.388	13.982	1219.645	921.157
198.402	13.977	1219.159	920.681
199.417	13.982	1218.987	920.498
200.432	14.162	1218.059	920.708
201.446	14.113	1217.290	919.775
202.461	14.283	1215.569	919.335
203.475	14.110	1215.275	918.076
204.490	14.182	1214.242	917.611
205.504	14.067	1212.621	915.671
206.519	14.046	1211.694	914.774
207.534	14.148	1210.182	914.111
208.548	14.105	1209.621	913.369
209.563	14.138	1208.546	912.661
210.577	14.263	1207.766	912.676
211.592	14.191	1207.068	911.672
212.607	14.232	1206.634	911.491
213.621	14.271	1205.067	910.440
214.636	14.228	1204.310	909.552
215.650	14.221	1203.756	909.011
216.665	14.361	1202.400	908.674
217.680	14.403	1201.740	908.323
218.694	14.462	1200.582	907.689
219.709	14.294	1200.142	906.358
220.723	14.319	1199.407	905.860
221.738	14.323	1198.942	905.452
222.753	14.467	1197.851	905.328
223.767	14.413	1197.199	904.461
224.782	14.582	1196.339	904.651
225.796	14.468	1195.762	903.518
226.811	14.604	1194.804	903.451
227.826	14.427	1194.635	902.282
228.840	14.470	1193.614	901.667
229.855	14.421	1193.193	901.002
230.869	14.517	1192.259	900.735
231.884	14.531	1191.057	899.824
232.899	14.433	1190.701	898.946
233.913	14.336	1189.947	897.775
234.928	14.420	1189.113	897.515
235.942	14.473	1187.750	896.697
236.957	14.453	1187.190	896.087
237.972	14.399	1187.040	895.603
238.986	14.465	1185.926	895.036
240.001	14.422	1185.513	894.414
241.015	14.519	1184.143	893.822
242.030	14.446	1183.716	893.031
243.045	14.475	1182.861	892.460
244.059	14.579	1182.212	892.449
245.074	14.744	1180.711	892.117
246.088	14.604	1180.384	891.045
247.103	14.727	1179.164	890.701
248.117	14.729	1178.701	890.284
249.132	14.802	1178.072	890.120
250.147	14.837	1177.197	889.566
251.161	14.803	1177.019	889.172
252.176	14.843	1175.963	888.509
253.190	14.976	1175.252	888.595
254.205	14.876	1175.103	887.875
255.220	14.986	1174.233	887.720
256.234	14.878	1173.666	886.641
257.249	15.015	1172.640	886.516
258.263	14.982	1172.380	886.063
259.278	14.886	1171.731	884.990
260.293	15.074	1170.619	885.064
261.307	14.982	1170.629	884.507
262.322	15.110	1169.417	884.187
263.336	15.141	1168.825	883.827
264.351	15.113	1167.804	882.827
265.366	15.126	1167.746	882.775
266.380	15.119	1166.651	881.834
267.395	15.063	1165.832	880.842
268.409	15.083	1165.352	880.503
269.424	15.090	1164.925	880.142
270.439	15.137	1163.945	879.573
271.453	15.088	1163.387	878.813
272.468	15.054	1162.309	877.744
273.482	15.099	1161.791	877.512
274.497	15.066	1161.213	876.823
275.512	15.162	1160.462	876.682
276.526	15.228	1159.498	876.222
277.541	15.305	1158.678	875.927
278.555	15.226	1158.010	874.929
279.570	15.367	1157.392	875.121
280.585	15.350	1156.739	874.462
281.599	15.319	1155.698	873.435
282.614	15.366	1154.713	872.858
283.628	15.373	1153.484	871.890
284.643	15.319	1152.888	871.080
285.657	15.343	1151.905	870.386
286.672	15.447	1151.192	870.308
287.687	15.383	1149.751	868.812
288.701	15.442	1149.148	868.586
289.716	15.384	1148.573	867.773
290.730	15.410	1148.078	867.455
291.745	15.363	1147.526	866.720
292.760	15.371	1146.795	866.132
293.774	15.377	1145.995	865.480
294.789	15.556	1145.547	865.991
295.803	15.522	1145.028	865.348
296.818	15.569	1143.912	864.666
297.833	15.577	1142.951	863.904
298.847	15.558	1142.369	863.292
299.862	15.616	1141.404	862.787
300.876	15.604	1140.911	862.271
301.891	15.679	1140.109	861.978
302.906	15.625	1139.463	861.136
303.920	15.669	1138.814	860.794
304.935	15.703	1138.506	860.658
305.949	15.772	1137.434	860.124
306.964	15.811	1136.701	859.693
307.979	15.722	1136.420	858.950
308.993	15.701	1135.664	858.196
310.008	15.847	1134.422	857.924
311.022	15.839	1133.787	857.328
312.037	15.839	1132.940	856.611
313.052	15.754	1132.245	855.577
314.066	15.745	1130.997	854.514
315.081	15.700	1130.164	853.582
316.095	15.744	1129.704	853.381
317.110	15.744	1128.985	852.763
318.125	15.776	1128.079	852.167
319.139	15.653	1127.747	851.217
320.154	15.672	1126.649	850.406
321.168	15.715	1126.198	850.210
322.183	15.868	1125.355	850.268
323.197	15.872	1124.730	849.745
324.212	15.810	1124.452	849.145
325.227	15.982	1123.677	849.351
326.241	15.908	1122.638	848.117
327.256	15.886	1122.284	847.668
328.270	15.816	1121.555	846.689
329.285	15.985	1120.049	846.326
330.300	15.881	1119.400	845.236
331.314	16.045	1118.206	845.086
332.329	15.915	1117.555	843.864
333.343	15.870	1117.304	843.376
334.358	15.998	1115.700	842.731
335.373	15.978	1115.128	842.123
336.387	16.046	1114.423	841.860
337.402	15.918	1113.963	840.796
338.416	16.136	1112.992	841.075
339.431	15.995	1112.403	839.852
340.446	16.129	1111.965	840.118
341.460	16.296	1111.049	840.179
342.475	16.227	1110.378	839.257
343.489	16.221	1109.021	838.126
344.504	16.201	1108.489	837.553
345.519	16.218	1107.350	836.699
346.533	16.192	1106.942	836.191
347.548	16.379	1105.797	836.177
348.562	16.393	1104.973	835.546
349.577	16.266	1104.221	834.277
350.592	16.237	1103.625	833.610
351.606	16.198	1102.897	832.793
352.621	16.375	1102.110	833.000
353.635	16.301	1101.403	832.024
354.650	16.278	1100.720	831.323
355.665	16.409	1099.882	831.260
356.679	16.337	1099.486	830.534
357.694	16.286	1099.012	829.853
358.708	16.344	1098.172	829.429
359.723	16.397	1097.864	829.383
360.738	16.400	1096.813	828.534
361.752	16.252	1096.705	827.651
362.767	16.351	1096.077	827.587
363.781	16.440	1095.134	827.239
364.796	16.527	1094.392	827.032
365.810	16.639	1094.034	827.233
366.825	16.512	1093.300	825.985
367.840	16.722	1093.022	826.729
368.854	16.675	1092.242	825.838
369.869	16.686	1091.237	825.058
370.883	16.614	1090.865	824.352
371.898	16.597	1090.026	823.564
372.913	16.641	1089.434	823.255
373.927	16.716	1088.533	822.868
374.942	16.652	1088.489	822.451
375.956	16.747	1087.621	822.182
376.971	16.784	1087.049	821.855
377.986	16.820	1086.459	821.510
379.000	16.828	1085.820	820.994
380.015	16.718	1085.472	820.126
381.029	16.759	1084.963	819.867
382.044	16.912	1083.974	819.787
383.059	16.796	1082.967	818.393
384.073	16.831	1082.192	817.903
385.088	16.946	1081.469	817.840
386.102	16.954	1080.253	816.885
387.117	16.946	1079.204	815.985
388.132	16.869	1078.243	814.813
389.146	16.913	1077.749	814.578
390.161	16.920	1076.918	813.914
391.175	16.872	1076.227	813.091
392.190	16.971	1075.457	812.910
393.205	16.976	1074.684	812.278
394.219	17.056	1073.883	811.981
395.234	16.986	1073.302	811.138
396.248	16.974	1071.873	809.927
397.263	16.938	1071.167	809.150
398.278	16.868	1070.712	808.404
399.292	16.954	1069.626	807.921
400.307	16.847	1069.000	806.869
401.321	16.925	1068.529	806.809
402.336	16.948	1068.052	806.488
403.350	16.900	1067.088	805.463
404.365	17.004	1066.131	805.162
405.380	17.094	1065.553	805.083
406.394	17.050	1064.936	804.333
407.409	17.135	1063.824	803.827
408.423	17.145	1063.074	803.233
409.438	17.171	1062.426	802.799
410.453	17.326	1061.672	802.888
411.467	17.387	1060.839	802.477
412.482	17.264	1060.454	801.531
413.496	17.322	1059.861	801.287
414.511	17.267	1059.180	800.440
415.526	17.399	1059.219	801.022
416.540	17.508	1058.283	800.757
417.555	17.478	1057.593	800.024
418.569	17.492	1057.285	799.784
419.584	17.426	1056.745	798.995
420.599	17.412	1056.224	798.465
421.613	96.566	1313.747	1431.410
422.628	89.008	1351.283	1431.513
