DTS Sentinel unit serial number:	SN413079Multiplexer serial number:	ORYXHardware model number:	OX4-SRSoftware version number:	ORYX F/W v4.00 Oryx Data Collector v3.7.2.0data status	okinstallation	princeton_trtdifferential loss correction	single-endedforward channel	channel 2reverse channel	N/Adate	2019/09/13time	02:43:34forward acquisition time	60.00reverse acquisition time	0.00gamma	496.2192k internal	0.2334k external	0.2334temperature offset calibration	1.0187default loss term (dB/km)	0.3790temperature slope calibration	1.0000multiplexer offset coefficient	1.0000multiplexer slope coefficient	1.0000fibre end	0.00T internal ref (°C)	27.44T ext. ref 1 (°C)	4.00T ext. ref 2 (°C)	22.26length (m)	temperature (°C)	Stokes	anti-Stokes-747.200	69.019	0.151	0.155
-746.185	-68.188	-0.296	0.116
-745.171	151.078	0.108	0.148
-744.156	-168.709	-0.244	-0.009
-743.142	254.854	0.145	0.250
-742.127	63.938	-0.083	0.084
-741.112	286.761	0.198	0.359
-740.098	210.819	0.110	0.173
-739.083	-200.000	0.056	0.328
-738.069	284.365	-0.149	0.269
-737.054	-200.000	0.005	0.224
-736.039	46.632	0.101	-0.094
-735.025	-18.531	-0.164	0.103
-734.010	164.223	-0.143	-0.202
-732.996	312.640	-0.142	-0.267
-731.981	-52.884	0.126	0.058
-730.966	80.943	0.081	-0.087
-729.952	-200.000	-0.020	-0.154
-728.937	25.761	-0.117	-0.098
-727.923	-200.000	-0.016	0.097
-726.908	-123.545	-0.270	-0.043
-725.894	-158.484	-0.285	-0.017
-724.879	5.350	-0.141	-0.105
-723.864	529.119	-0.079	-0.188
-722.850	800.000	-0.060	-0.178
-721.835	-119.022	0.284	0.050
-720.821	-200.000	0.014	-0.165
-719.806	36.090	-0.347	-0.307
-718.791	213.241	0.153	-0.243
-717.777	38.675	-0.109	-0.097
-716.762	-200.000	-0.004	0.102
-715.748	800.000	-0.099	0.300
-714.733	-104.411	-0.238	-0.055
-713.718	16.577	-0.206	-0.163
-712.704	-26.480	-0.124	-0.073
-711.689	456.592	0.163	-0.364
-710.675	32.179	-0.034	-0.029
-709.660	45.571	0.375	-0.348
-708.645	-200.000	-0.019	-0.145
-707.631	173.389	0.159	0.230
-706.616	-113.348	-0.180	-0.036
-705.602	764.300	0.138	0.377
-704.587	298.494	0.013	0.024
-703.572	-52.238	0.190	-0.088
-702.558	69.514	0.011	-0.012
-701.543	273.893	-0.086	0.152
-700.529	-200.000	-0.256	-0.001
-699.514	800.000	0.042	-0.144
-698.499	76.523	-0.174	0.185
-697.485	288.693	0.019	-0.034
-696.470	800.000	-0.084	-0.276
-695.456	88.509	0.027	-0.031
-694.441	-147.739	-0.022	-0.002
-693.426	-108.668	0.151	-0.033
-692.412	-119.074	-0.260	-0.046
-691.397	448.392	-0.087	-0.191
-690.383	296.514	0.056	-0.103
-689.368	94.490	0.245	0.279
-688.354	-177.461	-0.124	-0.003
-687.339	-90.259	0.212	-0.062
-686.324	-200.000	0.032	-0.247
-685.310	-200.000	0.004	-0.066
-684.295	-51.081	-0.451	-0.212
-683.281	44.043	-0.259	-0.238
-682.266	-106.662	0.527	-0.118
-681.251	-112.501	0.072	-0.014
-680.237	-124.189	-0.119	0.019
-679.222	800.000	0.021	0.084
-678.208	31.240	-0.149	-0.128
-677.193	-109.205	-0.223	0.047
-676.178	144.455	-0.147	-0.197
-675.164	-17.223	-0.225	0.142
-674.149	-200.000	0.020	-0.331
-673.135	655.311	-0.102	0.262
-672.120	137.905	0.027	0.036
-671.105	227.908	-0.144	0.235
-670.091	-54.691	0.374	0.169
-669.076	800.000	0.044	-0.138
-668.062	-158.528	0.419	0.024
-667.047	-197.484	0.298	-0.002
-666.032	183.800	0.163	0.241
-665.018	-29.661	-0.221	-0.126
-664.003	-200.000	-0.009	0.272
-662.989	-46.612	-0.221	-0.108
-661.974	-200.000	-0.016	0.207
-660.959	153.417	0.120	-0.164
-659.945	800.000	-0.057	-0.182
-658.930	-123.213	0.318	0.051
-657.916	-200.000	0.018	0.107
-656.901	-43.492	-0.158	0.080
-655.886	800.000	-0.053	-0.211
-654.872	800.000	-0.104	0.306
-653.857	12.517	-0.321	-0.248
-652.843	-101.283	0.341	0.083
-651.828	-200.000	-0.049	-0.324
-650.814	484.239	0.039	0.090
-649.799	-109.596	0.184	0.039
-648.784	-80.401	-0.248	0.083
-647.770	493.204	-0.058	0.134
-646.755	190.918	-0.204	-0.308
-645.741	64.203	-0.071	-0.072
-644.726	-96.428	-0.226	0.060
-643.711	-200.000	-0.007	0.106
-642.697	-107.780	0.280	-0.061
-641.682	-45.289	0.175	0.087
-640.668	-190.563	0.378	0.004
-639.653	9.914	-0.287	0.218
-638.638	-200.000	-0.004	-0.196
-637.624	62.637	0.174	-0.174
-636.609	-61.534	-0.241	0.101
-635.595	379.180	0.068	-0.139
-634.580	30.492	0.066	0.057
-633.565	-200.000	-0.016	-0.346
-632.551	-149.105	-0.200	-0.016
-631.536	146.178	0.117	0.157
-630.522	-200.000	0.008	-0.248
-629.507	-102.329	0.118	-0.028
-628.492	-50.451	-0.117	0.055
-627.478	-200.000	0.000	0.160
-626.463	-190.855	0.077	-0.001
-625.449	800.000	0.060	0.220
-624.434	-115.523	-0.242	0.045
-623.419	-187.472	0.248	0.003
-622.405	800.000	0.098	-0.416
-621.390	-187.305	0.048	0.001
-620.376	-200.000	-0.054	0.338
-619.361	-165.266	-0.207	-0.009
-618.346	223.878	0.159	0.256
-617.332	205.941	-0.104	-0.161
-616.317	715.141	0.147	0.390
-615.303	632.449	-0.120	-0.305
-614.288	-200.000	-0.014	0.205
-613.273	-60.701	0.096	0.041
-612.259	800.000	-0.039	0.159
-611.244	-172.816	-0.146	-0.005
-610.230	-79.739	-0.360	0.121
-609.215	800.000	-0.075	-0.225
-608.201	306.415	0.129	-0.240
-607.186	6.619	-0.234	0.174
-606.171	-97.207	-0.129	0.034
-605.157	266.662	0.079	-0.139
-604.142	82.883	0.154	-0.168
-603.128	-200.000	0.023	-0.396
-602.113	-145.544	-0.290	-0.026
-601.098	-200.000	-0.003	0.267
-600.084	-70.937	0.042	0.016
-599.069	-200.000	0.032	0.149
-598.055	69.320	0.260	-0.267
-597.040	-200.000	0.009	-0.113
-596.025	46.272	0.232	-0.215
-595.011	-200.000	0.001	-0.140
-593.996	29.573	0.062	0.053
-592.982	79.815	0.191	0.205
-591.967	237.992	0.154	0.256
-590.952	-128.060	-0.190	0.027
-589.938	342.966	0.068	-0.133
-588.923	-200.000	-0.048	-0.219
-587.909	-200.000	-0.025	-0.213
-586.894	800.000	-0.041	-0.151
-585.879	-200.000	0.094	-0.670
-584.865	106.483	0.100	-0.119
-583.850	131.522	-0.266	0.342
-582.836	192.363	0.091	0.137
-581.821	-50.257	-0.365	-0.173
-580.806	-200.000	-0.001	-0.261
-579.792	-65.581	0.499	-0.200
-578.777	800.000	0.042	0.119
-577.763	324.418	-0.076	-0.146
-576.748	73.912	-0.115	-0.121
-575.733	33.889	-0.200	-0.173
-574.719	-6.347	0.363	-0.247
-573.704	45.782	0.229	0.211
-572.690	-142.551	-0.507	0.050
-571.675	74.611	-0.290	-0.305
-570.661	282.156	-0.112	0.201
-569.646	-136.553	-0.235	-0.027
-568.631	417.600	-0.022	0.047
-567.617	800.000	0.057	0.247
-566.602	-47.173	-0.213	-0.104
-565.588	-200.000	-0.029	-0.145
-564.573	-200.000	-0.015	-0.178
-563.558	-179.397	-0.449	0.010
-562.544	-56.362	-0.071	-0.032
-561.529	-82.835	0.202	0.065
-560.515	-136.099	-0.125	0.015
-559.500	-43.858	-0.045	0.023
-558.485	148.451	0.129	-0.173
-557.471	25.483	-0.039	0.033
-556.456	800.000	-0.123	0.383
-555.442	-84.366	-0.239	0.076
-554.427	-38.483	0.077	0.041
-553.412	-49.863	-0.227	-0.107
-552.398	-200.000	-0.348	-0.001
-551.383	654.908	-0.062	-0.159
-550.369	-20.003	-0.225	-0.138
-549.354	76.768	0.110	-0.116
-548.339	37.749	-0.167	-0.147
-547.325	-95.508	-0.274	-0.073
-546.310	414.502	-0.042	0.088
-545.296	192.572	-0.187	-0.282
-544.281	-113.205	-0.284	-0.056
-543.266	800.000	0.047	0.159
-542.252	-66.789	-0.301	-0.119
-541.237	-150.255	0.369	0.028
-540.223	70.775	-0.151	-0.156
-539.208	-200.000	0.007	0.184
-538.193	-200.000	0.021	0.132
-537.179	-200.000	0.015	0.091
-536.164	709.631	0.072	0.190
-535.150	159.715	-0.181	0.252
-534.135	121.784	-0.061	-0.076
-533.121	-135.060	0.149	-0.018
-532.106	23.070	-0.118	0.097
-531.091	568.253	0.077	-0.186
-530.077	-60.457	0.142	0.060
-529.062	800.000	0.080	0.293
-528.048	524.795	0.025	0.059
-527.033	405.345	0.070	-0.147
-526.018	-118.772	-0.267	-0.047
-525.004	62.371	0.138	-0.138
-523.989	185.634	0.180	-0.266
-522.975	461.012	-0.196	-0.434
-521.960	-49.820	-0.163	-0.077
-520.945	63.986	0.182	0.182
-519.931	-22.025	0.063	0.038
-518.916	13.618	-0.052	-0.040
-517.902	-115.937	-0.216	0.040
-516.887	-119.029	-0.312	0.054
-515.872	-15.386	0.172	0.110
-514.858	-148.447	0.154	0.013
-513.843	20.046	-0.085	-0.068
-512.829	-63.370	-0.179	-0.073
-511.814	7.283	-0.148	-0.110
-510.799	-13.484	0.070	-0.045
-509.785	239.329	0.094	-0.156
-508.770	-99.777	-0.260	-0.065
-507.756	-89.456	0.176	-0.052
-506.741	4.566	0.194	0.142
-505.726	42.791	0.034	-0.031
-504.712	-168.185	-0.183	-0.007
-503.697	800.000	-0.034	-0.099
-502.683	179.313	-0.168	0.245
-501.668	-200.000	-0.132	0.604
-500.653	800.000	-0.013	-0.038
-499.639	-200.000	-0.040	0.206
-498.624	105.101	-0.128	0.150
-497.610	-200.000	-0.012	-0.094
-496.595	466.907	-0.196	-0.437
-495.581	175.854	-0.127	0.184
-494.566	-200.000	-0.018	-0.278
-493.551	285.400	0.067	-0.121
-492.537	-131.120	0.341	-0.045
-491.522	-3.825	0.133	-0.092
-490.508	109.206	0.225	0.268
-489.493	179.240	0.187	0.272
-488.478	800.000	-0.045	0.166
-487.464	800.000	-0.053	-0.227
-486.449	-200.000	-0.002	-0.160
-485.435	-194.982	0.284	-0.002
-484.420	103.327	-0.086	-0.100
-483.405	-32.828	0.147	-0.082
-482.391	-200.000	-0.046	0.356
-481.376	-62.429	0.050	-0.021
-480.362	-63.549	-0.225	-0.092
-479.347	-140.102	0.138	-0.014
-478.332	-200.000	0.177	0.001
-477.318	-31.658	-0.227	-0.127
-476.303	99.280	0.069	-0.079
-475.289	330.741	0.024	-0.046
-474.274	-38.299	0.238	0.125
-473.259	-200.000	0.075	-0.351
-472.245	-200.000	0.010	0.057
-471.230	-200.000	-0.005	0.080
-470.216	4.481	0.227	-0.166
-469.201	218.111	0.065	-0.103
-468.186	-17.394	-0.200	0.125
-467.172	289.660	0.200	-0.361
-466.157	800.000	-0.098	-0.315
-465.143	145.917	-0.059	0.078
-464.128	-58.645	0.107	-0.046
-463.113	-90.071	-0.216	-0.063
-462.099	800.000	0.012	0.042
-461.084	-200.000	-0.038	0.411
-460.070	248.897	-0.122	0.205
-459.055	800.000	0.092	-0.255
-458.040	436.847	0.123	-0.267
-457.026	130.592	-0.042	-0.053
-456.011	-57.608	0.334	0.146
-454.997	-200.000	0.024	0.152
-453.982	205.860	-0.070	0.109
-452.968	800.000	0.050	-0.201
-451.953	800.000	0.037	0.128
-450.938	-40.467	-0.303	-0.156
-449.924	-73.457	0.192	-0.070
-448.909	-77.366	0.084	0.029
-447.895	-200.000	0.033	0.212
-446.880	-139.953	-0.206	-0.022
-445.865	68.364	-0.106	-0.108
-444.851	-63.466	0.294	0.120
-443.836	-10.902	0.061	-0.040
-442.822	-200.000	0.023	-0.151
-441.807	-200.000	-0.010	-0.259
-440.792	318.786	0.204	-0.384
-439.778	675.565	-0.044	-0.112
-438.763	69.082	0.203	0.207
-437.749	-200.000	-0.037	0.333
-436.734	72.535	-0.119	0.123
-435.719	-127.700	0.201	-0.029
-434.705	289.889	-0.122	-0.220
-433.690	-55.586	0.241	-0.107
-432.676	-108.365	-0.099	-0.021
-431.661	101.311	0.033	-0.038
-430.646	-111.963	-0.153	0.031
-429.632	149.167	0.121	-0.163
-428.617	-168.170	-0.187	-0.007
-427.603	73.998	0.226	-0.236
-426.588	40.471	-0.195	0.174
-425.573	94.856	0.226	-0.256
-424.559	84.917	0.043	-0.047
-423.544	-200.000	-0.004	-0.028
-422.530	-103.867	0.098	-0.023
-421.515	294.870	-0.039	0.071
-420.500	169.118	0.162	0.229
-419.486	-113.507	-0.331	-0.064
-418.471	-76.211	-0.160	-0.056
-417.457	-72.537	-0.310	0.114
-416.442	233.308	-0.142	0.231
-415.428	39.367	-0.341	0.303
-414.413	800.000	0.071	0.195
-413.398	-69.291	-0.367	-0.140
-412.384	614.808	0.133	0.331
-411.369	728.365	-0.076	0.201
-410.355	800.000	-0.082	-0.281
-409.340	800.000	0.114	0.318
-408.325	800.000	-0.050	0.157
-407.311	800.000	0.073	0.241
-406.296	-48.529	0.097	-0.046
-405.282	37.843	0.098	0.087
-404.267	4.862	0.242	0.176
-403.252	67.491	-0.057	-0.058
-402.238	-45.100	0.020	-0.010
-401.223	406.369	0.137	0.286
-400.209	800.000	0.031	0.091
-399.194	-70.406	-0.130	0.049
-398.179	-200.000	0.023	-0.129
-397.165	269.056	0.064	-0.111
-396.150	111.136	0.254	-0.303
-395.136	-26.060	-0.319	-0.186
-394.121	-200.000	0.004	-0.352
-393.106	40.863	-0.128	-0.115
-392.092	-104.185	-0.131	-0.030
-391.077	0.246	-0.146	-0.104
-390.063	-70.727	0.205	-0.077
-389.048	251.856	-0.047	0.079
-388.033	-200.000	0.010	-0.055
-387.019	9.882	0.227	-0.170
-386.004	-113.491	0.235	0.046
-384.990	-62.876	-0.157	-0.064
-383.975	-200.000	0.022	-0.157
-382.960	119.686	0.171	0.211
-381.946	-59.067	0.156	0.067
-380.931	508.248	-0.191	-0.438
-379.917	800.000	-0.078	0.333
-378.902	105.436	-0.124	0.145
-377.888	252.695	0.079	-0.134
-376.873	-200.000	-0.037	0.215
-375.858	67.168	0.094	0.095
-374.844	12.673	0.188	0.144
-373.829	-157.684	-0.076	0.005
-372.815	800.000	-0.025	0.095
-371.800	36.083	0.177	-0.154
-370.785	218.542	0.076	-0.121
-369.771	426.423	0.129	0.275
-368.756	9.368	-0.056	0.042
-367.742	-125.348	-0.120	0.018
-366.727	-130.938	-0.592	-0.078
-365.712	149.913	-0.214	0.288
-364.698	75.744	0.158	0.165
-363.683	514.145	0.059	-0.135
-362.669	317.438	-0.071	0.133
-361.654	-68.042	0.210	0.081
-360.639	168.165	-0.131	0.185
-359.625	312.058	-0.038	-0.070
-358.610	-163.872	-0.223	-0.010
-357.596	-84.097	0.236	0.074
-356.581	-31.788	0.099	0.055
-355.566	-99.385	-0.235	-0.059
-354.552	149.496	-0.155	0.208
-353.537	-3.995	0.113	-0.077
-352.523	22.253	0.196	-0.159
-351.508	-71.490	-0.018	0.007
-350.493	-115.214	0.144	-0.027
-349.479	319.177	0.201	0.377
-348.464	570.717	0.091	-0.219
-347.450	405.168	0.071	-0.149
-346.435	-113.562	0.195	0.038
-345.420	332.403	-0.151	-0.289
-344.406	737.511	0.062	0.164
-343.391	-200.000	0.029	0.150
-342.377	800.000	0.042	-0.138
-341.362	-43.858	0.248	0.124
-340.348	800.000	0.097	0.272
-339.333	-57.447	-0.123	-0.053
-338.318	-46.775	0.257	0.125
-337.304	-200.000	-0.039	0.322
-336.289	-200.000	0.045	-0.204
-335.275	512.367	-0.065	0.149
-334.260	281.124	0.059	-0.104
-333.245	255.429	-0.098	0.166
-332.231	-200.000	-0.050	0.329
-331.216	-200.000	-0.007	0.171
-330.202	11.383	0.056	-0.042
-329.187	800.000	0.050	-0.142
-328.172	800.000	0.063	0.232
-327.158	132.390	-0.208	-0.265
-326.143	-200.000	-0.010	0.169
-325.129	-200.000	0.110	0.556
-324.114	-107.862	0.197	0.042
-323.099	-200.000	0.358	0.001
-322.085	-39.196	-0.169	0.088
-321.070	26.576	0.176	0.146
-320.056	164.134	0.056	-0.079
-319.041	-90.264	0.150	0.043
-318.026	-45.858	-0.072	-0.035
-317.012	-14.046	0.141	0.090
-315.997	800.000	-0.064	-0.232
-314.983	-36.897	-0.149	-0.079
-313.968	169.918	-0.158	0.224
-312.953	76.926	-0.138	-0.144
-311.939	700.844	0.200	0.521
-310.924	-200.000	-0.054	-0.444
-309.910	-152.950	-0.212	-0.015
-308.895	658.973	0.011	0.029
-307.880	-159.720	0.230	-0.013
-306.866	78.556	0.115	0.121
-305.851	-200.000	-0.011	-0.068
-304.837	-140.845	0.179	-0.018
-303.822	197.775	-0.238	-0.359
-302.807	-107.789	-0.080	-0.017
-301.793	-131.822	-0.032	0.004
-300.778	322.168	-0.035	0.066
-299.764	66.540	0.113	0.113
-298.749	327.106	0.069	-0.130
-297.735	-110.683	-0.115	0.024
-296.720	-5.058	-0.242	-0.164
-295.705	109.227	-0.029	0.034
-294.691	-200.000	0.010	-0.067
-293.676	-85.065	0.030	0.009
-292.662	552.884	-0.065	0.154
-291.647	6.391	0.169	-0.124
-290.632	-175.026	0.363	0.010
-289.618	-200.000	-0.004	-0.088
-288.603	6.743	0.046	-0.033
-287.589	132.604	0.197	-0.251
-286.574	32.482	0.093	0.080
-285.559	108.135	0.131	0.154
-284.545	-69.989	0.161	0.061
-283.530	800.000	0.158	0.454
-282.516	30.014	-0.047	0.040
-281.501	68.798	0.137	0.139
-280.486	76.222	0.209	0.218
-279.472	106.271	0.076	-0.089
-278.457	-142.667	-0.192	-0.018
-277.443	-103.919	0.150	-0.034
-276.428	-44.397	-0.220	-0.109
-275.413	0.478	-0.079	0.055
-274.399	85.816	-0.179	-0.194
-273.384	30.220	-0.143	0.120
-272.370	582.583	0.085	0.205
-271.355	-50.871	0.278	0.129
-270.340	37.671	-0.229	0.200
-269.326	-164.865	-0.374	0.017
-268.311	637.152	0.080	0.201
-267.297	357.637	-0.116	-0.228
-266.282	-200.000	-0.015	0.073
-265.267	29.233	0.129	-0.108
-264.253	772.319	0.041	-0.111
-263.238	-50.349	0.081	0.038
-262.224	108.383	-0.077	0.090
-261.209	11.221	0.136	0.103
-260.195	-120.431	0.230	0.039
-259.180	96.699	-0.090	-0.102
-258.165	610.475	-0.136	0.334
-257.151	-52.645	0.108	-0.049
-256.136	4.524	-0.077	0.056
-255.122	-116.141	-0.256	-0.047
-254.107	800.000	0.041	0.124
-253.092	-107.063	0.444	0.097
-252.078	-200.000	0.016	-0.157
-251.063	-200.000	0.027	-0.199
-250.049	-0.760	-0.250	0.174
-249.034	-200.000	0.004	0.083
-248.019	-67.231	0.205	-0.080
-247.005	-200.000	0.017	0.075
-245.990	-200.000	-0.008	0.128
-244.976	334.397	0.049	0.093
-243.961	123.005	0.064	0.079
-242.946	498.181	0.072	-0.164
-241.932	-200.000	-0.013	-0.157
-240.917	-85.036	0.175	-0.054
-239.903	-138.058	-0.217	0.024
-238.888	-19.531	-0.164	-0.100
-237.873	-58.084	0.183	0.079
-236.859	-113.457	0.067	-0.013
-235.844	-8.109	0.267	-0.177
-234.830	-17.943	0.064	-0.039
-233.815	-114.732	-0.169	-0.032
-232.800	-200.000	0.001	-0.127
-231.786	278.756	0.111	0.195
-230.771	81.994	-0.088	0.094
-229.757	285.435	0.031	-0.055
-228.742	-200.000	-0.028	-0.205
-227.727	15.378	-0.171	-0.132
-226.713	-200.000	0.032	-0.428
-225.698	800.000	-0.053	0.158
-224.684	800.000	-0.029	-0.081
-223.669	-87.405	-0.366	-0.109
-222.655	-200.000	-0.087	0.448
-221.640	-200.000	0.010	-0.106
-220.625	-60.445	-0.149	-0.062
-219.611	-29.019	0.131	-0.074
-218.596	-32.575	-0.275	-0.151
-217.582	334.166	-0.080	-0.153
-216.567	-200.000	0.000	0.017
-215.552	38.185	-0.194	0.170
-214.538	-83.847	0.222	0.070
-213.523	65.774	-0.079	-0.079
-212.509	-200.000	-0.038	-0.254
-211.494	-55.256	-0.062	0.027
-210.479	-56.077	0.115	-0.050
-209.465	191.067	0.182	0.270
-208.450	-175.381	0.217	-0.006
-207.436	516.727	0.056	0.130
-206.421	800.000	0.054	0.149
-205.406	227.652	0.138	-0.221
-204.392	-106.495	0.301	0.066
-203.377	-200.000	-0.017	-0.184
-202.363	-32.973	-0.100	0.055
-201.348	87.251	0.157	0.171
-200.333	-43.964	0.278	0.138
-199.319	68.834	0.154	-0.156
-198.304	-100.049	-0.222	-0.054
-197.290	-200.000	0.011	-0.125
-196.275	3.765	-0.156	0.112
-195.260	-200.000	0.021	-0.128
-194.246	-146.363	0.077	-0.007
-193.231	800.000	0.012	-0.052
-192.217	34.106	0.071	-0.061
-191.202	-1.685	-0.228	-0.158
-190.187	241.264	-0.059	-0.097
-189.173	-72.854	-0.305	0.110
-188.158	800.000	-0.028	-0.078
-187.144	223.951	0.145	-0.231
-186.129	549.031	0.027	0.064
-185.114	276.575	0.023	0.041
-184.100	-106.927	0.192	-0.042
-183.085	800.000	-0.118	0.366
-182.071	-52.080	-0.224	-0.102
-181.056	76.826	-0.248	0.258
-180.042	74.856	-0.113	0.117
-179.027	-200.000	-0.058	-0.000
-178.012	-200.000	-0.044	-0.393
-176.998	-43.011	-0.374	0.186
-175.983	26.980	0.039	-0.033
-174.969	-140.181	0.288	0.030
-173.954	-200.000	-0.014	0.201
-172.939	-200.000	-0.049	-0.360
-171.925	126.287	-0.123	-0.153
-170.910	800.000	0.069	0.190
-169.896	-4.917	0.157	0.106
-168.881	17.002	0.108	0.084
-167.866	462.051	0.113	0.247
-166.852	-61.816	-0.198	0.082
-165.837	-200.000	0.006	0.146
-164.823	-138.873	-0.226	-0.024
-163.808	-55.006	0.212	-0.094
-162.793	-200.000	0.022	-0.301
-161.779	800.000	-0.038	0.112
-160.764	-3.839	0.247	-0.168
-159.750	166.318	0.166	0.231
-158.735	-200.000	-0.011	0.283
-157.720	-12.078	-0.215	0.138
-156.706	-46.143	0.218	0.105
-155.691	-87.395	0.092	0.028
-154.677	-40.410	0.462	-0.236
-153.662	-75.425	-0.419	-0.147
-152.647	-131.310	0.065	0.009
-151.633	-17.455	0.376	0.232
-150.618	684.603	0.062	0.159
-149.604	103.002	-0.179	0.205
-148.589	151.503	0.174	-0.233
-147.574	-200.000	-0.025	0.174
-146.560	-98.231	-0.201	-0.051
-145.545	-110.851	-0.173	-0.035
-144.531	800.000	-0.091	0.282
-143.516	-200.000	0.047	0.277
-142.502	-102.138	0.366	0.086
-141.487	614.039	-0.133	-0.326
-140.472	-20.007	0.262	0.158
-139.458	-79.454	0.126	0.042
-138.443	-81.360	-0.234	0.076
-137.429	-88.784	0.055	-0.016
-136.414	-115.726	-0.110	-0.020
-135.399	800.000	-0.049	-0.155
-134.385	-130.433	0.490	-0.065
-133.370	22.930	0.354	0.285
-132.356	-200.000	0.012	0.207
-131.341	43.709	-0.212	0.191
-130.326	-200.000	-0.035	0.328
-129.312	-200.000	-0.029	-0.171
-128.297	715.015	-0.093	-0.242
-127.283	413.360	-0.077	0.161
-126.268	800.000	0.047	0.136
-125.253	117.275	0.136	-0.163
-124.239	-200.000	-0.001	0.329
-123.224	422.767	0.072	0.152
-122.210	800.000	0.121	0.411
-121.195	96.220	-0.199	0.223
-120.180	-55.029	-0.331	0.146
-119.166	-92.437	0.403	-0.111
-118.151	-24.671	0.346	-0.202
-117.137	-127.006	-0.367	0.053
-116.122	-33.324	-0.289	-0.157
-115.107	-128.706	-0.162	-0.022
-114.093	14.460	-0.165	0.126
-113.078	-200.000	-0.010	-0.167
-112.064	58.601	0.332	0.319
-111.049	495.162	-0.052	-0.118
-110.034	800.000	-0.040	-0.168
-109.020	-80.208	0.093	0.031
-108.005	30.943	-0.095	0.080
-106.991	-200.000	0.019	-0.396
-105.976	623.865	0.107	-0.264
-104.962	237.838	-0.146	-0.237
-103.947	-200.000	0.074	-0.333
-102.932	40.388	0.103	0.091
-101.918	-200.000	0.005	0.221
-100.903	-200.000	-0.039	0.266
-99.889	-200.000	-0.010	-0.294
-98.874	-87.175	-0.071	0.021
-97.859	-200.000	-0.020	0.154
-96.845	-200.000	-0.002	0.111
-95.830	800.000	0.107	0.333
-94.816	160.347	-0.313	0.428
-93.801	176.027	0.145	-0.206
-92.786	-200.000	0.020	0.135
-91.772	-129.366	-0.200	-0.027
-90.757	293.887	-0.119	0.214
-89.743	800.000	0.042	-0.153
-88.728	-200.000	-0.018	0.125
-87.713	-111.521	-0.297	0.059
-86.699	-117.342	0.523	0.093
-85.684	7.486	0.027	-0.020
-84.670	-82.005	0.014	0.005
-83.655	318.759	-0.085	0.157
-82.640	-200.000	-0.018	0.103
-81.626	-80.787	-0.372	0.121
-80.611	-200.000	-0.003	0.074
-79.597	-200.000	-0.147	-0.001
-78.582	-200.000	-0.011	-0.135
-77.567	522.076	0.104	0.240
-76.553	97.293	0.307	-0.345
-75.538	-84.517	0.250	0.077
-74.524	-55.845	-0.557	0.244
-73.509	-127.012	-0.098	-0.014
-72.494	-15.639	0.081	-0.050
-71.480	40.294	-0.204	0.180
-70.465	-18.732	0.151	0.092
-69.451	-115.976	0.278	-0.051
-68.436	315.035	-0.027	-0.049
-67.422	133.254	-0.208	0.263
-66.407	58.169	0.119	0.114
-65.392	80.669	0.147	0.155
-64.378	418.689	0.144	-0.301
-63.363	-76.274	0.229	0.079
-62.349	800.000	0.062	-0.218
-61.334	-27.396	-1.238	-0.704
-60.319	104.937	0.390	0.450
-59.305	672.287	-0.454	-1.151
-58.290	624.000	0.454	1.119
-57.276	346.586	0.832	1.600
-56.261	-200.000	114.070	653.307
-55.246	541.751	1520.122	3544.109
-54.232	177.537	2696.980	3843.920
-53.217	102.679	2288.399	2619.203
-52.203	36.604	1894.615	1636.154
-51.188	30.663	1683.862	1409.246
-50.173	28.033	1641.763	1354.499
-49.159	49.856	1697.391	1565.226
-48.144	48.617	1711.589	1568.943
-47.130	30.162	1668.980	1392.808
-46.115	27.537	1654.313	1360.935
-45.100	27.322	1649.727	1355.503
-44.086	27.359	1647.025	1353.507
-43.071	27.348	1644.397	1351.212
-42.057	27.191	1642.508	1348.439
-41.042	27.399	1639.792	1347.700
-40.027	27.274	1638.497	1345.654
-39.013	27.265	1635.915	1343.419
-37.998	27.299	1634.185	1342.192
-36.984	27.345	1633.074	1341.567
-35.969	27.462	1631.507	1341.091
-34.954	27.431	1629.846	1339.439
-33.940	27.452	1627.755	1337.825
-32.925	27.482	1626.261	1336.762
-31.911	27.422	1623.883	1334.312
-30.896	27.500	1622.478	1333.682
-29.881	27.402	1621.261	1331.913
-28.867	27.419	1619.425	1330.473
-27.852	27.382	1617.951	1328.941
-26.838	27.383	1616.513	1327.712
-25.823	27.458	1614.802	1326.796
-24.809	27.485	1613.974	1326.266
-23.794	27.461	1612.372	1324.718
-22.779	27.410	1610.718	1322.939
-21.765	27.399	1609.374	1321.699
-20.750	27.389	1607.549	1320.076
-19.736	27.448	1606.240	1319.375
-18.721	27.505	1605.010	1318.730
-17.706	27.437	1603.749	1317.145
-16.692	27.542	1601.622	1316.109
-15.677	27.462	1600.742	1314.753
-14.663	27.448	1599.441	1313.536
-13.648	27.502	1597.987	1312.679
-12.633	27.453	1596.671	1311.192
-11.619	27.513	1594.878	1310.098
-10.604	27.472	1593.704	1308.783
-9.590	27.500	1592.318	1307.793
-8.575	27.626	1590.316	1307.006
-7.560	27.514	1590.070	1305.946
-6.546	27.425	1588.903	1304.301
-5.531	27.411	1587.750	1303.201
-4.517	27.408	1586.782	1302.335
-3.502	27.455	1585.542	1301.599
-2.487	27.460	1584.035	1300.350
-1.473	27.238	1571.751	1288.639
-0.458	24.341	1552.963	1252.865
0.556	22.939	1554.177	1223.028
1.571	20.509	1578.008	1224.572
2.586	20.022	1591.017	1231.097
3.600	18.145	1537.191	1176.442
4.615	11.273	1430.295	1050.400
5.629	5.173	1369.916	968.228
6.644	3.874	1363.103	955.309
7.659	3.995	1361.749	955.021
8.673	4.000	1360.888	954.366
9.688	4.121	1358.805	953.566
10.702	3.979	1355.823	950.518
11.717	6.844	1361.513	972.068
12.731	14.726	1376.089	1031.234
13.746	21.384	1386.468	1080.199
14.761	23.015	1388.636	1091.878
15.775	22.516	1386.938	1087.365
16.790	21.694	1384.073	1079.956
17.804	20.981	1382.077	1073.917
18.819	20.699	1381.084	1071.310
19.834	20.706	1380.260	1070.621
20.848	20.669	1379.579	1069.774
21.863	20.500	1378.300	1067.647
22.877	20.423	1377.095	1066.146
23.892	20.249	1376.282	1064.355
24.907	20.269	1375.562	1063.824
25.921	20.371	1373.887	1063.059
26.936	20.166	1373.876	1061.701
27.950	20.354	1372.408	1061.627
28.965	20.440	1372.035	1061.768
29.980	20.617	1370.574	1061.622
30.994	20.703	1369.694	1061.373
32.009	20.787	1369.264	1061.456
33.023	20.649	1368.265	1059.752
34.038	20.612	1366.200	1057.833
35.053	20.525	1365.073	1056.335
36.067	20.481	1363.820	1055.006
37.082	20.396	1363.676	1054.286
38.096	20.609	1362.269	1054.394
39.111	20.558	1361.871	1053.683
40.126	20.517	1360.187	1052.039
41.140	20.150	1359.356	1049.086
42.155	19.925	1358.688	1047.117
43.169	19.904	1358.725	1046.927
44.184	19.989	1358.389	1047.087
45.199	19.933	1358.378	1046.646
46.213	20.416	1357.102	1048.489
47.228	20.562	1356.845	1049.076
48.242	20.453	1356.006	1047.679
49.257	20.424	1354.053	1045.901
50.271	20.459	1352.801	1045.054
51.286	20.459	1351.588	1044.026
52.301	20.443	1350.252	1042.801
53.315	20.249	1349.129	1040.679
54.330	20.002	1348.398	1038.540
55.344	20.130	1346.761	1037.957
56.359	20.018	1345.868	1036.510
57.374	19.930	1345.166	1035.347
58.388	19.862	1344.373	1034.242
59.403	19.784	1343.569	1033.064
60.417	19.871	1342.970	1033.030
61.432	19.767	1342.051	1031.611
62.447	19.653	1341.125	1030.132
63.461	19.556	1339.510	1028.221
64.476	19.565	1338.523	1027.428
65.490	19.620	1337.410	1026.805
66.505	19.652	1335.834	1025.694
67.520	19.667	1334.870	1024.955
68.534	19.675	1333.819	1024.107
69.549	19.628	1333.077	1023.167
70.563	19.505	1332.168	1021.651
71.578	19.338	1330.957	1019.643
72.593	19.311	1329.510	1018.282
73.607	19.385	1328.687	1018.003
74.622	19.434	1328.476	1018.035
75.636	19.359	1328.042	1017.174
76.651	19.623	1326.630	1017.555
77.666	19.488	1327.070	1017.011
78.680	19.591	1326.318	1016.951
79.695	19.694	1325.348	1016.720
80.709	19.827	1325.157	1017.264
81.724	19.962	1324.456	1017.431
82.739	20.113	1323.724	1017.669
83.753	20.314	1322.959	1018.165
84.768	20.490	1321.774	1018.198
85.782	20.502	1321.387	1017.880
86.797	20.626	1319.306	1016.912
87.812	20.421	1318.442	1014.958
88.826	20.408	1317.404	1013.996
89.841	20.477	1316.709	1013.771
90.855	20.642	1315.608	1013.793
91.870	20.616	1314.526	1012.717
92.884	20.660	1313.979	1012.463
93.899	20.791	1313.360	1012.660
94.914	20.792	1312.239	1011.711
95.928	20.865	1311.168	1011.220
96.943	20.721	1310.405	1009.708
97.957	20.543	1310.119	1008.367
98.972	20.579	1308.903	1007.550
99.987	20.654	1307.755	1007.011
101.001	20.604	1307.193	1006.202
102.016	20.635	1306.115	1005.462
103.030	20.564	1305.340	1004.363
104.045	20.545	1304.420	1003.459
105.060	20.322	1302.937	1000.941
106.074	20.066	1300.891	997.806
107.089	19.658	1299.636	994.408
108.103	19.756	1298.105	993.716
109.118	19.629	1297.073	992.107
110.133	19.559	1295.701	990.568
111.147	19.781	1293.837	990.325
112.162	19.782	1292.971	989.583
113.176	19.837	1292.105	989.147
114.191	19.912	1291.587	989.092
115.206	19.857	1290.139	987.582
116.220	19.873	1288.725	986.501
117.235	19.859	1287.600	985.473
118.249	19.653	1286.799	983.599
119.264	19.620	1285.617	982.421
120.279	19.605	1284.328	981.265
121.293	19.521	1283.341	979.947
122.308	19.339	1282.479	978.170
123.322	19.274	1280.955	976.551
124.337	19.190	1280.063	975.307
125.352	19.307	1278.575	974.751
126.366	19.294	1277.567	973.824
127.381	19.259	1276.382	972.637
128.395	19.252	1275.410	971.772
129.410	19.270	1275.012	971.484
130.424	19.327	1274.650	971.445
131.439	19.545	1273.637	971.814
132.454	19.650	1272.746	971.637
133.468	19.638	1272.126	971.008
134.483	19.719	1271.081	970.580
135.497	19.776	1270.541	970.404
136.512	19.841	1269.006	969.511
137.527	19.878	1267.720	968.650
138.541	19.997	1266.510	968.300
139.556	19.943	1265.870	967.427
140.570	20.001	1265.291	967.220
141.585	20.148	1263.810	966.824
142.600	20.329	1263.000	967.129
143.614	20.476	1262.067	967.147
144.629	20.541	1261.247	966.795
145.643	20.512	1260.414	965.906
146.658	20.347	1258.430	963.386
147.673	20.025	1257.562	960.853
148.687	20.012	1255.943	959.456
149.702	19.908	1254.238	957.493
150.716	19.908	1252.839	956.339
151.731	19.869	1251.785	955.238
152.746	19.816	1250.725	954.051
153.760	19.941	1249.853	953.990
154.775	20.116	1248.658	953.958
155.789	20.115	1248.338	953.624
156.804	20.176	1246.930	952.798
157.819	20.211	1246.485	952.566
158.833	20.360	1245.922	952.867
159.848	20.479	1245.166	952.861
160.862	20.372	1244.127	951.396
161.877	20.164	1241.790	948.383
162.892	19.831	1240.803	945.729
163.906	19.810	1239.675	944.671
164.921	19.760	1238.654	943.532
165.935	19.935	1237.881	943.815
166.950	20.006	1237.760	944.030
167.964	19.933	1237.196	943.118
168.979	19.937	1236.540	942.555
169.994	19.946	1234.866	941.245
171.008	20.033	1234.427	941.301
172.023	20.039	1234.042	940.957
173.037	20.293	1233.460	941.807
174.052	20.258	1232.323	940.665
175.067	20.063	1230.632	938.233
176.081	19.695	1229.966	935.654
177.096	19.700	1229.065	934.914
178.110	19.790	1227.570	934.179
179.125	19.819	1226.842	933.696
180.140	20.034	1225.653	933.872
181.154	20.370	1224.976	935.079
182.169	20.370	1223.916	934.191
183.183	20.328	1222.800	933.030
184.198	20.557	1221.167	932.929
185.213	20.565	1220.550	932.419
186.227	20.442	1220.130	931.358
187.242	20.598	1218.930	931.193
188.256	20.599	1218.390	930.702
189.271	20.673	1217.327	930.203
190.286	20.464	1215.736	927.792
191.300	20.000	1214.563	924.339
192.315	19.851	1213.923	922.976
193.329	19.957	1213.343	923.014
194.344	19.879	1213.118	922.349
195.359	20.059	1212.114	922.462
196.373	20.069	1211.469	921.944
197.388	20.288	1211.209	922.824
198.402	20.459	1211.054	923.538
199.417	20.586	1211.417	924.409
200.432	20.814	1210.233	924.633
201.446	20.917	1209.630	924.635
202.461	20.957	1209.030	924.307
203.475	20.995	1207.908	923.567
204.490	20.554	1206.490	920.070
205.504	20.414	1204.603	917.811
206.519	20.383	1203.128	916.441
207.534	20.278	1202.337	915.205
208.548	20.282	1201.480	914.494
209.563	20.261	1201.009	913.939
210.577	20.262	1200.023	913.115
211.592	20.285	1199.534	912.781
212.607	20.615	1198.933	913.979
213.621	20.732	1197.691	913.568
214.636	20.635	1196.668	912.199
215.650	20.537	1196.393	911.391
216.665	20.872	1194.975	911.985
217.680	20.847	1195.298	912.020
218.694	21.115	1193.694	912.118
219.709	20.859	1193.319	910.411
220.723	20.748	1192.483	909.112
221.738	20.895	1191.073	908.725
222.753	20.756	1190.261	907.299
223.767	20.817	1189.786	907.177
224.782	20.918	1189.551	907.444
225.796	20.977	1189.420	907.570
226.811	20.976	1188.624	906.877
227.826	20.835	1187.599	905.280
228.840	20.768	1186.275	903.845
229.855	20.695	1185.714	902.960
230.869	20.599	1184.812	901.696
231.884	20.527	1183.791	900.464
232.899	20.594	1182.901	900.057
233.913	20.301	1182.474	898.134
234.928	20.235	1181.466	896.946
235.942	20.432	1180.466	897.127
236.957	20.268	1179.973	895.826
237.972	20.396	1178.932	895.614
238.986	20.309	1178.526	894.782
240.001	20.366	1178.184	894.737
241.015	20.463	1176.989	894.250
242.030	20.538	1176.356	894.072
243.045	20.704	1175.578	894.257
244.059	20.692	1175.085	893.742
245.074	20.679	1174.666	893.274
246.088	20.803	1173.641	893.052
247.103	20.960	1173.373	893.574
248.117	21.141	1172.785	893.975
249.132	21.333	1172.307	894.516
250.147	21.511	1171.724	894.903
251.161	21.833	1170.919	895.851
252.176	21.763	1170.672	895.228
253.190	21.768	1170.351	894.926
254.205	21.771	1169.755	894.410
255.220	21.986	1169.020	894.865
256.234	21.968	1167.894	893.829
257.249	21.850	1167.356	892.738
258.263	21.775	1166.976	891.985
259.278	21.765	1165.829	890.981
260.293	21.789	1165.704	890.927
261.307	21.794	1165.298	890.567
262.322	21.940	1164.730	890.795
263.336	21.867	1163.811	889.643
264.351	21.877	1163.379	889.285
265.366	21.954	1162.547	888.957
266.380	21.993	1161.938	888.610
267.395	21.983	1160.664	887.505
268.409	21.642	1159.848	885.080
269.424	21.637	1159.305	884.563
270.439	21.697	1158.764	884.377
271.453	21.547	1157.940	882.912
272.468	21.386	1156.980	881.291
273.482	21.463	1156.067	880.907
274.497	21.432	1155.122	879.952
275.512	21.432	1154.934	879.730
276.526	21.355	1154.396	878.854
277.541	21.525	1153.152	878.685
278.555	21.553	1153.103	878.708
279.570	21.799	1152.462	879.376
280.585	22.013	1151.708	879.795
281.599	21.890	1150.578	878.239
282.614	21.701	1149.391	876.309
283.628	21.505	1148.467	874.548
284.643	21.522	1147.401	873.747
285.657	21.571	1146.620	873.318
286.672	21.501	1145.783	872.253
287.687	21.567	1144.948	871.869
288.701	21.646	1143.823	871.329
289.716	21.665	1142.756	870.534
290.730	21.574	1142.687	869.951
291.745	21.652	1142.166	869.867
292.760	21.691	1142.035	869.884
293.774	21.702	1140.888	868.988
294.789	21.946	1140.631	869.925
295.803	22.009	1139.796	869.521
296.818	21.672	1138.800	867.018
297.833	21.652	1137.550	865.889
298.847	21.638	1137.025	865.345
299.862	21.694	1136.453	865.110
300.876	21.724	1135.788	864.677
301.891	21.818	1135.057	864.504
302.906	22.076	1134.537	865.302
303.920	22.204	1134.411	865.762
304.935	22.252	1133.851	865.492
305.949	22.405	1133.108	865.600
306.964	22.378	1132.190	864.690
307.979	22.147	1131.601	863.030
308.993	22.034	1130.958	861.910
310.008	22.182	1130.180	861.965
311.022	22.279	1129.588	861.914
312.037	22.052	1128.992	860.272
313.052	21.841	1127.665	858.151
314.066	21.894	1125.721	856.854
315.081	21.522	1124.998	854.413
316.095	21.417	1124.903	853.753
317.110	21.475	1123.947	853.233
318.125	21.565	1123.303	853.110
319.139	21.501	1122.808	852.344
320.154	21.540	1121.886	851.761
321.168	21.470	1121.566	851.101
322.183	21.594	1120.609	850.901
323.197	21.638	1120.172	850.707
324.212	21.675	1119.823	850.546
325.227	21.844	1119.210	850.827
326.241	21.862	1118.306	850.151
327.256	21.744	1117.416	848.830
328.270	21.722	1116.349	847.835
329.285	21.702	1115.340	846.899
330.300	21.683	1114.687	846.238
331.314	21.597	1113.828	845.094
332.329	21.678	1112.942	844.739
333.343	21.828	1111.984	844.659
334.358	21.978	1111.647	845.049
335.373	22.079	1110.923	844.911
336.387	22.181	1110.159	844.745
337.402	22.174	1109.775	844.346
338.416	22.120	1109.580	843.863
339.431	22.332	1108.484	843.969
340.446	22.405	1108.327	844.125
341.460	22.637	1107.919	844.852
342.475	22.774	1106.679	844.490
343.489	22.703	1106.225	843.728
344.504	22.869	1104.907	843.442
345.519	23.020	1104.052	843.435
346.533	22.933	1104.036	842.931
347.548	23.041	1103.003	842.585
348.562	22.848	1102.178	840.962
349.577	22.510	1101.326	838.626
350.592	22.287	1100.036	836.511
351.606	22.062	1099.386	834.870
352.621	21.943	1098.538	833.590
353.635	21.953	1097.891	833.072
354.650	22.057	1097.381	833.103
355.665	22.058	1096.656	832.484
356.679	22.136	1096.160	832.404
357.694	22.338	1095.278	832.614
358.708	22.338	1094.810	832.188
359.723	22.475	1094.635	832.630
360.738	22.379	1093.568	831.290
361.752	22.453	1093.217	831.298
362.767	22.473	1092.345	830.655
363.781	22.408	1092.056	830.059
364.796	22.647	1091.797	830.915
365.810	22.933	1091.237	831.758
366.825	22.966	1090.858	831.554
367.840	23.126	1090.377	831.866
368.854	23.355	1089.731	832.373
369.869	23.127	1089.171	830.801
370.883	23.053	1087.851	829.374
371.898	22.856	1087.109	827.813
372.913	22.880	1086.421	827.329
373.927	22.962	1085.995	827.312
374.942	23.126	1085.818	827.874
375.956	23.026	1085.224	826.878
376.971	22.979	1083.996	825.649
377.986	23.019	1084.221	825.936
379.000	23.192	1083.324	825.986
380.015	23.281	1082.826	825.950
381.029	23.296	1082.202	825.469
382.044	23.210	1081.613	824.547
383.059	23.225	1080.799	823.926
384.073	23.163	1080.232	823.131
385.088	23.321	1078.827	822.721
386.102	23.299	1078.120	822.006
387.117	23.073	1076.776	819.863
388.132	22.808	1075.741	817.771
389.146	22.807	1074.731	816.927
390.161	22.810	1074.295	816.537
391.175	22.729	1073.777	815.698
392.190	22.920	1073.140	816.026
393.205	23.199	1072.645	816.866
394.219	23.141	1071.804	815.884
395.234	22.993	1070.562	814.183
396.248	22.791	1069.540	812.406
397.263	22.872	1068.404	811.843
398.278	22.767	1067.706	810.758
399.292	22.604	1067.042	809.435
400.307	22.491	1066.348	808.317
401.321	22.521	1065.774	807.949
402.336	22.509	1064.902	807.160
403.350	22.542	1064.140	806.664
404.365	22.501	1064.297	806.523
405.380	22.799	1063.378	807.118
406.394	22.959	1062.547	807.149
407.409	23.031	1061.879	806.896
408.423	23.106	1061.741	807.061
409.438	23.314	1061.307	807.610
410.453	23.399	1060.581	807.374
411.467	23.488	1059.332	806.758
412.482	23.561	1059.119	806.854
413.496	23.575	1058.709	806.533
414.511	23.562	1058.213	806.027
415.526	23.814	1057.921	806.877
416.540	23.818	1057.478	806.486
417.555	23.809	1056.619	805.720
418.569	23.714	1055.798	804.592
419.584	23.447	1055.705	803.237
420.599	23.609	1054.839	803.243
421.613	157.538	1403.679	1797.675
422.628	144.688	1454.502	1797.758
