DTS Sentinel unit serial number:	SN413079Multiplexer serial number:	ORYXHardware model number:	OX4-SRSoftware version number:	ORYX F/W v4.00 Oryx Data Collector v3.7.2.0data status	okinstallation	princeton_trtdifferential loss correction	single-endedforward channel	channel 2reverse channel	N/Adate	2019/09/18time	23:03:35forward acquisition time	60.00reverse acquisition time	0.00gamma	496.2192k internal	0.2349k external	0.2349temperature offset calibration	1.0021default loss term (dB/km)	0.3790temperature slope calibration	1.0000multiplexer offset coefficient	1.0000multiplexer slope coefficient	1.0000fibre end	0.00T internal ref (°C)	24.00T ext. ref 1 (°C)	0.79T ext. ref 2 (°C)	17.89length (m)	temperature (°C)	Stokes	anti-Stokes-747.200	-5.336	0.115	-0.079
-746.185	-200.000	0.035	0.379
-745.171	138.182	0.049	-0.065
-744.156	-200.000	0.064	0.390
-743.142	638.295	0.084	-0.214
-742.127	-40.045	-0.295	0.153
-741.112	448.401	-0.146	-0.321
-740.098	157.096	-0.053	0.074
-739.083	-77.308	-0.084	0.029
-738.069	-200.000	0.013	0.128
-737.054	-94.027	-0.292	0.080
-736.039	-200.000	0.094	-0.573
-735.025	178.020	-0.232	0.338
-734.010	17.798	-0.417	-0.332
-732.996	40.078	0.088	-0.079
-731.981	800.000	0.078	0.291
-730.966	-56.254	-0.285	0.127
-729.952	800.000	0.016	-0.060
-728.937	-200.000	0.006	-0.326
-727.923	41.378	-0.085	-0.077
-726.908	81.428	-0.266	0.287
-725.894	482.854	-0.120	-0.272
-724.879	-200.000	-0.047	-0.309
-723.864	-50.586	0.333	0.157
-722.850	159.017	0.206	-0.286
-721.835	-200.000	-0.025	-0.162
-720.821	-142.551	-0.115	0.011
-719.806	57.100	-0.032	0.031
-718.791	800.000	-0.081	-0.235
-717.777	-200.000	0.019	0.176
-716.762	-79.032	0.201	0.068
-715.748	800.000	-0.105	0.296
-714.733	768.498	0.085	-0.231
-713.718	-109.882	-0.148	-0.031
-712.704	191.050	-0.166	-0.249
-711.689	-9.066	0.205	-0.137
-710.675	-119.925	-0.474	-0.081
-709.660	-142.719	0.265	0.026
-708.645	-161.484	-0.519	0.027
-707.631	800.000	0.056	0.243
-706.616	-163.486	0.080	0.004
-705.602	81.035	0.140	0.151
-704.587	-30.724	0.155	-0.088
-703.572	-98.391	0.126	-0.032
-702.558	-50.112	-0.191	-0.090
-701.543	677.734	0.050	-0.129
-700.529	143.450	0.145	-0.193
-699.514	59.551	0.026	0.026
-698.499	419.964	-0.082	-0.175
-697.485	800.000	0.026	-0.084
-696.470	-59.622	-0.166	-0.071
-695.456	-200.000	0.051	0.343
-694.441	-40.521	-0.287	-0.148
-693.426	-29.946	0.112	0.064
-692.412	800.000	-0.036	0.108
-691.397	800.000	0.054	-0.180
-690.383	202.277	0.022	0.034
-689.368	800.000	-0.006	0.027
-688.354	-49.280	0.349	-0.166
-687.339	43.545	-0.232	0.211
-686.324	-120.115	-0.291	0.050
-685.310	-39.229	-0.206	0.108
-684.295	251.796	0.157	-0.267
-683.281	126.706	0.106	-0.134
-682.266	197.098	0.065	0.099
-681.251	-200.000	-0.002	-0.130
-680.237	231.290	0.123	0.200
-679.222	-115.578	-0.174	-0.033
-678.208	800.000	-0.101	-0.283
-677.193	-200.000	-0.003	-0.256
-676.178	-71.928	-0.289	-0.107
-675.164	-139.527	0.357	-0.038
-674.149	800.000	-0.026	-0.108
-673.135	-13.922	-0.128	0.082
-672.120	-22.208	-0.171	0.103
-671.105	536.066	-0.036	-0.085
-670.091	355.376	-0.146	-0.290
-669.076	-61.297	0.161	0.068
-668.062	-71.916	-0.388	-0.144
-667.047	-200.000	-0.012	-0.354
-666.032	800.000	-0.069	-0.281
-665.018	740.941	-0.044	0.116
-664.003	-75.572	-0.188	-0.067
-662.989	-166.830	-0.327	-0.013
-661.974	800.000	0.027	-0.084
-660.959	-15.678	0.106	0.067
-659.945	-141.986	0.361	-0.036
-658.930	283.832	-0.165	-0.295
-657.916	225.665	0.083	-0.134
-656.901	-108.124	0.025	0.005
-655.886	-3.347	0.274	-0.190
-654.872	-24.571	0.137	-0.081
-653.857	210.392	0.082	0.128
-652.843	-200.000	-0.010	0.207
-651.828	-68.848	0.071	0.027
-650.814	163.643	-0.166	-0.232
-649.799	5.829	-0.040	0.029
-648.784	-69.358	-0.136	0.052
-647.770	-20.688	-0.282	0.172
-646.755	-200.000	0.054	0.427
-645.741	-50.088	-0.101	0.048
-644.726	8.020	0.205	-0.153
-643.711	74.549	0.149	0.156
-642.697	76.549	-0.210	0.222
-641.682	-62.920	-0.085	-0.035
-640.668	73.599	-0.025	0.026
-639.653	800.000	0.071	-0.272
-638.638	-200.000	-0.022	-0.243
-637.624	112.149	0.105	0.126
-636.609	800.000	-0.051	-0.154
-635.595	-99.852	0.198	-0.049
-634.580	184.265	-0.213	-0.313
-633.565	-200.000	0.005	-0.115
-632.551	-101.259	0.251	0.061
-631.536	-154.851	-0.376	-0.025
-630.522	-77.496	0.336	0.116
-629.507	83.809	0.080	-0.087
-628.492	-2.739	0.225	0.156
-627.478	12.896	-0.400	0.307
-626.463	26.911	0.165	-0.137
-625.449	-37.858	0.305	-0.161
-624.434	-200.000	-0.004	-0.028
-623.419	-100.449	-0.369	0.091
-622.405	-13.318	0.186	-0.120
-621.390	461.768	0.023	-0.051
-620.376	-200.000	-0.034	-0.446
-619.361	-61.548	0.314	-0.131
-618.346	-200.000	-0.005	-0.127
-617.332	-14.239	0.104	-0.066
-616.317	-200.000	0.043	0.243
-615.303	800.000	-0.114	0.319
-614.288	-106.838	0.096	-0.021
-613.273	-23.821	0.126	-0.075
-612.259	-200.000	0.040	-0.179
-611.244	261.913	0.235	-0.404
-610.230	537.236	-0.126	-0.298
-609.215	-123.052	0.270	-0.043
-608.201	133.114	-0.186	-0.239
-607.186	-77.063	0.032	0.011
-606.171	-86.113	0.083	-0.026
-605.157	-200.000	-0.011	0.068
-604.142	-120.193	0.145	0.025
-603.128	212.454	-0.083	-0.130
-602.113	-87.245	0.390	0.118
-601.098	-128.381	-0.043	-0.006
-600.084	-14.610	-0.122	0.078
-599.069	66.060	-0.142	0.143
-598.055	800.000	-0.146	0.473
-597.040	800.000	-0.093	-0.264
-596.025	121.018	0.105	0.129
-595.011	402.906	-0.142	-0.297
-593.996	800.000	0.008	-0.027
-592.982	186.426	0.089	0.131
-591.967	-94.117	-0.424	-0.115
-590.952	-91.312	-0.185	0.052
-589.938	184.275	0.088	-0.129
-588.923	-81.530	-0.139	-0.045
-587.909	-81.913	-0.212	-0.069
-586.894	80.988	-0.073	0.079
-585.879	-173.549	0.057	0.002
-584.865	-138.673	-0.167	-0.018
-583.850	800.000	-0.045	0.126
-582.836	116.611	-0.348	-0.424
-581.821	-46.267	0.163	0.080
-580.806	157.540	-0.060	-0.082
-579.792	33.533	0.193	0.167
-578.777	-200.000	0.056	0.434
-577.763	15.570	-0.216	0.168
-576.748	-5.647	-0.210	-0.143
-575.733	38.678	0.239	-0.212
-574.719	431.895	-0.106	0.228
-573.704	-100.427	-0.178	-0.044
-572.690	306.016	-0.180	0.333
-571.675	-49.405	-0.400	0.189
-570.661	51.759	-0.097	0.091
-569.646	-194.679	-0.220	0.002
-568.631	296.831	-0.048	-0.088
-567.617	57.396	0.197	-0.191
-566.602	30.023	-0.124	0.105
-565.588	-65.387	0.246	0.098
-564.573	-68.538	-0.558	-0.214
-563.558	85.345	0.086	0.093
-562.544	720.548	0.045	0.119
-561.529	450.287	0.048	0.104
-560.515	-99.383	0.290	-0.072
-559.500	51.721	0.010	0.010
-558.485	-89.232	-0.295	-0.086
-557.471	-200.000	-0.032	-0.142
-556.456	800.000	0.077	0.237
-555.442	379.299	0.120	-0.244
-554.427	-33.671	-0.106	0.058
-553.412	-200.000	-0.024	-0.260
-552.398	439.712	0.189	-0.410
-551.383	-137.512	-0.174	-0.019
-550.369	271.241	0.018	0.032
-549.354	800.000	-0.009	0.033
-548.339	284.614	-0.138	-0.247
-547.325	329.027	-0.164	-0.312
-546.310	-185.386	-0.101	-0.002
-545.296	279.505	0.133	0.234
-544.281	-128.403	0.208	0.029
-543.266	-41.093	-0.069	0.035
-542.252	83.553	-0.195	0.211
-541.237	-200.000	-0.015	-0.316
-540.223	0.806	0.080	0.057
-539.208	-44.660	0.038	-0.019
-538.193	107.375	-0.096	0.113
-537.179	-30.441	-0.164	0.092
-536.164	153.037	-0.104	0.141
-535.150	-200.000	0.016	0.206
-534.135	67.839	0.062	0.063
-533.121	6.148	0.215	0.158
-532.106	-200.000	0.010	-0.051
-531.091	277.772	0.125	0.220
-530.077	-28.501	-0.169	-0.096
-529.062	-129.420	-0.223	0.031
-528.048	734.718	0.123	-0.326
-527.033	495.942	0.043	-0.097
-526.018	-200.000	0.053	0.321
-525.004	-200.000	-0.024	0.219
-523.989	143.416	-0.014	0.018
-522.975	-111.372	0.175	0.035
-521.960	183.520	-0.061	0.090
-520.945	-47.272	0.230	0.111
-519.931	-200.000	0.029	-0.155
-518.916	-131.137	-0.113	0.015
-517.902	800.000	0.048	-0.154
-516.887	-84.343	-0.203	-0.064
-515.872	-97.171	0.056	-0.014
-514.858	-60.964	0.129	0.054
-513.843	66.901	-0.175	0.176
-512.829	-200.000	-0.018	-0.136
-511.814	-200.000	0.024	-0.120
-510.799	87.948	0.131	-0.144
-509.785	53.484	0.239	-0.226
-508.770	-140.729	-0.153	-0.016
-507.756	-71.695	0.308	-0.114
-506.741	106.844	0.144	0.169
-505.726	800.000	0.023	-0.098
-504.712	-200.000	0.006	-0.450
-503.697	768.285	-0.075	0.202
-502.683	-43.032	0.294	0.148
-501.668	-200.000	-0.059	-0.391
-500.653	95.665	-0.168	-0.190
-499.639	-100.872	0.178	0.043
-498.624	211.167	-0.135	0.210
-497.610	-200.000	0.000	0.204
-496.595	35.775	0.350	-0.304
-495.581	28.497	0.024	0.020
-494.566	-200.000	-0.004	0.089
-493.551	-1.222	-0.167	-0.117
-492.537	-93.334	-0.362	-0.099
-491.522	-182.840	0.347	0.006
-490.508	-16.833	-0.182	-0.114
-489.493	800.000	0.110	-0.425
-488.478	-33.363	0.265	0.145
-487.464	60.072	0.108	0.106
-486.449	-143.265	0.263	0.025
-485.435	-200.000	0.024	0.410
-484.420	183.283	-0.159	0.232
-483.405	-103.310	0.319	0.074
-482.391	-77.784	0.329	-0.112
-481.376	-200.000	0.032	0.158
-480.362	794.074	0.068	0.186
-479.347	405.481	0.112	-0.233
-478.332	-142.146	-0.084	-0.008
-477.318	-92.601	-0.298	0.083
-476.303	-200.000	0.025	-0.193
-475.289	297.421	-0.219	0.398
-474.274	-94.120	0.131	0.036
-473.259	-200.000	0.003	-0.114
-472.245	59.505	0.069	-0.067
-471.230	308.266	-0.194	0.358
-470.216	53.392	0.311	0.295
-469.201	-46.257	0.135	-0.066
-468.186	51.658	0.056	0.053
-467.172	-200.000	0.003	-0.019
-466.157	20.244	0.158	-0.126
-465.143	34.443	-0.219	-0.189
-464.128	-63.979	0.120	0.049
-463.113	-200.000	-0.018	-0.139
-462.099	-136.711	-0.376	0.043
-461.084	-200.000	0.034	-0.263
-460.070	-60.856	-0.135	-0.056
-459.055	-37.148	0.258	0.136
-458.040	-200.000	0.001	-0.266
-457.026	-17.150	0.202	0.126
-456.011	-85.171	0.248	0.076
-454.997	-200.000	0.036	0.186
-453.982	8.182	-0.233	0.173
-452.968	141.853	0.093	0.122
-451.953	-126.896	-0.465	0.068
-450.938	-105.907	0.308	0.068
-449.924	-200.000	-0.058	-0.343
-448.909	108.274	-0.179	-0.211
-447.895	-54.055	-0.482	-0.216
-446.880	11.328	0.064	-0.048
-445.865	-108.732	-0.387	0.082
-444.851	50.998	-0.093	-0.087
-443.836	-200.000	-0.033	-0.177
-442.822	800.000	0.109	-0.330
-441.807	-78.463	-0.320	0.108
-440.792	-200.000	-0.026	0.378
-439.778	-113.853	-0.334	0.064
-438.763	196.041	-0.051	-0.076
-437.749	74.509	0.214	-0.222
-436.734	40.050	0.187	-0.166
-435.719	-86.807	0.279	0.084
-434.705	-13.854	0.275	-0.175
-433.690	126.752	0.106	0.133
-432.676	-200.000	-0.012	-0.054
-431.661	-61.873	0.130	0.053
-430.646	-106.273	-0.221	-0.049
-429.632	-3.982	0.288	0.197
-428.617	800.000	-0.111	0.321
-427.603	330.060	0.132	0.251
-426.588	-34.551	-0.150	-0.081
-425.573	-200.000	-0.039	0.334
-424.559	94.335	-0.240	-0.269
-423.544	-200.000	0.002	-0.021
-422.530	271.882	0.050	-0.087
-421.515	231.504	-0.159	0.257
-420.500	33.872	-0.018	-0.015
-419.486	52.348	0.117	0.110
-418.471	800.000	0.028	-0.093
-417.457	-134.953	-0.215	-0.026
-416.442	57.942	0.361	-0.348
-415.428	-35.616	-0.351	-0.188
-414.413	-72.758	-0.250	-0.091
-413.398	-200.000	0.001	-0.144
-412.384	800.000	0.062	-0.174
-411.369	328.789	-0.010	0.019
-410.355	-84.235	0.333	-0.104
-409.340	800.000	0.058	0.204
-408.325	800.000	-0.131	0.392
-407.311	13.227	-0.166	0.127
-406.296	332.015	0.076	-0.145
-405.282	271.181	-0.141	0.245
-404.267	-116.028	-0.363	-0.067
-403.252	42.163	-0.107	-0.096
-402.238	-134.528	0.104	-0.013
-401.223	67.265	0.087	-0.088
-400.209	-133.558	-0.234	0.029
-399.194	7.072	0.134	0.099
-398.179	-200.000	-0.002	0.176
-397.165	317.909	0.055	-0.103
-396.150	-114.338	-0.228	-0.043
-395.136	123.467	-0.109	0.135
-394.121	110.266	-0.208	0.246
-393.106	11.521	-0.338	-0.256
-392.092	83.006	-0.114	-0.122
-391.077	90.170	0.158	0.174
-390.063	-200.000	0.049	0.236
-389.048	-200.000	0.019	0.196
-388.033	-200.000	-0.012	0.191
-387.019	270.769	-0.160	0.277
-386.004	800.000	0.115	0.401
-384.990	-11.681	-0.317	0.205
-383.975	-78.872	0.130	-0.043
-382.960	-200.000	-0.011	-0.316
-381.946	-11.018	0.332	0.216
-380.931	-168.705	-0.197	0.007
-379.917	1.565	0.430	0.305
-378.902	149.320	0.105	0.140
-377.888	-83.378	-0.253	-0.080
-376.873	-200.000	-0.008	-0.165
-375.858	-58.190	0.170	0.073
-374.844	800.000	0.116	-0.337
-373.829	-95.329	-0.010	0.003
-372.815	200.374	0.080	-0.122
-371.800	1.989	-0.155	-0.110
-370.785	161.938	0.113	-0.156
-369.771	-31.878	-0.046	0.025
-368.756	6.417	0.130	0.095
-367.742	-169.329	-0.228	0.008
-366.727	205.817	-0.034	-0.052
-365.712	-14.218	0.127	-0.080
-364.698	-133.964	-0.299	0.036
-363.683	-194.872	0.383	0.003
-362.669	-183.361	-0.290	0.005
-361.654	580.284	-0.087	-0.210
-360.639	-198.921	0.153	0.001
-359.625	-140.714	0.224	0.023
-358.610	34.738	-0.078	-0.067
-357.596	-200.000	-0.013	0.203
-356.581	-5.744	0.203	-0.137
-355.566	-145.010	-0.065	-0.006
-354.552	305.864	0.128	0.234
-353.537	-200.000	-0.009	-0.044
-352.523	285.482	-0.058	-0.102
-351.508	354.488	-0.210	-0.410
-350.493	-90.692	0.142	-0.040
-349.479	-139.446	-0.460	-0.048
-348.464	-72.581	0.115	0.042
-347.450	-18.161	0.062	-0.038
-346.435	258.712	-0.121	-0.205
-345.420	323.339	0.010	0.018
-344.406	-102.040	0.246	0.058
-343.391	-82.924	0.161	-0.051
-342.377	-200.000	-0.009	-0.115
-341.362	604.048	-0.174	0.426
-340.348	321.971	0.167	0.313
-339.333	-200.000	-0.016	-0.383
-338.318	-143.927	0.166	-0.015
-337.304	800.000	-0.148	-0.507
-336.289	-28.400	-0.046	0.026
-335.275	14.717	0.138	0.106
-334.260	71.010	-0.228	-0.232
-333.245	-100.358	-0.137	-0.033
-332.231	-122.406	-0.083	0.013
-331.216	-200.000	0.021	0.184
-330.202	-127.551	-0.090	0.013
-329.187	148.814	-0.191	-0.254
-328.172	-114.034	-0.077	-0.015
-327.158	-75.998	0.135	-0.047
-326.143	-185.445	-0.163	0.002
-325.129	31.053	-0.183	0.154
-324.114	285.342	0.161	0.285
-323.099	800.000	-0.032	0.101
-322.085	52.261	-0.035	0.033
-321.070	591.802	-0.078	-0.189
-320.056	167.943	0.064	0.089
-319.041	476.985	0.071	0.158
-318.026	148.981	0.225	0.298
-317.012	-79.511	0.046	-0.015
-315.997	-76.040	0.222	-0.077
-314.983	-19.944	0.063	0.038
-313.968	800.000	0.080	-0.318
-312.953	-135.775	0.146	-0.017
-311.939	-200.000	-0.044	0.366
-310.924	-111.669	0.160	-0.032
-309.910	-86.455	-0.504	0.152
-308.895	-132.840	0.332	0.042
-307.880	492.685	-0.065	-0.146
-306.866	-27.210	0.203	-0.116
-305.851	357.465	0.218	-0.427
-304.837	-200.000	0.020	0.137
-303.822	1.612	-0.149	-0.105
-302.807	-1.894	0.113	0.078
-301.793	-28.781	0.076	-0.043
-300.778	-200.000	0.095	-0.410
-299.764	-200.000	-0.002	-0.044
-298.749	800.000	0.065	-0.257
-297.735	499.495	0.071	0.161
-296.720	-88.184	-0.242	-0.071
-295.705	-128.668	0.182	-0.025
-294.691	195.307	-0.148	-0.221
-293.676	53.799	-0.067	-0.063
-292.662	-77.424	-0.064	0.022
-291.647	270.913	-0.168	0.290
-290.632	80.374	0.122	0.129
-289.618	268.909	0.327	-0.563
-288.603	0.881	0.073	0.051
-287.589	635.060	-0.091	0.226
-286.574	186.809	-0.193	0.282
-285.559	64.094	-0.355	0.351
-284.545	-105.630	-0.172	-0.038
-283.530	-155.066	0.354	-0.023
-282.516	92.286	-0.152	-0.168
-281.501	-176.962	0.286	0.007
-280.486	125.486	-0.044	0.055
-279.472	-200.000	0.005	0.160
-278.457	-63.754	0.374	0.150
-277.443	91.106	0.262	-0.288
-276.428	-200.000	-0.036	-0.176
-275.413	800.000	-0.122	0.353
-274.399	-70.315	0.154	0.057
-273.384	-178.058	-0.169	-0.004
-272.370	42.377	-0.161	0.143
-271.355	-102.421	0.280	-0.066
-270.340	32.833	-0.118	-0.100
-269.326	-200.000	-0.008	-0.279
-268.311	80.846	0.106	-0.112
-267.297	624.009	0.081	0.200
-266.282	-133.684	0.049	0.006
-265.267	21.034	-0.049	-0.039
-264.253	-150.330	0.319	0.024
-263.238	-92.647	0.110	0.030
-262.224	-144.543	-0.045	-0.004
-261.209	51.460	0.221	-0.206
-260.195	702.198	-0.078	-0.202
-259.180	-154.320	-0.300	-0.020
-258.165	-74.703	-0.046	-0.016
-257.151	-200.000	-0.013	-0.116
-256.136	-82.409	0.094	-0.030
-255.122	-95.467	-0.254	-0.067
-254.107	27.953	0.348	0.288
-253.092	139.237	-0.064	-0.083
-252.078	-35.954	0.139	0.074
-251.063	154.967	-0.116	0.156
-250.049	313.339	-0.085	-0.156
-249.034	-11.612	0.219	0.141
-248.019	350.271	-0.038	0.074
-247.005	62.203	0.349	0.341
-245.990	-38.887	0.181	0.093
-244.976	-69.085	-0.135	0.051
-243.961	-104.080	-0.259	0.059
-242.946	2.039	0.123	0.087
-241.932	-200.000	-0.017	0.323
-240.917	-78.706	0.192	-0.064
-239.903	-200.000	-0.048	0.208
-238.888	383.342	0.085	-0.172
-237.873	-109.363	0.106	-0.022
-236.859	98.402	0.220	-0.248
-235.844	-133.014	-0.271	-0.034
-234.830	-200.000	-0.076	-0.359
-233.815	-200.000	-0.062	0.278
-232.800	-108.553	0.222	-0.047
-231.786	800.000	-0.028	-0.108
-230.771	177.734	-0.143	-0.204
-229.757	-46.536	0.268	0.129
-228.742	800.000	0.086	-0.246
-227.727	-192.088	-0.226	-0.002
-226.713	2.683	0.254	0.180
-225.698	498.339	0.089	-0.201
-224.684	-26.137	0.103	-0.059
-223.669	-60.694	0.301	-0.125
-222.655	143.846	-0.122	0.159
-221.640	-200.000	-0.016	0.211
-220.625	205.337	-0.087	0.132
-219.611	800.000	0.080	0.288
-218.596	800.000	-0.060	0.164
-217.582	225.508	0.097	0.154
-216.567	800.000	0.037	-0.147
-215.552	-192.209	0.355	-0.003
-214.538	-200.000	0.006	0.151
-213.523	76.890	-0.270	-0.280
-212.509	-200.000	-0.059	0.270
-211.494	545.413	-0.133	-0.310
-210.479	-16.933	-0.086	0.053
-209.465	-200.000	0.025	-0.252
-208.450	-45.207	-0.028	0.013
-207.436	670.635	-0.120	0.304
-206.421	368.861	0.199	-0.393
-205.406	81.035	0.041	0.043
-204.392	-11.151	-0.247	-0.159
-203.377	84.824	-0.048	0.052
-202.363	40.972	0.082	0.072
-201.348	800.000	0.109	0.355
-200.333	-200.000	-0.053	0.318
-199.319	712.062	-0.067	-0.174
-198.304	-9.401	0.052	-0.034
-197.290	-98.391	-0.016	0.004
-196.275	-200.000	0.070	-0.461
-195.260	26.202	0.326	0.266
-194.246	800.000	0.015	0.048
-193.231	-127.720	0.338	0.048
-192.217	49.653	-0.218	0.201
-191.202	-200.000	-0.003	-0.239
-190.187	355.386	-0.173	-0.337
-189.173	-143.749	0.246	-0.023
-188.158	-31.047	0.222	0.122
-187.144	18.168	0.128	-0.100
-186.129	-79.444	0.280	0.093
-185.114	16.760	-0.204	0.157
-184.100	437.181	-0.131	0.279
-183.085	456.614	0.114	0.248
-182.071	-22.997	-0.279	0.164
-181.056	96.523	-0.100	-0.112
-180.042	48.398	-0.161	0.147
-179.027	-200.000	0.015	0.137
-178.012	6.553	-0.132	0.096
-176.998	-67.193	-0.286	-0.110
-175.983	-186.562	-0.282	-0.004
-174.969	-76.170	-0.297	0.102
-173.954	-171.622	-0.315	-0.010
-172.939	-200.000	-0.040	0.318
-171.925	800.000	0.090	-0.258
-170.910	-200.000	-0.001	-0.120
-169.896	-200.000	0.007	0.122
-168.881	-168.229	0.140	0.005
-167.866	-7.645	-0.060	0.040
-166.852	37.958	-0.161	-0.140
-165.837	800.000	0.047	-0.148
-164.823	122.849	-0.116	0.142
-163.808	-15.822	0.119	-0.074
-162.793	-200.000	0.000	0.119
-161.779	-129.869	-0.409	0.055
-160.764	-64.678	-0.184	0.073
-159.750	54.057	-0.306	-0.287
-158.735	-8.091	0.202	0.133
-157.720	-32.790	-0.099	0.054
-156.706	174.777	0.118	-0.167
-155.691	-200.000	-0.031	-0.206
-154.677	434.749	0.140	-0.297
-153.662	-90.087	0.387	0.110
-152.647	-200.000	-0.006	0.131
-151.633	-32.188	0.255	0.139
-150.618	747.830	0.057	0.151
-149.604	-66.391	-0.148	0.057
-148.589	-112.794	-0.493	-0.095
-147.574	-29.673	-0.138	-0.077
-146.560	16.642	-0.274	0.211
-145.545	-123.041	-0.219	0.034
-144.531	312.508	0.040	0.073
-143.516	-200.000	-0.025	0.117
-142.502	-37.375	0.337	0.176
-141.487	-200.000	-0.000	0.062
-140.472	377.223	-0.185	0.368
-139.458	800.000	0.045	0.152
-138.443	-62.650	0.082	0.033
-137.429	82.077	0.076	0.080
-136.414	-89.046	0.225	-0.065
-135.399	108.511	-0.122	0.142
-134.385	-200.000	-0.023	0.174
-133.370	-113.241	-0.202	0.039
-132.356	-45.823	0.125	0.060
-131.341	-127.788	-0.345	0.049
-130.326	295.364	0.070	0.124
-129.312	238.493	-0.125	0.202
-128.297	-200.000	0.018	0.299
-127.283	800.000	-0.104	0.369
-126.268	800.000	0.061	0.170
-125.253	142.027	-0.180	0.233
-124.239	256.804	-0.021	0.035
-123.224	-22.537	0.246	-0.145
-122.210	-20.731	0.144	0.086
-121.195	297.701	-0.092	-0.165
-120.180	-6.009	0.265	0.176
-119.166	-74.017	-0.307	0.109
-118.151	-200.000	0.012	-0.285
-117.137	-15.095	-0.228	-0.142
-116.122	3.955	0.154	-0.110
-115.107	87.654	0.034	0.036
-114.093	518.647	0.124	-0.282
-113.078	-200.000	0.000	0.046
-112.064	-76.999	0.297	0.101
-111.049	330.156	0.105	-0.198
-110.034	511.847	0.056	-0.126
-109.020	-6.168	-0.221	0.147
-108.005	-178.660	-0.263	0.006
-106.991	-121.656	0.276	-0.045
-105.976	598.560	-0.117	0.283
-104.962	251.005	0.114	0.189
-103.947	387.504	-0.091	-0.183
-102.932	-7.074	-0.134	-0.088
-101.918	-200.000	0.046	0.384
-100.903	-141.412	0.103	-0.010
-99.889	800.000	0.104	0.284
-98.874	-31.537	-0.336	0.184
-97.859	-200.000	-0.033	0.279
-96.845	-82.471	-0.158	-0.050
-95.830	419.043	0.173	0.361
-94.816	-43.245	0.330	0.163
-93.801	800.000	0.057	0.165
-92.786	329.170	0.071	0.133
-91.772	261.885	-0.124	0.210
-90.757	-107.725	0.200	-0.042
-89.743	-173.272	0.133	0.004
-88.728	162.684	-0.123	0.168
-87.713	-37.445	0.104	-0.054
-86.699	-200.000	0.038	-0.233
-85.684	-140.288	0.298	0.030
-84.670	163.261	-0.124	0.169
-83.655	282.071	0.100	0.175
-82.640	117.364	0.174	0.209
-81.626	-188.296	-0.068	0.001
-80.611	236.028	0.134	-0.216
-79.597	-54.914	0.260	-0.114
-78.582	332.117	0.120	0.225
-77.567	357.268	-0.016	0.031
-76.553	294.341	0.119	0.211
-75.538	-46.127	0.296	-0.142
-74.524	329.685	0.046	-0.086
-73.509	-69.038	-0.441	-0.165
-72.494	431.062	0.108	-0.227
-71.480	22.558	-0.187	-0.149
-70.465	-42.139	-0.149	0.074
-69.451	-71.270	-0.425	-0.155
-68.436	-57.816	0.384	0.163
-67.422	800.000	0.110	0.408
-66.407	20.403	-0.088	0.069
-65.392	39.296	0.172	-0.150
-64.378	-111.893	-0.176	0.034
-63.363	647.771	0.009	0.023
-62.349	-29.129	0.209	0.117
-61.334	30.410	-1.030	-0.855
-60.319	5.373	0.723	0.518
-59.305	556.393	-0.559	-1.310
-58.290	154.699	0.939	1.254
-57.276	276.716	0.773	1.335
-56.261	-200.000	122.329	643.284
-55.246	435.442	1542.704	3261.675
-54.232	146.682	2708.125	3536.937
-53.217	92.012	2285.392	2500.642
-52.203	33.145	1898.588	1599.861
-51.188	27.098	1695.834	1383.073
-50.173	24.813	1657.068	1334.390
-49.159	45.675	1725.096	1549.046
-48.144	43.946	1737.025	1546.512
-47.130	26.664	1688.635	1373.697
-46.115	24.124	1672.919	1341.749
-45.100	23.901	1668.179	1336.220
-44.086	23.919	1665.795	1334.389
-43.071	23.909	1663.129	1332.126
-42.057	23.910	1661.222	1330.554
-41.042	23.845	1659.039	1328.265
-40.027	23.823	1657.454	1326.780
-39.013	23.832	1655.257	1325.034
-37.998	23.861	1653.764	1324.005
-36.984	23.824	1652.623	1322.767
-35.969	23.868	1651.149	1321.856
-34.954	23.979	1649.681	1321.457
-33.940	23.986	1648.045	1320.144
-32.925	23.977	1646.292	1318.622
-31.911	23.927	1644.858	1317.052
-30.896	24.033	1642.577	1315.959
-29.881	24.021	1641.027	1314.573
-28.867	23.997	1639.585	1313.187
-27.852	23.958	1638.465	1311.951
-26.838	24.023	1636.889	1311.115
-25.823	24.011	1635.794	1310.099
-24.809	24.103	1634.107	1309.371
-23.794	24.015	1632.814	1307.636
-22.779	24.064	1631.455	1306.859
-21.765	24.028	1629.909	1305.306
-20.750	23.957	1628.034	1303.227
-19.736	24.070	1626.913	1303.109
-18.721	24.158	1625.091	1302.237
-17.706	24.048	1624.067	1300.566
-16.692	23.983	1622.240	1298.578
-15.677	23.980	1621.359	1297.799
-14.663	24.091	1619.672	1297.200
-13.648	24.073	1618.404	1296.005
-12.633	24.081	1616.789	1294.716
-11.619	24.095	1614.850	1293.217
-10.604	24.038	1614.116	1292.166
-9.590	24.024	1612.528	1290.738
-8.575	24.024	1611.414	1289.796
-7.560	24.070	1609.576	1288.604
-6.546	24.089	1608.947	1288.187
-5.531	23.957	1608.123	1286.521
-4.517	24.063	1606.641	1286.056
-3.502	24.000	1605.910	1284.962
-2.487	24.120	1603.897	1284.168
-1.473	23.636	1591.983	1271.111
-0.458	20.696	1572.599	1234.756
0.556	16.205	1573.800	1203.024
1.571	13.898	1597.480	1204.300
2.586	13.596	1608.695	1210.438
3.600	12.528	1555.687	1162.902
4.615	7.238	1449.060	1048.183
5.629	1.815	1389.679	970.664
6.644	0.917	1382.757	960.047
7.659	0.817	1381.511	958.466
8.673	0.707	1380.295	956.843
9.688	0.719	1378.622	955.674
10.702	0.528	1374.819	951.745
11.717	3.190	1378.483	971.010
12.731	9.863	1389.094	1020.714
13.746	15.743	1397.108	1063.809
14.761	17.297	1398.751	1074.793
15.775	16.773	1396.542	1069.695
16.790	15.742	1394.474	1061.513
17.804	14.928	1392.003	1054.410
18.819	14.533	1390.832	1050.937
19.834	14.380	1389.952	1049.215
20.848	14.148	1387.719	1045.977
21.863	13.960	1386.407	1043.718
22.877	13.693	1385.911	1041.578
23.892	13.671	1384.396	1040.206
24.907	13.663	1383.970	1039.742
25.921	13.658	1382.899	1038.817
26.936	13.761	1381.931	1038.643
27.950	13.846	1380.828	1038.252
28.965	13.776	1379.980	1037.083
29.980	13.852	1379.204	1036.888
30.994	13.882	1377.941	1036.029
32.009	13.922	1377.065	1035.532
33.023	13.793	1376.162	1033.955
34.038	13.884	1374.685	1033.322
35.053	13.876	1373.898	1032.588
36.067	13.838	1372.541	1031.242
37.082	13.793	1371.434	1030.037
38.096	13.918	1370.217	1029.808
39.111	13.837	1369.824	1028.923
40.126	13.753	1369.246	1027.876
41.140	13.763	1367.977	1026.892
42.155	13.795	1367.243	1026.451
43.169	13.676	1367.720	1025.980
44.184	13.610	1367.727	1025.487
45.199	13.665	1366.958	1025.160
46.213	13.880	1365.964	1025.648
47.228	13.729	1365.471	1024.259
48.242	13.741	1364.052	1023.175
49.257	13.852	1362.512	1022.616
50.271	13.796	1360.664	1020.795
51.286	13.775	1359.577	1019.761
52.301	13.791	1358.562	1019.006
53.315	13.744	1357.190	1017.598
54.330	13.754	1356.597	1017.126
55.344	13.657	1355.440	1015.574
56.359	13.772	1353.758	1014.926
57.374	13.737	1352.762	1013.875
58.388	13.620	1352.315	1012.738
59.403	13.606	1351.780	1012.162
60.417	13.582	1351.223	1011.507
61.432	13.694	1350.154	1011.299
62.447	13.612	1349.226	1010.018
63.461	13.541	1348.274	1008.781
64.476	13.537	1346.572	1007.396
65.490	13.604	1345.534	1006.938
66.505	13.658	1344.004	1006.029
67.520	13.617	1342.907	1004.873
68.534	13.696	1341.717	1004.368
69.549	13.749	1340.364	1003.588
70.563	13.628	1339.700	1002.269
71.578	13.607	1338.632	1001.254
72.593	13.551	1337.756	1000.172
73.607	13.628	1336.541	999.642
74.622	13.599	1335.866	998.874
75.636	13.576	1335.412	998.309
76.651	13.648	1334.487	997.959
77.666	13.571	1334.024	997.063
78.680	13.614	1333.355	996.735
79.695	13.558	1332.495	995.667
80.709	13.566	1331.679	995.014
81.724	13.610	1331.151	994.797
82.739	13.608	1329.783	993.678
83.753	13.724	1328.880	993.608
84.768	13.814	1327.790	993.246
85.782	13.800	1326.641	992.212
86.797	13.752	1325.008	990.615
87.812	13.692	1324.107	989.500
88.826	13.627	1322.853	988.083
89.841	13.678	1321.839	987.546
90.855	13.754	1320.452	986.870
91.870	13.800	1319.632	986.448
92.884	13.769	1319.151	985.816
93.899	13.863	1318.036	985.453
94.914	13.882	1317.199	984.851
95.928	13.853	1316.805	984.296
96.943	13.855	1315.544	983.283
97.957	13.777	1314.669	982.076
98.972	13.894	1313.259	981.632
99.987	13.887	1312.395	980.857
101.001	13.863	1311.183	979.722
102.016	13.877	1310.276	979.039
103.030	13.858	1309.469	978.238
104.045	13.727	1309.312	977.263
105.060	13.845	1307.462	976.489
106.074	13.862	1306.140	975.514
107.089	13.726	1305.056	973.820
108.103	13.776	1303.560	972.911
109.118	13.764	1302.125	971.682
110.133	13.749	1300.513	970.309
111.147	13.734	1299.384	969.294
112.162	13.728	1298.224	968.306
113.176	13.668	1297.315	967.190
114.191	13.738	1296.494	966.905
115.206	13.828	1295.042	966.257
116.220	13.745	1293.694	964.682
117.235	13.792	1293.335	964.604
118.249	13.708	1292.254	963.225
119.264	13.772	1290.953	962.541
120.279	13.843	1289.218	961.574
121.293	13.619	1289.298	960.250
122.308	13.688	1288.048	959.633
123.322	13.788	1286.221	958.768
124.337	13.731	1285.447	957.778
125.352	13.736	1284.504	957.020
126.366	13.658	1283.239	955.542
127.381	13.752	1281.885	954.986
128.395	13.728	1281.031	954.128
129.410	13.598	1280.187	952.670
130.424	13.752	1279.467	952.931
131.439	13.775	1278.275	952.095
132.454	13.808	1277.218	951.413
133.468	13.798	1276.165	950.487
134.483	13.792	1275.475	949.854
135.497	13.723	1274.738	948.824
136.512	13.739	1273.159	947.655
137.527	13.787	1271.761	946.810
138.541	13.749	1270.358	945.463
139.556	13.788	1269.002	944.593
140.570	13.880	1267.651	944.027
141.585	13.928	1266.267	943.185
142.600	13.845	1265.573	942.114
143.614	13.887	1264.450	941.430
144.629	14.011	1263.331	941.219
145.643	13.954	1262.199	939.970
146.658	13.914	1260.847	938.651
147.673	13.863	1259.449	937.242
148.687	13.739	1259.055	936.166
149.702	13.808	1257.550	935.351
150.716	13.944	1255.929	934.829
151.731	13.952	1254.678	933.858
152.746	13.866	1253.871	932.696
153.760	13.907	1252.821	932.059
154.775	13.940	1251.301	931.030
155.789	14.066	1250.288	930.899
156.804	13.958	1249.203	929.405
157.819	14.090	1247.598	928.866
158.833	14.051	1247.079	928.182
159.848	14.101	1245.840	927.455
160.862	14.052	1244.970	926.451
161.877	14.039	1243.695	925.348
162.892	13.991	1242.811	924.342
163.906	13.941	1242.313	923.611
164.921	14.093	1241.328	923.646
165.935	14.021	1240.375	922.454
166.950	14.100	1239.871	922.433
167.964	14.109	1238.681	921.519
168.979	14.133	1237.971	921.042
169.994	14.098	1237.038	920.072
171.008	14.034	1236.806	919.465
172.023	14.188	1235.222	919.059
173.037	14.137	1234.974	918.509
174.052	14.242	1233.968	918.259
175.067	14.216	1232.883	917.228
176.081	14.180	1231.474	915.901
177.096	14.098	1231.339	915.263
178.110	14.163	1229.720	914.338
179.125	14.143	1228.634	913.338
180.140	14.080	1227.513	912.081
181.154	14.210	1226.151	911.701
182.169	14.169	1225.079	910.596
183.183	14.120	1224.123	909.537
184.198	14.335	1222.505	909.430
185.213	14.351	1221.110	908.401
186.227	14.315	1220.616	907.757
187.242	14.296	1219.493	906.735
188.256	14.405	1218.405	906.439
189.271	14.324	1217.304	905.100
190.286	14.265	1216.345	903.987
191.300	14.248	1215.383	903.099
192.315	14.249	1215.060	902.786
193.329	14.165	1214.320	901.702
194.344	14.281	1213.783	901.848
195.359	14.254	1213.381	901.323
196.373	14.380	1212.282	901.110
197.388	14.328	1212.538	900.939
198.402	14.483	1211.651	901.039
199.417	14.473	1210.708	900.206
200.432	14.516	1209.817	899.693
201.446	14.491	1209.354	899.138
202.461	14.637	1208.042	898.867
203.475	14.669	1207.024	898.201
204.490	14.515	1205.955	896.498
205.504	14.480	1204.673	895.278
206.519	14.508	1203.364	894.380
207.534	14.597	1202.117	893.847
208.548	14.584	1201.438	893.196
209.563	14.581	1200.533	892.426
210.577	14.569	1199.428	891.463
211.592	14.696	1198.922	891.686
212.607	14.686	1197.949	890.832
213.621	14.701	1197.119	890.212
214.636	14.743	1195.977	889.507
215.650	14.682	1195.368	888.653
216.665	14.769	1194.174	888.152
217.680	14.867	1193.144	887.826
218.694	14.679	1192.375	886.174
219.709	14.811	1191.800	886.372
220.723	14.777	1191.032	885.542
221.738	14.872	1190.015	885.210
222.753	14.841	1189.548	884.619
223.767	14.865	1188.747	884.075
224.782	14.927	1187.858	883.659
225.796	14.959	1187.583	883.546
226.811	14.874	1186.905	882.515
227.826	14.821	1186.062	881.530
228.840	14.879	1185.104	881.049
229.855	14.826	1184.848	880.501
230.869	14.921	1183.865	880.191
231.884	14.841	1182.823	878.920
232.899	14.852	1182.144	878.394
233.913	14.881	1181.397	877.915
234.928	14.937	1180.652	877.574
235.942	14.907	1179.813	876.716
236.957	14.872	1178.972	875.830
237.972	14.922	1178.123	875.385
238.986	14.879	1177.733	874.793
240.001	15.019	1176.949	874.864
241.015	15.008	1176.061	874.070
242.030	15.027	1175.141	873.411
243.045	14.997	1174.647	872.807
244.059	15.058	1173.119	871.913
245.074	15.023	1173.079	871.625
246.088	15.029	1172.198	870.925
247.103	15.066	1171.413	870.456
248.117	15.122	1170.525	870.007
249.132	15.227	1169.819	869.955
250.147	15.217	1169.085	869.279
251.161	15.211	1168.227	868.533
252.176	15.323	1167.249	868.309
253.190	15.388	1166.868	868.286
254.205	15.426	1166.094	867.825
255.220	15.294	1165.680	866.759
256.234	15.444	1165.060	866.995
257.249	15.419	1163.904	865.931
258.263	15.312	1163.825	865.243
259.278	15.349	1163.128	864.840
260.293	15.419	1162.640	864.761
261.307	15.501	1161.797	864.481
262.322	15.514	1161.368	864.150
263.336	15.498	1160.704	863.501
264.351	15.452	1160.056	862.702
265.366	15.654	1159.461	863.221
266.380	15.600	1158.579	862.214
267.395	15.578	1158.031	861.614
268.409	15.493	1156.857	860.229
269.424	15.619	1156.042	860.194
270.439	15.610	1156.045	860.071
271.453	15.581	1154.933	859.022
272.468	15.501	1154.095	857.912
273.482	15.599	1153.309	857.751
274.497	15.653	1152.326	857.223
275.512	15.430	1152.482	856.123
276.526	15.628	1151.497	856.324
277.541	15.575	1150.612	855.322
278.555	15.748	1150.007	855.679
279.570	15.660	1149.519	854.793
280.585	15.735	1148.499	854.336
281.599	15.820	1147.180	853.712
282.614	15.744	1146.395	852.669
283.628	15.778	1145.359	851.993
284.643	15.894	1144.424	851.809
285.657	15.865	1143.500	850.902
286.672	15.817	1143.113	850.292
287.687	15.921	1141.743	849.724
288.701	15.919	1141.298	849.306
289.716	15.889	1140.352	848.379
290.730	15.836	1139.445	847.360
291.745	15.945	1138.949	847.466
292.760	15.895	1138.292	846.652
293.774	15.963	1137.882	846.610
294.789	16.102	1136.883	846.490
295.803	16.029	1136.583	845.828
296.818	15.913	1136.324	844.979
297.833	16.064	1134.893	844.596
298.847	16.066	1134.142	843.972
299.862	15.964	1133.611	842.991
300.876	15.961	1133.204	842.598
301.891	16.174	1132.103	842.770
302.906	16.119	1131.398	841.895
303.920	16.150	1130.669	841.436
304.935	16.336	1129.712	841.576
305.949	16.178	1129.336	840.431
306.964	16.176	1128.586	839.788
307.979	16.214	1128.011	839.475
308.993	16.199	1127.297	838.798
310.008	16.176	1126.568	838.068
311.022	16.302	1125.522	837.837
312.037	16.291	1124.503	836.952
313.052	16.225	1123.632	835.901
314.066	16.214	1123.030	835.328
315.081	16.181	1122.321	834.560
316.095	16.266	1121.413	834.233
317.110	16.283	1120.912	833.870
318.125	16.305	1119.829	833.097
319.139	16.171	1119.894	832.410
320.154	16.306	1118.524	831.988
321.168	16.185	1118.355	831.192
322.183	16.174	1117.584	830.488
323.197	16.352	1116.603	830.561
324.212	16.264	1116.401	829.908
325.227	16.273	1115.856	829.470
326.241	16.369	1114.958	829.202
327.256	16.335	1113.977	828.234
328.270	16.412	1112.726	827.606
329.285	16.381	1112.343	827.096
330.300	16.382	1111.250	826.214
331.314	16.348	1110.492	825.414
332.329	16.428	1109.476	824.973
333.343	16.288	1108.878	823.772
334.358	16.389	1108.088	823.608
335.373	16.472	1106.999	823.129
336.387	16.482	1106.184	822.498
337.402	16.484	1105.413	821.861
338.416	16.404	1105.182	821.229
339.431	16.549	1104.311	821.214
340.446	16.632	1103.597	821.010
341.460	16.570	1102.872	820.100
342.475	16.633	1101.831	819.556
343.489	16.713	1100.687	819.023
344.504	16.655	1099.958	818.127
345.519	16.696	1099.056	817.582
346.533	16.620	1098.975	817.084
347.548	16.808	1097.855	817.085
348.562	16.783	1096.934	816.207
349.577	16.784	1096.163	815.565
350.592	16.697	1095.583	814.642
351.606	16.636	1095.021	813.860
352.621	16.784	1094.473	814.090
353.635	16.794	1093.128	813.068
354.650	16.695	1092.766	812.252
355.665	16.838	1091.868	812.195
356.679	16.785	1091.394	811.519
357.694	16.779	1090.738	810.929
358.708	16.817	1090.059	810.536
359.723	16.905	1089.144	810.205
360.738	16.851	1088.888	809.682
361.752	16.883	1088.228	809.273
362.767	16.968	1087.895	809.360
363.781	16.903	1087.283	808.523
364.796	16.992	1086.751	808.480
365.810	16.931	1086.046	807.593
366.825	17.033	1085.227	807.399
367.840	17.068	1084.967	807.301
368.854	17.062	1084.173	806.610
369.869	17.102	1083.459	806.195
370.883	17.111	1082.823	805.692
371.898	17.160	1081.587	804.936
372.913	17.215	1081.189	804.827
373.927	17.093	1081.005	804.041
374.942	17.140	1080.306	803.676
375.956	17.220	1079.439	803.335
376.971	17.237	1079.049	803.055
377.986	17.323	1078.176	802.743
379.000	17.263	1077.899	802.180
380.015	17.291	1077.358	801.840
381.029	17.352	1076.585	801.481
382.044	17.272	1075.749	800.408
383.059	17.417	1075.001	800.462
384.073	17.384	1074.101	799.568
385.088	17.317	1073.677	798.867
386.102	17.469	1072.222	798.428
387.117	17.258	1071.660	796.951
388.132	17.428	1070.621	796.903
389.146	17.546	1069.796	796.768
390.161	17.405	1069.259	795.638
391.175	17.502	1068.516	795.469
392.190	17.413	1068.028	794.621
393.205	17.453	1067.400	794.271
394.219	17.537	1066.321	793.787
395.234	17.439	1065.512	792.660
396.248	17.436	1064.416	791.760
397.263	17.516	1063.460	791.349
398.278	17.425	1062.820	790.382
399.292	17.432	1062.141	789.839
400.307	17.464	1061.152	789.180
401.321	17.615	1060.639	789.431
402.336	17.339	1060.274	787.811
403.350	17.480	1059.237	787.624
404.365	17.566	1058.685	787.541
405.380	17.561	1057.866	786.839
406.394	17.630	1057.238	786.619
407.409	17.713	1056.411	786.317
408.423	17.552	1055.669	784.952
409.438	17.736	1054.841	785.118
410.453	17.659	1054.530	784.462
411.467	17.802	1053.917	784.593
412.482	17.818	1053.300	784.136
413.496	17.786	1052.289	783.167
414.511	17.779	1051.916	782.788
415.526	17.822	1051.809	782.838
416.540	17.779	1051.416	782.281
417.555	17.843	1050.360	781.718
418.569	17.975	1049.528	781.634
419.584	18.021	1048.946	781.341
420.599	17.950	1049.023	781.005
421.613	109.797	1329.520	1489.646
422.628	101.105	1370.327	1489.719
