DTS Sentinel unit serial number:	SN413079Multiplexer serial number:	ORYXHardware model number:	OX4-SRSoftware version number:	ORYX F/W v4.00 Oryx Data Collector v3.7.2.0data status	okinstallation	princeton_trtdifferential loss correction	single-endedforward channel	channel 2reverse channel	N/Adate	2019/09/12time	12:37:11forward acquisition time	60.00reverse acquisition time	0.00gamma	496.2192k internal	0.2298k external	0.2298temperature offset calibration	1.0080default loss term (dB/km)	0.3790temperature slope calibration	1.0000multiplexer offset coefficient	1.0000multiplexer slope coefficient	1.0000fibre end	0.00T internal ref (°C)	40.44T ext. ref 1 (°C)	2.02T ext. ref 2 (°C)	35.71length (m)	temperature (°C)	Stokes	anti-Stokes-747.200	31.247	0.348	0.305
-746.185	800.000	0.108	0.328
-745.171	-200.000	-0.003	-0.041
-744.156	800.000	0.034	0.121
-743.142	-200.000	0.057	0.266
-742.127	-149.925	0.160	-0.013
-741.112	-71.043	-0.214	0.082
-740.098	-200.000	-0.019	0.259
-739.083	-37.439	-0.221	-0.120
-738.069	-200.000	-0.087	0.412
-737.054	-137.182	-0.235	-0.027
-736.039	8.832	-0.144	0.111
-735.025	788.239	0.077	0.217
-734.010	-155.901	-0.133	-0.009
-732.996	-145.460	-0.509	-0.047
-731.981	800.000	0.112	0.435
-730.966	-97.927	-0.362	-0.095
-729.952	-200.000	0.015	-0.209
-728.937	492.516	0.102	0.238
-727.923	196.929	0.125	-0.194
-726.908	-86.629	-0.266	-0.083
-725.894	-156.265	-0.211	0.014
-724.879	48.834	-0.344	0.330
-723.864	146.557	-0.075	0.102
-722.850	-200.000	0.003	0.122
-721.835	800.000	0.076	0.263
-720.821	800.000	-0.053	-0.218
-719.806	28.851	-0.136	0.118
-718.791	-60.094	-0.314	-0.137
-717.777	425.018	-0.021	0.047
-716.762	-89.696	-0.279	-0.083
-715.748	105.369	0.157	-0.189
-714.733	389.489	0.058	0.123
-713.718	92.501	0.089	0.102
-712.704	90.716	0.274	-0.313
-711.689	38.190	0.280	-0.254
-710.675	-100.883	-0.435	-0.109
-709.660	294.504	-0.107	-0.200
-708.645	-65.152	-0.136	-0.056
-707.631	70.935	-0.055	-0.058
-706.616	-92.910	0.151	-0.043
-705.602	138.389	0.080	-0.107
-704.587	35.169	-0.404	-0.361
-703.572	-103.808	-0.232	-0.055
-702.558	7.760	0.079	-0.060
-701.543	-107.962	0.207	-0.046
-700.529	-65.698	0.186	-0.076
-699.514	800.000	0.088	0.290
-698.499	174.335	0.105	-0.155
-697.485	31.420	0.288	0.253
-696.470	-200.000	-0.016	-0.326
-695.456	-100.660	-0.084	-0.021
-694.441	800.000	-0.046	-0.171
-693.426	-8.091	-0.344	0.236
-692.412	-50.604	-0.067	-0.032
-691.397	-21.287	0.131	-0.081
-690.383	112.982	-0.254	-0.314
-689.368	-60.523	-0.358	0.155
-688.354	16.022	-0.161	0.130
-687.339	-34.530	-0.156	-0.087
-686.324	-31.683	0.227	-0.130
-685.310	800.000	-0.047	-0.148
-684.295	-200.000	0.004	-0.284
-683.281	-97.848	0.055	-0.014
-682.266	80.610	0.283	0.311
-681.251	800.000	0.082	-0.288
-680.237	-27.561	-0.173	-0.102
-679.222	95.792	-0.263	-0.305
-678.208	-200.000	0.011	0.271
-677.193	-200.000	0.037	0.296
-676.178	800.000	0.040	0.154
-675.164	27.840	0.276	-0.237
-674.149	160.458	0.083	-0.118
-673.135	-200.000	0.108	-0.667
-672.120	-200.000	-0.023	-0.445
-671.105	800.000	0.017	0.065
-670.091	-200.000	0.002	0.107
-669.076	-200.000	0.060	-0.289
-668.062	-200.000	-0.011	-0.264
-667.047	-9.912	0.235	0.159
-666.032	800.000	-0.007	0.032
-665.018	639.719	-0.166	0.429
-664.003	-200.000	0.052	-0.357
-662.989	-200.000	0.006	0.340
-661.974	800.000	0.066	-0.237
-660.959	-63.495	-0.147	-0.061
-659.945	800.000	0.164	0.482
-658.930	408.812	-0.210	-0.452
-657.916	17.052	-0.295	-0.238
-656.901	-200.000	0.033	0.275
-655.886	34.358	0.203	0.180
-654.872	-200.000	-0.002	-0.091
-653.857	-200.000	-0.010	-0.291
-652.843	-163.470	0.362	-0.018
-651.828	171.021	0.091	-0.132
-650.814	-12.950	-0.239	-0.158
-649.799	-200.000	-0.036	-0.520
-648.784	179.706	-0.327	-0.488
-647.770	219.182	-0.119	-0.194
-646.755	-200.000	0.007	0.369
-645.741	-77.799	0.098	0.035
-644.726	-200.000	0.021	0.174
-643.711	-59.541	-0.181	0.079
-642.697	378.147	0.020	-0.041
-641.682	-200.000	0.017	0.409
-640.668	-41.966	0.226	-0.117
-639.653	-68.568	0.176	0.070
-638.638	337.948	0.068	0.135
-637.624	492.150	-0.047	0.109
-636.609	-200.000	-0.037	-0.270
-635.595	-200.000	-0.004	-0.076
-634.580	45.409	-0.127	-0.119
-633.565	-115.372	0.234	0.045
-632.551	-200.000	-0.037	-0.240
-631.536	425.455	0.053	-0.115
-630.522	-8.118	-0.212	-0.145
-629.507	-164.340	-0.223	0.010
-628.492	-200.000	0.505	-0.001
-627.478	389.301	-0.037	0.079
-626.463	-95.114	-0.351	-0.096
-625.449	-176.892	-0.162	0.004
-624.434	30.455	0.179	0.155
-623.419	-200.000	0.002	0.042
-622.405	480.525	-0.052	0.119
-621.390	-16.581	0.323	0.208
-620.376	-200.000	-0.056	0.487
-619.361	-114.973	0.348	0.067
-618.346	267.650	-0.097	-0.173
-617.332	391.810	-0.120	0.253
-616.317	64.384	-0.221	0.227
-615.303	7.303	0.136	-0.103
-614.288	134.379	-0.216	0.284
-613.273	269.782	-0.150	0.267
-612.259	-200.000	-0.028	-0.426
-611.244	169.679	-0.050	0.072
-610.230	-200.000	-0.053	-0.237
-609.215	-128.633	0.139	-0.020
-608.201	-29.438	-0.232	-0.135
-607.186	19.675	0.129	-0.105
-606.171	193.815	-0.081	-0.125
-605.157	628.429	-0.106	0.272
-604.142	800.000	0.053	0.204
-603.128	-123.736	-0.180	0.029
-602.113	39.735	0.277	0.252
-601.098	800.000	0.055	0.239
-600.084	148.447	-0.069	-0.095
-599.069	-17.200	0.135	-0.086
-598.055	-200.000	-0.058	-0.327
-597.040	-51.892	-0.069	-0.033
-596.025	91.248	-0.068	-0.077
-595.011	-1.904	0.108	-0.077
-593.996	-200.000	-0.020	-0.313
-592.982	37.321	-0.095	-0.086
-591.967	16.969	-0.044	-0.035
-590.952	-36.870	-0.065	-0.035
-589.938	351.460	0.028	-0.057
-588.923	-169.395	-0.134	-0.005
-587.909	800.000	0.080	-0.267
-586.894	-88.912	0.177	0.053
-585.879	-53.834	0.124	-0.057
-584.865	-62.877	-0.097	0.041
-583.850	-147.809	0.069	-0.006
-582.836	73.182	0.176	-0.187
-581.821	202.902	-0.139	0.218
-580.806	197.881	-0.070	-0.109
-579.792	85.961	-0.127	0.142
-578.777	-77.733	-0.192	-0.067
-577.763	-24.421	-0.168	-0.101
-576.748	-200.000	0.040	0.241
-575.733	-73.473	-0.227	-0.084
-574.719	-113.407	0.189	-0.038
-573.704	800.000	0.155	-0.501
-572.690	-200.000	0.148	-0.765
-571.675	165.698	0.223	-0.320
-570.661	149.747	-0.296	0.407
-569.646	800.000	-0.088	0.295
-568.631	-13.513	-0.176	0.115
-567.617	44.288	-0.045	-0.042
-566.602	-24.731	0.194	0.117
-565.588	349.962	-0.098	-0.197
-564.573	-3.784	0.095	0.067
-563.558	171.173	0.087	-0.126
-562.544	-58.841	-0.035	0.016
-561.529	354.686	-0.111	0.223
-560.515	114.129	-0.111	-0.137
-559.500	-31.634	-0.084	-0.048
-558.485	625.167	-0.078	-0.199
-557.471	623.449	-0.111	0.283
-556.456	-1.780	0.260	-0.185
-555.442	-200.000	-0.008	-0.146
-554.427	-11.624	-0.115	-0.077
-553.412	-200.000	-0.027	-0.216
-552.398	480.255	-0.147	-0.338
-551.383	-200.000	-0.003	0.053
-550.369	-200.000	-0.027	0.325
-549.354	800.000	-0.034	0.111
-548.339	800.000	-0.064	0.249
-547.325	158.290	-0.247	-0.347
-546.310	97.871	-0.188	0.219
-545.296	30.011	0.427	0.369
-544.281	75.511	-0.282	0.301
-543.266	37.353	0.131	-0.118
-542.252	800.000	-0.052	-0.177
-541.237	201.964	-0.073	-0.114
-540.223	-200.000	-0.001	-0.194
-539.208	16.031	-0.043	-0.035
-538.193	14.781	0.046	-0.037
-537.179	-179.552	-0.251	0.006
-536.164	-14.490	0.177	0.115
-535.150	85.979	0.018	-0.020
-534.135	176.600	0.028	0.041
-533.121	59.318	0.161	0.160
-532.106	78.096	-0.297	-0.321
-531.091	-15.528	-0.148	0.095
-530.077	648.825	-0.070	-0.181
-529.062	-13.089	-0.114	0.075
-528.048	-42.725	-0.189	-0.097
-527.033	800.000	0.008	0.024
-526.018	-156.132	0.241	0.015
-525.004	800.000	-0.095	-0.387
-523.989	119.836	-0.102	0.128
-522.975	-200.000	0.041	0.193
-521.960	44.838	0.154	-0.143
-520.945	-200.000	0.077	-0.388
-519.931	186.273	0.044	0.067
-518.916	-50.297	0.138	-0.066
-517.902	-33.880	-0.186	-0.103
-516.887	108.032	0.126	0.151
-515.872	-15.408	0.224	0.145
-514.858	4.939	-0.216	0.161
-513.843	-129.771	-0.149	-0.021
-512.829	-129.738	0.351	0.049
-511.814	204.701	-0.109	-0.172
-510.799	72.957	-0.179	-0.189
-509.785	136.326	0.193	0.255
-508.770	-82.647	0.216	-0.071
-507.756	-200.000	-0.071	0.421
-506.741	15.204	-0.151	-0.120
-505.726	-90.895	-0.153	-0.045
-504.712	72.507	-0.032	0.034
-503.697	517.120	0.051	-0.120
-502.683	229.810	-0.026	0.043
-501.668	-107.823	0.185	-0.041
-500.653	800.000	-0.093	0.343
-499.639	153.238	0.019	-0.026
-498.624	290.065	0.076	-0.139
-497.610	47.562	0.184	0.174
-496.595	-98.421	0.369	-0.096
-495.581	596.831	0.091	-0.227
-494.566	-122.421	-0.146	-0.024
-493.551	-2.290	-0.040	0.029
-492.537	190.509	-0.214	0.325
-491.522	-77.149	-0.268	-0.094
-490.508	629.712	-0.076	0.194
-489.493	-106.774	0.125	0.028
-488.478	702.483	0.179	0.478
-487.464	-200.000	-0.011	0.090
-486.449	-70.751	0.213	0.081
-485.435	-136.039	0.142	-0.017
-484.420	221.722	0.051	-0.083
-483.405	16.984	0.353	0.283
-482.391	135.607	-0.046	0.060
-481.376	-120.854	0.099	0.017
-480.362	438.422	0.016	0.036
-479.347	101.503	-0.095	0.112
-478.332	-83.054	-0.337	0.110
-477.318	39.363	0.195	-0.176
-476.303	314.891	-0.035	-0.067
-475.289	-200.000	0.058	-0.301
-474.274	-156.759	0.234	0.015
-473.259	-200.000	0.014	0.089
-472.245	-200.000	-0.017	-0.119
-471.230	-56.722	-0.132	0.059
-470.216	-152.856	-0.274	0.020
-469.201	-200.000	-0.014	0.246
-468.186	28.663	0.103	-0.088
-467.172	159.977	-0.152	0.214
-466.157	-59.714	0.062	-0.027
-465.143	183.879	0.038	-0.057
-464.128	66.482	0.140	-0.144
-463.113	190.409	0.061	-0.092
-462.099	800.000	0.108	-0.381
-461.084	-16.889	0.069	-0.044
-460.070	-55.357	0.129	-0.058
-459.055	225.255	0.130	-0.213
-458.040	188.602	0.121	0.183
-457.026	800.000	0.063	0.181
-456.011	263.859	-0.089	0.157
-454.997	529.865	0.091	0.218
-453.982	-25.852	0.225	0.134
-452.968	-200.000	-0.024	-0.215
-451.953	-44.647	0.065	0.033
-450.938	-124.411	0.366	-0.058
-449.924	85.289	-0.100	-0.111
-448.909	-54.902	-0.265	0.121
-447.895	-107.893	-0.367	0.081
-446.880	-46.190	-0.199	-0.099
-445.865	-102.339	0.132	0.032
-444.851	-48.802	-0.175	0.085
-443.836	-80.623	-0.250	0.084
-442.822	-70.243	0.226	-0.086
-441.807	-81.182	0.266	-0.089
-440.792	276.844	-0.199	0.357
-439.778	230.036	-0.154	0.254
-438.763	-86.523	-0.249	-0.077
-437.749	800.000	0.069	-0.210
-436.734	-63.144	0.088	0.037
-435.719	41.383	-0.299	0.273
-434.705	437.484	-0.054	-0.119
-433.690	-15.904	0.235	0.151
-432.676	25.264	0.224	0.188
-431.661	-9.579	-0.120	-0.080
-430.646	155.388	0.113	0.156
-429.632	56.758	0.097	-0.095
-428.617	355.568	-0.246	-0.494
-427.603	-168.240	-0.294	0.011
-426.588	23.100	0.199	0.165
-425.573	169.161	0.127	-0.183
-424.559	375.057	0.087	-0.180
-423.544	6.659	0.084	-0.063
-422.530	-200.000	0.022	-0.175
-421.515	-112.937	-0.197	0.039
-420.500	-200.000	0.049	0.221
-419.486	-200.000	0.020	0.214
-418.471	4.717	0.274	-0.203
-417.457	-182.421	0.107	0.002
-416.442	188.355	-0.080	-0.120
-415.428	-81.464	-0.187	0.062
-414.413	-68.218	0.151	-0.059
-413.398	-12.725	-0.115	0.075
-412.384	-200.000	0.036	0.185
-411.369	-200.000	-0.016	0.245
-410.355	160.519	-0.170	0.239
-409.340	-154.978	-0.144	0.010
-408.325	-200.000	-0.011	0.110
-407.311	414.350	0.102	0.218
-406.296	-18.413	0.243	0.153
-405.282	134.059	0.135	-0.176
-404.267	248.500	-0.070	-0.120
-403.252	721.562	-0.045	0.121
-402.238	800.000	-0.040	0.129
-401.223	-26.796	0.401	-0.236
-400.209	-200.000	0.013	-0.143
-399.194	71.522	0.132	0.138
-398.179	-99.744	0.130	0.033
-397.165	-110.976	0.204	-0.042
-396.150	-200.000	0.051	0.245
-395.136	13.456	0.122	-0.095
-394.121	-113.905	0.132	0.026
-393.106	435.124	0.025	0.054
-392.092	-50.762	-0.450	0.213
-391.077	-163.429	0.319	-0.015
-390.063	-128.642	-0.157	0.022
-389.048	-80.150	0.152	0.051
-388.033	-99.247	0.191	-0.048
-387.019	-100.816	-0.109	0.027
-386.004	-44.363	-0.193	-0.098
-384.990	623.041	0.133	-0.338
-383.975	800.000	-0.018	-0.065
-382.960	-24.856	-0.125	0.075
-381.946	419.730	0.056	-0.120
-380.931	-72.061	0.262	-0.098
-379.917	-108.670	-0.175	0.038
-378.902	48.791	0.135	-0.127
-377.888	283.293	0.096	-0.173
-376.873	-9.673	0.158	-0.106
-375.858	-168.712	0.063	0.002
-374.844	800.000	0.106	0.411
-373.829	-95.885	-0.266	-0.071
-372.815	278.710	-0.193	0.346
-371.800	-88.232	-0.120	0.036
-370.785	-162.198	-0.319	-0.016
-369.771	134.431	0.032	-0.042
-368.756	800.000	-0.111	-0.322
-367.742	-95.117	0.322	0.087
-366.727	-165.291	0.326	0.014
-365.712	-200.000	-0.016	0.197
-364.698	-160.755	0.465	0.025
-363.683	395.571	0.043	0.090
-362.669	-98.267	0.256	-0.066
-361.654	-9.253	0.273	0.184
-360.639	400.063	0.125	0.263
-359.625	800.000	-0.090	0.318
-358.610	-16.847	0.125	0.079
-357.596	124.663	0.151	-0.191
-356.581	26.010	0.077	0.065
-355.566	257.959	-0.102	-0.176
-354.552	222.939	-0.153	-0.248
-353.537	54.997	-0.049	0.048
-352.523	-200.000	-0.010	0.100
-351.508	-200.000	0.017	-0.123
-350.493	389.887	0.121	0.252
-349.479	164.712	-0.015	0.022
-348.464	-194.004	-0.222	0.002
-347.450	-200.000	-0.017	0.384
-346.435	-135.181	0.062	0.007
-345.420	-73.730	-0.167	0.061
-344.406	373.339	-0.068	-0.139
-343.391	551.524	0.045	-0.107
-342.377	131.924	0.193	0.250
-341.362	-200.000	-0.013	-0.135
-340.348	-100.730	-0.184	0.046
-339.333	800.000	-0.064	-0.264
-338.318	109.841	0.042	0.050
-337.304	11.903	-0.147	-0.114
-336.289	227.953	-0.086	0.141
-335.275	17.073	0.161	0.128
-334.260	-154.527	0.228	-0.015
-333.245	-172.880	0.034	0.001
-332.231	492.771	-0.121	0.279
-331.216	47.875	-0.146	-0.137
-330.202	-200.000	-0.028	-0.232
-329.187	536.995	0.081	0.193
-328.172	-200.000	0.005	0.050
-327.158	-130.289	-0.208	0.028
-326.143	-124.376	0.179	-0.028
-325.129	-71.852	-0.300	-0.112
-324.114	721.007	0.121	0.324
-323.099	-11.292	0.238	0.157
-322.085	-103.832	-0.233	-0.055
-321.070	409.515	-0.151	0.321
-320.056	-35.811	-0.303	-0.165
-319.041	-200.000	0.012	-0.142
-318.026	-60.383	0.342	-0.146
-317.012	-200.000	0.034	-0.254
-315.997	-105.116	-0.232	0.053
-314.983	-200.000	0.018	-0.186
-313.968	425.432	0.030	0.065
-312.953	-200.000	0.006	-0.031
-311.939	62.929	0.067	0.067
-310.924	-98.242	0.101	-0.026
-309.910	-200.000	-0.004	-0.044
-308.895	-35.375	0.147	-0.080
-307.880	452.370	-0.129	0.286
-306.866	6.454	-0.113	-0.084
-305.851	63.671	-0.111	-0.112
-304.837	-50.670	0.149	0.070
-303.822	133.976	0.045	-0.059
-302.807	55.456	-0.353	0.343
-301.793	28.856	0.265	0.226
-300.778	800.000	0.050	0.182
-299.764	135.340	-0.100	0.130
-298.749	13.106	0.044	-0.034
-297.735	-10.053	-0.150	-0.100
-296.720	-200.000	0.016	0.203
-295.705	-17.169	0.190	0.120
-294.691	243.904	-0.064	-0.108
-293.676	-9.233	-0.322	0.216
-292.662	104.046	0.221	-0.260
-291.647	-85.143	-0.099	0.031
-290.632	-200.000	-0.027	0.345
-289.618	-200.000	0.002	-0.229
-288.603	483.056	-0.155	-0.354
-287.589	800.000	-0.146	-0.413
-286.574	-102.791	-0.181	-0.043
-285.559	32.809	-0.129	0.112
-284.545	-59.089	0.105	0.046
-283.530	278.253	-0.105	-0.188
-282.516	-22.851	-0.084	0.051
-281.501	-76.391	0.274	-0.097
-280.486	27.161	-0.103	0.087
-279.472	-200.000	0.044	-0.218
-278.457	156.845	0.047	0.065
-277.443	100.861	-0.132	0.154
-276.428	185.807	-0.134	-0.200
-275.413	-200.000	-0.040	-0.214
-274.399	148.128	-0.149	-0.201
-273.384	-200.000	-0.031	-0.150
-272.370	800.000	-0.075	0.238
-271.355	128.247	0.142	0.181
-270.340	-72.090	0.143	-0.053
-269.326	-14.567	-0.086	0.055
-268.311	23.414	-0.356	0.293
-267.297	380.611	0.149	0.306
-266.282	-6.867	0.045	-0.030
-265.267	800.000	0.095	0.279
-264.253	-106.207	0.309	0.070
-263.238	-109.320	0.280	-0.059
-262.224	-130.729	-0.195	-0.026
-261.209	-10.284	-0.215	0.143
-260.195	-200.000	0.008	0.056
-259.180	-200.000	-0.012	0.057
-258.165	310.266	-0.102	-0.192
-257.151	-200.000	0.002	0.056
-256.136	-200.000	-0.110	-0.505
-255.122	19.757	0.182	-0.147
-254.107	-14.256	-0.096	0.062
-253.092	-164.886	-0.246	0.011
-252.078	-200.000	-0.006	-0.066
-251.063	290.793	-0.028	0.050
-250.049	-200.000	-0.027	0.257
-249.034	-3.266	-0.357	-0.249
-248.019	-104.483	-0.230	0.053
-247.005	-108.737	-0.401	0.086
-245.990	-72.239	0.057	-0.021
-244.976	291.329	-0.107	-0.194
-243.961	800.000	0.050	-0.176
-242.946	104.236	0.140	-0.165
-241.932	220.728	0.031	-0.049
-240.917	800.000	-0.053	0.214
-239.903	-69.481	-0.281	-0.108
-238.888	800.000	0.078	-0.227
-237.873	-153.555	0.260	-0.018
-236.859	-135.957	0.263	0.031
-235.844	116.033	-0.108	-0.133
-234.830	262.577	-0.076	-0.132
-233.815	-157.369	-0.166	-0.010
-232.800	298.096	-0.161	0.296
-231.786	1.268	-0.352	-0.253
-230.771	-141.904	0.141	0.014
-229.757	505.065	0.099	-0.229
-228.742	800.000	0.110	-0.402
-227.727	800.000	0.046	0.144
-226.713	800.000	0.011	0.042
-225.698	-200.000	0.036	-0.161
-224.684	332.809	-0.186	0.360
-223.669	-129.054	-0.394	-0.055
-222.655	604.482	0.089	-0.223
-221.640	223.887	-0.027	0.044
-220.625	-40.330	-0.258	-0.134
-219.611	-200.000	0.010	0.140
-218.596	-110.970	0.133	-0.027
-217.582	14.514	0.067	0.052
-216.567	1.103	0.069	0.049
-215.552	254.515	-0.160	0.273
-214.538	-86.744	0.229	0.070
-213.523	503.993	0.023	-0.054
-212.509	601.432	-0.071	0.176
-211.494	89.349	0.122	0.136
-210.479	-157.848	-0.183	-0.011
-209.465	176.072	0.105	-0.153
-208.450	109.548	-0.061	-0.073
-207.436	270.250	0.027	-0.048
-206.421	800.000	0.016	-0.053
-205.406	-102.877	-0.269	0.064
-204.392	65.884	0.275	-0.279
-203.377	36.171	0.121	-0.106
-202.363	-200.000	0.006	0.108
-201.348	-200.000	0.009	-0.048
-200.333	33.104	0.137	-0.119
-199.319	-188.146	0.164	0.002
-198.304	-93.861	-0.055	-0.015
-197.290	600.184	0.118	-0.292
-196.275	-200.000	-0.003	-0.101
-195.260	-200.000	0.016	0.163
-194.246	-166.421	-0.217	-0.009
-193.231	-184.654	0.256	-0.004
-192.217	20.816	-0.167	0.135
-191.202	-195.374	0.242	0.002
-190.187	-130.842	-0.423	0.057
-189.173	109.980	0.076	-0.091
-188.158	-17.921	-0.104	-0.065
-187.144	-54.981	0.208	-0.094
-186.129	-200.000	0.035	-0.407
-185.114	71.520	0.145	-0.151
-184.100	-159.459	0.442	0.025
-183.085	-200.000	0.016	-0.283
-182.071	800.000	0.061	0.255
-181.056	88.147	0.086	0.095
-180.042	-78.228	0.182	0.062
-179.027	233.977	0.211	0.347
-178.012	-37.547	-0.249	-0.132
-176.998	-200.000	0.007	-0.134
-175.983	131.283	0.181	0.232
-174.969	-182.718	-0.442	0.008
-173.954	13.018	0.127	0.098
-172.939	153.712	-0.082	0.112
-171.925	223.001	0.195	0.314
-170.910	17.811	0.205	0.163
-169.896	-103.792	0.147	-0.034
-168.881	-141.313	-0.302	0.031
-167.866	-200.000	0.047	0.292
-166.852	-85.765	0.408	0.126
-165.837	-45.528	-0.584	0.289
-164.823	-100.792	-0.141	-0.035
-163.808	800.000	-0.141	-0.473
-162.793	-146.078	-0.119	-0.010
-161.779	53.924	-0.091	-0.087
-160.764	-200.000	0.026	-0.207
-159.750	91.173	0.191	-0.214
-158.735	-50.356	0.272	0.128
-157.720	-105.651	-0.013	-0.003
-156.706	95.845	0.082	-0.094
-155.691	61.415	0.145	0.144
-154.677	-200.000	-0.029	-0.209
-153.662	800.000	-0.032	-0.115
-152.647	-55.957	0.260	-0.116
-151.633	-42.361	0.103	0.052
-150.618	-200.000	-0.010	-0.136
-149.604	-138.638	0.450	-0.049
-148.589	-200.000	-0.010	0.230
-147.574	-94.204	-0.129	0.035
-146.560	-83.555	-0.029	0.009
-145.545	502.702	-0.099	0.229
-144.531	228.280	0.174	0.283
-143.516	303.248	0.083	0.152
-142.502	-42.888	0.276	0.140
-141.487	-113.555	0.129	0.025
-140.472	-30.530	-0.114	0.064
-139.458	652.636	0.086	0.219
-138.443	-200.000	0.025	-0.169
-137.429	186.418	0.248	0.368
-136.414	200.061	0.110	-0.169
-135.399	86.926	0.154	-0.169
-134.385	-38.659	0.142	-0.075
-133.370	-44.086	0.342	-0.171
-132.356	116.171	0.181	0.220
-131.341	800.000	0.070	0.256
-130.326	-200.000	-0.032	-0.187
-129.312	5.357	0.125	0.092
-128.297	304.715	0.067	0.123
-127.283	-32.413	0.076	-0.042
-126.268	613.480	0.098	-0.245
-125.253	-83.953	-0.251	-0.080
-124.239	-92.941	-0.224	0.062
-123.224	-41.986	-0.426	-0.217
-122.210	-67.621	-0.164	-0.064
-121.195	800.000	-0.010	-0.036
-120.180	79.279	-0.192	0.205
-119.166	-60.429	0.459	0.194
-118.151	187.889	0.046	0.068
-117.137	-166.086	-0.208	-0.009
-116.122	-73.115	0.321	0.117
-115.107	-200.000	-0.002	0.045
-114.093	-200.000	0.023	-0.217
-113.078	-72.888	0.530	-0.194
-112.064	-87.238	0.301	-0.091
-111.049	800.000	0.029	-0.114
-110.034	578.861	-0.076	-0.184
-109.020	800.000	-0.180	-0.630
-108.005	87.254	-0.092	-0.102
-106.991	-112.405	-0.172	0.034
-105.976	-110.639	-0.239	0.049
-104.962	-90.641	0.299	-0.086
-103.947	800.000	-0.008	0.028
-102.932	-43.173	0.184	0.093
-101.918	-90.979	-0.056	0.016
-100.903	374.743	0.120	-0.243
-99.889	6.343	-0.194	-0.143
-98.874	-88.463	-0.125	-0.037
-97.859	-200.000	0.085	-0.411
-96.845	-28.230	0.327	-0.188
-95.830	-200.000	-0.013	-0.327
-94.816	800.000	-0.060	-0.217
-93.801	348.795	-0.080	-0.157
-92.786	-51.962	-0.298	-0.138
-91.772	97.094	-0.096	0.110
-90.757	800.000	0.032	0.136
-89.743	-85.729	0.106	-0.033
-88.728	-162.686	-0.189	0.009
-87.713	-86.651	-0.246	0.075
-86.699	-12.411	-0.056	-0.036
-85.684	-54.973	-0.297	0.133
-84.670	-159.296	-0.160	0.009
-83.655	405.893	-0.068	-0.142
-82.640	198.431	-0.074	0.113
-81.626	-14.480	0.193	-0.123
-80.611	-200.000	0.005	-0.108
-79.597	-16.799	-0.207	-0.130
-78.582	39.345	-0.427	0.381
-77.567	-158.787	-0.364	0.021
-76.553	93.077	0.335	0.376
-75.538	-42.524	-0.288	0.146
-74.524	800.000	0.006	0.024
-73.509	-91.043	-0.133	-0.038
-72.494	800.000	-0.079	0.244
-71.480	-200.000	0.004	0.016
-70.465	132.710	-0.086	-0.111
-69.451	-200.000	-0.073	-0.475
-68.436	289.995	0.049	0.088
-67.422	-152.768	-0.086	-0.006
-66.407	-200.000	0.006	-0.364
-65.392	294.846	0.119	0.217
-64.378	72.402	-0.118	0.122
-63.363	243.916	-0.050	0.083
-62.349	-147.325	0.283	-0.024
-61.334	-18.610	-0.590	-0.366
-60.319	-200.000	0.353	-0.001
-59.305	-200.000	-0.201	-0.888
-58.290	257.929	0.405	0.693
-57.276	800.000	0.429	1.775
-56.261	-200.000	76.904	513.286
-55.246	515.860	1339.784	3110.541
-54.232	145.126	2579.185	3429.076
-53.217	110.122	2352.329	2806.219
-52.203	49.563	1965.790	1839.194
-51.188	43.789	1753.686	1595.361
-50.173	40.842	1708.123	1531.182
-49.159	55.313	1743.569	1675.596
-48.144	60.534	1761.602	1733.348
-47.130	43.702	1725.529	1568.824
-46.115	40.475	1711.454	1531.093
-45.100	40.243	1707.010	1525.268
-44.086	40.341	1704.504	1523.725
-43.071	40.399	1701.777	1521.670
-42.057	40.245	1699.493	1518.386
-41.042	40.278	1697.209	1516.541
-40.027	40.206	1695.846	1514.710
-39.013	40.356	1693.455	1513.663
-37.998	40.278	1692.370	1512.034
-36.984	40.290	1690.746	1510.616
-35.969	40.442	1689.180	1510.313
-34.954	40.547	1687.253	1509.333
-33.940	40.527	1685.619	1507.661
-32.925	40.475	1683.372	1505.195
-31.911	40.439	1681.709	1503.372
-30.896	40.465	1679.866	1501.866
-29.881	40.366	1678.502	1499.836
-28.867	40.441	1676.759	1498.788
-27.852	40.441	1675.505	1497.604
-26.838	40.425	1674.169	1496.233
-25.823	40.436	1672.602	1494.855
-24.809	40.520	1671.190	1494.167
-23.794	40.539	1669.694	1492.912
-22.779	40.404	1668.570	1490.831
-21.765	40.486	1666.598	1489.624
-20.750	40.425	1665.013	1487.694
-19.736	40.545	1663.307	1487.009
-18.721	40.504	1662.557	1485.976
-17.706	40.465	1660.988	1484.217
-16.692	40.406	1659.142	1482.071
-15.677	40.473	1657.702	1481.226
-14.663	40.467	1656.264	1479.838
-13.648	40.424	1655.041	1478.361
-12.633	40.449	1653.351	1476.982
-11.619	40.421	1651.738	1475.277
-10.604	40.478	1650.130	1474.200
-9.590	40.475	1648.511	1472.674
-8.575	40.462	1647.481	1471.599
-7.560	40.392	1646.637	1470.272
-6.546	40.401	1645.343	1469.125
-5.531	40.455	1643.908	1468.185
-4.517	40.339	1643.320	1466.741
-3.502	40.310	1641.978	1465.268
-2.487	40.477	1639.923	1464.613
-1.473	40.365	1628.884	1453.875
-0.458	37.774	1608.771	1417.052
0.556	34.149	1607.428	1380.453
1.571	31.158	1630.988	1378.513
2.586	30.130	1644.944	1382.525
3.600	25.989	1589.094	1305.558
4.615	14.185	1468.450	1126.865
5.629	3.971	1394.657	1004.150
6.644	2.220	1385.142	985.915
7.659	2.042	1383.798	983.725
8.673	1.973	1382.395	982.195
9.688	1.827	1381.046	980.211
10.702	1.737	1377.840	977.273
11.717	5.400	1385.681	1006.358
12.731	16.570	1407.689	1094.926
13.746	25.218	1421.995	1162.243
14.761	26.725	1423.842	1173.421
15.775	26.875	1423.445	1173.957
16.790	27.030	1422.298	1173.911
17.804	27.041	1421.746	1173.423
18.819	27.254	1421.885	1174.807
19.834	27.214	1421.250	1173.920
20.848	27.260	1420.442	1173.448
21.863	27.326	1419.505	1172.992
22.877	27.308	1418.184	1171.683
23.892	27.270	1417.802	1171.018
24.907	27.251	1416.490	1169.713
25.921	27.294	1415.704	1169.236
26.936	27.282	1415.294	1168.715
27.950	27.220	1413.875	1167.041
28.965	27.283	1412.842	1166.488
29.980	27.358	1411.130	1165.451
30.994	27.248	1410.080	1163.781
32.009	27.303	1408.838	1163.006
33.023	27.210	1407.832	1161.475
34.038	27.288	1406.699	1160.933
35.053	27.203	1405.920	1159.646
36.067	27.285	1404.366	1158.787
37.082	27.328	1403.565	1158.297
38.096	27.247	1403.005	1157.217
39.111	27.301	1401.892	1156.536
40.126	27.241	1401.475	1155.712
41.140	27.280	1400.879	1155.368
42.155	27.331	1400.145	1154.979
43.169	27.309	1400.305	1154.871
44.184	27.319	1399.885	1154.486
45.199	27.259	1399.679	1153.832
46.213	27.336	1399.017	1153.672
47.228	27.290	1398.132	1152.551
48.242	27.291	1396.727	1151.300
49.257	27.193	1395.627	1149.671
50.271	27.203	1394.015	1148.304
51.286	27.272	1392.446	1147.345
52.301	27.187	1391.710	1146.100
53.315	27.314	1390.358	1145.683
54.330	27.283	1389.361	1144.565
55.344	27.203	1388.642	1143.372
56.359	27.147	1387.689	1142.134
57.374	27.239	1386.731	1141.823
58.388	27.354	1385.956	1141.803
59.403	27.189	1386.074	1140.761
60.417	27.199	1385.150	1139.968
61.432	27.237	1384.375	1139.462
62.447	27.204	1383.464	1138.408
63.461	27.248	1382.288	1137.616
64.476	27.272	1381.173	1136.743
65.490	27.338	1380.031	1136.117
66.505	27.332	1378.053	1134.349
67.520	27.380	1377.168	1133.822
68.534	27.260	1376.532	1132.450
69.549	27.169	1375.358	1130.819
70.563	27.210	1374.512	1130.274
71.578	27.296	1373.512	1129.889
72.593	27.324	1372.546	1129.167
73.607	27.304	1372.144	1128.614
74.622	27.205	1371.195	1127.117
75.636	27.284	1370.620	1127.039
76.651	27.293	1370.064	1126.537
77.666	27.259	1369.495	1125.757
78.680	27.203	1369.595	1125.396
79.695	27.253	1368.516	1124.718
80.709	27.295	1367.236	1123.823
81.724	27.255	1366.317	1122.722
82.739	27.259	1365.502	1121.979
83.753	27.263	1364.802	1121.330
84.768	27.304	1363.420	1120.347
85.782	27.267	1362.438	1119.214
86.797	27.367	1361.170	1118.689
87.812	27.288	1360.130	1117.246
88.826	27.367	1359.025	1116.725
89.841	27.273	1357.974	1115.189
90.855	27.314	1356.793	1114.369
91.870	27.281	1356.172	1113.560
92.884	27.374	1355.614	1113.573
93.899	27.314	1354.840	1112.471
94.914	27.264	1353.888	1111.283
95.928	27.371	1352.662	1110.831
96.943	27.526	1351.744	1110.927
97.957	27.294	1351.313	1109.058
98.972	27.236	1350.659	1108.068
99.987	27.373	1349.582	1107.923
101.001	27.293	1348.493	1106.448
102.016	27.136	1348.224	1105.171
103.030	27.311	1346.804	1104.971
104.045	27.323	1345.951	1104.250
105.060	27.333	1344.864	1103.318
106.074	27.381	1343.646	1102.512
107.089	27.412	1342.717	1101.842
108.103	27.367	1341.801	1100.717
109.118	27.325	1341.078	1099.778
110.133	27.332	1339.853	1098.717
111.147	27.449	1338.717	1098.392
112.162	27.453	1337.744	1097.522
113.176	27.406	1336.509	1096.128
114.191	27.392	1335.708	1095.289
115.206	27.370	1334.733	1094.262
116.220	27.431	1333.545	1093.554
117.235	27.327	1333.053	1092.433
118.249	27.357	1332.099	1091.732
119.264	27.357	1331.248	1090.941
120.279	27.347	1330.356	1090.049
121.293	27.489	1329.072	1089.755
122.308	27.465	1328.431	1088.986
123.322	27.418	1327.958	1088.224
124.337	27.494	1326.924	1087.733
125.352	27.482	1325.932	1086.751
126.366	27.560	1325.099	1086.440
127.381	27.516	1324.157	1085.305
128.395	27.494	1323.480	1084.523
129.410	27.463	1322.638	1083.553
130.424	27.453	1321.920	1082.810
131.439	27.529	1320.871	1082.306
132.454	27.418	1320.546	1081.285
133.468	27.494	1319.673	1080.927
134.483	27.442	1319.543	1080.414
135.497	27.463	1318.572	1079.649
136.512	27.510	1317.323	1078.809
137.527	27.508	1316.154	1077.744
138.541	27.507	1314.850	1076.579
139.556	27.400	1313.595	1074.823
140.570	27.513	1312.727	1074.685
141.585	27.410	1312.107	1073.474
142.600	27.487	1310.621	1072.614
143.614	27.567	1309.784	1072.307
144.629	27.473	1308.582	1070.673
145.643	27.377	1307.965	1069.514
146.658	27.387	1306.635	1068.388
147.673	27.409	1305.651	1067.621
148.687	27.394	1304.712	1066.668
149.702	27.344	1303.491	1065.281
150.716	27.443	1302.316	1064.807
151.731	27.426	1301.475	1063.929
152.746	27.372	1300.834	1062.996
153.760	27.436	1299.488	1062.174
154.775	27.392	1298.492	1061.007
155.789	27.452	1297.514	1060.463
156.804	27.497	1296.572	1059.865
157.819	27.433	1295.683	1058.671
158.833	27.324	1295.312	1057.637
159.848	27.383	1294.318	1057.077
160.862	27.556	1293.388	1057.227
161.877	27.500	1292.569	1056.138
162.892	27.540	1291.703	1055.572
163.906	27.579	1290.933	1055.074
164.921	27.526	1290.773	1054.545
165.935	27.473	1289.765	1053.318
166.950	27.525	1289.135	1053.012
167.964	27.592	1288.415	1052.718
168.979	27.469	1288.152	1051.700
169.994	27.512	1287.881	1051.632
171.008	27.546	1287.005	1051.022
172.023	27.555	1285.959	1050.126
173.037	27.634	1285.016	1049.715
174.052	27.617	1284.303	1048.944
175.067	27.618	1283.351	1048.080
176.081	27.581	1282.750	1047.286
177.096	27.605	1282.169	1046.855
178.110	27.545	1281.060	1045.513
179.125	27.650	1279.677	1044.893
180.140	27.581	1278.967	1043.825
181.154	27.621	1277.756	1042.976
182.169	27.536	1276.644	1041.490
183.183	27.655	1275.576	1041.205
184.198	27.646	1274.786	1040.416
185.213	27.594	1273.841	1039.255
186.227	27.726	1272.736	1039.016
187.242	27.650	1272.216	1038.065
188.256	27.595	1271.478	1037.060
189.271	27.635	1270.502	1036.397
190.286	27.645	1269.753	1035.749
191.300	27.596	1269.001	1034.767
192.315	27.596	1268.477	1034.250
193.329	27.595	1268.505	1034.174
194.344	27.738	1267.546	1034.111
195.359	27.663	1267.240	1033.345
196.373	27.630	1266.747	1032.666
197.388	27.520	1266.474	1031.730
198.402	27.606	1266.156	1031.868
199.417	27.576	1265.877	1031.377
200.432	27.582	1265.085	1030.678
201.446	27.609	1264.535	1030.291
202.461	27.594	1263.871	1029.574
203.475	27.623	1262.991	1028.929
204.490	27.619	1261.778	1027.824
205.504	27.773	1260.680	1027.708
206.519	27.722	1259.844	1026.647
207.534	27.795	1258.842	1026.151
208.548	27.761	1258.377	1025.490
209.563	27.750	1257.214	1024.388
210.577	27.775	1256.371	1023.751
211.592	27.811	1255.374	1023.049
212.607	27.825	1254.798	1022.567
213.621	27.755	1254.398	1021.763
214.636	27.832	1253.143	1021.078
215.650	27.747	1252.796	1020.228
216.665	27.797	1251.372	1019.259
217.680	27.739	1250.611	1018.227
218.694	27.904	1249.557	1018.198
219.709	27.846	1248.835	1017.196
220.723	27.885	1248.324	1016.910
221.738	27.787	1247.407	1015.525
222.753	27.713	1246.887	1014.598
223.767	27.727	1246.411	1014.199
224.782	27.957	1245.707	1014.815
225.796	27.815	1245.499	1013.768
226.811	27.864	1244.618	1013.231
227.826	27.871	1243.978	1012.663
228.840	27.913	1243.684	1012.566
229.855	27.777	1242.629	1010.862
230.869	27.823	1242.082	1010.583
231.884	27.904	1241.240	1010.255
232.899	27.766	1241.270	1009.427
233.913	27.817	1240.037	1008.621
234.928	27.882	1239.624	1008.551
235.942	27.972	1239.185	1008.601
236.957	27.954	1238.177	1007.593
237.972	28.007	1237.509	1007.255
238.986	27.928	1236.701	1006.070
240.001	27.988	1236.260	1005.952
241.015	28.036	1235.625	1005.613
242.030	28.000	1234.755	1004.620
243.045	28.017	1234.089	1004.080
244.059	28.119	1232.902	1003.583
245.074	28.034	1232.267	1002.512
246.088	28.080	1231.865	1002.352
247.103	28.111	1230.517	1001.336
248.117	28.029	1229.980	1000.359
249.132	28.053	1229.226	999.787
250.147	28.137	1228.751	999.775
251.161	28.202	1227.695	999.179
252.176	28.237	1226.963	998.685
253.190	28.200	1226.425	997.959
254.205	28.204	1225.538	997.173
255.220	28.107	1225.512	996.535
256.234	28.248	1224.490	996.384
257.249	28.112	1224.284	995.385
258.263	28.161	1223.697	995.085
259.278	28.285	1222.677	994.842
260.293	28.203	1222.493	994.161
261.307	28.159	1221.809	993.275
262.322	28.189	1221.346	992.976
263.336	28.152	1220.389	991.908
264.351	28.103	1220.230	991.424
265.366	28.218	1219.415	991.299
266.380	28.141	1218.533	990.078
267.395	28.158	1218.191	989.807
268.409	28.132	1217.362	988.904
269.424	28.201	1216.724	988.669
270.439	28.179	1216.302	988.118
271.453	28.256	1215.259	987.601
272.468	28.169	1214.561	986.477
273.482	28.082	1213.852	985.346
274.497	28.316	1213.546	986.271
275.512	28.301	1213.009	985.668
276.526	28.265	1212.600	985.050
277.541	28.309	1211.496	984.307
278.555	28.229	1211.140	983.499
279.570	28.335	1209.846	982.929
280.585	28.293	1209.331	982.199
281.599	28.366	1208.330	981.690
282.614	28.288	1207.838	980.785
283.628	28.310	1207.075	980.197
284.643	28.411	1205.816	979.626
285.657	28.417	1204.720	978.683
286.672	28.342	1204.411	977.945
287.687	28.339	1203.357	976.989
288.701	28.524	1203.008	977.604
289.716	28.482	1202.053	976.515
290.730	28.403	1201.396	975.476
291.745	28.449	1200.900	975.230
292.760	28.503	1200.065	974.754
293.774	28.469	1199.930	974.379
294.789	28.496	1199.026	973.701
295.803	28.430	1198.494	972.836
296.818	28.458	1197.849	972.374
297.833	28.463	1197.420	971.964
298.847	28.534	1196.574	971.568
299.862	28.491	1195.704	970.549
300.876	28.531	1195.019	970.120
301.891	28.496	1194.545	969.463
302.906	28.626	1193.643	969.328
303.920	28.547	1193.263	968.520
304.935	28.588	1192.308	967.872
305.949	28.592	1192.000	967.562
306.964	28.607	1191.090	966.815
307.979	28.630	1190.617	966.465
308.993	28.699	1189.868	966.136
310.008	28.703	1189.041	965.400
311.022	28.500	1188.741	964.003
312.037	28.537	1187.873	963.407
313.052	28.539	1186.766	962.436
314.066	28.661	1185.862	962.258
315.081	28.668	1185.378	961.817
316.095	28.606	1184.880	961.003
317.110	28.686	1184.070	960.678
318.125	28.654	1183.482	959.950
319.139	28.678	1182.728	959.376
320.154	28.684	1182.554	959.183
321.168	28.678	1181.594	958.288
322.183	28.744	1180.738	957.856
323.197	28.614	1180.790	957.135
324.212	28.687	1179.807	956.632
325.227	28.684	1179.443	956.237
326.241	28.825	1178.888	956.436
327.256	28.726	1178.115	955.212
328.270	28.846	1177.035	954.874
329.285	28.731	1176.345	953.631
330.300	28.762	1175.069	952.675
331.314	28.862	1174.485	952.637
332.329	28.905	1173.626	952.075
333.343	28.834	1173.277	951.342
334.358	28.872	1172.415	950.754
335.373	28.914	1171.925	950.491
336.387	28.989	1170.797	949.880
337.402	28.843	1170.620	948.899
338.416	28.901	1169.934	948.558
339.431	28.945	1169.110	948.030
340.446	28.968	1168.900	947.897
341.460	29.001	1168.052	947.291
342.475	29.083	1166.920	946.712
343.489	28.916	1166.230	945.212
344.504	28.916	1165.087	944.202
345.519	28.952	1164.342	943.701
346.533	29.016	1163.607	943.349
347.548	28.979	1162.960	942.550
348.562	29.060	1162.309	942.353
349.577	29.062	1162.198	942.191
350.592	28.954	1160.781	940.408
351.606	29.051	1159.867	940.081
352.621	29.044	1159.487	939.653
353.635	29.062	1158.685	939.009
354.650	29.106	1157.885	938.503
355.665	29.078	1157.559	938.013
356.679	29.174	1156.983	937.950
357.694	29.109	1156.326	937.006
358.708	29.124	1155.677	936.475
359.723	29.159	1155.219	936.198
360.738	29.299	1154.249	936.038
361.752	29.107	1154.157	934.905
362.767	29.058	1153.646	934.164
363.781	29.267	1152.722	934.391
364.796	29.196	1152.237	933.556
365.810	29.336	1151.657	933.710
366.825	29.272	1150.977	932.751
367.840	29.241	1150.581	932.194
368.854	29.326	1149.846	931.945
369.869	29.203	1149.393	930.875
370.883	29.269	1148.396	930.319
371.898	29.316	1147.986	930.141
372.913	29.280	1147.115	929.172
373.927	29.348	1146.467	928.906
374.942	29.457	1145.884	928.901
375.956	29.507	1145.451	928.720
376.971	29.307	1145.223	927.446
377.986	29.317	1144.324	926.684
379.000	29.320	1144.156	926.482
380.015	29.510	1143.409	926.752
381.029	29.356	1142.734	925.349
382.044	29.357	1142.352	924.961
383.059	29.449	1141.357	924.535
384.073	29.467	1140.411	923.779
385.088	29.444	1139.747	923.042
386.102	29.433	1139.313	922.554
387.117	29.433	1138.000	921.408
388.132	29.270	1137.488	920.100
389.146	29.469	1136.729	920.395
390.161	29.542	1136.165	920.222
391.175	29.463	1135.359	919.092
392.190	29.561	1134.594	918.880
393.205	29.595	1133.822	918.342
394.219	29.606	1133.105	917.737
395.234	29.639	1132.126	917.028
396.248	29.624	1131.517	916.377
397.263	29.555	1130.901	915.457
398.278	29.675	1129.896	915.158
399.292	29.663	1129.653	914.817
400.307	29.780	1128.633	914.489
401.321	29.545	1128.090	912.808
402.336	29.611	1127.831	912.845
403.350	29.675	1127.058	912.455
404.365	29.658	1126.727	912.019
405.380	29.690	1125.965	911.481
406.394	29.873	1124.540	911.149
407.409	29.805	1123.851	910.173
408.423	29.892	1123.309	910.082
409.438	29.833	1122.646	909.176
410.453	29.876	1121.864	908.674
411.467	29.876	1121.048	907.933
412.482	29.776	1120.612	907.009
413.496	29.780	1119.886	906.358
414.511	29.880	1119.368	906.348
415.526	29.899	1118.595	905.738
416.540	29.872	1118.590	905.520
417.555	29.805	1118.099	904.712
418.569	29.734	1117.844	904.080
419.584	29.893	1117.174	904.236
420.599	29.942	1116.132	903.550
421.613	89.387	1304.384	1380.989
422.628	83.998	1331.852	1381.125
