DTS Sentinel unit serial number:	SN413079Multiplexer serial number:	ORYXHardware model number:	OX4-SRSoftware version number:	ORYX F/W v4.00 Oryx Data Collector v3.7.2.0data status	okinstallation	princeton_trtdifferential loss correction	single-endedforward channel	channel 2reverse channel	N/Adate	2019/09/15time	11:39:35forward acquisition time	60.00reverse acquisition time	0.00gamma	496.2192k internal	0.2315k external	0.2315temperature offset calibration	1.0016default loss term (dB/km)	0.3790temperature slope calibration	1.0000multiplexer offset coefficient	1.0000multiplexer slope coefficient	1.0000fibre end	0.00T internal ref (°C)	34.31T ext. ref 1 (°C)	5.01T ext. ref 2 (°C)	29.80length (m)	temperature (°C)	Stokes	anti-Stokes-747.200	-200.000	0.015	-0.206
-746.185	-20.710	-0.253	0.158
-745.171	-120.548	0.465	0.080
-744.156	-200.000	-0.083	0.381
-743.142	152.847	0.131	0.182
-742.127	-99.484	-0.210	0.054
-741.112	277.012	-0.234	-0.422
-740.098	-18.273	-0.165	-0.105
-739.083	-13.310	-0.412	0.271
-738.069	800.000	-0.012	0.044
-737.054	-37.959	-0.138	0.075
-736.039	373.609	-0.071	-0.146
-735.025	523.948	-0.149	0.354
-734.010	800.000	-0.078	-0.261
-732.996	-67.446	-0.185	-0.073
-731.981	364.618	0.067	-0.136
-730.966	56.741	0.127	0.125
-729.952	-153.720	-0.259	-0.018
-728.937	343.353	-0.125	-0.248
-727.923	800.000	0.068	0.230
-726.908	138.876	0.033	-0.044
-725.894	-110.061	0.337	0.071
-724.879	293.414	-0.227	-0.419
-723.864	-1.882	-0.142	0.101
-722.850	11.263	0.074	-0.057
-721.835	-86.096	0.148	-0.046
-720.821	800.000	-0.025	-0.087
-719.806	132.723	-0.133	0.174
-718.791	140.529	-0.010	0.014
-717.777	-45.058	-0.214	0.108
-716.762	-200.000	0.022	-0.199
-715.748	24.023	0.089	0.074
-714.733	395.082	0.056	-0.118
-713.718	-177.139	-0.101	0.003
-712.704	340.243	0.061	-0.120
-711.689	257.687	-0.077	0.134
-710.675	51.521	-0.057	0.055
-709.660	-153.857	-0.311	0.022
-708.645	-65.140	-0.321	-0.131
-707.631	428.079	-0.080	0.174
-706.616	-110.098	-0.216	0.046
-705.602	104.929	-0.052	0.063
-704.587	-170.976	0.408	-0.014
-703.572	-34.254	-0.359	0.200
-702.558	-95.918	-0.176	-0.047
-701.543	-70.803	0.302	-0.115
-700.529	-200.000	0.014	-0.092
-699.514	-126.093	0.239	0.036
-698.499	104.223	-0.303	0.361
-697.485	157.369	-0.160	-0.224
-696.470	-34.387	0.317	-0.176
-695.456	-200.000	-0.020	-0.314
-694.441	328.730	-0.202	-0.392
-693.426	127.905	-0.113	0.146
-692.412	119.130	0.220	0.275
-691.397	-115.910	-0.334	-0.063
-690.383	-200.000	0.043	0.317
-689.368	32.045	-0.141	0.123
-688.354	82.122	0.088	-0.096
-687.339	800.000	-0.017	-0.050
-686.324	-91.785	0.021	0.006
-685.310	-84.519	-0.133	0.042
-684.295	330.356	-0.095	-0.186
-683.281	-200.000	-0.061	-0.385
-682.266	-200.000	0.026	0.134
-681.251	-121.846	-0.231	-0.039
-680.237	-155.222	0.328	-0.022
-679.222	296.429	0.129	0.238
-678.208	-101.129	0.145	-0.036
-677.193	429.796	-0.089	0.194
-676.178	-71.599	-0.197	0.075
-675.164	244.213	0.159	0.269
-674.149	-81.739	-0.248	-0.082
-673.135	-29.783	-0.032	0.018
-672.120	57.921	-0.195	-0.193
-671.105	47.644	-0.031	-0.029
-670.091	6.370	0.133	0.100
-669.076	-45.821	0.218	0.109
-668.062	504.937	-0.044	0.103
-667.047	306.491	-0.144	0.270
-666.032	-34.659	0.105	0.058
-665.018	800.000	-0.089	-0.348
-664.003	-200.000	-0.024	0.224
-662.989	134.530	0.274	-0.359
-661.974	-73.909	-0.157	-0.058
-660.959	800.000	0.103	0.434
-659.945	2.669	-0.230	0.169
-658.930	25.535	-0.093	0.078
-657.916	60.905	-0.093	0.093
-656.901	800.000	0.126	0.451
-655.886	140.362	0.141	0.188
-654.872	167.726	0.035	0.050
-653.857	-77.975	-0.327	0.114
-652.843	9.383	0.033	-0.025
-651.828	-137.373	-0.369	-0.042
-650.814	504.585	0.083	-0.194
-649.799	-99.882	-0.247	0.062
-648.784	-200.000	-0.055	-0.367
-647.770	-200.000	-0.013	0.182
-646.755	-59.911	-0.143	-0.062
-645.741	505.180	0.056	0.131
-644.726	-200.000	0.023	0.179
-643.711	244.024	0.079	-0.134
-642.697	197.167	0.059	0.091
-641.682	-103.123	0.171	0.041
-640.668	-42.476	-0.167	-0.086
-639.653	609.081	-0.043	0.108
-638.638	-102.911	0.348	-0.083
-637.624	304.420	-0.249	0.467
-636.609	-182.607	0.091	0.002
-635.595	271.271	-0.176	-0.313
-634.580	133.398	0.096	0.126
-633.565	-79.063	-0.162	-0.055
-632.551	156.644	-0.090	0.125
-631.536	-200.000	-0.085	0.436
-630.522	-36.899	0.313	-0.169
-629.507	384.034	-0.087	0.180
-628.492	-200.000	-0.041	-0.330
-627.478	355.479	0.135	-0.272
-626.463	-79.991	0.290	-0.098
-625.449	122.120	0.108	0.136
-624.434	162.197	0.086	0.122
-623.419	59.751	0.270	-0.269
-622.405	-17.811	0.269	-0.170
-621.390	399.493	0.021	-0.044
-620.376	800.000	-0.055	-0.193
-619.361	-200.000	0.000	-0.007
-618.346	-68.502	0.111	-0.044
-617.332	356.628	0.059	-0.118
-616.317	800.000	0.075	0.245
-615.303	800.000	-0.120	-0.337
-614.288	-64.312	0.172	0.071
-613.273	80.363	-0.218	0.236
-612.259	-56.548	0.221	0.099
-611.244	-12.101	-0.086	0.057
-610.230	382.548	0.082	0.169
-609.215	800.000	-0.031	-0.092
-608.201	96.569	-0.122	-0.141
-607.186	30.559	-0.076	0.066
-606.171	-149.552	0.212	-0.017
-605.157	-2.901	-0.124	0.087
-604.142	228.377	-0.108	-0.177
-603.128	-200.000	0.018	0.198
-602.113	72.219	-0.148	0.155
-601.098	800.000	-0.030	0.085
-600.084	-169.827	0.476	0.017
-599.069	26.662	-0.197	0.166
-598.055	17.410	-0.179	0.143
-597.040	114.246	-0.259	-0.318
-596.025	800.000	-0.032	0.104
-595.011	-200.000	0.008	-0.203
-593.996	-161.894	-0.110	-0.006
-592.982	800.000	-0.074	-0.221
-591.967	-53.719	0.146	0.067
-590.952	-86.759	-0.371	0.114
-589.938	-9.372	-0.263	0.177
-588.923	-58.591	-0.068	-0.029
-587.909	-108.257	0.252	0.055
-586.894	-200.000	-0.046	0.400
-585.879	413.236	0.058	0.125
-584.865	129.239	0.130	0.168
-583.850	-182.121	0.362	0.007
-582.836	-124.367	-0.080	0.012
-581.821	800.000	0.092	0.270
-580.806	251.449	-0.079	0.136
-579.792	-114.267	-0.208	0.040
-578.777	204.892	-0.107	0.168
-577.763	16.362	0.130	-0.103
-576.748	-117.963	0.197	0.035
-575.733	647.875	-0.048	-0.123
-574.719	757.687	0.157	-0.427
-573.704	800.000	0.038	0.149
-572.690	104.396	-0.134	0.159
-571.675	-43.331	-0.177	0.090
-570.661	-92.139	0.202	0.057
-569.646	-81.059	-0.231	0.077
-568.631	-38.282	-0.162	-0.086
-567.617	-200.000	0.016	0.094
-566.602	34.973	0.215	-0.189
-565.588	-101.502	0.239	0.058
-564.573	95.819	-0.072	-0.082
-563.558	-59.985	-0.130	0.056
-562.544	-200.000	-0.050	0.532
-561.529	-103.004	-0.166	-0.040
-560.515	441.048	-0.130	0.285
-559.500	530.965	-0.040	-0.095
-558.485	98.785	0.143	-0.167
-557.471	201.269	-0.112	-0.174
-556.456	345.684	0.259	-0.513
-555.442	240.780	0.054	0.091
-554.427	-112.249	-0.119	0.024
-553.412	-92.706	-0.431	-0.121
-552.398	103.160	0.243	-0.286
-551.383	-200.000	0.009	-0.147
-550.369	62.070	0.090	-0.090
-549.354	50.529	-0.189	-0.180
-548.339	346.419	-0.264	0.522
-547.325	103.525	-0.164	-0.193
-546.310	-180.296	0.125	-0.003
-545.296	800.000	0.056	-0.184
-544.281	-141.367	0.211	-0.021
-543.266	21.741	0.174	0.142
-542.252	-60.013	-0.187	-0.080
-541.237	-200.000	0.033	0.227
-540.223	-200.000	-0.034	0.183
-539.208	59.649	0.008	-0.008
-538.193	800.000	-0.059	-0.188
-537.179	-112.351	-0.264	-0.053
-536.164	65.727	-0.119	-0.121
-535.150	274.763	-0.077	0.137
-534.135	-200.000	-0.040	0.338
-533.121	-104.848	0.068	0.016
-532.106	102.533	-0.237	-0.278
-531.091	72.952	-0.186	0.195
-530.077	759.974	-0.028	-0.076
-529.062	-89.216	-0.134	-0.040
-528.048	-200.000	0.009	-0.185
-527.033	-200.000	-0.020	-0.175
-526.018	800.000	-0.040	-0.125
-525.004	35.170	0.137	0.120
-523.989	64.481	-0.097	0.099
-522.975	-200.000	-0.018	0.275
-521.960	-174.776	-0.294	0.008
-520.945	-95.193	-0.120	-0.032
-519.931	800.000	-0.025	0.091
-518.916	31.592	0.195	0.168
-517.902	-76.175	-0.217	0.077
-516.887	-144.867	-0.176	0.016
-515.872	16.668	-0.258	0.205
-514.858	-124.684	0.156	0.024
-513.843	238.648	0.120	0.200
-512.829	61.440	-0.174	0.174
-511.814	-97.359	0.206	-0.054
-510.799	-200.000	-0.012	0.067
-509.785	-70.111	-0.270	0.103
-508.770	-14.227	0.228	-0.147
-507.756	800.000	0.036	0.105
-506.741	128.763	0.190	-0.243
-505.726	53.809	0.237	0.228
-504.712	-158.783	-0.260	-0.015
-503.697	79.079	-0.142	-0.152
-502.683	67.792	0.054	-0.056
-501.668	-200.000	-0.004	-0.031
-500.653	-140.690	-0.111	-0.012
-499.639	800.000	-0.080	0.303
-498.624	120.322	-0.096	-0.120
-497.610	-2.692	-0.221	-0.155
-496.595	-18.931	0.065	-0.040
-495.581	800.000	0.042	-0.144
-494.566	800.000	-0.053	0.157
-493.551	-200.000	0.029	-0.203
-492.537	249.592	-0.063	0.107
-491.522	2.836	0.127	0.092
-490.508	-103.172	0.088	-0.021
-489.493	-38.341	0.120	0.064
-488.478	-94.684	0.146	-0.040
-487.464	-164.140	0.177	0.008
-486.449	800.000	-0.084	-0.281
-485.435	129.450	0.282	-0.361
-484.420	420.447	-0.053	0.114
-483.405	-175.967	0.124	0.003
-482.391	298.920	-0.047	-0.087
-481.376	-200.000	-0.013	-0.215
-480.362	82.411	0.108	-0.118
-479.347	-68.526	0.167	0.065
-478.332	800.000	-0.090	0.294
-477.318	-149.658	0.286	0.023
-476.303	41.097	0.135	-0.122
-475.289	182.776	-0.163	-0.241
-474.274	3.131	-0.079	0.058
-473.259	219.246	0.114	-0.183
-472.245	733.160	0.038	-0.103
-471.230	-75.774	0.110	-0.039
-470.216	-200.000	-0.009	0.043
-469.201	800.000	-0.036	0.114
-468.186	146.325	-0.130	-0.175
-467.172	-112.289	0.416	-0.084
-466.157	-200.000	-0.009	-0.147
-465.143	-200.000	-0.048	0.283
-464.128	-120.041	-0.056	-0.010
-463.113	-67.148	0.252	0.099
-462.099	218.426	0.051	0.081
-461.084	-41.352	0.193	0.100
-460.070	-28.781	-0.094	-0.054
-459.055	47.587	-0.121	-0.113
-458.040	800.000	-0.015	-0.046
-457.026	800.000	0.127	0.396
-456.011	47.244	0.154	-0.144
-454.997	-200.000	-0.018	0.123
-453.982	413.068	-0.187	-0.398
-452.968	98.985	-0.077	0.089
-451.953	206.440	-0.174	0.272
-450.938	289.638	0.115	0.210
-449.924	576.568	-0.084	0.205
-448.909	590.928	-0.104	0.257
-447.895	800.000	0.039	0.122
-446.880	39.177	0.054	0.048
-445.865	800.000	0.092	0.357
-444.851	7.281	0.107	-0.080
-443.836	-200.000	-0.006	0.263
-442.822	187.937	0.104	0.155
-441.807	-200.000	0.003	-0.051
-440.792	359.233	0.121	-0.242
-439.778	256.167	-0.157	-0.270
-438.763	-81.519	-0.290	0.095
-437.749	800.000	-0.019	-0.061
-436.734	5.577	0.326	-0.241
-435.719	9.669	0.168	0.127
-434.705	59.399	-0.141	0.139
-433.690	-152.899	0.364	-0.026
-432.676	-200.000	-0.034	0.160
-431.661	299.515	-0.090	0.166
-430.646	-56.870	0.092	0.041
-429.632	589.008	0.191	0.470
-428.617	-99.360	0.174	-0.044
-427.603	-2.572	-0.144	0.101
-426.588	-18.029	0.467	-0.293
-425.573	-200.000	0.026	0.197
-424.559	-93.322	-0.399	-0.111
-423.544	-29.040	0.077	-0.044
-422.530	-200.000	0.008	-0.039
-421.515	-10.197	0.312	0.207
-420.500	475.153	0.166	-0.376
-419.486	88.360	0.076	0.085
-418.471	-200.000	-0.039	0.204
-417.457	-200.000	0.016	0.232
-416.442	800.000	-0.118	0.452
-415.428	-30.185	0.069	0.040
-414.413	327.534	-0.145	-0.278
-413.398	34.472	0.115	0.100
-412.384	800.000	-0.139	0.431
-411.369	219.145	0.054	-0.086
-410.355	269.546	0.232	-0.408
-409.340	-23.172	-0.183	0.110
-408.325	594.076	-0.084	0.207
-407.311	-67.350	-0.021	-0.008
-406.296	150.753	-0.141	0.191
-405.282	-153.928	0.245	-0.017
-404.267	71.281	0.262	0.272
-403.252	168.628	0.145	0.206
-402.238	-88.059	-0.107	-0.032
-401.223	39.166	0.252	0.225
-400.209	140.076	-0.158	-0.209
-399.194	-200.000	-0.005	-0.050
-398.179	-200.000	0.063	0.342
-397.165	24.569	-0.242	-0.200
-396.150	-27.241	0.118	-0.069
-395.136	15.625	0.088	0.069
-394.121	134.960	0.193	0.251
-393.106	-66.831	-0.043	-0.017
-392.092	140.652	-0.160	0.211
-391.077	157.547	0.019	-0.027
-390.063	-200.000	-0.024	0.146
-389.048	-133.098	0.388	0.049
-388.033	153.203	0.151	0.207
-387.019	-200.000	0.013	0.280
-386.004	97.476	-0.049	0.057
-384.990	105.972	0.191	0.226
-383.975	800.000	-0.007	0.028
-382.960	269.654	0.088	-0.154
-381.946	-12.320	0.104	0.068
-380.931	800.000	0.109	-0.314
-379.917	494.227	0.172	-0.393
-378.902	126.460	-0.250	-0.316
-377.888	-103.888	-0.236	-0.055
-376.873	30.551	0.099	0.084
-375.858	-70.712	0.278	0.105
-374.844	123.660	-0.244	0.306
-373.829	205.275	0.183	0.284
-372.815	63.735	0.229	0.230
-371.800	-84.265	-0.264	-0.084
-370.785	800.000	0.063	-0.179
-369.771	800.000	-0.081	-0.265
-368.756	-148.518	0.089	-0.007
-367.742	-68.528	-0.159	0.061
-366.727	107.670	0.067	-0.080
-365.712	-200.000	0.002	0.015
-364.698	-75.602	-0.172	0.061
-363.683	379.339	-0.055	-0.113
-362.669	-15.849	-0.100	-0.064
-361.654	-121.339	0.178	-0.030
-360.639	251.177	0.080	-0.136
-359.625	93.184	-0.106	0.120
-358.610	127.808	0.018	-0.023
-357.596	-106.334	-0.206	-0.046
-356.581	-200.000	-0.251	-0.001
-355.566	-200.000	-0.015	0.255
-354.552	113.940	-0.274	-0.333
-353.537	800.000	0.041	-0.127
-352.523	800.000	0.053	-0.164
-351.508	785.130	-0.111	-0.303
-350.493	215.459	0.046	0.073
-349.479	-122.649	0.124	0.020
-348.464	-109.813	-0.332	-0.070
-347.450	-137.936	-0.341	0.038
-346.435	-164.211	0.335	-0.015
-345.420	17.983	0.286	-0.228
-344.406	-84.132	-0.120	-0.038
-343.391	-47.705	-0.112	-0.054
-342.377	-55.579	0.184	-0.082
-341.362	800.000	-0.033	-0.108
-340.348	55.215	0.190	-0.183
-339.333	-72.573	-0.254	-0.094
-338.318	-31.569	-0.280	-0.157
-337.304	-185.047	0.320	-0.005
-336.289	195.307	0.093	-0.140
-335.275	-165.967	0.309	-0.013
-334.260	-170.853	-0.390	-0.013
-333.245	-114.338	0.090	-0.017
-332.231	239.479	0.065	0.109
-331.216	-24.802	0.228	0.135
-330.202	-200.000	0.056	-0.268
-329.187	68.056	-0.183	0.187
-328.172	135.930	-0.118	-0.153
-327.158	53.645	-0.225	-0.215
-326.143	-200.000	0.028	-0.132
-325.129	-139.278	0.073	-0.008
-324.114	87.528	-0.085	0.094
-323.099	67.597	0.088	-0.089
-322.085	37.262	-0.081	0.071
-321.070	228.664	0.199	0.323
-320.056	117.173	0.130	0.159
-319.041	-21.561	0.307	-0.187
-318.026	-200.000	-0.035	-0.243
-317.012	-24.842	-0.055	-0.033
-315.997	800.000	-0.056	0.239
-314.983	-156.624	0.307	-0.019
-313.968	22.216	0.071	-0.058
-312.953	-131.972	-0.317	0.041
-311.939	350.043	0.063	0.124
-310.924	-67.980	0.090	0.035
-309.910	33.826	-0.141	0.122
-308.895	492.898	-0.029	0.067
-307.880	-200.000	-0.014	-0.216
-306.866	0.412	0.209	0.149
-305.851	-61.906	0.018	0.007
-304.837	552.629	0.036	0.086
-303.822	-116.590	0.210	-0.039
-302.807	-200.000	0.007	-0.158
-301.793	-200.000	-0.296	0.000
-300.778	-100.580	-0.103	-0.025
-299.764	40.229	-0.140	0.126
-298.749	272.148	0.112	0.197
-297.735	-27.108	0.025	0.015
-296.720	800.000	0.027	-0.095
-295.705	-44.342	0.298	0.148
-294.691	-200.000	0.010	0.094
-293.676	5.687	0.196	0.144
-292.662	-200.000	-0.014	-0.065
-291.647	272.831	0.119	-0.209
-290.632	-200.000	-0.025	0.202
-289.618	-40.095	-0.318	0.165
-288.603	100.793	0.179	0.207
-287.589	-88.207	-0.152	0.045
-286.574	-116.188	0.115	0.021
-285.559	-200.000	0.016	0.128
-284.545	-200.000	0.030	0.295
-283.530	800.000	-0.132	-0.473
-282.516	161.670	-0.175	-0.244
-281.501	-113.445	-0.214	0.042
-280.486	-152.921	0.259	-0.018
-279.472	-84.471	0.261	0.082
-278.457	-133.807	-0.044	-0.005
-277.443	-53.137	-0.113	-0.052
-276.428	-67.558	0.145	0.057
-275.413	-200.000	-0.009	-0.103
-274.399	-167.257	-0.272	-0.011
-273.384	-63.253	-0.186	-0.076
-272.370	168.495	-0.115	-0.163
-271.355	-200.000	0.006	0.049
-270.340	53.772	0.204	-0.195
-269.326	22.057	-0.092	0.075
-268.311	727.486	0.084	-0.224
-267.297	-172.199	-0.164	0.005
-266.282	-200.000	-0.002	-0.016
-265.267	-200.000	-0.036	-0.240
-264.253	-139.705	-0.450	-0.048
-263.238	800.000	-0.044	0.160
-262.224	-96.258	0.332	0.088
-261.209	-117.234	-0.066	-0.012
-260.195	800.000	0.031	-0.091
-259.180	-104.533	0.150	0.034
-258.165	8.352	-0.116	-0.087
-257.151	-40.872	-0.167	-0.086
-256.136	-8.254	-0.261	0.175
-255.122	-200.000	-0.054	0.387
-254.107	154.044	0.115	-0.157
-253.092	-200.000	-0.041	0.204
-252.078	-200.000	0.003	-0.033
-251.063	800.000	-0.048	0.205
-250.049	70.726	-0.050	-0.052
-249.034	-25.408	0.073	0.043
-248.019	800.000	0.063	-0.196
-247.005	277.568	-0.137	0.242
-245.990	-77.631	0.221	-0.076
-244.976	-86.302	-0.166	0.051
-243.961	-139.855	0.042	-0.004
-242.946	427.714	-0.088	-0.189
-241.932	-2.093	0.213	0.148
-240.917	-72.394	0.137	-0.050
-239.903	-200.000	-0.004	0.189
-238.888	282.738	-0.097	0.172
-237.873	-200.000	0.028	-0.190
-236.859	-200.000	0.006	-0.275
-235.844	-200.000	-0.034	-0.320
-234.830	-200.000	0.018	0.091
-233.815	-200.000	0.021	0.102
-232.800	-200.000	-0.001	-0.064
-231.786	210.157	0.184	-0.288
-230.771	-181.911	0.112	0.002
-229.757	-200.000	0.024	0.176
-228.742	-69.179	0.330	-0.126
-227.727	-62.692	0.423	-0.174
-226.713	-91.421	0.206	-0.058
-225.698	-166.269	-0.234	0.010
-224.684	800.000	-0.037	0.124
-223.669	48.159	-0.094	-0.087
-222.655	800.000	0.016	-0.069
-221.640	-58.714	-0.341	0.147
-220.625	-142.324	-0.352	-0.035
-219.611	299.805	-0.049	-0.090
-218.596	542.510	-0.125	-0.296
-217.582	40.257	-0.200	-0.179
-216.567	310.126	-0.135	0.251
-215.552	1.183	-0.137	-0.098
-214.538	297.193	0.065	0.119
-213.523	315.690	0.087	0.163
-212.509	1.548	-0.280	-0.200
-211.494	229.941	-0.265	-0.429
-210.479	-194.285	-0.088	-0.001
-209.465	10.330	-0.222	0.168
-208.450	-200.000	0.027	-0.205
-207.436	-105.090	-0.169	0.038
-206.421	-84.436	-0.279	-0.088
-205.406	-200.000	-0.022	-0.173
-204.392	-53.072	0.065	-0.030
-203.377	-200.000	-0.068	-0.312
-202.363	50.107	-0.212	0.199
-201.348	-200.000	-0.073	-0.422
-200.333	780.814	0.152	-0.413
-199.319	222.924	-0.021	-0.033
-198.304	-41.977	0.113	-0.058
-197.290	163.781	0.138	-0.193
-196.275	-138.609	-0.205	0.022
-195.260	-86.396	0.115	0.035
-194.246	-15.871	0.418	-0.264
-193.231	-115.247	0.266	0.050
-192.217	-89.343	0.257	-0.075
-191.202	363.727	0.137	0.273
-190.187	326.275	0.011	-0.021
-189.173	-35.566	-0.275	-0.148
-188.158	523.282	-0.071	-0.166
-187.144	800.000	-0.044	-0.160
-186.129	37.246	-0.146	0.128
-185.114	-200.000	-0.008	0.063
-184.100	-200.000	-0.048	-0.324
-183.085	-70.401	0.253	-0.095
-182.071	800.000	0.087	0.355
-181.056	-51.520	-0.331	0.153
-180.042	-69.574	0.276	-0.105
-179.027	62.697	0.038	-0.037
-178.012	277.632	0.122	-0.216
-176.998	290.716	-0.067	-0.120
-175.983	211.425	-0.152	-0.236
-174.969	800.000	-0.123	0.387
-173.954	30.750	-0.202	0.172
-172.939	-119.093	-0.482	-0.084
-171.925	800.000	-0.048	0.194
-170.910	-8.715	-0.071	-0.047
-169.896	-195.986	-0.345	0.002
-168.881	800.000	-0.069	-0.196
-167.866	-200.000	-0.066	-0.344
-166.852	-39.724	-0.199	0.103
-165.837	-1.943	0.213	-0.148
-164.823	-133.043	0.159	-0.020
-163.808	135.701	-0.023	0.030
-162.793	-105.570	-0.215	-0.048
-161.779	140.912	0.229	0.300
-160.764	2.301	-0.107	-0.077
-159.750	41.050	-0.158	0.142
-158.735	262.525	0.060	-0.104
-157.720	-130.159	0.361	-0.049
-156.706	259.540	0.057	0.098
-155.691	800.000	-0.029	-0.109
-154.677	-8.877	0.127	-0.084
-153.662	107.955	-0.145	-0.171
-152.647	-200.000	0.503	-0.002
-151.633	800.000	-0.050	0.192
-150.618	77.468	0.089	0.094
-149.604	-23.211	0.210	-0.125
-148.589	-37.303	-0.139	-0.074
-147.574	-164.719	-0.280	0.013
-146.560	800.000	0.176	-0.626
-145.545	-85.160	0.072	0.022
-144.531	800.000	0.085	0.337
-143.516	437.883	-0.073	0.157
-142.502	-78.336	-0.278	-0.094
-141.487	67.350	-0.156	0.158
-140.472	-41.549	-0.063	-0.032
-139.458	-102.667	-0.391	-0.092
-138.443	45.025	-0.210	0.191
-137.429	-200.000	-0.001	0.192
-136.414	800.000	-0.042	0.145
-135.399	-99.962	0.476	0.118
-134.385	104.593	0.226	-0.263
-133.370	200.626	0.129	-0.197
-132.356	-56.598	-0.316	-0.139
-131.341	-26.737	0.041	0.024
-130.326	-200.000	0.216	0.000
-129.312	109.868	-0.178	0.211
-128.297	-8.961	-0.286	-0.190
-127.283	800.000	-0.050	-0.137
-126.268	-19.768	0.152	0.093
-125.253	424.746	0.134	0.284
-124.239	162.822	-0.185	0.257
-123.224	-26.342	-0.238	0.138
-122.210	473.962	0.140	0.312
-121.195	568.892	0.066	-0.158
-120.180	-200.000	0.017	-0.119
-119.166	297.495	-0.066	0.119
-118.151	-103.710	-0.077	-0.018
-117.137	-65.915	0.260	-0.103
-116.122	-144.551	-0.126	-0.012
-115.107	294.777	0.155	0.280
-114.093	800.000	0.048	-0.184
-113.078	-63.356	0.240	0.098
-112.064	19.865	0.138	0.110
-111.049	800.000	0.045	-0.171
-110.034	-76.970	0.119	0.041
-109.020	-6.215	-0.081	-0.055
-108.005	166.690	-0.209	-0.292
-106.991	-33.067	-0.182	0.100
-105.976	34.455	0.158	0.136
-104.962	280.663	-0.152	0.269
-103.947	58.701	-0.072	-0.070
-102.932	15.106	-0.188	0.146
-101.918	-200.000	-0.015	0.185
-100.903	82.877	-0.050	-0.053
-99.889	-24.479	-0.308	-0.182
-98.874	-78.381	0.091	-0.031
-97.859	-29.670	-0.255	0.144
-96.845	-200.000	-0.009	-0.107
-95.830	-112.277	0.247	-0.049
-94.816	55.710	0.184	0.176
-93.801	-200.000	0.010	0.186
-92.786	366.575	0.254	0.506
-91.772	-163.685	-0.144	0.007
-90.757	40.567	-0.159	0.141
-89.743	671.161	-0.088	0.226
-88.728	87.215	-0.109	0.119
-87.713	95.163	0.098	-0.111
-86.699	-57.037	-0.188	0.082
-85.684	415.585	0.102	-0.216
-84.670	83.107	-0.160	0.172
-83.655	-82.896	0.070	-0.022
-82.640	-200.000	-0.014	-0.166
-81.626	82.704	-0.220	0.236
-80.611	-8.258	-0.318	0.211
-79.597	800.000	-0.128	-0.365
-78.582	127.704	0.146	0.183
-77.567	140.625	-0.213	0.278
-76.553	107.669	0.219	-0.257
-75.538	800.000	-0.017	-0.066
-74.524	146.480	0.214	-0.284
-73.509	-200.000	0.001	-0.116
-72.494	800.000	0.032	-0.090
-71.480	535.658	0.130	-0.304
-70.465	49.742	0.346	0.322
-69.451	159.900	0.173	0.237
-68.436	232.131	-0.147	0.238
-67.422	-200.000	0.064	0.361
-66.407	38.257	0.048	0.042
-65.392	123.623	-0.121	-0.150
-64.378	-165.244	0.062	0.003
-63.363	-138.509	-0.149	-0.016
-62.349	-18.833	-0.391	0.240
-61.334	-22.124	-0.839	-0.502
-60.319	-10.847	0.278	0.181
-59.305	800.000	-0.304	-0.887
-58.290	800.000	0.353	1.029
-57.276	800.000	0.436	1.338
-56.261	-200.000	96.660	567.313
-55.246	630.369	1395.281	3482.321
-54.232	186.712	2612.037	3837.569
-53.217	114.232	2307.748	2770.554
-52.203	43.863	1919.168	1733.747
-51.188	37.617	1706.198	1493.559
-50.173	34.826	1661.437	1433.428
-49.159	51.437	1709.677	1601.765
-48.144	54.883	1727.241	1644.352
-47.130	37.235	1683.635	1470.680
-46.115	34.312	1668.911	1435.772
-45.100	34.127	1663.909	1430.022
-44.086	34.162	1661.067	1427.790
-43.071	34.189	1658.594	1425.809
-42.057	34.171	1655.771	1423.185
-41.042	34.056	1654.884	1421.513
-40.027	34.233	1651.776	1420.105
-39.013	34.248	1649.646	1418.327
-37.998	34.121	1648.879	1416.669
-36.984	34.128	1647.199	1415.217
-35.969	34.333	1645.243	1415.009
-34.954	34.273	1643.601	1413.092
-33.940	34.354	1641.857	1412.136
-32.925	34.345	1640.023	1410.437
-31.911	34.296	1638.381	1408.607
-30.896	34.366	1636.514	1407.464
-29.881	34.259	1635.613	1405.844
-28.867	34.214	1633.641	1403.762
-27.852	34.280	1631.943	1402.732
-26.838	34.244	1630.791	1401.423
-25.823	34.258	1629.220	1400.118
-24.809	34.335	1627.758	1399.372
-23.794	34.358	1626.476	1398.378
-22.779	34.348	1624.620	1396.657
-21.765	34.394	1622.983	1395.529
-20.750	34.347	1621.325	1393.708
-19.736	34.436	1620.081	1393.232
-18.721	34.443	1618.529	1391.895
-17.706	34.319	1616.886	1389.519
-16.692	34.322	1615.538	1388.327
-15.677	34.309	1613.885	1386.759
-14.663	34.325	1613.003	1386.061
-13.648	34.326	1611.385	1384.624
-12.633	34.389	1609.543	1383.446
-11.619	34.302	1608.478	1381.845
-10.604	34.401	1606.532	1380.830
-9.590	34.380	1605.269	1379.542
-8.575	34.366	1603.958	1378.261
-7.560	34.388	1602.564	1377.167
-6.546	34.291	1601.961	1375.890
-5.531	34.369	1600.684	1375.300
-4.517	34.414	1599.118	1374.227
-3.502	34.383	1598.649	1373.544
-2.487	34.431	1596.756	1372.210
-1.473	34.198	1585.421	1360.750
-0.458	31.562	1565.564	1325.017
0.556	26.746	1565.575	1290.748
1.571	24.306	1589.470	1292.666
2.586	23.718	1602.873	1299.155
3.600	21.288	1550.740	1239.573
4.615	13.313	1440.785	1098.793
5.629	6.270	1376.935	1005.147
6.644	5.116	1369.149	992.044
7.659	4.973	1367.350	989.742
8.673	4.976	1366.310	988.919
9.688	4.986	1364.120	987.312
10.702	4.805	1361.871	984.451
11.717	8.216	1368.026	1010.452
12.731	15.689	1382.070	1068.387
13.746	19.579	1387.031	1096.886
14.761	18.697	1384.281	1089.020
15.775	17.384	1382.011	1078.813
16.790	16.384	1378.657	1069.770
17.804	15.585	1376.303	1062.797
18.819	15.150	1374.911	1058.883
19.834	14.855	1373.733	1056.014
20.848	14.695	1372.152	1053.696
21.863	14.412	1371.106	1051.016
22.877	14.304	1369.951	1049.358
23.892	14.235	1369.512	1048.495
24.907	14.197	1368.403	1047.311
25.921	14.171	1367.678	1046.503
26.936	14.284	1366.888	1046.516
27.950	14.267	1365.619	1045.343
28.965	14.398	1364.548	1045.254
29.980	14.447	1363.649	1044.778
30.994	14.507	1362.320	1044.048
32.009	14.568	1361.021	1043.339
33.023	14.589	1359.807	1042.449
34.038	14.542	1358.172	1040.811
35.053	14.487	1357.292	1039.702
36.067	14.451	1356.017	1038.404
37.082	14.450	1355.195	1037.682
38.096	14.440	1354.182	1036.746
39.111	14.455	1353.227	1036.016
40.126	14.414	1352.293	1034.957
41.140	14.270	1351.258	1033.181
42.155	14.170	1350.988	1032.261
43.169	14.197	1350.939	1032.303
44.184	14.080	1350.606	1031.231
45.199	14.198	1349.827	1031.272
46.213	14.133	1349.491	1030.525
47.228	14.390	1348.387	1031.181
48.242	14.414	1347.299	1030.403
49.257	14.371	1346.043	1029.091
50.271	14.332	1344.228	1027.368
51.286	14.366	1343.154	1026.668
52.301	14.376	1341.772	1025.583
53.315	14.307	1341.016	1024.488
54.330	14.196	1340.122	1023.033
55.344	14.228	1338.500	1021.899
56.359	14.298	1337.243	1021.279
57.374	14.181	1336.365	1019.801
58.388	14.110	1336.001	1018.997
59.403	14.128	1335.550	1018.673
60.417	14.167	1334.310	1017.874
61.432	14.169	1333.542	1017.211
62.447	14.086	1332.709	1015.980
63.461	14.071	1331.834	1015.134
64.476	14.008	1330.827	1013.891
65.490	14.015	1329.417	1012.769
66.505	14.071	1328.001	1011.941
67.520	14.109	1326.688	1011.081
68.534	14.156	1325.674	1010.509
69.549	14.244	1324.320	1009.921
70.563	14.121	1323.552	1008.499
71.578	14.067	1322.242	1007.080
72.593	14.034	1321.628	1006.329
73.607	13.857	1320.823	1004.557
74.622	13.953	1320.082	1004.483
75.636	13.917	1319.740	1003.916
76.651	13.952	1318.539	1003.125
77.666	14.018	1318.173	1003.156
78.680	14.034	1317.390	1002.569
79.695	14.062	1316.507	1001.973
80.709	14.203	1315.908	1002.281
81.724	14.172	1315.365	1001.590
82.739	14.268	1314.288	1001.258
83.753	14.321	1313.131	1000.606
84.768	14.366	1312.327	1000.180
85.782	14.491	1311.371	1000.113
86.797	14.439	1309.913	998.599
87.812	14.226	1309.381	996.826
88.826	14.260	1308.348	996.156
89.841	14.283	1306.722	994.970
90.855	14.346	1305.670	994.458
91.870	14.319	1305.039	993.724
92.884	14.388	1303.951	993.220
93.899	14.473	1303.532	993.318
94.914	14.466	1302.633	992.503
95.928	14.501	1302.190	992.286
96.943	14.478	1301.174	991.290
97.957	14.344	1300.412	989.828
98.972	14.418	1299.007	989.106
99.987	14.419	1297.837	988.135
101.001	14.338	1297.148	987.041
102.016	14.420	1295.955	986.536
103.030	14.366	1295.324	985.645
104.045	14.444	1293.806	984.865
105.060	14.434	1292.900	984.031
106.074	14.211	1291.817	981.800
107.089	14.163	1290.351	980.318
108.103	14.038	1289.294	978.695
109.118	14.149	1287.760	978.093
110.133	14.188	1286.124	976.992
111.147	14.158	1284.979	975.862
112.162	14.178	1283.487	974.762
113.176	14.217	1283.075	974.590
114.191	14.273	1281.843	973.896
115.206	14.339	1280.286	973.012
116.220	14.161	1279.474	971.269
117.235	14.138	1278.728	970.484
118.249	14.252	1277.346	970.011
119.264	14.157	1276.185	968.494
120.279	14.200	1274.753	967.570
121.293	14.201	1273.992	966.915
122.308	14.208	1272.827	965.985
123.322	14.189	1272.059	965.202
124.337	14.068	1270.885	963.529
125.352	14.127	1269.781	962.949
126.366	14.159	1268.921	962.395
127.381	14.143	1267.674	961.269
128.395	14.031	1266.969	960.003
129.410	14.190	1266.033	960.128
130.424	14.129	1265.396	959.209
131.439	14.130	1264.408	958.378
132.454	14.299	1263.087	958.265
133.468	14.237	1262.316	957.242
134.483	14.330	1261.442	957.029
135.497	14.246	1260.436	955.698
136.512	14.293	1259.714	955.336
137.527	14.202	1258.016	953.442
138.541	14.315	1256.700	953.005
139.556	14.397	1255.059	952.147
140.570	14.353	1254.271	951.211
141.585	14.414	1253.016	950.526
142.600	14.415	1252.284	949.890
143.614	14.570	1251.125	949.809
144.629	14.554	1249.604	948.479
145.643	14.549	1248.519	947.547
146.658	14.444	1247.273	945.919
147.673	14.405	1246.139	944.752
148.687	14.342	1245.043	943.484
149.702	14.325	1243.518	942.147
150.716	14.299	1242.497	941.146
151.731	14.275	1241.350	940.054
152.746	14.383	1239.776	939.390
153.760	14.318	1238.739	938.158
154.775	14.451	1237.495	937.878
155.789	14.420	1236.823	937.111
156.804	14.420	1236.095	936.480
157.819	14.500	1234.185	935.394
158.833	14.451	1233.704	934.673
159.848	14.644	1232.752	934.951
160.862	14.548	1231.982	933.747
161.877	14.457	1230.717	932.196
162.892	14.401	1229.634	930.983
163.906	14.396	1228.552	930.055
164.921	14.420	1227.821	929.549
165.935	14.431	1227.318	929.146
166.950	14.531	1226.185	928.766
167.964	14.489	1225.781	928.145
168.979	14.416	1225.350	927.328
169.994	14.572	1224.031	927.115
171.008	14.501	1223.026	925.876
172.023	14.584	1222.683	925.996
173.037	14.602	1221.772	925.327
174.052	14.661	1220.823	924.853
175.067	14.508	1220.190	923.445
176.081	14.526	1218.676	922.315
177.096	14.512	1217.743	921.450
178.110	14.565	1216.853	920.989
179.125	14.564	1215.526	919.895
180.140	14.627	1214.061	919.056
181.154	14.649	1213.203	918.441
182.169	14.655	1211.633	917.207
183.183	14.777	1210.410	916.870
184.198	14.741	1209.663	916.026
185.213	14.663	1208.620	914.729
186.227	14.861	1207.391	914.799
187.242	14.866	1206.249	913.881
188.256	14.799	1205.553	912.906
189.271	14.813	1204.873	912.388
190.286	14.756	1203.732	911.133
191.300	14.634	1202.632	909.552
192.315	14.446	1202.193	908.118
193.329	14.475	1201.798	907.898
194.344	14.613	1200.646	907.695
195.359	14.589	1200.301	907.226
196.373	14.728	1199.825	907.537
197.388	14.860	1199.107	907.634
198.402	14.934	1198.849	907.758
199.417	14.988	1198.268	907.533
200.432	15.037	1197.439	907.088
201.446	15.037	1196.762	906.493
202.461	15.179	1195.603	906.308
203.475	15.119	1194.610	905.150
204.490	15.117	1193.464	904.188
205.504	15.052	1192.088	902.714
206.519	15.015	1191.002	901.617
207.534	14.955	1190.131	900.551
208.548	14.894	1189.246	899.474
209.563	14.921	1188.276	898.807
210.577	15.004	1187.585	898.651
211.592	15.184	1186.451	898.679
212.607	15.126	1185.352	897.456
213.621	15.159	1184.645	897.018
214.636	15.122	1184.007	896.256
215.650	15.169	1183.099	895.740
216.665	15.192	1181.727	894.748
217.680	15.259	1180.903	894.402
218.694	15.372	1180.054	894.283
219.709	15.172	1179.854	892.983
220.723	15.247	1178.979	892.645
221.738	15.235	1178.401	892.060
222.753	15.316	1177.266	891.556
223.767	15.331	1176.454	890.941
224.782	15.314	1176.131	890.526
225.796	15.454	1175.117	890.421
226.811	15.403	1174.669	889.734
227.826	15.336	1174.066	888.843
228.840	15.343	1173.276	888.204
229.855	15.374	1172.493	887.695
230.869	15.386	1171.794	887.153
231.884	15.404	1170.661	886.312
232.899	15.233	1170.173	884.964
233.913	15.212	1169.353	884.154
234.928	15.180	1168.813	883.497
235.942	15.152	1167.826	882.526
236.957	15.184	1167.383	882.279
237.972	15.165	1166.716	881.600
238.986	15.157	1165.939	880.894
240.001	15.232	1164.988	880.486
241.015	15.340	1163.921	880.170
242.030	15.436	1163.019	879.915
243.045	15.395	1162.362	879.126
244.059	15.441	1161.795	878.860
245.074	15.472	1160.559	878.009
246.088	15.535	1159.929	877.784
247.103	15.541	1159.284	877.250
248.117	15.558	1158.708	876.823
249.132	15.667	1158.133	876.881
250.147	15.693	1157.497	876.455
251.161	15.832	1156.456	876.317
252.176	15.730	1156.383	875.650
253.190	15.771	1155.618	875.208
254.205	15.943	1154.815	875.413
255.220	15.969	1154.334	875.110
256.234	15.863	1153.735	874.026
257.249	15.916	1153.180	873.804
258.263	15.964	1152.069	873.131
259.278	15.946	1151.450	872.492
260.293	15.976	1151.199	872.383
261.307	16.083	1150.472	872.309
262.322	16.024	1149.591	871.260
263.336	16.061	1149.195	871.072
264.351	16.150	1148.166	870.672
265.366	16.027	1147.766	869.657
266.380	16.146	1147.344	869.874
267.395	16.095	1146.447	868.856
268.409	15.952	1145.726	867.497
269.424	16.068	1144.573	867.146
270.439	16.108	1144.090	866.907
271.453	15.950	1143.855	865.838
272.468	16.058	1142.036	864.938
273.482	16.076	1141.811	864.787
274.497	15.963	1141.274	863.724
275.512	15.965	1140.561	863.115
276.526	16.072	1139.559	862.829
277.541	15.980	1139.312	862.096
278.555	16.054	1138.462	861.756
279.570	16.281	1137.785	862.327
280.585	16.333	1136.785	861.759
281.599	16.173	1135.923	860.210
282.614	16.189	1135.061	859.565
283.628	16.063	1134.050	858.082
284.643	16.238	1133.071	858.152
285.657	16.199	1132.557	857.493
286.672	16.165	1131.025	856.082
287.687	16.249	1130.300	855.884
288.701	16.248	1129.837	855.453
289.716	16.335	1128.890	855.103
290.730	16.344	1128.145	854.509
291.745	16.257	1127.755	853.697
292.760	16.344	1127.117	853.577
293.774	16.403	1126.175	853.088
294.789	16.484	1125.539	852.934
295.803	16.372	1125.458	852.236
296.818	16.402	1124.352	851.475
297.833	16.448	1123.303	850.834
298.847	16.428	1122.982	850.415
299.862	16.296	1122.346	849.195
300.876	16.331	1121.410	848.587
301.891	16.448	1120.935	848.741
302.906	16.559	1120.032	848.539
303.920	16.543	1119.828	848.229
304.935	16.528	1119.144	847.561
305.949	16.637	1118.172	847.295
306.964	16.673	1117.579	846.953
307.979	16.589	1116.699	845.790
308.993	16.590	1115.949	845.150
310.008	16.571	1115.154	844.381
311.022	16.667	1114.254	844.103
312.037	16.758	1113.655	844.029
313.052	16.590	1113.097	842.695
314.066	16.497	1111.810	841.181
315.081	16.581	1110.919	840.848
316.095	16.473	1110.355	839.810
317.110	16.560	1109.153	839.262
318.125	16.724	1108.152	839.240
319.139	16.564	1107.930	838.206
320.154	16.575	1107.230	837.657
321.168	16.590	1106.728	837.276
322.183	16.570	1106.397	836.857
323.197	16.553	1105.864	836.291
324.212	16.664	1104.785	835.949
325.227	16.567	1104.517	835.194
326.241	16.745	1103.591	835.299
327.256	16.720	1102.924	834.598
328.270	16.603	1101.968	833.224
329.285	16.619	1101.071	832.549
330.300	16.652	1100.283	832.042
331.314	16.676	1099.120	831.207
332.329	16.696	1097.832	830.258
333.343	16.733	1097.447	830.078
334.358	16.774	1096.807	829.721
335.373	16.917	1095.977	829.719
336.387	16.982	1095.067	829.275
337.402	16.969	1094.604	828.786
338.416	16.886	1094.010	827.856
339.431	16.866	1093.049	826.957
340.446	17.065	1092.596	827.515
341.460	17.101	1091.797	827.008
342.475	17.113	1090.951	826.355
343.489	17.129	1090.352	825.908
344.504	17.177	1089.216	825.205
345.519	17.176	1087.943	824.161
346.533	17.288	1087.363	824.196
347.548	17.312	1086.551	823.622
348.562	17.233	1085.867	822.649
349.577	17.166	1085.123	821.686
350.592	17.109	1084.403	820.796
351.606	17.018	1083.817	819.840
352.621	17.021	1082.773	818.992
353.635	17.164	1082.246	819.211
354.650	17.043	1081.289	817.831
355.665	17.148	1080.743	817.848
356.679	17.198	1080.271	817.663
357.694	17.182	1079.885	817.216
358.708	17.187	1079.106	816.580
359.723	17.187	1078.621	816.144
360.738	17.063	1078.367	815.284
361.752	17.124	1077.572	814.904
362.767	17.227	1077.123	814.985
363.781	17.336	1076.028	814.606
364.796	17.383	1075.446	814.316
365.810	17.477	1074.920	814.298
366.825	17.483	1074.412	813.870
367.840	17.535	1074.015	813.745
368.854	17.507	1073.323	813.013
369.869	17.588	1072.525	812.723
370.883	17.433	1072.044	811.550
371.898	17.527	1071.040	811.167
372.913	17.516	1070.339	810.513
373.927	17.448	1069.902	809.783
374.942	17.512	1069.528	809.736
375.956	17.639	1068.880	809.773
376.971	17.591	1068.192	808.953
377.986	17.668	1067.566	808.776
379.000	17.831	1067.097	809.120
380.015	17.694	1066.511	807.957
381.029	17.724	1066.035	807.665
382.044	17.759	1065.624	807.450
383.059	17.666	1064.893	806.385
384.073	17.719	1064.062	805.931
385.088	17.806	1062.878	805.374
386.102	17.737	1062.034	804.340
387.117	17.771	1060.860	803.539
388.132	17.763	1059.817	802.638
389.146	17.748	1058.996	801.875
390.161	17.639	1058.485	800.906
391.175	17.623	1057.943	800.348
392.190	17.840	1057.198	800.734
393.205	17.891	1056.611	800.457
394.219	17.787	1055.940	799.393
395.234	17.782	1054.955	798.550
396.248	17.711	1053.860	797.318
397.263	17.616	1053.202	796.306
398.278	17.713	1052.384	796.070
399.292	17.794	1051.391	795.627
400.307	17.672	1050.836	794.569
401.321	17.693	1050.314	794.203
402.336	17.732	1049.224	793.488
403.350	17.733	1048.727	793.046
404.365	17.832	1047.834	792.761
405.380	17.868	1047.525	792.623
406.394	17.837	1046.504	791.640
407.409	18.040	1045.700	791.902
408.423	18.057	1044.845	791.262
409.438	18.009	1044.885	791.000
410.453	18.086	1043.995	790.612
411.467	18.184	1043.407	790.551
412.482	18.275	1042.543	790.249
413.496	18.252	1041.804	789.510
414.511	18.240	1041.399	789.076
415.526	18.335	1040.535	788.792
416.540	18.285	1040.158	788.203
417.555	18.256	1040.038	787.911
418.569	18.125	1039.884	787.122
419.584	18.303	1038.892	787.120
420.599	18.382	1038.468	787.092
421.613	147.657	1400.165	1790.053
422.628	134.928	1452.860	1790.183
