DTS Sentinel unit serial number:	SN413079Multiplexer serial number:	ORYXHardware model number:	OX4-SRSoftware version number:	ORYX F/W v4.00 Oryx Data Collector v3.7.2.0data status	okinstallation	princeton_trtdifferential loss correction	single-endedforward channel	channel 2reverse channel	N/Adate	2019/09/12time	18:24:49forward acquisition time	15.00reverse acquisition time	0.00gamma	496.2192k internal	0.2323k external	0.2323temperature offset calibration	1.0123default loss term (dB/km)	0.3790temperature slope calibration	1.0000multiplexer offset coefficient	1.0000multiplexer slope coefficient	1.0000fibre end	0.00T internal ref (°C)	33.37T ext. ref 1 (°C)	2.93T ext. ref 2 (°C)	28.00length (m)	temperature (°C)	Stokes	anti-Stokes-747.200	-103.032	0.644	0.154
-746.185	314.134	-0.179	0.339
-745.171	461.458	-0.100	-0.225
-744.156	312.812	0.080	-0.152
-743.142	141.094	-0.498	0.665
-742.127	-126.251	0.691	0.104
-741.112	113.369	0.572	0.701
-740.098	-200.000	-0.108	-0.597
-739.083	-34.365	0.698	-0.386
-738.069	-200.000	-0.024	0.676
-737.054	46.466	1.025	0.960
-736.039	-109.847	0.670	-0.142
-735.025	800.000	0.163	0.459
-734.010	689.056	-0.099	0.261
-732.996	202.429	0.554	0.863
-731.981	-200.000	-0.051	0.277
-730.966	38.004	-0.271	0.243
-729.952	-6.899	-0.364	-0.250
-728.937	-77.734	-0.242	0.084
-727.923	254.069	-0.391	-0.674
-726.908	-50.448	-0.192	-0.092
-725.894	314.227	-0.118	0.223
-724.879	-59.444	0.867	0.376
-723.864	78.188	0.806	-0.868
-722.850	117.057	-0.149	-0.184
-721.835	86.749	-0.823	-0.917
-720.821	-200.000	0.186	-1.760
-719.806	800.000	0.116	-0.326
-718.791	-21.832	-0.075	0.046
-717.777	-53.778	-0.552	-0.254
-716.762	126.485	0.256	0.327
-715.748	-197.253	0.565	0.004
-714.733	-102.797	-0.206	-0.049
-713.718	-104.397	-0.356	-0.083
-712.704	-8.342	-0.571	-0.388
-711.689	114.045	0.311	-0.382
-710.675	-200.000	-0.054	0.353
-709.660	-17.797	-0.569	0.360
-708.645	-200.000	0.016	-0.303
-707.631	-200.000	0.095	0.759
-706.616	800.000	0.154	-0.582
-705.602	-200.000	0.062	-0.437
-704.587	-113.051	0.180	-0.036
-703.572	453.393	-0.203	-0.453
-702.558	42.661	0.374	-0.343
-701.543	-108.179	0.392	-0.085
-700.529	-69.599	-0.391	0.151
-699.514	-81.795	-0.824	0.272
-698.499	44.476	-0.150	-0.139
-697.485	457.218	-0.165	-0.369
-696.470	-169.232	0.369	-0.014
-695.456	324.685	-0.147	0.282
-694.441	800.000	-0.321	0.986
-693.426	65.335	0.438	0.446
-692.412	18.947	-0.154	0.124
-691.397	-45.489	0.425	-0.212
-690.383	-138.298	-0.527	0.059
-689.368	-200.000	0.026	-0.413
-688.354	-149.131	-0.823	0.066
-687.339	48.961	0.484	-0.458
-686.324	-19.492	0.863	-0.539
-685.310	-75.492	0.332	-0.119
-684.295	800.000	0.051	-0.177
-683.281	-130.263	0.890	-0.122
-682.266	-8.791	-0.574	-0.388
-681.251	2.204	0.367	-0.267
-680.237	-141.032	0.676	0.070
-679.222	-60.072	-0.841	-0.362
-678.208	-22.817	0.206	-0.125
-677.193	214.426	0.449	0.715
-676.178	156.022	-0.216	-0.301
-675.164	-85.053	0.830	-0.262
-674.149	-172.193	0.359	-0.012
-673.135	-101.829	0.385	0.094
-672.120	-192.608	-0.337	-0.003
-671.105	-52.245	-1.331	0.621
-670.091	-158.530	0.725	-0.042
-669.076	-182.182	-0.358	-0.007
-668.062	-8.457	-0.404	0.273
-667.047	-164.868	-0.377	-0.017
-666.032	91.201	-0.123	0.139
-665.018	-87.526	0.809	-0.246
-664.003	-37.475	-0.279	0.150
-662.989	-200.000	0.144	-0.859
-661.974	-115.958	0.558	0.105
-660.959	-83.423	-0.572	-0.184
-659.945	101.951	0.148	0.174
-658.930	-31.307	0.120	0.068
-657.916	-124.323	-0.962	-0.151
-656.901	-92.642	1.049	-0.296
-655.886	582.607	0.436	-1.076
-654.872	262.551	-0.273	0.476
-653.857	114.668	0.271	0.332
-652.843	39.773	0.510	0.460
-651.828	-138.712	0.321	-0.035
-650.814	-33.080	-0.253	-0.141
-649.799	-200.000	0.060	-0.285
-648.784	51.485	-0.206	-0.197
-647.770	-115.673	-1.009	0.190
-646.755	-31.665	0.426	0.241
-645.741	491.666	0.098	-0.226
-644.726	-68.751	-0.291	0.113
-643.711	77.067	0.347	0.370
-642.697	-55.783	-0.464	0.208
-641.682	-1.755	-0.517	0.366
-640.668	123.228	-0.245	-0.309
-639.653	-103.197	-1.465	0.348
-638.638	-128.997	0.533	0.075
-637.624	-21.600	0.165	0.101
-636.609	-200.000	-0.134	0.626
-635.595	380.237	-0.149	-0.307
-634.580	-200.000	-0.047	-0.756
-633.565	-200.000	0.064	-0.485
-632.551	180.919	-0.346	0.511
-631.536	-200.000	-0.111	-0.717
-630.522	88.545	0.359	-0.401
-629.507	74.385	-0.334	0.353
-628.492	234.970	-0.345	0.572
-627.478	70.236	0.375	-0.389
-626.463	13.549	-0.430	-0.336
-625.449	-166.353	0.731	-0.031
-624.434	400.646	0.525	1.108
-623.419	-91.846	0.995	0.284
-622.405	9.669	0.483	0.368
-621.390	-1.813	0.228	0.162
-620.376	289.858	0.226	-0.412
-619.361	-200.000	0.048	0.617
-618.346	66.287	0.522	-0.533
-617.332	76.238	-0.278	-0.296
-616.317	270.171	0.239	-0.422
-615.303	16.806	0.425	-0.338
-614.288	350.054	-0.044	-0.088
-613.273	-147.157	1.117	-0.096
-612.259	-101.510	0.738	-0.180
-611.244	1.507	0.431	0.311
-610.230	70.779	-0.264	0.274
-609.215	-86.532	0.389	-0.120
-608.201	195.192	-0.285	-0.434
-607.186	-149.965	-0.712	-0.056
-606.171	-124.515	-0.359	-0.056
-605.157	102.830	0.231	0.272
-604.142	-200.000	0.090	0.436
-603.128	-59.512	0.213	0.092
-602.113	800.000	-0.215	-0.893
-601.098	293.511	0.647	-1.186
-600.084	800.000	0.188	0.740
-599.069	-200.000	0.091	0.610
-598.055	-54.418	0.888	0.404
-597.040	-200.000	0.005	-0.078
-596.025	695.779	0.048	0.127
-595.011	75.649	-0.115	-0.122
-593.996	49.786	-0.753	-0.712
-592.982	-88.045	-0.121	0.037
-591.967	-104.333	0.744	-0.173
-590.952	-200.000	-0.017	0.223
-589.938	-23.135	-0.725	-0.438
-588.923	-200.000	-0.136	-0.832
-587.909	-20.506	-0.240	-0.148
-586.894	202.428	0.057	0.088
-585.879	454.046	0.252	0.561
-584.865	260.440	-0.249	-0.433
-583.850	792.708	0.147	0.406
-582.836	-110.177	0.515	0.108
-581.821	-76.569	0.509	0.179
-580.806	-142.217	-0.329	0.033
-579.792	800.000	0.146	-0.428
-578.777	-149.056	0.758	-0.061
-577.763	-200.000	-0.027	0.496
-576.748	12.500	-0.507	0.392
-575.733	375.229	-0.108	-0.221
-574.719	128.923	-0.517	-0.661
-573.704	622.216	0.077	-0.194
-572.690	-200.000	0.038	0.982
-571.675	58.447	-0.255	-0.251
-570.661	-38.885	-0.656	-0.347
-569.646	-102.805	-1.070	-0.255
-568.631	-200.000	-0.056	0.788
-567.617	-21.425	-0.283	0.173
-566.602	-68.302	-0.314	-0.123
-565.588	-153.394	-0.711	-0.050
-564.573	158.632	0.147	0.204
-563.558	-174.597	-0.899	0.026
-562.544	800.000	0.500	1.446
-561.529	-200.000	-0.114	-0.646
-560.515	119.994	0.572	-0.711
-559.500	-141.448	0.485	0.049
-558.485	-78.612	-1.357	-0.465
-557.471	127.870	0.194	0.247
-556.456	-137.144	0.322	-0.037
-555.442	-99.588	-0.513	-0.129
-554.427	-12.747	1.072	-0.700
-553.412	-200.000	0.067	0.324
-552.398	-176.706	0.335	0.009
-551.383	329.293	-0.423	-0.815
-550.369	800.000	-0.319	-0.921
-549.354	-107.162	-0.274	-0.061
-548.339	-21.796	-0.304	-0.185
-547.325	800.000	-0.031	0.120
-546.310	800.000	-0.252	0.861
-545.296	178.192	0.308	-0.450
-544.281	-122.624	-0.702	0.114
-543.266	-200.000	0.030	-0.474
-542.252	800.000	0.153	0.607
-541.237	118.097	0.250	0.309
-540.223	-121.344	0.582	-0.097
-539.208	-200.000	-0.072	0.906
-538.193	-56.180	0.350	-0.156
-537.179	632.574	0.422	-1.070
-536.164	800.000	0.174	-0.489
-535.150	-200.000	-0.013	-0.094
-534.135	800.000	-0.098	0.389
-533.121	282.530	-0.176	0.316
-532.106	-33.354	-0.159	0.088
-531.091	704.664	-0.327	0.864
-530.077	241.398	-0.262	0.438
-529.062	-200.000	-0.027	-0.225
-528.048	-200.000	-0.109	-0.678
-527.033	800.000	-0.155	0.644
-526.018	164.681	0.266	-0.376
-525.004	-200.000	0.014	0.715
-523.989	-82.410	-0.809	0.263
-522.975	-200.000	0.058	0.866
-521.960	800.000	-0.098	0.328
-520.945	-6.828	-0.126	0.085
-519.931	276.996	0.180	-0.320
-518.916	88.769	0.874	0.973
-517.902	-3.046	1.062	0.742
-516.887	127.988	-0.444	0.565
-515.872	13.911	-0.628	0.489
-514.858	405.191	0.370	-0.780
-513.843	-200.000	-0.070	0.955
-512.829	26.512	-0.133	0.112
-511.814	-50.215	0.643	0.305
-510.799	-81.630	0.219	-0.072
-509.785	124.400	-0.420	0.528
-508.770	-19.930	0.102	-0.063
-507.756	244.478	0.595	-1.000
-506.741	187.836	0.210	-0.314
-505.726	800.000	-0.041	-0.138
-504.712	220.992	-0.407	0.654
-503.697	14.629	-0.211	0.165
-502.683	34.777	-0.106	0.092
-501.668	-127.702	0.254	0.037
-500.653	129.020	-0.919	-1.172
-499.639	138.407	-0.225	-0.295
-498.624	34.529	0.494	0.431
-497.610	-80.950	-0.598	-0.198
-496.595	800.000	-0.128	0.532
-495.581	-164.450	1.027	-0.047
-494.566	-56.770	0.141	0.062
-493.551	162.276	0.688	0.965
-492.537	161.362	0.236	-0.330
-491.522	800.000	-0.190	-0.634
-490.508	-200.000	0.054	-0.390
-489.493	-42.206	0.308	-0.157
-488.478	-151.703	0.354	-0.026
-487.464	56.261	-0.340	0.330
-486.449	-15.611	-0.599	-0.382
-485.435	-78.256	-0.721	-0.247
-484.420	-134.362	-0.246	-0.030
-483.405	-200.000	-0.009	0.558
-482.391	85.134	0.555	0.608
-481.376	-200.000	-0.041	0.229
-480.362	295.916	-0.250	0.459
-479.347	-39.085	0.813	0.427
-478.332	198.731	0.355	0.543
-477.318	19.418	0.736	0.591
-476.303	-146.607	0.284	-0.025
-475.289	-109.359	-0.565	0.120
-474.274	-107.579	0.439	-0.096
-473.259	800.000	0.184	0.710
-472.245	-127.708	-1.050	0.152
-471.230	3.055	0.275	0.199
-470.216	-167.737	-0.467	-0.018
-469.201	97.701	-0.636	0.730
-468.186	-200.000	-0.012	-0.663
-467.172	29.287	0.394	0.334
-466.157	557.753	0.170	-0.409
-465.143	31.413	0.320	0.274
-464.128	76.155	0.300	0.317
-463.113	440.725	-0.218	-0.476
-462.099	-94.008	-1.060	0.291
-461.084	-8.084	0.228	-0.153
-460.070	-76.086	0.255	-0.090
-459.055	18.262	-0.363	-0.289
-458.040	186.620	-0.378	0.562
-457.026	58.005	-0.189	-0.185
-456.011	55.946	-0.551	-0.533
-454.997	-120.287	0.932	0.159
-453.982	-35.116	-0.734	0.399
-452.968	800.000	0.240	1.029
-451.953	-32.879	-0.102	0.056
-450.938	-131.423	-0.200	-0.026
-449.924	-33.798	-0.246	-0.135
-448.909	117.531	0.518	-0.636
-447.895	800.000	-0.143	-0.507
-446.880	-16.842	-0.609	0.384
-445.865	-21.753	0.586	-0.356
-444.851	47.283	-0.417	0.388
-443.836	-108.439	0.548	-0.118
-442.822	800.000	-0.184	0.540
-441.807	94.355	-0.206	-0.234
-440.792	470.914	-0.313	-0.702
-439.778	-47.938	-0.489	-0.236
-438.763	-8.907	0.548	-0.366
-437.749	-200.000	0.016	0.280
-436.734	232.608	-0.098	-0.161
-435.719	-139.683	0.849	0.090
-434.705	158.208	0.336	-0.464
-433.690	129.149	-0.172	0.219
-432.676	-30.796	0.252	-0.142
-431.661	609.002	-0.035	0.088
-430.646	-11.670	-0.414	0.271
-429.632	-55.965	-0.240	0.107
-428.617	800.000	-0.161	-0.614
-427.603	447.605	-0.441	-0.969
-426.588	-86.858	-0.395	0.120
-425.573	19.229	0.329	-0.263
-424.559	228.632	0.488	-0.793
-423.544	425.333	0.258	0.553
-422.530	779.252	0.235	0.642
-421.515	-84.737	0.076	-0.024
-420.500	-200.000	-0.038	0.210
-419.486	800.000	0.218	0.739
-418.471	-200.000	-0.034	-0.315
-417.457	-30.161	-0.346	0.196
-416.442	21.402	-0.518	-0.420
-415.428	19.170	-0.327	-0.262
-414.413	-106.149	0.213	-0.048
-413.398	309.376	-0.172	-0.320
-412.384	211.851	0.266	0.417
-411.369	-24.744	-0.084	-0.050
-410.355	89.358	-0.662	-0.735
-409.340	-103.234	0.095	-0.022
-408.325	-119.839	-1.022	-0.175
-407.311	-129.884	0.798	0.109
-406.296	800.000	-0.253	0.826
-405.282	121.207	0.163	-0.202
-404.267	-43.301	-0.390	-0.196
-403.252	491.493	0.087	0.198
-402.238	-200.000	-0.037	-0.815
-401.223	-144.346	0.487	0.045
-400.209	-64.131	-0.779	-0.317
-399.194	-200.000	0.087	0.560
-398.179	-200.000	0.411	-0.001
-397.165	-116.352	0.257	-0.047
-396.150	-82.317	-0.404	-0.131
-395.136	-141.779	0.601	0.060
-394.121	-99.349	0.889	0.223
-393.106	-24.234	0.225	-0.134
-392.092	-98.132	-0.716	0.184
-391.077	-200.000	0.003	-0.592
-390.063	-136.747	-0.976	0.112
-389.048	-194.275	-0.698	-0.006
-388.033	757.386	0.108	0.292
-387.019	-199.929	-0.237	-0.001
-386.004	800.000	0.278	-0.870
-384.990	800.000	0.219	0.708
-383.975	667.584	0.029	0.074
-382.960	-142.047	0.284	-0.028
-381.946	144.784	0.413	0.549
-380.931	-200.000	-0.007	-0.724
-379.917	10.679	-0.518	0.393
-378.902	-79.730	0.452	-0.152
-377.888	-27.950	0.942	0.543
-376.873	-1.994	-0.343	-0.240
-375.858	-46.370	0.671	-0.328
-374.844	54.390	0.125	0.119
-373.829	-75.541	-1.029	0.364
-372.815	42.650	0.202	-0.183
-371.800	6.942	-0.545	-0.404
-370.785	-9.423	-0.279	0.185
-369.771	-117.863	-0.383	0.068
-368.756	-74.818	0.583	-0.208
-367.742	-5.726	-0.119	-0.081
-366.727	97.109	-0.810	-0.925
-365.712	42.759	0.306	-0.278
-364.698	-11.841	-0.409	-0.267
-363.683	3.553	0.362	0.262
-362.669	56.217	-0.586	0.566
-361.654	-200.000	-0.025	0.632
-360.639	223.830	0.491	0.789
-359.625	800.000	0.351	1.361
-358.610	-46.723	0.282	0.138
-357.596	-19.896	-0.287	0.177
-356.581	-200.000	0.066	-0.535
-355.566	29.815	0.464	-0.393
-354.552	-200.000	0.023	-0.434
-353.537	-15.889	1.209	-0.765
-352.523	138.794	-0.469	0.613
-351.508	-124.459	-0.089	0.014
-350.493	-90.015	-0.811	-0.235
-349.479	-61.033	-0.129	0.054
-348.464	-11.889	0.417	-0.272
-347.450	69.118	-0.228	-0.233
-346.435	-93.571	-0.255	0.070
-345.420	800.000	0.159	0.445
-344.406	257.628	-0.131	-0.224
-343.391	-200.000	-0.059	0.683
-342.377	-3.488	-0.860	0.594
-341.362	376.210	-0.095	-0.192
-340.348	-123.776	-0.233	-0.037
-339.333	161.077	0.116	0.161
-338.318	-31.095	-0.205	0.115
-337.304	-200.000	-0.059	-0.345
-336.289	322.043	0.104	0.197
-335.275	215.150	-0.151	-0.238
-334.260	-83.550	0.700	0.223
-333.245	-126.813	-0.335	0.049
-332.231	41.863	0.356	0.321
-331.216	-75.458	0.352	-0.125
-330.202	-93.217	-0.555	-0.153
-329.187	21.980	-0.617	-0.500
-328.172	706.681	0.326	0.855
-327.158	-200.000	0.081	0.385
-326.143	291.549	-0.325	0.587
-325.129	-9.122	-0.713	-0.473
-324.114	-200.000	1.190	-0.006
-323.099	267.677	0.183	0.318
-322.085	-200.000	0.050	-0.293
-321.070	-34.488	-0.437	-0.238
-320.056	122.509	-0.363	-0.451
-319.041	-200.000	-0.116	-0.644
-318.026	234.616	0.199	-0.325
-317.012	-143.268	0.709	0.068
-315.997	-200.000	0.020	-0.249
-314.983	-162.274	-0.414	0.021
-313.968	-200.000	-0.028	-0.577
-312.953	78.725	-0.281	-0.299
-311.939	-200.000	0.003	0.075
-310.924	-85.116	-0.287	-0.089
-309.910	729.575	-0.321	-0.851
-308.895	-200.000	0.022	0.137
-307.880	90.906	-0.274	0.305
-306.866	-140.474	0.255	-0.026
-305.851	-134.997	0.110	-0.013
-304.837	-117.152	0.650	-0.117
-303.822	-200.000	-0.000	0.470
-302.807	-200.000	0.056	0.274
-301.793	-72.828	0.538	-0.196
-300.778	37.797	-0.612	0.539
-299.764	-200.000	0.032	-0.813
-298.749	-52.595	0.572	-0.262
-297.735	-156.620	0.329	0.020
-296.720	800.000	-0.116	0.458
-295.705	-200.000	0.044	0.448
-294.691	-7.397	0.437	0.293
-293.676	161.925	0.650	-0.903
-292.662	12.482	0.633	-0.484
-291.647	-48.196	-0.845	0.404
-290.632	-200.000	-0.063	0.699
-289.618	-165.021	0.544	0.024
-288.603	229.895	0.426	-0.691
-287.589	696.785	0.081	0.212
-286.574	259.356	-0.056	0.095
-285.559	-200.000	-0.044	0.440
-284.545	-200.000	-0.004	0.110
-283.530	-9.112	-0.158	-0.105
-282.516	-88.911	1.180	0.347
-281.501	-106.867	0.568	0.125
-280.486	-200.000	-0.064	-0.523
-279.472	-62.155	0.111	0.046
-278.457	467.222	-0.262	-0.581
-277.443	-200.000	0.033	0.244
-276.428	85.173	0.246	0.267
-275.413	-86.384	0.443	0.135
-274.399	-81.081	-0.434	-0.142
-273.384	328.322	0.401	0.763
-272.370	-110.601	-0.462	0.095
-271.355	-83.930	-0.176	0.056
-270.340	-150.227	0.306	-0.023
-269.326	20.888	-0.124	-0.100
-268.311	-5.447	-0.745	-0.507
-267.297	-200.000	0.108	-0.579
-266.282	-103.251	0.573	-0.134
-265.267	800.000	0.158	-0.638
-264.253	-200.000	0.014	0.131
-263.238	-200.000	-0.115	0.517
-262.224	-74.461	0.757	0.271
-261.209	537.290	-0.165	-0.388
-260.195	800.000	-0.214	0.860
-259.180	-45.671	0.311	-0.152
-258.165	95.759	-0.344	0.389
-257.151	-27.013	0.858	-0.496
-256.136	800.000	0.108	0.367
-255.122	-200.000	-0.028	1.295
-254.107	329.789	0.275	0.523
-253.092	24.459	0.447	-0.366
-252.078	800.000	-0.191	-0.589
-251.063	-51.607	0.753	-0.348
-250.049	-127.718	0.351	-0.050
-249.034	-200.000	-0.058	-0.335
-248.019	800.000	-0.087	0.370
-247.005	-200.000	-0.033	0.719
-245.990	-57.139	0.692	0.302
-244.976	270.529	0.480	0.836
-243.961	-29.543	0.567	0.321
-242.946	522.066	0.317	0.736
-241.932	93.665	-0.529	0.594
-240.917	-24.104	-0.277	-0.164
-239.903	121.756	-0.641	-0.791
-238.888	-98.291	0.291	-0.074
-237.873	800.000	0.107	0.299
-236.859	-200.000	-0.174	-1.167
-235.844	-109.901	-0.315	-0.065
-234.830	125.179	0.283	0.354
-233.815	18.647	-0.632	-0.500
-232.800	800.000	-0.092	0.345
-231.786	66.031	-0.222	-0.223
-230.771	-35.062	1.412	-0.762
-229.757	800.000	0.157	-0.542
-228.742	-55.891	-0.420	-0.186
-227.727	-105.342	-0.910	-0.205
-226.713	77.427	0.424	0.447
-225.698	-200.000	0.130	0.789
-224.684	209.014	-0.474	-0.734
-223.669	42.408	-0.282	0.254
-222.655	52.075	-0.236	-0.223
-221.640	-135.411	0.477	0.056
-220.625	-78.417	-0.394	-0.134
-219.611	301.132	0.283	-0.518
-218.596	-11.546	-0.366	0.238
-217.582	-142.239	0.517	-0.051
-216.567	-76.856	-0.876	0.303
-215.552	800.000	0.265	-0.864
-214.538	-56.259	0.445	0.196
-213.523	-25.908	-0.316	-0.184
-212.509	-30.124	-0.465	-0.261
-211.494	-96.257	0.259	-0.068
-210.479	-141.157	0.523	-0.053
-209.465	44.696	0.521	-0.474
-208.450	-20.685	0.399	-0.242
-207.436	-118.903	-0.666	-0.116
-206.421	-66.999	0.850	-0.332
-205.406	-200.000	-0.081	0.544
-204.392	-116.164	-0.715	-0.131
-203.377	169.477	0.211	-0.298
-202.363	-200.000	-0.065	-0.365
-201.348	-120.452	-0.998	0.168
-200.333	-87.427	-0.432	-0.129
-199.319	-47.204	-0.135	0.065
-198.304	100.853	-0.173	0.199
-197.290	-200.000	0.228	-0.992
-196.275	-200.000	0.088	-0.511
-195.260	-46.021	-0.658	0.320
-194.246	411.290	-0.235	0.494
-193.231	-150.131	-0.099	0.008
-192.217	88.792	-0.627	0.689
-191.202	-200.000	0.054	-0.313
-190.187	-1.643	-0.406	-0.282
-189.173	-200.000	0.082	-1.273
-188.158	187.406	-0.241	0.355
-187.144	305.790	-0.451	0.829
-186.129	53.261	0.490	-0.464
-185.114	683.888	-0.396	-1.020
-184.100	114.536	-0.468	-0.563
-183.085	52.941	0.843	0.797
-182.071	-88.770	0.283	0.083
-181.056	-103.760	0.455	0.105
-180.042	800.000	0.130	-0.371
-179.027	49.193	-0.201	0.186
-178.012	-102.109	0.090	-0.021
-176.998	-69.225	-0.636	-0.241
-175.983	-141.545	-0.182	0.018
-174.969	50.837	0.303	-0.284
-173.954	425.240	-0.178	0.378
-172.939	257.787	-0.240	0.407
-171.925	-30.805	0.572	0.319
-170.910	-200.000	0.004	0.199
-169.896	271.882	0.205	-0.357
-168.881	73.468	0.646	-0.668
-167.866	417.295	0.178	0.376
-166.852	800.000	-0.163	-0.599
-165.837	591.041	0.269	0.655
-164.823	-130.732	-0.398	-0.053
-163.808	800.000	-0.030	0.089
-162.793	344.825	0.349	0.676
-161.779	-73.537	-1.014	-0.365
-160.764	-200.000	0.006	-1.055
-159.750	157.093	0.146	0.200
-158.735	126.349	-0.143	-0.179
-157.720	295.335	0.325	-0.587
-156.706	-200.000	-0.095	-0.523
-155.691	-36.392	-0.358	-0.190
-154.677	-178.549	-0.152	-0.003
-153.662	-56.984	-0.491	0.214
-152.647	55.804	-0.213	0.204
-151.633	800.000	-0.055	0.157
-150.618	-125.198	0.587	0.089
-149.604	-200.000	-0.059	-0.368
-148.589	-29.780	0.257	0.145
-147.574	-36.609	0.552	-0.293
-146.560	489.223	0.122	0.274
-145.545	101.369	-0.612	0.703
-144.531	-11.734	0.325	-0.211
-143.516	321.341	0.364	-0.684
-142.502	181.673	-0.323	-0.469
-141.487	175.509	-0.455	-0.650
-140.472	-200.000	0.007	-0.680
-139.458	-69.445	-0.542	-0.205
-138.443	-200.000	-0.000	0.230
-137.429	766.730	0.128	0.344
-136.414	261.487	-0.196	-0.336
-135.399	47.904	0.573	-0.528
-134.385	-168.672	-0.379	-0.014
-133.370	-200.000	-0.057	-0.478
-132.356	-200.000	0.147	0.748
-131.341	777.292	0.096	-0.259
-130.326	800.000	0.076	0.325
-129.312	-200.000	0.073	-0.635
-128.297	647.298	-0.259	0.652
-127.283	800.000	-0.020	0.077
-126.268	-200.000	-0.122	-0.664
-125.253	800.000	-0.176	-0.582
-124.239	-97.195	0.833	0.214
-123.224	-112.725	0.429	0.084
-122.210	12.393	-0.724	0.550
-121.195	-169.116	0.333	0.012
-120.180	765.974	-0.090	0.242
-119.166	-4.597	0.925	0.629
-118.151	589.587	0.046	0.112
-117.137	59.440	0.228	0.222
-116.122	-200.000	-0.075	0.746
-115.107	351.636	0.270	-0.526
-114.093	60.569	-0.388	0.378
-113.078	-200.000	-0.039	0.421
-112.064	-200.000	0.007	0.268
-111.049	640.784	0.429	1.076
-110.034	383.064	-0.073	-0.147
-109.020	-200.000	-0.006	-0.590
-108.005	254.467	0.274	0.461
-106.991	34.645	0.573	0.493
-105.976	-32.520	0.116	0.064
-104.962	-74.763	-0.203	-0.072
-103.947	-35.051	-0.247	-0.133
-102.932	-74.164	0.697	-0.248
-101.918	-200.000	-0.009	0.144
-100.903	95.418	0.253	-0.284
-99.889	388.362	0.164	-0.335
-98.874	-87.279	1.001	0.299
-97.859	-117.316	-0.474	0.085
-96.845	-200.000	-0.275	-0.001
-95.830	-188.017	0.537	-0.007
-94.816	800.000	-0.164	-0.471
-93.801	168.718	0.559	-0.784
-92.786	-200.000	0.101	0.673
-91.772	-85.867	0.252	0.077
-90.757	-93.656	-0.198	0.054
-89.743	94.216	-0.179	-0.200
-88.728	-95.497	0.422	0.111
-87.713	-110.307	-0.024	0.005
-86.699	-200.000	0.132	-0.822
-85.684	-85.019	-0.399	-0.123
-84.670	800.000	0.182	-0.522
-83.655	800.000	0.195	-0.578
-82.640	800.000	-0.077	0.308
-81.626	-34.871	-0.417	-0.224
-80.611	387.804	-0.344	0.700
-79.597	190.611	0.287	-0.425
-78.582	800.000	0.265	-0.771
-77.567	-21.425	-0.096	-0.057
-76.553	170.970	-0.380	-0.535
-75.538	-85.654	-0.600	0.183
-74.524	204.216	0.243	-0.370
-73.509	-200.000	-0.020	0.447
-72.494	-171.473	0.554	-0.018
-71.480	-158.742	0.198	0.011
-70.465	687.943	0.222	0.571
-69.451	-95.537	-0.303	-0.080
-68.436	-19.639	0.466	-0.283
-67.422	-121.879	-0.725	-0.117
-66.407	-73.831	-0.559	0.200
-65.392	-131.701	0.620	0.080
-64.378	141.961	0.602	0.785
-63.363	312.215	-0.582	1.074
-62.349	565.176	0.031	0.074
-61.334	335.865	-0.620	-1.183
-60.319	42.847	0.781	0.699
-59.305	-106.385	-0.750	-0.165
-58.290	174.258	0.989	1.404
-57.276	-200.000	-0.147	1.628
-56.261	-200.000	95.949	565.974
-55.246	645.571	1365.883	3427.370
-54.232	199.825	2545.936	3839.823
-53.217	112.142	2257.731	2681.796
-52.203	42.856	1884.834	1688.010
-51.188	36.767	1677.730	1456.822
-50.173	34.017	1634.088	1398.678
-49.159	52.229	1682.076	1575.938
-48.144	53.067	1698.366	1597.388
-47.130	36.281	1657.711	1435.597
-46.115	33.380	1644.140	1402.344
-45.100	33.444	1639.435	1398.746
-44.086	33.253	1635.964	1394.320
-43.071	33.300	1632.986	1392.074
-42.057	33.064	1631.710	1389.196
-41.042	33.135	1629.483	1387.764
-40.027	33.440	1627.073	1387.896
-39.013	33.008	1625.881	1383.661
-37.998	33.212	1623.802	1383.329
-36.984	33.309	1622.463	1382.844
-35.969	33.508	1620.047	1382.176
-34.954	33.522	1618.461	1380.875
-33.940	33.381	1616.323	1377.970
-32.925	33.366	1615.675	1377.249
-31.911	33.475	1614.289	1376.806
-30.896	33.391	1612.621	1374.722
-29.881	33.269	1610.589	1372.049
-28.867	33.510	1607.823	1371.382
-27.852	33.353	1607.066	1369.549
-26.838	33.482	1605.652	1369.219
-25.823	33.314	1604.733	1367.168
-24.809	33.586	1603.045	1367.637
-23.794	33.336	1601.570	1364.524
-22.779	33.360	1600.150	1363.433
-21.765	33.447	1598.381	1362.499
-20.750	33.301	1597.047	1360.259
-19.736	33.300	1595.387	1358.781
-18.721	33.300	1595.029	1358.421
-17.706	33.387	1591.831	1356.268
-16.692	33.130	1591.808	1354.350
-15.677	33.647	1588.586	1355.252
-14.663	33.412	1587.373	1352.484
-13.648	33.306	1586.659	1351.066
-12.633	33.398	1586.030	1351.138
-11.619	33.267	1584.633	1348.958
-10.604	33.432	1582.261	1348.060
-9.590	33.561	1580.382	1347.324
-8.575	33.519	1579.407	1346.143
-7.560	33.379	1579.350	1345.045
-6.546	33.460	1577.568	1344.048
-5.531	33.376	1576.772	1342.720
-4.517	33.389	1575.081	1341.318
-3.502	33.335	1574.521	1340.407
-2.487	33.614	1571.610	1339.845
-1.473	32.939	1561.852	1326.732
-0.458	30.235	1541.409	1290.530
0.556	27.216	1542.288	1256.646
1.571	24.979	1564.202	1258.690
2.586	24.416	1576.995	1264.884
3.600	21.617	1523.330	1202.539
4.615	12.387	1414.940	1057.718
5.629	4.325	1349.245	958.865
6.644	3.119	1341.082	945.568
7.659	2.983	1339.188	943.311
8.673	2.832	1338.829	942.052
9.688	2.786	1337.596	940.815
10.702	2.505	1334.172	936.607
11.717	5.926	1340.647	962.065
12.731	15.435	1359.378	1034.275
13.746	23.839	1370.163	1094.362
14.761	25.394	1374.294	1107.157
15.775	25.798	1374.446	1109.673
16.790	25.780	1373.449	1108.662
17.804	26.042	1371.976	1108.982
18.819	26.129	1372.620	1109.943
19.834	26.403	1372.429	1111.371
20.848	26.333	1371.271	1109.905
21.863	26.541	1369.458	1109.617
22.877	26.516	1369.899	1109.719
23.892	26.384	1368.510	1107.691
24.907	26.436	1368.506	1107.906
25.921	26.518	1365.563	1105.928
26.936	26.461	1365.478	1105.411
27.950	26.360	1365.570	1104.774
28.965	26.266	1363.515	1102.437
29.980	26.423	1361.963	1102.040
30.994	26.442	1361.118	1101.375
32.009	26.112	1359.983	1098.355
33.023	26.209	1359.511	1098.468
34.038	26.528	1357.585	1098.751
35.053	26.383	1357.637	1097.814
36.067	26.470	1355.522	1096.532
37.082	26.447	1355.133	1095.980
38.096	26.370	1354.289	1094.738
39.111	26.282	1354.581	1094.342
40.126	26.181	1353.325	1092.618
41.140	26.102	1353.132	1091.887
42.155	26.419	1352.641	1093.313
43.169	26.611	1352.163	1093.992
44.184	26.418	1352.127	1092.700
45.199	26.120	1352.223	1090.879
46.213	26.198	1351.344	1090.544
47.228	26.147	1350.815	1089.711
48.242	26.589	1348.694	1090.567
49.257	26.483	1346.292	1087.890
50.271	26.281	1345.982	1086.332
51.286	26.153	1344.981	1084.657
52.301	26.335	1343.342	1084.334
53.315	26.305	1342.863	1083.667
54.330	26.533	1342.331	1084.510
55.344	26.340	1341.510	1082.596
56.359	26.376	1340.749	1082.105
57.374	26.557	1337.927	1080.810
58.388	26.384	1337.609	1079.425
59.403	26.535	1337.398	1080.058
60.417	26.561	1337.257	1080.007
61.432	26.412	1336.792	1078.645
62.447	26.475	1335.454	1077.847
63.461	26.310	1334.612	1076.089
64.476	26.745	1333.039	1077.310
65.490	26.513	1332.033	1075.027
66.505	26.687	1330.331	1074.585
67.520	26.501	1329.599	1072.801
68.534	26.508	1329.548	1072.702
69.549	26.575	1327.317	1071.206
70.563	26.429	1327.313	1070.246
71.578	26.552	1325.709	1069.583
72.593	26.318	1325.928	1068.283
73.607	26.715	1323.868	1068.872
74.622	26.578	1323.580	1067.735
75.636	26.543	1322.946	1066.922
76.651	26.659	1321.531	1066.368
77.666	26.693	1321.513	1066.460
78.680	26.341	1322.257	1064.894
79.695	26.488	1320.715	1064.422
80.709	26.799	1318.868	1064.664
81.724	26.846	1318.023	1064.163
82.739	26.677	1317.798	1062.898
83.753	26.562	1316.937	1061.433
84.768	26.728	1315.834	1061.425
85.782	26.735	1314.791	1060.532
86.797	26.806	1313.309	1059.655
87.812	26.618	1312.547	1057.852
88.826	26.491	1312.282	1056.804
89.841	26.517	1311.859	1056.522
90.855	26.592	1309.452	1054.922
91.870	26.624	1309.531	1055.080
92.884	26.729	1307.437	1053.908
93.899	26.667	1307.674	1053.646
94.914	26.681	1307.238	1053.287
95.928	26.576	1305.581	1051.246
96.943	26.387	1305.873	1050.293
97.957	26.861	1303.582	1051.103
98.972	26.358	1304.175	1048.569
99.987	26.636	1302.691	1048.896
101.001	26.449	1302.381	1047.472
102.016	26.806	1301.658	1048.862
103.030	26.711	1299.977	1046.867
104.045	26.628	1299.203	1045.669
105.060	26.705	1297.547	1044.691
106.074	26.601	1297.422	1043.898
107.089	26.776	1296.226	1043.849
108.103	26.833	1294.794	1042.933
109.118	26.788	1293.561	1041.590
110.133	26.786	1292.501	1040.634
111.147	26.738	1291.780	1039.681
112.162	26.835	1290.960	1039.487
113.176	27.141	1288.169	1038.897
114.191	27.079	1288.164	1038.448
115.206	26.897	1287.662	1036.908
116.220	27.132	1285.611	1036.506
117.235	26.865	1285.367	1034.695
118.249	26.680	1285.353	1033.537
119.264	26.866	1283.315	1032.870
120.279	26.692	1283.989	1032.330
121.293	26.900	1282.850	1032.505
122.308	26.942	1282.239	1032.159
123.322	27.152	1280.486	1031.848
124.337	26.781	1280.707	1029.832
125.352	26.990	1278.842	1029.422
126.366	27.068	1277.644	1028.810
127.381	27.022	1277.384	1028.252
128.395	26.915	1276.619	1026.939
129.410	27.008	1275.424	1026.409
130.424	26.896	1274.844	1025.220
131.439	26.833	1274.692	1024.654
132.454	26.987	1272.865	1023.963
133.468	27.152	1272.947	1024.868
134.483	26.814	1272.884	1022.820
135.497	26.991	1270.653	1021.935
136.512	26.949	1270.650	1021.605
137.527	26.974	1269.250	1020.528
138.541	26.946	1267.852	1019.154
139.556	26.900	1266.396	1017.638
140.570	26.963	1265.525	1017.199
141.585	26.775	1264.577	1015.295
142.600	26.966	1263.267	1015.225
143.614	26.839	1263.282	1014.434
144.629	26.977	1261.956	1014.053
145.643	26.716	1261.300	1011.978
146.658	27.026	1260.020	1012.590
147.673	26.828	1259.610	1011.069
148.687	26.980	1258.826	1011.195
149.702	27.026	1257.805	1010.543
150.716	26.883	1255.983	1008.196
151.731	27.367	1254.184	1009.346
152.746	27.080	1254.658	1008.046
153.760	26.953	1253.615	1006.413
154.775	27.330	1251.404	1006.638
155.789	27.049	1251.302	1004.908
156.804	27.111	1250.671	1004.659
157.819	27.182	1249.013	1003.628
158.833	27.108	1248.364	1002.609
159.848	27.148	1247.020	1001.664
160.862	27.056	1246.999	1001.052
161.877	27.100	1246.365	1000.693
162.892	26.972	1245.835	999.476
163.906	26.818	1245.418	998.203
164.921	27.050	1244.836	998.924
165.935	27.366	1243.341	999.375
166.950	26.892	1242.286	995.837
167.964	26.904	1242.788	996.215
168.979	26.931	1241.944	995.600
169.994	27.046	1241.626	995.886
171.008	27.335	1239.981	996.064
172.023	27.344	1239.406	995.564
173.037	27.398	1237.823	994.499
174.052	27.224	1238.490	993.995
175.067	27.205	1237.117	992.701
176.081	27.253	1236.893	992.696
177.096	27.060	1236.594	991.313
178.110	27.166	1234.891	990.441
179.125	27.330	1233.437	990.077
180.140	27.313	1232.052	988.783
181.154	27.317	1231.583	988.343
182.169	27.198	1231.005	987.145
183.183	27.161	1229.587	985.722
184.198	27.351	1228.425	985.730
185.213	27.461	1228.047	985.938
186.227	27.403	1227.162	984.825
187.242	27.595	1225.727	984.622
188.256	27.371	1224.787	982.570
189.271	27.355	1224.466	982.140
190.286	27.531	1223.444	982.182
191.300	27.109	1224.446	980.622
192.315	27.521	1223.363	981.891
193.329	27.638	1222.650	981.860
194.344	27.323	1222.467	979.932
195.359	27.668	1221.122	980.620
196.373	27.460	1220.658	979.043
197.388	27.433	1221.042	979.121
198.402	27.550	1220.845	979.502
199.417	27.522	1220.172	978.730
200.432	27.418	1219.061	977.191
201.446	27.317	1218.513	976.122
202.461	27.440	1217.724	976.067
203.475	27.448	1217.444	975.800
204.490	27.763	1215.732	976.026
205.504	27.413	1214.621	973.175
206.519	27.743	1213.674	974.094
207.534	27.332	1213.271	971.490
208.548	27.262	1213.745	971.406
209.563	27.325	1212.713	970.833
210.577	27.419	1211.292	970.110
211.592	27.499	1210.394	969.734
212.607	27.690	1208.470	969.119
213.621	27.576	1208.916	968.787
214.636	27.706	1208.321	968.915
215.650	27.610	1206.906	967.184
216.665	27.870	1205.919	967.685
217.680	27.563	1206.191	966.191
218.694	27.501	1205.006	964.828
219.709	27.848	1203.104	965.052
220.723	27.896	1203.685	965.686
221.738	27.317	1202.619	961.689
222.753	27.512	1201.707	961.902
223.767	27.549	1200.615	961.139
224.782	27.881	1200.137	962.419
225.796	27.426	1201.102	960.711
226.811	27.810	1199.314	961.218
227.826	28.130	1198.081	961.827
228.840	27.835	1198.109	960.212
229.855	27.797	1198.199	959.999
230.869	27.707	1196.969	958.454
231.884	27.794	1196.162	958.182
232.899	27.797	1195.073	957.240
233.913	27.869	1194.571	957.131
234.928	28.023	1194.806	958.042
235.942	27.780	1193.967	956.011
236.957	28.026	1193.432	956.788
237.972	27.988	1192.560	955.806
238.986	27.947	1192.653	955.579
240.001	27.926	1191.838	954.733
241.015	27.966	1190.660	953.913
242.030	27.772	1190.278	952.510
243.045	27.984	1188.736	952.297
244.059	28.144	1188.547	952.893
245.074	28.183	1188.263	952.787
246.088	27.946	1188.096	951.336
247.103	27.940	1186.429	949.881
248.117	27.988	1185.224	949.082
249.132	28.148	1185.173	949.789
250.147	27.966	1183.876	947.722
251.161	28.079	1183.557	947.967
252.176	28.241	1182.170	947.615
253.190	28.059	1182.920	947.189
254.205	27.967	1182.320	946.146
255.220	28.286	1180.864	946.549
256.234	27.993	1180.858	944.945
257.249	28.413	1179.778	946.164
258.263	28.317	1179.212	945.134
259.278	28.306	1178.713	944.590
260.293	28.183	1178.260	943.511
261.307	28.343	1177.203	943.405
262.322	28.282	1176.741	942.636
263.336	28.153	1176.059	941.343
264.351	28.407	1175.036	941.747
265.366	28.249	1175.416	941.155
266.380	28.381	1174.579	941.082
267.395	28.375	1173.042	939.735
268.409	28.243	1174.001	939.743
269.424	28.332	1172.708	939.084
270.439	28.113	1172.048	937.350
271.453	28.377	1171.170	937.913
272.468	28.073	1170.347	935.615
273.482	28.109	1170.911	936.171
274.497	28.429	1169.492	936.588
275.512	28.174	1169.100	934.890
276.526	28.056	1168.764	933.934
277.541	28.478	1166.640	934.304
278.555	28.377	1166.967	933.970
279.570	28.371	1166.879	933.786
280.585	28.038	1166.227	931.485
281.599	28.474	1165.090	932.714
282.614	28.636	1163.420	932.119
283.628	28.549	1162.838	931.126
284.643	28.471	1161.936	929.927
285.657	28.565	1160.955	929.532
286.672	28.493	1160.425	928.664
287.687	28.447	1159.252	927.409
288.701	28.571	1158.872	927.653
289.716	28.455	1158.579	926.747
290.730	28.382	1157.622	925.531
291.745	28.600	1157.079	926.115
292.760	28.415	1156.659	924.764
293.774	28.594	1156.429	925.399
294.789	28.656	1155.637	924.996
295.803	28.552	1154.737	923.673
296.818	28.467	1154.939	923.325
297.833	28.606	1153.867	923.084
298.847	28.544	1153.456	922.365
299.862	28.627	1152.712	922.104
300.876	28.911	1151.339	922.347
301.891	28.506	1151.786	920.589
302.906	28.616	1151.281	920.657
303.920	28.620	1150.503	919.974
304.935	28.685	1148.841	918.887
305.949	28.764	1148.471	918.907
306.964	28.600	1148.065	917.684
307.979	28.853	1147.270	918.231
308.993	28.833	1146.725	917.612
310.008	28.912	1145.323	916.804
311.022	28.708	1145.333	915.711
312.037	28.820	1144.579	915.586
313.052	28.933	1143.129	914.909
314.066	28.828	1141.852	913.281
315.081	28.949	1141.938	913.871
316.095	29.013	1141.034	913.385
317.110	28.995	1140.561	912.837
318.125	28.875	1140.308	911.958
319.139	28.732	1140.444	911.277
320.154	28.923	1138.808	910.835
321.168	28.636	1138.774	909.305
322.183	28.931	1138.228	910.251
323.197	29.107	1136.676	909.799
324.212	28.801	1137.085	908.531
325.227	28.861	1137.679	909.221
326.241	28.757	1137.333	908.351
327.256	29.090	1134.813	907.901
328.270	28.831	1134.841	906.565
329.285	28.777	1134.238	905.739
330.300	28.787	1133.622	905.216
331.314	28.893	1132.345	904.635
332.329	29.106	1130.897	904.445
333.343	29.084	1130.501	903.943
334.358	28.925	1130.638	903.190
335.373	28.886	1129.605	902.092
336.387	28.944	1129.140	901.927
337.402	29.013	1128.177	901.416
338.416	29.028	1127.450	900.830
339.431	28.903	1126.131	899.084
340.446	29.051	1126.709	900.192
341.460	29.045	1126.275	899.732
342.475	29.273	1123.507	898.554
343.489	28.794	1123.694	896.291
344.504	28.866	1123.473	896.385
345.519	28.980	1122.605	896.167
346.533	29.231	1120.562	895.676
347.548	29.194	1120.525	895.391
348.562	28.856	1119.530	892.875
349.577	28.995	1119.063	893.097
350.592	28.960	1117.618	891.696
351.606	29.100	1116.652	891.524
352.621	28.964	1116.403	890.587
353.635	29.095	1116.029	890.844
354.650	28.763	1115.691	888.890
355.665	28.802	1115.530	888.870
356.679	29.066	1114.849	889.524
357.694	28.919	1114.532	888.483
358.708	28.754	1113.812	887.034
359.723	28.645	1113.457	886.146
360.738	28.893	1111.002	885.310
361.752	28.897	1111.017	885.264
362.767	28.712	1111.001	884.282
363.781	28.822	1110.754	884.535
364.796	28.804	1109.695	883.527
365.810	28.875	1110.238	884.224
366.825	28.670	1109.104	882.255
367.840	29.036	1107.080	882.323
368.854	28.968	1106.423	881.395
369.869	28.635	1106.383	879.690
370.883	28.693	1106.123	879.684
371.898	28.733	1105.344	879.176
372.913	28.895	1103.435	878.356
373.927	28.796	1103.806	878.099
374.942	28.965	1103.036	878.218
375.956	28.679	1102.249	876.148
376.971	28.830	1101.117	875.890
377.986	28.681	1101.350	875.285
379.000	28.788	1101.374	875.739
380.015	28.625	1100.248	873.988
381.029	28.748	1099.363	873.796
382.044	28.769	1099.241	873.722
383.059	28.866	1098.149	873.237
384.073	28.496	1097.523	870.903
385.088	28.973	1095.977	871.861
386.102	28.953	1095.882	871.615
387.117	28.391	1095.715	868.741
388.132	28.328	1094.882	867.706
389.146	28.542	1094.119	868.035
390.161	28.604	1093.548	867.800
391.175	28.891	1092.497	868.243
392.190	28.533	1092.045	866.120
393.205	28.371	1091.965	865.212
394.219	28.405	1091.010	864.539
395.234	28.755	1089.841	865.186
396.248	28.299	1089.715	862.862
397.263	28.611	1087.358	862.386
398.278	28.860	1086.765	863.010
399.292	28.537	1086.003	860.810
400.307	28.752	1085.002	860.949
401.321	28.271	1086.428	859.748
402.336	28.339	1084.967	858.832
403.350	28.603	1084.619	859.719
404.365	28.237	1084.102	857.520
405.380	28.166	1083.741	856.827
406.394	28.334	1082.584	856.620
407.409	28.251	1081.110	854.990
408.423	28.609	1079.736	855.497
409.438	28.493	1078.953	854.262
410.453	28.443	1078.442	853.551
411.467	28.689	1077.362	853.760
412.482	28.466	1077.670	852.896
413.496	28.860	1076.293	853.558
414.511	28.746	1074.682	851.676
415.526	28.638	1075.178	851.491
416.540	28.744	1074.479	851.356
417.555	28.638	1075.297	851.436
418.569	28.640	1074.281	850.565
419.584	28.337	1073.819	848.723
420.599	28.383	1072.915	848.144
421.613	152.219	1405.417	1793.653
422.628	140.248	1453.875	1793.708
