DTS Sentinel unit serial number:	SN413079Multiplexer serial number:	ORYXHardware model number:	OX4-SRSoftware version number:	ORYX F/W v4.00 Oryx Data Collector v3.7.2.0data status	okinstallation	princeton_trtdifferential loss correction	single-endedforward channel	channel 2reverse channel	N/Adate	2019/09/13time	00:51:35forward acquisition time	60.00reverse acquisition time	0.00gamma	496.2192k internal	0.2333k external	0.2333temperature offset calibration	1.0162default loss term (dB/km)	0.3790temperature slope calibration	1.0000multiplexer offset coefficient	1.0000multiplexer slope coefficient	1.0000fibre end	0.00T internal ref (°C)	28.14T ext. ref 1 (°C)	3.66T ext. ref 2 (°C)	22.63length (m)	temperature (°C)	Stokes	anti-Stokes-747.200	-76.816	0.253	-0.089
-746.185	800.000	0.073	0.204
-745.171	86.970	-0.193	-0.214
-744.156	-13.450	-0.233	0.152
-743.142	178.564	-0.052	0.077
-742.127	67.772	-0.336	0.346
-741.112	182.580	-0.071	-0.105
-740.098	59.245	0.274	0.271
-739.083	-200.000	-0.010	-0.103
-738.069	-46.026	0.419	0.208
-737.054	-200.000	0.021	-0.177
-736.039	5.816	-0.393	-0.293
-735.025	153.659	0.233	0.320
-734.010	-200.000	-0.035	0.220
-732.996	8.223	-0.212	-0.160
-731.981	-138.647	0.208	0.023
-730.966	-132.591	0.282	-0.036
-729.952	256.758	-0.240	-0.415
-728.937	142.556	-0.198	-0.264
-727.923	-45.103	-0.132	-0.066
-726.908	41.078	-0.016	-0.014
-725.894	-107.846	-0.107	-0.024
-724.879	-200.000	-0.057	0.328
-723.864	-200.000	0.004	-0.315
-722.850	582.100	-0.133	0.329
-721.835	8.752	-0.148	-0.112
-720.821	-188.253	0.452	0.006
-719.806	254.850	0.198	-0.341
-718.791	-200.000	0.024	-0.354
-717.777	-200.000	0.054	-0.291
-716.762	30.106	-0.173	-0.148
-715.748	-127.746	-0.399	0.058
-714.733	-146.192	-0.413	0.036
-713.718	207.807	-0.131	0.205
-712.704	-64.043	0.144	-0.059
-711.689	38.807	0.084	-0.075
-710.675	800.000	-0.088	0.245
-709.660	518.088	-0.235	-0.553
-708.645	29.797	0.115	-0.098
-707.631	94.081	0.182	-0.207
-706.616	510.472	0.065	-0.151
-705.602	-128.072	0.036	-0.005
-704.587	186.897	-0.062	-0.093
-703.572	1.906	-0.076	-0.055
-702.558	-3.042	-0.037	-0.026
-701.543	-200.000	0.014	-0.090
-700.529	63.695	0.197	-0.198
-699.514	20.587	-0.161	-0.131
-698.499	658.410	0.099	-0.255
-697.485	-200.000	-0.011	0.226
-696.470	41.663	-0.129	0.118
-695.456	54.224	0.197	-0.191
-694.441	61.804	0.169	0.169
-693.426	201.427	-0.031	-0.048
-692.412	-200.000	-0.051	-0.639
-691.397	0.093	-0.224	0.161
-690.383	132.214	0.138	-0.179
-689.368	128.984	-0.095	0.122
-688.354	83.602	0.055	0.060
-687.339	800.000	0.103	-0.338
-686.324	49.638	-0.256	-0.242
-685.310	-200.000	0.050	0.304
-684.295	-13.882	0.320	0.207
-683.281	287.535	-0.181	0.328
-682.266	13.013	-0.160	0.124
-681.251	-200.000	0.039	0.369
-680.237	-28.203	0.096	-0.056
-679.222	-38.269	-0.079	-0.042
-678.208	-200.000	0.009	-0.337
-677.193	800.000	-0.089	0.275
-676.178	483.315	0.061	-0.138
-675.164	-118.955	0.236	-0.041
-674.149	-114.764	0.282	-0.054
-673.135	-47.401	-0.154	0.075
-672.120	160.790	0.051	-0.072
-671.105	-21.066	0.167	-0.103
-670.091	-172.411	-0.246	0.008
-669.076	33.779	0.078	-0.068
-668.062	481.997	-0.085	0.194
-667.047	-8.605	-0.195	-0.131
-666.032	440.585	0.065	0.143
-665.018	-7.783	0.213	-0.144
-664.003	13.766	0.064	-0.050
-662.989	-128.178	-0.158	-0.023
-661.974	-131.652	-0.420	-0.055
-660.959	18.209	-0.188	-0.150
-659.945	800.000	0.069	0.220
-658.930	777.259	-0.032	0.087
-657.916	-200.000	-0.058	-0.259
-656.901	-68.132	-0.290	-0.113
-655.886	-78.422	-0.101	-0.035
-654.872	-124.490	-0.148	0.023
-653.857	248.507	-0.034	0.058
-652.843	-200.000	0.038	-0.320
-651.828	-200.000	0.027	-0.207
-650.814	800.000	0.085	0.287
-649.799	-139.916	-0.395	-0.042
-648.784	-200.000	-0.023	0.120
-647.770	-57.020	0.106	-0.047
-646.755	187.099	-0.032	0.048
-645.741	162.103	0.047	0.066
-644.726	800.000	0.029	-0.126
-643.711	142.313	0.195	-0.259
-642.697	-48.240	0.296	-0.143
-641.682	800.000	-0.024	0.084
-640.668	77.952	-0.177	-0.189
-639.653	-15.109	0.084	-0.054
-638.638	800.000	0.079	0.280
-637.624	-200.000	0.000	0.377
-636.609	30.370	0.147	-0.126
-635.595	-89.885	-0.273	0.080
-634.580	140.907	0.125	-0.165
-633.565	-200.000	-0.030	-0.141
-632.551	-40.358	0.340	-0.177
-631.536	-61.282	-0.230	-0.097
-630.522	486.188	0.025	0.056
-629.507	-96.837	-0.292	-0.077
-628.492	40.593	0.096	0.086
-627.478	248.729	0.153	-0.259
-626.463	19.255	-0.123	-0.099
-625.449	-120.307	-0.491	-0.084
-624.434	121.371	-0.147	0.183
-623.419	40.294	-0.164	-0.147
-622.405	254.177	-0.029	-0.049
-621.390	-30.931	-0.275	-0.156
-620.376	-20.669	-0.123	0.076
-619.361	-200.000	0.002	-0.264
-618.346	84.638	-0.084	-0.092
-617.332	238.921	0.109	0.181
-616.317	107.135	-0.217	-0.258
-615.303	59.334	-0.208	0.205
-614.288	-7.217	0.189	-0.128
-613.273	-127.791	-0.311	-0.045
-612.259	-147.510	0.090	-0.008
-611.244	324.049	-0.063	-0.121
-610.230	800.000	-0.025	0.105
-609.215	-63.178	0.409	0.169
-608.201	67.971	-0.236	0.242
-607.186	-57.672	-0.410	-0.179
-606.171	777.075	0.072	0.196
-605.157	-38.554	-0.207	0.109
-604.142	-56.577	-0.273	-0.121
-603.128	535.162	0.040	-0.095
-602.113	318.150	-0.088	-0.166
-601.098	153.145	0.079	0.108
-600.084	-125.364	-0.256	0.039
-599.069	698.143	0.064	0.168
-598.055	-116.323	-0.330	0.061
-597.040	-6.351	-0.284	0.194
-596.025	56.920	-0.241	0.235
-595.011	-111.693	0.351	-0.071
-593.996	-200.000	-0.043	0.315
-592.982	70.725	-0.053	-0.054
-591.967	-125.323	0.218	0.033
-590.952	-63.356	-0.069	0.028
-589.938	0.528	-0.156	-0.111
-588.923	-81.182	0.187	-0.062
-587.909	800.000	-0.040	0.174
-586.894	-200.000	-0.029	0.427
-585.879	123.532	-0.132	0.165
-584.865	800.000	-0.070	0.257
-583.850	229.847	0.165	0.270
-582.836	12.068	-0.192	-0.148
-581.821	-186.132	-0.208	0.003
-580.806	310.684	-0.061	-0.113
-579.792	800.000	-0.089	-0.364
-578.777	523.824	-0.106	0.249
-577.763	-1.495	-0.160	0.113
-576.748	-6.397	-0.299	0.204
-575.733	-47.462	-0.084	-0.041
-574.719	-18.458	0.267	-0.166
-573.704	268.381	-0.260	-0.454
-572.690	-200.000	-0.036	0.243
-571.675	-126.240	0.035	0.005
-570.661	-200.000	0.065	-0.372
-569.646	398.685	-0.091	-0.190
-568.631	43.224	-0.195	0.178
-567.617	285.530	0.158	0.285
-566.602	800.000	-0.100	0.292
-565.588	12.146	0.211	-0.162
-564.573	-200.000	0.025	0.252
-563.558	-3.598	0.265	0.184
-562.544	14.486	0.112	-0.088
-561.529	-200.000	0.025	-0.288
-560.515	-46.270	-0.184	0.090
-559.500	-65.705	0.058	0.023
-558.485	344.065	0.097	0.190
-557.471	213.136	0.137	-0.216
-556.456	54.454	0.252	-0.243
-555.442	-85.265	-0.461	0.144
-554.427	206.791	0.113	-0.176
-553.412	800.000	0.084	0.266
-552.398	187.643	0.094	0.141
-551.383	-129.913	-0.201	-0.028
-550.369	800.000	-0.046	-0.188
-549.354	-103.223	-0.244	0.057
-548.339	160.970	-0.063	-0.087
-547.325	-7.365	0.212	-0.144
-546.310	2.267	0.237	-0.171
-545.296	-160.000	-0.197	0.011
-544.281	800.000	0.056	-0.191
-543.266	-55.731	-0.243	-0.108
-542.252	393.082	-0.274	0.569
-541.237	-14.101	0.151	-0.097
-540.223	280.131	0.108	0.193
-539.208	-77.246	-0.218	0.076
-538.193	-44.463	-0.044	-0.022
-537.179	-34.432	0.053	0.029
-536.164	-144.286	-0.293	0.027
-535.150	38.578	0.162	-0.144
-534.135	800.000	-0.052	-0.143
-533.121	-80.031	-0.194	-0.065
-532.106	-200.000	0.011	0.101
-531.091	-96.093	-0.268	-0.071
-530.077	118.842	0.164	0.202
-529.062	190.100	-0.199	-0.298
-528.048	800.000	-0.115	-0.430
-527.033	800.000	-0.114	-0.349
-526.018	-200.000	0.004	-0.100
-525.004	729.381	0.078	-0.207
-523.989	-89.280	0.104	0.031
-522.975	73.260	0.055	-0.057
-521.960	3.098	0.122	-0.088
-520.945	-45.907	0.090	-0.044
-519.931	7.415	0.263	0.196
-518.916	-120.341	0.221	-0.038
-517.902	166.130	-0.272	-0.383
-516.887	711.182	0.106	-0.281
-515.872	800.000	0.052	-0.162
-514.858	92.028	-0.109	-0.123
-513.843	-129.309	-0.241	-0.033
-512.829	41.096	0.177	0.160
-511.814	-115.763	-0.063	0.012
-510.799	-77.446	-0.201	-0.070
-509.785	22.957	0.210	0.171
-508.770	534.883	0.115	-0.272
-507.756	-13.475	-0.241	-0.156
-506.741	95.192	0.006	-0.007
-505.726	-81.512	-0.056	-0.018
-504.712	-200.000	-0.044	-0.237
-503.697	-200.000	0.022	0.279
-502.683	38.005	-0.127	-0.113
-501.668	800.000	-0.046	0.171
-500.653	244.014	0.109	0.181
-499.639	-4.409	0.334	-0.230
-498.624	7.275	-0.189	0.141
-497.610	-64.643	-0.509	-0.206
-496.595	800.000	-0.032	0.110
-495.581	-131.412	-0.172	0.023
-494.566	43.723	-0.144	0.131
-493.551	-92.441	0.494	-0.138
-492.537	-145.526	0.311	-0.028
-491.522	-176.114	-0.368	-0.010
-490.508	-142.874	-0.188	-0.018
-489.493	-106.042	0.059	-0.013
-488.478	-200.000	0.005	-0.459
-487.464	-17.485	0.189	0.118
-486.449	800.000	-0.093	0.389
-485.435	5.191	-0.273	-0.200
-484.420	-162.956	-0.361	-0.017
-483.405	516.336	0.099	0.230
-482.391	-200.000	0.041	0.417
-481.376	-200.000	0.083	0.387
-480.362	800.000	0.047	0.165
-479.347	-69.166	0.133	-0.051
-478.332	-200.000	-0.016	0.307
-477.318	70.936	0.163	-0.168
-476.303	-200.000	0.021	0.117
-475.289	-70.448	0.035	-0.013
-474.274	143.235	0.089	0.117
-473.259	-77.763	-0.045	-0.015
-472.245	251.273	-0.103	-0.175
-471.230	800.000	-0.044	0.193
-470.216	36.225	0.204	0.178
-469.201	800.000	-0.006	0.019
-468.186	800.000	-0.084	-0.306
-467.172	-144.200	0.153	0.014
-466.157	800.000	-0.090	0.278
-465.143	-96.486	0.173	-0.046
-464.128	30.113	0.291	-0.247
-463.113	-182.756	-0.347	-0.006
-462.099	404.411	0.073	0.153
-461.084	-149.959	0.126	0.010
-460.070	-0.200	0.132	-0.093
-459.055	-200.000	0.058	0.283
-458.040	332.233	-0.179	0.345
-457.026	-200.000	0.019	-0.118
-456.011	-92.275	-0.246	0.069
-454.997	-55.067	-0.157	-0.070
-453.982	90.582	0.099	0.110
-452.968	38.576	0.401	0.356
-451.953	-44.030	-0.356	0.178
-450.938	14.463	0.077	-0.060
-449.924	500.471	-0.170	0.390
-448.909	-200.000	-0.030	-0.285
-447.895	800.000	0.054	0.158
-446.880	-147.920	0.027	-0.002
-445.865	800.000	0.009	0.034
-444.851	-200.000	-0.023	-0.448
-443.836	-200.000	-0.051	0.326
-442.822	163.795	0.207	0.290
-441.807	-200.000	-0.019	0.094
-440.792	-189.785	-0.264	-0.003
-439.778	-90.275	-0.315	-0.091
-438.763	-200.000	-0.032	-0.232
-437.749	564.745	-0.192	0.462
-436.734	409.414	0.116	-0.244
-435.719	800.000	-0.080	-0.310
-434.705	160.643	0.155	-0.215
-433.690	-110.063	-0.117	0.024
-432.676	-4.075	0.379	0.261
-431.661	367.949	-0.078	-0.158
-430.646	-76.589	0.053	0.018
-429.632	229.825	-0.113	-0.183
-428.617	800.000	0.053	-0.175
-427.603	-185.371	0.238	0.004
-426.588	373.079	0.106	-0.214
-425.573	-200.000	-0.010	-0.307
-424.559	305.341	0.015	-0.027
-423.544	-200.000	-0.060	-0.417
-422.530	-7.013	-0.128	0.086
-421.515	-29.957	0.142	0.080
-420.500	800.000	-0.088	-0.275
-419.486	800.000	0.036	-0.111
-418.471	-115.001	-0.168	0.032
-417.457	75.992	0.179	0.188
-416.442	-123.984	0.223	-0.035
-415.428	-200.000	-0.049	-0.305
-414.413	30.754	-0.326	0.277
-413.398	394.151	-0.072	0.149
-412.384	-10.944	0.141	0.092
-411.369	54.083	0.135	-0.129
-410.355	23.742	-0.090	-0.074
-409.340	800.000	0.108	-0.298
-408.325	-24.373	-0.031	-0.018
-407.311	-55.552	0.239	0.106
-406.296	23.586	0.158	0.129
-405.282	-152.337	-0.080	0.006
-404.267	-152.733	-0.103	0.007
-403.252	402.255	-0.061	0.126
-402.238	800.000	-0.026	0.077
-401.223	-200.000	-0.002	0.035
-400.209	-51.988	-0.367	-0.169
-399.194	68.282	-0.074	0.076
-398.179	80.774	0.081	-0.086
-397.165	-83.775	0.056	0.018
-396.150	-200.000	-0.003	-0.161
-395.136	-90.720	-0.172	0.049
-394.121	-29.682	-0.119	-0.067
-393.106	258.077	-0.145	0.248
-392.092	800.000	-0.100	-0.403
-391.077	-76.498	-0.232	-0.081
-390.063	175.465	0.113	-0.163
-389.048	-200.000	0.053	-0.280
-388.033	269.080	-0.096	-0.166
-387.019	209.641	0.076	-0.118
-386.004	-87.165	0.333	0.101
-384.990	81.153	-0.185	-0.198
-383.975	73.620	-0.279	0.290
-382.960	-99.808	0.196	-0.049
-381.946	-27.938	0.283	-0.162
-380.931	572.246	-0.023	-0.056
-379.917	124.463	-0.162	-0.202
-378.902	240.624	0.202	-0.333
-377.888	-200.000	0.011	0.353
-376.873	-56.244	0.252	-0.111
-375.858	-200.000	-0.014	-0.123
-374.844	-138.839	-0.435	-0.047
-373.829	32.060	-0.188	0.160
-372.815	-200.000	0.030	0.266
-371.800	-138.976	-0.395	-0.042
-370.785	-37.139	-0.201	-0.107
-369.771	-126.230	0.217	-0.032
-368.756	55.073	0.133	-0.128
-367.742	-31.184	-0.436	-0.244
-366.727	32.952	0.126	-0.108
-365.712	3.786	0.042	-0.030
-364.698	-200.000	-0.010	0.162
-363.683	-200.000	0.005	-0.099
-362.669	224.650	-0.018	0.029
-361.654	-10.460	-0.214	-0.141
-360.639	-200.000	-0.007	0.090
-359.625	800.000	0.115	0.386
-358.610	-110.016	0.355	0.073
-357.596	-73.167	-0.203	-0.074
-356.581	-37.883	0.268	-0.141
-355.566	91.013	0.343	0.381
-354.552	-112.387	0.289	0.057
-353.537	117.646	0.171	-0.209
-352.523	-92.496	0.131	0.037
-351.508	-32.241	-0.144	-0.080
-350.493	-129.010	0.291	0.040
-349.479	-177.539	-0.099	-0.002
-348.464	168.927	0.283	-0.400
-347.450	-156.962	-0.499	0.030
-346.435	800.000	0.066	0.252
-345.420	-44.813	0.351	0.173
-344.406	18.056	-0.230	-0.182
-343.391	323.417	0.007	0.014
-342.377	-193.587	0.271	0.002
-341.362	192.717	0.073	0.109
-340.348	-96.430	0.160	-0.042
-339.333	-107.631	-0.206	-0.045
-338.318	12.055	0.185	-0.141
-337.304	168.217	0.147	-0.207
-336.289	-200.000	-0.048	0.233
-335.275	-101.297	0.163	0.039
-334.260	-24.482	-0.329	-0.194
-333.245	-11.044	-0.207	0.135
-332.231	-88.682	-0.312	-0.092
-331.216	-44.490	-0.379	-0.188
-330.202	-200.000	0.009	-0.043
-329.187	60.281	0.077	-0.076
-328.172	102.749	-0.115	-0.133
-327.158	-134.297	0.255	0.031
-326.143	-103.399	0.131	-0.030
-325.129	-49.870	-0.035	0.016
-324.114	-51.102	-0.095	-0.044
-323.099	472.582	0.099	0.221
-322.085	-96.604	-0.192	0.050
-321.070	-113.577	0.158	-0.031
-320.056	-81.330	-0.219	-0.071
-319.041	-109.140	0.688	-0.145
-318.026	237.558	0.037	0.061
-317.012	531.759	-0.087	-0.203
-315.997	-73.282	-0.416	0.150
-314.983	109.091	0.221	-0.262
-313.968	61.885	0.163	0.161
-312.953	-58.564	0.215	-0.092
-311.939	-7.912	0.282	0.188
-310.924	-96.645	0.167	0.043
-309.910	97.272	-0.097	0.110
-308.895	-132.751	0.138	0.017
-307.880	249.936	-0.050	0.084
-306.866	-81.778	0.120	0.039
-305.851	77.984	0.051	0.054
-304.837	800.000	-0.027	0.087
-303.822	109.566	-0.101	0.120
-302.807	94.236	-0.056	0.063
-301.793	401.918	0.039	-0.081
-300.778	-73.065	0.462	0.168
-299.764	-99.513	-0.135	0.033
-298.749	-37.141	-0.102	0.054
-297.735	-48.581	0.196	0.093
-296.720	137.158	-0.123	-0.159
-295.705	-26.183	-0.163	-0.094
-294.691	-160.915	0.256	0.013
-293.676	-29.894	-0.047	0.026
-292.662	-120.290	-0.446	-0.075
-291.647	151.673	0.128	-0.173
-290.632	292.864	-0.100	-0.180
-289.618	-200.000	-0.017	-0.233
-288.603	280.318	0.144	0.255
-287.589	-5.862	-0.083	0.056
-286.574	-56.004	0.198	-0.087
-285.559	474.170	-0.045	0.100
-284.545	-48.589	-0.232	-0.110
-283.530	-150.762	0.143	-0.011
-282.516	136.408	0.204	0.263
-281.501	358.515	-0.093	0.183
-280.486	115.207	0.258	0.311
-279.472	-62.351	0.352	0.145
-278.457	175.599	-0.107	0.153
-277.443	-59.254	0.029	0.013
-276.428	109.726	0.233	0.276
-275.413	213.385	0.138	-0.215
-274.399	363.574	0.088	-0.174
-273.384	-200.000	-0.035	0.232
-272.370	-200.000	0.005	0.163
-271.355	800.000	-0.037	-0.114
-270.340	-86.905	0.151	0.045
-269.326	-122.463	0.208	0.033
-268.311	437.394	-0.040	0.087
-267.297	-117.120	0.188	-0.034
-266.282	659.253	-0.056	0.143
-265.267	-103.112	0.203	0.048
-264.253	-137.319	-0.223	0.025
-263.238	50.109	0.224	0.209
-262.224	-14.509	-0.297	0.189
-261.209	-16.854	0.319	0.199
-260.195	195.837	-0.065	-0.097
-259.180	-172.615	0.112	0.003
-258.165	-169.245	0.176	-0.006
-257.151	-49.913	-0.250	0.117
-256.136	547.701	-0.013	0.031
-255.122	-13.424	-0.158	-0.101
-254.107	679.744	-0.181	0.465
-253.092	384.879	-0.097	0.197
-252.078	-23.826	0.139	0.082
-251.063	701.679	-0.064	-0.166
-250.049	-200.000	-0.018	-0.100
-249.034	-89.442	0.263	-0.076
-248.019	800.000	-0.047	0.140
-247.005	-131.756	0.097	0.013
-245.990	71.277	0.203	0.207
-244.976	-59.152	0.123	0.052
-243.961	-102.678	0.233	0.055
-242.946	800.000	-0.039	0.123
-241.932	800.000	-0.074	0.269
-240.917	-141.429	-0.167	-0.017
-239.903	44.731	-0.086	-0.078
-238.888	306.261	-0.033	-0.061
-237.873	-72.810	0.066	0.024
-236.859	-26.624	-0.090	0.052
-235.844	-19.978	0.334	-0.203
-234.830	-200.000	0.008	-0.048
-233.815	171.069	-0.005	0.007
-232.800	800.000	0.144	-0.403
-231.786	-200.000	0.036	-0.155
-230.771	98.180	-0.143	0.162
-229.757	-73.873	0.197	-0.070
-228.742	-33.469	-0.119	0.065
-227.727	1.155	0.260	0.184
-226.713	-147.228	0.112	0.009
-225.698	265.135	-0.045	-0.077
-224.684	-200.000	-0.010	-0.094
-223.669	438.095	-0.131	-0.281
-222.655	775.421	-0.069	-0.186
-221.640	44.588	-0.267	-0.242
-220.625	-19.138	0.180	-0.110
-219.611	-200.000	-0.020	0.117
-218.596	234.639	0.143	0.232
-217.582	734.435	-0.116	0.305
-216.567	-200.000	-0.004	0.018
-215.552	60.491	0.115	-0.112
-214.538	-200.000	-0.050	0.277
-213.523	-85.642	0.072	-0.022
-212.509	566.235	0.055	-0.131
-211.494	-200.000	-0.003	0.140
-210.479	46.702	0.192	0.175
-209.465	-114.578	0.135	0.025
-208.450	328.454	0.094	0.178
-207.436	104.316	0.195	-0.226
-206.421	800.000	-0.020	0.068
-205.406	162.038	-0.086	-0.118
-204.392	-44.467	-0.033	0.016
-203.377	-86.720	-0.079	0.024
-202.363	141.192	0.180	-0.235
-201.348	800.000	-0.069	-0.203
-200.333	-36.897	-0.089	0.047
-199.319	800.000	0.093	0.379
-198.304	140.773	0.031	-0.040
-197.290	800.000	-0.089	-0.334
-196.275	-200.000	-0.033	-0.327
-195.260	111.623	-0.109	-0.129
-194.246	-132.910	0.234	-0.029
-193.231	634.129	0.091	0.227
-192.217	-102.898	0.421	0.099
-191.202	-49.287	-0.238	-0.112
-190.187	-76.106	0.487	0.169
-189.173	490.341	0.123	0.276
-188.158	800.000	-0.097	0.365
-187.144	263.076	-0.097	0.166
-186.129	386.938	0.113	-0.229
-185.114	-146.157	-0.203	0.018
-184.100	198.559	-0.121	0.182
-183.085	-130.217	0.240	0.032
-182.071	50.902	-0.144	0.134
-181.056	-77.308	-0.230	0.079
-180.042	-200.000	0.023	0.128
-179.027	-100.646	-0.273	-0.066
-178.012	386.220	0.082	0.167
-176.998	-200.000	0.041	-0.279
-175.983	800.000	0.099	-0.396
-174.969	545.725	0.035	-0.081
-173.954	180.478	-0.181	-0.262
-172.939	-119.851	0.103	-0.017
-171.925	-200.000	-0.027	0.184
-170.910	800.000	-0.023	-0.080
-169.896	334.970	-0.030	-0.057
-168.881	-4.649	0.054	-0.037
-167.866	28.963	-0.202	-0.169
-166.852	-76.657	0.421	-0.145
-165.837	-113.160	0.467	0.091
-164.823	252.177	0.081	-0.135
-163.808	568.368	0.040	-0.095
-162.793	-170.475	0.148	-0.005
-161.779	689.280	-0.082	0.211
-160.764	-183.893	0.043	0.001
-159.750	-28.989	0.114	0.065
-158.735	64.847	-0.169	0.168
-157.720	170.919	0.110	0.155
-156.706	37.396	-0.061	0.053
-155.691	-99.447	-0.033	-0.008
-154.677	145.462	0.063	-0.083
-153.662	-107.379	0.082	-0.018
-152.647	-88.059	0.206	0.061
-151.633	-105.773	-0.318	0.071
-150.618	48.336	0.085	-0.078
-149.604	-200.000	-0.001	0.052
-148.589	800.000	0.146	0.501
-147.574	248.122	-0.117	0.194
-146.560	-15.285	-0.156	0.098
-145.545	-106.521	-0.089	0.020
-144.531	60.552	-0.207	-0.201
-143.516	-69.700	-0.144	-0.054
-142.502	166.019	-0.155	0.215
-141.487	187.446	0.110	0.161
-140.472	800.000	0.135	-0.424
-139.458	37.048	0.367	-0.319
-138.443	-53.310	-0.157	-0.071
-137.429	76.718	0.105	0.110
-136.414	-154.108	0.238	0.016
-135.399	433.896	0.113	0.241
-134.385	124.588	-0.249	0.307
-133.370	-200.000	0.002	0.441
-132.356	-26.193	-0.236	0.136
-131.341	-144.981	-0.070	-0.006
-130.326	-56.062	-0.078	-0.034
-129.312	-200.000	0.031	-0.294
-128.297	800.000	-0.077	0.271
-127.283	800.000	-0.046	-0.167
-126.268	306.975	-0.169	0.308
-125.253	-22.376	0.196	-0.117
-124.239	-159.737	0.173	-0.009
-123.224	29.159	0.258	-0.215
-122.210	64.268	0.343	0.339
-121.195	800.000	0.095	0.379
-120.180	800.000	-0.100	0.377
-119.166	-111.290	-0.205	0.041
-118.151	-163.806	-0.390	0.018
-117.137	-63.690	0.103	0.041
-116.122	428.177	-0.036	0.077
-115.107	-68.738	-0.167	-0.064
-114.093	665.015	0.173	0.439
-113.078	-11.087	0.216	-0.140
-112.064	-100.928	-0.039	0.009
-111.049	-143.590	-0.174	-0.016
-110.034	132.963	-0.191	0.242
-109.020	-45.393	-0.277	-0.135
-108.005	-43.271	0.263	-0.131
-106.991	8.567	0.087	0.064
-105.976	-151.256	0.147	0.011
-104.962	-134.399	0.038	0.005
-103.947	800.000	-0.044	0.129
-102.932	-51.917	-0.230	0.105
-101.918	-51.845	0.059	0.027
-100.903	-200.000	0.031	-0.434
-99.889	800.000	0.074	0.293
-98.874	675.187	-0.089	0.227
-97.859	436.176	0.093	0.199
-96.845	-40.106	-0.100	0.051
-95.830	-63.546	-0.293	-0.118
-94.816	-36.205	-0.231	0.122
-93.801	800.000	0.035	-0.118
-92.786	382.529	-0.096	0.193
-91.772	-145.755	-0.331	0.029
-90.757	-200.000	0.043	-0.316
-89.743	-200.000	0.009	-0.041
-88.728	800.000	-0.028	-0.118
-87.713	-113.389	0.272	-0.052
-86.699	607.335	0.113	0.276
-85.684	509.594	0.064	0.146
-84.670	26.930	0.231	0.190
-83.655	248.461	0.044	-0.074
-82.640	23.613	-0.266	0.215
-81.626	-110.481	0.088	-0.018
-80.611	800.000	-0.053	0.154
-79.597	120.935	0.159	0.194
-78.582	730.196	0.088	-0.231
-77.567	-39.426	-0.327	-0.168
-76.553	-44.426	0.253	0.124
-75.538	389.006	-0.139	0.282
-74.524	-200.000	-0.033	0.229
-73.509	-60.934	0.294	-0.122
-72.494	-127.787	-0.228	0.032
-71.480	-78.159	-0.303	-0.102
-70.465	83.366	-0.087	0.093
-69.451	471.546	0.031	0.068
-68.436	117.196	0.049	-0.059
-67.422	271.322	0.103	-0.178
-66.407	226.057	-0.164	0.261
-65.392	3.792	-0.024	-0.017
-64.378	800.000	-0.022	-0.063
-63.363	-18.543	-0.143	0.088
-62.349	-43.921	0.066	0.033
-61.334	64.215	-1.182	-1.165
-60.319	7.796	0.630	0.462
-59.305	-200.000	-0.283	-1.257
-58.290	412.904	0.621	1.292
-57.276	367.266	0.827	1.635
-56.261	-200.000	113.264	643.913
-55.246	533.701	1518.474	3521.332
-54.232	177.523	2695.301	3844.130
-53.217	104.237	2282.451	2628.543
-52.203	37.416	1890.186	1640.350
-51.188	31.438	1678.379	1411.515
-50.173	28.760	1636.375	1356.390
-49.159	50.327	1692.337	1565.171
-48.144	49.404	1706.168	1570.990
-47.130	30.996	1663.687	1395.626
-46.115	28.273	1649.327	1363.279
-45.100	28.101	1644.542	1357.995
-44.086	28.037	1641.320	1354.807
-43.071	27.930	1639.534	1352.484
-42.057	27.947	1637.084	1350.536
-41.042	27.961	1634.498	1348.453
-40.027	28.034	1633.045	1347.743
-39.013	28.060	1630.515	1345.789
-37.998	27.892	1629.317	1343.512
-36.984	27.988	1627.986	1343.066
-35.969	28.065	1626.110	1342.034
-34.954	28.120	1624.752	1341.263
-33.940	28.194	1622.794	1340.130
-32.925	28.087	1621.097	1337.897
-31.911	28.101	1619.641	1336.744
-30.896	28.172	1617.459	1335.409
-29.881	28.160	1615.958	1334.030
-28.867	28.161	1614.338	1332.644
-27.852	28.111	1612.715	1330.889
-26.838	28.104	1611.581	1329.846
-25.823	28.085	1610.253	1328.566
-24.809	28.205	1608.691	1328.090
-23.794	28.164	1607.777	1326.990
-22.779	28.141	1606.028	1325.322
-21.765	28.136	1604.477	1323.959
-20.750	28.105	1603.009	1322.468
-19.736	28.236	1601.697	1322.282
-18.721	28.161	1600.515	1320.713
-17.706	28.201	1598.788	1319.517
-16.692	28.114	1597.532	1317.803
-15.677	28.171	1596.105	1316.984
-14.663	28.261	1594.567	1316.309
-13.648	28.207	1593.260	1314.790
-12.633	28.262	1591.813	1313.941
-11.619	28.159	1590.163	1311.787
-10.604	28.119	1588.750	1310.285
-9.590	28.253	1587.587	1310.232
-8.575	28.246	1586.035	1308.849
-7.560	28.232	1584.979	1307.825
-6.546	28.201	1583.987	1306.735
-5.531	28.156	1583.148	1305.666
-4.517	28.177	1581.931	1304.765
-3.502	28.210	1581.090	1304.255
-2.487	28.293	1578.823	1302.919
-1.473	27.862	1567.368	1290.374
-0.458	24.810	1548.571	1253.503
0.556	22.635	1549.563	1221.138
1.571	20.365	1572.749	1223.323
2.586	19.741	1585.519	1228.710
3.600	17.873	1532.242	1174.477
4.615	10.958	1426.157	1048.630
5.629	4.779	1366.345	966.305
6.644	3.701	1357.888	953.589
7.659	3.629	1356.787	952.282
8.673	3.653	1356.484	952.136
9.688	3.667	1354.311	950.611
10.702	3.532	1351.176	947.496
11.717	6.590	1356.410	969.917
12.731	14.414	1371.007	1028.737
13.746	21.243	1382.125	1079.335
14.761	23.129	1384.182	1092.508
15.775	22.500	1382.854	1087.484
16.790	21.791	1379.762	1080.586
17.804	21.129	1378.355	1075.312
18.819	20.770	1377.117	1072.037
19.834	20.822	1376.334	1071.653
20.848	20.848	1375.709	1071.234
21.863	20.756	1374.116	1069.331
22.877	20.696	1373.075	1068.062
23.892	20.656	1372.101	1066.965
24.907	20.518	1371.505	1065.560
25.921	20.462	1370.907	1064.656
26.936	20.528	1369.345	1063.756
27.950	20.579	1368.755	1063.511
28.965	20.645	1367.855	1063.124
29.980	20.815	1366.636	1063.118
30.994	20.767	1366.523	1062.647
32.009	20.984	1364.962	1062.657
33.023	20.939	1363.993	1061.535
34.038	20.915	1362.040	1059.777
35.053	20.642	1361.108	1057.298
36.067	20.660	1359.934	1056.405
37.082	20.743	1359.237	1056.272
38.096	20.745	1358.850	1055.887
39.111	20.743	1357.803	1054.971
40.126	20.544	1356.877	1052.952
41.140	20.322	1355.414	1050.380
42.155	20.106	1354.938	1048.612
43.169	20.157	1354.416	1048.426
44.184	20.120	1354.988	1048.551
45.199	20.329	1353.955	1048.918
46.213	20.368	1354.015	1049.109
47.228	20.542	1353.770	1049.877
48.242	20.753	1352.068	1049.739
49.257	20.646	1350.306	1047.630
50.271	20.631	1349.127	1046.535
51.286	20.605	1347.924	1045.351
52.301	20.531	1346.265	1043.532
53.315	20.345	1345.916	1042.048
54.330	20.254	1344.500	1040.314
55.344	20.198	1343.336	1038.989
56.359	20.167	1342.247	1037.867
57.374	20.094	1341.404	1036.685
58.388	20.013	1340.872	1035.701
59.403	19.996	1340.308	1035.069
60.417	20.024	1339.140	1034.246
61.432	19.935	1338.300	1032.975
62.447	19.841	1337.376	1031.607
63.461	19.737	1336.353	1030.112
64.476	19.736	1335.479	1029.339
65.490	19.751	1334.101	1028.273
66.505	19.803	1331.810	1026.724
67.520	19.741	1331.473	1026.005
68.534	19.780	1330.469	1025.374
69.549	19.786	1329.152	1024.304
70.563	19.665	1327.977	1022.589
71.578	19.554	1327.258	1021.292
72.593	19.427	1326.625	1019.962
73.607	19.417	1325.910	1019.265
74.622	19.525	1325.539	1019.525
75.636	19.594	1324.658	1019.165
76.651	19.614	1324.025	1018.709
77.666	19.726	1323.475	1018.853
78.680	19.767	1323.159	1018.761
79.695	19.871	1321.740	1018.191
80.709	19.936	1321.751	1018.491
81.724	20.201	1320.976	1019.363
82.739	20.207	1320.139	1018.662
83.753	20.515	1319.383	1019.798
84.768	20.573	1319.360	1020.027
85.782	20.699	1318.443	1019.969
86.797	20.753	1317.144	1019.185
87.812	20.663	1315.570	1017.356
88.826	20.579	1314.856	1016.218
89.841	20.620	1313.644	1015.436
90.855	20.707	1312.683	1015.110
91.870	20.731	1312.076	1014.692
92.884	20.978	1310.966	1015.177
93.899	20.977	1310.520	1014.738
94.914	21.009	1309.623	1014.139
95.928	20.902	1308.998	1012.943
96.943	20.977	1307.573	1012.189
97.957	20.817	1306.990	1010.717
98.972	20.875	1306.053	1010.239
99.987	20.746	1305.157	1008.711
101.001	20.802	1304.273	1008.264
102.016	20.822	1303.055	1007.345
103.030	20.825	1302.608	1006.932
104.045	20.768	1301.811	1005.897
105.060	20.647	1299.785	1003.540
106.074	20.222	1298.500	1000.014
107.089	19.962	1296.520	996.902
108.103	19.823	1295.404	995.154
109.118	19.841	1294.074	994.152
110.133	19.773	1292.368	992.363
111.147	19.759	1291.639	991.634
112.162	19.938	1290.289	991.533
113.176	20.007	1289.616	991.324
114.191	19.984	1288.862	990.524
115.206	20.019	1287.862	989.870
116.220	20.041	1286.491	988.854
117.235	19.939	1285.404	987.351
118.249	19.876	1283.797	985.668
119.264	19.822	1282.849	984.549
120.279	19.686	1282.013	983.043
121.293	19.525	1280.838	981.138
122.308	19.516	1279.787	980.198
123.322	19.354	1279.169	978.716
124.337	19.435	1277.565	977.866
125.352	19.489	1276.230	977.062
126.366	19.485	1275.321	976.254
127.381	19.358	1274.359	974.716
128.395	19.331	1273.317	973.679
129.410	19.358	1272.357	973.011
130.424	19.582	1271.803	973.765
131.439	19.816	1270.737	974.182
132.454	19.855	1270.108	973.832
133.468	19.900	1269.511	973.540
134.483	19.904	1269.081	973.151
135.497	19.960	1268.287	972.769
136.512	19.972	1266.934	971.708
137.527	19.965	1265.662	970.609
138.541	19.942	1264.582	969.570
139.556	20.148	1263.557	969.850
140.570	20.384	1262.364	970.168
141.585	20.449	1260.990	969.386
142.600	20.447	1260.997	969.297
143.614	20.649	1259.653	969.300
144.629	20.703	1259.184	969.158
145.643	20.677	1257.718	967.800
146.658	20.530	1256.203	965.730
147.673	20.306	1255.017	963.489
148.687	20.151	1253.482	961.366
149.702	20.033	1252.286	959.708
150.716	19.927	1250.522	957.687
151.731	19.922	1249.675	956.924
152.746	19.902	1248.866	956.113
153.760	20.098	1247.356	955.951
154.775	20.259	1246.924	956.426
155.789	20.335	1245.923	955.989
156.804	20.335	1245.087	955.265
157.819	20.348	1244.288	954.638
158.833	20.512	1243.749	955.041
159.848	20.733	1242.690	955.358
160.862	20.669	1241.590	954.073
161.877	20.278	1240.226	950.798
162.892	19.972	1238.445	947.676
163.906	19.951	1237.644	946.867
164.921	20.005	1236.623	946.295
165.935	20.037	1236.171	946.041
166.950	20.144	1235.698	946.178
167.964	20.150	1234.616	945.299
168.979	20.108	1233.987	944.503
169.994	20.006	1233.520	943.508
171.008	20.056	1232.680	943.055
172.023	20.268	1231.755	943.414
173.037	20.450	1231.564	944.176
174.052	20.486	1230.287	943.309
175.067	20.154	1228.623	940.151
176.081	19.854	1227.785	937.801
177.096	19.868	1226.872	937.096
178.110	20.025	1225.714	936.975
179.125	20.043	1225.254	936.641
180.140	20.141	1224.360	936.400
181.154	20.430	1223.193	936.983
182.169	20.583	1221.727	936.606
183.183	20.560	1220.704	935.612
184.198	20.604	1220.008	935.236
185.213	20.552	1219.407	934.412
186.227	20.519	1218.327	933.326
187.242	20.708	1217.276	933.452
188.256	20.771	1216.104	932.808
189.271	20.938	1215.283	932.986
190.286	20.550	1214.334	930.103
191.300	20.187	1213.320	927.302
192.315	19.994	1211.960	925.148
193.329	19.996	1211.660	924.850
194.344	20.048	1210.801	924.389
195.359	20.061	1209.992	923.758
196.373	20.259	1209.624	924.451
197.388	20.356	1209.856	925.065
198.402	20.544	1209.998	926.093
199.417	20.744	1209.560	926.738
200.432	21.024	1208.251	927.145
201.446	21.235	1207.584	927.671
202.461	21.195	1206.887	926.842
203.475	21.126	1206.308	925.950
204.490	20.788	1204.718	922.853
205.504	20.571	1203.066	920.358
206.519	20.404	1202.190	918.723
207.534	20.471	1200.719	917.872
208.548	20.467	1199.883	917.129
209.563	20.499	1199.409	916.854
210.577	20.403	1198.509	915.581
211.592	20.621	1197.777	916.089
212.607	20.770	1197.216	916.364
213.621	20.805	1196.499	915.917
214.636	20.789	1194.968	914.580
215.650	20.739	1194.792	914.100
216.665	20.933	1193.874	914.338
217.680	21.037	1193.320	914.375
218.694	21.134	1192.434	914.127
219.709	21.138	1191.398	913.271
220.723	20.995	1190.804	911.988
221.738	20.959	1189.787	910.941
222.753	20.933	1189.200	910.272
223.767	20.946	1188.560	909.771
224.782	21.194	1188.210	910.719
225.796	21.192	1187.909	910.393
226.811	21.103	1187.164	909.280
227.826	20.960	1186.160	907.688
228.840	20.898	1185.272	906.601
229.855	20.851	1184.127	905.403
230.869	20.754	1183.096	904.032
231.884	20.602	1182.796	902.930
232.899	20.467	1181.921	901.486
233.913	20.495	1180.665	900.592
234.928	20.422	1180.211	899.786
235.942	20.412	1179.098	898.807
236.957	20.358	1178.137	897.714
237.972	20.312	1177.817	897.156
238.986	20.455	1177.243	897.375
240.001	20.379	1176.751	896.533
241.015	20.431	1175.632	895.867
242.030	20.624	1175.330	896.550
243.045	20.714	1174.748	896.494
244.059	20.821	1173.527	896.031
245.074	20.889	1173.344	896.162
246.088	20.852	1173.064	895.681
247.103	21.136	1171.670	895.995
248.117	21.118	1171.516	895.705
249.132	21.354	1171.010	896.449
250.147	21.703	1170.465	897.743
251.161	21.932	1169.919	898.415
252.176	21.949	1169.344	897.980
253.190	21.929	1168.839	897.413
254.205	22.004	1168.571	897.508
255.220	22.040	1168.173	897.310
256.234	22.119	1167.219	896.897
257.249	22.002	1166.312	895.526
258.263	21.918	1165.389	894.311
259.278	21.912	1164.912	893.836
260.293	21.949	1164.515	893.638
261.307	22.126	1163.993	894.060
262.322	22.127	1163.082	893.285
263.336	22.164	1162.689	893.096
264.351	22.087	1162.312	892.334
265.366	22.139	1161.344	891.775
266.380	22.095	1161.327	891.460
267.395	22.097	1159.824	890.237
268.409	21.964	1158.591	888.542
269.424	21.866	1158.457	887.864
270.439	21.729	1157.658	886.477
271.453	21.745	1156.542	885.625
272.468	21.531	1155.561	883.714
273.482	21.518	1154.649	882.877
274.497	21.482	1154.205	882.277
275.512	21.570	1153.689	882.247
276.526	21.458	1152.801	880.924
277.541	21.559	1152.086	880.807
278.555	21.609	1151.744	880.723
279.570	21.981	1151.543	882.362
280.585	22.046	1150.598	881.884
281.599	22.022	1150.049	881.266
282.614	21.808	1148.246	878.734
283.628	21.682	1147.134	877.174
284.643	21.628	1146.101	876.035
285.657	21.607	1145.247	875.200
286.672	21.636	1144.501	874.699
287.687	21.761	1143.735	874.658
288.701	21.812	1142.477	873.875
289.716	21.725	1142.174	873.132
290.730	21.615	1142.067	872.424
291.745	21.679	1141.378	872.140
292.760	21.930	1140.527	872.658
293.774	21.976	1140.084	872.474
294.789	22.074	1139.937	872.772
295.803	22.116	1138.849	872.068
296.818	21.860	1137.466	869.666
297.833	21.732	1137.033	868.620
298.847	21.688	1136.247	867.726
299.862	21.883	1135.242	867.844
300.876	21.925	1134.559	867.453
301.891	21.930	1134.178	867.112
302.906	22.076	1134.072	867.677
303.920	22.256	1133.587	868.116
304.935	22.415	1132.859	868.268
305.949	22.585	1132.061	868.416
306.964	22.544	1131.607	867.790
307.979	22.305	1130.544	865.721
308.993	22.171	1130.305	864.800
310.008	22.179	1129.559	864.195
311.022	22.334	1128.772	864.273
312.037	22.348	1127.771	863.503
313.052	22.148	1126.601	861.549
314.066	21.928	1125.393	859.473
315.081	21.641	1124.227	857.103
316.095	21.625	1123.362	856.287
317.110	21.725	1122.854	856.312
318.125	21.782	1121.662	855.604
319.139	21.674	1121.541	854.909
320.154	21.683	1120.885	854.380
321.168	21.613	1120.536	853.694
322.183	21.601	1120.048	853.193
323.197	21.733	1119.223	853.129
324.212	21.876	1118.560	853.246
325.227	21.974	1118.432	853.548
326.241	21.836	1117.854	852.362
327.256	21.830	1116.792	851.447
328.270	21.663	1115.861	849.852
329.285	21.625	1114.957	848.903
330.300	21.668	1114.018	848.322
331.314	21.722	1112.864	847.627
332.329	21.651	1112.235	846.733
333.343	21.701	1111.822	846.586
334.358	22.018	1110.626	847.127
335.373	22.200	1110.446	847.793
336.387	22.284	1109.376	847.307
337.402	22.145	1108.944	846.230
338.416	22.331	1108.235	846.512
339.431	22.476	1107.719	846.738
340.446	22.463	1107.955	846.781
341.460	22.663	1107.104	847.016
342.475	22.707	1106.618	846.781
343.489	22.769	1105.642	846.257
344.504	22.866	1104.795	845.997
345.519	22.983	1103.509	845.500
346.533	23.000	1103.332	845.370
347.548	22.984	1102.571	844.634
348.562	22.925	1101.542	843.492
349.577	22.767	1099.996	841.480
350.592	22.287	1099.144	838.467
351.606	22.173	1098.361	837.250
352.621	22.175	1097.610	836.612
353.635	21.997	1096.618	834.938
354.650	22.099	1096.051	834.918
355.665	22.193	1095.459	834.840
356.679	22.226	1095.391	834.867
357.694	22.394	1094.265	834.733
358.708	22.509	1094.296	835.230
359.723	22.449	1093.805	834.497
360.738	22.520	1092.675	833.897
361.752	22.570	1091.987	833.533
362.767	22.621	1091.825	833.578
363.781	22.453	1091.609	832.546
364.796	22.818	1090.937	833.684
365.810	23.051	1090.440	834.330
366.825	23.056	1089.988	833.932
367.840	23.379	1089.324	834.873
368.854	23.408	1089.372	834.971
369.869	23.287	1088.496	833.655
370.883	23.084	1087.245	831.669
371.898	22.920	1086.678	830.392
372.913	22.785	1085.945	829.123
373.927	23.077	1085.316	829.939
374.942	23.129	1084.785	829.704
375.956	23.103	1084.575	829.348
376.971	22.948	1084.065	828.158
377.986	23.089	1083.228	828.107
379.000	23.366	1082.607	828.857
380.015	23.376	1082.010	828.372
381.029	23.375	1081.986	828.275
382.044	23.419	1081.253	827.846
383.059	23.402	1080.110	826.820
384.073	23.270	1079.487	825.655
385.088	23.351	1078.488	825.196
386.102	23.265	1077.783	824.180
387.117	23.081	1076.334	822.146
388.132	22.868	1075.149	820.180
389.146	22.774	1074.566	819.222
390.161	22.687	1073.839	818.194
391.175	22.767	1073.112	817.938
392.190	22.981	1073.098	818.848
393.205	23.194	1071.978	818.907
394.219	23.180	1071.193	818.169
395.234	23.019	1070.289	816.663
396.248	22.879	1068.647	814.691
397.263	22.943	1067.601	814.118
398.278	22.680	1067.268	812.577
399.292	22.715	1066.322	811.947
400.307	22.602	1065.802	810.960
401.321	22.639	1064.909	810.379
402.336	22.493	1064.512	809.336
403.350	22.488	1063.965	808.824
404.365	22.558	1063.418	808.659
405.380	22.718	1062.971	808.981
406.394	22.989	1062.048	809.446
407.409	23.149	1061.139	809.414
408.423	23.357	1061.120	810.281
409.438	23.436	1060.342	809.978
410.453	23.426	1059.915	809.530
411.467	23.565	1059.088	809.463
412.482	23.616	1058.622	809.266
413.496	23.763	1057.774	809.219
414.511	23.717	1057.698	808.877
415.526	23.852	1057.107	808.969
416.540	23.997	1056.900	809.397
417.555	23.813	1056.244	807.991
418.569	23.722	1055.683	807.075
419.584	23.661	1054.635	805.924
420.599	23.646	1054.223	805.469
421.613	156.566	1402.816	1797.543
422.628	143.785	1453.570	1797.637
