DTS Sentinel unit serial number:	SN413079Multiplexer serial number:	ORYXHardware model number:	OX4-SRSoftware version number:	ORYX F/W v4.00 Oryx Data Collector v3.7.2.0data status	okinstallation	princeton_trtdifferential loss correction	single-endedforward channel	channel 2reverse channel	N/Adate	2019/09/13time	14:11:35forward acquisition time	60.00reverse acquisition time	0.00gamma	496.2192k internal	0.2315k external	0.2315temperature offset calibration	1.0208default loss term (dB/km)	0.3790temperature slope calibration	1.0000multiplexer offset coefficient	1.0000multiplexer slope coefficient	1.0000fibre end	0.00T internal ref (°C)	35.27T ext. ref 1 (°C)	4.61T ext. ref 2 (°C)	30.34length (m)	temperature (°C)	Stokes	anti-Stokes-747.200	-148.145	0.427	0.036
-746.185	800.000	-0.164	0.471
-745.171	-109.908	0.277	-0.059
-744.156	82.392	0.114	0.126
-743.142	555.236	0.091	0.222
-742.127	-74.717	0.414	-0.151
-741.112	-78.222	-0.124	-0.043
-740.098	414.505	-0.080	0.172
-739.083	4.660	0.393	-0.292
-738.069	286.375	0.086	0.157
-737.054	-157.397	-0.401	0.024
-736.039	-51.761	-0.295	0.139
-735.025	259.256	0.208	-0.364
-734.010	-200.000	-0.072	-0.324
-732.996	-28.290	0.268	-0.157
-731.981	378.344	-0.084	0.173
-730.966	137.794	0.016	-0.021
-729.952	-195.937	-0.133	0.001
-728.937	435.979	0.012	-0.027
-727.923	-76.575	0.091	0.032
-726.908	-0.909	-0.371	0.266
-725.894	-137.195	-0.241	-0.028
-724.879	46.456	-0.207	0.194
-723.864	-1.763	0.098	-0.070
-722.850	-54.720	-0.206	-0.094
-721.835	-200.000	0.004	-0.061
-720.821	800.000	0.139	-0.396
-719.806	77.065	0.031	-0.034
-718.791	-6.805	-0.136	-0.094
-717.777	57.364	0.168	0.166
-716.762	8.223	-0.087	0.066
-715.748	-101.683	-0.141	-0.035
-714.733	800.000	-0.039	-0.152
-713.718	467.228	0.130	0.296
-712.704	237.782	0.069	0.116
-711.689	-45.761	-0.200	0.100
-710.675	-92.410	-0.194	-0.055
-709.660	649.665	0.093	0.241
-708.645	102.675	-0.131	-0.155
-707.631	-200.000	-0.080	0.366
-706.616	-200.000	-0.428	0.001
-705.602	-200.000	0.005	-0.233
-704.587	800.000	-0.038	0.154
-703.572	-200.000	0.000	-0.130
-702.558	-127.554	-0.255	-0.037
-701.543	517.204	-0.036	0.084
-700.529	27.083	0.198	-0.168
-699.514	764.630	0.037	-0.102
-698.499	63.087	0.047	0.048
-697.485	-73.682	0.139	-0.051
-696.470	239.116	0.163	0.274
-695.456	54.519	0.065	-0.063
-694.441	-200.000	-0.057	0.280
-693.426	227.596	-0.116	0.191
-692.412	-131.149	-0.187	0.025
-691.397	-102.164	-0.131	0.032
-690.383	450.651	-0.127	0.284
-689.368	-111.385	-0.262	-0.054
-688.354	-10.422	0.131	0.088
-687.339	74.272	0.055	-0.058
-686.324	234.243	0.208	0.347
-685.310	680.198	0.071	-0.186
-684.295	4.314	0.050	0.037
-683.281	-87.325	0.217	-0.066
-682.266	800.000	0.022	-0.076
-681.251	-3.900	-0.208	-0.146
-680.237	39.919	0.177	0.160
-679.222	-39.534	0.163	-0.086
-678.208	-200.000	0.033	0.176
-677.193	-200.000	-0.039	-0.255
-676.178	128.359	-0.134	-0.172
-675.164	-125.046	-0.187	0.029
-674.149	106.094	-0.171	-0.205
-673.135	-200.000	-0.075	-0.335
-672.120	-200.000	-0.060	-0.397
-671.105	265.725	-0.194	0.343
-670.091	-54.505	0.107	-0.049
-669.076	16.468	0.128	-0.102
-668.062	-47.487	-0.108	-0.053
-667.047	727.738	0.061	0.164
-666.032	-88.879	0.405	0.121
-665.018	800.000	0.135	-0.379
-664.003	-200.000	-0.001	-0.017
-662.989	-34.775	0.176	-0.097
-661.974	-200.000	0.034	0.224
-660.959	-110.135	-0.201	-0.042
-659.945	-9.097	0.110	0.074
-658.930	378.043	0.151	-0.311
-657.916	42.241	-0.148	-0.136
-656.901	579.219	0.037	-0.091
-655.886	-80.108	-0.069	0.023
-654.872	224.026	-0.184	-0.301
-653.857	263.085	-0.167	-0.293
-652.843	-3.162	-0.108	-0.076
-651.828	-200.000	-0.044	0.381
-650.814	150.170	0.149	-0.204
-649.799	-0.864	-0.457	0.327
-648.784	344.673	-0.177	-0.351
-647.770	355.267	0.105	-0.211
-646.755	68.458	-0.128	-0.133
-645.741	278.377	0.149	-0.268
-644.726	-200.000	0.015	-0.079
-643.711	-164.093	-0.203	0.009
-642.697	-37.465	-0.301	0.162
-641.682	-81.088	-0.108	0.036
-640.668	-17.801	-0.138	0.087
-639.653	32.744	0.161	0.141
-638.638	-61.594	0.177	-0.075
-637.624	-75.727	0.299	-0.107
-636.609	-200.000	-0.016	0.104
-635.595	294.907	0.169	-0.311
-634.580	40.173	-0.225	-0.205
-633.565	132.528	0.184	-0.240
-632.551	-80.097	-0.343	0.116
-631.536	-83.005	-0.138	0.045
-630.522	-36.405	-0.320	0.174
-629.507	-200.000	-0.017	-0.202
-628.492	32.016	-0.189	0.164
-627.478	-83.319	0.206	0.067
-626.463	-14.415	0.184	-0.120
-625.449	9.712	0.077	-0.059
-624.434	-14.099	-0.213	-0.138
-623.419	-174.771	-0.255	0.007
-622.405	257.767	0.068	0.118
-621.390	-63.307	0.234	-0.097
-620.376	0.124	-0.424	0.305
-619.361	800.000	-0.018	0.063
-618.346	-200.000	0.022	0.291
-617.332	61.307	-0.178	0.179
-616.317	800.000	0.047	-0.163
-615.303	49.899	0.323	0.307
-614.288	-200.000	-0.022	0.133
-613.273	-22.749	-0.088	0.053
-612.259	-92.520	0.145	0.041
-611.244	-121.112	0.079	-0.013
-610.230	-18.811	0.412	-0.258
-609.215	28.036	0.074	0.063
-608.201	76.712	0.197	-0.211
-607.186	800.000	0.035	0.120
-606.171	800.000	0.029	-0.107
-605.157	145.852	0.153	0.206
-604.142	-65.501	-0.395	-0.160
-603.128	-71.858	0.135	-0.051
-602.113	-84.814	0.077	-0.024
-601.098	529.126	-0.090	-0.215
-600.084	-200.000	0.012	0.129
-599.069	800.000	0.053	-0.161
-598.055	293.604	0.106	0.195
-597.040	-136.031	0.221	0.026
-596.025	-200.000	-0.007	-0.146
-595.011	-103.507	-0.166	-0.039
-593.996	-143.153	0.120	-0.012
-592.982	25.288	-0.192	0.160
-591.967	47.153	-0.102	0.096
-590.952	800.000	-0.063	0.257
-589.938	-62.872	-0.191	0.080
-588.923	-56.834	0.073	0.032
-587.909	-167.980	-0.149	-0.006
-586.894	-105.448	-0.260	-0.060
-585.879	-162.555	-0.220	-0.011
-584.865	223.185	-0.091	-0.148
-583.850	-139.507	-0.140	-0.015
-582.836	771.710	0.156	0.427
-581.821	-121.775	-0.292	0.049
-580.806	-31.557	0.106	0.060
-579.792	-50.682	-0.125	0.059
-578.777	27.449	-0.131	-0.111
-577.763	379.274	0.133	-0.274
-576.748	-200.000	-0.010	0.347
-575.733	-190.764	-0.020	0.000
-574.719	-200.000	0.091	-0.408
-573.704	192.468	0.162	-0.247
-572.690	-117.859	-0.324	-0.059
-571.675	199.991	-0.187	0.288
-570.661	-200.000	-0.020	-0.116
-569.646	-120.256	-0.204	0.035
-568.631	-200.000	0.009	-0.118
-567.617	244.101	-0.063	0.107
-566.602	-107.523	-0.478	-0.105
-565.588	4.266	-0.391	-0.288
-564.573	-200.000	0.013	-0.140
-563.558	-22.107	-0.024	0.015
-562.544	800.000	0.025	0.082
-561.529	-200.000	-0.057	-0.269
-560.515	-200.000	0.060	-0.267
-559.500	72.528	-0.199	0.209
-558.485	624.931	-0.046	0.117
-557.471	403.539	-0.083	-0.176
-556.456	467.890	0.076	-0.171
-555.442	800.000	0.020	0.072
-554.427	-5.902	0.174	-0.120
-553.412	40.112	0.039	0.035
-552.398	-102.486	-0.150	-0.036
-551.383	800.000	0.014	-0.049
-550.369	92.819	-0.064	-0.073
-549.354	498.008	-0.078	-0.180
-548.339	-200.000	-0.173	0.001
-547.325	-0.599	0.077	0.055
-546.310	397.415	-0.098	0.205
-545.296	-200.000	0.040	-0.373
-544.281	-200.000	0.009	-0.348
-543.266	39.175	-0.048	-0.044
-542.252	-100.132	0.409	-0.102
-541.237	800.000	0.126	-0.534
-540.223	-200.000	-0.030	-0.240
-539.208	-172.637	0.303	0.010
-538.193	-147.566	0.183	-0.015
-537.179	38.181	0.007	-0.006
-536.164	-200.000	-0.011	-0.138
-535.150	-86.603	0.201	-0.062
-534.135	-48.733	0.102	0.049
-533.121	-74.873	0.130	-0.047
-532.106	-84.864	-0.252	0.079
-531.091	38.012	0.190	-0.170
-530.077	-128.043	0.353	-0.051
-529.062	692.423	-0.115	-0.302
-528.048	-200.000	-0.019	0.166
-527.033	465.992	-0.057	-0.128
-526.018	-23.211	0.128	-0.078
-525.004	800.000	-0.095	-0.267
-523.989	3.142	0.219	-0.160
-522.975	193.274	-0.084	0.127
-521.960	800.000	0.027	0.096
-520.945	140.120	-0.077	0.102
-519.931	-200.000	0.042	-0.209
-518.916	45.367	0.065	0.060
-517.902	-36.840	0.181	0.098
-516.887	27.343	0.239	0.202
-515.872	9.241	0.107	0.081
-514.858	92.818	0.217	0.246
-513.843	-200.000	-0.017	-0.166
-512.829	-200.000	-0.023	-0.250
-511.814	63.250	-0.079	0.080
-510.799	244.780	0.108	0.182
-509.785	-122.037	0.168	-0.028
-508.770	-101.639	0.019	-0.005
-507.756	-45.810	-0.203	-0.101
-506.741	12.243	-0.230	0.178
-505.726	-32.552	-0.439	-0.246
-504.712	-72.453	0.246	-0.091
-503.697	-136.030	0.485	-0.057
-502.683	-13.838	-0.330	-0.214
-501.668	800.000	-0.028	-0.084
-500.653	502.833	0.104	-0.241
-499.639	800.000	-0.039	0.115
-498.624	-69.724	-0.368	0.141
-497.610	24.324	0.189	0.156
-496.595	-200.000	-0.021	0.135
-495.581	312.447	-0.147	0.278
-494.566	-83.201	-0.256	-0.082
-493.551	-110.957	-0.028	0.006
-492.537	83.608	-0.308	0.337
-491.522	56.682	-0.098	0.096
-490.508	-200.000	-0.017	-0.191
-489.493	26.630	0.132	-0.111
-488.478	-41.036	0.338	-0.175
-487.464	-0.115	-0.274	-0.196
-486.449	143.217	-0.053	0.071
-485.435	399.130	-0.027	0.056
-484.420	800.000	0.137	0.398
-483.405	-200.000	0.010	-0.241
-482.391	-200.000	-0.029	-0.200
-481.376	-200.000	0.006	0.126
-480.362	-24.206	0.323	0.194
-479.347	231.772	0.128	0.210
-478.332	-40.367	0.211	-0.110
-477.318	-96.040	-0.053	0.014
-476.303	-18.385	0.125	0.078
-475.289	-200.000	0.049	-0.291
-474.274	-75.722	0.104	-0.037
-473.259	-200.000	0.016	-0.073
-472.245	50.542	-0.181	0.172
-471.230	476.759	-0.070	-0.158
-470.216	-117.066	0.110	-0.020
-469.201	-200.000	-0.051	0.368
-468.186	91.202	0.173	0.195
-467.172	-200.000	0.031	0.186
-466.157	35.078	0.225	-0.198
-465.143	4.915	-0.160	0.118
-464.128	-86.562	0.106	0.032
-463.113	-21.193	-0.300	0.184
-462.099	1.913	-0.219	0.158
-461.084	-102.907	-0.283	-0.067
-460.070	204.234	0.106	-0.164
-459.055	117.560	-0.086	-0.106
-458.040	800.000	-0.013	-0.048
-457.026	-5.398	-0.052	-0.036
-456.011	-48.265	0.141	0.068
-454.997	581.998	0.139	-0.342
-453.982	-200.000	-0.310	0.001
-452.968	9.323	-0.212	0.161
-451.953	-114.848	-0.014	0.003
-450.938	306.770	-0.087	-0.162
-449.924	-138.504	0.222	-0.024
-448.909	-72.437	-0.319	-0.118
-447.895	490.516	-0.080	-0.183
-446.880	-68.523	0.274	0.107
-445.865	98.809	-0.089	-0.103
-444.851	800.000	0.055	0.158
-443.836	178.151	0.167	-0.244
-442.822	375.387	-0.154	0.314
-441.807	-31.604	-0.291	-0.164
-440.792	250.258	-0.154	0.263
-439.778	270.061	0.079	-0.139
-438.763	-158.885	-0.068	-0.004
-437.749	274.402	0.117	0.208
-436.734	-142.670	0.070	0.007
-435.719	29.656	0.069	0.059
-434.705	427.529	-0.108	0.234
-433.690	-59.056	0.051	-0.022
-432.676	89.769	-0.113	-0.127
-431.661	48.471	0.333	-0.312
-430.646	-185.945	-0.129	0.002
-429.632	-162.488	0.199	0.010
-428.617	-200.000	0.008	0.185
-427.603	-19.492	-0.186	0.116
-426.588	-92.766	0.325	0.091
-425.573	8.658	-0.160	0.121
-424.559	119.322	0.204	-0.253
-423.544	338.114	-0.149	-0.291
-422.530	-200.000	-0.028	0.144
-421.515	-101.621	0.181	-0.044
-420.500	-151.253	-0.077	0.006
-419.486	791.975	0.047	-0.130
-418.471	54.716	0.198	-0.191
-417.457	-9.497	0.033	-0.022
-416.442	-200.000	0.012	-0.070
-415.428	-57.733	0.118	0.052
-414.413	-200.000	-0.060	0.277
-413.398	-126.007	-0.188	-0.028
-412.384	-15.546	-0.175	-0.112
-411.369	-95.112	-0.160	-0.043
-410.355	-160.273	0.198	-0.011
-409.340	-122.042	-0.143	0.024
-408.325	-150.305	0.347	-0.027
-407.311	472.920	0.067	-0.151
-406.296	68.011	0.059	0.060
-405.282	130.316	-0.099	0.127
-404.267	-83.773	0.220	0.070
-403.252	19.971	0.256	0.206
-402.238	-87.514	0.117	-0.036
-401.223	800.000	-0.033	0.115
-400.209	-200.000	-0.059	0.433
-399.194	-200.000	0.052	0.363
-398.179	-5.837	0.053	-0.037
-397.165	-200.000	0.008	-0.210
-396.150	-99.943	-0.093	0.023
-395.136	-200.000	0.002	-0.129
-394.121	-25.196	0.112	-0.066
-393.106	-58.773	-0.339	0.147
-392.092	-200.000	0.013	0.227
-391.077	-118.627	0.045	-0.008
-390.063	293.413	0.060	0.110
-389.048	-49.631	0.242	0.115
-388.033	-199.433	0.223	0.001
-387.019	540.856	0.070	0.167
-386.004	-200.000	0.009	-0.060
-384.990	461.190	0.190	-0.424
-383.975	-200.000	-0.037	-0.222
-382.960	54.338	-0.395	-0.380
-381.946	704.549	-0.059	-0.155
-380.931	-200.000	-0.051	0.237
-379.917	-200.000	-0.100	0.525
-378.902	-31.664	-0.156	-0.088
-377.888	-200.000	-0.002	-0.152
-376.873	67.241	-0.208	-0.212
-375.858	89.275	-0.077	0.086
-374.844	83.430	-0.226	-0.246
-373.829	100.215	0.133	-0.154
-372.815	105.876	0.167	-0.197
-371.800	125.691	-0.193	0.243
-370.785	626.817	-0.154	0.388
-369.771	-68.520	0.385	-0.149
-368.756	62.456	-0.057	0.057
-367.742	800.000	-0.053	-0.155
-366.727	-69.433	0.078	0.030
-365.712	137.059	0.084	0.109
-364.698	340.920	-0.104	-0.203
-363.683	-68.621	-0.173	-0.067
-362.669	332.252	-0.131	0.253
-361.654	-101.443	0.243	-0.059
-360.639	-200.000	0.030	-0.146
-359.625	-96.629	0.125	0.033
-358.610	-139.204	-0.416	0.045
-357.596	-1.307	0.188	-0.133
-356.581	118.828	-0.133	0.164
-355.566	-155.290	0.112	0.007
-354.552	-114.629	0.059	0.011
-353.537	131.686	0.128	0.165
-352.523	-200.000	-0.003	-0.175
-351.508	263.904	0.046	-0.080
-350.493	106.337	0.122	-0.144
-349.479	-200.000	0.010	0.083
-348.464	444.672	0.174	0.382
-347.450	-36.539	-0.310	-0.166
-346.435	45.096	0.039	0.036
-345.420	-1.360	-0.394	-0.277
-344.406	-22.647	0.259	-0.156
-343.391	-82.085	-0.127	-0.041
-342.377	-74.776	-0.186	0.067
-341.362	-40.745	-0.250	0.129
-340.348	-58.692	0.213	0.092
-339.333	-60.312	-0.359	0.152
-338.318	-124.152	0.341	0.053
-337.304	-200.000	0.002	-0.438
-336.289	42.997	0.117	0.106
-335.275	133.836	0.137	0.177
-334.260	46.613	0.152	0.141
-333.245	-200.000	0.032	-0.253
-332.231	800.000	0.111	0.411
-331.216	-200.000	0.022	-0.238
-330.202	9.321	-0.212	0.160
-329.187	800.000	0.098	0.367
-328.172	-106.647	0.401	0.089
-327.158	-200.000	-0.018	0.249
-326.143	800.000	0.095	0.298
-325.129	16.900	0.104	0.082
-324.114	325.905	-0.070	-0.133
-323.099	-61.572	-0.006	-0.003
-322.085	-125.025	0.181	0.028
-321.070	-200.000	-0.005	-0.245
-320.056	-19.142	-0.316	-0.196
-319.041	89.294	0.187	-0.208
-318.026	-200.000	-0.005	-0.185
-317.012	102.486	-0.115	0.133
-315.997	-39.597	0.067	-0.035
-314.983	-0.231	0.157	-0.111
-313.968	-200.000	-0.070	-0.346
-312.953	19.502	-0.104	0.083
-311.939	800.000	-0.093	0.315
-310.924	27.382	-0.231	0.193
-309.910	-108.394	0.345	0.074
-308.895	92.455	0.130	0.146
-307.880	-7.411	-0.467	0.315
-306.866	-145.731	-0.234	-0.021
-305.851	-102.929	0.318	-0.075
-304.837	-84.703	-0.341	-0.107
-303.822	-190.551	0.312	-0.003
-302.807	-70.828	0.312	-0.117
-301.793	19.780	0.081	-0.065
-300.778	-108.742	-0.102	0.022
-299.764	-85.317	-0.363	0.113
-298.749	-127.924	-0.303	-0.043
-297.735	49.920	0.157	0.147
-296.720	-200.000	0.011	0.176
-295.705	117.543	-0.147	-0.180
-294.691	429.571	0.089	-0.192
-293.676	-45.330	-0.316	-0.156
-292.662	-86.333	0.237	-0.072
-291.647	8.351	-0.084	0.063
-290.632	800.000	-0.095	0.388
-289.618	250.886	-0.090	0.152
-288.603	-121.505	0.127	0.021
-287.589	-104.595	-0.079	-0.018
-286.574	-189.156	0.211	0.003
-285.559	800.000	0.165	0.472
-284.545	-118.317	0.235	-0.042
-283.530	-200.000	-0.010	0.076
-282.516	-99.651	0.266	-0.066
-281.501	-166.220	0.242	-0.010
-280.486	-60.997	-0.152	0.064
-279.472	800.000	0.073	-0.230
-278.457	-163.690	-0.196	0.009
-277.443	-7.448	0.083	-0.056
-276.428	-115.107	-0.311	0.059
-275.413	-200.000	-0.010	0.167
-274.399	-12.124	-0.362	-0.236
-273.384	-73.338	0.183	0.067
-272.370	97.328	-0.153	-0.175
-271.355	66.360	0.167	-0.169
-270.340	-131.464	0.192	-0.025
-269.326	-1.419	0.184	0.129
-268.311	167.530	0.218	0.308
-267.297	5.910	0.268	0.197
-266.282	91.646	-0.214	0.239
-265.267	-200.000	-0.059	-0.282
-264.253	667.512	0.161	-0.413
-263.238	-61.491	0.194	-0.081
-262.224	-93.117	-0.395	0.109
-261.209	-200.000	0.036	0.248
-260.195	209.320	-0.092	-0.143
-259.180	0.611	-0.102	0.072
-258.165	-103.259	-0.317	0.074
-257.151	-46.839	0.112	0.055
-256.136	-24.604	0.171	-0.101
-255.122	-49.859	0.283	0.134
-254.107	2.368	0.255	-0.184
-253.092	331.470	-0.065	0.125
-252.078	-200.000	0.014	0.235
-251.063	-48.775	0.179	-0.085
-250.049	800.000	-0.037	0.157
-249.034	-64.734	0.264	0.106
-248.019	-143.296	-0.185	0.018
-247.005	-200.000	0.000	-0.114
-245.990	48.464	0.065	-0.061
-244.976	-61.440	-0.334	-0.139
-243.961	9.803	0.065	-0.049
-242.946	800.000	0.024	-0.100
-241.932	-170.375	0.184	-0.006
-240.917	-200.000	-0.022	0.207
-239.903	-168.488	0.133	-0.005
-238.888	141.187	-0.089	0.117
-237.873	513.007	0.062	-0.143
-236.859	52.146	0.411	-0.389
-235.844	426.030	-0.135	-0.288
-234.830	-48.879	0.179	-0.085
-233.815	-32.487	-0.186	0.103
-232.800	800.000	-0.067	0.275
-231.786	-84.483	-0.264	-0.083
-230.771	-200.000	0.031	0.155
-229.757	21.043	0.327	0.263
-228.742	800.000	0.030	0.095
-227.727	-200.000	0.047	0.393
-226.713	30.569	-0.063	-0.053
-225.698	800.000	-0.030	-0.105
-224.684	-75.346	0.447	-0.158
-223.669	-148.897	0.165	-0.013
-222.655	54.250	0.064	0.061
-221.640	-125.606	-0.212	-0.032
-220.625	-200.000	-0.014	-0.093
-219.611	-31.090	0.302	-0.169
-218.596	256.343	-0.076	0.129
-217.582	551.325	-0.135	0.323
-216.567	-39.517	-0.039	0.020
-215.552	29.645	-0.092	0.078
-214.538	-125.803	0.579	-0.087
-213.523	106.809	0.124	-0.146
-212.509	-200.000	0.057	0.386
-211.494	15.011	-0.192	0.149
-210.479	89.996	-0.128	0.142
-209.465	-102.144	0.143	-0.034
-208.450	-170.555	0.178	0.006
-207.436	0.545	-0.190	0.135
-206.421	89.251	-0.195	0.216
-205.406	69.658	-0.223	0.228
-204.392	-200.000	0.029	0.215
-203.377	-200.000	-0.007	-0.247
-202.363	444.778	-0.067	-0.147
-201.348	181.997	-0.104	0.152
-200.333	800.000	0.060	-0.235
-199.319	-200.000	0.000	-0.083
-198.304	-12.241	-0.203	-0.132
-197.290	53.545	0.069	-0.066
-196.275	-200.000	0.002	0.180
-195.260	236.696	0.074	0.121
-194.246	-65.795	-0.320	0.127
-193.231	104.586	-0.090	0.106
-192.217	-200.000	-0.044	0.265
-191.202	-75.041	-0.325	-0.115
-190.187	28.229	0.156	0.131
-189.173	-200.000	-0.021	-0.091
-188.158	-13.143	0.235	0.151
-187.144	-68.368	0.165	0.064
-186.129	8.925	-0.373	-0.279
-185.114	-200.000	0.020	0.128
-184.100	-200.000	0.008	0.054
-183.085	198.622	-0.179	0.272
-182.071	71.098	0.171	0.176
-181.056	712.769	-0.033	0.087
-180.042	-200.000	-0.009	-0.107
-179.027	800.000	-0.004	-0.015
-178.012	225.446	-0.161	-0.259
-176.998	269.789	-0.163	-0.284
-175.983	800.000	0.098	0.317
-174.969	-0.115	0.179	-0.126
-173.954	-200.000	0.013	-0.248
-172.939	-200.000	-0.001	-0.282
-171.925	-200.000	-0.017	-0.264
-170.910	-200.000	-0.065	0.401
-169.896	-200.000	-0.003	0.079
-168.881	165.007	0.057	0.080
-167.866	-121.086	-0.219	-0.036
-166.852	-134.369	0.567	-0.069
-165.837	800.000	-0.128	-0.403
-164.823	-4.924	0.282	-0.192
-163.808	469.041	0.116	0.258
-162.793	-200.000	-0.034	-0.204
-161.779	-100.524	-0.197	0.048
-160.764	800.000	0.121	0.339
-159.750	-171.090	-0.237	-0.008
-158.735	39.262	0.239	-0.211
-157.720	-171.851	-0.162	0.005
-156.706	-161.895	-0.299	-0.015
-155.691	-122.666	0.215	0.035
-154.677	-200.000	-0.007	0.185
-153.662	-167.206	0.209	0.008
-152.647	-124.655	0.172	-0.026
-151.633	-46.457	-0.124	-0.060
-150.618	495.538	-0.154	0.350
-149.604	-121.439	-0.332	-0.055
-148.589	-14.133	-0.343	-0.219
-147.574	-151.222	0.174	-0.013
-146.560	434.367	-0.219	0.472
-145.545	262.910	-0.073	-0.125
-144.531	-55.706	-0.246	0.109
-143.516	129.464	-0.101	-0.127
-142.502	-105.986	0.242	-0.054
-141.487	-28.020	0.165	-0.094
-140.472	170.273	0.059	-0.084
-139.458	80.782	-0.095	0.101
-138.443	-33.665	0.126	0.069
-137.429	-131.566	0.280	-0.036
-136.414	-22.202	0.256	-0.154
-135.399	242.113	-0.163	-0.269
-134.385	38.834	0.257	-0.227
-133.370	-40.706	0.287	0.147
-132.356	107.056	0.158	0.185
-131.341	217.011	0.076	0.120
-130.326	-200.000	-0.006	-0.207
-129.312	800.000	0.056	0.207
-128.297	-50.117	-0.163	-0.076
-127.283	182.689	-0.159	-0.232
-126.268	-76.063	0.300	0.105
-125.253	-33.995	0.110	-0.060
-124.239	60.566	-0.340	0.333
-123.224	-200.000	0.009	-0.136
-122.210	-112.264	-0.029	-0.006
-121.195	292.841	-0.085	-0.154
-120.180	1.080	0.384	-0.272
-119.166	-200.000	-0.015	-0.447
-118.151	-81.921	-0.335	0.108
-117.137	-138.193	0.286	0.031
-116.122	-28.311	0.207	-0.118
-115.107	-97.281	0.180	0.047
-114.093	-200.000	-0.022	-0.415
-113.078	-200.000	-0.030	0.214
-112.064	-200.000	0.032	0.156
-111.049	-110.266	0.220	0.045
-110.034	800.000	-0.039	0.139
-109.020	337.264	-0.049	-0.095
-108.005	-200.000	0.024	0.238
-106.991	-200.000	0.041	-0.183
-105.976	179.767	0.146	0.211
-104.962	-200.000	-0.018	0.232
-103.947	-91.470	-0.283	0.080
-102.932	19.495	-0.058	-0.046
-101.918	-151.093	0.098	-0.007
-100.903	-200.000	-0.003	0.023
-99.889	-26.673	0.123	-0.071
-98.874	38.250	0.357	0.314
-97.859	221.686	-0.061	-0.097
-96.845	-200.000	0.033	0.152
-95.830	71.023	0.107	0.110
-94.816	0.297	-0.234	0.165
-93.801	-123.534	0.099	-0.016
-92.786	344.009	-0.062	-0.120
-91.772	46.492	0.200	0.184
-90.757	80.416	-0.099	-0.105
-89.743	-81.390	0.208	-0.068
-88.728	800.000	-0.055	0.178
-87.713	-84.591	0.118	-0.037
-86.699	189.642	0.225	-0.334
-85.684	-13.210	-0.440	-0.282
-84.670	-143.433	0.370	0.035
-83.655	-43.939	-0.152	-0.076
-82.640	-30.521	0.227	0.127
-81.626	-69.738	-0.095	0.036
-80.611	349.234	0.134	0.261
-79.597	-137.757	-0.127	0.014
-78.582	-200.000	-0.018	-0.121
-77.567	-122.012	-0.203	0.033
-76.553	748.034	0.005	0.012
-75.538	452.020	0.080	0.175
-74.524	517.312	-0.118	0.273
-73.509	138.034	-0.156	-0.201
-72.494	-15.214	-0.101	0.064
-71.480	-81.959	0.215	-0.069
-70.465	381.190	0.014	-0.028
-69.451	-109.169	-0.216	0.045
-68.436	203.434	-0.123	-0.187
-67.422	800.000	-0.096	-0.263
-66.407	-92.119	-0.040	0.011
-65.392	-151.562	0.356	0.026
-64.378	800.000	-0.029	0.085
-63.363	90.644	-0.190	0.210
-62.349	131.838	0.222	0.282
-61.334	31.927	-0.812	-0.690
-60.319	135.943	0.158	0.203
-59.305	-200.000	-0.144	-1.019
-58.290	155.945	0.721	0.980
-57.276	-200.000	0.306	1.441
-56.261	-200.000	94.599	562.105
-55.246	643.064	1383.725	3479.567
-54.232	186.752	2611.163	3836.322
-53.217	117.240	2320.322	2813.040
-52.203	45.202	1931.928	1756.662
-51.188	38.694	1717.046	1511.242
-50.173	35.773	1672.014	1449.570
-49.159	52.280	1720.167	1617.853
-48.144	55.747	1737.353	1660.421
-47.130	38.320	1694.103	1487.962
-46.115	35.380	1678.610	1452.088
-45.100	35.173	1674.345	1446.776
-44.086	35.214	1671.320	1444.412
-43.071	35.153	1669.238	1442.102
-42.057	35.146	1666.687	1439.783
-41.042	35.137	1664.771	1438.008
-40.027	35.118	1663.009	1436.280
-39.013	35.162	1660.779	1434.628
-37.998	35.204	1658.778	1433.161
-36.984	35.148	1658.065	1432.064
-35.969	35.269	1656.502	1431.561
-34.954	35.269	1654.869	1430.099
-33.940	35.212	1653.035	1428.027
-32.925	35.311	1651.057	1426.998
-31.911	35.247	1649.519	1425.139
-30.896	35.218	1647.881	1423.450
-29.881	35.282	1646.321	1422.525
-28.867	35.207	1644.774	1420.574
-27.852	35.389	1642.591	1419.978
-26.838	35.251	1641.403	1417.874
-25.823	35.287	1640.134	1416.990
-24.809	35.364	1638.918	1416.453
-23.794	35.255	1637.437	1414.311
-22.779	35.343	1635.827	1413.515
-21.765	35.270	1634.046	1411.382
-20.750	35.216	1632.748	1409.803
-19.736	35.273	1630.657	1408.360
-18.721	35.363	1629.096	1407.616
-17.706	35.326	1627.462	1405.882
-16.692	35.265	1626.045	1404.149
-15.677	35.211	1624.807	1402.631
-14.663	35.352	1623.287	1402.298
-13.648	35.261	1622.428	1400.836
-12.633	35.276	1621.101	1399.744
-11.619	35.309	1618.842	1397.979
-10.604	35.315	1617.283	1396.616
-9.590	35.340	1615.819	1395.482
-8.575	35.200	1615.225	1393.892
-7.560	35.306	1613.493	1393.116
-6.546	35.297	1612.087	1391.778
-5.531	35.285	1611.423	1391.067
-4.517	35.281	1610.119	1389.856
-3.502	35.205	1609.363	1388.594
-2.487	35.404	1607.388	1388.277
-1.473	35.148	1596.154	1376.678
-0.458	32.058	1575.836	1337.136
0.556	30.246	1574.316	1297.870
1.571	27.174	1598.334	1295.698
2.586	25.962	1610.104	1296.415
3.600	22.697	1556.078	1230.069
4.615	13.852	1445.467	1084.975
5.629	6.088	1379.171	986.538
6.644	4.607	1370.065	970.695
7.659	4.530	1368.890	969.298
8.673	4.599	1367.949	968.975
9.688	4.714	1365.967	968.202
10.702	4.686	1363.451	966.159
11.717	8.302	1370.597	993.677
12.731	17.043	1386.241	1059.742
13.746	22.434	1394.736	1099.916
14.761	22.611	1394.590	1100.807
15.775	21.828	1391.895	1093.698
16.790	20.841	1389.235	1085.365
17.804	19.969	1387.146	1078.214
18.819	19.791	1385.322	1075.590
19.834	19.631	1384.094	1073.548
20.848	19.350	1383.854	1071.518
21.863	19.223	1382.183	1069.346
22.877	19.089	1381.411	1067.822
23.892	19.094	1380.080	1066.726
24.907	19.080	1379.283	1065.934
25.921	19.043	1378.663	1065.130
26.936	19.083	1377.747	1064.574
27.950	19.204	1376.231	1064.054
28.965	19.256	1375.384	1063.627
29.980	19.354	1374.838	1063.718
30.994	19.428	1373.350	1062.929
32.009	19.408	1372.777	1062.266
33.023	19.475	1371.317	1061.456
34.038	19.308	1369.903	1059.239
35.053	19.333	1368.316	1058.076
36.067	19.274	1367.492	1056.982
37.082	19.373	1366.234	1056.521
38.096	19.315	1365.944	1055.845
39.111	19.413	1364.702	1055.395
40.126	19.177	1363.616	1053.018
41.140	18.986	1363.000	1051.279
42.155	18.854	1362.094	1049.687
43.169	18.823	1362.125	1049.425
44.184	18.735	1362.075	1048.757
45.199	18.811	1361.244	1048.491
46.213	19.016	1360.583	1049.134
47.228	19.136	1359.620	1049.035
48.242	19.197	1359.067	1048.883
49.257	19.018	1358.020	1046.894
50.271	19.200	1356.315	1046.590
51.286	19.204	1354.936	1045.458
52.301	19.121	1353.110	1043.456
53.315	19.071	1352.437	1042.542
54.330	19.017	1351.063	1041.062
55.344	18.956	1349.828	1039.653
56.359	18.877	1349.128	1038.544
57.374	18.866	1348.342	1037.781
58.388	18.890	1347.486	1037.173
59.403	18.844	1346.639	1036.151
60.417	18.718	1346.641	1035.302
61.432	18.715	1344.674	1033.679
62.447	18.626	1344.442	1032.877
63.461	18.607	1343.172	1031.695
64.476	18.513	1342.108	1030.220
65.490	18.542	1340.706	1029.227
66.505	18.587	1339.264	1028.301
67.520	18.643	1337.912	1027.508
68.534	18.690	1336.916	1026.929
69.549	18.503	1336.393	1025.319
70.563	18.485	1335.125	1024.151
71.578	18.478	1333.753	1022.963
72.593	18.377	1332.961	1021.663
73.607	18.331	1332.402	1020.871
74.622	18.481	1331.045	1020.636
75.636	18.407	1330.879	1019.976
76.651	18.441	1329.901	1019.337
77.666	18.385	1330.298	1019.221
78.680	18.666	1329.063	1019.855
79.695	18.656	1328.784	1019.486
80.709	18.725	1328.077	1019.263
81.724	18.825	1326.966	1018.917
82.739	18.909	1326.371	1018.866
83.753	19.117	1325.687	1019.484
84.768	19.199	1324.915	1019.287
85.782	19.437	1324.032	1019.920
86.797	19.235	1322.729	1017.633
87.812	19.272	1321.566	1016.866
88.826	19.137	1320.423	1015.102
89.841	19.269	1319.104	1014.778
90.855	19.335	1317.866	1014.122
91.870	19.454	1317.289	1014.288
92.884	19.453	1316.575	1013.641
93.899	19.467	1315.952	1013.158
94.914	19.431	1315.100	1012.198
95.928	19.431	1314.541	1011.678
96.943	19.477	1313.321	1010.919
97.957	19.314	1312.603	1009.326
98.972	19.421	1311.154	1008.746
99.987	19.347	1310.840	1007.981
101.001	19.294	1309.751	1006.745
102.016	19.318	1308.697	1005.986
103.030	19.423	1307.606	1005.671
104.045	19.203	1307.268	1004.040
105.060	19.203	1305.353	1002.480
106.074	19.016	1303.436	999.836
107.089	18.766	1302.229	997.365
108.103	18.572	1301.213	995.377
109.118	18.651	1299.868	994.716
110.133	18.668	1298.517	993.694
111.147	18.784	1296.741	992.915
112.162	18.698	1295.991	991.756
113.176	18.800	1295.117	991.590
114.191	18.713	1294.574	990.587
115.206	18.752	1293.292	989.743
116.220	18.728	1291.704	988.298
117.235	18.776	1290.619	987.661
118.249	18.631	1290.003	986.267
119.264	18.654	1288.558	985.207
120.279	18.611	1287.072	983.737
121.293	18.621	1286.353	983.157
122.308	18.489	1285.546	981.695
123.322	18.452	1284.046	980.255
124.337	18.559	1283.252	980.170
125.352	18.458	1281.619	978.263
126.366	18.382	1281.128	977.365
127.381	18.550	1279.846	977.257
128.395	18.432	1279.070	975.909
129.410	18.542	1277.781	975.462
130.424	18.665	1277.192	975.630
131.439	18.652	1276.750	975.129
132.454	18.602	1276.155	974.303
133.468	18.885	1274.624	974.656
134.483	18.754	1274.402	973.658
135.497	18.880	1273.257	973.412
136.512	18.907	1271.500	972.135
137.527	18.866	1270.595	971.120
138.541	18.877	1269.183	970.020
139.556	18.960	1267.735	969.294
140.570	19.046	1267.261	969.331
141.585	19.187	1265.788	968.915
142.600	19.216	1264.702	968.158
143.614	19.255	1264.476	968.118
144.629	19.289	1263.051	967.132
145.643	19.308	1261.918	966.285
146.658	19.156	1260.793	964.487
147.673	19.070	1258.744	962.356
148.687	18.904	1257.783	960.606
149.702	18.842	1256.300	959.042
150.716	18.858	1254.786	957.895
151.731	18.860	1253.985	957.205
152.746	18.894	1252.572	956.232
153.760	19.005	1251.739	956.128
154.775	18.957	1250.758	955.029
155.789	19.117	1249.484	954.857
156.804	19.119	1248.926	954.361
157.819	19.159	1247.612	953.493
158.833	19.308	1246.745	953.568
159.848	19.396	1245.961	953.373
160.862	19.299	1245.021	952.034
161.877	19.149	1243.093	949.647
162.892	18.833	1242.328	947.235
163.906	18.901	1241.412	946.832
164.921	18.892	1240.718	946.167
165.935	18.983	1239.654	945.770
166.950	19.083	1238.885	945.653
167.964	19.154	1238.106	945.365
168.979	19.093	1237.791	944.702
169.994	19.091	1236.658	943.747
171.008	19.071	1236.133	943.153
172.023	19.164	1235.283	942.926
173.037	19.365	1234.673	943.477
174.052	19.193	1233.663	941.683
175.067	19.116	1232.424	940.234
176.081	18.909	1231.528	938.336
177.096	18.816	1230.705	937.118
178.110	18.987	1229.296	936.895
179.125	19.008	1228.061	935.988
180.140	18.992	1227.159	935.128
181.154	19.167	1226.138	935.218
182.169	19.289	1224.833	934.800
183.183	19.337	1223.733	934.142
184.198	19.446	1222.752	933.897
185.213	19.429	1221.629	932.868
186.227	19.396	1220.582	931.807
187.242	19.447	1219.707	931.331
188.256	19.563	1218.846	931.214
189.271	19.565	1217.840	930.378
190.286	19.426	1216.352	928.408
191.300	19.028	1215.553	925.575
192.315	18.874	1214.527	923.883
193.329	18.901	1214.044	923.580
194.344	18.996	1213.747	923.783
195.359	19.106	1213.150	923.836
196.373	19.244	1212.663	924.128
197.388	19.257	1212.793	924.215
198.402	19.526	1212.284	925.184
199.417	19.663	1211.303	925.090
200.432	19.712	1210.523	924.672
201.446	19.829	1210.171	924.949
202.461	19.900	1209.629	924.831
203.475	19.855	1208.298	923.490
204.490	19.692	1206.990	921.539
205.504	19.547	1205.668	919.678
206.519	19.438	1204.376	918.031
207.534	19.462	1203.299	917.257
208.548	19.513	1202.199	916.606
209.563	19.474	1201.623	915.882
210.577	19.482	1201.061	915.415
211.592	19.630	1200.328	915.556
212.607	19.785	1199.476	915.647
213.621	19.703	1198.923	914.711
214.636	19.716	1197.880	913.902
215.650	19.689	1196.965	912.979
216.665	19.746	1196.163	912.591
217.680	19.906	1194.979	912.449
218.694	19.947	1194.310	912.074
219.709	19.883	1193.542	911.071
220.723	19.948	1192.713	910.698
221.738	19.825	1192.269	909.633
222.753	19.814	1191.436	908.856
223.767	19.721	1190.786	907.795
224.782	19.934	1190.135	908.336
225.796	20.069	1190.057	908.905
226.811	20.099	1188.986	908.161
227.826	19.922	1187.742	906.203
228.840	19.811	1187.365	905.257
229.855	19.841	1186.347	904.554
230.869	19.844	1185.708	904.004
231.884	19.702	1184.448	902.223
232.899	19.669	1183.729	901.423
233.913	19.672	1182.846	900.687
234.928	19.617	1181.875	899.579
235.942	19.540	1181.616	898.904
236.957	19.534	1180.971	898.299
237.972	19.614	1179.701	897.672
238.986	19.610	1179.478	897.401
240.001	19.620	1178.525	896.648
241.015	19.592	1178.187	896.167
242.030	19.772	1177.161	896.242
243.045	19.878	1176.092	895.898
244.059	19.945	1175.553	895.753
245.074	19.861	1175.100	894.897
246.088	19.966	1174.421	894.842
247.103	20.043	1173.857	894.728
248.117	20.216	1172.937	894.841
249.132	20.261	1172.327	894.531
250.147	20.623	1171.847	895.950
251.161	20.672	1171.027	895.496
252.176	20.575	1171.210	895.055
253.190	20.695	1170.104	894.749
254.205	20.762	1169.578	894.613
255.220	20.808	1168.798	894.172
256.234	20.785	1167.848	893.252
257.249	20.861	1167.291	893.134
258.263	20.691	1167.002	891.959
259.278	20.663	1166.189	891.117
260.293	20.756	1165.382	890.901
261.307	20.907	1164.760	891.119
262.322	20.841	1164.137	890.223
263.336	20.900	1163.590	890.026
264.351	20.890	1162.959	889.417
265.366	21.064	1162.085	889.554
266.380	20.881	1162.117	888.570
267.395	20.883	1160.724	887.433
268.409	20.659	1159.830	885.531
269.424	20.674	1159.038	884.927
270.439	20.609	1158.734	884.284
271.453	20.608	1157.885	883.553
272.468	20.552	1156.687	882.278
273.482	20.519	1156.199	881.660
274.497	20.617	1155.651	881.659
275.512	20.475	1154.963	880.339
276.526	20.559	1154.011	879.962
277.541	20.551	1153.266	879.273
278.555	20.651	1152.766	879.322
279.570	20.807	1152.263	879.646
280.585	20.867	1151.828	879.538
281.599	20.851	1151.010	878.758
282.614	20.828	1149.109	877.114
283.628	20.795	1147.784	875.859
284.643	20.658	1147.050	874.531
285.657	20.708	1146.282	874.122
286.672	20.779	1145.188	873.564
287.687	20.728	1144.559	872.753
288.701	20.746	1143.866	872.235
289.716	20.769	1143.113	871.700
290.730	20.783	1142.310	871.078
291.745	20.778	1141.838	870.617
292.760	20.898	1140.860	870.396
293.774	20.819	1140.878	869.935
294.789	21.096	1140.271	870.781
295.803	21.110	1139.473	870.163
296.818	20.935	1138.494	868.466
297.833	20.823	1137.450	867.034
298.847	20.848	1136.780	866.573
299.862	20.824	1135.977	865.762
300.876	20.967	1135.285	865.869
301.891	21.003	1135.037	865.783
302.906	21.197	1134.218	866.046
303.920	21.216	1133.765	865.718
304.935	21.354	1133.234	865.919
305.949	21.426	1132.517	865.648
306.964	21.363	1131.870	864.769
307.979	21.223	1131.405	863.642
308.993	21.253	1130.249	862.831
310.008	21.283	1129.571	862.384
311.022	21.355	1128.699	861.997
312.037	21.429	1127.712	861.533
313.052	21.288	1126.974	860.197
314.066	21.053	1125.807	858.076
315.081	20.908	1124.655	856.409
316.095	20.897	1123.885	855.695
317.110	20.944	1123.570	855.607
318.125	20.925	1122.615	854.713
319.139	20.877	1122.238	854.115
320.154	21.078	1121.381	854.373
321.168	20.877	1120.986	853.012
322.183	20.860	1120.622	852.577
323.197	20.977	1119.727	852.391
324.212	21.260	1118.816	853.004
325.227	21.047	1118.361	851.540
326.241	21.074	1118.138	851.431
327.256	21.080	1116.643	850.243
328.270	21.028	1115.906	849.355
329.285	20.958	1115.111	848.335
330.300	20.982	1113.896	847.450
331.314	21.109	1112.951	847.274
332.329	21.017	1112.280	846.240
333.343	21.032	1111.878	845.934
334.358	21.215	1110.745	845.886
335.373	21.263	1110.120	845.565
336.387	21.413	1109.244	845.551
337.402	21.397	1108.621	844.921
338.416	21.408	1108.096	844.498
339.431	21.554	1107.545	844.709
340.446	21.735	1106.712	844.872
341.460	21.731	1106.760	844.814
342.475	21.719	1105.750	843.911
343.489	21.726	1104.891	843.216
344.504	21.917	1104.200	843.533
345.519	21.889	1103.124	842.503
346.533	21.969	1102.344	842.215
347.548	21.999	1101.660	841.762
348.562	22.005	1100.633	840.929
349.577	21.694	1100.105	838.962
350.592	21.675	1098.847	837.838
351.606	21.482	1098.380	836.487
352.621	21.404	1097.674	835.502
353.635	21.362	1096.542	834.365
354.650	21.471	1095.948	834.359
355.665	21.535	1095.477	834.234
356.679	21.468	1095.044	833.511
357.694	21.525	1094.665	833.421
358.708	21.689	1094.003	833.619
359.723	21.778	1092.991	833.200
360.738	21.733	1092.343	832.421
361.752	21.573	1092.305	831.554
362.767	21.613	1091.786	831.279
363.781	21.769	1090.677	831.100
364.796	21.944	1090.417	831.657
365.810	22.037	1089.788	831.541
366.825	22.141	1089.374	831.645
367.840	22.171	1089.107	831.509
368.854	22.181	1088.686	831.163
369.869	22.239	1087.713	830.621
370.883	22.110	1086.466	828.988
371.898	22.047	1085.468	827.852
372.913	22.073	1085.012	827.554
373.927	22.142	1084.614	827.506
374.942	22.232	1084.142	827.496
375.956	22.241	1083.623	827.065
376.971	22.108	1083.300	826.123
377.986	22.206	1082.713	826.063
379.000	22.397	1081.930	826.287
380.015	22.453	1081.578	826.208
381.029	22.474	1080.865	825.691
382.044	22.504	1080.234	825.275
383.059	22.437	1079.402	824.255
384.073	22.290	1078.837	823.062
385.088	22.432	1077.879	822.922
386.102	22.335	1076.750	821.533
387.117	22.133	1075.630	819.663
388.132	21.991	1074.862	818.343
389.146	22.111	1073.897	818.098
390.161	22.025	1072.793	816.783
391.175	22.167	1072.408	817.076
392.190	22.158	1071.874	816.557
393.205	22.337	1071.258	816.845
394.219	22.369	1070.349	816.231
395.234	22.337	1069.376	815.267
396.248	22.142	1068.491	813.619
397.263	22.134	1067.755	812.950
398.278	22.184	1066.717	812.318
399.292	21.985	1065.917	810.714
400.307	21.981	1065.140	810.037
401.321	21.858	1064.533	808.933
402.336	22.024	1064.017	809.236
403.350	21.989	1063.325	808.479
404.365	22.004	1062.645	807.957
405.380	22.101	1062.168	807.970
406.394	22.210	1061.091	807.579
407.409	22.368	1060.351	807.669
408.423	22.458	1060.105	807.823
409.438	22.552	1059.199	807.491
410.453	22.748	1058.487	807.776
411.467	22.627	1058.099	806.856
412.482	22.685	1057.630	806.691
413.496	22.864	1056.662	806.698
414.511	22.849	1056.173	806.188
415.526	22.960	1056.029	806.513
416.540	22.906	1055.648	805.904
417.555	23.030	1055.100	805.977
418.569	22.799	1054.559	804.440
419.584	22.788	1053.960	803.864
420.599	22.708	1053.395	802.994
421.613	154.178	1400.630	1788.570
422.628	141.558	1451.220	1788.672
