DTS Sentinel unit serial number:	SN413079Multiplexer serial number:	ORYXHardware model number:	OX4-SRSoftware version number:	ORYX F/W v4.00 Oryx Data Collector v3.7.2.0data status	okinstallation	princeton_trtdifferential loss correction	single-endedforward channel	channel 2reverse channel	N/Adate	2019/09/17time	09:31:35forward acquisition time	60.00reverse acquisition time	0.00gamma	496.2192k internal	0.2328k external	0.2328temperature offset calibration	0.9972default loss term (dB/km)	0.3790temperature slope calibration	1.0000multiplexer offset coefficient	1.0000multiplexer slope coefficient	1.0000fibre end	0.00T internal ref (°C)	29.02T ext. ref 1 (°C)	0.16T ext. ref 2 (°C)	25.48length (m)	temperature (°C)	Stokes	anti-Stokes-747.200	75.875	0.032	0.034
-746.185	105.261	-0.071	0.085
-745.171	7.798	-0.094	-0.071
-744.156	75.006	-0.051	-0.054
-743.142	-6.987	0.084	0.057
-742.127	-13.623	-0.172	0.112
-741.112	-200.000	0.044	0.232
-740.098	356.164	0.109	0.218
-739.083	270.600	0.105	0.185
-738.069	199.755	-0.050	0.077
-737.054	83.067	0.046	-0.050
-736.039	39.930	-0.095	0.086
-735.025	-128.417	0.355	-0.051
-734.010	0.562	0.150	-0.108
-732.996	-89.533	-0.358	0.106
-731.981	22.381	0.231	-0.190
-730.966	-109.538	0.149	-0.032
-729.952	88.467	-0.215	0.241
-728.937	-75.523	0.112	-0.040
-727.923	-1.207	-0.105	0.075
-726.908	796.443	0.175	0.486
-725.894	100.522	-0.144	0.169
-724.879	-113.383	-0.196	0.039
-723.864	-35.423	-0.363	-0.199
-722.850	-200.000	0.058	-0.277
-721.835	-9.382	0.068	0.046
-720.821	299.538	0.037	-0.068
-719.806	-48.685	-0.121	-0.058
-718.791	-152.617	-0.106	-0.008
-717.777	-200.000	-0.345	-0.001
-716.762	-158.510	0.129	-0.007
-715.748	146.005	0.103	0.139
-714.733	800.000	0.145	-0.453
-713.718	194.869	0.145	0.222
-712.704	-134.461	-0.310	-0.038
-711.689	159.902	0.152	-0.213
-710.675	90.296	0.082	0.092
-709.660	-112.791	-0.298	-0.060
-708.645	155.379	-0.129	-0.179
-707.631	-190.639	0.358	0.004
-706.616	-21.271	-0.300	-0.184
-705.602	-200.000	-0.037	-0.218
-704.587	-200.000	0.005	0.128
-703.572	90.653	0.188	0.212
-702.558	-20.802	-0.318	-0.196
-701.543	705.532	-0.062	-0.166
-700.529	-82.184	-0.201	-0.066
-699.514	800.000	0.069	0.218
-698.499	800.000	0.110	-0.345
-697.485	200.416	0.100	0.155
-696.470	98.245	0.084	0.098
-695.456	-63.075	0.356	-0.148
-694.441	78.733	0.110	-0.118
-693.426	-134.564	0.117	-0.014
-692.412	-138.514	0.178	-0.020
-691.397	51.987	0.281	0.269
-690.383	89.705	-0.111	-0.124
-689.368	800.000	-0.049	0.169
-688.354	800.000	0.084	-0.339
-687.339	26.127	0.102	0.085
-686.324	38.383	-0.148	0.132
-685.310	51.565	0.211	-0.202
-684.295	38.557	-0.107	0.096
-683.281	-70.755	0.112	0.042
-682.266	-200.000	0.038	-0.229
-681.251	108.035	-0.089	-0.106
-680.237	28.285	-0.217	-0.184
-679.222	-67.455	-0.216	-0.085
-678.208	320.353	-0.033	0.062
-677.193	408.861	-0.031	-0.066
-676.178	177.734	-0.228	0.333
-675.164	367.125	0.076	-0.155
-674.149	240.520	0.088	0.147
-673.135	-127.119	-0.196	-0.029
-672.120	23.197	0.182	0.151
-671.105	-123.326	-0.209	0.034
-670.091	-153.617	0.299	-0.021
-669.076	-200.000	0.047	-0.275
-668.062	446.827	0.175	-0.387
-667.047	108.305	-0.252	-0.302
-666.032	-114.952	-0.029	-0.006
-665.018	108.717	-0.071	-0.085
-664.003	197.974	-0.149	0.228
-662.989	-94.136	0.381	-0.105
-661.974	77.076	0.080	0.085
-660.959	-15.825	-0.038	0.024
-659.945	212.429	0.317	-0.502
-658.930	-8.253	0.147	-0.099
-657.916	15.676	-0.113	0.089
-656.901	-121.358	0.275	0.046
-655.886	290.616	0.061	0.112
-654.872	-200.000	-0.053	-0.326
-653.857	800.000	0.059	0.171
-652.843	-200.000	-0.010	0.295
-651.828	-8.571	0.149	0.100
-650.814	404.225	0.140	-0.296
-649.799	-61.238	-0.247	-0.104
-648.784	216.324	-0.090	-0.143
-647.770	36.187	-0.097	0.086
-646.755	800.000	-0.086	-0.254
-645.741	242.103	-0.066	0.111
-644.726	33.250	-0.011	-0.010
-643.711	-123.849	0.302	0.048
-642.697	289.520	0.071	-0.130
-641.682	44.138	-0.067	0.061
-640.668	525.778	-0.092	0.217
-639.653	-39.508	0.127	-0.067
-638.638	453.242	0.027	0.061
-637.624	-47.925	0.308	-0.150
-636.609	-45.927	0.183	-0.091
-635.595	385.584	-0.096	0.198
-634.580	-200.000	0.003	0.191
-633.565	-39.856	0.173	0.091
-632.551	223.975	-0.108	-0.175
-631.536	554.023	0.196	-0.473
-630.522	43.818	-0.280	0.257
-629.507	-63.976	0.214	-0.088
-628.492	-26.762	-0.492	-0.289
-627.478	-200.000	0.044	-0.247
-626.463	-27.744	0.035	-0.020
-625.449	-200.000	0.020	0.303
-624.434	-27.684	-0.070	0.041
-623.419	-200.000	0.032	0.214
-622.405	16.623	0.105	0.084
-621.390	-130.068	0.238	0.033
-620.376	-112.423	-0.215	-0.043
-619.361	166.947	0.046	-0.066
-618.346	800.000	-0.049	0.188
-617.332	-20.312	0.420	-0.259
-616.317	-200.000	0.072	-0.352
-615.303	81.962	-0.114	0.124
-614.288	-83.657	0.223	0.071
-613.273	-74.277	-0.456	-0.165
-612.259	182.180	-0.143	0.211
-611.244	168.406	-0.068	-0.097
-610.230	-200.000	0.041	-0.360
-609.215	-86.796	-0.100	0.031
-608.201	82.217	0.213	-0.232
-607.186	-10.037	0.105	0.070
-606.171	-66.377	0.101	-0.040
-605.157	-123.252	-0.129	0.021
-604.142	-200.000	0.009	-0.480
-603.128	636.093	-0.089	-0.228
-602.113	-200.000	-0.014	0.218
-601.098	115.131	0.297	0.363
-600.084	114.533	0.063	0.077
-599.069	-164.316	-0.273	-0.013
-598.055	-200.000	0.007	0.031
-597.040	54.258	0.155	-0.149
-596.025	238.936	0.087	-0.144
-595.011	-113.426	0.222	-0.044
-593.996	-106.895	-0.318	-0.071
-592.982	514.670	0.075	0.175
-591.967	-108.166	0.295	-0.064
-590.952	79.501	-0.162	0.174
-589.938	-200.000	-0.021	0.189
-588.923	-21.553	-0.275	-0.168
-587.909	-111.623	0.235	0.048
-586.894	-40.877	0.200	0.103
-585.879	-108.353	-0.332	-0.072
-584.865	-149.391	0.098	-0.008
-583.850	110.651	-0.239	0.287
-582.836	-200.000	0.034	0.212
-581.821	-200.000	0.008	-0.219
-580.806	800.000	0.043	0.118
-579.792	59.569	0.223	-0.220
-578.777	-153.589	0.158	0.011
-577.763	598.441	-0.095	0.237
-576.748	276.128	-0.122	-0.216
-575.733	800.000	-0.109	-0.366
-574.719	800.000	-0.092	0.294
-573.704	800.000	-0.045	-0.128
-572.690	-57.967	-0.420	-0.184
-571.675	415.619	0.041	0.087
-570.661	713.887	-0.069	-0.182
-569.646	-200.000	0.004	0.135
-568.631	53.460	-0.158	-0.152
-567.617	800.000	-0.037	-0.135
-566.602	244.275	0.101	-0.170
-565.588	673.903	-0.108	-0.281
-564.573	-23.826	-0.111	-0.067
-563.558	-200.000	0.011	0.134
-562.544	-102.523	0.139	-0.033
-561.529	-200.000	-0.009	-0.045
-560.515	137.921	-0.201	0.263
-559.500	99.642	-0.109	-0.127
-558.485	-200.000	-0.052	-0.250
-557.471	-76.030	-0.402	0.142
-556.456	800.000	0.018	0.062
-555.442	-200.000	0.048	0.268
-554.427	36.470	-0.210	-0.185
-553.412	319.245	-0.151	0.286
-552.398	-55.895	0.253	-0.113
-551.383	141.830	-0.161	-0.214
-550.369	35.296	0.153	-0.135
-549.354	68.656	0.194	-0.199
-548.339	185.578	0.219	0.325
-547.325	-27.089	0.120	0.070
-546.310	-11.174	-0.324	0.213
-545.296	45.077	0.230	0.212
-544.281	-200.000	-0.046	0.325
-543.266	40.420	-0.078	-0.071
-542.252	800.000	-0.174	0.653
-541.237	-114.594	0.285	0.055
-540.223	-200.000	-0.091	-0.554
-539.208	168.343	0.072	0.103
-538.193	-62.818	-0.520	-0.215
-537.179	702.755	0.059	-0.157
-536.164	-132.909	0.108	-0.014
-535.150	-48.401	0.037	-0.018
-534.135	800.000	-0.073	-0.238
-533.121	-58.314	0.184	-0.080
-532.106	-87.818	0.259	-0.078
-531.091	-43.431	-0.111	0.056
-530.077	-200.000	0.003	0.164
-529.062	232.620	-0.058	0.095
-528.048	-200.000	0.021	-0.372
-527.033	-16.428	-0.416	-0.264
-526.018	81.011	-0.200	0.216
-525.004	244.836	-0.153	-0.256
-523.989	-10.495	0.092	-0.061
-522.975	-74.888	-0.165	0.059
-521.960	800.000	0.015	-0.058
-520.945	-68.676	0.126	-0.049
-519.931	-200.000	-0.013	-0.250
-518.916	800.000	0.046	-0.177
-517.902	-116.409	-0.160	0.030
-516.887	189.170	-0.116	-0.173
-515.872	79.405	0.075	-0.080
-514.858	-0.691	-0.206	-0.146
-513.843	-31.379	0.377	0.212
-512.829	619.789	-0.084	-0.211
-511.814	-116.342	-0.213	0.039
-510.799	51.645	-0.137	0.130
-509.785	-101.470	-0.164	0.040
-508.770	800.000	0.111	0.380
-507.756	-90.880	-0.208	0.060
-506.741	-27.400	0.282	-0.164
-505.726	-31.547	-0.137	-0.077
-504.712	-200.000	-0.025	-0.202
-503.697	-200.000	-0.048	-0.289
-502.683	-47.792	0.205	-0.099
-501.668	-162.683	-0.196	0.010
-500.653	427.781	-0.115	-0.248
-499.639	-128.948	0.281	-0.039
-498.624	-138.272	-0.296	-0.033
-497.610	263.078	0.127	-0.221
-496.595	59.741	0.090	-0.088
-495.581	-129.040	-0.526	0.073
-494.566	-200.000	-0.006	0.290
-493.551	-58.645	-0.230	0.099
-492.537	-112.469	-0.113	-0.023
-491.522	40.468	0.082	0.073
-490.508	-200.000	-0.036	0.214
-489.493	-123.158	-0.301	0.048
-488.478	-108.766	0.310	0.066
-487.464	-93.229	-0.222	0.061
-486.449	-72.569	-0.393	-0.145
-485.435	-200.000	-0.090	-0.477
-484.420	-150.777	0.218	0.016
-483.405	-82.272	0.204	0.066
-482.391	86.914	-0.078	-0.086
-481.376	199.813	0.156	-0.239
-480.362	800.000	-0.043	0.149
-479.347	800.000	-0.061	0.212
-478.332	-95.739	-0.215	0.057
-477.318	176.749	0.077	-0.112
-476.303	800.000	0.068	0.217
-475.289	-40.776	-0.161	-0.083
-474.274	32.877	-0.155	0.134
-473.259	-10.796	-0.172	0.114
-472.245	-92.488	-0.228	-0.064
-471.230	800.000	-0.021	-0.075
-470.216	800.000	0.046	-0.148
-469.201	47.254	-0.236	-0.219
-468.186	90.526	0.137	-0.153
-467.172	-115.602	0.109	-0.020
-466.157	107.774	0.098	0.117
-465.143	-162.503	-0.366	-0.018
-464.128	-153.706	0.338	-0.023
-463.113	-200.000	0.003	-0.453
-462.099	340.519	0.185	-0.360
-461.084	-200.000	0.008	0.316
-460.070	4.446	-0.124	-0.091
-459.055	98.101	-0.024	0.027
-458.040	-40.515	0.254	-0.131
-457.026	800.000	-0.072	0.217
-456.011	-200.000	-0.008	0.173
-454.997	510.943	0.076	-0.176
-453.982	31.045	0.051	-0.044
-452.968	3.735	0.093	0.068
-451.953	149.823	-0.157	0.212
-450.938	-168.513	0.497	-0.019
-449.924	113.587	0.104	0.126
-448.909	67.680	-0.219	-0.223
-447.895	-200.000	0.001	-0.072
-446.880	-136.854	0.400	-0.046
-445.865	122.395	0.257	0.320
-444.851	800.000	0.039	-0.125
-443.836	-139.745	-0.222	0.023
-442.822	-164.823	-0.171	-0.008
-441.807	140.201	-0.095	0.125
-440.792	-152.446	0.156	-0.011
-439.778	45.024	0.083	0.076
-438.763	-200.000	0.008	0.160
-437.749	-200.000	0.008	-0.397
-436.734	-200.000	0.010	-0.072
-435.719	-83.791	0.131	-0.042
-434.705	-200.000	-0.021	0.317
-433.690	331.190	0.019	-0.037
-432.676	22.008	-0.332	-0.269
-431.661	52.710	-0.063	-0.060
-430.646	-200.000	-0.037	-0.228
-429.632	163.442	0.072	0.101
-428.617	546.408	0.095	-0.226
-427.603	-35.281	-0.167	-0.090
-426.588	-16.109	0.153	0.097
-425.573	246.157	-0.145	-0.244
-424.559	-150.693	0.344	0.026
-423.544	-97.159	0.334	-0.087
-422.530	776.312	-0.059	0.160
-421.515	-37.434	0.305	0.162
-420.500	-200.000	0.050	0.233
-419.486	236.503	0.064	-0.105
-418.471	800.000	-0.041	0.153
-417.457	-113.347	-0.075	-0.015
-416.442	-200.000	0.041	-0.356
-415.428	475.065	-0.073	0.165
-414.413	-89.746	0.227	-0.066
-413.398	800.000	0.091	-0.265
-412.384	293.395	0.160	-0.291
-411.369	-70.114	0.177	0.067
-410.355	326.056	0.122	-0.231
-409.340	131.820	0.113	0.145
-408.325	58.554	-0.050	-0.049
-407.311	38.994	-0.045	-0.040
-406.296	-128.610	-0.029	-0.004
-405.282	-200.000	-0.027	-0.124
-404.267	-92.889	0.551	-0.153
-403.252	-123.233	-0.215	-0.034
-402.238	800.000	0.046	0.196
-401.223	-170.319	0.111	0.004
-400.209	800.000	0.045	0.143
-399.194	262.379	0.050	0.086
-398.179	441.954	0.037	0.080
-397.165	784.527	-0.044	0.121
-396.150	-23.134	0.137	-0.082
-395.136	625.106	-0.058	-0.145
-394.121	-31.507	0.269	-0.150
-393.106	-29.459	-0.124	0.071
-392.092	-68.865	0.244	0.094
-391.077	174.621	0.137	0.198
-390.063	-200.000	-0.021	0.161
-389.048	267.050	-0.076	-0.132
-388.033	800.000	0.048	0.140
-387.019	-195.110	-0.197	0.001
-386.004	-111.682	-0.377	-0.076
-384.990	260.659	0.131	-0.226
-383.975	-63.886	0.178	-0.073
-382.960	-21.234	-0.214	-0.130
-381.946	148.312	0.061	0.082
-380.931	-21.045	0.120	-0.073
-379.917	32.495	0.222	0.191
-378.902	376.765	-0.039	-0.079
-377.888	800.000	0.049	-0.158
-376.873	-78.700	0.194	0.066
-375.858	800.000	0.062	0.245
-374.844	-200.000	0.022	0.816
-373.829	800.000	-0.028	0.085
-372.815	-82.877	0.121	0.039
-371.800	-154.950	-0.078	-0.005
-370.785	258.933	0.181	-0.309
-369.771	-85.270	0.057	-0.018
-368.756	-200.000	-0.029	0.180
-367.742	-63.413	0.237	-0.097
-366.727	-80.870	0.453	0.149
-365.712	800.000	0.090	0.301
-364.698	88.157	-0.150	0.165
-363.683	113.721	-0.119	-0.143
-362.669	-10.131	-0.185	0.122
-361.654	236.785	-0.173	0.285
-360.639	-143.299	0.250	-0.024
-359.625	-65.235	0.154	0.062
-358.610	-40.127	0.126	0.065
-357.596	-179.568	-0.208	-0.005
-356.581	-200.000	0.000	-0.212
-355.566	-42.929	-0.217	0.109
-354.552	62.024	0.321	-0.318
-353.537	107.290	-0.120	-0.141
-352.523	-65.628	0.175	0.070
-351.508	227.085	-0.174	0.280
-350.493	-200.000	0.058	0.268
-349.479	339.638	-0.140	0.271
-348.464	180.435	0.058	0.084
-347.450	-87.937	-0.133	0.040
-346.435	255.653	-0.153	-0.260
-345.420	-14.159	-0.226	-0.145
-344.406	-188.507	0.252	0.003
-343.391	-127.027	-0.315	0.046
-342.377	-200.000	-0.040	0.282
-341.362	-66.198	-0.055	-0.022
-340.348	221.402	-0.067	0.107
-339.333	-177.419	0.303	0.007
-338.318	-59.768	0.264	0.112
-337.304	-200.000	-0.047	0.315
-336.289	-73.785	-0.422	-0.152
-335.275	-108.322	0.287	0.061
-334.260	-33.765	-0.118	0.065
-333.245	-200.000	-0.022	-0.192
-332.231	-200.000	0.009	0.049
-331.216	-188.058	0.031	0.000
-330.202	-32.372	0.184	-0.102
-329.187	-26.723	0.141	0.082
-328.172	-26.995	0.227	-0.131
-327.158	-54.404	-0.228	-0.103
-326.143	-200.000	0.081	0.384
-325.129	-200.000	0.037	0.300
-324.114	-72.506	-0.058	0.021
-323.099	-56.983	-0.326	0.143
-322.085	54.816	0.249	0.238
-321.070	279.627	0.044	-0.077
-320.056	785.381	0.024	0.065
-319.041	63.801	0.078	-0.077
-318.026	-15.954	0.364	-0.230
-317.012	302.090	0.096	-0.175
-315.997	-147.702	0.254	-0.021
-314.983	-95.519	-0.251	0.067
-313.968	-133.720	0.410	0.051
-312.953	-94.290	-0.084	0.023
-311.939	-14.752	-0.037	-0.023
-310.924	-104.740	-0.178	0.041
-309.910	43.484	-0.190	0.172
-308.895	211.175	0.071	0.111
-307.880	-173.068	-0.127	0.004
-306.866	800.000	-0.016	-0.054
-305.851	-5.670	0.364	0.247
-304.837	800.000	0.074	0.205
-303.822	137.143	-0.127	0.165
-302.807	-91.197	-0.189	0.054
-301.793	267.410	-0.070	-0.121
-300.778	214.707	0.117	0.183
-299.764	51.189	0.069	0.065
-298.749	-146.133	0.275	-0.024
-297.735	-137.845	0.228	0.025
-296.720	-98.892	-0.346	0.087
-295.705	800.000	0.080	0.269
-294.691	-69.951	0.456	-0.172
-293.676	546.127	-0.117	-0.276
-292.662	113.914	-0.063	-0.075
-291.647	48.511	0.090	0.084
-290.632	-11.763	-0.265	-0.172
-289.618	-38.502	0.073	0.038
-288.603	-29.945	-0.024	0.014
-287.589	84.022	0.194	0.210
-286.574	222.492	-0.183	0.292
-285.559	-200.000	0.029	-0.420
-284.545	69.940	0.183	-0.187
-283.530	-150.263	-0.163	0.012
-282.516	-74.488	-0.241	0.086
-281.501	-200.000	0.008	-0.061
-280.486	-33.065	-0.158	0.087
-279.472	-20.328	0.187	0.114
-278.457	-200.000	-0.027	-0.200
-277.443	36.174	-0.184	0.160
-276.428	-92.733	0.182	0.050
-275.413	-200.000	0.003	0.085
-274.399	800.000	0.118	0.485
-273.384	800.000	0.055	-0.215
-272.370	128.612	-0.059	-0.075
-271.355	-62.035	0.133	-0.055
-270.340	30.361	0.149	0.126
-269.326	800.000	-0.043	-0.126
-268.311	800.000	0.044	0.149
-267.297	-57.970	-0.069	-0.030
-266.282	-166.824	0.290	0.012
-265.267	-200.000	-0.041	-0.246
-264.253	-200.000	-0.004	0.310
-263.238	293.394	-0.220	0.397
-262.224	239.379	-0.164	-0.270
-261.209	-200.000	-0.007	0.073
-260.195	-162.402	-0.195	-0.010
-259.180	-138.082	-0.501	-0.055
-258.165	-111.451	0.160	-0.032
-257.151	607.071	-0.063	-0.156
-256.136	-58.842	0.327	0.140
-255.122	-200.000	0.001	-0.477
-254.107	-14.256	0.127	-0.081
-253.092	162.238	0.174	-0.241
-252.078	-161.872	-0.123	0.006
-251.063	-93.351	0.081	-0.022
-250.049	212.321	-0.103	-0.160
-249.034	-153.221	-0.159	0.011
-248.019	566.907	0.062	0.149
-247.005	-200.000	0.018	0.165
-245.990	-47.324	-0.198	-0.095
-244.976	-61.839	-0.036	0.015
-243.961	-105.255	-0.203	-0.046
-242.946	-9.733	-0.400	0.263
-241.932	-200.000	0.067	0.316
-240.917	-57.970	-0.126	-0.054
-239.903	41.473	0.198	0.177
-238.888	-37.398	-0.374	-0.197
-237.873	-137.163	0.193	-0.022
-236.859	-149.887	-0.108	-0.008
-235.844	-173.132	-0.229	0.007
-234.830	36.958	-0.047	0.041
-233.815	800.000	-0.045	0.126
-232.800	324.122	-0.077	0.146
-231.786	-200.000	0.008	-0.143
-230.771	30.347	-0.056	-0.047
-229.757	-61.902	0.114	0.047
-228.742	-92.155	-0.152	-0.042
-227.727	241.410	0.106	0.175
-226.713	85.673	-0.175	-0.189
-225.698	351.882	0.033	-0.065
-224.684	-112.338	-0.394	-0.078
-223.669	95.042	0.069	-0.078
-222.655	-126.145	0.354	-0.052
-221.640	-200.000	0.013	-0.281
-220.625	-78.565	0.123	-0.042
-219.611	-157.593	0.067	0.004
-218.596	-200.000	-0.018	-0.255
-217.582	-159.621	0.322	0.018
-216.567	-200.000	-0.014	-0.071
-215.552	-147.524	-0.051	-0.004
-214.538	-48.196	-0.325	0.155
-213.523	-39.276	0.163	0.084
-212.509	-200.000	0.032	0.217
-211.494	125.302	0.179	0.222
-210.479	8.162	-0.173	-0.128
-209.465	367.645	-0.136	-0.270
-208.450	387.613	0.047	0.095
-207.436	529.219	-0.043	0.100
-206.421	207.341	0.096	-0.147
-205.406	9.435	0.106	-0.079
-204.392	18.300	0.050	0.039
-203.377	-39.705	0.229	-0.118
-202.363	-200.000	-0.013	-0.185
-201.348	-200.000	0.001	-0.084
-200.333	-59.248	-0.282	-0.120
-199.319	-59.375	-0.176	0.075
-198.304	-69.560	-0.186	-0.070
-197.290	-105.520	-0.271	0.061
-196.275	-152.228	0.173	-0.012
-195.260	-52.959	-0.207	0.094
-194.246	-200.000	-0.001	0.049
-193.231	90.069	0.189	-0.208
-192.217	198.104	0.075	0.112
-191.202	-60.739	-0.104	-0.043
-190.187	800.000	-0.025	-0.087
-189.173	-35.686	0.129	-0.069
-188.158	-126.814	-0.132	0.019
-187.144	266.514	-0.043	0.074
-186.129	568.313	-0.134	0.322
-185.114	-133.157	-0.116	-0.014
-184.100	-17.896	-0.187	-0.116
-183.085	216.333	-0.219	-0.343
-182.071	72.635	0.267	0.274
-181.056	36.324	-0.226	0.197
-180.042	800.000	-0.025	0.102
-179.027	-114.723	-0.217	0.041
-178.012	-200.000	0.055	0.323
-176.998	-13.236	0.237	-0.152
-175.983	58.197	0.109	0.105
-174.969	-200.000	0.016	-0.191
-173.954	-25.512	-0.209	0.122
-172.939	45.538	0.234	0.213
-171.925	733.605	-0.039	0.103
-170.910	800.000	-0.064	-0.264
-169.896	800.000	-0.065	0.189
-168.881	12.321	-0.122	0.093
-167.866	700.316	0.014	0.037
-166.852	-44.105	0.494	0.244
-165.837	175.023	-0.075	0.107
-164.823	9.542	-0.164	-0.122
-163.808	223.718	-0.033	-0.052
-162.793	257.996	0.101	0.172
-161.779	-40.713	0.372	0.190
-160.764	714.580	-0.044	0.116
-159.750	-200.000	0.073	0.466
-158.735	269.339	0.160	-0.276
-157.720	-136.846	0.117	0.013
-156.706	-20.150	0.092	0.056
-155.691	800.000	0.017	0.054
-154.677	-200.000	0.013	-0.209
-153.662	-22.065	-0.046	-0.028
-152.647	-30.494	-0.295	0.165
-151.633	-115.079	0.251	-0.047
-150.618	-39.028	0.032	0.016
-149.604	182.128	-0.141	0.204
-148.589	-11.448	0.136	0.088
-147.574	-200.000	-0.008	0.040
-146.560	47.655	0.299	-0.274
-145.545	-88.782	0.179	-0.052
-144.531	-200.000	0.011	-0.277
-143.516	-63.371	0.238	-0.096
-142.502	-61.874	-0.212	-0.087
-141.487	628.793	0.088	-0.218
-140.472	-92.209	0.198	0.055
-139.458	402.435	-0.157	0.325
-138.443	-97.255	-0.135	0.035
-137.429	46.981	-0.035	0.032
-136.414	-200.000	-0.029	0.185
-135.399	800.000	-0.021	-0.074
-134.385	-150.607	0.284	0.021
-133.370	102.531	-0.119	0.136
-132.356	44.847	0.187	0.169
-131.341	-37.088	0.358	-0.189
-130.326	11.574	0.226	-0.170
-129.312	-92.737	0.317	0.087
-128.297	46.610	-0.183	-0.167
-127.283	40.420	0.065	-0.058
-126.268	800.000	0.038	-0.127
-125.253	-0.101	-0.156	0.109
-124.239	-200.000	0.007	-0.089
-123.224	659.265	-0.073	0.184
-122.210	-200.000	-0.015	-0.179
-121.195	-200.000	-0.031	0.327
-120.180	-47.958	0.282	0.134
-119.166	-200.000	0.053	-0.285
-118.151	-70.520	0.099	-0.037
-117.137	441.005	0.112	-0.241
-116.122	-102.997	-0.059	0.014
-115.107	-69.090	-0.301	-0.114
-114.093	427.432	0.065	0.139
-113.078	-131.797	-0.247	0.032
-112.064	-200.000	0.024	0.202
-111.049	472.640	-0.024	0.053
-110.034	-149.236	-0.338	0.027
-109.020	110.389	0.025	-0.030
-108.005	-200.000	0.030	0.179
-106.991	-125.739	0.205	0.030
-105.976	264.313	0.107	0.184
-104.962	-200.000	-0.027	-0.120
-103.947	-200.000	0.004	-0.135
-102.932	341.198	-0.158	0.304
-101.918	800.000	0.087	-0.282
-100.903	-34.346	-0.082	-0.044
-99.889	800.000	-0.156	0.426
-98.874	90.213	0.207	-0.228
-97.859	-40.316	-0.261	-0.133
-96.845	154.460	-0.224	-0.303
-95.830	99.264	-0.226	-0.256
-94.816	0.192	0.378	0.264
-93.801	145.510	0.207	-0.272
-92.786	-200.000	0.004	-0.073
-91.772	-63.856	0.264	0.106
-90.757	-64.818	0.220	0.088
-89.743	-200.000	-0.003	-0.276
-88.728	-52.236	0.309	0.141
-87.713	-159.987	0.298	0.016
-86.699	-120.001	-0.234	0.040
-85.684	-66.449	0.239	0.093
-84.670	102.490	-0.212	-0.243
-83.655	-74.904	-0.044	-0.015
-82.640	-200.000	-0.045	0.357
-81.626	-100.705	0.198	-0.048
-80.611	800.000	-0.068	-0.212
-79.597	345.287	0.090	0.174
-78.582	140.108	0.183	-0.237
-77.567	358.317	0.166	0.326
-76.553	363.861	-0.183	0.361
-75.538	-103.549	-0.331	-0.076
-74.524	-39.405	0.115	-0.059
-73.509	-46.719	-0.136	-0.066
-72.494	-10.196	-0.120	-0.078
-71.480	673.181	-0.114	0.290
-70.465	35.197	0.099	-0.085
-69.451	3.965	0.029	-0.021
-68.436	-63.951	0.150	0.060
-67.422	24.516	0.264	-0.214
-66.407	371.990	-0.088	0.174
-65.392	-66.011	-0.572	0.224
-64.378	316.566	0.141	0.261
-63.363	133.389	0.144	-0.183
-62.349	138.893	-0.160	-0.207
-61.334	137.082	-0.910	-1.167
-60.319	-6.089	0.394	0.264
-59.305	465.991	-0.547	-1.200
-58.290	126.199	0.861	1.068
-57.276	800.000	0.534	1.598
-56.261	-200.000	107.596	585.850
-55.246	440.045	1486.526	3185.630
-54.232	144.880	2683.908	3518.979
-53.217	98.090	2300.980	2597.580
-52.203	37.918	1909.186	1664.168
-51.188	32.196	1696.201	1434.913
-50.173	29.577	1653.385	1379.111
-49.159	48.220	1706.689	1565.520
-48.144	48.460	1721.530	1580.892
-47.130	31.779	1679.734	1417.604
-46.115	29.129	1665.190	1385.367
-45.100	28.861	1660.481	1379.388
-44.086	28.833	1657.642	1376.765
-43.071	28.848	1655.133	1374.738
-42.057	28.795	1652.231	1371.878
-41.042	28.954	1650.117	1371.254
-40.027	28.795	1648.723	1368.850
-39.013	28.870	1646.488	1367.503
-37.998	28.759	1645.071	1365.445
-36.984	28.805	1643.801	1364.680
-35.969	29.063	1641.848	1364.917
-34.954	29.002	1640.672	1363.431
-33.940	28.994	1638.900	1361.851
-32.925	29.044	1636.721	1360.352
-31.911	28.990	1635.685	1359.036
-30.896	29.016	1633.847	1357.649
-29.881	28.982	1632.412	1356.153
-28.867	29.046	1630.591	1355.054
-27.852	28.985	1629.290	1353.469
-26.838	28.976	1627.557	1351.914
-25.823	29.087	1626.041	1351.417
-24.809	29.065	1625.068	1350.389
-23.794	29.016	1623.857	1348.969
-22.779	29.070	1621.488	1347.346
-21.765	29.124	1620.059	1346.499
-20.750	29.022	1618.717	1344.587
-19.736	29.074	1617.307	1343.741
-18.721	29.077	1616.066	1342.680
-17.706	29.072	1614.280	1341.107
-16.692	29.033	1612.752	1339.502
-15.677	29.062	1611.477	1338.599
-14.663	29.075	1610.010	1337.422
-13.648	29.039	1608.400	1335.770
-12.633	29.061	1607.180	1334.863
-11.619	29.029	1605.995	1333.595
-10.604	29.017	1604.382	1332.113
-9.590	29.133	1602.913	1331.677
-8.575	29.067	1602.226	1330.575
-7.560	29.022	1600.745	1328.971
-6.546	29.045	1599.443	1328.002
-5.531	29.057	1598.461	1327.218
-4.517	28.893	1597.158	1324.903
-3.502	29.005	1595.876	1324.593
-2.487	29.082	1594.533	1323.980
-1.473	28.941	1582.800	1313.183
-0.458	26.484	1564.305	1280.424
0.556	21.357	1565.859	1250.614
1.571	19.354	1591.346	1256.284
2.586	19.178	1604.801	1265.498
3.600	17.514	1551.976	1211.899
4.615	9.692	1440.450	1072.843
5.629	1.806	1376.033	974.486
6.644	0.315	1367.609	958.954
7.659	0.132	1366.579	956.985
8.673	0.063	1365.556	955.747
9.688	0.130	1363.229	954.454
10.702	-0.207	1360.632	950.422
11.717	3.608	1365.884	978.214
12.731	12.021	1379.228	1041.335
13.746	17.140	1385.631	1078.669
14.761	17.261	1384.844	1078.731
15.775	16.237	1382.335	1070.193
16.790	15.226	1379.716	1061.668
17.804	14.427	1377.865	1055.094
18.819	14.095	1375.893	1051.394
19.834	13.767	1375.115	1048.634
20.848	13.546	1373.950	1046.251
21.863	13.345	1372.656	1043.907
22.877	13.186	1370.944	1041.512
23.892	13.016	1370.005	1039.632
24.907	13.073	1369.793	1039.740
25.921	13.139	1368.905	1039.392
26.936	13.135	1367.839	1038.462
27.950	13.196	1366.688	1037.884
28.965	13.232	1365.949	1037.454
29.980	13.341	1364.546	1036.983
30.994	13.365	1363.639	1036.347
32.009	13.387	1362.955	1035.874
33.023	13.383	1361.709	1034.809
34.038	13.319	1360.848	1033.663
35.053	13.244	1359.869	1032.365
36.067	13.253	1358.697	1031.435
37.082	13.278	1357.613	1030.679
38.096	13.388	1356.543	1030.458
39.111	13.326	1355.776	1029.400
40.126	13.296	1355.086	1028.603
41.140	13.091	1354.635	1026.891
42.155	13.145	1353.548	1026.314
43.169	13.205	1353.517	1026.573
44.184	13.162	1353.343	1026.083
45.199	13.161	1352.860	1025.619
46.213	13.191	1352.200	1025.213
47.228	13.271	1351.297	1024.933
48.242	13.283	1350.050	1023.972
49.257	13.174	1349.046	1022.447
50.271	13.148	1347.775	1021.232
51.286	13.217	1346.376	1020.507
52.301	13.216	1344.749	1019.173
53.315	13.220	1343.498	1018.162
54.330	13.205	1342.591	1017.293
55.344	13.258	1340.930	1016.268
56.359	13.182	1340.470	1015.366
57.374	13.108	1339.907	1014.391
58.388	13.200	1338.723	1013.974
59.403	13.159	1338.284	1013.296
60.417	13.077	1337.656	1012.233
61.432	13.079	1336.605	1011.360
62.447	13.004	1335.845	1010.236
63.461	13.042	1334.001	1008.985
64.476	12.890	1333.654	1007.702
65.490	12.997	1331.981	1007.004
66.505	13.025	1330.717	1006.125
67.520	13.197	1328.846	1005.672
68.534	13.162	1328.021	1004.743
69.549	13.130	1326.800	1003.536
70.563	13.227	1325.579	1003.112
71.578	13.029	1324.834	1001.258
72.593	12.936	1323.926	999.921
73.607	13.044	1323.127	999.886
74.622	13.049	1322.532	999.374
75.636	13.062	1321.705	998.743
76.651	13.063	1320.814	997.983
77.666	12.950	1320.426	996.921
78.680	13.061	1319.717	996.969
79.695	12.999	1319.021	995.978
80.709	13.025	1318.522	995.671
81.724	13.075	1317.600	995.187
82.739	13.203	1316.303	994.894
83.753	13.112	1315.495	993.645
84.768	13.269	1313.981	993.355
85.782	13.272	1313.037	992.573
86.797	13.276	1311.524	991.367
87.812	13.275	1310.574	990.553
88.826	13.231	1309.597	989.465
89.841	13.273	1308.216	988.588
90.855	13.277	1307.338	987.862
91.870	13.279	1306.432	987.101
92.884	13.374	1305.548	986.908
93.899	13.341	1305.001	986.213
94.914	13.367	1304.255	985.717
95.928	13.348	1303.330	984.819
96.943	13.353	1302.294	983.976
97.957	13.289	1301.640	983.016
98.972	13.308	1300.272	982.007
99.987	13.285	1299.554	981.242
101.001	13.341	1298.316	980.552
102.016	13.276	1297.293	979.309
103.030	13.315	1296.695	978.999
104.045	13.317	1295.708	978.178
105.060	13.378	1294.188	977.309
106.074	13.256	1292.963	975.575
107.089	13.211	1291.845	974.380
108.103	13.194	1290.385	973.092
109.118	13.070	1289.511	971.616
110.133	13.124	1288.153	970.828
111.147	13.212	1286.499	970.011
112.162	13.241	1285.153	969.078
113.176	13.243	1284.192	968.281
114.191	13.215	1283.855	967.780
115.206	13.245	1282.253	966.662
116.220	13.168	1281.266	965.380
117.235	13.132	1280.695	964.652
118.249	13.196	1279.443	963.998
119.264	13.171	1278.233	962.855
120.279	13.172	1277.206	962.007
121.293	13.217	1275.713	961.059
122.308	13.144	1274.945	959.969
123.322	13.208	1273.954	959.507
124.337	13.205	1272.663	958.433
125.352	13.237	1271.366	957.560
126.366	13.121	1270.616	956.238
127.381	13.202	1269.207	955.558
128.395	13.162	1268.123	954.430
129.410	13.149	1267.564	953.848
130.424	13.214	1266.531	953.359
131.439	13.212	1265.572	952.541
132.454	13.207	1264.193	951.391
133.468	13.218	1263.710	951.006
134.483	13.245	1263.107	950.626
135.497	13.229	1262.117	949.705
136.512	13.228	1260.593	948.470
137.527	13.242	1259.308	947.497
138.541	13.298	1257.322	946.241
139.556	13.311	1256.111	945.318
140.570	13.301	1255.274	944.547
141.585	13.432	1253.953	944.221
142.600	13.259	1252.823	942.301
143.614	13.377	1252.050	942.302
144.629	13.406	1251.197	941.743
145.643	13.350	1249.784	940.278
146.658	13.444	1248.094	939.456
147.673	13.286	1247.353	937.923
148.687	13.309	1246.333	937.205
149.702	13.357	1244.500	936.015
150.716	13.283	1243.405	934.687
151.731	13.344	1242.233	934.067
152.746	13.296	1240.959	932.759
153.760	13.257	1240.350	931.994
154.775	13.405	1238.653	931.472
155.789	13.478	1237.820	931.174
156.804	13.499	1236.483	930.206
157.819	13.534	1235.738	929.759
158.833	13.500	1234.955	928.896
159.848	13.449	1234.021	927.826
160.862	13.485	1232.604	926.877
161.877	13.487	1231.631	926.077
162.892	13.426	1230.813	925.040
163.906	13.499	1229.557	924.422
164.921	13.465	1228.454	923.322
165.935	13.477	1227.743	922.771
166.950	13.450	1227.427	922.300
167.964	13.513	1226.782	922.089
168.979	13.573	1225.826	921.618
169.994	13.600	1225.063	921.114
171.008	13.516	1224.010	919.776
172.023	13.592	1223.193	919.500
173.037	13.761	1222.488	919.826
174.052	13.620	1221.933	918.546
175.067	13.689	1220.536	917.795
176.081	13.587	1219.703	916.523
177.096	13.607	1218.863	915.925
178.110	13.570	1217.478	914.598
179.125	13.559	1216.585	913.784
180.140	13.728	1215.171	913.570
181.154	13.618	1213.954	911.972
182.169	13.623	1213.036	911.230
183.183	13.721	1211.978	910.894
184.198	13.872	1209.970	910.130
185.213	13.872	1209.173	909.447
186.227	13.815	1208.278	908.386
187.242	13.876	1206.977	907.659
188.256	13.805	1206.637	906.934
189.271	13.866	1205.247	906.144
190.286	13.728	1204.275	904.579
191.300	13.714	1203.263	903.665
192.315	13.657	1202.462	902.672
193.329	13.550	1202.303	901.890
194.344	13.691	1201.343	901.859
195.359	13.757	1201.098	901.951
196.373	13.743	1200.447	901.305
197.388	13.936	1199.634	901.666
198.402	14.032	1198.720	901.421
199.417	13.987	1198.527	900.950
200.432	14.069	1197.390	900.461
201.446	14.030	1196.852	899.767
202.461	14.062	1195.919	899.157
203.475	14.179	1194.805	898.872
204.490	13.956	1193.710	896.763
205.504	13.996	1192.087	895.681
206.519	14.027	1190.810	894.809
207.534	13.988	1189.765	893.736
208.548	13.995	1189.383	893.405
209.563	13.982	1188.143	892.328
210.577	14.021	1187.448	891.937
211.592	14.050	1186.648	891.411
212.607	14.080	1185.990	890.999
213.621	14.139	1185.040	890.521
214.636	14.172	1183.897	889.762
215.650	14.209	1183.309	889.436
216.665	14.244	1182.195	888.709
217.680	14.263	1181.647	888.317
218.694	14.222	1180.609	887.243
219.709	14.222	1179.523	886.350
220.723	14.284	1178.853	886.096
221.738	14.111	1178.309	884.686
222.753	14.316	1177.336	884.967
223.767	14.208	1176.776	883.895
224.782	14.253	1176.111	883.558
225.796	14.384	1175.530	883.736
226.811	14.403	1174.771	883.189
227.826	14.402	1173.587	882.214
228.840	14.378	1172.942	881.526
229.855	14.359	1172.546	881.052
230.869	14.380	1171.520	880.313
231.884	14.320	1171.010	879.533
232.899	14.420	1169.962	879.199
233.913	14.367	1169.716	878.654
234.928	14.275	1168.692	877.322
235.942	14.179	1168.294	876.442
236.957	14.424	1167.281	876.894
237.972	14.324	1166.598	875.777
238.986	14.366	1165.619	875.184
240.001	14.360	1165.301	874.839
241.015	14.439	1164.125	874.291
242.030	14.464	1163.587	873.942
243.045	14.502	1162.680	873.378
244.059	14.537	1161.724	872.769
245.074	14.435	1161.619	872.076
246.088	14.443	1160.376	871.108
247.103	14.540	1159.264	870.702
248.117	14.625	1158.681	870.633
249.132	14.650	1157.727	869.971
250.147	14.723	1157.040	869.756
251.161	14.854	1156.276	869.784
252.176	14.767	1155.786	868.888
253.190	14.829	1155.018	868.554
254.205	14.958	1154.395	868.684
255.220	14.789	1154.347	867.689
256.234	14.886	1153.331	867.356
257.249	14.905	1152.865	867.026
258.263	14.862	1152.206	866.230
259.278	14.840	1151.260	865.328
260.293	14.955	1150.704	865.428
261.307	14.987	1150.350	865.250
262.322	14.981	1149.457	864.471
263.336	14.967	1149.115	864.064
264.351	14.941	1148.345	863.273
265.366	14.984	1147.431	862.736
266.380	15.057	1146.811	862.566
267.395	14.994	1146.250	861.744
268.409	14.959	1145.705	861.080
269.424	15.079	1145.278	861.301
270.439	14.946	1144.545	859.987
271.453	15.092	1143.518	859.892
272.468	14.999	1142.720	858.738
273.482	15.012	1141.831	858.057
274.497	14.984	1141.562	857.639
275.512	15.089	1140.501	857.300
276.526	15.211	1139.510	857.107
277.541	15.121	1138.926	856.133
278.555	15.087	1138.582	855.622
279.570	15.123	1137.547	854.952
280.585	15.250	1136.705	854.894
281.599	15.230	1135.937	854.135
282.614	15.229	1134.675	853.105
283.628	15.315	1133.607	852.666
284.643	15.262	1132.981	851.852
285.657	15.154	1132.186	850.626
286.672	15.266	1131.223	850.401
287.687	15.354	1129.916	849.788
288.701	15.354	1129.100	849.099
289.716	15.307	1128.935	848.658
290.730	15.362	1128.484	848.526
291.745	15.367	1127.633	847.836
292.760	15.361	1126.908	847.185
293.774	15.478	1126.168	847.144
294.789	15.438	1125.829	846.610
295.803	15.470	1125.041	846.105
296.818	15.397	1124.476	845.239
297.833	15.433	1123.497	844.608
298.847	15.498	1122.656	844.228
299.862	15.483	1121.987	843.575
300.876	15.403	1121.714	842.893
301.891	15.451	1120.709	842.305
302.906	15.565	1119.786	842.106
303.920	15.615	1119.449	842.029
304.935	15.632	1118.674	841.457
305.949	15.690	1118.088	841.235
306.964	15.668	1117.450	840.568
307.979	15.736	1116.251	839.932
308.993	15.782	1115.571	839.575
310.008	15.724	1115.159	838.900
311.022	15.690	1114.170	837.916
312.037	15.755	1113.524	837.678
313.052	15.680	1112.560	836.508
314.066	15.636	1111.491	835.409
315.081	15.541	1110.740	834.296
316.095	15.656	1109.957	834.206
317.110	15.746	1109.290	834.077
318.125	15.570	1108.763	832.737
319.139	15.611	1107.701	832.070
320.154	15.647	1107.223	831.815
321.168	15.712	1106.493	831.511
322.183	15.693	1105.830	830.848
323.197	15.664	1105.557	830.425
324.212	15.663	1104.979	829.911
325.227	15.796	1103.857	829.654
326.241	15.797	1103.276	829.150
327.256	15.719	1102.869	828.385
328.270	15.812	1101.372	827.642
329.285	15.849	1100.757	827.289
330.300	15.761	1100.168	826.340
331.314	15.715	1098.860	825.062
332.329	15.811	1097.936	824.766
333.343	15.788	1097.472	824.232
334.358	15.822	1096.487	823.584
335.373	15.897	1095.763	823.335
336.387	15.816	1095.348	822.553
337.402	16.010	1094.053	822.458
338.416	15.898	1093.757	821.614
339.431	15.956	1093.151	821.368
340.446	15.951	1092.546	820.816
341.460	16.090	1091.891	820.929
342.475	16.064	1090.927	820.006
343.489	16.139	1089.993	819.593
344.504	16.165	1088.779	818.736
345.519	16.099	1088.187	817.896
346.533	16.317	1087.319	818.231
347.548	16.134	1086.953	816.994
348.562	16.170	1086.167	816.506
349.577	16.206	1085.181	815.867
350.592	16.252	1084.446	815.463
351.606	16.186	1084.117	814.826
352.621	16.190	1083.014	813.946
353.635	16.153	1082.669	813.434
354.650	16.195	1082.049	813.098
355.665	16.103	1080.920	811.736
356.679	16.199	1080.347	811.696
357.694	16.304	1079.894	811.789
358.708	16.128	1079.483	810.563
359.723	16.335	1078.865	811.023
360.738	16.282	1078.026	810.066
361.752	16.356	1077.393	809.870
362.767	16.453	1076.496	809.589
363.781	16.341	1076.301	808.834
364.796	16.422	1075.825	808.796
365.810	16.504	1075.119	808.585
366.825	16.469	1074.801	808.104
367.840	16.548	1074.079	807.869
368.854	16.566	1073.291	807.290
369.869	16.513	1073.058	806.789
370.883	16.606	1072.149	806.478
371.898	16.626	1070.765	805.463
372.913	16.618	1070.729	805.327
373.927	16.621	1069.830	804.594
374.942	16.547	1069.319	803.785
375.956	16.598	1069.026	803.738
376.971	16.655	1068.422	803.480
377.986	16.757	1068.159	803.699
379.000	16.784	1067.157	803.002
380.015	16.703	1066.702	802.201
381.029	16.854	1066.022	802.335
382.044	16.797	1065.431	801.547
383.059	16.735	1064.674	800.615
384.073	16.782	1063.785	800.097
385.088	16.747	1062.780	799.108
386.102	16.939	1061.833	799.229
387.117	16.816	1060.763	797.775
388.132	16.795	1060.090	797.097
389.146	16.885	1059.238	796.811
390.161	16.779	1058.478	795.672
391.175	16.812	1057.846	795.277
392.190	16.977	1057.123	795.441
393.205	16.876	1056.929	794.751
394.219	16.930	1055.795	794.079
395.234	16.939	1054.848	793.341
396.248	16.807	1054.299	792.240
397.263	16.915	1052.911	791.631
398.278	16.852	1052.363	790.852
399.292	16.901	1051.528	790.384
400.307	16.937	1050.496	789.705
401.321	16.922	1049.969	789.173
402.336	16.760	1049.984	788.357
403.350	16.856	1048.746	787.805
404.365	16.966	1048.191	787.829
405.380	16.924	1047.458	787.013
406.394	17.048	1046.819	787.038
407.409	17.039	1046.216	786.476
408.423	17.102	1045.038	785.813
409.438	17.051	1044.845	785.361
410.453	17.190	1043.875	785.206
411.467	17.216	1042.862	784.494
412.482	17.216	1042.664	784.276
413.496	17.191	1042.284	783.805
414.511	17.250	1041.196	783.189
415.526	17.306	1040.649	782.966
416.540	17.357	1040.282	782.854
417.555	17.273	1040.154	782.305
418.569	17.233	1039.732	781.732
419.584	17.195	1038.963	780.913
420.599	17.398	1038.007	781.055
421.613	103.700	1322.363	1471.138
422.628	95.120	1363.775	1471.244
