DTS Sentinel unit serial number:	SN413079Multiplexer serial number:	ORYXHardware model number:	OX4-SRSoftware version number:	ORYX F/W v4.00 Oryx Data Collector v3.7.2.0data status	okinstallation	princeton_trtdifferential loss correction	single-endedforward channel	channel 2reverse channel	N/Adate	2019/09/14time	10:31:35forward acquisition time	60.00reverse acquisition time	0.00gamma	496.2192k internal	0.2316k external	0.2316temperature offset calibration	1.0143default loss term (dB/km)	0.3790temperature slope calibration	1.0000multiplexer offset coefficient	1.0000multiplexer slope coefficient	1.0000fibre end	0.00T internal ref (°C)	34.83T ext. ref 1 (°C)	4.20T ext. ref 2 (°C)	32.81length (m)	temperature (°C)	Stokes	anti-Stokes-747.200	-116.676	0.543	-0.101
-746.185	-166.631	0.340	-0.014
-745.171	-163.483	-0.195	0.009
-744.156	-200.000	0.020	0.401
-743.142	-89.375	0.140	0.042
-742.127	578.055	0.103	0.255
-741.112	-81.116	0.356	-0.119
-740.098	-74.319	-0.206	-0.075
-739.083	168.288	0.240	0.347
-738.069	800.000	-0.118	0.337
-737.054	800.000	-0.039	-0.146
-736.039	-88.877	-0.371	0.111
-735.025	-43.118	0.142	0.073
-734.010	-56.166	-0.070	0.032
-732.996	-152.501	-0.396	-0.029
-731.981	143.074	-0.038	-0.051
-730.966	-79.417	-0.099	-0.034
-729.952	800.000	-0.034	0.095
-728.937	-81.136	-0.329	-0.110
-727.923	18.538	0.099	0.080
-726.908	-196.990	0.356	-0.002
-725.894	-125.426	-0.150	0.023
-724.879	-21.372	0.242	-0.150
-723.864	49.647	-0.131	0.125
-722.850	108.455	-0.063	-0.076
-721.835	141.508	0.138	0.185
-720.821	-200.000	-0.049	-0.225
-719.806	-200.000	0.058	-0.262
-718.791	800.000	0.033	-0.123
-717.777	152.169	0.019	-0.026
-716.762	508.697	0.163	-0.383
-715.748	12.857	-0.208	0.162
-714.733	-78.437	0.236	-0.082
-713.718	-73.409	-0.148	0.055
-712.704	59.654	0.126	-0.126
-711.689	-76.555	-0.270	-0.096
-710.675	66.620	-0.091	-0.094
-709.660	-166.887	0.151	-0.006
-708.645	173.471	-0.241	0.352
-707.631	-21.812	-0.059	-0.036
-706.616	169.100	-0.120	-0.174
-705.602	-57.152	-0.325	0.145
-704.587	-200.000	-0.012	-0.193
-703.572	69.591	0.046	-0.048
-702.558	800.000	0.084	0.255
-701.543	73.818	0.100	-0.107
-700.529	800.000	0.049	0.166
-699.514	317.750	-0.081	0.156
-698.499	-108.468	-0.111	0.024
-697.485	-200.000	0.060	-0.472
-696.470	-200.000	0.006	-0.087
-695.456	-200.000	-0.058	-0.306
-694.441	-106.284	-0.370	-0.084
-693.426	-119.732	-0.129	0.022
-692.412	-20.876	0.355	-0.220
-691.397	365.387	0.192	-0.390
-690.383	-172.151	0.202	0.007
-689.368	-108.277	0.169	0.037
-688.354	-48.800	0.267	0.129
-687.339	87.953	0.089	-0.100
-686.324	102.558	-0.170	0.201
-685.310	276.546	0.088	-0.159
-684.295	-92.216	-0.247	-0.071
-683.281	56.204	0.122	-0.119
-682.266	-200.000	0.027	-0.157
-681.251	-54.603	0.260	-0.119
-680.237	-50.740	0.358	-0.171
-679.222	-185.508	-0.322	-0.005
-678.208	-4.381	-0.129	-0.090
-677.193	-27.646	0.205	-0.120
-676.178	-200.000	0.021	0.434
-675.164	99.737	0.262	-0.307
-674.149	56.205	0.194	-0.191
-673.135	800.000	-0.072	-0.272
-672.120	123.337	0.278	-0.352
-671.105	-193.564	-0.384	-0.003
-670.091	169.342	-0.138	-0.200
-669.076	-169.216	-0.176	-0.007
-668.062	-17.545	-0.066	0.042
-667.047	-118.244	-0.255	0.046
-666.032	239.597	-0.096	0.162
-665.018	221.361	-0.199	-0.324
-664.003	800.000	0.014	-0.039
-662.989	463.605	0.161	-0.363
-661.974	55.196	0.116	-0.113
-660.959	-53.887	-0.296	0.136
-659.945	48.245	0.344	0.325
-658.930	-88.766	0.043	0.013
-657.916	478.730	-0.069	-0.159
-656.901	800.000	0.032	0.103
-655.886	800.000	-0.061	0.203
-654.872	99.570	0.149	0.174
-653.857	-15.527	0.175	-0.113
-652.843	-200.000	0.010	0.074
-651.828	457.554	-0.148	-0.333
-650.814	13.475	0.306	0.239
-649.799	-37.829	-0.254	-0.137
-648.784	275.177	-0.186	-0.333
-647.770	-66.068	-0.128	0.051
-646.755	-200.000	0.040	-0.229
-645.741	-200.000	0.000	-0.079
-644.726	-200.000	-0.052	-0.310
-643.711	800.000	-0.052	0.149
-642.697	195.354	0.169	0.258
-641.682	103.971	0.340	0.404
-640.668	155.536	0.023	-0.032
-639.653	31.251	0.352	0.305
-638.638	20.251	0.269	0.219
-637.624	481.669	0.150	-0.343
-636.609	-94.403	-0.251	0.069
-635.595	90.483	0.089	0.101
-634.580	-10.956	-0.139	-0.093
-633.565	-41.590	-0.047	-0.024
-632.551	310.802	-0.052	0.098
-631.536	800.000	-0.025	-0.092
-630.522	-200.000	-0.000	0.102
-629.507	5.056	-0.087	0.064
-628.492	24.735	0.115	0.096
-627.478	-200.000	-0.018	0.209
-626.463	-200.000	-0.076	0.509
-625.449	800.000	-0.018	0.070
-624.434	-200.000	0.045	0.207
-623.419	-80.559	-0.169	0.057
-622.405	800.000	0.090	0.319
-621.390	-86.790	-0.224	0.069
-620.376	-85.362	0.265	0.083
-619.361	589.417	-0.057	-0.142
-618.346	-114.426	-0.228	-0.044
-617.332	-167.189	-0.177	-0.007
-616.317	-136.391	-0.203	0.024
-615.303	103.909	0.147	0.174
-614.288	-22.492	0.141	-0.086
-613.273	176.089	-0.237	0.347
-612.259	800.000	-0.129	0.363
-611.244	121.575	0.269	-0.338
-610.230	45.195	0.318	-0.296
-609.215	-200.000	-0.013	0.073
-608.201	800.000	0.076	-0.243
-607.186	-38.771	-0.101	0.053
-606.171	149.485	0.133	-0.181
-605.157	280.149	0.171	-0.308
-604.142	-41.995	0.470	-0.243
-603.128	-200.000	-0.086	-0.544
-602.113	689.292	-0.117	-0.307
-601.098	419.552	0.083	-0.178
-600.084	-12.306	-0.172	-0.113
-599.069	-18.322	0.148	-0.093
-598.055	800.000	0.100	0.340
-597.040	-200.000	-0.020	0.143
-596.025	41.091	0.160	-0.145
-595.011	444.662	-0.052	-0.115
-593.996	-21.294	-0.175	0.107
-592.982	208.040	-0.278	-0.438
-591.967	800.000	0.037	0.107
-590.952	-200.000	-0.014	0.110
-589.938	75.701	0.042	-0.044
-588.923	-200.000	0.039	0.320
-587.909	-53.864	0.132	-0.060
-586.894	13.742	-0.345	0.270
-585.879	102.472	0.062	0.073
-584.865	-62.338	-0.110	-0.046
-583.850	800.000	-0.092	-0.310
-582.836	29.157	0.234	-0.200
-581.821	73.562	-0.082	0.086
-580.806	47.942	0.199	0.188
-579.792	-44.693	0.045	0.023
-578.777	94.832	-0.197	0.225
-577.763	-200.000	0.037	-0.173
-576.748	-200.000	0.006	0.082
-575.733	-200.000	-0.002	-0.036
-574.719	-200.000	0.030	0.307
-573.704	75.984	-0.259	-0.276
-572.690	35.162	-0.181	-0.160
-571.675	-144.897	0.181	0.017
-570.661	-200.000	-0.030	-0.277
-569.646	-59.132	-0.183	0.080
-568.631	-17.740	-0.169	-0.107
-567.617	-60.398	-0.023	0.010
-566.602	11.499	-0.125	0.096
-565.588	341.425	-0.024	0.047
-564.573	-108.597	-0.435	-0.094
-563.558	-22.427	-0.324	-0.197
-562.544	94.226	-0.135	-0.154
-561.529	-64.777	0.202	-0.082
-560.515	-200.000	-0.029	-0.152
-559.500	452.332	-0.036	0.080
-558.485	800.000	0.058	-0.172
-557.471	-200.000	-0.003	0.188
-556.456	-152.317	-0.168	0.012
-555.442	68.934	-0.336	0.347
-554.427	-37.661	0.283	0.151
-553.412	210.634	0.222	-0.351
-552.398	506.847	0.014	-0.033
-551.383	-200.000	-0.005	-0.215
-550.369	145.638	-0.171	-0.231
-549.354	784.630	0.047	0.131
-548.339	-126.593	-0.078	0.012
-547.325	800.000	0.052	-0.157
-546.310	-200.000	0.009	0.153
-545.296	800.000	-0.048	-0.171
-544.281	800.000	-0.124	-0.406
-543.266	29.270	-0.245	-0.209
-542.252	800.000	-0.111	-0.389
-541.237	-137.742	0.083	-0.009
-540.223	772.426	0.038	0.105
-539.208	-102.358	0.242	-0.058
-538.193	-122.128	0.074	-0.012
-537.179	129.497	-0.132	-0.170
-536.164	-169.218	-0.091	-0.003
-535.150	190.613	-0.167	-0.253
-534.135	82.409	-0.101	0.110
-533.121	800.000	0.126	-0.392
-532.106	-135.567	-0.211	0.025
-531.091	158.825	-0.097	0.135
-530.077	-144.088	0.190	-0.018
-529.062	54.916	0.015	-0.015
-528.048	24.561	0.342	-0.285
-527.033	78.683	-0.220	-0.236
-526.018	-114.724	0.163	0.031
-525.004	-200.000	-0.025	0.304
-523.989	800.000	-0.038	-0.165
-522.975	473.467	-0.123	-0.279
-521.960	-200.000	0.029	-0.377
-520.945	-26.374	0.127	-0.075
-519.931	-115.199	-0.308	-0.059
-518.916	-200.000	-0.001	-0.032
-517.902	-105.741	0.227	0.051
-516.887	-133.799	-0.143	-0.018
-515.872	231.566	-0.141	-0.232
-514.858	-145.893	0.094	-0.008
-513.843	-195.820	-0.356	0.003
-512.829	-26.173	-0.209	0.123
-511.814	-91.388	-0.208	-0.060
-510.799	638.803	0.138	0.352
-509.785	422.181	-0.112	0.241
-508.770	239.706	-0.080	-0.133
-507.756	-45.360	0.064	0.032
-506.741	12.350	-0.278	-0.215
-505.726	-54.220	0.328	-0.149
-504.712	503.359	-0.119	-0.277
-503.697	-20.122	0.089	0.055
-502.683	27.752	0.077	-0.065
-501.668	80.661	0.263	0.285
-500.653	-9.922	-0.188	-0.125
-499.639	-200.000	-0.013	-0.158
-498.624	-25.428	-0.313	0.186
-497.610	461.371	0.144	-0.322
-496.595	-200.000	-0.026	-0.139
-495.581	-145.748	-0.073	0.007
-494.566	295.697	-0.042	-0.078
-493.551	-200.000	0.017	-0.084
-492.537	-72.964	0.044	0.016
-491.522	18.267	0.201	0.161
-490.508	-124.098	-0.214	-0.034
-489.493	800.000	-0.066	-0.208
-488.478	482.446	-0.100	0.228
-487.464	27.355	0.175	-0.148
-486.449	450.080	-0.124	0.275
-485.435	-154.080	-0.203	0.014
-484.420	-75.807	-0.185	-0.066
-483.405	294.000	0.123	0.225
-482.391	360.892	0.108	0.216
-481.376	-86.004	0.309	-0.096
-480.362	-92.058	0.333	0.095
-479.347	-90.619	0.232	0.067
-478.332	-44.134	0.145	-0.073
-477.318	-200.000	-0.077	-0.492
-476.303	14.720	-0.085	-0.067
-475.289	800.000	-0.030	-0.113
-474.274	800.000	-0.096	0.313
-473.259	800.000	-0.080	0.222
-472.245	21.957	0.149	0.122
-471.230	216.295	-0.083	0.133
-470.216	-82.399	0.143	0.046
-469.201	-76.650	0.120	-0.042
-468.186	44.656	0.151	0.139
-467.172	-53.179	0.100	0.046
-466.157	0.008	0.102	0.073
-465.143	-56.539	0.267	-0.119
-464.128	-86.574	-0.265	0.081
-463.113	-126.274	-0.380	0.057
-462.099	-32.159	0.077	0.043
-461.084	99.718	-0.069	0.080
-460.070	-52.894	-0.235	-0.109
-459.055	-5.902	0.016	0.011
-458.040	800.000	-0.015	0.045
-457.026	50.163	0.200	0.190
-456.011	27.259	0.254	0.213
-454.997	-186.736	-0.203	0.003
-453.982	20.785	0.179	0.145
-452.968	-200.000	0.006	-0.110
-451.953	785.504	-0.003	0.010
-450.938	800.000	0.027	0.112
-449.924	800.000	-0.101	0.327
-448.909	-108.778	-0.116	0.025
-447.895	521.101	0.080	-0.187
-446.880	39.067	0.092	0.082
-445.865	-144.696	0.252	0.023
-444.851	-200.000	-0.030	-0.135
-443.836	-111.482	0.388	-0.079
-442.822	94.717	0.165	0.188
-441.807	-200.000	-0.005	-0.163
-440.792	800.000	0.064	-0.261
-439.778	-198.593	0.198	0.001
-438.763	-200.000	-0.044	0.286
-437.749	-137.868	0.199	0.022
-436.734	-128.358	0.132	0.019
-435.719	-121.403	-0.201	-0.033
-434.705	-7.553	0.139	0.094
-433.690	-48.128	-0.092	-0.045
-432.676	-93.334	0.131	0.036
-431.661	-10.938	-0.098	0.064
-430.646	-200.000	-0.008	0.098
-429.632	284.797	-0.019	0.034
-428.617	569.067	-0.124	-0.301
-427.603	-8.462	-0.205	0.138
-426.588	3.673	0.181	0.132
-425.573	44.676	0.096	0.089
-424.559	-200.000	-0.003	-0.224
-423.544	-70.534	0.066	-0.025
-422.530	-200.000	-0.049	-0.321
-421.515	-90.212	-0.264	-0.077
-420.500	-200.000	0.017	0.315
-419.486	-74.726	0.085	0.031
-418.471	-119.137	-0.191	-0.033
-417.457	-174.541	-0.428	0.012
-416.442	163.815	0.007	0.009
-415.428	-16.521	0.302	-0.192
-414.413	-121.686	-0.270	-0.045
-413.398	-94.743	-0.301	-0.082
-412.384	479.675	0.020	0.045
-411.369	151.169	0.082	0.112
-410.355	-170.415	0.514	0.018
-409.340	136.287	-0.258	-0.336
-408.325	800.000	-0.091	0.366
-407.311	264.912	-0.055	-0.096
-406.296	-88.909	0.108	0.032
-405.282	-32.942	-0.024	0.013
-404.267	-62.632	0.215	-0.089
-403.252	36.809	-0.134	-0.118
-402.238	225.540	0.020	-0.032
-401.223	396.305	0.047	-0.097
-400.209	-200.000	-0.023	0.104
-399.194	-43.615	-0.241	0.122
-398.179	-29.624	0.237	-0.135
-397.165	-17.895	-0.244	-0.153
-396.150	-95.316	-0.204	-0.055
-395.136	-200.000	0.002	0.268
-394.121	-2.462	0.194	-0.136
-393.106	-80.235	-0.134	-0.045
-392.092	406.125	0.062	0.131
-391.077	216.533	0.073	0.117
-390.063	-155.992	-0.228	0.014
-389.048	800.000	-0.044	-0.178
-388.033	-200.000	-0.018	0.299
-387.019	800.000	-0.064	0.184
-386.004	129.241	0.077	0.098
-384.990	-154.253	0.223	0.015
-383.975	402.525	0.159	-0.334
-382.960	35.228	0.111	-0.097
-381.946	-36.401	-0.186	0.100
-380.931	800.000	0.116	-0.333
-379.917	-200.000	-0.019	0.185
-378.902	-124.902	0.283	0.044
-377.888	-200.000	-0.040	-0.360
-376.873	127.847	0.094	0.119
-375.858	-200.000	0.027	-0.149
-374.844	-12.828	0.078	-0.051
-373.829	-99.679	-0.103	0.026
-372.815	101.519	0.006	-0.007
-371.800	29.719	-0.076	-0.065
-370.785	-82.704	0.340	-0.110
-369.771	247.543	0.085	0.143
-368.756	800.000	-0.096	-0.284
-367.742	-26.192	0.268	-0.157
-366.727	37.978	-0.218	0.193
-365.712	-147.589	0.356	-0.030
-364.698	552.636	0.100	-0.241
-363.683	-68.075	0.057	0.022
-362.669	15.145	0.120	0.094
-361.654	-72.351	0.314	0.116
-360.639	-143.859	-0.467	0.044
-359.625	84.819	0.297	0.325
-358.610	-200.000	0.023	0.286
-357.596	-87.148	0.221	0.067
-356.581	245.483	-0.213	-0.358
-355.566	5.490	0.200	0.147
-354.552	595.760	-0.083	-0.205
-353.537	722.562	0.082	-0.219
-352.523	-93.001	-0.121	-0.034
-351.508	439.163	-0.007	0.016
-350.493	225.587	0.113	-0.183
-349.479	-44.229	0.075	0.038
-348.464	-200.000	0.026	-0.124
-347.450	-200.000	-0.008	0.035
-346.435	412.484	0.096	0.204
-345.420	127.036	-0.140	0.177
-344.406	50.649	-0.281	0.265
-343.391	-45.716	-0.143	0.071
-342.377	-64.968	0.529	0.213
-341.362	800.000	0.062	0.210
-340.348	-200.000	-0.050	0.373
-339.333	-15.109	0.257	0.164
-338.318	9.681	-0.136	0.103
-337.304	-131.735	-0.113	-0.015
-336.289	87.101	0.060	-0.066
-335.275	-141.078	0.054	0.006
-334.260	646.290	-0.056	-0.143
-333.245	-136.644	0.213	-0.025
-332.231	-200.000	0.000	0.095
-331.216	-57.906	-0.158	0.069
-330.202	-42.149	0.132	-0.067
-329.187	-110.601	0.082	-0.017
-328.172	7.402	-0.012	-0.009
-327.158	-100.004	-0.241	0.060
-326.143	-111.151	-0.088	0.018
-325.129	-101.437	0.144	0.035
-324.114	-48.273	-0.367	-0.176
-323.099	-200.000	-0.099	-0.449
-322.085	-200.000	0.046	0.616
-321.070	215.103	-0.086	0.136
-320.056	-200.000	0.009	0.302
-319.041	-80.127	0.307	0.103
-318.026	-53.946	0.218	0.099
-317.012	87.134	0.147	-0.162
-315.997	-107.453	-0.256	-0.056
-314.983	655.754	-0.045	-0.115
-313.968	191.460	0.110	-0.165
-312.953	-200.000	-0.033	-0.154
-311.939	-1.859	0.089	0.063
-310.924	800.000	-0.057	-0.236
-309.910	58.041	0.231	-0.225
-308.895	-200.000	0.046	-0.297
-307.880	91.495	0.198	-0.221
-306.866	800.000	-0.060	0.218
-305.851	109.916	-0.209	-0.250
-304.837	-200.000	-0.026	0.122
-303.822	-148.374	-0.128	0.010
-302.807	376.369	-0.037	-0.076
-301.793	-200.000	0.007	-0.109
-300.778	-36.449	0.359	-0.192
-299.764	39.667	-0.080	-0.072
-298.749	-53.776	-0.074	0.033
-297.735	-70.888	0.266	0.100
-296.720	-200.000	0.114	0.537
-295.705	-200.000	-0.004	0.277
-294.691	-4.074	-0.176	-0.121
-293.676	800.000	-0.069	0.239
-292.662	-200.000	-0.021	-0.242
-291.647	-77.915	-0.403	0.138
-290.632	-118.395	-0.168	0.030
-289.618	200.084	0.235	0.359
-288.603	-200.000	-0.060	-0.318
-287.589	98.123	-0.221	0.253
-286.574	226.746	-0.077	-0.124
-285.559	-126.007	0.290	0.043
-284.545	-200.000	0.078	0.342
-283.530	329.772	-0.098	-0.188
-282.516	800.000	-0.045	-0.129
-281.501	-48.134	-0.261	0.125
-280.486	23.710	0.147	-0.120
-279.472	-96.891	0.266	-0.069
-278.457	-200.000	-0.007	0.110
-277.443	225.481	0.132	0.213
-276.428	93.601	-0.105	0.118
-275.413	-94.035	-0.070	-0.019
-274.399	198.082	-0.126	-0.192
-273.384	-16.326	-0.273	-0.172
-272.370	51.127	0.209	-0.197
-271.355	-143.430	0.255	0.024
-270.340	288.355	-0.061	-0.110
-269.326	661.993	-0.105	0.269
-268.311	-13.117	-0.053	0.034
-267.297	-35.009	-0.290	-0.157
-266.282	80.873	-0.116	-0.125
-265.267	-200.000	0.072	-0.364
-264.253	-16.070	-0.220	-0.139
-263.238	130.064	-0.085	0.108
-262.224	-200.000	0.025	-0.301
-261.209	800.000	-0.101	-0.330
-260.195	106.838	0.026	0.030
-259.180	-189.801	-0.399	-0.005
-258.165	-62.148	0.119	0.049
-257.151	70.357	-0.032	-0.033
-256.136	-55.375	-0.071	0.031
-255.122	-159.433	-0.133	0.007
-254.107	126.219	-0.120	0.151
-253.092	-200.000	0.030	-0.181
-252.078	800.000	0.055	-0.171
-251.063	-43.179	0.434	-0.218
-250.049	-99.272	-0.211	-0.053
-249.034	800.000	-0.022	-0.071
-248.019	436.269	0.025	-0.054
-247.005	-142.658	-0.321	0.031
-245.990	-200.000	0.013	-0.235
-244.976	-132.358	0.180	0.023
-243.961	397.760	-0.180	0.375
-242.946	-200.000	-0.035	0.165
-241.932	-181.695	0.157	0.003
-240.917	-200.000	0.004	0.181
-239.903	86.931	0.124	0.136
-238.888	-61.276	-0.042	-0.018
-237.873	147.417	0.211	0.282
-236.859	-19.263	0.032	-0.020
-235.844	-8.854	-0.459	0.305
-234.830	800.000	-0.052	0.167
-233.815	-130.081	-0.135	0.018
-232.800	119.758	0.264	-0.325
-231.786	-200.000	0.059	-0.279
-230.771	448.679	-0.092	-0.201
-229.757	-65.220	0.104	-0.041
-228.742	800.000	-0.026	-0.090
-227.727	-83.548	-0.157	0.050
-226.713	770.767	0.069	0.186
-225.698	-200.000	-0.041	0.337
-224.684	-200.000	-0.011	0.059
-223.669	367.369	-0.023	0.045
-222.655	-92.055	0.300	0.084
-221.640	98.325	-0.090	0.103
-220.625	800.000	-0.024	0.094
-219.611	561.190	0.075	0.180
-218.596	-39.518	0.351	0.183
-217.582	41.041	-0.156	-0.140
-216.567	156.006	-0.067	0.092
-215.552	-78.097	-0.186	0.064
-214.538	106.918	0.197	0.232
-213.523	-200.000	-0.054	0.243
-212.509	-53.733	-0.269	0.122
-211.494	747.121	-0.116	0.310
-210.479	234.273	-0.075	-0.123
-209.465	-66.623	0.181	-0.071
-208.450	-192.860	0.238	-0.002
-207.436	-59.179	0.183	-0.078
-206.421	7.127	0.162	0.120
-205.406	230.868	0.072	0.117
-204.392	-200.000	0.078	0.394
-203.377	-200.000	-0.055	0.246
-202.363	-10.915	0.024	-0.016
-201.348	267.058	-0.204	0.354
-200.333	23.504	-0.331	-0.270
-199.319	-70.442	0.174	-0.065
-198.304	-79.231	-0.231	-0.078
-197.290	208.819	-0.099	-0.153
-196.275	-116.136	0.224	0.041
-195.260	-35.668	0.117	-0.063
-194.246	-65.915	-0.132	0.052
-193.231	-200.000	0.030	0.236
-192.217	355.586	-0.047	-0.093
-191.202	34.876	0.034	0.029
-190.187	-143.150	-0.246	0.024
-189.173	36.282	0.249	0.218
-188.158	-38.727	0.146	-0.076
-187.144	213.361	0.045	0.070
-186.129	-200.000	0.022	-0.102
-185.114	-44.277	-0.407	0.202
-184.100	-89.883	0.221	-0.064
-183.085	-200.000	-0.010	-0.199
-182.071	-130.954	0.109	-0.014
-181.056	-92.168	0.172	-0.048
-180.042	7.075	0.130	0.096
-179.027	-31.074	0.133	-0.075
-178.012	87.551	0.157	-0.173
-176.998	334.252	-0.117	0.224
-175.983	-67.895	0.126	0.049
-174.969	509.146	-0.098	0.227
-173.954	-150.322	0.298	-0.023
-172.939	28.560	-0.217	-0.182
-171.925	-123.498	-0.288	-0.045
-170.910	76.923	0.079	-0.083
-169.896	-41.876	0.296	-0.150
-168.881	-121.479	-0.278	0.046
-167.866	-85.875	0.290	0.089
-166.852	269.365	0.115	0.201
-165.837	-200.000	-0.040	0.199
-164.823	-37.941	-0.351	0.185
-163.808	336.669	0.051	-0.099
-162.793	307.749	-0.056	-0.103
-161.779	483.917	0.069	0.157
-160.764	-118.717	-0.199	-0.035
-159.750	800.000	0.014	-0.040
-158.735	251.862	-0.145	-0.245
-157.720	225.921	0.075	-0.120
-156.706	2.157	0.107	0.076
-155.691	13.539	-0.102	0.078
-154.677	-33.679	0.015	-0.008
-153.662	-108.486	0.305	0.065
-152.647	-89.454	0.134	0.039
-151.633	-200.000	-0.005	0.307
-150.618	-80.274	-0.261	0.086
-149.604	-200.000	0.026	0.172
-148.589	-19.770	0.263	0.161
-147.574	-200.000	0.021	0.290
-146.560	-113.990	-0.269	-0.052
-145.545	137.397	-0.182	-0.236
-144.531	394.381	0.180	-0.371
-143.516	-107.505	0.510	0.111
-142.502	800.000	-0.051	-0.197
-141.487	-200.000	-0.052	-0.252
-140.472	92.455	-0.114	-0.127
-139.458	-73.708	-0.066	-0.024
-138.443	649.188	-0.030	-0.075
-137.429	-200.000	-0.043	0.232
-136.414	-200.000	0.154	0.001
-135.399	204.803	-0.164	-0.252
-134.385	49.764	0.164	0.153
-133.370	-194.075	-0.190	-0.002
-132.356	121.211	-0.203	-0.250
-131.341	324.442	0.077	-0.146
-130.326	557.688	-0.081	-0.193
-129.312	-6.589	-0.380	-0.256
-128.297	800.000	0.099	0.335
-127.283	-200.000	0.000	0.197
-126.268	-144.327	-0.161	-0.015
-125.253	51.149	-0.053	-0.050
-124.239	-5.858	0.252	0.171
-123.224	-200.000	0.028	0.122
-122.210	-124.585	-0.044	0.007
-121.195	202.282	-0.025	0.038
-120.180	99.608	-0.363	0.415
-119.166	-200.000	0.016	0.322
-118.151	187.991	-0.083	-0.123
-117.137	-114.287	0.032	-0.006
-116.122	-200.000	0.004	-0.148
-115.107	-24.379	0.223	-0.131
-114.093	-44.226	-0.247	0.122
-113.078	41.233	-0.209	0.187
-112.064	5.443	-0.102	-0.074
-111.049	-99.623	0.242	0.060
-110.034	349.344	0.112	-0.219
-109.020	31.144	0.084	-0.071
-108.005	-39.505	-0.224	-0.116
-106.991	800.000	0.051	0.165
-105.976	426.694	-0.085	-0.182
-104.962	114.985	-0.161	0.194
-103.947	-75.073	-0.341	-0.121
-102.932	-34.650	-0.259	-0.140
-101.918	-11.849	0.366	-0.237
-100.903	-13.358	-0.138	-0.088
-99.889	291.815	0.117	0.211
-98.874	287.080	0.143	-0.255
-97.859	-200.000	0.002	0.266
-96.845	-13.434	0.179	-0.115
-95.830	-200.000	0.023	-0.315
-94.816	-200.000	0.010	0.180
-93.801	461.155	-0.156	0.342
-92.786	-120.950	0.243	-0.040
-91.772	-96.838	-0.072	-0.019
-90.757	542.599	-0.016	0.038
-89.743	-200.000	-0.029	0.323
-88.728	210.359	-0.154	0.238
-87.713	180.924	-0.094	-0.137
-86.699	523.176	0.042	-0.097
-85.684	-140.436	-0.122	-0.013
-84.670	46.091	0.092	-0.084
-83.655	63.636	-0.111	0.110
-82.640	72.048	-0.259	0.266
-81.626	-21.085	0.258	0.156
-80.611	-69.827	0.508	0.192
-79.597	44.241	-0.146	-0.133
-78.582	-101.405	-0.175	-0.042
-77.567	-44.492	-0.122	0.060
-76.553	-145.477	0.089	-0.008
-75.538	-60.754	0.259	-0.108
-74.524	-200.000	0.026	-0.146
-73.509	-65.412	0.227	-0.090
-72.494	55.456	0.109	-0.104
-71.480	-117.274	-0.234	-0.042
-70.465	-13.592	0.245	-0.157
-69.451	-150.915	-0.432	0.032
-68.436	-19.120	-0.054	-0.033
-67.422	-76.720	0.188	-0.065
-66.407	-200.000	0.048	-0.371
-65.392	-200.000	-0.059	-0.707
-64.378	195.777	-0.082	-0.123
-63.363	676.148	0.084	-0.216
-62.349	-152.343	0.132	-0.009
-61.334	121.161	-0.837	-1.028
-60.319	24.269	0.552	0.450
-59.305	327.680	-0.496	-0.938
-58.290	584.548	0.440	1.067
-57.276	800.000	0.646	1.805
-56.261	-200.000	91.955	533.163
-55.246	597.943	1385.364	3386.740
-54.232	183.791	2629.411	3835.568
-53.217	113.695	2347.632	2812.711
-52.203	44.414	1953.181	1768.823
-51.188	38.143	1735.850	1523.236
-50.173	35.159	1690.063	1460.293
-49.159	51.437	1736.238	1626.232
-48.144	54.474	1754.081	1666.333
-47.130	37.925	1711.277	1499.756
-46.115	34.891	1696.303	1463.398
-45.100	34.704	1691.535	1457.799
-44.086	34.625	1688.966	1454.928
-43.071	34.507	1686.728	1452.046
-42.057	34.674	1683.864	1450.786
-41.042	34.647	1682.046	1448.962
-40.027	34.704	1679.565	1447.201
-39.013	34.657	1678.003	1445.437
-37.998	34.751	1676.011	1444.378
-36.984	34.648	1675.528	1443.123
-35.969	34.812	1673.545	1442.597
-34.954	34.873	1671.820	1441.510
-33.940	34.859	1670.019	1439.796
-32.925	34.818	1668.523	1438.139
-31.911	34.850	1666.712	1436.765
-30.896	34.828	1664.723	1434.825
-29.881	34.747	1663.178	1432.830
-28.867	34.827	1661.078	1431.562
-27.852	34.769	1659.764	1429.939
-26.838	34.885	1658.312	1429.498
-25.823	34.869	1656.592	1427.841
-24.809	34.819	1655.841	1426.764
-23.794	34.858	1654.187	1425.572
-22.779	34.892	1652.856	1424.623
-21.765	34.857	1651.084	1422.778
-20.750	34.840	1649.017	1420.813
-19.736	34.798	1648.063	1419.627
-18.721	34.891	1646.290	1418.730
-17.706	34.812	1644.554	1416.595
-16.692	34.819	1642.981	1415.231
-15.677	34.842	1641.655	1414.205
-14.663	34.878	1639.849	1412.863
-13.648	34.877	1638.661	1411.770
-12.633	34.891	1636.942	1410.341
-11.619	34.878	1635.253	1408.737
-10.604	34.876	1634.237	1407.790
-9.590	34.952	1632.167	1406.507
-8.575	34.857	1631.407	1405.096
-7.560	34.856	1630.374	1404.145
-6.546	34.845	1628.823	1402.672
-5.531	34.877	1627.991	1402.133
-4.517	34.867	1626.649	1400.851
-3.502	34.871	1625.788	1400.081
-2.487	35.036	1623.952	1399.650
-1.473	35.003	1613.141	1390.038
-0.458	32.993	1594.672	1359.622
0.556	30.925	1595.760	1328.593
1.571	28.594	1620.405	1332.089
2.586	27.541	1633.789	1335.260
3.600	23.689	1576.741	1261.224
4.615	13.676	1460.820	1102.162
5.629	5.602	1393.800	1000.112
6.644	4.337	1385.054	985.718
7.659	4.123	1383.904	983.455
8.673	4.129	1382.592	982.473
9.688	4.210	1381.082	981.827
10.702	4.296	1377.722	979.893
11.717	7.654	1385.393	1006.558
12.731	16.641	1401.699	1075.679
13.746	21.683	1408.811	1113.171
14.761	20.956	1406.614	1106.722
15.775	20.009	1403.855	1098.445
16.790	18.960	1401.157	1089.600
17.804	18.104	1399.118	1082.497
18.819	17.788	1397.707	1079.313
19.834	17.574	1396.218	1076.712
20.848	17.371	1395.403	1074.706
21.863	17.049	1394.179	1071.633
22.877	16.976	1392.793	1070.017
23.892	16.894	1392.373	1069.082
24.907	16.892	1391.256	1068.116
25.921	16.943	1389.987	1067.366
26.936	17.015	1389.169	1067.099
27.950	17.060	1388.023	1066.404
28.965	17.117	1386.886	1065.793
29.980	17.239	1385.764	1065.608
30.994	17.253	1384.833	1064.882
32.009	17.293	1384.028	1064.417
33.023	17.343	1382.152	1063.195
34.038	17.227	1381.492	1061.868
35.053	17.105	1379.998	1059.866
36.067	17.153	1378.566	1058.973
37.082	17.154	1378.198	1058.599
38.096	17.299	1377.036	1058.515
39.111	17.194	1376.371	1057.259
40.126	17.174	1375.245	1056.176
41.140	16.964	1374.157	1053.944
42.155	16.857	1373.780	1052.895
43.169	16.722	1373.651	1051.866
44.184	16.792	1373.222	1051.876
45.199	16.846	1372.899	1051.872
46.213	16.976	1372.156	1052.017
47.228	17.069	1371.730	1052.171
48.242	17.097	1370.171	1051.060
49.257	17.092	1368.435	1049.599
50.271	16.996	1366.886	1047.727
51.286	17.077	1366.174	1047.590
52.301	17.093	1364.661	1046.433
53.315	16.972	1363.470	1044.684
54.330	16.872	1362.608	1043.315
55.344	16.871	1361.182	1042.123
56.359	16.882	1359.885	1041.110
57.374	16.790	1359.647	1040.266
58.388	16.665	1358.666	1038.659
59.403	16.738	1358.016	1038.519
60.417	16.695	1357.344	1037.648
61.432	16.724	1356.192	1036.852
62.447	16.631	1355.632	1035.763
63.461	16.665	1354.297	1034.859
64.476	16.614	1353.441	1033.801
65.490	16.653	1352.309	1033.082
66.505	16.692	1350.649	1031.962
67.520	16.815	1349.069	1031.415
68.534	16.693	1348.291	1029.986
69.549	16.722	1347.113	1029.169
70.563	16.664	1346.126	1027.972
71.578	16.607	1345.248	1026.866
72.593	16.600	1343.381	1025.307
73.607	16.548	1343.293	1024.835
74.622	16.575	1342.324	1024.170
75.636	16.562	1341.740	1023.556
76.651	16.557	1341.282	1023.082
77.666	16.490	1341.061	1022.418
78.680	16.576	1340.184	1022.177
79.695	16.746	1339.043	1022.244
80.709	16.708	1338.317	1021.372
81.724	16.754	1337.743	1021.118
82.739	16.882	1336.601	1020.927
83.753	16.958	1336.047	1020.874
84.768	17.019	1335.280	1020.563
85.782	17.229	1333.623	1020.466
86.797	17.152	1332.783	1019.273
87.812	16.956	1331.706	1017.184
88.826	17.075	1330.326	1016.751
89.841	16.991	1330.002	1015.912
90.855	17.244	1328.422	1016.126
91.870	17.172	1327.418	1014.837
92.884	17.095	1326.901	1013.893
93.899	17.183	1325.855	1013.532
94.914	17.212	1325.285	1013.176
95.928	17.303	1324.319	1012.891
96.943	17.217	1322.910	1011.213
97.957	17.075	1322.619	1010.058
98.972	17.139	1321.013	1009.121
99.987	17.180	1320.223	1008.673
101.001	17.133	1319.127	1007.470
102.016	17.159	1317.794	1006.513
103.030	17.126	1317.528	1006.026
104.045	17.178	1316.015	1005.090
105.060	17.065	1314.919	1003.498
106.074	16.871	1313.531	1001.204
107.089	16.721	1312.251	999.253
108.103	16.708	1310.513	997.762
109.118	16.775	1309.221	997.086
110.133	16.783	1307.697	995.884
111.147	16.826	1306.497	995.135
112.162	16.833	1305.402	994.254
113.176	16.807	1304.361	993.221
114.191	16.983	1303.624	993.601
115.206	16.768	1303.017	991.794
116.220	16.869	1301.461	991.112
117.235	16.839	1300.159	989.855
118.249	16.839	1298.939	988.841
119.264	16.806	1297.707	987.622
120.279	16.749	1296.837	986.542
121.293	16.674	1295.876	985.288
122.308	16.698	1294.642	984.402
123.322	16.660	1293.703	983.377
124.337	16.590	1292.813	982.212
125.352	16.575	1291.674	981.168
126.366	16.651	1290.341	980.510
127.381	16.652	1289.327	979.661
128.395	16.624	1288.146	978.514
129.410	16.617	1287.233	977.693
130.424	16.730	1286.719	977.869
131.439	16.762	1285.609	977.121
132.454	16.932	1284.195	976.943
133.468	16.885	1283.699	976.210
134.483	16.793	1282.974	975.038
135.497	16.876	1282.106	974.773
136.512	16.876	1280.582	973.524
137.527	16.801	1279.654	972.305
138.541	16.942	1277.775	971.598
139.556	16.937	1276.433	970.464
140.570	17.049	1275.613	970.395
141.585	17.100	1274.192	969.520
142.600	17.128	1273.401	968.994
143.614	17.162	1272.489	968.407
144.629	17.327	1270.981	968.112
145.643	17.323	1269.907	967.186
146.658	17.065	1268.838	964.821
147.673	17.066	1267.409	963.652
148.687	16.854	1266.034	961.321
149.702	16.924	1264.639	960.573
150.716	16.888	1263.342	959.300
151.731	16.880	1262.455	958.495
152.746	17.014	1260.787	957.902
153.760	17.026	1259.924	957.226
154.775	17.060	1258.717	956.420
155.789	17.184	1257.591	956.173
156.804	17.174	1256.771	955.410
157.819	17.098	1256.010	954.322
158.833	17.202	1254.901	953.977
159.848	17.322	1254.069	953.936
160.862	17.260	1253.126	952.786
161.877	17.156	1251.917	951.200
162.892	17.008	1250.832	949.464
163.906	16.908	1250.077	948.248
164.921	16.948	1248.668	947.316
165.935	17.051	1248.172	947.434
166.950	17.083	1247.455	946.982
167.964	17.169	1246.491	946.645
168.979	17.084	1246.131	945.813
169.994	17.033	1245.262	944.790
171.008	17.207	1244.452	945.057
172.023	17.316	1243.320	944.722
173.037	17.331	1242.902	944.400
174.052	17.277	1241.947	943.293
175.067	17.155	1240.438	941.385
176.081	17.004	1239.769	939.960
177.096	17.092	1238.522	939.420
178.110	17.126	1237.732	938.925
179.125	17.106	1236.484	937.782
180.140	17.147	1235.317	937.041
181.154	17.267	1234.187	936.766
182.169	17.284	1232.648	935.607
183.183	17.378	1232.114	935.632
184.198	17.421	1231.032	934.964
185.213	17.325	1229.996	933.569
186.227	17.357	1229.049	932.942
187.242	17.395	1227.892	932.193
188.256	17.408	1227.060	931.548
189.271	17.595	1225.758	931.498
190.286	17.466	1224.609	929.842
191.300	17.133	1223.629	927.197
192.315	17.109	1222.946	926.463
193.329	16.994	1222.731	925.593
194.344	17.150	1221.692	925.577
195.359	17.139	1221.362	925.181
196.373	17.301	1220.884	925.622
197.388	17.409	1220.358	925.727
198.402	17.506	1220.460	926.251
199.417	17.595	1219.385	925.836
200.432	17.641	1218.749	925.522
201.446	17.849	1217.775	925.831
202.461	17.752	1216.796	924.477
203.475	17.722	1215.667	923.374
204.490	17.719	1214.309	922.245
205.504	17.542	1213.030	920.236
206.519	17.549	1211.989	919.405
207.534	17.488	1210.992	918.234
208.548	17.528	1209.852	917.506
209.563	17.554	1209.333	917.171
210.577	17.582	1208.340	916.487
211.592	17.750	1207.186	916.434
212.607	17.861	1206.066	916.100
213.621	17.832	1205.460	915.402
214.636	17.769	1204.652	914.372
215.650	17.662	1203.749	913.028
216.665	17.800	1202.517	912.753
217.680	17.770	1202.125	912.213
218.694	18.008	1200.568	912.223
219.709	17.874	1200.549	911.415
220.723	17.848	1199.703	910.552
221.738	17.817	1199.146	909.881
222.753	17.918	1197.808	909.328
223.767	17.864	1197.276	908.552
224.782	18.007	1196.476	908.625
225.796	18.019	1196.360	908.524
226.811	18.014	1195.440	907.718
227.826	17.931	1194.633	906.584
228.840	17.808	1193.645	905.099
229.855	17.818	1193.098	904.656
230.869	17.950	1192.298	904.671
231.884	17.896	1191.391	903.618
232.899	17.826	1190.781	902.701
233.913	17.805	1189.533	901.564
234.928	17.884	1188.535	901.147
235.942	17.715	1188.255	899.965
236.957	17.802	1187.234	899.570
237.972	17.767	1186.475	898.728
238.986	17.743	1186.049	898.204
240.001	17.932	1184.988	898.314
241.015	17.821	1184.622	897.374
242.030	17.782	1183.798	896.465
243.045	17.842	1182.983	896.085
244.059	17.931	1182.476	896.088
245.074	18.020	1181.370	895.634
246.088	18.104	1180.467	895.314
247.103	18.123	1179.812	894.836
248.117	18.128	1178.842	894.046
249.132	18.379	1178.295	894.864
250.147	18.526	1177.474	894.930
251.161	18.608	1176.701	894.691
252.176	18.554	1176.289	894.018
253.190	18.623	1175.870	893.977
254.205	18.618	1175.216	893.375
255.220	18.581	1174.844	892.822
256.234	18.636	1174.154	892.502
257.249	18.568	1173.069	891.248
258.263	18.603	1172.233	890.713
259.278	18.440	1172.370	889.892
260.293	18.588	1171.566	889.970
261.307	18.825	1170.622	890.403
262.322	18.730	1170.287	889.578
263.336	18.758	1169.461	889.019
264.351	18.743	1168.681	888.269
265.366	18.881	1167.851	888.274
266.380	18.883	1166.958	887.524
267.395	18.702	1166.611	886.248
268.409	18.622	1166.060	885.339
269.424	18.604	1165.070	884.417
270.439	18.585	1165.007	884.191
271.453	18.518	1164.238	883.182
272.468	18.598	1162.927	882.525
273.482	18.632	1161.833	881.788
274.497	18.546	1161.740	881.199
275.512	18.632	1160.930	880.945
276.526	18.661	1159.867	880.210
277.541	18.754	1158.584	879.635
278.555	18.650	1158.250	878.774
279.570	18.669	1157.995	878.599
280.585	18.847	1157.130	878.777
281.599	18.838	1156.013	877.803
282.614	18.731	1155.177	876.545
283.628	18.773	1153.831	875.662
284.643	18.859	1153.065	875.439
285.657	18.842	1152.053	874.505
286.672	18.736	1151.445	873.427
287.687	18.807	1150.787	873.212
288.701	18.765	1149.886	872.241
289.716	18.898	1148.768	871.988
290.730	18.790	1148.390	871.075
291.745	18.884	1147.425	870.743
292.760	18.853	1147.219	870.355
293.774	18.919	1146.645	870.176
294.789	19.101	1145.816	870.389
295.803	19.105	1144.951	869.677
296.818	18.926	1144.387	868.267
297.833	18.883	1143.482	867.284
298.847	18.862	1142.975	866.719
299.862	19.036	1141.880	866.686
300.876	18.986	1141.344	865.953
301.891	18.973	1140.908	865.480
302.906	19.130	1139.931	865.451
303.920	19.265	1139.384	865.640
304.935	19.301	1138.382	864.981
305.949	19.319	1137.982	864.693
306.964	19.325	1137.201	864.049
307.979	19.280	1136.539	863.246
308.993	19.216	1135.831	862.313
310.008	19.199	1135.252	861.712
311.022	19.342	1133.902	861.325
312.037	19.349	1133.315	860.836
313.052	19.293	1132.077	859.543
314.066	19.196	1131.428	858.487
315.081	19.093	1130.698	857.348
316.095	19.027	1129.636	856.135
317.110	19.049	1128.810	855.546
318.125	19.086	1128.293	855.260
319.139	19.153	1127.445	854.876
320.154	19.087	1126.815	853.993
321.168	19.134	1126.414	853.845
322.183	19.126	1125.794	853.262
323.197	19.073	1125.041	852.356
324.212	19.186	1124.712	852.587
325.227	19.237	1124.270	852.429
326.241	19.213	1123.414	851.589
327.256	19.248	1122.167	850.737
328.270	19.204	1121.366	849.840
329.285	19.239	1120.135	849.002
330.300	19.284	1119.254	848.481
331.314	19.312	1118.277	847.807
332.329	19.293	1117.208	846.828
333.343	19.230	1116.695	846.052
334.358	19.490	1115.475	846.330
335.373	19.433	1115.384	845.906
336.387	19.378	1114.456	844.855
337.402	19.321	1113.669	843.906
338.416	19.369	1113.283	843.777
339.431	19.599	1112.344	844.114
340.446	19.631	1111.897	843.855
341.460	19.820	1111.135	844.125
342.475	19.765	1110.575	843.358
343.489	19.699	1109.791	842.366
344.504	19.916	1108.436	842.317
345.519	19.920	1107.649	841.666
346.533	19.873	1106.932	840.818
347.548	19.914	1106.135	840.335
348.562	19.888	1105.634	839.753
349.577	19.889	1104.745	839.008
350.592	19.697	1103.487	837.050
351.606	19.672	1102.923	836.428
352.621	19.547	1102.272	835.255
353.635	19.547	1101.772	834.803
354.650	19.599	1101.050	834.432
355.665	19.648	1100.181	833.935
356.679	19.745	1099.589	833.880
357.694	19.713	1099.286	833.427
358.708	19.787	1098.561	833.160
359.723	19.885	1097.838	833.008
360.738	19.859	1097.077	832.231
361.752	19.912	1096.417	831.910
362.767	19.885	1095.979	831.375
363.781	19.877	1095.412	830.834
364.796	19.908	1095.014	830.609
365.810	20.050	1094.042	830.478
366.825	19.997	1093.927	830.060
367.840	20.253	1093.241	830.695
368.854	20.256	1092.471	830.052
369.869	20.119	1091.859	828.856
370.883	20.177	1091.181	828.546
371.898	20.123	1089.931	827.266
372.913	20.087	1089.463	826.667
373.927	20.153	1089.196	826.707
374.942	20.203	1088.645	826.451
375.956	20.245	1088.138	826.193
376.971	20.272	1087.337	825.640
377.986	20.288	1086.781	825.223
379.000	20.387	1086.397	825.327
380.015	20.417	1085.627	824.810
381.029	20.358	1084.948	823.944
382.044	20.424	1084.682	823.979
383.059	20.325	1083.842	822.801
384.073	20.375	1082.624	822.042
385.088	20.453	1081.713	821.643
386.102	20.506	1080.881	821.189
387.117	20.368	1079.869	819.700
388.132	20.246	1078.753	818.202
389.146	20.131	1078.522	817.414
390.161	20.158	1077.640	816.797
391.175	20.340	1076.378	816.628
392.190	20.303	1076.110	816.178
393.205	20.392	1075.555	816.104
394.219	20.437	1074.218	815.227
395.234	20.280	1073.617	813.963
396.248	20.407	1072.439	813.592
397.263	20.334	1071.726	812.638
398.278	20.296	1070.484	811.444
399.292	20.200	1070.210	810.717
400.307	20.184	1069.462	810.003
401.321	20.359	1068.634	810.125
402.336	20.197	1067.840	808.694
403.350	20.241	1067.255	808.386
404.365	20.309	1066.742	808.240
405.380	20.370	1066.175	808.021
406.394	20.417	1065.471	807.639
407.409	20.392	1064.828	806.962
408.423	20.639	1063.924	807.354
409.438	20.590	1063.485	806.722
410.453	20.733	1062.337	806.441
411.467	20.714	1061.895	805.946
412.482	20.754	1061.243	805.563
413.496	20.784	1060.802	805.299
414.511	20.794	1060.359	804.937
415.526	20.968	1059.560	805.062
416.540	20.944	1059.048	804.492
417.555	20.945	1058.522	804.026
418.569	20.923	1057.948	803.417
419.584	20.977	1057.483	803.242
420.599	20.936	1056.920	802.552
421.613	151.351	1402.286	1787.964
422.628	138.972	1452.615	1788.078
