DTS Sentinel unit serial number:	SN413079Multiplexer serial number:	ORYXHardware model number:	OX4-SRSoftware version number:	ORYX F/W v4.00 Oryx Data Collector v3.7.2.0data status	okinstallation	princeton_trtdifferential loss correction	single-endedforward channel	channel 2reverse channel	N/Adate	2019/09/19time	14:35:34forward acquisition time	60.00reverse acquisition time	0.00gamma	496.2192k internal	0.2323k external	0.2323temperature offset calibration	1.0021default loss term (dB/km)	0.3790temperature slope calibration	1.0000multiplexer offset coefficient	1.0000multiplexer slope coefficient	1.0000fibre end	0.00T internal ref (°C)	32.36T ext. ref 1 (°C)	1.08T ext. ref 2 (°C)	29.29length (m)	temperature (°C)	Stokes	anti-Stokes-747.200	-200.000	-0.040	0.263
-746.185	72.856	0.221	0.233
-745.171	-200.000	0.005	-0.202
-744.156	71.032	-0.157	0.164
-743.142	-117.786	0.216	-0.039
-742.127	-200.000	0.019	-0.107
-741.112	24.347	-0.113	0.094
-740.098	5.386	-0.138	0.103
-739.083	800.000	-0.074	0.315
-738.069	111.139	-0.173	0.210
-737.054	-15.975	-0.211	-0.136
-736.039	-81.380	-0.451	-0.150
-735.025	-62.266	0.302	-0.127
-734.010	-38.028	-0.217	-0.116
-732.996	64.026	0.107	0.109
-731.981	34.200	-0.337	0.297
-730.966	-118.230	-0.265	-0.048
-729.952	115.975	-0.153	0.189
-728.937	509.799	-0.083	-0.195
-727.923	225.065	0.154	-0.252
-726.908	-117.183	0.412	-0.076
-725.894	386.417	0.100	0.209
-724.879	800.000	-0.100	-0.308
-723.864	206.650	0.080	-0.126
-722.850	-200.000	0.034	-0.214
-721.835	0.034	-0.155	-0.111
-720.821	380.900	-0.118	-0.245
-719.806	73.468	-0.066	0.070
-718.791	-25.856	-0.106	-0.063
-717.777	-42.232	-0.083	-0.043
-716.762	217.084	0.067	0.108
-715.748	13.645	-0.245	-0.192
-714.733	-200.000	0.024	-0.231
-713.718	800.000	-0.064	-0.226
-712.704	403.309	-0.117	0.249
-711.689	58.719	0.162	-0.161
-710.675	208.618	0.194	0.306
-709.660	-96.292	-0.329	0.088
-708.645	245.757	0.123	0.209
-707.631	262.051	0.084	0.148
-706.616	-80.000	-0.129	-0.044
-705.602	287.324	-0.082	-0.149
-704.587	-200.000	0.039	-0.199
-703.572	-126.174	0.127	0.019
-702.558	77.552	0.166	0.178
-701.543	-11.180	0.090	-0.060
-700.529	792.968	0.057	0.158
-699.514	800.000	0.074	-0.210
-698.499	-24.108	0.193	0.116
-697.485	-57.775	-0.075	0.033
-696.470	-95.911	0.035	-0.010
-695.456	131.231	0.105	0.136
-694.441	26.002	0.230	0.193
-693.426	-200.000	-0.026	-0.156
-692.412	-110.481	0.546	-0.114
-691.397	-84.605	0.162	-0.052
-690.383	-32.556	-0.230	-0.129
-689.368	-200.000	0.006	0.186
-688.354	46.731	0.129	-0.121
-687.339	-200.000	0.066	-0.435
-686.324	-17.470	0.071	0.045
-685.310	-200.000	-0.032	0.441
-684.295	-141.521	-0.139	-0.014
-683.281	-200.000	-0.045	-0.546
-682.266	-112.851	0.186	0.037
-681.251	139.547	-0.256	-0.340
-680.237	-68.132	0.293	-0.115
-679.222	-114.867	-0.390	0.075
-678.208	713.388	-0.036	-0.097
-677.193	-70.084	-0.437	0.168
-676.178	501.986	0.127	0.296
-675.164	-138.025	0.314	0.035
-674.149	100.434	-0.074	0.087
-673.135	-46.523	0.103	0.051
-672.120	52.985	0.182	-0.175
-671.105	-45.031	0.084	-0.042
-670.091	46.533	0.083	-0.077
-669.076	404.794	0.116	-0.246
-668.062	-200.000	0.008	-0.195
-667.047	542.359	-0.123	0.296
-666.032	142.414	-0.220	0.294
-665.018	-200.000	-0.015	-0.211
-664.003	-140.416	-0.239	-0.025
-662.989	-15.459	0.221	-0.142
-661.974	77.218	-0.102	-0.109
-660.959	162.940	-0.096	-0.135
-659.945	800.000	0.061	0.235
-658.930	-31.664	-0.104	0.059
-657.916	-200.000	0.025	-0.114
-656.901	-200.000	0.024	-0.285
-655.886	767.910	-0.087	0.238
-654.872	-200.000	-0.017	-0.125
-653.857	-84.427	-0.041	-0.013
-652.843	67.949	-0.036	0.037
-651.828	-35.681	0.246	0.134
-650.814	747.704	0.043	-0.117
-649.799	289.757	-0.218	-0.398
-648.784	-132.760	-0.272	-0.035
-647.770	-29.355	-0.195	0.112
-646.755	800.000	0.053	0.195
-645.741	-106.796	-0.267	0.060
-644.726	-87.293	-0.258	-0.079
-643.711	-110.072	0.175	0.037
-642.697	-33.105	0.241	0.135
-641.682	146.380	-0.026	0.035
-640.668	-48.933	-0.278	-0.134
-639.653	70.140	0.055	-0.057
-638.638	580.608	0.012	-0.029
-637.624	-25.228	0.024	-0.015
-636.609	370.508	0.071	-0.146
-635.595	-41.471	-0.090	-0.047
-634.580	-19.547	-0.216	-0.134
-633.565	800.000	0.063	0.179
-632.551	-54.851	0.198	-0.090
-631.536	-38.475	-0.212	0.113
-630.522	-200.000	0.025	-0.293
-629.507	156.487	-0.122	-0.169
-628.492	-200.000	-0.015	0.115
-627.478	800.000	-0.022	-0.087
-626.463	-200.000	-0.043	-0.245
-625.449	-2.136	0.141	0.100
-624.434	-200.000	0.051	-0.342
-623.419	-111.475	0.233	-0.048
-622.405	764.999	0.100	-0.274
-621.390	-102.752	0.151	-0.036
-620.376	473.804	-0.118	-0.268
-619.361	-26.550	-0.145	-0.085
-618.346	451.994	-0.057	0.128
-617.332	393.459	0.132	-0.276
-616.317	-200.000	0.002	-0.126
-615.303	-200.000	0.017	0.248
-614.288	-200.000	-0.052	0.250
-613.273	687.004	-0.087	0.228
-612.259	800.000	-0.029	0.091
-611.244	-123.186	-0.314	-0.050
-610.230	-5.310	0.184	0.127
-609.215	800.000	-0.012	-0.049
-608.201	-200.000	-0.016	0.140
-607.186	-75.161	-0.276	0.099
-606.171	800.000	0.021	-0.067
-605.157	53.788	0.166	-0.161
-604.142	6.102	-0.085	0.063
-603.128	-87.300	0.047	-0.014
-602.113	-11.767	-0.257	0.170
-601.098	800.000	-0.122	-0.346
-600.084	2.875	0.014	0.010
-599.069	-147.073	-0.095	-0.008
-598.055	0.264	0.118	-0.085
-597.040	-123.219	-0.121	0.019
-596.025	-200.000	0.006	-0.047
-595.011	155.874	0.302	-0.418
-593.996	69.990	-0.169	-0.175
-592.982	271.285	-0.113	-0.200
-591.967	259.931	0.078	-0.136
-590.952	-200.000	0.068	0.335
-589.938	-73.620	-0.472	-0.173
-588.923	-1.714	-0.244	-0.173
-587.909	105.788	-0.146	-0.173
-586.894	-200.000	-0.020	0.212
-585.879	-16.566	-0.146	0.093
-584.865	78.286	-0.116	0.124
-583.850	-200.000	-0.028	0.271
-582.836	800.000	-0.045	0.135
-581.821	40.186	0.010	0.009
-580.806	-86.074	-0.172	0.053
-579.792	16.801	0.228	0.181
-578.777	363.366	-0.061	0.123
-577.763	-30.627	0.037	0.021
-576.748	800.000	0.095	0.342
-575.733	740.070	-0.131	0.352
-574.719	-56.884	0.099	0.044
-573.704	1.712	-0.225	0.163
-572.690	300.249	0.038	-0.070
-571.675	-200.000	0.002	0.049
-570.661	17.486	0.367	-0.292
-569.646	-90.941	-0.285	-0.082
-568.631	-148.092	-0.398	0.033
-567.617	-200.000	0.029	-0.250
-566.602	-183.222	-0.380	-0.007
-565.588	-200.000	-0.028	0.142
-564.573	198.323	-0.194	-0.297
-563.558	390.715	-0.165	-0.342
-562.544	-75.031	0.258	-0.093
-561.529	-7.629	0.089	-0.060
-560.515	-98.638	0.080	0.020
-559.500	24.259	0.023	0.019
-558.485	111.017	-0.085	0.103
-557.471	-109.048	-0.198	-0.042
-556.456	-200.000	-0.010	0.083
-555.442	-142.995	0.142	0.014
-554.427	304.017	-0.061	0.114
-553.412	-77.157	0.064	-0.022
-552.398	800.000	-0.044	-0.158
-551.383	-137.848	0.362	-0.041
-550.369	114.373	0.253	0.308
-549.354	-26.762	0.175	0.102
-548.339	-40.512	-0.134	0.070
-547.325	-104.059	-0.165	0.039
-546.310	-200.000	0.025	0.193
-545.296	-7.796	-0.264	-0.179
-544.281	70.552	-0.111	-0.115
-543.266	27.311	0.114	0.096
-542.252	116.032	-0.076	-0.093
-541.237	-97.848	-0.255	0.066
-540.223	-200.000	0.007	-0.180
-539.208	-36.385	0.263	0.142
-538.193	52.519	0.014	0.013
-537.179	800.000	0.069	-0.285
-536.164	800.000	0.084	-0.288
-535.150	72.272	0.075	-0.078
-534.135	800.000	-0.058	0.198
-533.121	-159.928	-0.115	0.006
-532.106	-129.565	-0.145	-0.020
-531.091	-200.000	0.052	-0.284
-530.077	603.257	-0.056	0.140
-529.062	33.876	0.024	-0.021
-528.048	-200.000	-0.020	-0.256
-527.033	-35.706	-0.055	0.030
-526.018	80.466	0.163	0.176
-525.004	-14.461	0.303	0.195
-523.989	322.943	-0.120	-0.228
-522.975	-31.997	-0.189	0.106
-521.960	800.000	-0.014	-0.053
-520.945	162.115	0.059	-0.082
-519.931	-200.000	-0.016	-0.235
-518.916	-200.000	0.007	-0.192
-517.902	-16.572	-0.098	-0.062
-516.887	172.067	-0.240	-0.346
-515.872	345.712	-0.058	-0.115
-514.858	-133.213	0.082	0.010
-513.843	-35.909	0.076	-0.041
-512.829	-28.161	0.148	0.086
-511.814	-92.515	0.184	0.052
-510.799	411.186	-0.087	-0.185
-509.785	179.720	-0.270	-0.396
-508.770	-146.957	-0.277	-0.024
-507.756	-98.315	-0.138	-0.035
-506.741	311.580	0.082	-0.154
-505.726	-166.690	0.223	-0.009
-504.712	-7.323	0.222	-0.151
-503.697	-200.000	-0.013	0.325
-502.683	514.101	0.055	0.127
-501.668	40.269	0.138	0.124
-500.653	-90.849	-0.301	0.087
-499.639	-21.834	-0.186	0.113
-498.624	10.073	0.271	-0.206
-497.610	105.034	0.121	0.143
-496.595	170.312	0.202	0.289
-495.581	-42.221	-0.298	-0.152
-494.566	113.068	-0.179	-0.218
-493.551	-2.244	-0.184	0.129
-492.537	-7.891	-0.340	0.230
-491.522	-49.214	-0.073	-0.035
-490.508	-114.068	0.211	-0.041
-489.493	246.682	0.158	0.266
-488.478	387.214	0.075	-0.154
-487.464	-96.396	0.202	0.053
-486.449	154.057	0.249	-0.342
-485.435	40.941	0.121	-0.109
-484.420	-119.540	-0.242	-0.042
-483.405	663.308	-0.132	-0.339
-482.391	-166.646	0.119	-0.005
-481.376	56.925	-0.130	-0.127
-480.362	-200.000	-0.024	-0.234
-479.347	800.000	-0.045	-0.184
-478.332	-144.089	0.336	-0.032
-477.318	6.672	0.028	-0.020
-476.303	292.199	0.134	0.244
-475.289	-35.955	0.173	-0.094
-474.274	106.926	0.123	0.146
-473.259	-200.000	-0.002	0.080
-472.245	201.575	0.074	-0.114
-471.230	391.402	-0.071	-0.148
-470.216	-174.804	0.023	-0.001
-469.201	-200.000	0.041	0.286
-468.186	-31.548	-0.135	-0.076
-467.172	-200.000	-0.007	0.298
-466.157	800.000	-0.099	0.309
-465.143	800.000	-0.034	0.094
-464.128	-200.000	-0.020	-0.164
-463.113	249.087	0.235	-0.398
-462.099	-58.005	0.231	-0.101
-461.084	-134.001	-0.374	0.046
-460.070	-141.632	0.202	0.020
-459.055	132.643	-0.045	-0.058
-458.040	-140.759	0.066	0.007
-457.026	-105.846	0.124	0.028
-456.011	139.744	-0.123	-0.162
-454.997	561.610	0.034	0.083
-453.982	-32.508	0.364	0.202
-452.968	-5.267	0.217	0.149
-451.953	61.633	-0.279	-0.277
-450.938	271.154	0.174	-0.306
-449.924	75.174	-0.121	-0.128
-448.909	304.952	0.059	-0.110
-447.895	-46.867	-0.225	0.110
-446.880	373.605	-0.121	-0.246
-445.865	528.335	0.022	0.051
-444.851	800.000	-0.063	0.233
-443.836	-118.642	0.251	-0.044
-442.822	-200.000	-0.071	0.355
-441.807	-108.552	-0.273	-0.059
-440.792	419.975	-0.148	0.316
-439.778	-116.038	0.133	-0.025
-438.763	-84.105	0.094	0.030
-437.749	84.616	0.153	0.167
-436.734	800.000	0.058	0.184
-435.719	186.581	-0.116	-0.172
-434.705	729.421	0.066	-0.176
-433.690	21.801	0.089	0.072
-432.676	-65.081	-0.261	-0.105
-431.661	-7.732	-0.169	0.114
-430.646	-200.000	0.026	0.241
-429.632	-81.329	-0.085	0.028
-428.617	-122.747	0.359	0.058
-427.603	129.842	-0.055	0.070
-426.588	-200.000	-0.004	-0.137
-425.573	-35.726	-0.201	0.109
-424.559	-159.475	-0.144	0.008
-423.544	-3.833	-0.159	-0.110
-422.530	-35.517	-0.060	-0.032
-421.515	223.865	0.024	0.039
-420.500	-200.000	-0.006	0.122
-419.486	-109.706	-0.095	-0.020
-418.471	-125.934	-0.117	-0.018
-417.457	761.975	-0.056	0.151
-416.442	-146.595	-0.246	0.021
-415.428	-200.000	0.019	-0.227
-414.413	-134.598	0.209	-0.025
-413.398	42.142	0.070	0.064
-412.384	-60.798	0.217	-0.091
-411.369	800.000	-0.007	0.024
-410.355	-200.000	0.029	0.140
-409.340	95.624	-0.119	-0.135
-408.325	528.327	-0.152	-0.357
-407.311	-79.138	-0.302	-0.102
-406.296	61.102	0.136	-0.135
-405.282	25.594	0.267	0.221
-404.267	-139.737	-0.096	0.010
-403.252	78.506	-0.216	0.230
-402.238	41.180	0.026	-0.024
-401.223	-200.000	-0.022	-0.344
-400.209	-88.224	-0.088	0.026
-399.194	152.925	0.142	0.194
-398.179	-200.000	-0.047	0.264
-397.165	800.000	-0.017	0.054
-396.150	-103.057	0.123	-0.029
-395.136	139.866	-0.093	-0.122
-394.121	-113.733	0.069	0.013
-393.106	800.000	-0.010	0.030
-392.092	-200.000	0.018	-0.165
-391.077	34.084	-0.011	-0.010
-390.063	48.038	-0.041	0.039
-389.048	170.586	-0.139	0.198
-388.033	-57.515	-0.259	0.113
-387.019	-89.878	-0.073	0.021
-386.004	37.571	-0.134	-0.118
-384.990	-49.740	-0.015	0.007
-383.975	124.664	-0.077	0.097
-382.960	75.562	0.151	0.158
-381.946	-200.000	0.009	0.213
-380.931	54.055	0.112	-0.107
-379.917	-87.111	0.174	-0.053
-378.902	-200.000	-0.020	0.269
-377.888	-29.953	0.105	-0.059
-376.873	-149.311	0.287	0.023
-375.858	-153.916	0.120	0.008
-374.844	-42.865	-0.257	-0.130
-373.829	-70.206	0.285	-0.108
-372.815	18.362	-0.155	0.124
-371.800	36.939	0.173	-0.152
-370.785	-59.615	0.061	-0.026
-369.771	-158.665	0.051	0.003
-368.756	212.637	0.032	0.049
-367.742	-49.174	0.404	-0.192
-366.727	-86.188	-0.122	-0.037
-365.712	-200.000	0.025	-0.178
-364.698	-200.000	-0.087	0.396
-363.683	12.119	-0.321	-0.246
-362.669	46.967	0.079	0.073
-361.654	-154.792	-0.165	-0.011
-360.639	-63.589	-0.111	0.045
-359.625	22.180	0.207	0.168
-358.610	-56.980	-0.127	-0.056
-357.596	-118.745	-0.239	0.042
-356.581	322.537	-0.116	-0.220
-355.566	-89.490	-0.170	-0.050
-354.552	-119.834	0.104	0.018
-353.537	-200.000	-0.004	0.310
-352.523	-200.000	0.005	-0.226
-351.508	-137.000	-0.231	-0.026
-350.493	27.170	0.085	0.071
-349.479	437.254	0.150	0.324
-348.464	800.000	-0.032	0.121
-347.450	-156.554	0.130	-0.008
-346.435	-64.711	0.174	0.070
-345.420	178.374	-0.105	0.152
-344.406	-29.231	0.101	0.058
-343.391	-200.000	-0.049	0.219
-342.377	-154.281	-0.244	-0.016
-341.362	58.108	0.117	-0.114
-340.348	-200.000	0.000	-0.077
-339.333	135.278	-0.182	-0.235
-338.318	-200.000	-0.010	0.240
-337.304	-98.155	-0.064	-0.016
-336.289	-200.000	0.006	-0.038
-335.275	205.692	0.098	0.151
-334.260	-110.936	0.350	-0.072
-333.245	-200.000	0.016	-0.310
-332.231	-200.000	-0.030	0.271
-331.216	594.403	0.057	0.140
-330.202	800.000	0.080	0.286
-329.187	565.373	0.042	0.101
-328.172	384.192	-0.037	0.076
-327.158	75.782	-0.177	0.186
-326.143	750.160	-0.062	0.165
-325.129	-97.142	-0.367	0.095
-324.114	86.723	0.160	-0.176
-323.099	-100.216	0.171	-0.042
-322.085	162.379	-0.043	-0.060
-321.070	-62.396	-0.154	-0.064
-320.056	154.984	-0.074	0.100
-319.041	800.000	-0.078	0.319
-318.026	800.000	-0.037	0.131
-317.012	146.987	0.175	-0.234
-315.997	132.986	-0.123	0.158
-314.983	-200.000	-0.027	0.175
-313.968	221.111	0.073	-0.116
-312.953	653.989	0.036	-0.091
-311.939	-97.638	0.130	-0.033
-310.924	368.732	-0.066	0.133
-309.910	-147.652	0.394	0.033
-308.895	93.151	0.125	-0.141
-307.880	46.888	-0.102	0.094
-306.866	168.572	-0.131	0.185
-305.851	153.368	0.019	0.026
-304.837	-52.885	-0.107	-0.049
-303.822	378.618	0.040	-0.081
-302.807	-130.106	-0.332	-0.045
-301.793	408.252	-0.059	-0.123
-300.778	-200.000	0.026	0.265
-299.764	59.667	-0.162	0.159
-298.749	-18.433	-0.076	-0.047
-297.735	22.877	0.142	-0.115
-296.720	460.409	0.030	0.066
-295.705	-86.571	-0.132	0.040
-294.691	313.821	-0.017	-0.031
-293.676	-48.142	-0.159	-0.076
-292.662	166.429	0.100	-0.140
-291.647	642.126	-0.153	-0.388
-290.632	-106.421	-0.185	-0.041
-289.618	-70.398	0.115	-0.043
-288.603	-200.000	-0.066	0.300
-287.589	-150.888	-0.096	-0.007
-286.574	-200.000	0.008	0.196
-285.559	82.854	-0.193	-0.208
-284.545	232.475	-0.030	0.049
-283.530	759.821	0.091	-0.244
-282.516	-64.241	-0.289	-0.117
-281.501	-200.000	0.060	0.275
-280.486	-138.899	-0.134	-0.014
-279.472	-59.129	0.237	-0.102
-278.457	-200.000	0.003	-0.060
-277.443	45.099	-0.263	0.240
-276.428	12.114	0.267	0.203
-275.413	200.557	-0.105	0.159
-274.399	195.871	-0.101	-0.153
-273.384	800.000	-0.074	0.206
-272.370	280.834	0.065	0.115
-271.355	800.000	-0.039	0.107
-270.340	800.000	-0.082	0.239
-269.326	-24.537	0.246	-0.145
-268.311	290.054	0.171	-0.308
-267.297	-153.140	-0.225	0.016
-266.282	-94.523	0.363	0.098
-265.267	116.260	-0.083	-0.101
-264.253	800.000	-0.045	-0.169
-263.238	-164.971	0.229	-0.010
-262.224	63.896	0.102	-0.102
-261.209	-102.982	0.197	-0.046
-260.195	800.000	0.036	-0.153
-259.180	-110.781	-0.161	0.033
-258.165	-50.962	0.306	0.142
-257.151	408.773	0.141	-0.297
-256.136	381.391	-0.038	0.076
-255.122	-175.779	0.327	0.009
-254.107	-113.304	0.334	0.065
-253.092	76.463	0.172	-0.181
-252.078	-12.900	-0.138	0.089
-251.063	519.745	-0.116	0.269
-250.049	-140.365	-0.042	-0.004
-249.034	800.000	0.107	-0.461
-248.019	278.210	-0.064	-0.113
-247.005	-200.000	-0.044	0.204
-245.990	32.792	-0.131	-0.112
-244.976	-86.619	-0.219	0.067
-243.961	-28.809	0.065	-0.037
-242.946	800.000	-0.033	-0.142
-241.932	-52.578	0.126	0.058
-240.917	447.866	-0.083	0.181
-239.903	-97.880	0.159	0.041
-238.888	54.187	0.159	0.152
-237.873	157.801	0.197	0.270
-236.859	85.615	-0.524	0.570
-235.844	-97.941	0.314	-0.080
-234.830	-200.000	0.001	-0.169
-233.815	-20.095	0.215	-0.131
-232.800	10.061	-0.163	0.122
-231.786	-200.000	0.050	0.224
-230.771	417.209	-0.029	-0.062
-229.757	-50.208	0.120	0.056
-228.742	171.725	0.098	-0.139
-227.727	-175.219	0.196	-0.005
-226.713	466.045	0.095	0.210
-225.698	-31.632	0.361	-0.200
-224.684	368.603	0.093	0.187
-223.669	-3.707	-0.244	-0.168
-222.655	-65.315	0.098	0.039
-221.640	506.845	0.031	-0.072
-220.625	-181.798	-0.199	-0.004
-219.611	357.611	0.141	0.278
-218.596	348.730	0.125	-0.243
-217.582	21.311	0.313	-0.251
-216.567	-200.000	0.014	0.114
-215.552	800.000	-0.103	-0.322
-214.538	40.738	0.284	0.253
-213.523	-57.320	-0.503	0.219
-212.509	142.208	0.082	0.108
-211.494	18.878	0.270	-0.214
-210.479	110.273	-0.112	-0.133
-209.465	-44.080	0.048	0.024
-208.450	-200.000	0.008	-0.107
-207.436	582.801	0.052	0.127
-206.421	37.567	0.243	-0.213
-205.406	145.153	0.228	-0.301
-204.392	337.113	-0.020	0.037
-203.377	48.335	-0.135	-0.125
-202.363	-200.000	-0.002	-0.146
-201.348	-200.000	0.000	0.309
-200.333	-200.000	-0.001	0.124
-199.319	-151.116	0.213	0.016
-198.304	-200.000	-0.023	-0.108
-197.290	469.508	0.026	0.057
-196.275	-173.472	-0.122	0.004
-195.260	-74.938	0.259	-0.092
-194.246	44.724	0.153	-0.140
-193.231	800.000	0.076	-0.284
-192.217	-86.989	-0.181	0.055
-191.202	-200.000	-0.026	0.155
-190.187	-200.000	-0.011	0.157
-189.173	800.000	-0.011	-0.043
-188.158	-81.239	-0.065	-0.021
-187.144	-77.610	0.070	-0.024
-186.129	-3.186	0.212	-0.146
-185.114	59.577	0.114	-0.111
-184.100	92.596	0.082	0.091
-183.085	-95.566	-0.419	0.111
-182.071	279.357	-0.023	0.040
-181.056	-108.387	0.229	-0.049
-180.042	-130.788	0.282	-0.037
-179.027	-62.022	-0.075	0.031
-178.012	-200.000	0.005	0.072
-176.998	-200.000	-0.040	0.207
-175.983	228.849	0.029	0.046
-174.969	340.183	-0.122	0.236
-173.954	454.635	0.046	0.101
-172.939	9.375	0.158	0.118
-171.925	-31.291	0.064	-0.036
-170.910	-147.656	0.294	-0.024
-169.896	-34.985	0.402	-0.217
-168.881	123.865	0.157	0.195
-167.866	168.517	0.016	0.023
-166.852	-112.631	0.283	0.056
-165.837	-40.436	0.215	-0.110
-164.823	-55.618	-0.058	-0.026
-163.808	-200.000	-0.020	-0.213
-162.793	800.000	0.025	-0.087
-161.779	366.429	0.135	0.270
-160.764	250.645	-0.033	-0.056
-159.750	16.287	-0.180	0.140
-158.735	-0.374	-0.175	-0.123
-157.720	57.070	-0.099	-0.095
-156.706	27.712	-0.207	0.172
-155.691	-200.000	0.028	0.387
-154.677	-79.791	-0.150	-0.050
-153.662	39.443	0.339	0.299
-152.647	306.865	-0.049	-0.091
-151.633	800.000	0.059	0.191
-150.618	-2.943	-0.220	0.151
-149.604	-20.919	0.242	-0.146
-148.589	80.402	0.227	-0.241
-147.574	-103.891	-0.273	-0.063
-146.560	800.000	0.037	-0.157
-145.545	109.941	0.091	0.108
-144.531	336.059	0.107	0.204
-143.516	-7.290	0.301	0.201
-142.502	-153.514	0.297	0.020
-141.487	-103.626	-0.186	-0.043
-140.472	-200.000	-0.066	-0.382
-139.458	537.386	0.054	0.127
-138.443	208.242	-0.199	-0.307
-137.429	-200.000	-0.001	-0.131
-136.414	129.941	-0.279	-0.352
-135.399	-200.000	-0.022	0.123
-134.385	-136.426	-0.068	-0.008
-133.370	-99.568	-0.261	-0.065
-132.356	-94.679	0.225	0.060
-131.341	-132.687	-0.156	0.020
-130.326	-200.000	0.000	0.093
-129.312	251.628	-0.074	-0.123
-128.297	8.902	-0.372	0.276
-127.283	-200.000	0.006	0.264
-126.268	250.421	-0.019	0.032
-125.253	-92.622	-0.237	0.066
-124.239	6.228	0.312	0.228
-123.224	-18.124	0.275	0.170
-122.210	3.426	-0.141	-0.101
-121.195	-104.942	-0.195	0.044
-120.180	513.357	0.127	0.291
-119.166	-200.000	-0.032	0.156
-118.151	79.873	-0.023	-0.024
-117.137	-186.156	-0.058	0.001
-116.122	-53.038	-0.111	0.050
-115.107	-46.656	-0.306	0.148
-114.093	336.027	0.143	0.273
-113.078	-81.167	-0.466	-0.152
-112.064	800.000	-0.045	-0.122
-111.049	35.873	0.185	0.161
-110.034	10.769	0.044	-0.033
-109.020	-173.899	-0.197	0.006
-108.005	125.694	-0.186	0.231
-106.991	-132.330	0.291	0.037
-105.976	-115.847	0.085	0.016
-104.962	-128.091	-0.033	-0.005
-103.947	150.941	0.076	0.102
-102.932	-200.000	0.003	-0.153
-101.918	-200.000	-0.008	-0.367
-100.903	215.932	-0.047	-0.073
-99.889	-63.024	0.011	0.004
-98.874	-87.257	-0.204	0.061
-97.859	-200.000	-0.015	0.232
-96.845	164.057	-0.154	-0.214
-95.830	555.778	-0.097	0.231
-94.816	-74.181	0.161	0.057
-93.801	-91.177	0.160	-0.045
-92.786	800.000	-0.054	-0.159
-91.772	165.548	0.126	-0.176
-90.757	-155.022	-0.120	-0.008
-89.743	-200.000	0.019	0.136
-88.728	456.111	0.157	0.343
-87.713	-109.416	-0.028	-0.006
-86.699	563.786	-0.100	0.239
-85.684	-25.945	0.173	0.100
-84.670	139.601	-0.080	-0.104
-83.655	-8.009	0.067	0.044
-82.640	78.076	0.162	0.170
-81.626	33.073	0.285	-0.243
-80.611	-76.407	-0.276	0.095
-79.597	-175.454	0.088	0.002
-78.582	24.987	-0.106	0.086
-77.567	-200.000	-0.021	0.105
-76.553	26.208	-0.130	0.106
-75.538	-91.310	-0.240	0.067
-74.524	-65.382	-0.196	-0.078
-73.509	-200.000	0.119	0.512
-72.494	433.859	-0.124	-0.264
-71.480	-200.000	0.011	0.075
-70.465	24.450	0.169	-0.137
-69.451	-89.084	-0.086	0.025
-68.436	-200.000	-0.013	-0.328
-67.422	110.544	0.106	-0.125
-66.407	-29.000	-0.232	0.131
-65.392	-153.976	-0.316	0.021
-64.378	-129.073	-0.260	-0.036
-63.363	174.462	-0.060	-0.085
-62.349	800.000	0.111	0.420
-61.334	55.444	-1.065	-1.014
-60.319	50.591	0.635	0.591
-59.305	190.616	-0.592	-0.875
-58.290	800.000	0.278	0.838
-57.276	800.000	0.420	1.565
-56.261	-200.000	93.730	542.711
-55.246	494.457	1417.691	3198.871
-54.232	149.758	2632.836	3507.447
-53.217	103.895	2338.047	2700.342
-52.203	41.673	1951.910	1737.978
-51.188	35.534	1737.931	1499.637
-50.173	32.835	1692.939	1440.188
-49.159	49.775	1737.387	1609.179
-48.144	51.121	1754.207	1635.088
-47.130	35.290	1715.437	1478.113
-46.115	32.439	1701.719	1444.386
-45.100	32.355	1696.391	1439.171
-44.086	32.220	1693.347	1435.499
-43.071	32.218	1690.638	1433.131
-42.057	32.270	1688.551	1431.700
-41.042	32.231	1686.467	1429.577
-40.027	32.224	1684.352	1427.678
-39.013	32.180	1682.579	1425.783
-37.998	32.220	1680.958	1424.652
-36.984	32.252	1679.910	1423.950
-35.969	32.415	1678.534	1423.965
-34.954	32.452	1676.444	1422.410
-33.940	32.396	1674.932	1420.654
-32.925	32.342	1673.007	1418.552
-31.911	32.340	1671.719	1417.393
-30.896	32.384	1669.280	1415.597
-29.881	32.317	1667.919	1413.885
-28.867	32.246	1666.671	1412.235
-27.852	32.354	1664.776	1411.387
-26.838	32.317	1663.113	1409.645
-25.823	32.301	1661.909	1408.444
-24.809	32.402	1660.037	1407.562
-23.794	32.329	1659.053	1406.126
-22.779	32.436	1657.000	1405.129
-21.765	32.406	1655.535	1403.604
-20.750	32.391	1653.813	1401.978
-19.736	32.442	1652.672	1401.336
-18.721	32.446	1651.016	1399.903
-17.706	32.384	1649.476	1398.080
-16.692	32.331	1648.266	1396.609
-15.677	32.352	1646.679	1395.361
-14.663	32.433	1645.493	1394.903
-13.648	32.331	1644.156	1392.961
-12.633	32.378	1642.000	1391.425
-11.619	32.427	1640.407	1390.382
-10.604	32.403	1639.193	1389.124
-9.590	32.364	1638.169	1387.912
-8.575	32.442	1636.439	1386.965
-7.560	32.403	1635.286	1385.643
-6.546	32.426	1633.961	1384.634
-5.531	32.427	1633.381	1384.100
-4.517	32.335	1632.287	1382.439
-3.502	32.390	1631.052	1381.741
-2.487	32.453	1629.468	1380.804
-1.473	32.457	1617.626	1370.748
-0.458	30.028	1598.185	1336.715
0.556	25.194	1598.122	1300.907
1.571	21.975	1619.497	1294.498
2.586	20.684	1630.571	1293.638
3.600	18.327	1577.503	1234.450
4.615	10.386	1464.521	1092.580
5.629	2.668	1398.275	993.216
6.644	1.136	1388.810	976.544
7.659	1.086	1388.262	975.751
8.673	1.081	1386.639	974.492
9.688	1.008	1384.946	972.745
10.702	0.768	1381.924	969.001
11.717	4.036	1386.985	993.455
12.731	11.613	1398.390	1050.397
13.746	16.592	1405.494	1087.730
14.761	17.453	1405.513	1093.182
15.775	16.893	1403.672	1088.059
16.790	15.887	1401.077	1079.505
17.804	15.123	1398.656	1072.650
18.819	14.745	1397.446	1069.213
19.834	14.490	1395.573	1066.052
20.848	14.104	1394.944	1063.012
21.863	13.790	1393.642	1059.920
22.877	13.720	1391.676	1057.887
23.892	13.663	1391.153	1057.033
24.907	13.662	1389.764	1055.874
25.921	13.675	1389.105	1055.365
26.936	13.733	1388.331	1055.050
27.950	13.773	1387.172	1054.332
28.965	13.774	1386.618	1053.822
29.980	13.821	1385.363	1053.074
30.994	13.890	1384.563	1052.809
32.009	13.843	1383.459	1051.580
33.023	13.915	1382.104	1050.911
34.038	13.868	1380.754	1049.498
35.053	13.773	1380.020	1048.243
36.067	13.824	1378.951	1047.660
37.082	13.820	1377.990	1046.817
38.096	13.742	1377.413	1045.791
39.111	13.841	1376.633	1045.732
40.126	13.783	1375.452	1044.377
41.140	13.628	1375.147	1043.078
42.155	13.745	1374.203	1043.005
43.169	13.655	1374.368	1042.469
44.184	13.727	1373.534	1042.198
45.199	13.631	1373.262	1041.295
46.213	13.623	1373.134	1041.054
47.228	13.649	1371.738	1040.069
48.242	13.771	1370.471	1039.782
49.257	13.598	1369.586	1037.932
50.271	13.694	1368.082	1037.303
51.286	13.714	1366.415	1036.075
52.301	13.793	1364.801	1035.249
53.315	13.702	1364.020	1034.000
54.330	13.765	1362.768	1033.350
55.344	13.726	1361.556	1032.095
56.359	13.733	1360.349	1031.133
57.374	13.709	1359.556	1030.291
58.388	13.660	1359.038	1029.508
59.403	13.628	1358.247	1028.614
60.417	13.615	1357.648	1027.990
61.432	13.575	1356.642	1026.889
62.447	13.443	1355.822	1025.359
63.461	13.635	1354.042	1025.113
64.476	13.556	1353.272	1023.951
65.490	13.627	1352.039	1023.367
66.505	13.554	1350.822	1021.904
67.520	13.537	1349.597	1020.780
68.534	13.652	1348.264	1020.391
69.549	13.652	1347.084	1019.410
70.563	13.582	1346.312	1018.300
71.578	13.635	1344.684	1017.307
72.593	13.641	1343.592	1016.428
73.607	13.601	1342.934	1015.594
74.622	13.581	1342.265	1014.878
75.636	13.538	1341.466	1013.919
76.651	13.493	1340.993	1013.198
77.666	13.566	1340.258	1012.998
78.680	13.580	1339.636	1012.522
79.695	13.478	1339.506	1011.710
80.709	13.629	1337.995	1011.405
81.724	13.643	1337.234	1010.825
82.739	13.587	1335.799	1009.311
83.753	13.690	1334.923	1009.182
84.768	13.682	1334.240	1008.531
85.782	13.796	1332.472	1007.796
86.797	13.772	1331.346	1006.710
87.812	13.667	1330.287	1005.183
88.826	13.594	1329.299	1003.908
89.841	13.713	1327.709	1003.334
90.855	13.778	1326.973	1003.085
91.870	13.770	1326.162	1002.332
92.884	13.789	1325.278	1001.690
93.899	13.718	1324.532	1000.612
94.914	13.814	1323.726	1000.492
95.928	13.877	1323.024	1000.256
96.943	13.813	1322.052	999.045
97.957	13.801	1321.247	998.277
98.972	13.783	1320.132	997.239
99.987	13.812	1318.987	996.459
101.001	13.716	1317.922	994.991
102.016	13.792	1317.112	994.745
103.030	13.857	1316.143	994.316
104.045	13.780	1315.328	993.149
105.060	13.790	1313.738	991.922
106.074	13.781	1312.479	990.828
107.089	13.695	1311.495	989.484
108.103	13.658	1310.422	988.371
109.118	13.708	1308.806	987.358
110.133	13.629	1307.837	986.068
111.147	13.737	1305.844	985.123
112.162	13.756	1304.628	984.232
113.176	13.694	1303.834	983.175
114.191	13.805	1302.488	982.732
115.206	13.704	1302.047	981.718
116.220	13.721	1300.535	980.592
117.235	13.753	1299.422	979.855
118.249	13.797	1298.075	979.008
119.264	13.783	1296.724	977.820
120.279	13.715	1296.190	976.930
121.293	13.775	1294.949	976.262
122.308	13.686	1294.115	975.022
123.322	13.659	1293.187	974.080
124.337	13.718	1291.968	973.424
125.352	13.670	1290.814	972.186
126.366	13.716	1289.287	971.218
127.381	13.709	1288.883	970.790
128.395	13.685	1287.349	969.404
129.410	13.692	1286.334	968.595
130.424	13.779	1285.320	968.253
131.439	13.786	1284.474	967.573
132.454	13.806	1283.140	966.597
133.468	13.809	1282.902	966.349
134.483	13.816	1282.008	965.634
135.497	13.779	1280.828	964.445
136.512	13.724	1279.569	963.093
137.527	13.764	1278.108	962.138
138.541	13.790	1276.566	961.045
139.556	13.783	1275.557	960.158
140.570	13.824	1274.640	959.617
141.585	13.852	1273.258	958.655
142.600	13.890	1272.007	957.852
143.614	13.898	1271.105	957.132
144.629	14.003	1269.540	956.471
145.643	13.865	1268.646	954.918
146.658	13.909	1267.457	954.196
147.673	13.836	1266.150	952.704
148.687	13.741	1265.271	951.417
149.702	13.822	1263.427	950.407
150.716	13.728	1262.406	949.017
151.731	13.804	1261.100	948.386
152.746	13.948	1259.835	948.176
153.760	13.896	1258.634	946.890
154.775	13.915	1257.419	946.001
155.789	13.951	1256.537	945.459
156.804	13.969	1255.540	944.724
157.819	14.043	1254.355	944.170
158.833	13.986	1253.591	943.189
159.848	14.060	1252.595	942.778
160.862	14.108	1251.287	941.981
161.877	13.953	1250.238	940.230
162.892	13.967	1249.443	939.632
163.906	13.930	1248.519	938.641
164.921	14.066	1247.859	938.833
165.935	14.084	1246.366	937.724
166.950	14.088	1246.019	937.406
167.964	14.024	1245.504	936.573
168.979	14.039	1244.693	935.962
169.994	13.952	1243.923	934.815
171.008	14.016	1243.117	934.486
172.023	14.216	1241.967	934.660
173.037	14.073	1241.427	933.367
174.052	14.171	1240.757	933.332
175.067	14.125	1239.494	932.041
176.081	14.128	1238.385	931.142
177.096	14.106	1237.522	930.287
178.110	14.171	1236.327	929.671
179.125	14.208	1235.150	928.911
180.140	14.197	1233.683	927.666
181.154	14.169	1233.016	926.926
182.169	14.219	1231.463	925.953
183.183	14.233	1230.045	924.881
184.198	14.347	1229.219	924.813
185.213	14.370	1228.221	924.106
186.227	14.295	1227.029	922.713
187.242	14.301	1226.251	922.077
188.256	14.350	1225.141	921.435
189.271	14.258	1224.468	920.336
190.286	14.370	1222.925	919.714
191.300	14.178	1222.671	918.385
192.315	14.140	1222.177	917.724
193.329	14.275	1221.278	917.711
194.344	14.294	1220.492	917.141
195.359	14.295	1219.926	916.641
196.373	14.309	1219.406	916.246
197.388	14.385	1218.688	916.044
198.402	14.301	1218.640	915.466
199.417	14.372	1217.873	915.199
200.432	14.524	1217.200	915.443
201.446	14.569	1215.701	914.485
202.461	14.490	1214.852	913.330
203.475	14.547	1213.977	912.905
204.490	14.543	1212.966	912.041
205.504	14.527	1211.623	910.862
206.519	14.585	1210.448	910.214
207.534	14.564	1209.329	909.180
208.548	14.618	1208.487	908.761
209.563	14.491	1207.849	907.510
210.577	14.654	1206.051	906.964
211.592	14.542	1205.899	906.159
212.607	14.663	1204.650	905.800
213.621	14.682	1203.943	905.290
214.636	14.604	1203.283	904.289
215.650	14.742	1201.941	903.949
216.665	14.739	1201.029	903.167
217.680	14.645	1200.378	902.088
218.694	14.697	1199.751	901.817
219.709	14.767	1198.471	901.153
220.723	14.719	1197.952	900.425
221.738	14.779	1197.492	900.326
222.753	14.793	1196.806	899.802
223.767	14.767	1195.914	898.911
224.782	14.791	1195.473	898.634
225.796	14.849	1194.940	898.461
226.811	14.855	1193.767	897.533
227.826	14.862	1192.933	896.868
228.840	14.910	1192.282	896.555
229.855	14.881	1191.634	895.829
230.869	14.868	1191.086	895.272
231.884	14.938	1189.870	894.651
232.899	14.809	1189.319	893.472
233.913	14.752	1188.457	892.440
234.928	14.944	1187.052	892.328
235.942	14.849	1186.622	891.418
236.957	14.825	1186.019	890.762
237.972	14.855	1185.410	890.384
238.986	14.888	1185.048	890.208
240.001	14.939	1184.521	890.005
241.015	14.949	1182.941	888.791
242.030	14.958	1182.435	888.382
243.045	15.030	1181.836	888.234
244.059	15.007	1180.825	887.276
245.074	14.986	1180.046	886.498
246.088	15.076	1178.890	886.030
247.103	15.139	1178.236	885.790
248.117	15.102	1177.410	884.896
249.132	15.296	1176.488	885.148
250.147	15.244	1176.352	884.696
251.161	15.226	1175.426	883.827
252.176	15.206	1174.748	883.134
253.190	15.316	1173.649	882.810
254.205	15.286	1173.306	882.315
255.220	15.424	1172.864	882.629
256.234	15.313	1171.889	881.231
257.249	15.359	1171.284	880.943
258.263	15.282	1171.201	880.396
259.278	15.412	1170.070	880.152
260.293	15.524	1169.207	880.012
261.307	15.462	1168.951	879.418
262.322	15.439	1168.469	878.856
263.336	15.537	1167.327	878.428
264.351	15.440	1167.278	877.810
265.366	15.478	1166.631	877.441
266.380	15.571	1165.466	876.975
267.395	15.586	1164.620	876.341
268.409	15.541	1163.895	875.482
269.424	15.532	1163.501	875.061
270.439	15.523	1162.859	874.452
271.453	15.608	1161.827	874.043
272.468	15.638	1160.608	873.203
273.482	15.524	1160.230	872.250
274.497	15.543	1159.689	871.865
275.512	15.577	1158.981	871.433
276.526	15.629	1158.171	871.015
277.541	15.699	1157.265	870.620
278.555	15.620	1156.870	869.834
279.570	15.655	1155.761	869.106
280.585	15.680	1154.842	868.468
281.599	15.709	1154.374	868.187
282.614	15.629	1153.218	866.828
283.628	15.710	1152.176	866.386
284.643	15.646	1150.951	865.059
285.657	15.738	1150.637	865.218
286.672	15.712	1149.618	864.245
287.687	15.830	1148.196	863.706
288.701	15.745	1148.250	863.234
289.716	15.773	1147.188	862.500
290.730	15.828	1146.355	862.079
291.745	15.812	1145.583	861.339
292.760	15.937	1144.420	861.029
293.774	15.994	1144.040	860.958
294.789	16.024	1143.385	860.541
295.803	15.933	1143.269	859.913
296.818	15.988	1142.320	859.406
297.833	15.895	1141.856	858.506
298.847	15.998	1140.907	858.243
299.862	15.984	1140.199	857.560
300.876	16.029	1139.440	857.142
301.891	15.992	1138.720	856.338
302.906	16.032	1138.008	855.931
303.920	16.071	1137.382	855.583
304.935	16.103	1136.483	854.993
305.949	16.135	1136.007	854.719
306.964	16.117	1135.374	854.076
307.979	16.192	1134.365	853.621
308.993	16.168	1133.836	853.025
310.008	16.154	1132.805	852.107
311.022	16.351	1132.126	852.512
312.037	16.256	1131.298	851.334
313.052	16.191	1130.380	850.244
314.066	16.112	1129.655	849.222
315.081	16.194	1128.667	848.816
316.095	16.233	1127.752	848.249
317.110	16.336	1127.000	848.129
318.125	16.281	1126.299	847.251
319.139	16.040	1125.927	845.686
320.154	16.140	1125.363	845.686
321.168	16.190	1124.399	845.139
322.183	16.225	1123.827	844.808
323.197	16.250	1123.265	844.435
324.212	16.327	1122.504	844.175
325.227	16.352	1121.761	843.669
326.241	16.349	1121.235	843.183
327.256	16.384	1120.176	842.486
328.270	16.339	1119.566	841.730
329.285	16.215	1118.568	840.287
330.300	16.246	1117.699	839.715
331.314	16.366	1116.452	839.296
332.329	16.431	1115.651	838.942
333.343	16.333	1115.239	838.076
334.358	16.326	1114.337	837.289
335.373	16.428	1113.748	837.276
336.387	16.492	1112.546	836.615
337.402	16.426	1112.147	835.917
338.416	16.463	1111.415	835.475
339.431	16.535	1110.508	835.071
340.446	16.513	1109.943	834.464
341.460	16.599	1109.138	834.211
342.475	16.686	1108.172	833.841
343.489	16.685	1107.071	832.930
344.504	16.721	1106.327	832.476
345.519	16.694	1105.399	831.569
346.533	16.800	1104.812	831.578
347.548	16.771	1103.911	830.681
348.562	16.774	1103.079	829.998
349.577	16.649	1102.634	828.975
350.592	16.773	1101.725	828.827
351.606	16.769	1100.844	828.070
352.621	16.681	1100.483	827.295
353.635	16.579	1099.793	826.206
354.650	16.714	1099.207	826.354
355.665	16.722	1098.474	825.765
356.679	16.823	1097.535	825.482
357.694	16.859	1097.016	825.191
358.708	16.713	1096.560	824.065
359.723	16.765	1095.692	823.592
360.738	16.869	1095.135	823.606
361.752	16.849	1094.899	823.259
362.767	16.807	1094.098	822.378
363.781	16.930	1092.902	822.003
364.796	17.031	1092.528	822.137
365.810	16.980	1092.277	821.629
366.825	16.932	1091.524	820.757
367.840	17.115	1090.710	820.960
368.854	17.174	1089.890	820.553
369.869	17.066	1089.427	819.614
370.883	17.141	1088.287	819.046
371.898	17.120	1087.992	818.650
372.913	17.202	1087.374	818.506
373.927	17.241	1087.145	818.448
374.942	17.143	1086.483	817.405
375.956	17.196	1085.739	817.028
376.971	17.214	1085.202	816.641
377.986	17.313	1084.292	816.355
379.000	17.203	1084.037	815.564
380.015	17.194	1083.732	815.218
381.029	17.355	1082.808	815.223
382.044	17.275	1082.116	814.248
383.059	17.413	1081.097	814.070
384.073	17.423	1080.251	813.408
385.088	17.305	1079.559	812.252
386.102	17.419	1078.280	811.760
387.117	17.366	1077.486	810.840
388.132	17.265	1077.113	810.004
389.146	17.304	1076.331	809.532
390.161	17.302	1075.535	808.851
391.175	17.496	1074.759	809.117
392.190	17.459	1073.896	808.221
393.205	17.453	1073.374	807.730
394.219	17.371	1072.592	806.680
395.234	17.365	1071.453	805.726
396.248	17.490	1070.399	805.453
397.263	17.404	1069.408	804.230
398.278	17.462	1068.761	803.946
399.292	17.374	1068.801	803.486
400.307	17.385	1067.590	802.559
401.321	17.439	1066.926	802.241
402.336	17.428	1066.700	801.951
403.350	17.462	1065.448	801.099
404.365	17.524	1064.718	800.770
405.380	17.518	1064.349	800.391
406.394	17.633	1063.096	799.920
407.409	17.619	1062.391	799.252
408.423	17.533	1061.874	798.387
409.438	17.681	1061.149	798.470
410.453	17.705	1060.636	798.124
411.467	17.747	1059.587	797.459
412.482	17.690	1059.293	796.902
413.496	17.734	1058.590	796.509
414.511	17.742	1057.866	795.928
415.526	17.857	1057.647	796.230
416.540	17.852	1057.362	795.921
417.555	17.795	1056.673	795.066
418.569	17.821	1056.353	794.876
419.584	17.969	1055.406	794.782
420.599	17.982	1054.774	794.297
421.613	102.503	1320.832	1459.429
422.628	94.502	1359.560	1459.522
