DTS Sentinel unit serial number:	SN413079Multiplexer serial number:	ORYXHardware model number:	OX4-SRSoftware version number:	ORYX F/W v4.00 Oryx Data Collector v3.7.2.0data status	okinstallation	princeton_trtdifferential loss correction	single-endedforward channel	channel 2reverse channel	N/Adate	2019/09/18time	02:15:35forward acquisition time	60.00reverse acquisition time	0.00gamma	496.2192k internal	0.2350k external	0.2350temperature offset calibration	0.9986default loss term (dB/km)	0.3790temperature slope calibration	1.0000multiplexer offset coefficient	1.0000multiplexer slope coefficient	1.0000fibre end	0.00T internal ref (°C)	22.81T ext. ref 1 (°C)	0.17T ext. ref 2 (°C)	16.73length (m)	temperature (°C)	Stokes	anti-Stokes-747.200	800.000	0.086	0.362
-746.185	-200.000	-0.030	0.561
-745.171	-82.625	0.359	0.116
-744.156	-200.000	-0.065	0.304
-743.142	800.000	0.069	-0.213
-742.127	-33.252	0.154	0.085
-741.112	800.000	-0.054	0.156
-740.098	604.866	0.159	0.395
-739.083	-16.189	0.090	-0.057
-738.069	444.331	-0.097	0.213
-737.054	14.637	0.121	-0.094
-736.039	-69.550	-0.113	0.043
-735.025	-11.830	-0.125	0.082
-734.010	159.871	-0.111	-0.154
-732.996	137.784	0.273	0.357
-731.981	226.039	0.053	0.086
-730.966	-115.882	-0.197	-0.037
-729.952	-200.000	0.011	-0.132
-728.937	800.000	-0.030	-0.091
-727.923	-17.745	0.311	-0.195
-726.908	-148.999	-0.345	-0.028
-725.894	25.124	0.098	-0.081
-724.879	-170.629	0.139	0.005
-723.864	-15.977	-0.263	-0.167
-722.850	237.708	0.040	-0.066
-721.835	462.846	0.107	-0.239
-720.821	-78.111	0.252	0.086
-719.806	-120.811	0.153	-0.026
-718.791	-67.856	-0.235	0.092
-717.777	-15.592	0.204	0.130
-716.762	98.654	0.240	-0.276
-715.748	36.348	0.125	-0.110
-714.733	-131.613	-0.122	-0.016
-713.718	-5.804	0.142	0.097
-712.704	-3.060	-0.093	0.065
-711.689	45.714	-0.383	-0.353
-710.675	-34.037	-0.307	0.168
-709.660	-200.000	0.026	0.185
-708.645	107.240	0.141	-0.167
-707.631	-200.000	0.043	0.276
-706.616	76.024	-0.154	0.163
-705.602	311.409	0.103	-0.193
-704.587	-82.936	-0.091	-0.029
-703.572	58.873	0.197	-0.193
-702.558	-28.665	0.145	0.083
-701.543	-45.471	0.283	-0.140
-700.529	29.473	0.154	0.130
-699.514	800.000	0.011	0.043
-698.499	257.015	-0.007	0.012
-697.485	-97.059	-0.071	-0.019
-696.470	-144.045	0.204	0.019
-695.456	-117.570	0.192	0.035
-694.441	316.675	-0.094	-0.177
-693.426	-77.704	-0.092	0.032
-692.412	28.705	0.046	-0.039
-691.397	109.896	0.155	0.185
-690.383	-200.000	-0.062	-0.272
-689.368	-200.000	0.005	-0.140
-688.354	-82.015	0.550	0.179
-687.339	-148.382	-0.030	0.002
-686.324	-52.488	-0.163	-0.075
-685.310	-200.000	0.004	-0.103
-684.295	109.942	-0.157	-0.188
-683.281	-200.000	0.019	0.135
-682.266	-200.000	-0.007	0.081
-681.251	-200.000	0.010	-0.062
-680.237	292.202	0.141	-0.256
-679.222	278.631	0.090	-0.160
-678.208	49.530	0.081	0.076
-677.193	66.301	0.414	0.419
-676.178	211.643	0.192	0.301
-675.164	107.690	-0.209	-0.247
-674.149	-47.060	0.178	0.087
-673.135	76.287	0.012	-0.013
-672.120	-10.598	-0.182	0.120
-671.105	800.000	0.078	0.243
-670.091	-124.747	-0.120	0.018
-669.076	398.762	-0.109	-0.228
-668.062	-98.288	0.137	0.035
-667.047	800.000	0.078	0.312
-666.032	-152.199	0.230	-0.017
-665.018	352.578	0.068	0.134
-664.003	14.710	-0.265	-0.206
-662.989	615.913	0.043	0.107
-661.974	-92.535	0.494	-0.138
-660.959	147.800	-0.180	0.242
-659.945	-84.415	0.089	-0.028
-658.930	-59.523	0.188	0.080
-657.916	-43.003	-0.182	-0.092
-656.901	-200.000	0.004	-0.325
-655.886	230.792	-0.123	0.200
-654.872	-94.782	-0.039	-0.010
-653.857	-74.197	0.157	0.057
-652.843	-155.998	-0.123	0.008
-651.828	304.461	-0.010	-0.018
-650.814	-74.122	0.494	0.178
-649.799	-68.648	0.126	0.048
-648.784	-29.142	-0.135	0.077
-647.770	-200.000	-0.034	-0.182
-646.755	-19.357	-0.081	-0.050
-645.741	800.000	-0.093	-0.337
-644.726	239.223	0.033	-0.055
-643.711	-200.000	-0.040	-0.257
-642.697	-85.337	0.033	0.010
-641.682	125.478	-0.204	-0.256
-640.668	-107.378	-0.251	-0.055
-639.653	-111.901	-0.216	-0.043
-638.638	118.506	-0.286	-0.351
-637.624	800.000	-0.048	-0.172
-636.609	-200.000	-0.000	0.389
-635.595	345.990	-0.037	-0.073
-634.580	-69.241	-0.168	-0.064
-633.565	800.000	-0.042	0.144
-632.551	-75.736	0.168	-0.059
-631.536	800.000	-0.072	-0.219
-630.522	-99.572	0.269	0.067
-629.507	407.109	-0.030	0.063
-628.492	-163.533	-0.081	-0.004
-627.478	18.452	-0.143	-0.114
-626.463	31.474	-0.296	-0.253
-625.449	3.741	-0.132	-0.096
-624.434	222.008	-0.156	-0.249
-623.419	715.184	0.040	0.104
-622.405	69.552	-0.219	0.224
-621.390	58.134	-0.134	-0.131
-620.376	-200.000	0.017	-0.105
-619.361	-200.000	0.064	-0.433
-618.346	-117.031	-0.265	0.048
-617.332	431.199	0.055	-0.119
-616.317	31.989	-0.132	0.113
-615.303	408.296	0.096	-0.202
-614.288	209.740	-0.148	0.231
-613.273	0.050	0.187	-0.133
-612.259	94.015	-0.218	-0.245
-611.244	50.575	-0.081	-0.076
-610.230	-178.468	0.114	-0.003
-609.215	9.478	-0.288	0.216
-608.201	-6.698	0.234	-0.158
-607.186	-200.000	-0.005	-0.101
-606.171	38.834	0.280	-0.248
-605.157	-75.192	0.313	0.111
-604.142	800.000	-0.074	-0.280
-603.128	-21.397	-0.066	-0.040
-602.113	-189.084	0.183	-0.002
-601.098	-108.652	0.071	0.015
-600.084	-100.132	-0.266	0.066
-599.069	-60.675	-0.276	0.116
-598.055	-200.000	0.041	0.296
-597.040	-167.801	0.123	0.005
-596.025	34.880	-0.186	-0.162
-595.011	-130.589	0.097	-0.013
-593.996	-200.000	-0.008	0.157
-592.982	572.940	-0.051	-0.123
-591.967	106.477	-0.045	-0.053
-590.952	362.655	-0.088	-0.175
-589.938	800.000	0.143	0.506
-588.923	-89.814	0.063	0.018
-587.909	-200.000	0.010	-0.055
-586.894	-159.820	-0.219	0.012
-585.879	-200.000	0.016	0.096
-584.865	-28.407	-0.219	-0.125
-583.850	-200.000	0.020	-0.263
-582.836	551.867	-0.169	-0.402
-581.821	-24.315	0.074	-0.044
-580.806	-18.256	0.228	0.141
-579.792	142.958	0.163	0.215
-578.777	99.875	-0.133	0.153
-577.763	-102.796	0.175	-0.041
-576.748	249.542	-0.114	-0.192
-575.733	32.871	0.230	0.198
-574.719	-200.000	0.015	-0.240
-573.704	122.385	-0.113	-0.140
-572.690	800.000	0.129	-0.376
-571.675	-88.112	-0.027	-0.008
-570.661	-98.588	0.359	-0.091
-569.646	38.323	-0.495	-0.437
-568.631	-200.000	-0.019	-0.626
-567.617	-169.358	0.335	0.012
-566.602	-60.745	0.190	0.080
-565.588	137.436	0.161	-0.209
-564.573	-92.012	-0.166	0.046
-563.558	-171.005	0.270	0.009
-562.544	438.638	-0.035	-0.076
-561.529	-200.000	0.028	0.319
-560.515	800.000	-0.040	0.119
-559.500	-32.378	0.200	-0.111
-558.485	403.736	0.152	-0.317
-557.471	38.954	0.109	0.096
-556.456	1.931	0.002	0.002
-555.442	210.060	0.100	-0.156
-554.427	125.993	-0.181	0.227
-553.412	38.603	0.223	-0.197
-552.398	82.006	-0.051	-0.054
-551.383	-29.706	-0.164	-0.093
-550.369	68.108	0.175	0.177
-549.354	-31.010	-0.159	0.089
-548.339	-200.000	-0.002	-0.154
-547.325	405.541	-0.034	0.072
-546.310	311.457	-0.112	0.209
-545.296	-117.136	-0.123	0.022
-544.281	72.557	0.124	0.129
-543.266	-200.000	-0.398	-0.001
-542.252	800.000	-0.137	-0.417
-541.237	-54.786	0.229	-0.103
-540.223	305.919	0.142	-0.262
-539.208	-200.000	-0.021	-0.283
-538.193	484.835	-0.117	0.263
-537.179	-44.886	0.306	0.151
-536.164	-36.707	-0.252	0.134
-535.150	-200.000	-0.033	-0.151
-534.135	264.899	-0.032	0.055
-533.121	53.466	-0.314	0.298
-532.106	-134.364	0.342	0.042
-531.091	800.000	-0.027	-0.074
-530.077	-176.251	0.128	0.003
-529.062	-93.499	-0.255	-0.070
-528.048	-200.000	-0.007	0.105
-527.033	204.975	0.176	-0.270
-526.018	-133.723	-0.152	-0.019
-525.004	800.000	-0.054	0.212
-523.989	68.531	-0.139	-0.141
-522.975	-140.660	-0.034	0.003
-521.960	342.866	0.167	0.323
-520.945	-200.000	-0.055	0.314
-519.931	45.466	-0.074	-0.067
-518.916	262.773	-0.076	-0.131
-517.902	-20.955	-0.208	0.126
-516.887	-200.000	0.018	-0.170
-515.872	-200.000	0.005	0.151
-514.858	-200.000	0.035	0.251
-513.843	79.944	0.236	-0.251
-512.829	344.954	0.082	-0.160
-511.814	800.000	0.056	0.220
-510.799	800.000	-0.034	0.128
-509.785	-200.000	-0.011	0.071
-508.770	-67.819	-0.186	-0.072
-507.756	-84.928	0.042	-0.013
-506.741	386.231	-0.059	0.121
-505.726	-82.891	0.062	-0.020
-504.712	-146.071	-0.079	0.007
-503.697	-97.415	-0.101	-0.026
-502.683	-60.878	-0.160	-0.067
-501.668	800.000	-0.020	0.077
-500.653	-41.732	0.178	0.090
-499.639	-48.629	0.161	0.077
-498.624	-28.943	-0.070	-0.040
-497.610	346.545	-0.056	0.109
-496.595	800.000	0.062	-0.213
-495.581	-67.351	-0.074	0.029
-494.566	383.816	0.188	-0.383
-493.551	-93.997	0.229	-0.062
-492.537	163.752	-0.182	-0.254
-491.522	148.054	-0.174	0.232
-490.508	97.218	0.158	0.179
-489.493	39.849	-0.232	0.206
-488.478	-200.000	0.018	-0.124
-487.464	-200.000	-0.223	-0.001
-486.449	-99.896	-0.238	-0.059
-485.435	-200.000	0.009	-0.188
-484.420	-153.428	0.161	0.011
-483.405	151.614	0.159	0.214
-482.391	-200.000	0.079	-0.356
-481.376	-97.669	-0.207	-0.053
-480.362	-77.884	-0.181	0.062
-479.347	61.084	0.218	-0.214
-478.332	6.751	-0.179	-0.132
-477.318	-200.000	0.001	0.046
-476.303	-100.590	0.206	0.050
-475.289	-52.975	0.201	0.091
-474.274	105.222	-0.110	-0.128
-473.259	-200.000	-0.027	0.197
-472.245	-92.372	-0.162	-0.045
-471.230	-49.861	-0.235	-0.110
-470.216	-109.004	-0.189	-0.040
-469.201	-179.158	0.058	-0.001
-468.186	2.055	-0.184	0.132
-467.172	61.491	-0.066	-0.065
-466.157	32.558	-0.082	0.070
-465.143	-200.000	0.003	0.097
-464.128	800.000	0.151	-0.482
-463.113	-55.002	0.122	-0.054
-462.099	800.000	-0.074	0.271
-461.084	800.000	-0.074	0.268
-460.070	40.521	0.165	0.147
-459.055	-124.594	0.193	-0.030
-458.040	-91.697	-0.122	0.034
-457.026	95.539	0.027	-0.031
-456.011	800.000	-0.070	0.205
-454.997	-131.269	-0.173	-0.023
-453.982	-99.965	0.120	-0.030
-452.968	15.671	-0.161	0.125
-451.953	8.267	-0.174	0.129
-450.938	-70.584	0.253	0.094
-449.924	-157.174	-0.132	0.008
-448.909	-200.000	-0.017	0.155
-447.895	-200.000	0.017	0.105
-446.880	327.080	-0.189	0.357
-445.865	-200.000	-0.040	-0.239
-444.851	125.583	-0.112	-0.139
-443.836	-147.034	0.129	-0.011
-442.822	24.344	0.151	-0.123
-441.807	472.898	-0.030	0.066
-440.792	-97.239	0.183	0.047
-439.778	-53.397	-0.172	-0.078
-438.763	-200.000	-0.038	0.257
-437.749	236.819	-0.144	0.235
-436.734	-134.822	-0.085	0.010
-435.719	800.000	-0.074	0.210
-434.705	127.560	0.272	0.340
-433.690	-40.046	0.075	0.039
-432.676	-45.646	0.057	-0.028
-431.661	-18.446	-0.142	0.087
-430.646	221.105	0.195	0.308
-429.632	-159.300	-0.257	-0.014
-428.617	-51.600	0.047	-0.022
-427.603	4.281	-0.070	-0.050
-426.588	-137.240	0.289	0.032
-425.573	-144.720	-0.248	0.022
-424.559	-200.000	-0.006	0.204
-423.544	-200.000	-0.018	0.185
-422.530	800.000	0.087	-0.250
-421.515	-200.000	-0.024	-0.161
-420.500	800.000	-0.059	0.180
-419.486	12.079	0.145	-0.110
-418.471	-200.000	0.055	0.277
-417.457	800.000	-0.036	-0.137
-416.442	51.547	0.224	0.210
-415.428	-54.822	-0.092	-0.041
-414.413	-200.000	-0.027	-0.118
-413.398	74.699	-0.082	0.085
-412.384	-200.000	-0.026	-0.369
-411.369	-138.133	-0.017	0.002
-410.355	-84.158	-0.130	-0.041
-409.340	49.026	0.201	0.186
-408.325	-200.000	0.005	-0.199
-407.311	674.214	-0.141	-0.360
-406.296	-200.000	-0.004	-0.035
-405.282	-55.627	0.169	0.075
-404.267	-95.290	0.130	-0.034
-403.252	-200.000	0.010	-0.059
-402.238	7.996	-0.135	-0.100
-401.223	800.000	-0.109	-0.340
-400.209	370.612	0.030	0.061
-399.194	39.128	-0.043	-0.037
-398.179	800.000	-0.073	-0.213
-397.165	523.326	0.124	-0.287
-396.150	108.282	-0.043	0.051
-395.136	-156.685	0.289	-0.018
-394.121	-200.000	0.067	0.343
-393.106	52.084	0.082	0.077
-392.092	-200.000	-0.021	0.134
-391.077	800.000	0.039	0.114
-390.063	107.006	0.068	-0.080
-389.048	62.615	0.062	-0.061
-388.033	-145.716	-0.175	-0.015
-387.019	274.038	-0.279	-0.486
-386.004	105.987	-0.093	-0.108
-384.990	175.684	0.106	0.152
-383.975	46.019	0.069	0.063
-382.960	-2.229	-0.269	0.186
-381.946	-40.429	0.183	0.094
-380.931	-154.332	-0.196	0.013
-379.917	-56.847	0.146	0.063
-378.902	196.239	-0.144	-0.216
-377.888	800.000	0.035	-0.119
-376.873	-137.619	-0.049	-0.005
-375.858	26.496	0.366	-0.301
-374.844	150.945	-0.129	-0.173
-373.829	-200.000	-0.010	-0.055
-372.815	-104.482	0.193	0.044
-371.800	-36.094	0.249	-0.132
-370.785	339.036	0.132	-0.253
-369.771	71.969	-0.074	0.076
-368.756	28.939	0.129	0.107
-367.742	800.000	0.057	0.202
-366.727	82.308	0.019	-0.020
-365.712	747.156	-0.077	-0.204
-364.698	800.000	-0.056	0.222
-363.683	-61.296	-0.267	-0.110
-362.669	442.267	0.102	0.220
-361.654	-53.185	-0.085	-0.038
-360.639	-106.083	0.063	0.014
-359.625	-86.705	-0.204	-0.062
-358.610	-7.394	0.196	0.130
-357.596	800.000	0.045	0.122
-356.581	-151.386	0.036	-0.003
-355.566	-43.557	-0.084	-0.042
-354.552	-83.967	-0.235	0.073
-353.537	270.709	0.172	-0.297
-352.523	-135.443	-0.073	0.009
-351.508	-200.000	-0.014	-0.097
-350.493	-79.717	0.197	-0.065
-349.479	3.457	-0.270	0.193
-348.464	45.536	0.143	-0.129
-347.450	226.420	0.100	-0.160
-346.435	151.384	0.108	0.145
-345.420	800.000	0.118	0.433
-344.406	800.000	-0.036	-0.111
-343.391	-200.000	0.010	0.211
-342.377	-35.134	0.061	-0.033
-341.362	-103.526	0.199	0.046
-340.348	-200.000	0.001	0.217
-339.333	270.422	0.082	-0.142
-338.318	15.816	0.262	0.202
-337.304	27.709	-0.083	-0.069
-336.289	-132.826	0.381	-0.048
-335.275	-32.323	-0.004	-0.002
-334.260	9.485	-0.036	0.027
-333.245	-32.567	0.388	0.212
-332.231	258.835	-0.115	0.195
-331.216	-39.463	0.163	-0.084
-330.202	-128.569	-0.507	0.071
-329.187	453.868	0.110	0.238
-328.172	125.478	-0.097	-0.120
-327.158	-126.562	-0.339	-0.049
-326.143	76.881	-0.089	0.092
-325.129	353.259	-0.152	-0.297
-324.114	410.348	0.020	0.041
-323.099	-200.000	-0.005	0.106
-322.085	800.000	-0.083	0.262
-321.070	-120.146	0.293	0.049
-320.056	-43.644	0.147	0.073
-319.041	56.527	-0.086	0.083
-318.026	10.005	0.065	0.049
-317.012	385.424	-0.108	0.218
-315.997	-34.356	-0.163	-0.088
-314.983	201.568	-0.193	-0.293
-313.968	756.872	0.168	0.446
-312.953	769.848	-0.039	0.103
-311.939	-200.000	0.028	0.192
-310.924	-19.603	0.273	0.166
-309.910	-123.783	-0.051	0.008
-308.895	-49.571	0.136	0.064
-307.880	7.885	-0.259	-0.191
-306.866	241.919	0.063	0.103
-305.851	-165.005	0.331	-0.014
-304.837	-200.000	0.018	-0.111
-303.822	-20.997	-0.158	-0.095
-302.807	108.697	0.066	-0.077
-301.793	82.373	-0.258	0.274
-300.778	77.451	0.043	0.045
-299.764	-200.000	-0.000	-0.072
-298.749	86.985	-0.101	0.109
-297.735	218.885	0.047	0.073
-296.720	-200.000	-0.038	-0.201
-295.705	170.803	0.131	-0.184
-294.691	666.336	0.151	-0.382
-293.676	638.839	-0.063	-0.157
-292.662	-93.110	-0.127	-0.035
-291.647	333.715	0.196	-0.373
-290.632	120.957	-0.074	-0.090
-289.618	-70.624	-0.359	-0.133
-288.603	631.772	-0.110	-0.272
-287.589	-130.139	0.081	-0.011
-286.574	-123.762	-0.130	-0.020
-285.559	-200.000	0.012	0.082
-284.545	800.000	-0.029	-0.103
-283.530	800.000	-0.127	-0.536
-282.516	-19.327	0.332	0.202
-281.501	18.802	-0.127	0.099
-280.486	-200.000	0.013	0.107
-279.472	-110.352	0.273	0.056
-278.457	-108.351	0.155	0.033
-277.443	333.201	-0.157	0.298
-276.428	-95.912	-0.164	-0.043
-275.413	-37.792	-0.188	0.098
-274.399	800.000	-0.044	0.135
-273.384	175.810	-0.093	-0.133
-272.370	-75.558	-0.064	0.022
-271.355	-200.000	0.097	0.510
-270.340	1.957	0.117	0.083
-269.326	-102.147	-0.103	0.024
-268.311	-118.299	0.289	0.050
-267.297	-83.812	0.182	-0.057
-266.282	-132.914	-0.129	0.016
-265.267	-200.000	-0.025	0.153
-264.253	16.342	0.132	0.102
-263.238	16.089	-0.332	-0.256
-262.224	114.328	-0.075	-0.089
-261.209	-70.216	0.168	0.062
-260.195	341.023	-0.230	0.439
-259.180	-154.933	0.038	0.002
-258.165	507.643	-0.088	-0.201
-257.151	519.743	-0.176	-0.405
-256.136	213.202	-0.091	0.141
-255.122	-22.516	0.067	-0.039
-254.107	800.000	-0.077	0.254
-253.092	-30.029	0.172	0.096
-252.078	277.478	-0.061	0.107
-251.063	-115.248	-0.065	-0.012
-250.049	689.105	0.081	0.209
-249.034	-18.028	0.114	0.070
-248.019	-72.537	0.144	-0.052
-247.005	600.596	0.054	0.130
-245.990	-38.930	0.237	0.122
-244.976	-200.000	-0.007	-0.243
-243.961	-14.771	-0.104	0.065
-242.946	-50.533	-0.331	-0.153
-241.932	-101.095	0.281	-0.067
-240.917	-58.123	-0.305	0.130
-239.903	-86.502	0.123	-0.037
-238.888	-48.987	0.163	0.076
-237.873	61.819	0.011	-0.011
-236.859	-28.839	0.183	0.103
-235.844	-200.000	-0.016	-0.204
-234.830	164.753	0.036	-0.050
-233.815	231.509	0.254	-0.407
-232.800	216.446	0.159	0.248
-231.786	-73.342	-0.140	-0.050
-230.771	-200.000	-0.005	-0.056
-229.757	-123.423	-0.125	0.019
-228.742	249.590	0.110	0.182
-227.727	-138.997	0.055	-0.006
-226.713	-80.626	0.189	-0.062
-225.698	-110.415	0.152	0.031
-224.684	338.577	-0.055	0.105
-223.669	-84.888	0.109	-0.033
-222.655	27.069	0.143	0.118
-221.640	800.000	0.053	0.191
-220.625	27.184	0.052	-0.043
-219.611	299.628	-0.070	0.127
-218.596	303.802	0.063	0.114
-217.582	30.894	0.036	0.030
-216.567	-200.000	0.034	-0.231
-215.552	-171.701	0.149	0.005
-214.538	-200.000	-0.001	0.347
-213.523	800.000	0.017	-0.064
-212.509	-200.000	-0.008	0.046
-211.494	-114.588	-0.383	0.072
-210.479	-154.707	-0.129	0.008
-209.465	181.329	-0.125	0.180
-208.450	800.000	0.096	-0.368
-207.436	800.000	0.022	0.092
-206.421	-61.704	-0.216	-0.089
-205.406	-109.672	0.140	-0.029
-204.392	-200.000	0.001	-0.176
-203.377	800.000	0.028	-0.079
-202.363	-200.000	-0.004	0.090
-201.348	800.000	0.042	0.172
-200.333	-200.000	-0.037	0.302
-199.319	-200.000	-0.039	0.298
-198.304	-132.242	0.024	-0.003
-197.290	-95.705	-0.092	-0.024
-196.275	-91.746	0.189	-0.052
-195.260	800.000	-0.048	-0.148
-194.246	-200.000	-0.029	0.372
-193.231	-200.000	-0.046	0.432
-192.217	113.768	0.148	0.176
-191.202	313.303	-0.059	0.108
-190.187	-91.252	0.388	-0.109
-189.173	616.044	0.137	-0.336
-188.158	-138.126	0.267	0.029
-187.144	-58.080	0.170	-0.072
-186.129	12.888	0.182	0.138
-185.114	123.373	-0.026	0.032
-184.100	-110.375	0.248	-0.050
-183.085	-200.000	-0.024	0.239
-182.071	-58.741	-0.238	0.101
-181.056	329.009	-0.138	-0.259
-180.042	132.036	0.075	0.094
-179.027	118.362	0.214	0.258
-178.012	-200.000	-0.042	0.182
-176.998	362.507	-0.066	0.129
-175.983	800.000	-0.028	0.087
-174.969	-200.000	0.020	0.237
-173.954	-200.000	0.067	0.347
-172.939	800.000	-0.077	-0.225
-171.925	-115.079	0.246	-0.046
-170.910	-148.165	-0.100	0.008
-169.896	-110.109	0.148	0.030
-168.881	800.000	-0.045	0.186
-167.866	-113.320	0.123	-0.024
-166.852	-78.238	-0.332	0.111
-165.837	-36.190	0.471	0.248
-164.823	16.415	-0.172	-0.133
-163.808	174.657	0.070	-0.099
-162.793	800.000	0.044	0.187
-161.779	-136.810	0.243	-0.027
-160.764	-200.000	-0.099	-0.440
-159.750	-101.267	0.130	0.031
-158.735	-84.476	-0.386	0.119
-157.720	-99.969	0.280	-0.068
-156.706	-97.231	-0.143	0.036
-155.691	-165.899	0.091	-0.004
-154.677	-114.960	0.067	0.013
-153.662	117.588	-0.131	-0.157
-152.647	56.614	-0.137	-0.130
-151.633	800.000	0.027	-0.076
-150.618	-200.000	0.011	-0.208
-149.604	-68.533	-0.203	0.077
-148.589	-118.737	-0.274	0.047
-147.574	76.783	-0.181	-0.188
-146.560	-200.000	0.004	0.083
-145.545	294.217	-0.062	0.111
-144.531	-108.534	-0.097	-0.020
-143.516	292.094	-0.218	0.387
-142.502	529.331	0.013	0.031
-141.487	-117.885	0.126	0.022
-140.472	-23.147	-0.105	0.062
-139.458	-107.777	0.350	0.074
-138.443	-68.965	-0.401	-0.151
-137.429	-121.903	0.435	-0.070
-136.414	-200.000	0.066	0.323
-135.399	-200.000	0.007	0.031
-134.385	-200.000	0.074	0.492
-133.370	-134.497	-0.127	-0.015
-132.356	-90.479	-0.131	-0.037
-131.341	800.000	0.079	0.330
-130.326	6.917	-0.242	-0.175
-129.312	-136.757	-0.126	0.014
-128.297	-200.000	-0.038	0.403
-127.283	-125.259	0.138	0.021
-126.268	674.127	-0.089	-0.224
-125.253	-66.014	-0.186	-0.072
-124.239	-129.321	0.185	0.025
-123.224	234.964	-0.060	-0.096
-122.210	800.000	0.057	0.230
-121.195	-17.408	0.127	0.078
-120.180	359.580	0.138	0.269
-119.166	-200.000	0.012	-0.084
-118.151	100.019	-0.117	-0.132
-117.137	39.612	-0.052	-0.045
-116.122	-33.677	0.158	-0.085
-115.107	800.000	0.048	0.142
-114.093	40.292	0.047	-0.041
-113.078	407.878	0.090	-0.185
-112.064	-53.406	0.220	0.098
-111.049	-81.898	0.126	-0.040
-110.034	97.864	-0.128	-0.144
-109.020	126.505	0.223	-0.275
-108.005	-142.356	0.093	0.009
-106.991	18.230	0.250	0.195
-105.976	29.356	0.258	-0.213
-104.962	2.019	-0.311	-0.219
-103.947	-97.833	-0.089	-0.022
-102.932	235.452	0.255	0.410
-101.918	14.556	-0.097	0.073
-100.903	174.827	0.074	0.105
-99.889	396.552	0.139	0.283
-98.874	778.623	0.092	-0.246
-97.859	-172.752	-0.211	0.006
-96.845	348.114	0.055	-0.105
-95.830	-200.000	0.046	-0.258
-94.816	16.277	-0.092	-0.070
-93.801	-80.325	-0.132	0.043
-92.786	-124.440	0.470	0.071
-91.772	-200.000	-0.007	0.204
-90.757	554.316	0.091	0.214
-89.743	800.000	0.032	-0.115
-88.728	413.501	-0.047	-0.097
-87.713	151.682	-0.323	0.428
-86.699	-4.451	-0.087	0.059
-85.684	-44.040	0.148	-0.072
-84.670	56.866	0.176	0.167
-83.655	800.000	0.031	0.103
-82.640	-41.248	0.108	0.054
-81.626	-63.913	0.082	-0.032
-80.611	170.583	0.287	-0.400
-79.597	340.042	0.156	-0.295
-78.582	-2.200	-0.179	0.122
-77.567	-101.133	-0.450	-0.107
-76.553	43.147	-0.406	-0.360
-75.538	-102.751	0.427	0.099
-74.524	-200.000	0.083	-0.425
-73.509	86.024	-0.095	-0.102
-72.494	-157.365	0.156	-0.009
-71.480	751.171	0.095	-0.250
-70.465	800.000	0.055	-0.173
-69.451	481.178	0.094	0.208
-68.436	-200.000	-0.007	-0.114
-67.422	299.770	0.061	0.109
-66.407	363.731	0.026	-0.050
-65.392	235.027	0.137	-0.221
-64.378	2.516	-0.072	0.051
-63.363	60.477	-0.100	0.096
-62.349	800.000	0.021	0.061
-61.334	104.062	-1.193	-1.364
-60.319	98.954	0.654	0.734
-59.305	800.000	-0.399	-1.177
-58.290	415.188	0.739	1.530
-57.276	405.935	0.741	1.520
-56.261	-200.000	128.090	676.446
-55.246	412.469	1608.665	3322.051
-54.232	138.325	2773.247	3535.871
-53.217	89.982	2301.868	2499.456
-52.203	31.912	1904.270	1594.075
-51.188	25.840	1699.570	1376.437
-50.173	23.707	1661.072	1329.254
-49.159	45.939	1731.071	1556.314
-48.144	43.150	1742.185	1544.915
-47.130	25.354	1693.854	1367.888
-46.115	22.985	1677.553	1336.770
-45.100	22.704	1673.095	1331.046
-44.086	22.635	1670.374	1328.312
-43.071	22.680	1667.922	1326.648
-42.057	22.675	1665.657	1324.756
-41.042	22.686	1663.626	1323.169
-40.027	22.746	1661.614	1321.964
-39.013	22.718	1660.298	1320.658
-37.998	22.646	1658.620	1318.733
-36.984	22.774	1657.263	1318.553
-35.969	22.771	1655.907	1317.404
-34.954	22.840	1654.072	1316.408
-33.940	22.858	1652.127	1314.935
-32.925	22.767	1650.781	1313.136
-31.911	22.801	1649.161	1312.052
-30.896	22.869	1647.210	1310.953
-29.881	22.721	1646.275	1309.054
-28.867	22.780	1644.664	1308.161
-27.852	22.810	1643.459	1307.376
-26.838	22.899	1641.498	1306.416
-25.823	22.806	1640.400	1304.806
-24.809	22.848	1639.085	1304.015
-23.794	22.852	1637.517	1302.752
-22.779	22.837	1636.176	1301.518
-21.765	22.828	1634.461	1300.034
-20.750	22.783	1632.972	1298.471
-19.736	22.873	1631.757	1298.115
-18.721	22.913	1630.124	1297.059
-17.706	22.811	1628.810	1295.211
-16.692	22.792	1627.661	1294.106
-15.677	22.851	1626.026	1293.188
-14.663	22.834	1624.853	1292.079
-13.648	22.864	1623.222	1290.950
-12.633	22.873	1621.683	1289.745
-11.619	22.850	1619.839	1288.059
-10.604	22.874	1618.880	1287.420
-9.590	22.809	1617.805	1286.040
-8.575	22.846	1616.429	1285.161
-7.560	22.835	1615.299	1284.131
-6.546	22.829	1613.913	1282.933
-5.531	22.784	1613.118	1281.924
-4.517	22.748	1612.040	1280.756
-3.502	22.893	1610.806	1280.781
-2.487	22.969	1608.611	1279.533
-1.473	22.487	1596.803	1266.627
-0.458	19.547	1578.179	1230.877
0.556	14.734	1579.975	1201.258
1.571	12.592	1603.853	1203.653
2.586	12.341	1615.971	1210.784
3.600	11.378	1561.801	1163.236
4.615	6.296	1455.013	1049.775
5.629	1.187	1397.605	975.469
6.644	0.197	1390.774	964.277
7.659	0.140	1389.668	963.059
8.673	0.140	1388.667	962.278
9.688	0.213	1386.175	960.933
10.702	0.036	1382.696	957.310
11.717	2.602	1386.369	976.127
12.731	9.381	1396.647	1026.662
13.746	15.007	1405.442	1069.078
14.761	16.702	1407.510	1081.388
15.775	16.297	1404.640	1076.505
16.790	15.314	1402.120	1068.220
17.804	14.444	1400.545	1061.389
18.819	14.066	1398.892	1057.639
19.834	13.903	1397.609	1055.538
20.848	13.623	1396.525	1052.845
21.863	13.428	1395.240	1050.551
22.877	13.184	1394.068	1048.026
23.892	13.242	1392.722	1047.287
24.907	13.108	1392.105	1045.884
25.921	13.143	1391.718	1045.720
26.936	13.291	1390.225	1045.442
27.950	13.237	1389.457	1044.433
28.965	13.367	1388.202	1044.217
29.980	13.455	1387.069	1043.828
30.994	13.432	1386.295	1043.005
32.009	13.513	1385.207	1042.609
33.023	13.406	1384.298	1041.154
34.038	13.447	1383.168	1040.473
35.053	13.396	1381.666	1038.928
36.067	13.359	1380.594	1037.798
37.082	13.430	1379.289	1037.173
38.096	13.479	1378.894	1037.092
39.111	13.398	1377.935	1035.769
40.126	13.336	1377.077	1034.647
41.140	13.269	1376.326	1033.569
42.155	13.274	1375.961	1033.239
43.169	13.227	1375.841	1032.761
44.184	13.208	1375.416	1032.233
45.199	13.215	1375.297	1032.095
46.213	13.359	1373.964	1031.900
47.228	13.349	1373.050	1031.065
48.242	13.343	1371.785	1029.982
49.257	13.312	1370.865	1029.005
50.271	13.271	1369.004	1027.264
51.286	13.287	1367.864	1026.421
52.301	13.304	1366.653	1025.525
53.315	13.226	1366.095	1024.532
54.330	13.243	1364.793	1023.572
55.344	13.215	1363.403	1022.263
56.359	13.145	1362.246	1020.871
57.374	13.144	1361.261	1020.036
58.388	13.234	1360.352	1019.821
59.403	13.177	1360.251	1019.306
60.417	13.143	1359.202	1018.221
61.432	13.153	1357.805	1017.144
62.447	13.144	1356.973	1016.373
63.461	13.112	1355.746	1015.172
64.476	13.129	1354.926	1014.572
65.490	13.147	1353.566	1013.573
66.505	13.087	1351.979	1011.928
67.520	13.170	1351.267	1011.813
68.534	13.155	1349.896	1010.607
69.549	13.189	1348.633	1009.778
70.563	13.239	1347.660	1009.263
71.578	13.235	1346.393	1008.205
72.593	13.148	1345.870	1007.190
73.607	13.125	1344.901	1006.237
74.622	13.160	1343.309	1005.171
75.636	13.117	1343.220	1004.752
76.651	13.010	1342.286	1003.316
77.666	13.100	1341.738	1003.360
78.680	13.096	1341.172	1002.828
79.695	13.159	1340.289	1002.461
80.709	13.126	1339.323	1001.450
81.724	13.146	1338.856	1001.130
82.739	13.117	1337.778	1000.063
83.753	13.250	1336.923	1000.137
84.768	13.340	1335.775	999.735
85.782	13.441	1334.200	999.078
86.797	13.299	1333.097	997.308
87.812	13.275	1331.657	995.998
88.826	13.254	1330.730	995.090
89.841	13.339	1329.293	994.436
90.855	13.225	1328.624	993.166
91.870	13.284	1327.718	992.753
92.884	13.336	1326.880	992.352
93.899	13.341	1325.778	991.470
94.914	13.506	1324.973	991.769
95.928	13.409	1324.208	990.528
96.943	13.418	1323.290	989.804
97.957	13.323	1322.668	988.687
98.972	13.356	1321.608	988.001
99.987	13.302	1320.405	986.691
101.001	13.360	1319.181	986.035
102.016	13.441	1318.484	985.912
103.030	13.475	1317.133	985.017
104.045	13.412	1316.514	984.089
105.060	13.418	1315.165	983.031
106.074	13.294	1313.938	981.295
107.089	13.169	1313.034	979.789
108.103	13.145	1311.746	978.600
109.118	13.180	1310.561	977.839
110.133	13.168	1309.006	976.519
111.147	13.198	1307.471	975.467
112.162	13.275	1305.702	974.511
113.176	13.368	1304.691	974.217
114.191	13.319	1304.248	973.511
115.206	13.336	1302.884	972.508
116.220	13.255	1301.519	970.928
117.235	13.258	1300.845	970.359
118.249	13.344	1299.810	970.006
119.264	13.210	1298.549	968.194
120.279	13.333	1297.416	967.979
121.293	13.218	1296.304	966.394
122.308	13.213	1295.604	965.759
123.322	13.224	1294.333	964.789
124.337	13.215	1293.430	963.978
125.352	13.209	1292.187	962.928
126.366	13.207	1290.774	961.783
127.381	13.260	1289.956	961.394
128.395	13.185	1288.573	959.843
129.410	13.305	1287.884	959.943
130.424	13.236	1287.159	958.914
131.439	13.267	1286.034	958.173
132.454	13.290	1285.464	957.795
133.468	13.351	1283.913	956.909
134.483	13.248	1283.564	955.968
135.497	13.353	1282.326	955.570
136.512	13.402	1280.687	954.545
137.527	13.393	1279.426	953.468
138.541	13.350	1278.080	952.135
139.556	13.271	1277.098	950.863
140.570	13.343	1275.941	950.332
141.585	13.425	1274.548	949.682
142.600	13.421	1273.441	948.749
143.614	13.556	1272.360	948.633
144.629	13.460	1271.573	947.415
145.643	13.478	1270.180	946.396
146.658	13.397	1269.110	945.049
147.673	13.420	1267.640	944.006
148.687	13.412	1266.218	942.814
149.702	13.487	1264.970	942.228
150.716	13.465	1263.705	941.081
151.731	13.412	1262.028	939.447
152.746	13.315	1261.610	938.502
153.760	13.485	1260.236	938.361
154.775	13.551	1259.098	937.805
155.789	13.560	1257.926	936.899
156.804	13.611	1256.777	936.249
157.819	13.601	1255.532	935.182
158.833	13.448	1255.059	933.884
159.848	13.606	1254.149	934.012
160.862	13.562	1252.583	932.518
161.877	13.472	1252.060	931.537
162.892	13.454	1251.078	930.625
163.906	13.555	1249.719	930.100
164.921	13.559	1248.805	929.357
165.935	13.596	1248.208	929.039
166.950	13.599	1247.156	928.191
167.964	13.627	1246.181	927.539
168.979	13.561	1245.904	926.884
169.994	13.600	1245.299	926.568
171.008	13.684	1243.906	925.919
172.023	13.715	1243.580	925.766
173.037	13.741	1242.382	924.940
174.052	13.821	1241.452	924.611
175.067	13.599	1240.499	922.582
176.081	13.584	1239.720	921.841
177.096	13.700	1238.786	921.706
178.110	13.721	1237.553	920.825
179.125	13.808	1236.011	920.076
180.140	13.781	1234.899	919.019
181.154	13.759	1233.770	917.979
182.169	13.716	1233.033	917.107
183.183	13.785	1231.277	916.106
184.198	13.878	1230.036	915.613
185.213	13.857	1228.751	914.456
186.227	13.822	1227.906	913.555
187.242	13.820	1227.159	912.910
188.256	13.912	1225.815	912.333
189.271	13.825	1225.452	911.504
190.286	13.858	1223.830	910.396
191.300	13.793	1222.857	909.240
192.315	13.815	1222.025	908.662
193.329	13.697	1222.145	908.023
194.344	13.778	1221.429	907.853
195.359	13.876	1220.763	907.813
196.373	13.966	1219.755	907.472
197.388	13.939	1219.888	907.344
198.402	13.981	1219.533	907.232
199.417	14.004	1218.577	906.566
200.432	14.118	1217.524	906.323
201.446	14.127	1216.930	905.849
202.461	14.138	1215.908	905.067
203.475	14.136	1215.037	904.332
204.490	14.124	1213.839	903.294
205.504	14.278	1211.647	902.416
206.519	14.134	1210.672	900.831
207.534	14.209	1209.676	900.417
208.548	14.197	1208.729	899.566
209.563	14.200	1208.264	899.156
210.577	14.116	1207.266	897.881
211.592	14.195	1206.393	897.577
212.607	14.198	1205.750	897.035
213.621	14.362	1204.421	896.849
214.636	14.306	1203.879	896.069
215.650	14.238	1203.201	895.116
216.665	14.286	1202.018	894.417
217.680	14.427	1200.810	894.192
218.694	14.238	1200.595	892.939
219.709	14.412	1199.254	892.795
220.723	14.277	1198.980	891.789
221.738	14.354	1198.420	891.708
222.753	14.314	1197.138	890.462
223.767	14.412	1196.399	890.356
224.782	14.502	1195.932	890.411
225.796	14.471	1195.352	889.734
226.811	14.494	1194.375	889.051
227.826	14.600	1193.691	889.028
228.840	14.490	1193.276	888.053
229.855	14.427	1192.435	887.016
230.869	14.504	1191.081	886.338
231.884	14.484	1190.634	885.819
232.899	14.375	1190.394	884.987
233.913	14.393	1189.390	884.258
234.928	14.339	1188.546	883.263
235.942	14.493	1187.372	883.129
236.957	14.404	1187.067	882.351
237.972	14.385	1186.301	881.606
238.986	14.575	1185.353	881.826
240.001	14.487	1184.659	880.765
241.015	14.557	1183.725	880.363
242.030	14.517	1182.810	879.397
243.045	14.476	1182.523	878.886
244.059	14.615	1181.459	878.750
245.074	14.585	1181.030	878.195
246.088	14.574	1180.145	877.404
247.103	14.600	1179.318	876.849
248.117	14.686	1178.584	876.679
249.132	14.805	1177.702	876.566
250.147	14.797	1177.104	876.004
251.161	14.746	1176.456	875.172
252.176	14.866	1175.469	874.989
253.190	14.895	1174.688	874.483
254.205	15.015	1174.191	874.665
255.220	15.020	1173.750	874.283
256.234	15.042	1172.858	873.657
257.249	15.005	1171.900	872.676
258.263	14.976	1171.708	872.300
259.278	15.072	1170.930	872.148
260.293	14.972	1170.853	871.492
261.307	15.136	1169.684	871.396
262.322	15.105	1169.070	870.702
263.336	15.038	1168.529	869.873
264.351	15.165	1167.576	869.745
265.366	15.162	1167.329	869.468
266.380	15.084	1166.297	868.221
267.395	15.088	1165.867	867.843
268.409	15.094	1165.183	867.290
269.424	15.179	1163.884	866.686
270.439	15.202	1163.519	866.457
271.453	15.147	1162.788	865.549
272.468	15.132	1161.627	864.529
273.482	15.033	1161.558	863.892
274.497	15.188	1160.720	863.992
275.512	15.194	1160.536	863.811
276.526	15.227	1159.131	862.856
277.541	15.182	1158.308	861.937
278.555	15.233	1157.935	861.847
279.570	15.331	1157.181	861.709
280.585	15.359	1156.167	861.022
281.599	15.368	1155.077	860.183
282.614	15.347	1154.096	859.266
283.628	15.297	1152.977	858.103
284.643	15.324	1152.371	857.713
285.657	15.319	1151.509	856.972
286.672	15.313	1150.483	856.103
287.687	15.391	1149.602	855.766
288.701	15.494	1148.604	855.472
289.716	15.381	1148.121	854.461
290.730	15.406	1147.432	854.000
291.745	15.521	1146.667	853.940
292.760	15.454	1146.165	853.152
293.774	15.555	1144.995	852.718
294.789	15.500	1145.274	852.569
295.803	15.631	1144.244	852.393
296.818	15.488	1143.558	851.081
297.833	15.522	1142.622	850.481
298.847	15.595	1142.000	850.316
299.862	15.550	1141.073	849.322
300.876	15.548	1140.824	849.051
301.891	15.609	1140.114	848.754
302.906	15.663	1139.116	848.210
303.920	15.721	1138.411	847.901
304.935	15.707	1138.178	847.581
305.949	15.868	1136.939	847.393
306.964	15.846	1136.048	846.546
307.979	15.769	1135.390	845.591
308.993	15.836	1134.660	845.309
310.008	15.740	1134.313	844.496
311.022	15.872	1133.131	844.202
312.037	15.758	1132.429	843.032
313.052	15.847	1131.471	842.693
314.066	15.744	1130.959	841.718
315.081	15.819	1129.733	841.106
316.095	15.792	1128.915	840.292
317.110	15.775	1128.326	839.694
318.125	15.873	1127.687	839.630
319.139	15.904	1126.880	839.109
320.154	15.810	1126.429	838.231
321.168	15.916	1125.667	838.118
322.183	15.794	1125.358	837.207
323.197	15.776	1124.646	836.516
324.212	15.872	1124.109	836.519
325.227	15.885	1123.383	835.968
326.241	15.867	1122.278	834.984
327.256	16.013	1121.402	834.979
328.270	15.907	1120.486	833.701
329.285	15.980	1119.591	833.322
330.300	15.929	1118.505	832.187
331.314	15.898	1117.741	831.391
332.329	15.895	1117.023	830.771
333.343	15.902	1116.042	830.000
334.358	15.974	1115.245	829.688
335.373	16.099	1114.300	829.531
336.387	16.109	1113.701	829.060
337.402	16.054	1112.993	828.187
338.416	16.154	1112.164	827.987
339.431	16.097	1111.906	827.442
340.446	16.081	1110.973	826.597
341.460	16.173	1110.155	826.368
342.475	16.248	1109.155	825.917
343.489	16.330	1108.395	825.680
344.504	16.347	1107.259	824.844
345.519	16.307	1106.859	824.277
346.533	16.451	1105.713	824.050
347.548	16.401	1105.151	823.315
348.562	16.365	1104.504	822.587
349.577	16.259	1103.952	821.587
350.592	16.298	1103.149	821.105
351.606	16.268	1102.310	820.260
352.621	16.154	1101.749	819.216
353.635	16.298	1101.366	819.558
354.650	16.312	1100.415	818.845
355.665	16.404	1099.427	818.488
356.679	16.384	1098.977	817.982
357.694	16.431	1098.379	817.694
358.708	16.461	1097.691	817.252
359.723	16.430	1097.074	816.570
360.738	16.440	1096.256	815.936
361.752	16.459	1096.093	815.836
362.767	16.418	1095.060	814.795
363.781	16.541	1094.724	815.066
364.796	16.621	1093.789	814.683
365.810	16.601	1093.518	814.314
366.825	16.628	1092.322	813.480
367.840	16.619	1092.384	813.412
368.854	16.684	1091.763	813.190
369.869	16.616	1090.936	812.178
370.883	16.677	1090.023	811.715
371.898	16.549	1089.847	810.899
372.913	16.692	1088.734	810.687
373.927	16.650	1088.656	810.354
374.942	16.698	1087.969	810.000
375.956	16.799	1086.963	809.661
376.971	16.838	1086.429	809.382
377.986	16.785	1085.753	808.554
379.000	16.932	1085.242	808.798
380.015	16.845	1084.935	808.087
381.029	16.932	1083.937	807.684
382.044	16.839	1083.395	806.765
383.059	16.897	1082.732	806.479
384.073	16.830	1082.503	805.916
385.088	17.005	1080.892	805.479
386.102	16.938	1080.030	804.445
387.117	16.942	1079.126	803.721
388.132	16.940	1078.182	802.939
389.146	16.822	1077.640	801.905
390.161	16.936	1076.787	801.737
391.175	16.980	1075.979	801.273
392.190	16.884	1075.723	800.558
393.205	16.988	1074.486	800.055
394.219	17.066	1073.862	799.891
395.234	16.989	1072.890	798.729
396.248	16.994	1071.845	797.907
397.263	17.026	1070.980	797.344
398.278	17.062	1070.405	797.015
399.292	17.019	1069.489	796.057
400.307	16.939	1068.791	795.096
401.321	17.085	1068.071	795.170
402.336	17.088	1067.546	794.722
403.350	17.055	1066.730	793.893
404.365	17.036	1066.260	793.383
405.380	17.169	1065.442	793.327
406.394	17.199	1064.794	792.913
407.409	17.118	1064.225	792.041
408.423	17.146	1063.451	791.524
409.438	17.236	1062.568	791.220
410.453	17.302	1061.920	790.973
411.467	17.380	1060.959	790.550
412.482	17.213	1060.951	789.696
413.496	17.318	1060.105	789.484
414.511	17.355	1059.379	789.046
415.526	17.389	1059.068	788.903
416.540	17.577	1058.286	789.122
417.555	17.524	1057.776	788.427
418.569	17.411	1057.647	787.735
419.584	17.454	1056.525	787.030
420.599	17.415	1056.379	786.669
421.613	108.160	1331.357	1488.453
422.628	99.720	1371.349	1488.529
