DTS Sentinel unit serial number:	SN413079Multiplexer serial number:	ORYXHardware model number:	OX4-SRSoftware version number:	ORYX F/W v4.00 Oryx Data Collector v3.7.2.0data status	okinstallation	princeton_trtdifferential loss correction	single-endedforward channel	channel 2reverse channel	N/Adate	2019/09/12time	05:41:11forward acquisition time	60.00reverse acquisition time	0.00gamma	496.2192k internal	0.2325k external	0.2325temperature offset calibration	1.0062default loss term (dB/km)	0.3790temperature slope calibration	1.0000multiplexer offset coefficient	1.0000multiplexer slope coefficient	1.0000fibre end	0.00T internal ref (°C)	32.00T ext. ref 1 (°C)	1.60T ext. ref 2 (°C)	27.55length (m)	temperature (°C)	Stokes	anti-Stokes-747.200	23.451	-0.134	-0.111
-746.185	-200.000	-0.017	0.197
-745.171	-200.000	0.017	0.269
-744.156	-54.899	-0.282	0.128
-743.142	40.040	0.238	0.216
-742.127	-200.000	0.044	0.462
-741.112	185.274	-0.038	-0.057
-740.098	222.192	-0.163	0.264
-739.083	160.053	0.261	0.367
-738.069	318.680	-0.008	0.014
-737.054	46.705	0.034	-0.032
-736.039	207.605	-0.022	-0.035
-735.025	800.000	0.110	0.413
-734.010	37.291	0.193	-0.173
-732.996	36.697	-0.190	-0.169
-731.981	177.856	0.214	-0.315
-730.966	-2.056	-0.209	0.148
-729.952	100.045	-0.146	0.171
-728.937	800.000	0.057	-0.168
-727.923	-200.000	0.002	0.172
-726.908	-36.539	-0.143	-0.077
-725.894	-0.524	-0.297	-0.213
-724.879	-99.708	0.162	-0.041
-723.864	-6.588	0.248	-0.170
-722.850	-52.126	0.132	-0.062
-721.835	-16.575	0.282	-0.180
-720.821	-121.451	0.270	-0.045
-719.806	800.000	-0.151	-0.433
-718.791	46.911	-0.037	0.035
-717.777	-175.785	-0.197	-0.005
-716.762	-112.965	-0.255	0.051
-715.748	164.624	-0.104	0.148
-714.733	152.012	0.066	0.090
-713.718	154.052	-0.188	-0.260
-712.704	800.000	-0.052	-0.193
-711.689	-200.000	-0.005	-0.105
-710.675	800.000	0.046	0.155
-709.660	-6.371	-0.129	-0.088
-708.645	800.000	0.042	0.159
-707.631	800.000	-0.021	0.084
-706.616	-62.021	-0.126	-0.053
-705.602	-28.396	-0.129	-0.075
-704.587	-200.000	-0.016	-0.148
-703.572	734.251	0.010	-0.027
-702.558	38.840	0.229	0.206
-701.543	-200.000	-0.018	0.125
-700.529	96.689	0.074	-0.085
-699.514	-166.164	0.114	-0.005
-698.499	-200.000	0.015	-0.317
-697.485	118.636	0.084	-0.105
-696.470	-141.981	-0.224	0.023
-695.456	-64.734	-0.045	-0.019
-694.441	-58.213	0.210	-0.092
-693.426	800.000	0.076	0.238
-692.412	134.887	-0.111	-0.145
-691.397	-156.272	-0.260	-0.016
-690.383	-81.275	0.051	-0.017
-689.368	299.749	0.090	-0.167
-688.354	-31.036	0.274	0.156
-687.339	-117.106	-0.240	-0.044
-686.324	-40.496	0.131	0.069
-685.310	-25.894	-0.277	0.164
-684.295	224.335	-0.231	0.375
-683.281	21.349	0.161	-0.132
-682.266	186.995	-0.090	0.135
-681.251	-63.519	-0.034	-0.014
-680.237	143.598	0.104	0.140
-679.222	-200.000	-0.000	-0.182
-678.208	-200.000	-0.041	0.210
-677.193	-200.000	-0.011	0.315
-676.178	522.853	-0.123	0.290
-675.164	166.555	-0.080	-0.114
-674.149	55.943	0.170	-0.166
-673.135	-110.961	0.047	-0.010
-672.120	800.000	0.050	0.173
-671.105	-177.874	0.161	0.004
-670.091	88.549	0.047	0.053
-669.076	-200.000	-0.029	0.277
-668.062	-200.000	-0.002	0.038
-667.047	800.000	-0.082	-0.329
-666.032	150.356	-0.125	0.170
-665.018	0.370	-0.409	-0.294
-664.003	408.190	0.039	0.084
-662.989	-40.277	-0.063	-0.033
-661.974	12.196	-0.148	-0.115
-660.959	71.659	-0.257	-0.268
-659.945	366.270	0.163	0.331
-658.930	-35.354	-0.319	0.175
-657.916	-86.990	-0.186	-0.057
-656.901	182.959	-0.211	0.313
-655.886	-0.831	0.200	-0.142
-654.872	-200.000	-0.056	-0.321
-653.857	-39.434	0.468	0.247
-652.843	218.311	-0.288	-0.462
-651.828	-99.482	-0.163	-0.041
-650.814	-72.776	-0.198	-0.073
-649.799	532.166	-0.083	0.197
-648.784	-52.204	-0.240	0.112
-647.770	214.009	-0.121	0.192
-646.755	800.000	-0.005	0.016
-645.741	51.289	-0.135	0.129
-644.726	800.000	0.032	-0.124
-643.711	-200.000	0.017	-0.094
-642.697	-110.516	-0.186	0.039
-641.682	364.826	0.051	0.103
-640.668	177.637	-0.344	-0.503
-639.653	128.848	-0.144	0.185
-638.638	-178.969	-0.169	-0.004
-637.624	-200.000	-0.029	0.220
-636.609	47.081	0.201	-0.188
-635.595	-200.000	0.004	-0.224
-634.580	-97.197	0.320	0.084
-633.565	-200.000	-0.023	-0.123
-632.551	-200.000	0.059	-0.275
-631.536	155.901	-0.074	0.102
-630.522	358.307	0.087	-0.175
-629.507	-200.000	0.037	-0.312
-628.492	127.982	0.089	-0.113
-627.478	-83.617	0.220	0.071
-626.463	-200.000	0.006	-0.090
-625.449	95.817	-0.132	-0.152
-624.434	130.694	0.072	-0.093
-623.419	-200.000	0.021	0.263
-622.405	800.000	0.057	-0.240
-621.390	8.723	0.289	-0.219
-620.376	91.018	-0.208	0.235
-619.361	-72.792	-0.225	0.083
-618.346	126.847	-0.085	0.108
-617.332	241.761	-0.086	0.144
-616.317	-140.659	-0.151	-0.016
-615.303	531.818	-0.051	-0.121
-614.288	356.772	0.087	-0.174
-613.273	-37.923	-0.304	0.162
-612.259	357.819	-0.137	-0.275
-611.244	800.000	0.119	-0.461
-610.230	800.000	0.026	0.097
-609.215	-149.860	-0.268	0.021
-608.201	-20.641	-0.189	0.116
-607.186	-30.155	0.185	-0.105
-606.171	698.430	-0.075	-0.198
-605.157	71.826	-0.206	0.215
-604.142	16.570	-0.212	-0.168
-603.128	-119.151	-0.216	-0.038
-602.113	138.361	-0.200	0.263
-601.098	-67.541	0.338	0.133
-600.084	-200.000	0.042	-0.196
-599.069	-37.717	-0.135	0.072
-598.055	-200.000	0.035	0.175
-597.040	-200.000	0.048	0.290
-596.025	191.013	-0.105	-0.159
-595.011	-200.000	-0.017	-0.121
-593.996	-164.673	-0.338	0.015
-592.982	-96.692	-0.288	-0.076
-591.967	-36.897	-0.136	-0.073
-590.952	-31.732	-0.216	-0.122
-589.938	46.245	0.202	-0.188
-588.923	157.982	0.117	0.163
-587.909	90.099	-0.075	0.084
-586.894	800.000	0.093	0.366
-585.879	-200.000	-0.015	-0.308
-584.865	22.002	-0.084	0.068
-583.850	-9.195	0.054	-0.036
-582.836	-137.837	-0.151	0.017
-581.821	64.163	-0.137	0.139
-580.806	-64.523	-0.151	-0.062
-579.792	691.468	0.123	-0.324
-578.777	-200.000	-0.069	0.308
-577.763	92.224	0.071	0.080
-576.748	23.869	-0.047	0.039
-575.733	-6.025	0.331	0.227
-574.719	-89.130	0.024	-0.007
-573.704	-16.325	-0.329	-0.209
-572.690	27.029	0.204	0.171
-571.675	800.000	0.055	-0.237
-570.661	-27.829	-0.180	-0.105
-569.646	538.197	0.077	-0.185
-568.631	-91.385	-0.196	0.056
-567.617	85.262	-0.111	0.122
-566.602	-49.704	0.386	-0.184
-565.588	14.402	-0.095	0.074
-564.573	-44.506	0.312	-0.156
-563.558	800.000	0.079	-0.262
-562.544	-194.418	0.127	0.001
-561.529	315.140	0.025	0.048
-560.515	147.043	-0.061	0.082
-559.500	-41.724	0.246	0.126
-558.485	-200.000	0.017	0.148
-557.471	800.000	0.086	0.272
-556.456	225.203	0.125	0.202
-555.442	-44.717	-0.385	-0.192
-554.427	800.000	-0.059	0.233
-553.412	-116.511	-0.138	0.025
-552.398	-196.053	0.187	0.001
-551.383	800.000	0.089	0.304
-550.369	293.638	0.194	0.355
-549.354	717.695	0.043	0.114
-548.339	-200.000	-0.061	0.294
-547.325	-136.582	-0.195	0.023
-546.310	21.882	0.180	-0.147
-545.296	-200.000	0.029	0.208
-544.281	800.000	-0.047	-0.184
-543.266	402.957	0.095	-0.200
-542.252	-123.469	-0.198	-0.032
-541.237	250.322	0.040	0.068
-540.223	-53.163	0.234	-0.108
-539.208	-131.229	0.242	-0.032
-538.193	-28.665	-0.120	-0.069
-537.179	-122.031	0.147	-0.024
-536.164	-171.046	0.319	-0.011
-535.150	-200.000	-0.030	-0.178
-534.135	-71.924	-0.161	0.060
-533.121	417.898	0.076	0.162
-532.106	3.661	0.157	-0.115
-531.091	800.000	-0.043	-0.184
-530.077	-98.834	0.158	0.040
-529.062	-122.610	0.132	-0.021
-528.048	9.159	0.143	-0.108
-527.033	800.000	0.094	0.330
-526.018	-81.764	-0.348	0.114
-525.004	-82.537	0.014	0.005
-523.989	48.542	-0.384	-0.360
-522.975	-200.000	-0.049	-0.245
-521.960	-89.443	0.060	-0.018
-520.945	800.000	0.089	-0.339
-519.931	-101.832	0.264	0.064
-518.916	800.000	0.034	0.110
-517.902	800.000	0.010	-0.040
-516.887	43.585	-0.277	-0.253
-515.872	-36.168	-0.318	-0.172
-514.858	800.000	-0.048	0.207
-513.843	-165.785	0.159	-0.007
-512.829	785.330	-0.078	0.215
-511.814	-79.751	-0.275	-0.092
-510.799	-200.000	0.014	-0.152
-509.785	-200.000	-0.014	0.485
-508.770	165.874	-0.329	-0.465
-507.756	-80.243	-0.477	0.160
-506.741	-153.578	-0.286	0.020
-505.726	-28.584	-0.192	0.111
-504.712	-200.000	-0.002	-0.204
-503.697	-105.271	0.292	0.067
-502.683	1.337	0.161	0.116
-501.668	89.473	0.140	0.156
-500.653	-200.000	-0.032	-0.172
-499.639	99.400	0.172	-0.199
-498.624	-141.831	-0.034	-0.003
-497.610	60.776	0.091	0.090
-496.595	76.777	0.202	0.214
-495.581	-200.000	-0.037	0.236
-494.566	162.493	0.057	0.079
-493.551	-60.438	0.169	0.072
-492.537	-12.883	0.238	0.155
-491.522	-34.408	-0.085	-0.047
-490.508	-38.944	0.160	-0.084
-489.493	-11.592	0.090	0.059
-488.478	437.577	-0.113	0.246
-487.464	242.052	-0.110	-0.184
-486.449	-31.849	-0.152	0.085
-485.435	-112.038	-0.099	0.020
-484.420	800.000	0.036	-0.122
-483.405	-167.808	-0.419	-0.016
-482.391	113.271	0.109	0.133
-481.376	-21.809	0.043	-0.026
-480.362	800.000	-0.151	0.530
-479.347	-132.736	-0.222	-0.028
-478.332	800.000	-0.143	0.460
-477.318	-119.234	0.061	-0.011
-476.303	22.917	0.201	0.165
-475.289	800.000	0.003	0.010
-474.274	153.443	-0.121	0.165
-473.259	189.426	-0.182	0.273
-472.245	175.417	-0.076	-0.109
-471.230	102.598	0.060	0.070
-470.216	-102.635	-0.113	-0.027
-469.201	467.194	0.081	-0.180
-468.186	-111.952	0.041	0.008
-467.172	214.413	-0.109	-0.173
-466.157	800.000	-0.009	-0.027
-465.143	-200.000	0.004	-0.079
-464.128	-53.457	-0.073	0.033
-463.113	-200.000	-0.009	-0.407
-462.099	800.000	0.083	-0.233
-461.084	-110.839	-0.330	-0.068
-460.070	392.967	0.106	0.219
-459.055	49.249	-0.039	-0.037
-458.040	-146.679	0.345	-0.030
-457.026	800.000	-0.036	0.124
-456.011	-200.000	0.032	0.304
-454.997	132.395	0.216	0.277
-453.982	779.404	0.078	0.212
-452.968	-200.000	0.002	0.008
-451.953	170.319	0.157	-0.224
-450.938	-132.219	-0.181	0.023
-449.924	442.737	-0.055	-0.121
-448.909	-200.000	0.011	0.070
-447.895	-5.637	0.266	-0.182
-446.880	450.843	0.046	-0.100
-445.865	22.251	0.276	-0.224
-444.851	-77.594	0.105	-0.036
-443.836	84.490	-0.066	0.072
-442.822	800.000	0.021	0.069
-441.807	-94.456	-0.336	-0.091
-440.792	107.455	-0.098	-0.116
-439.778	784.361	-0.132	0.360
-438.763	131.032	-0.183	0.234
-437.749	10.664	0.055	0.042
-436.734	139.285	-0.260	0.341
-435.719	-200.000	-0.028	0.160
-434.705	-78.104	0.187	-0.064
-433.690	-4.286	-0.106	-0.073
-432.676	-136.940	-0.074	0.008
-431.661	16.841	0.169	-0.133
-430.646	-106.210	-0.130	-0.029
-429.632	172.919	0.066	-0.094
-428.617	800.000	-0.057	-0.208
-427.603	127.693	-0.085	0.108
-426.588	-200.000	-0.022	0.170
-425.573	57.828	-0.178	-0.174
-424.559	-23.164	0.226	0.136
-423.544	485.163	0.177	0.402
-422.530	-3.016	-0.363	0.252
-421.515	-200.000	0.001	-0.216
-420.500	-121.973	-0.269	0.044
-419.486	81.600	-0.213	-0.230
-418.471	-200.000	-0.006	-0.263
-417.457	122.851	-0.047	-0.058
-416.442	-200.000	0.091	0.435
-415.428	60.091	-0.116	-0.114
-414.413	9.346	-0.032	0.024
-413.398	309.324	0.120	0.224
-412.384	-200.000	-0.000	-0.114
-411.369	-118.103	0.320	0.057
-410.355	-200.000	0.031	-0.168
-409.340	800.000	-0.049	-0.199
-408.325	-200.000	0.016	-0.222
-407.311	-57.024	0.289	-0.127
-406.296	-200.000	0.102	-0.516
-405.282	6.109	0.064	0.047
-404.267	727.275	0.206	0.548
-403.252	-125.411	-0.307	0.047
-402.238	-200.000	-0.024	-0.251
-401.223	225.921	0.242	-0.390
-400.209	800.000	0.111	0.441
-399.194	-20.091	0.155	0.095
-398.179	-107.428	-0.424	0.093
-397.165	129.514	-0.178	-0.226
-396.150	327.971	-0.155	-0.297
-395.136	800.000	0.100	0.346
-394.121	-200.000	0.014	-0.286
-393.106	-10.225	0.274	0.181
-392.092	-200.000	-0.019	0.188
-391.077	95.946	0.305	0.347
-390.063	-105.290	-0.110	0.025
-389.048	-70.674	0.152	-0.057
-388.033	800.000	0.097	-0.280
-387.019	115.735	-0.238	0.290
-386.004	-55.770	-0.133	-0.059
-384.990	779.584	0.104	-0.283
-383.975	-200.000	-0.012	-0.084
-382.960	-200.000	0.044	-0.430
-381.946	72.561	0.159	0.165
-380.931	-155.990	-0.141	-0.009
-379.917	118.604	-0.098	0.121
-378.902	479.227	0.045	0.101
-377.888	-200.000	0.042	-0.192
-376.873	-37.469	0.078	0.041
-375.858	-49.204	0.082	-0.039
-374.844	-7.344	0.191	0.128
-373.829	-59.980	-0.147	0.062
-372.815	-33.325	0.201	-0.111
-371.800	15.143	0.168	0.131
-370.785	-115.829	-0.097	0.018
-369.771	-77.801	-0.233	0.080
-368.756	-102.842	0.260	-0.062
-367.742	91.363	0.048	-0.053
-366.727	-200.000	0.020	0.165
-365.712	-200.000	-0.027	0.334
-364.698	-19.393	0.123	0.076
-363.683	-200.000	-0.028	-0.188
-362.669	83.881	-0.211	-0.229
-361.654	-166.125	0.492	0.021
-360.639	-200.000	0.006	-0.201
-359.625	457.402	-0.066	0.145
-358.610	31.607	-0.150	0.128
-357.596	-75.454	0.116	0.041
-356.581	-56.986	0.128	0.056
-355.566	-73.785	0.423	0.153
-354.552	546.488	0.092	0.218
-353.537	124.394	0.126	-0.158
-352.523	256.354	0.133	-0.227
-351.508	373.151	-0.176	-0.356
-350.493	-200.000	0.002	0.237
-349.479	-29.154	-0.072	-0.041
-348.464	-200.000	-0.012	-0.248
-347.450	800.000	0.119	-0.397
-346.435	-73.648	0.418	0.151
-345.420	800.000	0.033	-0.112
-344.406	800.000	0.046	0.159
-343.391	38.705	-0.196	0.173
-342.377	-24.238	-0.064	0.038
-341.362	800.000	0.087	-0.337
-340.348	-24.359	-0.356	0.211
-339.333	-200.000	0.039	-0.219
-338.318	-200.000	0.003	-0.073
-337.304	-5.492	0.342	0.233
-336.289	11.551	0.074	-0.056
-335.275	800.000	0.056	-0.192
-334.260	43.370	-0.165	-0.150
-333.245	61.850	-0.388	-0.383
-332.231	234.405	-0.238	-0.390
-331.216	31.984	-0.066	0.057
-330.202	-141.289	-0.110	-0.011
-329.187	-200.000	0.008	-0.178
-328.172	-82.143	0.199	0.064
-327.158	800.000	0.051	0.193
-326.143	124.137	0.238	0.297
-325.129	242.285	-0.109	0.180
-324.114	-48.573	-0.188	0.090
-323.099	-85.999	0.108	-0.033
-322.085	459.564	-0.005	-0.011
-321.070	-200.000	0.062	0.379
-320.056	800.000	-0.038	0.152
-319.041	-98.429	-0.230	-0.058
-318.026	221.885	-0.013	0.021
-317.012	-19.949	0.080	0.049
-315.997	115.857	-0.232	0.282
-314.983	219.428	-0.093	0.147
-313.968	-200.000	0.053	0.246
-312.953	256.160	-0.054	-0.092
-311.939	433.037	-0.079	0.170
-310.924	57.954	0.213	-0.207
-309.910	-200.000	0.053	0.260
-308.895	800.000	0.117	0.330
-307.880	-107.727	-0.330	-0.071
-306.866	-105.427	-0.205	-0.046
-305.851	-101.072	0.326	-0.079
-304.837	669.708	0.016	0.040
-303.822	216.107	0.200	-0.315
-302.807	228.767	0.045	0.072
-301.793	800.000	-0.036	0.141
-300.778	19.375	-0.030	-0.024
-299.764	132.677	-0.149	0.191
-298.749	125.807	0.116	-0.145
-297.735	3.669	0.305	0.221
-296.720	-64.900	0.175	-0.070
-295.705	657.346	-0.128	-0.327
-294.691	-200.000	0.059	0.330
-293.676	-100.201	-0.505	-0.125
-292.662	-200.000	0.003	-0.190
-291.647	-200.000	0.199	0.001
-290.632	105.895	-0.221	-0.259
-289.618	-115.137	0.150	0.028
-288.603	-130.289	-0.147	-0.020
-287.589	-200.000	0.006	0.230
-286.574	-9.080	0.165	0.109
-285.559	-42.153	-0.162	-0.082
-284.545	170.136	-0.062	-0.088
-283.530	5.560	0.112	0.082
-282.516	800.000	0.120	0.369
-281.501	72.624	0.189	0.196
-280.486	-151.654	-0.104	-0.008
-279.472	138.259	0.075	0.097
-278.457	131.946	-0.104	-0.132
-277.443	203.712	0.100	-0.153
-276.428	-200.000	-0.022	-0.193
-275.413	-160.502	-0.216	0.011
-274.399	-200.000	-0.007	0.171
-273.384	-133.725	-0.263	-0.032
-272.370	16.369	0.208	0.163
-271.355	-120.578	-0.370	0.062
-270.340	-34.364	-0.215	0.117
-269.326	-200.000	-0.057	0.465
-268.311	-200.000	0.042	-0.361
-267.297	226.998	0.095	0.153
-266.282	36.031	0.226	-0.197
-265.267	452.401	0.059	-0.129
-264.253	-200.000	0.018	0.110
-263.238	-200.000	0.019	0.351
-262.224	-2.993	-0.188	0.130
-261.209	8.138	-0.066	0.049
-260.195	-200.000	0.000	-0.027
-259.180	-77.826	-0.376	-0.128
-258.165	-43.945	0.244	-0.121
-257.151	96.453	0.078	-0.088
-256.136	-29.930	0.109	0.062
-255.122	-200.000	0.045	0.196
-254.107	730.747	-0.086	-0.229
-253.092	-200.000	-0.022	0.285
-252.078	-49.250	0.035	0.016
-251.063	-147.184	0.307	-0.026
-250.049	800.000	-0.139	0.392
-249.034	77.474	-0.195	-0.206
-248.019	175.805	-0.073	-0.105
-247.005	-77.077	0.191	0.066
-245.990	-41.368	-0.109	0.056
-244.976	-200.000	0.014	-0.200
-243.961	-75.270	0.494	-0.174
-242.946	382.846	-0.088	0.178
-241.932	-200.000	0.017	0.158
-240.917	-55.793	0.089	0.039
-239.903	25.061	0.142	0.117
-238.888	279.509	-0.063	-0.111
-237.873	-9.120	0.483	-0.320
-236.859	800.000	0.054	-0.166
-235.844	-164.219	0.179	0.008
-234.830	169.134	0.097	-0.137
-233.815	-79.213	-0.206	-0.069
-232.800	41.803	-0.043	0.038
-231.786	437.680	0.076	-0.164
-230.771	-171.899	-0.519	-0.017
-229.757	83.101	0.167	-0.180
-228.742	-19.164	-0.127	-0.078
-227.727	-200.000	-0.001	-0.040
-226.713	71.015	-0.174	-0.178
-225.698	-107.774	0.347	-0.075
-224.684	-172.088	-0.389	-0.012
-223.669	-82.401	-0.116	-0.037
-222.655	-73.129	-0.210	0.076
-221.640	-22.835	0.132	-0.079
-220.625	800.000	-0.044	-0.140
-219.611	15.298	0.237	0.184
-218.596	155.988	0.220	0.300
-217.582	425.298	-0.070	-0.148
-216.567	-118.717	0.124	0.022
-215.552	84.517	0.094	-0.102
-214.538	379.439	-0.167	0.338
-213.523	149.197	-0.238	0.318
-212.509	97.757	-0.133	-0.151
-211.494	-77.104	0.221	0.076
-210.479	800.000	0.041	-0.113
-209.465	-156.387	0.211	0.013
-208.450	113.218	-0.107	-0.128
-207.436	-155.421	-0.137	-0.009
-206.421	302.128	0.185	-0.338
-205.406	800.000	0.045	0.160
-204.392	-200.000	-0.013	0.149
-203.377	800.000	-0.115	0.340
-202.363	49.234	0.108	0.100
-201.348	-5.456	0.085	0.058
-200.333	-1.223	-0.155	-0.108
-199.319	738.763	0.035	0.092
-198.304	21.810	-0.174	0.140
-197.290	-3.594	-0.166	-0.114
-196.275	-200.000	-0.019	-0.124
-195.260	-200.000	-0.075	-0.412
-194.246	-33.168	-0.155	-0.085
-193.231	51.366	-0.158	-0.148
-192.217	-49.946	0.324	0.152
-191.202	305.283	0.048	0.088
-190.187	-107.868	0.227	0.049
-189.173	-112.577	-0.316	0.062
-188.158	123.622	0.019	0.024
-187.144	259.962	0.110	0.187
-186.129	582.834	0.011	0.026
-185.114	17.684	0.036	0.028
-184.100	-49.216	0.059	-0.028
-183.085	68.319	-0.323	-0.326
-182.071	-1.008	0.102	0.071
-181.056	-200.000	0.016	-0.404
-180.042	-200.000	-0.007	-0.125
-179.027	-81.681	0.398	0.129
-178.012	-91.395	0.078	-0.022
-176.998	101.350	0.297	-0.341
-175.983	111.056	-0.175	-0.208
-174.969	-200.000	0.072	-0.454
-173.954	274.694	0.168	0.294
-172.939	-134.702	-0.069	0.008
-171.925	-125.811	0.143	-0.021
-170.910	-128.491	-0.128	0.018
-169.896	-94.611	0.316	0.085
-168.881	350.110	0.074	-0.143
-167.866	103.359	0.233	-0.270
-166.852	-22.859	0.375	-0.223
-165.837	-39.776	-0.328	-0.169
-164.823	1.016	0.225	0.159
-163.808	-6.285	0.276	0.185
-162.793	800.000	0.007	0.030
-161.779	-62.896	0.258	-0.105
-160.764	71.706	0.216	0.221
-159.750	-77.676	0.200	-0.068
-158.735	103.385	-0.257	-0.297
-157.720	-46.246	-0.136	0.066
-156.706	-49.556	-0.096	-0.045
-155.691	23.286	-0.125	0.101
-154.677	-200.000	-0.007	0.263
-153.662	346.419	-0.073	-0.142
-152.647	-20.839	-0.128	-0.077
-151.633	-200.000	-0.002	-0.149
-150.618	-200.000	-0.053	0.397
-149.604	58.711	0.169	0.163
-148.589	-79.520	0.427	0.142
-147.574	-200.000	-0.002	-0.100
-146.560	-31.183	-0.225	0.125
-145.545	649.287	-0.156	-0.394
-144.531	19.286	0.044	0.035
-143.516	800.000	0.075	-0.215
-142.502	-169.958	0.262	-0.009
-141.487	-146.682	-0.175	-0.015
-140.472	-14.888	-0.112	0.071
-139.458	800.000	0.146	0.454
-138.443	-127.382	0.153	0.022
-137.429	-3.052	-0.134	0.092
-136.414	-200.000	-0.011	0.094
-135.399	67.009	-0.076	-0.076
-134.385	-4.732	0.200	0.136
-133.370	-100.448	-0.301	0.073
-132.356	-121.677	0.143	-0.023
-131.341	28.171	0.330	-0.274
-130.326	-200.000	0.096	-0.434
-129.312	117.895	-0.073	-0.089
-128.297	86.767	0.147	0.160
-127.283	17.529	-0.146	0.114
-126.268	43.409	-0.271	-0.244
-125.253	469.718	0.055	-0.121
-124.239	-75.510	0.353	0.124
-123.224	-61.140	0.203	0.084
-122.210	220.753	0.178	0.282
-121.195	345.520	0.157	0.304
-120.180	-60.572	0.216	-0.090
-119.166	291.308	-0.093	0.166
-118.151	-26.475	0.149	-0.086
-117.137	-27.400	0.146	-0.084
-116.122	125.258	0.188	-0.233
-115.107	292.518	0.253	-0.453
-114.093	-110.743	0.446	0.091
-113.078	-200.000	-0.067	0.511
-112.064	161.461	0.216	0.297
-111.049	800.000	0.031	0.096
-110.034	-200.000	-0.024	-0.205
-109.020	-5.120	0.066	-0.045
-108.005	40.674	0.197	0.175
-106.991	-1.814	-0.118	0.082
-105.976	-128.263	0.063	0.009
-104.962	73.001	-0.159	0.164
-103.947	-200.000	0.044	0.500
-102.932	-200.000	0.001	0.076
-101.918	-45.984	-0.260	0.126
-100.903	-7.892	-0.188	0.125
-99.889	144.939	0.051	0.068
-98.874	-200.000	-0.009	0.303
-97.859	-144.286	-0.426	-0.039
-96.845	-111.414	-0.130	-0.026
-95.830	-84.266	-0.118	0.037
-94.816	-23.493	-0.375	0.221
-93.801	800.000	0.068	-0.212
-92.786	-200.000	-0.024	-0.238
-91.772	800.000	-0.055	-0.151
-90.757	-55.208	0.223	-0.098
-89.743	40.092	0.034	0.030
-88.728	87.341	-0.177	-0.193
-87.713	-200.000	0.017	-0.118
-86.699	-200.000	0.073	-0.383
-85.684	-152.316	0.272	-0.019
-84.670	70.350	0.148	0.150
-83.655	-41.262	-0.141	0.072
-82.640	117.707	-0.128	0.155
-81.626	131.254	0.017	0.022
-80.611	-200.000	-0.061	0.267
-79.597	-200.000	0.003	0.451
-78.582	-192.239	0.098	0.001
-77.567	220.116	0.191	-0.301
-76.553	-60.011	0.139	0.058
-75.538	-200.000	-0.006	0.087
-74.524	40.024	0.206	-0.182
-73.509	-51.557	-0.547	0.251
-72.494	-74.542	0.309	-0.109
-71.480	-200.000	-0.009	0.257
-70.465	-200.000	0.008	0.240
-69.451	-59.500	0.126	-0.053
-68.436	-200.000	0.020	0.161
-67.422	-72.587	0.049	0.018
-66.407	-57.463	-0.279	-0.120
-65.392	-19.269	0.127	0.078
-64.378	155.667	-0.091	-0.123
-63.363	-44.841	0.268	0.131
-62.349	800.000	0.071	0.217
-61.334	79.789	-0.781	-0.824
-60.319	244.506	0.431	0.711
-59.305	800.000	-0.248	-0.815
-58.290	454.548	0.522	1.137
-57.276	504.450	0.685	1.558
-56.261	-200.000	95.537	595.828
-55.246	571.859	1368.559	3273.872
-54.232	161.124	2556.428	3509.176
-53.217	106.887	2269.288	2646.199
-52.203	41.471	1895.597	1684.840
-51.188	35.289	1685.874	1451.747
-50.173	32.622	1641.424	1393.722
-49.159	50.142	1687.838	1564.813
-48.144	51.814	1703.874	1592.142
-47.130	34.864	1664.857	1430.241
-46.115	32.130	1650.585	1397.617
-45.100	31.961	1645.794	1392.249
-44.086	31.953	1642.976	1389.751
-43.071	31.942	1640.398	1387.430
-42.057	31.828	1638.456	1384.890
-41.042	31.866	1636.407	1383.390
-40.027	31.951	1634.428	1382.286
-39.013	31.824	1632.428	1379.606
-37.998	31.817	1630.863	1378.172
-36.984	31.932	1629.729	1378.010
-35.969	32.013	1627.797	1376.915
-34.954	32.085	1625.882	1375.768
-33.940	31.992	1624.123	1373.539
-32.925	31.982	1622.961	1372.435
-31.911	31.977	1620.909	1370.607
-30.896	31.969	1619.194	1369.044
-29.881	31.919	1618.069	1367.670
-28.867	32.003	1616.081	1366.550
-27.852	31.975	1614.477	1364.936
-26.838	31.917	1613.115	1363.305
-25.823	31.955	1611.476	1362.146
-24.809	32.077	1609.829	1361.582
-23.794	31.949	1608.817	1359.747
-22.779	32.063	1607.331	1359.264
-21.765	31.973	1606.170	1357.577
-20.750	31.970	1604.176	1355.810
-19.736	32.034	1602.990	1355.219
-18.721	32.097	1601.027	1353.961
-17.706	32.144	1599.749	1353.167
-16.692	32.022	1598.543	1351.216
-15.677	31.990	1596.879	1349.522
-14.663	32.099	1595.572	1349.145
-13.648	32.054	1594.517	1347.882
-12.633	32.037	1592.949	1346.380
-11.619	32.017	1590.963	1344.506
-10.604	32.020	1589.906	1343.576
-9.590	32.035	1588.738	1342.644
-8.575	32.119	1587.195	1341.889
-7.560	32.060	1585.906	1340.325
-6.546	32.058	1584.968	1339.460
-5.531	32.079	1583.647	1338.442
-4.517	31.952	1582.437	1336.466
-3.502	32.024	1581.168	1335.848
-2.487	32.151	1579.170	1335.012
-1.473	31.893	1568.112	1323.788
-0.458	29.241	1549.361	1289.383
0.556	25.771	1550.656	1260.235
1.571	23.655	1573.789	1263.874
2.586	23.275	1587.712	1272.216
3.600	20.364	1533.420	1208.377
4.615	10.998	1421.449	1059.333
5.629	3.036	1356.381	961.125
6.644	1.730	1348.234	947.148
7.659	1.617	1346.428	945.095
8.673	1.567	1345.486	944.039
9.688	1.495	1343.837	942.354
10.702	1.163	1341.010	938.234
11.717	4.604	1348.028	964.429
12.731	14.840	1367.260	1042.224
13.746	23.521	1381.619	1107.535
14.761	25.899	1384.451	1124.563
15.775	26.235	1384.620	1126.700
16.790	26.313	1383.988	1126.570
17.804	26.337	1383.728	1126.408
18.819	26.545	1383.071	1127.071
19.834	26.624	1382.726	1127.178
20.848	26.696	1382.029	1126.958
21.863	26.656	1381.085	1125.844
22.877	26.718	1379.969	1125.218
23.892	26.678	1379.626	1124.589
24.907	26.722	1378.624	1123.948
25.921	26.710	1377.726	1123.042
26.936	26.680	1376.502	1121.757
27.950	26.719	1375.410	1121.012
28.965	26.656	1374.430	1119.721
29.980	26.589	1373.704	1118.618
30.994	26.813	1371.620	1118.202
32.009	26.637	1371.101	1116.597
33.023	26.671	1369.867	1115.706
34.038	26.646	1368.578	1114.400
35.053	26.675	1367.991	1114.002
36.067	26.710	1366.693	1113.063
37.082	26.747	1366.000	1112.625
38.096	26.671	1364.879	1111.151
39.111	26.593	1364.445	1110.221
40.126	26.681	1363.685	1110.040
41.140	26.591	1363.126	1108.935
42.155	26.682	1362.673	1109.030
43.169	26.750	1362.703	1109.368
44.184	26.610	1362.867	1108.545
45.199	26.647	1362.082	1108.036
46.213	26.718	1361.784	1108.130
47.228	26.798	1360.172	1107.208
48.242	26.693	1359.356	1105.809
49.257	26.694	1357.900	1104.529
50.271	26.582	1356.689	1102.765
51.286	26.699	1355.352	1102.295
52.301	26.577	1354.206	1100.522
53.315	26.606	1353.430	1099.969
54.330	26.668	1352.774	1099.718
55.344	26.739	1351.065	1098.657
56.359	26.624	1350.577	1097.472
57.374	26.680	1349.487	1096.823
58.388	26.636	1348.891	1095.979
59.403	26.715	1348.321	1095.899
60.417	26.654	1347.989	1095.162
61.432	26.546	1347.401	1093.933
62.447	26.604	1346.507	1093.463
63.461	26.642	1345.216	1092.544
64.476	26.590	1344.297	1091.387
65.490	26.761	1342.791	1091.100
66.505	26.717	1341.459	1089.652
67.520	26.847	1339.674	1088.891
68.534	26.701	1339.374	1087.674
69.549	26.679	1338.525	1086.752
70.563	26.622	1338.256	1086.098
71.578	26.696	1336.004	1084.615
72.593	26.703	1335.932	1084.505
73.607	26.701	1334.679	1083.381
74.622	26.667	1334.652	1083.057
75.636	26.699	1334.090	1082.701
76.651	26.724	1333.267	1082.081
77.666	26.633	1332.865	1081.120
78.680	26.695	1331.989	1080.685
79.695	26.695	1331.198	1079.946
80.709	26.681	1330.651	1079.320
81.724	26.678	1329.666	1078.413
82.739	26.713	1328.780	1077.803
83.753	26.607	1328.040	1076.476
84.768	26.797	1326.416	1076.193
85.782	26.699	1325.858	1075.063
86.797	26.822	1324.105	1074.276
87.812	26.731	1323.589	1073.223
88.826	26.690	1322.742	1072.202
89.841	26.738	1321.845	1071.661
90.855	26.663	1320.618	1070.131
91.870	26.837	1319.549	1070.198
92.884	26.776	1318.609	1068.977
93.899	26.827	1317.893	1068.606
94.914	26.635	1318.020	1067.478
95.928	26.709	1316.615	1066.686
96.943	26.744	1315.985	1066.287
97.957	26.708	1315.512	1065.599
98.972	26.762	1314.385	1064.904
99.987	26.762	1313.625	1064.198
101.001	26.788	1312.367	1063.233
102.016	26.702	1311.958	1062.303
103.030	26.712	1310.990	1061.489
104.045	26.760	1309.972	1060.852
105.060	26.800	1309.177	1060.347
106.074	26.749	1308.074	1059.059
107.089	26.811	1307.605	1058.947
108.103	26.847	1305.853	1057.645
109.118	26.921	1304.445	1056.843
110.133	26.864	1303.875	1055.955
111.147	26.841	1302.669	1054.753
112.162	26.814	1301.770	1053.772
113.176	26.879	1300.525	1053.050
114.191	26.903	1299.665	1052.400
115.206	26.830	1298.671	1051.081
116.220	26.769	1297.699	1049.848
117.235	26.811	1297.106	1049.517
118.249	26.809	1296.237	1048.709
119.264	26.936	1294.844	1048.223
120.279	26.903	1294.896	1047.980
121.293	26.850	1293.886	1046.768
122.308	26.828	1293.124	1045.932
123.322	26.852	1292.451	1045.432
124.337	26.787	1291.636	1044.307
125.352	27.085	1290.283	1044.831
126.366	26.968	1289.450	1043.393
127.381	26.904	1288.833	1042.435
128.395	26.926	1288.026	1041.816
129.410	26.884	1287.114	1040.748
130.424	26.908	1286.182	1040.038
131.439	26.921	1285.502	1039.471
132.454	26.917	1284.259	1038.351
133.468	26.875	1284.110	1037.897
134.483	26.916	1283.781	1037.776
135.497	26.822	1282.685	1036.256
136.512	26.777	1281.669	1035.091
137.527	26.863	1280.063	1034.194
138.541	26.956	1279.318	1034.027
139.556	26.828	1278.287	1032.376
140.570	26.779	1277.576	1031.431
141.585	26.786	1275.967	1030.081
142.600	26.775	1275.152	1029.267
143.614	26.887	1274.529	1029.308
144.629	26.864	1273.367	1028.150
145.643	26.705	1272.744	1026.653
146.658	26.772	1271.732	1026.126
147.673	26.793	1270.668	1025.295
148.687	26.777	1269.767	1024.386
149.702	26.793	1268.609	1023.452
150.716	26.838	1267.469	1022.696
151.731	26.825	1266.639	1021.865
152.746	26.924	1265.016	1021.024
153.760	26.820	1264.615	1020.025
154.775	26.846	1263.128	1018.881
155.789	26.812	1262.908	1018.420
156.804	26.863	1261.611	1017.569
157.819	26.757	1261.045	1016.428
158.833	26.882	1260.203	1016.360
159.848	26.855	1259.824	1015.816
160.862	26.887	1258.962	1015.208
161.877	26.875	1257.920	1014.208
162.892	26.930	1256.779	1013.506
163.906	26.887	1256.782	1013.183
164.921	27.012	1255.562	1012.805
165.935	26.904	1255.126	1011.764
166.950	26.930	1254.804	1011.555
167.964	26.978	1253.641	1010.800
168.979	26.940	1253.330	1010.247
169.994	27.013	1252.655	1010.019
171.008	26.980	1251.687	1008.965
172.023	27.076	1251.023	1008.875
173.037	27.078	1250.363	1008.262
174.052	26.899	1249.867	1006.782
175.067	27.022	1248.625	1006.375
176.081	26.957	1248.148	1005.539
177.096	26.965	1247.389	1004.887
178.110	26.963	1246.451	1004.026
179.125	27.162	1245.331	1004.139
180.140	27.052	1244.261	1002.579
181.154	27.015	1243.406	1001.595
182.169	27.000	1241.969	1000.267
183.183	27.024	1241.136	999.640
184.198	27.096	1240.143	999.148
185.213	27.035	1239.300	998.045
186.227	27.106	1238.561	997.754
187.242	27.052	1237.657	996.637
188.256	27.054	1237.006	996.037
189.271	27.125	1236.004	995.533
190.286	27.097	1235.243	994.679
191.300	27.156	1234.429	994.258
192.315	27.145	1234.262	993.974
193.329	27.091	1233.868	993.272
194.344	27.093	1233.641	993.011
195.359	27.052	1233.057	992.231
196.373	26.989	1232.597	991.430
197.388	27.081	1232.072	991.424
198.402	27.124	1231.581	991.176
199.417	27.076	1231.261	990.569
200.432	27.193	1230.308	990.351
201.446	27.179	1229.590	989.607
202.461	27.144	1229.062	988.907
203.475	27.103	1228.481	988.125
204.490	27.140	1227.319	987.308
205.504	27.270	1226.145	986.977
206.519	27.189	1225.748	986.134
207.534	27.209	1224.466	985.123
208.548	27.180	1223.605	984.185
209.563	27.167	1223.089	983.613
210.577	27.181	1222.317	982.980
211.592	27.100	1221.626	981.901
212.607	27.135	1220.804	981.340
213.621	27.218	1219.972	981.037
214.636	27.154	1219.504	980.229
215.650	27.209	1218.504	979.632
216.665	27.274	1216.993	978.680
217.680	27.177	1216.590	977.745
218.694	27.289	1215.709	977.555
219.709	27.286	1215.331	977.148
220.723	27.187	1214.607	975.948
221.738	27.191	1213.948	975.352
222.753	27.202	1212.957	974.530
223.767	27.114	1212.961	973.976
224.782	27.184	1212.215	973.665
225.796	27.285	1211.558	973.591
226.811	27.269	1210.929	972.914
227.826	27.456	1210.269	973.298
228.840	27.330	1209.640	972.033
229.855	27.367	1208.636	971.339
230.869	27.232	1208.342	970.294
231.884	27.387	1207.689	970.511
232.899	27.254	1206.969	969.140
233.913	27.245	1207.025	969.051
234.928	27.465	1205.842	969.187
235.942	27.435	1205.261	968.471
236.957	27.361	1204.305	967.226
237.972	27.268	1204.087	966.471
238.986	27.393	1202.944	966.132
240.001	27.359	1203.012	965.918
241.015	27.484	1201.928	965.628
242.030	27.409	1201.068	964.456
243.045	27.504	1200.559	964.462
244.059	27.564	1199.199	963.599
245.074	27.572	1198.833	963.265
246.088	27.553	1197.760	962.215
247.103	27.540	1197.311	961.701
248.117	27.477	1196.253	960.437
249.132	27.446	1195.907	959.908
250.147	27.527	1195.358	959.810
251.161	27.555	1194.196	958.940
252.176	27.595	1193.753	958.712
253.190	27.560	1193.189	957.986
254.205	27.603	1192.375	957.477
255.220	27.538	1191.690	956.498
256.234	27.581	1191.371	956.385
257.249	27.619	1190.495	955.798
258.263	27.635	1189.882	955.303
259.278	27.508	1189.445	954.202
260.293	27.566	1189.357	954.350
261.307	27.663	1188.750	954.286
262.322	27.698	1187.630	953.486
263.336	27.629	1187.195	952.692
264.351	27.648	1186.344	952.022
265.366	27.547	1186.011	951.144
266.380	27.578	1185.704	950.979
267.395	27.680	1184.605	950.541
268.409	27.560	1184.457	949.713
269.424	27.615	1183.772	949.370
270.439	27.646	1183.355	949.110
271.453	27.660	1182.270	948.231
272.468	27.568	1181.665	947.183
273.482	27.669	1180.673	946.826
274.497	27.802	1179.944	946.848
275.512	27.746	1179.913	946.449
276.526	27.773	1178.988	945.765
277.541	27.768	1178.516	945.275
278.555	27.751	1177.752	944.493
279.570	27.783	1177.548	944.409
280.585	27.740	1176.213	943.032
281.599	27.744	1175.649	942.518
282.614	27.825	1174.190	941.683
283.628	27.862	1173.650	941.360
284.643	27.778	1172.884	940.229
285.657	27.759	1172.235	939.524
286.672	27.808	1171.318	938.961
287.687	27.899	1170.209	938.457
288.701	27.824	1169.958	937.786
289.716	27.957	1168.892	937.532
290.730	27.959	1168.216	936.917
291.745	27.991	1168.010	936.832
292.760	27.982	1167.145	936.012
293.774	27.863	1166.731	934.984
294.789	27.958	1166.305	935.047
295.803	27.915	1165.674	934.239
296.818	28.012	1164.768	933.926
297.833	28.093	1163.981	933.628
298.847	27.931	1163.954	932.696
299.862	27.876	1163.039	931.599
300.876	27.911	1162.545	931.298
301.891	27.950	1161.951	930.938
302.906	28.066	1160.996	930.679
303.920	28.087	1160.522	930.327
304.935	28.048	1159.764	929.437
305.949	28.060	1159.236	928.991
306.964	28.035	1158.861	928.483
307.979	27.943	1158.271	927.464
308.993	28.122	1156.927	927.213
310.008	28.056	1156.622	926.552
311.022	28.045	1156.059	925.963
312.037	28.024	1155.138	925.036
313.052	28.075	1154.536	924.730
314.066	28.071	1153.167	923.532
315.081	28.091	1152.796	923.253
316.095	28.240	1152.255	923.488
317.110	28.181	1151.687	922.654
318.125	28.220	1150.854	922.104
319.139	28.011	1150.483	920.674
320.154	28.128	1149.854	920.674
321.168	28.189	1149.488	920.607
322.183	28.164	1148.669	919.745
323.197	28.123	1147.934	918.870
324.212	28.053	1147.695	918.246
325.227	28.167	1147.130	918.285
326.241	28.251	1146.546	918.159
327.256	28.259	1145.816	917.529
328.270	28.316	1144.906	917.006
329.285	28.302	1144.049	916.171
330.300	28.285	1143.133	915.270
331.314	28.290	1142.240	914.496
332.329	28.344	1141.396	914.013
333.343	28.309	1140.934	913.384
334.358	28.388	1139.982	912.938
335.373	28.357	1139.776	912.537
336.387	28.436	1138.753	912.029
337.402	28.392	1138.042	911.158
338.416	28.374	1137.666	910.689
339.431	28.367	1137.469	910.417
340.446	28.368	1136.487	909.555
341.460	28.525	1135.683	909.608
342.475	28.398	1135.017	908.369
343.489	28.368	1134.382	907.630
344.504	28.464	1133.239	907.110
345.519	28.470	1132.470	906.443
346.533	28.471	1131.602	905.672
347.548	28.433	1131.075	904.981
348.562	28.501	1130.696	904.935
349.577	28.449	1130.118	904.136
350.592	28.366	1129.189	902.904
351.606	28.526	1128.140	902.774
352.621	28.491	1127.742	902.202
353.635	28.491	1127.158	901.655
354.650	28.543	1126.617	901.399
355.665	28.596	1125.867	900.980
356.679	28.577	1125.185	900.259
357.694	28.472	1125.055	899.563
358.708	28.657	1124.170	899.683
359.723	28.600	1123.609	898.873
360.738	28.591	1122.516	897.877
361.752	28.598	1122.046	897.456
362.767	28.476	1121.848	896.617
363.781	28.676	1120.919	896.774
364.796	28.568	1120.857	896.119
365.810	28.628	1120.270	895.861
366.825	28.832	1118.960	895.733
367.840	28.757	1118.995	895.312
368.854	28.761	1118.346	894.735
369.869	28.723	1117.708	893.961
370.883	28.728	1116.742	893.132
371.898	28.746	1116.127	892.648
372.913	28.732	1115.871	892.300
373.927	28.709	1115.527	891.831
374.942	28.709	1114.870	891.227
375.956	28.784	1114.343	891.090
376.971	28.800	1113.527	890.437
377.986	28.755	1113.325	889.979
379.000	28.849	1112.470	889.672
380.015	28.950	1111.816	889.559
381.029	28.749	1111.499	888.253
382.044	28.894	1110.643	888.191
383.059	28.923	1110.017	887.753
384.073	28.883	1109.328	886.929
385.088	28.900	1108.596	886.348
386.102	28.862	1107.624	885.307
387.117	28.863	1106.922	884.675
388.132	28.857	1105.963	883.802
389.146	28.969	1105.421	883.827
390.161	28.922	1104.732	882.973
391.175	29.026	1104.052	882.849
392.190	29.003	1103.670	882.359
393.205	28.974	1102.734	881.393
394.219	29.114	1101.961	881.367
395.234	29.050	1101.211	880.380
396.248	29.096	1100.369	879.850
397.263	28.941	1099.910	878.664
398.278	29.055	1099.519	878.822
399.292	29.044	1099.207	878.439
400.307	29.108	1098.153	877.824
401.321	29.203	1097.500	877.681
402.336	29.111	1096.546	876.401
403.350	29.160	1095.962	876.089
404.365	29.155	1095.458	875.585
405.380	29.178	1095.206	875.414
406.394	29.148	1094.006	874.237
407.409	29.186	1093.441	873.886
408.423	29.249	1092.689	873.508
409.438	29.167	1092.320	872.747
410.453	29.350	1090.949	872.441
411.467	29.299	1090.571	871.818
412.482	29.184	1089.904	870.666
413.496	29.318	1089.132	870.603
414.511	29.294	1088.637	870.021
415.526	29.200	1088.606	869.476
416.540	29.271	1087.767	869.060
417.555	29.311	1088.021	869.376
418.569	29.249	1087.019	868.208
419.584	29.349	1086.294	868.021
420.599	29.352	1086.110	867.810
421.613	103.809	1322.735	1461.170
422.628	96.639	1357.146	1461.271
