DTS Sentinel unit serial number:	SN413079Multiplexer serial number:	ORYXHardware model number:	OX4-SRSoftware version number:	ORYX F/W v4.00 Oryx Data Collector v3.7.2.0data status	okinstallation	princeton_trtdifferential loss correction	single-endedforward channel	channel 2reverse channel	N/Adate	2019/09/13time	22:07:34forward acquisition time	60.00reverse acquisition time	0.00gamma	496.2192k internal	0.2335k external	0.2335temperature offset calibration	1.0135default loss term (dB/km)	0.3790temperature slope calibration	1.0000multiplexer offset coefficient	1.0000multiplexer slope coefficient	1.0000fibre end	0.00T internal ref (°C)	27.94T ext. ref 1 (°C)	3.26T ext. ref 2 (°C)	22.69length (m)	temperature (°C)	Stokes	anti-Stokes-747.200	55.335	-0.145	0.141
-746.185	-200.000	-0.007	-0.104
-745.171	-200.000	0.002	0.218
-744.156	58.494	0.187	0.184
-743.142	136.593	-0.272	-0.357
-742.127	-89.417	-0.178	0.053
-741.112	28.097	0.328	-0.278
-740.098	-26.167	0.081	0.048
-739.083	409.741	0.186	-0.396
-738.069	-90.271	-0.215	0.063
-737.054	216.464	-0.098	0.156
-736.039	-86.111	-0.244	-0.076
-735.025	31.508	-0.013	0.012
-734.010	-62.905	-0.269	0.112
-732.996	311.445	-0.130	0.244
-731.981	-200.000	-0.033	-0.264
-730.966	-164.434	-0.312	-0.014
-729.952	12.976	-0.138	-0.107
-728.937	-72.564	-0.184	-0.068
-727.923	78.737	-0.221	-0.237
-726.908	103.452	-0.181	0.213
-725.894	-158.914	-0.492	0.028
-724.879	-200.000	-0.344	0.001
-723.864	-130.699	-0.164	0.022
-722.850	-85.820	-0.118	0.037
-721.835	-200.000	0.004	0.025
-720.821	-21.829	-0.096	-0.058
-719.806	6.119	-0.255	-0.190
-718.791	-109.416	-0.165	0.035
-717.777	24.077	-0.138	0.115
-716.762	-60.350	-0.215	0.092
-715.748	55.721	-0.253	-0.246
-714.733	-135.328	0.230	0.028
-713.718	103.173	-0.217	0.255
-712.704	31.451	-0.129	0.111
-711.689	-41.213	0.229	-0.119
-710.675	-39.321	0.035	-0.019
-709.660	-200.000	-0.026	-0.252
-708.645	800.000	-0.076	-0.281
-707.631	271.442	0.196	0.347
-706.616	235.741	0.036	0.060
-705.602	74.710	-0.203	-0.215
-704.587	20.508	-0.265	0.215
-703.572	30.013	-0.212	-0.181
-702.558	484.487	0.101	-0.231
-701.543	-84.998	-0.236	-0.074
-700.529	-200.000	0.025	-0.210
-699.514	-200.000	0.008	0.076
-698.499	-67.253	0.339	-0.134
-697.485	-17.427	0.164	0.103
-696.470	179.930	-0.171	0.251
-695.456	-117.834	0.406	0.073
-694.441	-61.818	-0.239	0.100
-693.426	-24.816	0.053	-0.032
-692.412	-200.000	-0.199	-0.001
-691.397	-200.000	0.066	0.427
-690.383	-122.491	0.185	0.030
-689.368	-200.000	0.006	0.167
-688.354	-123.195	0.055	-0.009
-687.339	800.000	-0.053	0.149
-686.324	800.000	0.060	0.205
-685.310	-24.451	-0.060	0.036
-684.295	-42.332	-0.096	0.049
-683.281	-71.806	-0.215	0.080
-682.266	-200.000	-0.038	0.305
-681.251	205.550	-0.087	0.135
-680.237	-200.000	-0.089	-0.486
-679.222	-46.664	0.115	0.056
-678.208	122.799	-0.072	0.091
-677.193	-163.979	0.231	0.011
-676.178	10.292	0.133	-0.102
-675.164	699.939	-0.113	-0.299
-674.149	146.382	0.047	-0.064
-673.135	-134.454	-0.152	-0.019
-672.120	-3.596	0.338	0.236
-671.105	-3.507	-0.262	-0.183
-670.091	153.440	-0.145	-0.199
-669.076	-129.531	-0.415	-0.058
-668.062	348.853	0.101	0.200
-667.047	800.000	0.044	-0.142
-666.032	-177.918	0.270	0.006
-665.018	216.167	-0.105	0.167
-664.003	461.568	0.089	-0.200
-662.989	-200.000	0.022	0.612
-661.974	200.760	-0.066	0.101
-660.959	-85.038	0.170	0.053
-659.945	271.097	0.090	-0.159
-658.930	-4.062	-0.281	0.195
-657.916	-138.782	-0.168	-0.018
-656.901	147.140	0.296	-0.399
-655.886	-156.116	-0.156	0.010
-654.872	183.289	-0.055	0.082
-653.857	583.065	0.077	0.188
-652.843	331.817	0.159	-0.306
-651.828	-4.270	-0.152	-0.105
-650.814	62.324	0.134	0.134
-649.799	-168.601	-0.348	-0.013
-648.784	800.000	0.012	-0.036
-647.770	189.475	0.157	-0.235
-646.755	-73.051	-0.269	-0.099
-645.741	-8.812	0.302	0.203
-644.726	-200.000	-0.034	-0.295
-643.711	103.785	-0.143	0.168
-642.697	39.371	-0.378	-0.339
-641.682	800.000	-0.018	-0.067
-640.668	-45.744	-0.245	0.121
-639.653	20.699	-0.279	-0.226
-638.638	-92.510	-0.354	0.100
-637.624	-162.049	-0.146	0.007
-636.609	-200.000	0.015	0.252
-635.595	-72.076	0.299	0.111
-634.580	6.168	0.224	-0.166
-633.565	393.307	-0.036	-0.074
-632.551	-58.257	0.168	-0.073
-631.536	97.328	-0.199	0.229
-630.522	-92.434	0.180	0.051
-629.507	-42.211	-0.139	-0.071
-628.492	-94.111	-0.165	-0.045
-627.478	-28.282	0.306	0.177
-626.463	325.958	0.239	-0.457
-625.449	448.536	-0.124	0.273
-624.434	-200.000	-0.050	0.306
-623.419	-120.006	0.063	-0.011
-622.405	19.698	0.088	0.071
-621.390	-113.499	-0.216	-0.042
-620.376	-37.979	-0.412	0.219
-619.361	26.402	0.128	-0.107
-618.346	619.930	0.039	-0.097
-617.332	31.079	-0.244	0.209
-616.317	152.366	0.124	-0.170
-615.303	276.035	0.103	0.183
-614.288	157.643	-0.046	0.063
-613.273	-76.381	-0.433	0.152
-612.259	-43.815	0.117	0.059
-611.244	-200.000	-0.016	0.337
-610.230	41.329	0.107	0.097
-609.215	-200.000	-0.058	-0.351
-608.201	-78.738	0.277	0.095
-607.186	-78.553	-0.475	0.162
-606.171	-93.013	-0.151	-0.042
-605.157	9.980	0.106	0.081
-604.142	-200.000	-0.010	0.118
-603.128	-71.046	-0.297	0.112
-602.113	25.083	-0.374	0.310
-601.098	-200.000	-0.010	0.082
-600.084	634.292	0.055	-0.139
-599.069	-58.458	-0.302	0.131
-598.055	-200.000	-0.027	0.131
-597.040	-106.610	0.190	-0.042
-596.025	-94.962	0.063	-0.017
-595.011	-166.080	0.208	0.009
-593.996	-32.339	0.059	0.033
-592.982	-194.942	0.163	-0.001
-591.967	-200.000	0.003	0.102
-590.952	-200.000	0.053	-0.345
-589.938	35.693	0.220	-0.193
-588.923	-200.000	0.035	-0.158
-587.909	68.862	0.094	-0.096
-586.894	307.648	-0.165	-0.307
-585.879	184.132	0.165	0.244
-584.865	22.265	-0.127	0.104
-583.850	800.000	-0.073	0.239
-582.836	-175.298	-0.218	-0.006
-581.821	3.625	0.255	-0.186
-580.806	-21.352	-0.244	-0.149
-579.792	800.000	0.041	-0.122
-578.777	18.627	-0.119	0.095
-577.763	120.371	0.146	0.181
-576.748	800.000	-0.099	0.315
-575.733	-5.690	-0.117	0.080
-574.719	-138.282	-0.134	0.015
-573.704	-59.087	-0.111	-0.048
-572.690	31.128	0.093	0.080
-571.675	263.454	0.117	-0.202
-570.661	-200.000	0.047	-0.341
-569.646	-200.000	-0.026	-0.151
-568.631	83.432	-0.057	0.062
-567.617	208.425	0.156	0.243
-566.602	3.225	0.128	-0.093
-565.588	143.737	-0.159	-0.211
-564.573	62.757	0.129	-0.129
-563.558	186.677	-0.253	-0.377
-562.544	-156.345	0.331	-0.021
-561.529	-47.905	-0.209	-0.101
-560.515	-75.422	0.126	-0.045
-559.500	-112.671	-0.138	-0.027
-558.485	-200.000	-0.058	-0.365
-557.471	18.070	0.088	-0.070
-556.456	-128.132	-0.284	-0.041
-555.442	-200.000	0.025	-0.259
-554.427	27.276	0.199	-0.167
-553.412	369.099	-0.062	-0.125
-552.398	-122.846	-0.148	-0.024
-551.383	-79.988	-0.336	0.113
-550.369	-99.028	0.292	0.074
-549.354	-113.692	0.135	0.026
-548.339	800.000	0.022	-0.084
-547.325	235.597	0.094	-0.154
-546.310	161.604	-0.017	-0.023
-545.296	113.675	0.125	0.151
-544.281	-200.000	0.002	-0.268
-543.266	-200.000	0.018	0.209
-542.252	-200.000	0.009	-0.050
-541.237	79.657	0.172	-0.184
-540.223	152.347	0.080	-0.109
-539.208	-26.630	0.261	-0.152
-538.193	-1.382	-0.083	-0.058
-537.179	45.515	-0.180	-0.165
-536.164	-27.034	0.287	0.167
-535.150	46.737	0.403	-0.373
-534.135	800.000	-0.090	-0.276
-533.121	152.139	-0.143	0.195
-532.106	-177.566	0.314	-0.008
-531.091	678.755	-0.047	-0.121
-530.077	-67.957	-0.099	0.038
-529.062	800.000	-0.043	0.157
-528.048	-67.314	-0.177	0.069
-527.033	13.959	-0.213	0.165
-526.018	-169.394	0.173	0.006
-525.004	-32.542	0.062	0.034
-523.989	15.390	0.153	-0.119
-522.975	186.549	-0.107	0.159
-521.960	-147.413	0.215	0.018
-520.945	-96.532	-0.223	-0.059
-519.931	170.498	0.123	0.175
-518.916	28.608	-0.063	0.053
-517.902	-144.021	-0.099	0.009
-516.887	300.067	0.133	0.244
-515.872	-81.517	0.384	-0.126
-514.858	-200.000	0.006	0.256
-513.843	800.000	0.076	0.242
-512.829	1.068	-0.022	-0.016
-511.814	-111.016	0.093	-0.019
-510.799	-144.959	-0.071	-0.006
-509.785	4.892	0.118	0.086
-508.770	68.946	-0.283	-0.289
-507.756	-91.275	0.245	0.070
-506.741	-129.699	0.051	-0.007
-505.726	-200.000	0.021	0.456
-504.712	-102.458	0.262	0.062
-503.697	800.000	-0.078	0.274
-502.683	-89.539	0.119	0.035
-501.668	263.147	-0.120	-0.207
-500.653	-140.581	-0.238	0.025
-499.639	-58.351	0.163	-0.070
-498.624	-200.000	-0.008	-0.587
-497.610	-140.877	0.280	0.029
-496.595	-200.000	-0.009	-0.131
-495.581	800.000	0.069	0.223
-494.566	-49.541	0.253	0.120
-493.551	-70.837	-0.349	-0.131
-492.537	-27.113	-0.155	0.090
-491.522	-200.000	-0.033	0.153
-490.508	-11.555	-0.238	-0.156
-489.493	-45.725	-0.070	0.034
-488.478	-200.000	0.026	-0.291
-487.464	-86.650	0.186	-0.057
-486.449	-7.757	0.165	0.111
-485.435	240.424	0.217	-0.359
-484.420	-200.000	0.007	0.072
-483.405	270.891	-0.114	-0.199
-482.391	150.527	-0.164	-0.222
-481.376	157.392	0.049	-0.067
-480.362	-88.159	-0.370	0.110
-479.347	-73.474	-0.050	0.018
-478.332	-200.000	-0.010	-0.122
-477.318	152.932	0.151	-0.206
-476.303	555.926	-0.036	0.086
-475.289	27.776	-0.117	0.098
-474.274	-200.000	-0.108	0.759
-473.259	-200.000	0.002	-0.371
-472.245	-200.000	-0.049	-0.405
-471.230	58.921	0.156	0.152
-470.216	437.449	-0.126	-0.273
-469.201	23.783	-0.058	0.048
-468.186	-108.284	0.299	-0.064
-467.172	-200.000	0.041	0.444
-466.157	800.000	-0.102	0.356
-465.143	175.265	0.212	0.306
-464.128	-93.882	0.050	-0.014
-463.113	-120.367	-0.228	0.039
-462.099	177.693	0.070	-0.102
-461.084	-200.000	-0.012	-0.181
-460.070	378.241	-0.144	0.294
-459.055	-127.128	-0.229	-0.033
-458.040	800.000	0.116	0.420
-457.026	36.282	-0.197	0.173
-456.011	137.948	0.287	0.374
-454.997	-166.034	-0.265	0.011
-453.982	800.000	0.057	-0.170
-452.968	78.536	-0.210	-0.223
-451.953	28.887	-0.232	-0.196
-450.938	565.221	-0.057	0.136
-449.924	291.265	0.098	-0.177
-448.909	83.107	0.167	-0.181
-447.895	163.591	-0.101	-0.141
-446.880	-90.961	0.085	-0.024
-445.865	171.006	-0.155	0.221
-444.851	-56.920	-0.082	-0.036
-443.836	16.505	0.105	-0.083
-442.822	14.784	0.191	0.148
-441.807	7.781	0.157	-0.117
-440.792	800.000	0.052	0.170
-439.778	800.000	0.095	-0.294
-438.763	721.092	-0.055	-0.145
-437.749	-87.754	0.234	-0.070
-436.734	5.236	-0.179	-0.131
-435.719	-30.770	0.313	-0.176
-434.705	-155.581	-0.519	0.033
-433.690	-200.000	0.005	-0.290
-432.676	272.969	-0.034	-0.059
-431.661	-200.000	0.008	0.287
-430.646	-200.000	0.008	0.091
-429.632	14.641	0.263	-0.204
-428.617	39.882	0.248	-0.221
-427.603	-200.000	-0.059	0.397
-426.588	-136.654	0.105	0.012
-425.573	712.692	-0.074	0.195
-424.559	534.625	0.083	-0.195
-423.544	-69.860	-0.105	0.040
-422.530	-48.099	0.079	0.038
-421.515	-200.000	-0.049	-0.267
-420.500	-14.443	0.136	-0.087
-419.486	-10.326	-0.263	-0.173
-418.471	-82.186	0.108	-0.035
-417.457	196.455	-0.087	-0.132
-416.442	485.669	0.022	-0.050
-415.428	153.696	-0.141	-0.191
-414.413	-200.000	0.001	0.214
-413.398	582.765	0.086	0.209
-412.384	33.295	0.076	0.066
-411.369	-159.377	0.285	0.016
-410.355	-49.977	0.148	0.069
-409.340	59.101	0.219	0.214
-408.325	-38.162	-0.237	-0.125
-407.311	-121.282	0.339	-0.056
-406.296	-200.000	-0.005	-0.261
-405.282	-0.641	0.101	-0.071
-404.267	-200.000	0.036	0.510
-403.252	8.125	0.157	-0.117
-402.238	-40.536	0.045	0.023
-401.223	-44.928	0.205	0.101
-400.209	-40.286	-0.063	0.032
-399.194	55.942	-0.157	-0.151
-398.179	800.000	0.097	-0.278
-397.165	-120.567	0.350	0.059
-396.150	800.000	-0.060	-0.208
-395.136	-200.000	-0.021	-0.139
-394.121	-25.728	-0.068	-0.040
-393.106	-76.338	0.094	0.033
-392.092	630.543	-0.076	0.190
-391.077	523.120	-0.066	0.153
-390.063	568.189	-0.087	-0.209
-389.048	385.771	-0.185	0.378
-388.033	-123.973	0.272	0.042
-387.019	185.654	-0.136	-0.200
-386.004	-124.133	0.236	-0.037
-384.990	800.000	-0.061	-0.209
-383.975	-200.000	0.034	0.188
-382.960	-122.216	-0.450	0.073
-381.946	-53.073	-0.164	0.075
-380.931	10.217	0.249	0.188
-379.917	500.782	0.112	0.255
-378.902	800.000	-0.108	-0.414
-377.888	40.062	0.086	0.076
-376.873	67.208	-0.189	0.191
-375.858	-200.000	-0.002	0.201
-374.844	373.366	0.156	-0.315
-373.829	-78.584	0.207	0.070
-372.815	3.060	-0.327	-0.235
-371.800	126.252	0.095	-0.119
-370.785	-71.585	-0.051	-0.019
-369.771	-0.600	0.269	0.189
-368.756	-150.897	-0.134	0.010
-367.742	215.956	0.040	0.063
-366.727	-69.203	-0.137	0.052
-365.712	253.521	-0.243	0.411
-364.698	4.146	0.051	0.037
-363.683	-62.268	-0.282	0.116
-362.669	-200.000	-0.070	-0.335
-361.654	800.000	0.028	-0.086
-360.639	800.000	0.060	-0.169
-359.625	-190.575	-0.298	-0.003
-358.610	-200.000	0.034	0.220
-357.596	0.753	0.066	0.047
-356.581	137.575	0.329	0.427
-355.566	-33.806	0.122	-0.067
-354.552	-200.000	-0.021	0.143
-353.537	-191.932	-0.253	-0.002
-352.523	-31.225	-0.138	-0.077
-351.508	-200.000	0.059	-0.500
-350.493	73.648	0.241	0.250
-349.479	-67.274	-0.340	0.132
-348.464	-56.350	0.081	-0.036
-347.450	4.769	0.013	0.010
-346.435	800.000	0.051	0.223
-345.420	189.021	0.102	-0.152
-344.406	-43.847	-0.251	-0.125
-343.391	800.000	-0.057	0.228
-342.377	164.685	-0.094	-0.131
-341.362	800.000	0.072	-0.253
-340.348	-78.802	-0.449	0.151
-339.333	-50.232	0.144	-0.067
-338.318	67.511	0.084	0.084
-337.304	208.265	-0.112	-0.173
-336.289	196.325	0.170	-0.255
-335.275	347.931	0.081	-0.158
-334.260	-158.161	-0.280	-0.016
-333.245	420.572	-0.060	-0.126
-332.231	-200.000	0.006	-0.115
-331.216	-45.536	-0.199	0.098
-330.202	179.862	-0.217	-0.314
-329.187	136.042	-0.069	-0.089
-328.172	191.563	-0.112	0.166
-327.158	-122.560	0.277	-0.044
-326.143	80.328	-0.196	0.209
-325.129	2.579	0.190	-0.136
-324.114	106.076	0.095	-0.111
-323.099	118.890	-0.247	0.302
-322.085	-104.986	-0.201	0.045
-321.070	800.000	0.050	-0.182
-320.056	800.000	-0.073	-0.286
-319.041	-200.000	0.023	0.299
-318.026	-200.000	-0.044	0.232
-317.012	41.055	0.131	0.116
-315.997	-40.508	0.206	0.106
-314.983	0.558	0.314	-0.222
-313.968	72.058	-0.077	0.079
-312.953	-75.876	0.203	-0.071
-311.939	227.665	-0.129	-0.208
-310.924	-68.318	0.313	-0.120
-309.910	800.000	-0.039	0.158
-308.895	149.575	-0.060	-0.080
-307.880	800.000	0.034	-0.130
-306.866	93.040	0.026	-0.029
-305.851	800.000	0.029	-0.101
-304.837	55.079	-0.144	0.137
-303.822	-171.527	0.026	0.001
-302.807	-200.000	0.009	0.077
-301.793	620.009	0.086	-0.213
-300.778	444.073	-0.200	-0.434
-299.764	-200.000	-0.022	-0.186
-298.749	107.264	-0.043	-0.051
-297.735	-139.507	-0.312	-0.033
-296.720	-200.000	-0.075	0.663
-295.705	-57.624	0.316	0.137
-294.691	-135.733	-0.239	-0.028
-293.676	-200.000	0.006	0.129
-292.662	-83.385	0.294	-0.093
-291.647	82.901	-0.066	0.071
-290.632	-24.057	-0.088	0.052
-289.618	-49.973	-0.496	-0.232
-288.603	-200.000	-0.028	-0.437
-287.589	158.065	-0.151	0.207
-286.574	-55.710	0.398	0.176
-285.559	-29.024	0.103	0.058
-284.545	-117.147	-0.212	0.038
-283.530	-196.892	0.107	0.001
-282.516	800.000	0.090	-0.265
-281.501	104.607	-0.131	-0.152
-280.486	-68.704	-0.371	-0.142
-279.472	-200.000	0.011	-0.357
-278.457	371.633	-0.100	-0.200
-277.443	245.613	-0.127	-0.211
-276.428	-80.023	0.317	0.105
-275.413	-200.000	0.009	-0.148
-274.399	-28.543	0.325	0.185
-273.384	-115.905	0.165	0.030
-272.370	64.882	-0.157	-0.157
-271.355	10.577	0.216	-0.163
-270.340	103.638	-0.170	-0.197
-269.326	-200.000	-0.002	-0.022
-268.311	-200.000	-0.023	-0.101
-267.297	-83.020	0.125	0.040
-266.282	-88.695	-0.163	0.048
-265.267	800.000	-0.082	0.277
-264.253	-147.787	-0.289	0.024
-263.238	73.062	0.162	0.167
-262.224	102.268	-0.055	0.064
-261.209	258.447	0.145	0.246
-260.195	61.387	-0.130	0.127
-259.180	-54.860	0.244	-0.109
-258.165	-57.932	-0.368	-0.158
-257.151	70.137	0.118	-0.120
-256.136	-85.218	0.121	0.037
-255.122	94.114	0.203	0.227
-254.107	-123.707	-0.232	0.036
-253.092	-200.000	0.050	-0.233
-252.078	25.373	0.425	-0.348
-251.063	-17.639	-0.047	0.029
-250.049	800.000	0.035	-0.134
-249.034	120.667	0.073	-0.089
-248.019	-42.299	-0.047	-0.023
-247.005	-68.911	0.323	-0.123
-245.990	-200.000	-0.036	-0.230
-244.976	-33.513	0.130	0.071
-243.961	234.282	-0.150	-0.243
-242.946	-200.000	-0.005	-0.046
-241.932	-89.468	0.131	-0.038
-240.917	-153.406	-0.196	0.013
-239.903	-56.465	0.290	0.127
-238.888	-123.442	-0.289	0.045
-237.873	183.135	0.089	0.130
-236.859	18.972	0.204	-0.161
-235.844	-38.253	-0.081	-0.042
-234.830	584.448	-0.058	0.139
-233.815	-97.832	0.251	0.064
-232.800	-200.000	0.016	-0.078
-231.786	137.183	-0.056	0.072
-230.771	-118.384	0.279	-0.049
-229.757	304.721	-0.178	-0.326
-228.742	-16.817	0.006	-0.004
-227.727	536.469	0.141	0.331
-226.713	389.896	0.102	0.208
-225.698	-51.168	-0.142	-0.066
-224.684	115.257	-0.059	0.071
-223.669	-200.000	-0.013	0.103
-222.655	-3.197	0.084	0.058
-221.640	24.149	-0.097	-0.079
-220.625	-50.041	0.139	0.065
-219.611	-200.000	-0.010	-0.241
-218.596	13.248	-0.274	0.209
-217.582	264.445	0.102	-0.176
-216.567	58.956	-0.122	0.118
-215.552	18.306	-0.135	-0.106
-214.538	101.848	-0.099	0.113
-213.523	-83.909	0.378	0.119
-212.509	166.798	0.026	0.037
-211.494	16.911	-0.160	-0.124
-210.479	-62.291	-0.089	0.036
-209.465	-200.000	0.037	0.235
-208.450	-200.000	-0.003	-0.286
-207.436	-55.676	0.108	0.048
-206.421	228.470	0.147	-0.235
-205.406	-46.094	-0.160	-0.077
-204.392	12.491	-0.101	-0.076
-203.377	730.670	-0.038	-0.099
-202.363	122.625	0.251	0.309
-201.348	-11.551	-0.253	0.164
-200.333	-101.334	0.369	0.089
-199.319	-118.034	0.286	-0.050
-198.304	579.437	-0.047	-0.114
-197.290	111.655	-0.027	-0.032
-196.275	114.336	0.230	0.276
-195.260	800.000	-0.029	-0.101
-194.246	-124.785	0.295	-0.045
-193.231	-141.405	-0.437	-0.044
-192.217	-48.582	0.409	0.193
-191.202	-130.855	0.343	-0.045
-190.187	12.991	-0.139	0.106
-189.173	56.612	0.184	-0.176
-188.158	-40.469	-0.212	0.108
-187.144	-200.000	-0.063	0.406
-186.129	152.870	0.058	-0.078
-185.114	-200.000	-0.019	0.495
-184.100	-107.303	-0.120	0.026
-183.085	-137.476	-0.186	-0.021
-182.071	27.011	-0.047	0.039
-181.056	-5.657	0.231	0.156
-180.042	800.000	0.065	0.224
-179.027	623.113	-0.113	0.279
-178.012	575.824	-0.091	-0.219
-176.998	-34.157	-0.141	-0.076
-175.983	422.747	0.134	-0.283
-174.969	244.090	-0.039	0.065
-173.954	20.255	-0.099	-0.079
-172.939	-200.000	-0.006	-0.127
-171.925	91.797	-0.118	0.130
-170.910	-200.000	-0.006	-0.051
-169.896	424.486	-0.120	0.253
-168.881	197.032	0.294	0.440
-167.866	218.659	-0.156	0.246
-166.852	-88.850	-0.145	-0.042
-165.837	-200.000	0.028	0.281
-164.823	-106.086	-0.088	-0.019
-163.808	-125.615	-0.085	-0.013
-162.793	-200.000	0.024	-0.242
-161.779	-92.504	-0.201	0.055
-160.764	43.100	0.352	0.316
-159.750	800.000	0.075	0.295
-158.735	500.739	-0.115	0.261
-157.720	-200.000	-0.015	0.142
-156.706	-77.345	-0.179	0.061
-155.691	120.374	0.082	0.100
-154.677	-76.188	0.115	0.040
-153.662	800.000	0.078	0.219
-152.647	-200.000	0.053	0.278
-151.633	544.261	0.076	0.179
-150.618	362.671	0.091	0.180
-149.604	3.888	0.157	-0.112
-148.589	524.835	-0.086	0.199
-147.574	8.377	-0.159	0.118
-146.560	-105.916	0.338	0.075
-145.545	-10.871	-0.171	0.111
-144.531	-81.890	-0.527	0.169
-143.516	-200.000	0.033	-0.155
-142.502	-44.920	-0.139	0.068
-141.487	13.216	0.116	-0.088
-140.472	531.029	-0.135	0.313
-139.458	-200.000	-0.032	0.295
-138.443	209.278	0.151	0.231
-137.429	129.343	-0.141	-0.177
-136.414	348.123	0.128	0.248
-135.399	-200.000	0.019	0.238
-134.385	179.263	0.137	-0.196
-133.370	-200.000	-0.008	-0.053
-132.356	-166.389	0.034	-0.001
-131.341	220.635	0.109	-0.172
-130.326	53.800	-0.129	-0.122
-129.312	94.476	0.394	0.439
-128.297	-66.170	-0.228	0.089
-127.283	152.782	-0.058	-0.078
-126.268	-57.512	0.448	0.193
-125.253	61.566	0.121	-0.118
-124.239	-55.235	-0.243	0.107
-123.224	800.000	-0.053	0.198
-122.210	-200.000	-0.007	0.135
-121.195	800.000	0.029	-0.099
-120.180	111.082	-0.122	-0.144
-119.166	-78.937	0.312	-0.104
-118.151	89.534	-0.253	-0.276
-117.137	-200.000	0.033	0.332
-116.122	-200.000	0.044	0.196
-115.107	-30.293	0.084	0.047
-114.093	737.776	-0.055	-0.144
-113.078	-200.000	-0.037	0.205
-112.064	-200.000	0.036	0.178
-111.049	-59.315	-0.231	0.098
-110.034	-200.000	0.009	0.041
-109.020	-79.863	-0.225	0.074
-108.005	47.700	-0.098	-0.090
-106.991	800.000	0.065	0.275
-105.976	-200.000	0.039	0.273
-104.962	-200.000	-0.007	-0.105
-103.947	-155.539	-0.363	-0.023
-102.932	-59.115	-0.151	-0.064
-101.918	60.671	-0.197	-0.191
-100.903	-8.046	0.164	0.108
-99.889	309.210	-0.161	0.295
-98.874	-200.000	0.021	0.233
-97.859	-200.000	-0.002	0.009
-96.845	171.738	0.238	0.335
-95.830	131.384	-0.090	-0.113
-94.816	-86.955	-0.013	-0.004
-93.801	-98.428	0.052	0.013
-92.786	-82.850	0.079	-0.025
-91.772	627.955	-0.058	0.145
-90.757	63.487	0.125	0.123
-89.743	800.000	-0.038	0.162
-88.728	-3.886	-0.104	0.071
-87.713	-19.360	-0.066	0.040
-86.699	-174.037	-0.410	-0.012
-85.684	-23.711	-0.356	0.209
-84.670	-15.885	0.186	-0.116
-83.655	-200.000	-0.036	0.292
-82.640	-180.717	-0.366	-0.007
-81.626	-26.426	-0.223	0.128
-80.611	800.000	-0.173	0.611
-79.597	-23.508	-0.319	0.187
-78.582	211.712	-0.087	0.134
-77.567	265.238	0.229	-0.392
-76.553	9.358	-0.276	0.204
-75.538	-78.484	0.370	-0.124
-74.524	-200.000	0.002	0.261
-73.509	-62.974	-0.248	0.100
-72.494	-32.819	0.310	0.169
-71.480	216.672	0.156	0.243
-70.465	-28.858	0.138	0.078
-69.451	8.031	0.200	-0.147
-68.436	-109.455	-0.232	-0.048
-67.422	800.000	0.116	0.381
-66.407	-200.000	0.025	-0.214
-65.392	218.515	0.061	0.095
-64.378	396.362	0.206	-0.422
-63.363	-187.424	0.129	-0.002
-62.349	7.996	0.147	0.108
-61.334	73.965	-1.039	-1.067
-60.319	127.459	0.596	0.741
-59.305	180.537	-0.631	-0.907
-58.290	211.551	0.798	1.229
-57.276	394.964	0.614	1.251
-56.261	-200.000	113.866	665.260
-55.246	558.966	1513.898	3573.954
-54.232	178.738	2688.551	3842.713
-53.217	105.504	2284.299	2640.094
-52.203	37.404	1892.325	1640.751
-51.188	31.216	1682.479	1412.120
-50.173	28.541	1640.494	1357.062
-49.159	50.707	1696.046	1570.138
-48.144	49.817	1710.168	1576.476
-47.130	30.902	1667.295	1396.795
-46.115	27.969	1653.345	1363.213
-45.100	27.783	1648.504	1357.783
-44.086	27.782	1645.703	1355.418
-43.071	27.806	1642.736	1353.095
-42.057	27.790	1640.952	1351.457
-41.042	27.783	1638.780	1349.558
-40.027	27.830	1637.100	1348.470
-39.013	27.758	1635.129	1346.264
-37.998	27.758	1633.116	1344.553
-36.984	27.844	1631.991	1344.208
-35.969	27.911	1630.492	1343.413
-34.954	28.004	1628.590	1342.473
-33.940	27.995	1626.910	1340.970
-32.925	27.989	1625.105	1339.382
-31.911	27.889	1623.739	1337.471
-30.896	27.939	1621.486	1335.925
-29.881	27.989	1620.117	1335.114
-28.867	27.942	1618.442	1333.340
-27.852	27.858	1617.347	1331.771
-26.838	27.930	1615.964	1331.106
-25.823	27.954	1614.422	1329.957
-24.809	28.003	1612.755	1328.888
-23.794	27.994	1611.838	1328.008
-22.779	27.923	1610.520	1326.359
-21.765	27.881	1609.000	1324.750
-20.750	27.899	1607.332	1323.451
-19.736	27.923	1606.397	1322.806
-18.721	28.016	1604.648	1321.985
-17.706	27.961	1603.228	1320.360
-16.692	27.904	1601.751	1318.686
-15.677	27.971	1600.553	1318.127
-14.663	28.054	1598.987	1317.381
-13.648	27.993	1597.777	1315.894
-12.633	27.984	1596.254	1314.523
-11.619	27.927	1594.601	1312.702
-10.604	27.855	1593.693	1311.383
-9.590	28.028	1592.065	1311.237
-8.575	27.986	1590.485	1309.580
-7.560	28.099	1589.365	1309.413
-6.546	27.998	1588.927	1308.276
-5.531	27.944	1587.475	1306.647
-4.517	28.015	1586.035	1305.917
-3.502	27.933	1585.263	1304.641
-2.487	28.113	1583.453	1304.383
-1.473	27.670	1571.828	1291.622
-0.458	24.813	1551.817	1255.119
0.556	22.130	1553.019	1222.571
1.571	19.773	1576.937	1224.612
2.586	19.298	1589.744	1231.061
3.600	17.029	1534.878	1172.801
4.615	10.026	1428.028	1045.884
5.629	4.160	1368.333	965.608
6.644	3.369	1361.100	955.517
7.659	3.190	1360.111	953.629
8.673	3.258	1358.929	953.137
9.688	3.233	1356.927	951.496
10.702	3.302	1353.900	949.711
11.717	5.993	1358.985	969.830
12.731	13.452	1372.869	1026.043
13.746	19.468	1382.905	1070.901
14.761	20.652	1383.478	1078.596
15.775	19.950	1381.592	1072.685
16.790	19.032	1379.130	1064.996
17.804	18.159	1376.823	1057.724
18.819	17.793	1375.711	1054.515
19.834	17.739	1374.454	1053.124
20.848	17.553	1373.732	1051.329
21.863	17.405	1371.697	1048.769
22.877	17.251	1370.815	1047.052
23.892	17.204	1369.908	1045.972
24.907	17.113	1369.563	1045.056
25.921	17.241	1367.925	1044.503
26.936	17.333	1367.025	1044.286
27.950	17.307	1366.356	1043.527
28.965	17.354	1365.350	1042.951
29.980	17.469	1364.605	1042.997
30.994	17.529	1363.136	1042.149
32.009	17.629	1361.729	1041.595
33.023	17.570	1360.773	1040.409
34.038	17.603	1359.012	1039.168
35.053	17.386	1358.555	1037.407
36.067	17.416	1357.089	1036.378
37.082	17.440	1356.018	1035.615
38.096	17.449	1354.450	1034.381
39.111	17.429	1354.724	1034.374
40.126	17.346	1353.706	1033.002
41.140	17.147	1352.202	1030.558
42.155	17.102	1351.518	1029.668
43.169	17.036	1351.314	1029.027
44.184	17.014	1351.461	1028.910
45.199	17.076	1350.898	1028.772
46.213	17.146	1350.532	1028.823
47.228	17.212	1350.025	1028.744
48.242	17.349	1348.294	1028.163
49.257	17.354	1346.785	1026.951
50.271	17.364	1345.192	1025.708
51.286	17.258	1344.530	1024.473
52.301	17.292	1342.981	1023.407
53.315	17.249	1342.012	1022.321
54.330	17.142	1340.656	1020.555
55.344	17.078	1339.557	1019.243
56.359	17.163	1338.246	1018.664
57.374	17.075	1337.723	1017.647
58.388	16.881	1337.152	1015.959
59.403	16.923	1336.469	1015.603
60.417	16.992	1335.668	1015.315
61.432	16.915	1334.705	1014.033
62.447	16.757	1333.957	1012.431
63.461	16.865	1332.239	1011.682
64.476	16.791	1331.361	1010.487
65.490	16.801	1329.958	1009.391
66.505	16.738	1328.555	1007.861
67.520	16.921	1327.255	1007.873
68.534	16.966	1325.982	1007.084
69.549	16.937	1325.146	1006.188
70.563	16.804	1324.712	1004.984
71.578	16.613	1323.047	1002.501
72.593	16.738	1321.830	1002.228
73.607	16.677	1321.463	1001.500
74.622	16.740	1320.850	1001.322
75.636	16.766	1319.987	1000.730
76.651	16.792	1319.051	1000.083
77.666	16.759	1319.135	999.866
78.680	16.878	1318.529	1000.021
79.695	16.884	1317.923	999.506
80.709	16.981	1317.528	999.690
81.724	16.932	1317.019	998.927
82.739	17.050	1315.871	998.662
83.753	17.288	1314.592	999.002
84.768	17.347	1314.043	998.842
85.782	17.367	1313.477	998.441
86.797	17.461	1311.531	997.428
87.812	17.288	1310.260	995.360
88.826	17.302	1309.325	994.643
89.841	17.396	1308.167	994.223
90.855	17.403	1307.506	993.676
91.870	17.378	1306.850	992.943
92.884	17.454	1305.654	992.390
93.899	17.465	1304.981	991.853
94.914	17.584	1304.323	991.959
95.928	17.582	1303.740	991.414
96.943	17.469	1302.426	989.672
97.957	17.386	1301.457	988.364
98.972	17.382	1300.603	987.609
99.987	17.395	1299.340	986.638
101.001	17.416	1298.296	985.880
102.016	17.350	1297.729	984.979
103.030	17.458	1296.814	984.820
104.045	17.384	1295.929	983.633
105.060	17.352	1294.473	982.254
106.074	17.210	1292.548	979.892
107.089	16.858	1291.610	977.066
108.103	16.931	1290.035	976.205
109.118	16.883	1288.927	975.005
110.133	16.920	1287.323	973.920
111.147	16.881	1286.061	972.654
112.162	17.006	1284.938	972.432
113.176	16.957	1283.988	971.348
114.191	16.930	1283.245	970.546
115.206	17.008	1281.759	969.783
116.220	16.970	1280.685	968.665
117.235	17.012	1279.708	968.079
118.249	17.062	1278.457	967.335
119.264	16.915	1277.141	965.414
120.279	16.765	1276.619	964.084
121.293	16.811	1275.465	963.386
122.308	16.783	1274.267	962.238
123.322	16.722	1273.223	961.020
124.337	16.717	1272.013	959.991
125.352	16.716	1270.858	959.032
126.366	16.731	1269.839	958.259
127.381	16.830	1268.696	957.871
128.395	16.845	1267.380	956.880
129.410	16.847	1266.725	956.309
130.424	16.902	1265.825	955.860
131.439	16.969	1264.741	955.330
132.454	17.058	1263.772	955.019
133.468	17.017	1263.072	954.170
134.483	16.943	1262.849	953.501
135.497	16.964	1262.053	952.933
136.512	17.012	1260.495	951.945
137.527	17.115	1258.956	951.273
138.541	17.108	1257.737	950.233
139.556	17.171	1256.382	949.476
140.570	17.151	1256.066	949.039
141.585	17.269	1254.745	948.615
142.600	17.413	1253.581	948.456
143.614	17.408	1252.935	947.853
144.629	17.444	1251.908	947.197
145.643	17.358	1250.925	945.890
146.658	17.274	1249.489	944.255
147.673	17.161	1247.958	942.386
148.687	17.156	1246.407	941.104
149.702	17.157	1244.984	939.949
150.716	16.966	1243.903	937.995
151.731	17.129	1242.753	937.947
152.746	17.046	1241.802	936.690
153.760	17.166	1240.401	936.209
154.775	17.247	1239.644	936.004
155.789	17.240	1238.763	935.213
156.804	17.327	1237.789	934.872
157.819	17.336	1236.325	933.734
158.833	17.473	1235.459	933.751
159.848	17.531	1235.157	933.755
160.862	17.493	1234.091	932.662
161.877	17.325	1232.449	930.416
162.892	17.080	1231.315	928.140
163.906	17.109	1230.350	927.488
164.921	17.229	1229.541	927.454
165.935	17.293	1228.699	927.085
166.950	17.237	1228.414	926.484
167.964	17.318	1227.009	925.782
168.979	17.161	1226.647	924.573
169.994	17.194	1225.897	924.107
171.008	17.275	1225.060	923.832
172.023	17.424	1224.234	923.938
173.037	17.462	1223.533	923.530
174.052	17.427	1222.844	922.742
175.067	17.352	1221.258	921.058
176.081	17.155	1220.454	919.300
177.096	17.304	1219.289	919.146
178.110	17.168	1218.336	917.617
179.125	17.343	1217.150	917.586
180.140	17.371	1215.832	916.662
181.154	17.374	1214.850	915.854
182.169	17.528	1213.605	915.664
183.183	17.625	1212.644	915.377
184.198	17.701	1211.507	914.849
185.213	17.551	1210.589	913.268
186.227	17.587	1209.409	912.490
187.242	17.756	1208.461	912.598
188.256	17.684	1207.304	911.259
189.271	17.663	1206.643	910.570
190.286	17.568	1205.506	909.120
191.300	17.297	1204.517	906.851
192.315	17.220	1203.567	905.643
193.329	17.094	1203.447	904.802
194.344	17.218	1202.680	904.803
195.359	17.452	1202.114	905.544
196.373	17.449	1201.510	904.993
197.388	17.522	1201.302	905.144
198.402	17.726	1200.996	905.917
199.417	17.866	1200.441	906.165
200.432	17.950	1199.657	905.940
201.446	18.029	1198.810	905.634
202.461	18.065	1198.015	905.144
203.475	18.084	1196.953	904.366
204.490	17.860	1195.336	901.878
205.504	17.738	1194.058	900.194
206.519	17.705	1193.257	899.334
207.534	17.651	1192.074	898.078
208.548	17.672	1191.154	897.415
209.563	17.680	1190.569	896.935
210.577	17.746	1189.589	896.469
211.592	17.728	1188.665	895.598
212.607	17.947	1188.014	896.176
213.621	17.961	1186.998	895.405
214.636	17.850	1186.390	894.283
215.650	17.995	1184.906	893.847
216.665	17.998	1184.340	893.357
217.680	18.027	1183.613	892.879
218.694	18.322	1182.123	893.213
219.709	18.128	1181.664	891.778
220.723	18.098	1181.001	891.043
221.738	18.112	1180.153	890.395
222.753	18.122	1179.251	889.690
223.767	18.083	1178.924	889.160
224.782	18.313	1178.557	890.002
225.796	18.240	1178.301	889.349
226.811	18.267	1176.668	888.181
227.826	18.174	1175.960	887.087
228.840	18.021	1175.704	886.021
229.855	18.061	1174.567	885.290
230.869	18.060	1173.823	884.645
231.884	17.949	1173.280	883.586
232.899	17.957	1172.163	882.705
233.913	17.870	1171.513	881.688
234.928	17.844	1170.736	880.893
235.942	17.980	1169.616	880.675
236.957	17.882	1168.965	879.600
237.972	17.882	1168.657	879.291
238.986	17.887	1168.011	878.755
240.001	17.897	1167.739	878.523
241.015	17.915	1166.663	877.729
242.030	18.024	1166.136	877.815
243.045	18.175	1164.540	877.309
244.059	18.100	1164.064	876.486
245.074	18.132	1163.644	876.257
246.088	18.142	1162.620	875.461
247.103	18.311	1161.851	875.668
248.117	18.394	1161.053	875.413
249.132	18.598	1160.819	876.204
250.147	18.680	1160.148	876.038
251.161	18.795	1159.157	875.795
252.176	18.830	1158.553	875.439
253.190	18.855	1157.813	874.931
254.205	18.961	1157.050	874.820
255.220	18.988	1156.437	874.413
256.234	18.897	1156.210	873.702
257.249	18.983	1155.445	873.481
258.263	18.892	1154.730	872.402
259.278	18.923	1154.137	872.038
260.293	18.906	1153.414	871.326
261.307	18.876	1153.386	871.077
262.322	19.007	1152.612	871.076
263.336	19.028	1151.567	870.317
264.351	19.013	1150.941	869.694
265.366	19.029	1150.739	869.545
266.380	19.034	1149.970	868.908
267.395	18.985	1148.855	867.744
268.409	18.899	1148.226	866.760
269.424	18.757	1148.029	865.815
270.439	18.835	1147.151	865.471
271.453	18.829	1146.462	864.845
272.468	18.810	1144.855	863.462
273.482	18.735	1144.205	862.518
274.497	18.798	1143.662	862.348
275.512	18.754	1143.441	861.881
276.526	18.962	1142.280	861.974
277.541	18.876	1141.538	860.909
278.555	18.881	1141.084	860.515
279.570	18.998	1140.446	860.543
280.585	19.131	1139.606	860.497
281.599	19.236	1138.845	860.371
282.614	19.019	1137.656	858.312
283.628	19.028	1136.494	857.406
284.643	18.973	1135.893	856.602
285.657	18.967	1134.872	855.729
286.672	18.972	1134.022	855.038
287.687	18.972	1133.088	854.255
288.701	18.982	1132.348	853.673
289.716	19.027	1131.166	852.931
290.730	19.088	1130.698	852.801
291.745	19.111	1130.019	852.330
292.760	19.140	1129.453	851.968
293.774	19.102	1129.033	851.388
294.789	19.305	1128.502	851.920
295.803	19.251	1127.765	851.017
296.818	19.125	1127.110	849.828
297.833	19.118	1126.168	849.008
298.847	19.037	1126.038	848.436
299.862	19.146	1124.855	848.003
300.876	19.117	1124.156	847.261
301.891	19.255	1123.257	847.185
302.906	19.367	1122.755	847.281
303.920	19.481	1122.114	847.284
304.935	19.579	1121.618	847.315
305.949	19.555	1121.235	846.834
306.964	19.472	1121.069	846.224
307.979	19.448	1119.597	844.923
308.993	19.476	1118.856	844.427
310.008	19.452	1118.082	843.652
311.022	19.511	1117.273	843.250
312.037	19.539	1116.415	842.668
313.052	19.461	1115.440	841.475
314.066	19.313	1114.379	839.879
315.081	19.178	1113.520	838.502
316.095	19.153	1112.979	837.900
317.110	19.216	1111.883	837.307
318.125	19.202	1111.640	836.980
319.139	19.303	1110.422	836.477
320.154	19.310	1110.025	836.142
321.168	19.411	1109.572	836.212
322.183	19.215	1109.136	834.863
323.197	19.323	1108.401	834.756
324.212	19.376	1107.773	834.467
325.227	19.323	1107.481	833.915
326.241	19.392	1106.256	833.253
327.256	19.373	1105.859	832.792
328.270	19.302	1105.112	831.809
329.285	19.307	1103.721	830.716
330.300	19.376	1102.639	830.157
331.314	19.311	1102.106	829.374
332.329	19.370	1101.105	828.829
333.343	19.430	1100.626	828.683
334.358	19.534	1099.818	828.501
335.373	19.568	1098.867	827.874
336.387	19.591	1098.611	827.719
337.402	19.705	1097.518	827.366
338.416	19.680	1096.921	826.726
339.431	19.728	1096.526	826.580
340.446	19.836	1096.027	826.651
341.460	19.948	1095.436	826.666
342.475	19.992	1095.002	826.476
343.489	20.132	1093.174	825.690
344.504	20.040	1092.521	824.684
345.519	20.091	1091.658	824.202
346.533	20.105	1091.291	823.921
347.548	20.253	1090.365	823.850
348.562	20.128	1089.368	822.431
349.577	19.996	1088.552	821.119
350.592	19.788	1088.069	819.696
351.606	19.717	1087.161	818.601
352.621	19.709	1085.921	817.558
353.635	19.696	1085.615	817.194
354.650	19.838	1084.873	817.231
355.665	19.836	1084.137	816.596
356.679	19.813	1083.860	816.205
357.694	19.751	1083.503	815.575
358.708	19.982	1082.795	816.058
359.723	20.085	1081.739	815.676
360.738	19.985	1081.409	814.883
361.752	19.983	1080.763	814.315
362.767	20.047	1080.433	814.295
363.781	19.942	1079.891	813.318
364.796	20.183	1079.156	813.827
365.810	20.164	1078.987	813.540
366.825	20.367	1077.857	813.567
367.840	20.466	1077.716	813.850
368.854	20.489	1077.033	813.371
369.869	20.449	1076.551	812.747
370.883	20.406	1075.327	811.551
371.898	20.257	1074.472	810.138
372.913	20.201	1074.446	809.785
373.927	20.266	1073.831	809.551
374.942	20.373	1073.012	809.361
375.956	20.374	1072.915	809.224
376.971	20.413	1072.149	808.753
377.986	20.425	1071.694	808.396
379.000	20.480	1070.924	807.998
380.015	20.636	1070.631	808.431
381.029	20.572	1070.194	807.731
382.044	20.550	1069.186	806.799
383.059	20.626	1068.197	806.334
384.073	20.658	1067.370	805.787
385.088	20.661	1066.582	805.131
386.102	20.538	1065.847	803.940
387.117	20.441	1064.799	802.630
388.132	20.267	1063.835	801.026
389.146	20.455	1062.512	800.826
390.161	20.393	1062.110	800.169
391.175	20.528	1060.900	799.807
392.190	20.489	1060.944	799.589
393.205	20.694	1060.282	799.964
394.219	20.721	1059.246	799.235
395.234	20.516	1058.560	797.706
396.248	20.539	1057.274	796.769
397.263	20.507	1056.238	795.775
398.278	20.325	1055.910	794.621
399.292	20.380	1054.946	794.080
400.307	20.168	1054.230	792.499
401.321	20.198	1053.844	792.279
402.336	20.234	1053.167	791.863
403.350	20.302	1052.329	791.470
404.365	20.346	1052.033	791.381
405.380	20.517	1051.010	791.321
406.394	20.539	1050.385	790.878
407.409	20.646	1049.473	790.608
408.423	20.678	1049.023	790.344
409.438	20.881	1048.095	790.497
410.453	20.801	1047.763	789.813
411.467	20.887	1047.008	789.566
412.482	20.965	1046.363	789.361
413.496	21.037	1045.575	789.023
414.511	21.036	1045.571	788.947
415.526	21.215	1044.930	789.201
416.540	21.189	1044.654	788.805
417.555	21.051	1043.883	787.529
418.569	21.088	1043.408	787.268
419.584	20.999	1043.125	786.585
420.599	21.009	1042.530	786.113
421.613	155.429	1403.273	1795.880
422.628	142.290	1455.813	1795.968
