DTS Sentinel unit serial number:	SN413079Multiplexer serial number:	ORYXHardware model number:	OX4-SRSoftware version number:	ORYX F/W v4.00 Oryx Data Collector v3.7.2.0data status	okinstallation	princeton_trtdifferential loss correction	single-endedforward channel	channel 2reverse channel	N/Adate	2019/09/17time	03:51:34forward acquisition time	60.00reverse acquisition time	0.00gamma	496.2192k internal	0.2327k external	0.2327temperature offset calibration	0.9970default loss term (dB/km)	0.3790temperature slope calibration	1.0000multiplexer offset coefficient	1.0000multiplexer slope coefficient	1.0000fibre end	0.00T internal ref (°C)	29.94T ext. ref 1 (°C)	0.14T ext. ref 2 (°C)	24.45length (m)	temperature (°C)	Stokes	anti-Stokes-747.200	548.374	-0.121	0.293
-746.185	-200.000	0.039	0.469
-745.171	143.467	-0.333	0.447
-744.156	81.673	-0.311	0.340
-743.142	-73.258	-0.223	-0.082
-742.127	-131.319	0.150	0.020
-741.112	189.342	0.070	0.106
-740.098	-72.271	-0.152	0.057
-739.083	-145.511	-0.201	-0.018
-738.069	-200.000	0.044	0.370
-737.054	3.093	-0.144	-0.105
-736.039	-109.192	0.219	-0.047
-735.025	159.421	-0.093	0.131
-734.010	-94.880	-0.201	0.055
-732.996	69.001	-0.166	-0.172
-731.981	-200.000	-0.042	0.307
-730.966	-200.000	-0.013	0.176
-729.952	-12.696	0.258	0.169
-728.937	-63.321	-0.279	-0.116
-727.923	69.765	-0.180	-0.187
-726.908	800.000	-0.115	-0.351
-725.894	506.519	-0.080	-0.187
-724.879	118.313	0.071	-0.088
-723.864	-6.406	-0.085	-0.059
-722.850	-149.364	-0.378	0.030
-721.835	-19.564	-0.361	-0.225
-720.821	61.409	0.257	-0.258
-719.806	129.448	-0.303	-0.390
-718.791	-84.081	0.108	-0.035
-717.777	-83.519	-0.255	-0.082
-716.762	69.400	-0.118	0.122
-715.748	177.400	0.051	0.075
-714.733	800.000	0.071	0.203
-713.718	-165.729	0.427	-0.019
-712.704	-62.081	-0.252	0.106
-711.689	-200.000	0.042	0.199
-710.675	800.000	0.094	0.314
-709.660	-109.006	-0.244	0.052
-708.645	209.273	-0.207	0.327
-707.631	800.000	-0.065	-0.262
-706.616	511.111	-0.097	-0.228
-705.602	800.000	-0.097	-0.305
-704.587	132.143	0.153	-0.199
-703.572	-189.950	-0.265	-0.003
-702.558	104.874	0.250	0.297
-701.543	-10.101	0.278	0.186
-700.529	-31.947	-0.274	0.154
-699.514	182.779	0.150	0.223
-698.499	144.203	0.098	0.132
-697.485	-106.092	-0.278	-0.063
-696.470	340.518	0.151	-0.297
-695.456	800.000	-0.119	-0.333
-694.441	181.403	-0.094	-0.140
-693.426	30.170	-0.148	0.127
-692.412	368.543	0.069	0.140
-691.397	130.936	-0.154	0.199
-690.383	-200.000	-0.032	-0.349
-689.368	-78.110	-0.055	-0.019
-688.354	-65.274	-0.195	0.079
-687.339	-100.813	-0.224	-0.055
-686.324	-67.555	-0.123	-0.049
-685.310	-55.935	0.260	0.117
-684.295	-200.000	0.082	-0.367
-683.281	-10.004	-0.076	-0.051
-682.266	32.270	-0.070	0.060
-681.251	7.613	0.136	0.102
-680.237	-52.610	-0.411	0.191
-679.222	-200.000	0.035	0.339
-678.208	-102.793	0.323	0.077
-677.193	230.041	-0.051	-0.084
-676.178	-134.260	0.208	-0.026
-675.164	-95.227	0.139	-0.038
-674.149	388.532	-0.111	-0.231
-673.135	50.735	-0.142	-0.136
-672.120	-125.372	-0.212	0.033
-671.105	-90.982	-0.045	-0.013
-670.091	-91.429	-0.133	-0.038
-669.076	-42.159	0.167	-0.086
-668.062	164.164	-0.036	0.051
-667.047	211.807	-0.034	-0.053
-666.032	800.000	-0.075	0.322
-665.018	800.000	-0.038	-0.162
-664.003	88.538	-0.071	0.080
-662.989	800.000	-0.063	0.186
-661.974	126.607	0.022	-0.028
-660.959	585.635	-0.028	0.069
-659.945	151.068	-0.134	0.183
-658.930	-200.000	-0.029	-0.276
-657.916	568.660	-0.092	0.225
-656.901	124.427	-0.074	-0.093
-655.886	-24.817	-0.134	-0.080
-654.872	156.617	-0.158	-0.219
-653.857	67.645	0.079	0.081
-652.843	800.000	0.078	0.277
-651.828	-32.751	-0.198	-0.110
-650.814	-32.171	-0.427	-0.240
-649.799	-59.421	-0.194	0.084
-648.784	-33.179	-0.283	-0.158
-647.770	800.000	0.013	0.053
-646.755	-108.847	-0.191	-0.041
-645.741	-84.020	-0.118	0.038
-644.726	-200.000	-0.053	-0.234
-643.711	-178.292	-0.264	-0.006
-642.697	37.472	0.313	0.279
-641.682	-62.668	0.266	-0.111
-640.668	-49.439	-0.227	-0.109
-639.653	-167.865	-0.142	-0.006
-638.638	16.657	0.066	0.052
-637.624	-110.711	0.270	-0.056
-636.609	-127.639	-0.217	-0.031
-635.595	-51.935	0.058	0.027
-634.580	276.921	0.117	-0.208
-633.565	95.700	-0.122	-0.140
-632.551	400.079	0.030	0.063
-631.536	800.000	0.036	-0.149
-630.522	591.538	-0.077	0.190
-629.507	-70.474	0.106	-0.040
-628.492	768.703	-0.046	0.127
-627.478	33.026	-0.237	0.206
-626.463	-91.885	-0.271	0.077
-625.449	-200.000	-0.038	-0.335
-624.434	-124.565	0.163	0.025
-623.419	11.838	0.290	0.224
-622.405	800.000	0.001	0.004
-621.390	22.972	-0.146	-0.120
-620.376	-200.000	-0.076	-0.379
-619.361	-77.198	-0.091	-0.032
-618.346	-29.104	0.056	-0.032
-617.332	745.332	-0.014	0.037
-616.317	800.000	-0.112	-0.414
-615.303	161.471	0.119	-0.168
-614.288	-41.843	-0.129	0.067
-613.273	-28.120	-0.100	-0.058
-612.259	-200.000	-0.013	0.181
-611.244	199.312	0.030	0.046
-610.230	-127.685	-0.199	-0.029
-609.215	-90.608	-0.214	0.062
-608.201	-200.000	-0.021	0.229
-607.186	139.791	0.139	0.184
-606.171	60.510	-0.218	-0.216
-605.157	-24.970	-0.306	0.182
-604.142	-200.000	0.010	0.067
-603.128	3.687	-0.296	0.217
-602.113	-51.690	0.360	0.168
-601.098	165.471	0.181	-0.256
-600.084	-108.275	0.272	-0.059
-599.069	96.979	-0.139	0.160
-598.055	111.752	0.147	-0.178
-597.040	48.190	-0.146	-0.137
-596.025	-156.993	-0.342	-0.021
-595.011	125.294	0.108	0.136
-593.996	800.000	-0.160	-0.623
-592.982	-200.000	-0.009	-0.216
-591.967	100.946	-0.087	0.102
-590.952	800.000	-0.077	0.271
-589.938	228.205	0.111	0.181
-588.923	16.624	0.119	-0.095
-587.909	-200.000	-0.031	0.330
-586.894	-130.355	-0.221	-0.030
-585.879	-16.552	-0.235	0.149
-584.865	800.000	-0.065	-0.231
-583.850	150.570	-0.118	-0.161
-582.836	-74.024	-0.146	-0.053
-581.821	109.676	0.095	0.114
-580.806	-200.000	0.034	-0.292
-579.792	145.299	-0.068	-0.092
-578.777	-47.343	0.435	0.212
-577.763	91.284	-0.044	-0.049
-576.748	-43.070	0.044	-0.022
-575.733	-200.000	-0.045	-0.222
-574.719	172.760	0.084	-0.121
-573.704	-200.000	-0.005	0.244
-572.690	-4.349	-0.046	-0.032
-571.675	356.574	-0.131	0.261
-570.661	-158.757	-0.236	0.014
-569.646	255.729	-0.156	0.267
-568.631	181.032	-0.139	-0.204
-567.617	-108.691	-0.163	-0.035
-566.602	-48.245	-0.104	0.050
-565.588	-200.000	-0.005	0.114
-564.573	-200.000	0.004	-0.155
-563.558	-7.577	-0.234	0.158
-562.544	165.282	-0.244	0.345
-561.529	-43.431	-0.181	0.091
-560.515	-64.957	-0.303	0.123
-559.500	-32.806	0.283	0.158
-558.485	-104.626	0.143	-0.033
-557.471	10.253	0.116	0.088
-556.456	45.199	-0.087	-0.080
-555.442	-200.000	-0.052	-0.237
-554.427	800.000	0.044	-0.161
-553.412	-96.471	0.055	0.014
-552.398	-13.877	0.116	-0.075
-551.383	-90.503	-0.186	0.054
-550.369	800.000	0.105	-0.314
-549.354	216.250	0.165	-0.263
-548.339	94.038	-0.182	-0.207
-547.325	-200.000	-0.022	0.400
-546.310	-200.000	-0.007	0.113
-545.296	315.516	-0.140	0.265
-544.281	327.071	-0.035	-0.066
-543.266	-200.000	-0.018	-0.409
-542.252	19.284	-0.142	0.114
-541.237	-31.405	0.399	0.224
-540.223	-88.895	0.199	0.059
-539.208	409.555	-0.047	-0.100
-538.193	313.693	0.249	-0.469
-537.179	160.099	0.114	0.159
-536.164	-200.000	-0.056	-0.272
-535.150	522.895	-0.099	0.232
-534.135	345.796	0.185	0.364
-533.121	-21.667	-0.262	0.160
-532.106	-156.719	0.170	-0.011
-531.091	282.603	-0.021	-0.038
-530.077	99.878	-0.106	-0.122
-529.062	-200.000	-0.013	0.060
-528.048	74.691	-0.128	-0.134
-527.033	-97.294	-0.239	0.062
-526.018	-79.937	-0.185	0.062
-525.004	-43.529	0.235	0.119
-523.989	218.061	-0.186	-0.297
-522.975	-66.654	0.133	-0.053
-521.960	-200.000	0.001	-0.278
-520.945	-120.973	0.125	-0.021
-519.931	44.991	-0.235	0.216
-518.916	-108.793	0.274	-0.059
-517.902	-57.612	0.180	-0.079
-516.887	-72.569	-0.169	-0.062
-515.872	800.000	0.152	-0.457
-514.858	800.000	-0.080	-0.265
-513.843	-200.000	-0.010	-0.199
-512.829	-0.423	0.094	-0.067
-511.814	589.195	-0.035	0.086
-510.799	800.000	0.053	0.198
-509.785	243.273	0.082	0.137
-508.770	-200.000	-0.017	-0.213
-507.756	-27.079	-0.179	0.104
-506.741	-155.425	0.168	-0.011
-505.726	-13.790	0.275	-0.178
-504.712	800.000	0.084	0.242
-503.697	-166.686	-0.064	-0.003
-502.683	-63.912	0.233	-0.095
-501.668	-200.000	-0.001	-0.117
-500.653	-200.000	0.247	0.001
-499.639	46.551	-0.239	0.221
-498.624	800.000	0.062	-0.220
-497.610	-142.862	0.329	0.032
-496.595	111.686	0.068	-0.081
-495.581	800.000	-0.079	-0.292
-494.566	1.483	0.084	-0.061
-493.551	-81.575	0.148	0.049
-492.537	800.000	0.062	-0.235
-491.522	84.650	-0.213	-0.233
-490.508	9.798	-0.198	0.150
-489.493	247.990	-0.043	0.072
-488.478	-144.983	-0.229	0.021
-487.464	-26.406	0.297	-0.174
-486.449	-197.290	-0.288	-0.002
-485.435	-181.360	0.114	0.002
-484.420	-99.829	0.232	-0.058
-483.405	108.436	-0.258	-0.307
-482.391	-14.651	-0.071	0.045
-481.376	-125.122	-0.031	-0.005
-480.362	-88.387	-0.419	-0.125
-479.347	-118.960	-0.393	0.069
-478.332	800.000	0.017	-0.060
-477.318	11.156	0.041	0.031
-476.303	-35.523	-0.112	-0.061
-475.289	39.746	-0.235	-0.211
-474.274	-200.000	0.027	-0.263
-473.259	256.490	0.185	-0.317
-472.245	-13.274	-0.291	-0.189
-471.230	120.156	-0.286	0.354
-470.216	-5.159	0.115	-0.079
-469.201	-175.185	0.205	0.006
-468.186	67.899	-0.272	-0.277
-467.172	58.963	0.217	0.213
-466.157	-64.776	-0.266	0.107
-465.143	-92.449	0.049	-0.014
-464.128	800.000	0.072	-0.218
-463.113	-71.206	0.114	0.043
-462.099	-51.305	0.058	0.027
-461.084	97.334	0.272	-0.312
-460.070	-157.015	-0.448	-0.027
-459.055	143.145	-0.150	0.199
-458.040	47.456	0.088	0.082
-457.026	-120.956	-0.227	0.038
-456.011	47.433	0.176	0.164
-454.997	-33.392	-0.201	-0.111
-453.982	24.067	-0.269	-0.222
-452.968	-49.674	-0.180	0.085
-451.953	228.324	-0.118	0.191
-450.938	-39.336	0.121	-0.063
-449.924	709.300	-0.068	0.180
-448.909	195.139	0.213	0.322
-447.895	51.022	-0.225	0.213
-446.880	666.971	0.084	-0.217
-445.865	168.193	0.179	-0.255
-444.851	327.602	-0.027	-0.052
-443.836	-200.000	-0.014	-0.265
-442.822	-111.274	-0.157	-0.032
-441.807	733.935	-0.032	-0.085
-440.792	-115.954	0.250	0.046
-439.778	-25.867	-0.286	0.168
-438.763	37.068	0.108	-0.095
-437.749	-200.000	0.009	0.368
-436.734	166.743	-0.182	-0.257
-435.719	402.292	-0.087	0.183
-434.705	-200.000	-0.002	-0.398
-433.690	-97.705	0.209	-0.054
-432.676	-120.172	-0.299	-0.051
-431.661	-63.752	0.372	-0.152
-430.646	-200.000	-0.012	-0.187
-429.632	800.000	-0.073	-0.232
-428.617	-147.018	-0.018	0.002
-427.603	770.668	0.060	-0.162
-426.588	-200.000	-0.007	0.154
-425.573	-200.000	-0.036	-0.249
-424.559	220.312	-0.045	-0.072
-423.544	-56.166	-0.052	-0.023
-422.530	467.262	-0.026	-0.058
-421.515	-200.000	0.043	-0.206
-420.500	-200.000	-0.003	-0.083
-419.486	-130.724	0.187	0.025
-418.471	800.000	-0.124	0.382
-417.457	-66.074	0.197	0.078
-416.442	243.770	-0.062	0.104
-415.428	-39.455	0.299	0.156
-414.413	-137.692	0.074	0.008
-413.398	800.000	0.016	-0.055
-412.384	129.357	-0.223	-0.284
-411.369	800.000	-0.052	0.212
-410.355	-151.503	0.270	0.020
-409.340	34.683	-0.139	0.121
-408.325	-139.725	-0.369	0.039
-407.311	741.577	-0.062	0.167
-406.296	-69.791	0.205	0.078
-405.282	79.902	-0.080	0.086
-404.267	-88.096	-0.152	-0.046
-403.252	621.853	0.085	0.213
-402.238	800.000	-0.025	0.096
-401.223	-200.000	-0.041	-0.366
-400.209	-49.661	0.201	-0.095
-399.194	-55.777	0.181	0.080
-398.179	-158.746	-0.309	-0.018
-397.165	512.130	-0.089	0.207
-396.150	-15.073	0.159	-0.101
-395.136	-79.947	-0.222	-0.074
-394.121	-64.269	0.219	0.089
-393.106	73.154	-0.154	0.160
-392.092	-69.994	-0.258	-0.098
-391.077	800.000	0.047	0.200
-390.063	-107.523	0.525	-0.114
-389.048	-48.723	-0.246	-0.118
-388.033	-58.365	0.464	0.201
-387.019	19.971	0.133	-0.106
-386.004	51.772	-0.046	0.044
-384.990	39.301	-0.239	-0.213
-383.975	800.000	0.051	-0.150
-382.960	-200.000	0.010	-0.198
-381.946	-121.542	0.185	0.031
-380.931	-37.770	-0.238	-0.126
-379.917	800.000	0.042	0.154
-378.902	-19.962	0.373	-0.229
-377.888	-200.000	-0.005	-0.168
-376.873	-114.121	0.144	-0.028
-375.858	-97.633	-0.397	0.102
-374.844	333.456	0.231	0.444
-373.829	-12.589	-0.099	0.064
-372.815	-46.859	0.117	0.057
-371.800	-101.202	-0.415	0.101
-370.785	32.830	0.211	-0.181
-369.771	800.000	0.087	0.274
-368.756	197.126	-0.140	0.212
-367.742	800.000	0.034	0.121
-366.727	281.999	-0.040	0.071
-365.712	-200.000	-0.006	-0.108
-364.698	160.210	0.250	-0.347
-363.683	-200.000	0.022	0.237
-362.669	92.922	0.217	-0.243
-361.654	-200.000	-0.068	0.310
-360.639	-0.702	0.043	0.030
-359.625	-93.334	0.169	0.047
-358.610	-200.000	-0.023	-0.340
-357.596	-124.785	0.209	-0.032
-356.581	-16.393	-0.215	0.135
-355.566	502.870	0.123	0.283
-354.552	-99.097	-0.121	0.030
-353.537	-22.744	-0.156	0.093
-352.523	800.000	0.048	0.192
-351.508	65.223	0.146	-0.146
-350.493	-200.000	0.045	0.249
-349.479	-34.684	0.194	-0.105
-348.464	-200.000	0.010	0.086
-347.450	44.373	0.278	0.254
-346.435	-124.920	-0.220	0.034
-345.420	800.000	-0.074	0.303
-344.406	-103.931	0.350	0.081
-343.391	-200.000	-0.009	-0.065
-342.377	-30.196	-0.238	0.134
-341.362	-44.097	0.214	0.107
-340.348	-200.000	0.306	0.001
-339.333	-39.889	-0.003	-0.001
-338.318	154.463	-0.022	0.030
-337.304	-79.816	0.451	0.151
-336.289	685.888	0.110	-0.286
-335.275	-101.421	-0.182	0.044
-334.260	-125.481	0.089	-0.013
-333.245	-119.457	-0.116	0.020
-332.231	-38.381	-0.213	-0.112
-331.216	237.696	-0.124	0.205
-330.202	55.763	0.189	0.182
-329.187	91.171	0.157	0.175
-328.172	-33.860	-0.249	-0.136
-327.158	800.000	-0.025	-0.104
-326.143	-109.526	0.236	0.049
-325.129	800.000	-0.131	-0.367
-324.114	11.283	0.193	-0.147
-323.099	-82.195	-0.247	-0.080
-322.085	-34.692	0.293	0.159
-321.070	180.680	-0.198	-0.289
-320.056	-200.000	0.006	-0.029
-319.041	153.170	0.167	0.227
-318.026	800.000	0.108	-0.382
-317.012	269.296	0.109	0.189
-315.997	-63.631	0.042	-0.017
-314.983	-116.449	0.165	0.030
-313.968	-66.624	0.106	0.041
-312.953	-133.696	-0.145	0.018
-311.939	-71.010	0.356	0.133
-310.924	-200.000	-0.027	0.355
-309.910	-155.050	-0.281	-0.018
-308.895	66.556	-0.164	-0.165
-307.880	193.977	0.122	0.184
-306.866	-200.000	0.017	0.404
-305.851	-94.369	0.083	0.023
-304.837	-62.233	0.413	-0.171
-303.822	-200.000	0.040	0.254
-302.807	-4.759	-0.291	-0.199
-301.793	-125.110	0.234	0.036
-300.778	800.000	0.070	-0.195
-299.764	800.000	-0.058	-0.247
-298.749	-83.668	-0.227	-0.072
-297.735	-33.432	0.108	-0.059
-296.720	-9.661	-0.105	-0.069
-295.705	-200.000	-0.009	0.273
-294.691	222.553	-0.236	-0.377
-293.676	84.803	-0.187	0.203
-292.662	182.914	0.143	0.209
-291.647	-127.214	0.140	-0.020
-290.632	350.378	0.175	0.342
-289.618	38.321	-0.299	-0.264
-288.603	800.000	0.131	0.368
-287.589	40.948	-0.193	-0.173
-286.574	-9.422	0.203	0.135
-285.559	-142.553	-0.205	-0.020
-284.545	156.705	0.105	-0.143
-283.530	-200.000	-0.026	0.119
-282.516	-200.000	-0.002	0.401
-281.501	-50.482	0.170	0.080
-280.486	-20.091	0.249	-0.152
-279.472	-51.190	-0.378	-0.175
-278.457	-141.404	0.392	0.039
-277.443	-112.481	-0.026	-0.005
-276.428	-200.000	-0.011	0.400
-275.413	-200.000	-0.002	-0.168
-274.399	110.378	-0.272	0.323
-273.384	-200.000	0.020	0.254
-272.370	800.000	0.052	-0.152
-271.355	34.415	-0.123	-0.107
-270.340	339.046	-0.042	-0.080
-269.326	-155.748	-0.176	-0.011
-268.311	800.000	0.063	-0.182
-267.297	753.330	0.042	0.111
-266.282	-128.013	-0.374	-0.053
-265.267	532.920	0.070	-0.164
-264.253	102.788	-0.036	0.041
-263.238	-200.000	-0.038	0.247
-262.224	432.467	-0.067	0.144
-261.209	-62.335	0.292	0.120
-260.195	-36.280	0.440	0.235
-259.180	173.963	-0.285	-0.408
-258.165	-200.000	-0.018	-0.273
-257.151	-60.324	0.628	-0.264
-256.136	535.216	0.094	0.220
-255.122	-117.689	-0.203	-0.036
-254.107	-200.000	0.064	0.295
-253.092	800.000	0.049	-0.152
-252.078	-115.209	0.058	-0.011
-251.063	25.551	-0.172	-0.141
-250.049	-114.669	-0.332	0.063
-249.034	717.548	-0.127	-0.334
-248.019	186.272	0.074	-0.108
-247.005	470.949	0.139	0.309
-245.990	183.798	-0.144	-0.210
-244.976	82.150	0.254	-0.272
-243.961	-200.000	-0.021	0.229
-242.946	-58.262	0.064	-0.028
-241.932	-122.517	-0.332	0.053
-240.917	-114.283	0.103	-0.020
-239.903	800.000	0.080	0.228
-238.888	-133.693	0.229	0.028
-237.873	-28.927	0.207	0.117
-236.859	-200.000	-0.003	-0.016
-235.844	-105.498	-0.354	0.079
-234.830	-200.000	0.042	0.224
-233.815	257.384	0.128	0.217
-232.800	66.724	-0.129	-0.129
-231.786	-200.000	-0.009	-0.295
-230.771	189.313	0.069	0.102
-229.757	-200.000	0.002	0.068
-228.742	5.004	0.141	0.102
-227.727	-200.000	-0.335	0.001
-226.713	51.982	-0.116	-0.109
-225.698	-66.404	0.235	-0.092
-224.684	-23.655	0.096	0.057
-223.669	-173.913	0.443	0.013
-222.655	12.449	-0.243	-0.185
-221.640	-85.617	0.180	-0.055
-220.625	86.359	0.162	0.177
-219.611	800.000	0.063	-0.235
-218.596	304.318	0.081	0.149
-217.582	251.862	-0.144	0.241
-216.567	350.227	0.219	-0.428
-215.552	-127.693	-0.031	-0.004
-214.538	-200.000	-0.010	0.238
-213.523	129.140	0.114	-0.144
-212.509	-119.103	-0.198	0.034
-211.494	87.190	0.272	0.297
-210.479	-136.462	-0.179	-0.021
-209.465	72.445	-0.055	-0.056
-208.450	-46.147	0.393	-0.191
-207.436	800.000	0.055	-0.209
-206.421	78.211	0.168	0.177
-205.406	800.000	0.056	-0.207
-204.392	-142.805	-0.258	-0.025
-203.377	-200.000	-0.004	0.094
-202.363	410.740	-0.074	-0.155
-201.348	-37.510	0.111	-0.058
-200.333	-200.000	0.016	0.200
-199.319	-106.097	-0.175	0.039
-198.304	301.128	-0.024	0.044
-197.290	-200.000	0.002	0.191
-196.275	-47.906	0.257	-0.123
-195.260	800.000	0.117	-0.344
-194.246	333.340	-0.100	0.190
-193.231	-200.000	-0.014	0.102
-192.217	-92.790	0.404	0.112
-191.202	-41.186	0.084	0.043
-190.187	235.659	0.022	0.036
-189.173	102.834	-0.062	0.072
-188.158	800.000	0.093	0.289
-187.144	325.441	-0.105	-0.198
-186.129	800.000	0.066	-0.255
-185.114	44.192	0.320	-0.290
-184.100	-16.837	0.160	0.100
-183.085	-200.000	-0.004	0.260
-182.071	-2.596	-0.414	0.286
-181.056	-58.870	0.263	-0.112
-180.042	-200.000	0.018	-0.148
-179.027	-51.776	-0.372	0.171
-178.012	281.128	0.123	0.217
-176.998	-10.115	0.348	-0.228
-175.983	800.000	-0.096	0.354
-174.969	-42.612	-0.118	0.059
-173.954	-3.947	-0.282	0.193
-172.939	502.461	0.016	-0.036
-171.925	-129.305	-0.217	0.030
-170.910	66.005	-0.119	0.119
-169.896	192.988	0.027	0.041
-168.881	231.221	0.123	0.199
-167.866	372.226	-0.142	0.285
-166.852	-103.458	-0.254	0.059
-165.837	-75.912	0.081	0.028
-164.823	-200.000	0.029	0.133
-163.808	5.832	0.174	0.127
-162.793	337.279	-0.101	-0.193
-161.779	489.041	0.090	-0.202
-160.764	579.779	-0.096	-0.233
-159.750	27.970	-0.074	0.062
-158.735	-200.000	0.011	0.329
-157.720	-174.919	0.339	-0.009
-156.706	115.780	0.209	0.252
-155.691	-200.000	-0.008	-0.099
-154.677	535.352	0.097	-0.227
-153.662	-100.770	0.176	-0.043
-152.647	800.000	-0.089	0.257
-151.633	-132.188	-0.133	-0.017
-150.618	-200.000	0.025	-0.194
-149.604	-200.000	-0.026	0.122
-148.589	181.518	-0.026	0.037
-147.574	-200.000	-0.016	-0.148
-146.560	800.000	-0.053	0.160
-145.545	336.608	-0.175	-0.336
-144.531	-200.000	0.032	0.221
-143.516	-93.364	-0.030	-0.008
-142.502	-200.000	-0.035	0.156
-141.487	68.997	-0.106	0.107
-140.472	-134.139	-0.135	-0.016
-139.458	-74.053	-0.087	-0.031
-138.443	199.081	0.057	-0.086
-137.429	-122.410	0.112	-0.018
-136.414	31.505	0.051	-0.043
-135.399	-65.935	0.201	-0.079
-134.385	-41.532	-0.156	0.079
-133.370	-153.147	0.036	0.002
-132.356	-133.196	-0.196	0.024
-131.341	-200.000	-0.006	0.233
-130.326	-40.046	0.248	0.127
-129.312	800.000	0.073	-0.229
-128.297	209.896	-0.052	-0.080
-127.283	-106.106	0.246	-0.054
-126.268	359.899	0.164	0.323
-125.253	-86.568	0.209	0.063
-124.239	344.727	-0.072	-0.139
-123.224	-39.315	0.183	-0.095
-122.210	-200.000	0.007	0.304
-121.195	11.225	-0.111	-0.083
-120.180	137.960	0.028	0.036
-119.166	-0.068	-0.089	-0.062
-118.151	-146.218	-0.225	0.019
-117.137	-63.241	0.287	-0.116
-116.122	218.793	-0.115	0.181
-115.107	800.000	-0.016	-0.062
-114.093	-42.860	0.092	-0.046
-113.078	-63.405	-0.264	0.107
-112.064	2.293	0.249	0.177
-111.049	-82.312	0.115	-0.037
-110.034	21.695	0.128	0.102
-109.020	-200.000	0.021	0.196
-108.005	-200.000	-0.007	0.104
-106.991	5.946	-0.064	-0.047
-105.976	322.211	0.044	0.082
-104.962	795.430	0.095	-0.256
-103.947	87.608	-0.179	0.195
-102.932	-75.076	-0.322	-0.113
-101.918	613.441	0.099	0.243
-100.903	800.000	-0.101	-0.303
-99.889	549.152	0.098	0.231
-98.874	18.339	0.162	0.127
-97.859	800.000	0.076	-0.217
-96.845	800.000	0.096	0.283
-95.830	-124.484	-0.329	0.050
-94.816	-17.387	-0.062	-0.038
-93.801	-11.152	-0.279	0.181
-92.786	368.438	0.109	-0.216
-91.772	-125.020	0.230	-0.035
-90.757	99.060	0.127	0.144
-89.743	280.757	-0.153	0.268
-88.728	800.000	0.055	-0.169
-87.713	133.629	0.058	0.074
-86.699	592.897	0.095	-0.230
-85.684	-123.286	-0.242	0.038
-84.670	-164.918	-0.116	-0.005
-83.655	14.054	-0.194	0.149
-82.640	-172.593	0.238	0.007
-81.626	28.819	-0.258	-0.215
-80.611	-62.015	0.013	-0.006
-79.597	-200.000	-0.005	0.100
-78.582	-200.000	-0.006	0.232
-77.567	-37.542	-0.035	0.018
-76.553	-57.177	-0.126	-0.055
-75.538	-122.101	-0.143	-0.023
-74.524	-141.724	-0.142	-0.014
-73.509	-49.189	-0.400	0.188
-72.494	800.000	-0.052	0.212
-71.480	-200.000	0.045	0.403
-70.465	-157.132	0.039	0.002
-69.451	-38.787	-0.082	-0.042
-68.436	800.000	0.072	-0.205
-67.422	68.051	0.145	-0.146
-66.407	-78.291	0.255	0.086
-65.392	42.741	-0.114	-0.102
-64.378	169.016	-0.197	0.276
-63.363	95.329	-0.158	-0.177
-62.349	-119.637	0.254	-0.043
-61.334	34.603	-1.200	-1.029
-60.319	270.975	0.346	0.597
-59.305	800.000	-0.269	-0.970
-58.290	254.020	0.629	1.056
-57.276	800.000	0.511	1.404
-56.261	-200.000	106.227	580.076
-55.246	457.168	1462.276	3187.773
-54.232	148.231	2655.218	3517.216
-53.217	100.796	2292.088	2614.799
-52.203	38.999	1905.105	1671.153
-51.188	33.233	1693.423	1441.629
-50.173	30.550	1650.090	1384.726
-49.159	48.617	1701.577	1565.071
-48.144	49.306	1717.672	1585.032
-47.130	32.727	1676.061	1422.805
-46.115	30.022	1661.500	1390.119
-45.100	29.879	1657.410	1385.574
-44.086	29.865	1654.153	1382.690
-43.071	29.855	1651.478	1380.328
-42.057	29.748	1649.344	1377.689
-41.042	29.813	1646.697	1375.908
-40.027	29.793	1645.747	1374.906
-39.013	29.790	1643.153	1372.668
-37.998	29.816	1641.386	1371.330
-36.984	29.805	1640.636	1370.564
-35.969	29.946	1638.700	1369.935
-34.954	29.968	1637.668	1369.182
-33.940	29.988	1635.527	1367.485
-32.925	29.964	1633.804	1365.813
-31.911	29.972	1632.147	1364.432
-30.896	29.873	1630.598	1362.359
-29.881	29.940	1628.715	1361.218
-28.867	29.935	1627.258	1359.913
-27.852	29.856	1625.767	1358.037
-26.838	29.920	1624.034	1356.999
-25.823	29.976	1622.724	1356.262
-24.809	29.941	1621.509	1354.937
-23.794	29.976	1619.914	1353.807
-22.779	29.981	1618.590	1352.682
-21.765	29.871	1617.262	1350.713
-20.750	29.881	1615.352	1349.140
-19.736	29.951	1614.129	1348.572
-18.721	29.936	1612.751	1347.257
-17.706	29.955	1611.238	1346.080
-16.692	30.015	1609.804	1345.266
-15.677	29.934	1608.218	1343.302
-14.663	29.953	1606.755	1342.161
-13.648	30.020	1605.009	1341.136
-12.633	29.926	1604.046	1339.597
-11.619	29.907	1602.559	1338.167
-10.604	30.007	1600.472	1337.095
-9.590	30.017	1599.623	1336.404
-8.575	29.997	1598.545	1335.303
-7.560	30.054	1596.726	1334.142
-6.546	30.095	1596.039	1333.806
-5.531	29.944	1595.059	1331.854
-4.517	29.949	1594.159	1331.080
-3.502	29.963	1592.645	1329.867
-2.487	30.051	1590.672	1328.795
-1.473	29.728	1579.340	1316.975
-0.458	26.892	1559.876	1280.713
0.556	21.476	1560.743	1248.605
1.571	19.141	1584.929	1250.894
2.586	18.797	1598.125	1258.681
3.600	17.228	1546.247	1206.584
4.615	9.603	1435.837	1069.873
5.629	1.838	1370.573	971.777
6.644	0.270	1362.343	955.916
7.659	0.174	1361.000	954.277
8.673	0.114	1360.119	953.198
9.688	0.002	1358.479	951.258
10.702	-0.154	1355.037	947.780
11.717	3.568	1360.947	975.384
12.731	12.114	1374.983	1039.741
13.746	17.345	1381.317	1077.670
14.761	17.215	1380.059	1075.771
15.775	16.246	1377.024	1067.187
16.790	15.189	1374.924	1058.790
17.804	14.406	1372.487	1051.873
18.819	14.049	1371.227	1048.567
19.834	13.750	1369.942	1045.609
20.848	13.578	1368.371	1043.232
21.863	13.279	1367.155	1040.328
22.877	13.119	1366.451	1038.694
23.892	13.000	1365.433	1037.083
24.907	13.048	1364.602	1036.665
25.921	13.078	1363.282	1035.758
26.936	13.144	1362.371	1035.385
27.950	13.135	1362.016	1034.964
28.965	13.107	1361.139	1034.034
29.980	13.236	1359.809	1033.737
30.994	13.299	1359.150	1033.538
32.009	13.404	1357.986	1033.217
33.023	13.355	1356.847	1031.955
34.038	13.257	1355.564	1030.281
35.053	13.333	1354.569	1029.903
36.067	13.317	1353.535	1028.927
37.082	13.373	1352.044	1028.053
38.096	13.358	1351.458	1027.420
39.111	13.304	1350.895	1026.565
40.126	13.327	1350.043	1025.968
41.140	13.197	1349.213	1024.447
42.155	13.115	1348.827	1023.551
43.169	13.102	1348.936	1023.461
44.184	13.062	1348.565	1022.847
45.199	13.073	1348.324	1022.639
46.213	13.174	1347.325	1022.414
47.228	13.195	1346.178	1021.585
48.242	13.127	1345.868	1020.838
49.257	13.183	1343.958	1019.646
50.271	13.198	1342.388	1018.459
51.286	13.190	1341.232	1017.440
52.301	13.234	1339.893	1016.602
53.315	13.161	1338.944	1015.346
54.330	13.204	1337.912	1014.736
55.344	13.162	1336.965	1013.675
56.359	13.186	1335.685	1012.758
57.374	13.099	1335.153	1011.733
58.388	13.050	1334.009	1010.479
59.403	13.059	1333.822	1010.299
60.417	13.080	1333.173	1009.848
61.432	12.978	1331.963	1008.222
62.447	13.064	1330.508	1007.554
63.461	13.027	1329.453	1006.438
64.476	12.939	1328.724	1005.261
65.490	12.977	1327.236	1004.281
66.505	13.069	1325.898	1003.737
67.520	13.119	1324.540	1002.922
68.534	13.039	1323.590	1001.631
69.549	13.017	1322.734	1000.761
70.563	13.030	1321.454	999.780
71.578	12.993	1320.120	998.463
72.593	13.055	1319.000	997.903
73.607	13.010	1318.593	997.229
74.622	12.981	1317.753	996.333
75.636	12.890	1317.407	995.435
76.651	12.944	1316.090	994.678
77.666	12.986	1315.803	994.626
78.680	13.011	1315.314	994.316
79.695	12.959	1314.662	993.426
80.709	13.042	1313.234	992.757
81.724	13.005	1312.829	992.142
82.739	13.052	1311.507	991.337
83.753	13.116	1310.890	991.165
84.768	13.201	1309.896	990.833
85.782	13.325	1308.691	990.581
86.797	13.178	1307.376	988.616
87.812	13.048	1306.738	987.267
88.826	13.214	1305.117	986.950
89.841	13.215	1303.833	985.896
90.855	13.303	1302.874	985.608
91.870	13.258	1301.855	984.485
92.884	13.279	1301.216	984.034
93.899	13.360	1300.612	983.973
94.914	13.372	1299.777	983.329
95.928	13.352	1298.766	982.357
96.943	13.380	1297.945	981.812
97.957	13.136	1297.540	979.975
98.972	13.281	1296.093	979.654
99.987	13.352	1294.772	978.986
101.001	13.244	1293.964	977.650
102.016	13.179	1293.425	976.772
103.030	13.291	1291.967	976.250
104.045	13.306	1291.371	975.798
105.060	13.196	1290.318	974.271
106.074	13.082	1289.429	972.841
107.089	13.063	1287.598	971.262
108.103	13.058	1286.439	970.270
109.118	13.196	1284.733	969.711
110.133	13.141	1283.884	968.658
111.147	13.176	1282.145	967.466
112.162	13.150	1281.607	966.823
113.176	13.208	1280.246	966.050
114.191	13.218	1279.390	965.380
115.206	13.224	1278.061	964.327
116.220	13.152	1277.214	963.181
117.235	13.185	1276.052	962.408
118.249	13.143	1274.934	961.238
119.264	13.116	1274.378	960.578
120.279	13.125	1273.312	959.741
121.293	13.090	1272.360	958.737
122.308	13.167	1270.826	957.942
123.322	13.095	1269.790	956.659
124.337	13.042	1269.213	955.832
125.352	13.160	1267.943	955.470
126.366	13.000	1266.848	953.639
127.381	13.119	1265.911	953.536
128.395	13.083	1264.769	952.385
129.410	13.219	1263.495	952.125
130.424	13.204	1262.936	951.532
131.439	13.179	1261.986	950.586
132.454	13.336	1260.985	950.650
133.468	13.205	1260.070	949.126
134.483	13.194	1259.477	948.534
135.497	13.222	1258.618	947.961
136.512	13.193	1257.099	946.566
137.527	13.287	1255.573	945.876
138.541	13.165	1254.164	944.031
139.556	13.201	1253.110	943.357
140.570	13.277	1251.976	942.855
141.585	13.360	1250.702	942.285
142.600	13.342	1249.755	941.384
143.614	13.452	1248.459	940.955
144.629	13.333	1247.826	939.717
145.643	13.403	1246.600	939.106
146.658	13.344	1245.137	937.587
147.673	13.238	1244.252	936.239
148.687	13.249	1242.932	935.225
149.702	13.313	1241.326	934.293
150.716	13.231	1240.674	933.256
151.731	13.306	1239.196	932.484
152.746	13.268	1237.880	931.203
153.760	13.288	1237.070	930.623
154.775	13.358	1235.558	929.792
155.789	13.415	1234.276	929.070
156.804	13.456	1233.473	928.610
157.819	13.382	1232.387	927.295
158.833	13.487	1231.736	927.311
159.848	13.481	1230.249	926.078
160.862	13.557	1229.296	925.702
161.877	13.394	1228.737	924.289
162.892	13.328	1227.543	922.944
163.906	13.402	1226.588	922.553
164.921	13.368	1225.894	921.760
165.935	13.463	1224.559	921.204
166.950	13.470	1224.123	920.835
167.964	13.398	1223.997	920.260
168.979	13.363	1223.083	919.295
169.994	13.460	1221.542	918.590
171.008	13.499	1221.101	918.397
172.023	13.516	1220.004	917.583
173.037	13.553	1219.468	917.307
174.052	13.501	1218.602	916.284
175.067	13.588	1217.496	915.852
176.081	13.482	1216.747	914.625
177.096	13.598	1215.749	914.433
178.110	13.564	1214.466	913.199
179.125	13.585	1213.740	912.685
180.140	13.646	1212.201	911.784
181.154	13.634	1211.158	910.855
182.169	13.646	1209.945	909.926
183.183	13.729	1208.958	909.559
184.198	13.724	1207.548	908.393
185.213	13.723	1206.703	907.670
186.227	13.659	1205.724	906.505
187.242	13.772	1204.616	906.205
188.256	13.736	1203.591	905.160
189.271	13.714	1203.139	904.618
190.286	13.761	1201.476	903.547
191.300	13.599	1200.806	902.077
192.315	13.556	1200.392	901.454
193.329	13.564	1199.499	900.748
194.344	13.706	1198.902	900.992
195.359	13.789	1198.079	900.744
196.373	13.777	1197.662	900.286
197.388	13.799	1197.346	900.089
198.402	13.898	1196.861	900.179
199.417	13.928	1195.898	899.541
200.432	13.945	1195.424	899.197
201.446	13.922	1194.778	898.502
202.461	14.001	1193.516	897.904
203.475	14.119	1192.262	897.515
204.490	13.978	1191.133	895.829
205.504	13.996	1190.023	895.008
206.519	14.008	1188.716	894.015
207.534	13.982	1187.854	893.145
208.548	13.986	1186.842	892.328
209.563	13.984	1186.198	891.750
210.577	13.971	1185.258	890.900
211.592	14.037	1184.813	890.839
212.607	14.132	1183.676	890.413
213.621	14.094	1182.855	889.512
214.636	14.141	1181.809	888.901
215.650	14.119	1181.134	888.194
216.665	14.221	1180.116	887.896
217.680	14.177	1179.159	886.863
218.694	14.263	1178.137	886.472
219.709	14.295	1177.374	885.991
220.723	14.261	1176.643	885.181
221.738	14.231	1176.427	884.781
222.753	14.150	1175.350	883.465
223.767	14.203	1175.001	883.401
224.782	14.373	1174.069	883.526
225.796	14.315	1173.302	882.563
226.811	14.409	1172.700	882.528
227.826	14.291	1172.251	881.491
228.840	14.238	1171.859	880.839
229.855	14.376	1170.605	880.546
230.869	14.298	1169.618	879.311
231.884	14.396	1168.858	879.181
232.899	14.286	1168.039	877.906
233.913	14.294	1167.287	877.308
234.928	14.242	1166.811	876.599
235.942	14.253	1166.047	876.003
236.957	14.386	1164.981	875.823
237.972	14.223	1164.656	874.643
238.986	14.311	1163.995	874.536
240.001	14.310	1163.311	873.941
241.015	14.423	1162.309	873.701
242.030	14.407	1161.494	872.928
243.045	14.385	1160.789	872.204
244.059	14.484	1159.779	871.884
245.074	14.519	1159.050	871.442
246.088	14.571	1158.116	870.937
247.103	14.507	1157.429	870.010
248.117	14.568	1156.705	869.706
249.132	14.671	1156.260	869.831
250.147	14.676	1155.425	869.151
251.161	14.754	1154.554	868.823
252.176	14.666	1154.015	867.883
253.190	14.771	1153.219	867.753
254.205	14.849	1152.896	867.840
255.220	14.892	1151.933	867.260
256.234	14.848	1151.255	866.444
257.249	14.858	1151.189	866.370
258.263	14.896	1150.355	865.862
259.278	14.904	1149.569	865.237
260.293	14.905	1148.941	864.692
261.307	14.928	1148.468	864.378
262.322	14.952	1147.773	863.906
263.336	15.013	1147.175	863.693
264.351	14.916	1146.789	862.827
265.366	15.075	1145.794	862.819
266.380	14.931	1145.239	861.583
267.395	15.032	1144.430	861.416
268.409	14.923	1143.897	860.381
269.424	15.046	1143.042	860.291
270.439	14.976	1142.292	859.295
271.453	14.975	1141.515	858.627
272.468	15.015	1140.525	858.011
273.482	14.976	1139.880	857.252
274.497	15.082	1139.412	857.366
275.512	15.023	1138.955	856.642
276.526	15.089	1137.778	856.021
277.541	15.059	1137.123	855.296
278.555	15.167	1136.359	855.198
279.570	15.089	1136.009	854.462
280.585	15.200	1135.089	854.258
281.599	15.194	1134.267	853.538
282.614	15.177	1133.222	852.588
283.628	15.110	1132.204	851.404
284.643	15.106	1131.576	850.838
285.657	15.236	1130.463	850.586
286.672	15.169	1129.680	849.580
287.687	15.251	1128.461	849.006
288.701	15.241	1127.928	848.480
289.716	15.293	1126.732	847.768
290.730	15.296	1126.575	847.587
291.745	15.407	1125.085	846.952
292.760	15.333	1125.008	846.448
293.774	15.377	1124.645	846.320
294.789	15.421	1123.900	845.905
295.803	15.489	1123.457	845.840
296.818	15.290	1122.697	844.193
297.833	15.418	1121.425	843.805
298.847	15.471	1120.845	843.557
299.862	15.459	1120.074	842.846
300.876	15.438	1119.300	842.082
301.891	15.551	1118.953	842.314
302.906	15.580	1117.848	841.551
303.920	15.628	1117.534	841.484
304.935	15.525	1117.346	840.751
305.949	15.642	1116.292	840.470
306.964	15.694	1115.437	840.008
307.979	15.541	1114.923	838.784
308.993	15.508	1114.285	838.063
310.008	15.649	1113.361	837.997
311.022	15.797	1112.423	837.953
312.037	15.695	1111.511	836.687
313.052	15.655	1110.741	835.832
314.066	15.577	1109.821	834.681
315.081	15.542	1109.103	833.892
316.095	15.562	1108.738	833.643
317.110	15.563	1107.891	832.937
318.125	15.592	1107.283	832.552
319.139	15.644	1106.292	831.991
320.154	15.626	1105.773	831.438
321.168	15.597	1105.134	830.738
322.183	15.583	1104.609	830.201
323.197	15.712	1103.754	830.122
324.212	15.593	1103.344	829.152
325.227	15.727	1102.400	829.033
326.241	15.721	1101.991	828.624
327.256	15.738	1101.164	828.012
328.270	15.721	1100.248	827.167
329.285	15.706	1099.513	826.463
330.300	15.747	1098.608	825.914
331.314	15.657	1097.546	824.599
332.329	15.693	1096.657	824.034
333.343	15.810	1096.099	824.116
334.358	15.854	1095.052	823.471
335.373	15.936	1094.536	823.410
336.387	15.929	1093.676	822.658
337.402	15.982	1092.881	822.245
338.416	15.974	1092.100	821.546
339.431	15.861	1091.805	820.701
340.446	16.038	1091.173	821.014
341.460	16.101	1090.369	820.644
342.475	16.122	1089.351	819.906
343.489	16.104	1088.956	819.451
344.504	16.074	1087.660	818.257
345.519	16.118	1086.791	817.743
346.533	16.194	1086.120	817.537
347.548	16.279	1085.392	817.326
348.562	16.181	1084.570	816.162
349.577	16.185	1083.699	815.450
350.592	16.083	1083.360	814.634
351.606	16.179	1082.165	814.124
352.621	16.171	1081.172	813.268
353.635	16.043	1080.983	812.438
354.650	16.155	1080.415	812.477
355.665	16.350	1079.474	812.634
356.679	16.203	1078.627	811.222
357.694	16.365	1078.021	811.470
358.708	16.300	1077.698	810.843
359.723	16.220	1077.264	810.059
360.738	16.263	1077.046	810.030
361.752	16.202	1075.882	808.793
362.767	16.312	1075.172	808.715
363.781	16.336	1074.524	808.270
364.796	16.364	1074.349	808.199
365.810	16.410	1073.602	807.789
366.825	16.431	1073.190	807.506
367.840	16.513	1072.398	807.231
368.854	16.631	1071.804	807.274
369.869	16.642	1070.707	806.429
370.883	16.587	1070.005	805.569
371.898	16.506	1069.411	804.664
372.913	16.500	1069.011	804.264
373.927	16.498	1068.244	803.603
374.942	16.583	1068.074	803.811
375.956	16.658	1067.247	803.471
376.971	16.481	1066.992	802.368
377.986	16.633	1066.241	802.453
379.000	16.641	1065.830	802.110
380.015	16.674	1065.314	801.807
381.029	16.712	1064.570	801.359
382.044	16.799	1063.636	800.995
383.059	16.837	1062.791	800.465
384.073	16.733	1062.327	799.556
385.088	16.774	1061.627	799.153
386.102	16.802	1060.475	798.345
387.117	16.690	1059.865	797.288
388.132	16.695	1058.617	796.303
389.146	16.702	1057.739	795.605
390.161	16.739	1057.273	795.360
391.175	16.757	1056.391	794.710
392.190	16.827	1055.523	794.314
393.205	16.759	1055.297	793.754
394.219	16.846	1054.473	793.471
395.234	16.940	1053.181	792.869
396.248	16.983	1052.153	792.223
397.263	16.840	1051.453	790.960
398.278	16.880	1050.997	790.734
399.292	16.832	1049.698	789.464
400.307	16.832	1049.313	789.106
401.321	16.857	1048.986	788.906
402.336	16.830	1048.439	788.298
403.350	16.715	1047.737	787.165
404.365	16.904	1046.500	787.045
405.380	16.971	1045.864	786.809
406.394	16.952	1045.398	786.300
407.409	16.950	1044.786	785.759
408.423	17.073	1043.687	785.435
409.438	17.179	1042.818	785.200
410.453	17.181	1042.517	784.914
411.467	17.087	1041.913	783.954
412.482	17.151	1041.244	783.678
413.496	17.321	1040.454	783.798
414.511	17.208	1040.099	782.941
415.526	17.269	1039.502	782.699
416.540	17.305	1039.359	782.691
417.555	17.304	1038.382	781.881
418.569	17.153	1038.174	780.962
419.584	17.287	1037.678	781.134
420.599	17.341	1037.035	780.827
421.613	103.137	1321.997	1469.281
422.628	94.564	1363.489	1469.385
