DTS Sentinel unit serial number:	SN413079Multiplexer serial number:	ORYXHardware model number:	OX4-SRSoftware version number:	ORYX F/W v4.00 Oryx Data Collector v3.7.2.0data status	okinstallation	princeton_trtdifferential loss correction	single-endedforward channel	channel 2reverse channel	N/Adate	2019/09/19time	00:15:35forward acquisition time	60.00reverse acquisition time	0.00gamma	496.2192k internal	0.2352k external	0.2352temperature offset calibration	1.0017default loss term (dB/km)	0.3790temperature slope calibration	1.0000multiplexer offset coefficient	1.0000multiplexer slope coefficient	1.0000fibre end	0.00T internal ref (°C)	22.78T ext. ref 1 (°C)	0.74T ext. ref 2 (°C)	15.83length (m)	temperature (°C)	Stokes	anti-Stokes-747.200	104.049	0.214	-0.251
-746.185	-84.566	-0.267	-0.084
-745.171	-0.491	-0.171	-0.121
-744.156	96.412	-0.230	0.263
-743.142	800.000	0.046	0.137
-742.127	-200.000	0.021	0.447
-741.112	-200.000	-0.053	0.413
-740.098	-62.154	-0.296	-0.123
-739.083	-137.992	0.023	0.003
-738.069	-200.000	0.047	0.342
-737.054	800.000	0.122	0.344
-736.039	-105.905	-0.103	0.023
-735.025	-132.371	0.126	-0.016
-734.010	8.990	0.191	0.144
-732.996	201.924	0.080	-0.124
-731.981	-200.000	0.061	-0.348
-730.966	-30.403	0.139	-0.078
-729.952	569.052	-0.203	-0.492
-728.937	103.587	-0.121	-0.141
-727.923	-127.797	-0.143	0.021
-726.908	-142.138	0.236	-0.023
-725.894	117.994	-0.312	-0.383
-724.879	-75.490	-0.199	-0.071
-723.864	-12.481	-0.303	-0.197
-722.850	-22.651	0.119	-0.071
-721.835	68.997	-0.207	0.212
-720.821	766.278	0.036	0.097
-719.806	800.000	-0.089	-0.294
-718.791	-169.478	0.202	0.007
-717.777	16.233	-0.237	0.187
-716.762	800.000	-0.104	0.343
-715.748	81.069	-0.089	0.096
-714.733	-116.475	0.301	-0.055
-713.718	40.413	-0.103	-0.093
-712.704	-193.365	-0.386	0.003
-711.689	-200.000	0.034	0.235
-710.675	800.000	0.064	-0.277
-709.660	-85.318	-0.156	-0.049
-708.645	800.000	0.088	0.251
-707.631	73.946	-0.160	-0.167
-706.616	126.158	-0.282	0.356
-705.602	-81.146	0.323	-0.106
-704.587	-46.486	-0.236	0.116
-703.572	-26.260	-0.127	0.074
-702.558	259.734	-0.176	0.302
-701.543	8.158	-0.392	0.293
-700.529	102.644	0.180	0.210
-699.514	201.425	-0.101	-0.155
-698.499	-2.088	0.127	-0.089
-697.485	198.737	0.068	0.103
-696.470	-104.684	0.235	0.054
-695.456	156.062	-0.138	0.190
-694.441	-129.026	-0.237	-0.033
-693.426	464.827	-0.061	0.135
-692.412	549.133	0.057	-0.136
-691.397	-65.794	-0.134	-0.053
-690.383	-8.549	-0.213	-0.142
-689.368	212.220	-0.181	-0.285
-688.354	-16.636	0.347	-0.219
-687.339	176.802	-0.101	-0.146
-686.324	36.543	-0.055	-0.049
-685.310	150.243	0.136	0.184
-684.295	-10.633	-0.138	-0.091
-683.281	800.000	-0.025	0.093
-682.266	-36.595	-0.165	0.088
-681.251	3.524	-0.433	0.314
-680.237	-191.531	-0.363	-0.004
-679.222	270.671	-0.155	-0.272
-678.208	-23.592	-0.196	-0.117
-677.193	251.848	-0.014	0.023
-676.178	76.168	-0.091	0.096
-675.164	7.290	-0.112	-0.083
-674.149	-200.000	0.030	-0.194
-673.135	-200.000	0.070	0.421
-672.120	-85.851	-0.229	-0.071
-671.105	-137.500	-0.179	-0.020
-670.091	344.143	0.072	-0.140
-669.076	-200.000	0.046	-0.301
-668.062	36.501	-0.355	-0.311
-667.047	286.883	-0.071	-0.128
-666.032	-51.212	-0.262	0.122
-665.018	-123.354	0.091	0.014
-664.003	-200.000	-0.011	-0.239
-662.989	157.480	0.199	0.273
-661.974	-140.997	-0.151	0.015
-660.959	-118.656	0.133	-0.023
-659.945	288.938	0.150	0.270
-658.930	52.793	-0.253	0.241
-657.916	-12.190	-0.086	0.056
-656.901	131.334	0.118	0.150
-655.886	166.394	0.278	-0.392
-654.872	229.477	-0.058	0.094
-653.857	19.107	-0.082	-0.066
-652.843	55.512	0.218	0.210
-651.828	59.251	-0.157	-0.153
-650.814	-200.000	0.033	-0.241
-649.799	-162.950	-0.073	0.003
-648.784	40.510	-0.089	-0.079
-647.770	800.000	0.031	-0.114
-646.755	461.563	-0.081	-0.179
-645.741	59.793	-0.112	-0.110
-644.726	82.577	-0.141	-0.153
-643.711	-130.723	-0.116	0.016
-642.697	800.000	-0.029	0.091
-641.682	-123.663	0.373	0.059
-640.668	-200.000	0.027	0.177
-639.653	322.143	-0.067	-0.127
-638.638	5.119	-0.236	0.173
-637.624	105.297	-0.087	0.102
-636.609	292.958	-0.125	-0.226
-635.595	563.660	0.084	0.201
-634.580	52.632	0.213	0.202
-633.565	-132.741	-0.136	0.017
-632.551	109.493	0.101	0.121
-631.536	-200.000	-0.010	0.059
-630.522	-167.922	-0.165	-0.006
-629.507	188.965	0.145	-0.215
-628.492	-91.190	-0.228	0.065
-627.478	-17.944	-0.080	0.050
-626.463	-200.000	0.039	0.186
-625.449	-200.000	0.034	-0.195
-624.434	800.000	0.120	0.412
-623.419	47.856	-0.308	0.286
-622.405	800.000	-0.070	-0.288
-621.390	-63.044	-0.134	0.055
-620.376	-200.000	-0.013	-0.129
-619.361	-95.891	0.211	0.056
-618.346	45.778	0.178	-0.163
-617.332	-82.596	-0.196	0.063
-616.317	83.386	-0.070	-0.076
-615.303	-200.000	-0.153	-0.669
-614.288	328.147	-0.103	-0.196
-613.273	-116.553	-0.100	-0.018
-612.259	800.000	-0.050	-0.163
-611.244	64.636	-0.114	-0.114
-610.230	-141.641	0.295	-0.029
-609.215	-131.437	0.308	-0.040
-608.201	-94.747	-0.423	-0.114
-607.186	-48.279	0.418	0.200
-606.171	800.000	-0.066	0.283
-605.157	82.740	-0.072	0.077
-604.142	-200.000	-0.048	-0.212
-603.128	-161.456	-0.187	0.010
-602.113	-16.459	-0.168	0.106
-601.098	33.647	0.158	-0.136
-600.084	-200.000	-0.020	-0.171
-599.069	-77.652	0.072	0.025
-598.055	-79.925	-0.150	0.050
-597.040	-71.112	0.338	-0.126
-596.025	-128.179	-0.099	-0.014
-595.011	-124.382	0.579	0.090
-593.996	4.928	-0.104	-0.076
-592.982	-13.737	-0.197	0.127
-591.967	-197.482	-0.251	-0.002
-590.952	-135.466	0.339	-0.040
-589.938	-78.169	-0.174	0.059
-588.923	451.591	0.193	0.422
-587.909	-122.611	0.201	0.032
-586.894	82.344	-0.160	0.172
-585.879	-200.000	0.011	-0.111
-584.865	2.506	-0.133	0.096
-583.850	-104.111	0.118	0.027
-582.836	-200.000	0.006	0.103
-581.821	-41.503	-0.283	-0.144
-580.806	-86.836	-0.285	0.086
-579.792	-44.970	-0.278	-0.137
-578.777	-33.783	-0.066	0.036
-577.763	-4.162	-0.348	0.239
-576.748	-96.588	0.375	0.098
-575.733	791.641	0.148	0.404
-574.719	156.957	-0.158	0.216
-573.704	46.180	-0.147	0.135
-572.690	385.624	0.236	-0.482
-571.675	119.874	-0.152	0.186
-570.661	9.450	0.080	0.060
-569.646	302.874	-0.079	-0.146
-568.631	-83.828	0.349	0.110
-567.617	-200.000	0.018	0.099
-566.602	-120.018	-0.462	0.078
-565.588	82.450	-0.168	-0.181
-564.573	245.710	-0.078	-0.130
-563.558	-14.177	-0.305	-0.195
-562.544	-120.351	-0.118	0.020
-561.529	34.023	0.111	0.096
-560.515	89.764	-0.112	-0.124
-559.500	120.011	0.038	-0.047
-558.485	80.639	-0.089	-0.095
-557.471	455.835	-0.047	-0.103
-556.456	800.000	-0.099	0.373
-555.442	-200.000	0.032	-0.148
-554.427	800.000	0.094	0.353
-553.412	-200.000	-0.045	0.377
-552.398	281.526	-0.201	0.357
-551.383	152.380	0.081	0.109
-550.369	-15.356	0.087	0.055
-549.354	500.237	-0.070	0.160
-548.339	231.088	-0.078	-0.127
-547.325	-62.061	0.245	-0.101
-546.310	-157.631	-0.129	-0.008
-545.296	-58.341	-0.232	-0.100
-544.281	245.257	-0.153	0.254
-543.266	-200.000	0.020	-0.277
-542.252	8.818	-0.203	-0.152
-541.237	-96.000	0.314	0.083
-540.223	-87.267	-0.159	-0.048
-539.208	396.344	0.108	-0.224
-538.193	-200.000	0.047	-0.308
-537.179	251.970	0.166	-0.280
-536.164	220.331	0.096	-0.152
-535.150	-98.553	0.237	-0.060
-534.135	-18.534	-0.246	-0.152
-533.121	-41.349	0.214	-0.109
-532.106	-186.612	-0.112	0.002
-531.091	-167.652	0.233	0.009
-530.077	90.545	-0.110	0.122
-529.062	-200.000	0.028	-0.167
-528.048	-167.014	0.329	0.013
-527.033	234.979	-0.102	0.167
-526.018	-200.000	-0.048	-0.261
-525.004	800.000	0.073	-0.215
-523.989	-135.806	0.163	0.019
-522.975	-3.674	-0.088	0.061
-521.960	30.821	-0.174	0.147
-520.945	-5.067	-0.299	-0.203
-519.931	513.815	-0.059	0.136
-518.916	-4.639	-0.050	-0.034
-517.902	-200.000	0.005	0.210
-516.887	-182.821	-0.312	-0.006
-515.872	-134.176	0.106	-0.013
-514.858	484.249	-0.092	-0.206
-513.843	800.000	-0.140	-0.399
-512.829	-58.030	-0.099	0.043
-511.814	-200.000	-0.003	-0.488
-510.799	-200.000	-0.008	-0.335
-509.785	800.000	-0.040	-0.130
-508.770	427.875	-0.089	0.191
-507.756	-117.289	0.253	0.045
-506.741	-32.158	0.125	0.069
-505.726	16.773	0.203	-0.159
-504.712	411.966	-0.040	0.084
-503.697	-35.458	-0.288	-0.155
-502.683	91.494	-0.122	-0.135
-501.668	-200.000	0.005	0.106
-500.653	-200.000	-0.030	-0.170
-499.639	-177.534	-0.028	0.001
-498.624	77.552	0.228	-0.240
-497.610	653.484	-0.189	0.480
-496.595	316.090	-0.030	0.056
-495.581	651.495	0.036	-0.092
-494.566	49.496	0.223	-0.208
-493.551	800.000	-0.062	-0.218
-492.537	165.749	-0.100	0.139
-491.522	-200.000	-0.115	-0.000
-490.508	-152.217	-0.298	-0.021
-489.493	41.606	0.040	-0.036
-488.478	176.427	0.144	-0.207
-487.464	-59.050	0.148	0.063
-486.449	-12.109	-0.040	0.026
-485.435	-155.683	-0.212	-0.013
-484.420	-4.032	0.195	-0.133
-483.405	102.634	-0.141	0.163
-482.391	-86.114	-0.072	-0.022
-481.376	207.337	0.031	0.048
-480.362	363.248	-0.076	0.152
-479.347	-109.760	-0.462	-0.096
-478.332	254.135	-0.167	0.282
-477.318	384.874	0.133	-0.270
-476.303	-200.000	0.051	-0.293
-475.289	179.797	0.194	-0.280
-474.274	81.010	0.344	0.367
-473.259	-89.076	0.459	-0.134
-472.245	-51.759	-0.048	0.022
-471.230	135.822	-0.210	0.269
-470.216	-105.962	-0.075	0.017
-469.201	-101.193	-0.028	0.007
-468.186	-13.832	-0.199	0.127
-467.172	55.282	0.184	0.175
-466.157	-115.466	0.226	-0.042
-465.143	454.875	-0.140	-0.307
-464.128	-200.000	0.014	-0.132
-463.113	45.801	0.192	-0.175
-462.099	-61.770	0.127	0.053
-461.084	287.615	-0.124	0.221
-460.070	595.961	0.173	-0.423
-459.055	-134.987	-0.067	0.008
-458.040	-92.090	0.152	0.042
-457.026	192.353	0.312	-0.465
-456.011	-96.814	-0.485	-0.126
-454.997	116.791	-0.213	0.257
-453.982	6.264	-0.206	-0.151
-452.968	-0.398	-0.335	0.235
-451.953	486.592	-0.048	-0.108
-450.938	466.145	0.114	0.252
-449.924	-61.983	0.081	0.033
-448.909	-200.000	-0.023	0.146
-447.895	-7.007	0.192	-0.129
-446.880	-118.186	-0.368	-0.065
-445.865	-95.825	0.227	0.060
-444.851	-123.036	0.209	0.033
-443.836	55.026	0.141	0.135
-442.822	216.522	0.052	0.082
-441.807	-200.000	0.007	0.273
-440.792	99.411	0.040	0.045
-439.778	800.000	0.079	-0.227
-438.763	800.000	-0.104	0.357
-437.749	800.000	-0.086	0.358
-436.734	-51.027	-0.212	-0.098
-435.719	624.755	-0.021	-0.053
-434.705	-200.000	-0.022	0.111
-433.690	-54.760	-0.368	-0.164
-432.676	-68.892	0.291	0.111
-431.661	127.872	-0.071	0.089
-430.646	485.123	0.060	-0.134
-429.632	284.478	-0.165	0.293
-428.617	-176.110	-0.266	0.007
-427.603	128.274	0.194	0.244
-426.588	165.708	-0.155	-0.216
-425.573	-158.258	0.193	0.011
-424.559	45.476	0.076	0.069
-423.544	14.192	-0.069	-0.053
-422.530	66.370	-0.127	0.127
-421.515	25.202	0.195	-0.159
-420.500	-94.540	-0.336	-0.090
-419.486	-75.508	-0.384	-0.135
-418.471	-200.000	0.080	-0.406
-417.457	-30.518	-0.108	-0.060
-416.442	-84.076	0.059	0.018
-415.428	224.663	-0.052	0.083
-414.413	-139.946	0.139	0.014
-413.398	800.000	-0.038	0.117
-412.384	-117.485	0.238	-0.042
-411.369	-200.000	-0.006	0.195
-410.355	118.757	-0.068	-0.082
-409.340	800.000	-0.049	-0.164
-408.325	306.214	-0.100	0.183
-407.311	332.854	0.061	-0.117
-406.296	-200.000	-0.063	-0.353
-405.282	37.323	0.102	-0.089
-404.267	800.000	0.122	-0.356
-403.252	-200.000	0.017	-0.192
-402.238	395.385	-0.100	0.206
-401.223	-106.137	-0.117	0.026
-400.209	177.655	-0.103	-0.147
-399.194	92.037	-0.043	0.048
-398.179	545.134	0.058	-0.137
-397.165	-200.000	-0.044	0.219
-396.150	288.521	0.035	-0.063
-395.136	695.189	0.072	-0.185
-394.121	800.000	0.082	-0.258
-393.106	-64.468	0.406	0.162
-392.092	-74.908	-0.110	-0.039
-391.077	800.000	0.110	0.413
-390.063	-200.000	0.056	0.250
-389.048	249.246	-0.094	-0.157
-388.033	800.000	0.004	-0.014
-387.019	-135.091	-0.183	-0.022
-386.004	-138.495	0.251	0.027
-384.990	16.813	-0.200	-0.156
-383.975	9.315	0.247	-0.183
-382.960	358.426	0.202	-0.396
-381.946	-128.258	0.217	-0.030
-380.931	-7.621	0.091	0.060
-379.917	-155.076	0.160	-0.010
-378.902	-159.927	-0.247	-0.013
-377.888	-23.727	0.062	0.037
-376.873	-13.167	0.253	0.162
-375.858	162.041	0.115	-0.158
-374.844	-155.052	0.278	0.018
-373.829	149.251	-0.145	0.193
-372.815	-94.986	0.223	0.059
-371.800	800.000	0.054	0.154
-370.785	-41.822	0.120	-0.061
-369.771	800.000	0.080	0.222
-368.756	-59.347	-0.648	0.274
-367.742	-200.000	-0.011	0.218
-366.727	-93.539	0.218	0.059
-365.712	-200.000	-0.018	-0.078
-364.698	800.000	0.032	0.090
-363.683	-171.151	0.190	0.006
-362.669	-109.812	-0.228	-0.047
-361.654	6.423	-0.193	-0.141
-360.639	70.356	-0.283	0.288
-359.625	800.000	0.071	-0.225
-358.610	315.404	0.184	-0.341
-357.596	-136.742	0.412	0.047
-356.581	283.330	-0.123	0.217
-355.566	-32.572	0.315	-0.173
-354.552	226.783	-0.046	-0.074
-353.537	-8.534	0.122	0.081
-352.523	-200.000	-0.045	0.289
-351.508	-22.127	0.267	-0.159
-350.493	-110.905	0.183	-0.037
-349.479	470.885	0.151	0.334
-348.464	325.468	0.073	0.136
-347.450	800.000	-0.072	-0.306
-346.435	1.959	-0.107	-0.076
-345.420	-15.010	0.159	0.100
-344.406	380.507	-0.067	-0.135
-343.391	-200.000	0.053	-0.252
-342.377	530.619	-0.023	-0.054
-341.362	69.537	0.083	-0.084
-340.348	800.000	0.128	-0.501
-339.333	534.703	0.102	-0.238
-338.318	102.306	0.234	0.269
-337.304	-55.607	-0.309	-0.136
-336.289	17.800	-0.248	0.193
-335.275	-200.000	0.006	0.028
-334.260	128.945	-0.092	0.115
-333.245	800.000	-0.126	0.357
-332.231	258.452	0.085	0.143
-331.216	800.000	-0.077	-0.279
-330.202	800.000	-0.079	0.298
-329.187	281.056	-0.123	-0.216
-328.172	-10.378	0.296	-0.193
-327.158	286.502	0.086	-0.153
-326.143	-74.316	-0.194	-0.069
-325.129	122.452	-0.221	-0.271
-324.114	169.694	0.087	-0.121
-323.099	310.844	0.035	0.065
-322.085	-101.248	-0.143	0.034
-321.070	-92.604	-0.432	-0.119
-320.056	35.892	0.116	0.100
-319.041	-200.000	-0.007	-0.264
-318.026	-87.213	0.038	0.011
-317.012	166.160	0.186	-0.258
-315.997	333.771	-0.084	-0.159
-314.983	233.718	-0.238	0.384
-313.968	422.620	-0.086	0.181
-312.953	-16.866	0.071	-0.044
-311.939	800.000	-0.100	-0.341
-310.924	-63.409	0.112	-0.045
-309.910	-146.045	-0.535	-0.046
-308.895	-200.000	0.004	0.259
-307.880	27.124	-0.231	0.190
-306.866	148.343	-0.234	0.309
-305.851	-141.121	0.082	-0.008
-304.837	394.141	-0.122	0.249
-303.822	-180.280	-0.163	0.003
-302.807	348.349	-0.092	-0.178
-301.793	-200.000	0.030	0.283
-300.778	-84.363	0.402	-0.125
-299.764	95.821	-0.099	0.111
-298.749	800.000	-0.066	-0.249
-297.735	269.709	0.035	0.060
-296.720	143.611	0.224	0.292
-295.705	195.640	-0.097	0.145
-294.691	21.730	-0.091	0.072
-293.676	-74.461	0.151	-0.053
-292.662	800.000	0.035	0.097
-291.647	-200.000	0.015	0.438
-290.632	176.926	-0.140	-0.199
-289.618	-25.173	0.173	-0.101
-288.603	130.624	0.186	0.234
-287.589	-176.163	-0.107	0.003
-286.574	318.755	0.094	0.174
-285.559	12.984	0.270	0.205
-284.545	-78.142	-0.207	-0.070
-283.530	-129.493	0.409	0.055
-282.516	268.811	-0.219	0.377
-281.501	224.867	0.011	-0.018
-280.486	24.830	0.195	-0.158
-279.472	-2.476	-0.230	-0.158
-278.457	-57.326	-0.156	-0.067
-277.443	180.505	0.161	0.231
-276.428	18.082	0.151	0.118
-275.413	-136.109	0.219	0.025
-274.399	71.630	-0.142	0.144
-273.384	-200.000	0.003	0.397
-272.370	800.000	0.042	-0.113
-271.355	1.977	0.282	0.199
-270.340	110.269	-0.132	0.155
-269.326	800.000	-0.047	0.139
-268.311	800.000	-0.079	-0.222
-267.297	-69.421	0.182	-0.068
-266.282	-165.622	0.285	0.012
-265.267	41.050	-0.237	-0.209
-264.253	-104.158	0.259	-0.059
-263.238	210.165	-0.098	0.151
-262.224	17.267	-0.280	-0.217
-261.209	216.825	-0.088	-0.137
-260.195	27.725	-0.183	0.151
-259.180	-42.691	-0.081	-0.040
-258.165	111.762	-0.297	-0.350
-257.151	246.304	0.223	0.367
-256.136	134.465	0.200	-0.253
-255.122	17.186	0.272	0.211
-254.107	-102.531	0.161	-0.038
-253.092	800.000	0.026	-0.094
-252.078	168.232	-0.174	0.243
-251.063	-46.047	0.076	-0.037
-250.049	-200.000	-0.010	-0.204
-249.034	81.035	0.065	0.069
-248.019	-118.930	-0.328	0.056
-247.005	800.000	0.085	-0.353
-245.990	-9.235	0.266	0.174
-244.976	737.934	0.092	0.243
-243.961	800.000	-0.065	0.277
-242.946	800.000	0.087	0.262
-241.932	147.958	0.246	0.324
-240.917	452.662	0.151	0.326
-239.903	-73.396	0.179	-0.064
-238.888	-200.000	-0.026	0.171
-237.873	800.000	0.088	-0.258
-236.859	44.863	0.231	-0.208
-235.844	800.000	0.079	0.268
-234.830	525.302	0.077	-0.177
-233.815	18.475	-0.233	0.182
-232.800	12.404	-0.299	-0.225
-231.786	-115.180	-0.154	0.029
-230.771	-123.867	-0.230	-0.036
-229.757	800.000	-0.006	0.024
-228.742	-104.058	0.383	-0.087
-227.727	800.000	-0.026	0.092
-226.713	442.143	0.115	0.246
-225.698	-54.700	0.171	0.075
-224.684	42.437	0.372	-0.331
-223.669	522.130	0.194	0.445
-222.655	-155.592	0.110	0.007
-221.640	-22.384	-0.312	-0.185
-220.625	38.504	-0.121	-0.105
-219.611	219.299	0.027	-0.043
-218.596	-75.048	0.443	-0.155
-217.582	-92.864	0.160	0.044
-216.567	-143.883	-0.332	-0.031
-215.552	-200.000	0.049	-0.295
-214.538	-200.000	-0.031	0.209
-213.523	-104.976	-0.150	0.034
-212.509	-4.700	0.227	-0.153
-211.494	-158.353	-0.239	-0.014
-210.479	-116.997	-0.267	0.048
-209.465	800.000	0.063	-0.211
-208.450	-21.445	0.090	0.054
-207.436	64.416	0.248	0.244
-206.421	67.278	0.295	0.294
-205.406	17.384	-0.071	-0.055
-204.392	-31.443	0.122	0.067
-203.377	233.349	0.026	0.042
-202.363	119.455	0.213	0.258
-201.348	341.942	0.152	0.291
-200.333	-200.000	0.036	-0.485
-199.319	0.391	-0.234	0.163
-198.304	-82.103	0.204	-0.065
-197.290	46.137	0.130	0.117
-196.275	150.254	-0.175	-0.232
-195.260	-114.966	-0.106	0.020
-194.246	-112.070	0.110	0.022
-193.231	-200.000	0.035	0.185
-192.217	-66.270	-0.190	-0.074
-191.202	45.404	0.252	0.227
-190.187	199.809	0.149	-0.223
-189.173	-156.442	0.277	0.017
-188.158	800.000	-0.132	0.408
-187.144	-69.280	0.360	-0.135
-186.129	-200.000	-0.012	0.253
-185.114	146.371	-0.214	0.281
-184.100	-200.000	0.002	-0.095
-183.085	-144.794	-0.191	-0.017
-182.071	41.247	-0.115	0.102
-181.056	-129.625	-0.297	0.040
-180.042	-42.348	0.180	0.090
-179.027	125.087	0.152	-0.187
-178.012	-73.622	0.089	0.032
-176.998	-77.347	-0.128	0.043
-175.983	1.029	-0.060	0.042
-174.969	530.734	0.121	-0.280
-173.954	-200.000	0.090	-0.423
-172.939	-135.793	-0.246	-0.028
-171.925	800.000	0.081	-0.311
-170.910	-93.552	-0.193	0.052
-169.896	-80.015	0.426	-0.139
-168.881	-57.826	0.140	-0.060
-167.866	421.174	0.056	0.118
-166.852	-172.980	-0.082	0.002
-165.837	33.263	-0.305	0.258
-164.823	27.603	0.121	-0.100
-163.808	-106.136	-0.199	-0.044
-162.793	-200.000	-0.021	-0.258
-161.779	-200.000	-0.017	-0.124
-160.764	800.000	-0.036	0.137
-159.750	-200.000	0.071	-0.316
-158.735	61.374	0.100	-0.097
-157.720	800.000	0.023	-0.080
-156.706	-42.511	-0.226	0.112
-155.691	-200.000	0.022	-0.108
-154.677	-59.337	0.308	0.129
-153.662	209.931	0.031	0.048
-152.647	-69.118	-0.268	0.101
-151.633	126.755	0.062	0.077
-150.618	-112.077	-0.213	-0.042
-149.604	800.000	-0.061	0.249
-148.589	248.021	0.062	-0.102
-147.574	45.153	0.106	-0.095
-146.560	368.027	0.091	-0.179
-145.545	800.000	-0.036	-0.126
-144.531	-168.383	0.129	0.005
-143.516	24.111	-0.139	0.112
-142.502	161.113	0.187	0.254
-141.487	-115.334	0.365	0.067
-140.472	-49.035	-0.138	0.064
-139.458	116.386	-0.340	0.406
-138.443	-200.000	0.033	0.383
-137.429	-161.526	-0.183	0.009
-136.414	236.318	0.110	0.178
-135.399	72.633	-0.150	-0.152
-134.385	-200.000	-0.016	0.243
-133.370	30.021	-0.287	-0.238
-132.356	130.895	-0.073	-0.091
-131.341	-12.410	-0.091	-0.058
-130.326	-120.654	0.207	-0.034
-129.312	-20.411	-0.031	-0.019
-128.297	-82.319	-0.213	0.067
-127.283	-180.165	-0.293	0.006
-126.268	51.153	0.153	-0.141
-125.253	-51.790	-0.091	-0.041
-124.239	-171.868	-0.263	-0.008
-123.224	-200.000	0.008	0.215
-122.210	-67.369	-0.305	-0.117
-121.195	-200.000	-0.028	-0.164
-120.180	738.925	0.034	-0.090
-119.166	704.177	0.111	-0.284
-118.151	1.359	-0.074	-0.052
-117.137	167.651	-0.076	0.106
-116.122	146.069	0.156	-0.204
-115.107	60.815	-0.006	0.006
-114.093	-200.000	0.038	-0.173
-113.078	206.811	0.078	0.118
-112.064	-98.009	-0.112	0.028
-111.049	800.000	-0.012	0.042
-110.034	-200.000	-0.076	0.371
-109.020	-47.043	0.232	-0.110
-108.005	800.000	0.103	-0.313
-106.991	185.564	0.042	-0.061
-105.976	-167.089	0.133	-0.005
-104.962	-124.196	-0.169	-0.026
-103.947	49.373	-0.062	0.056
-102.932	-148.056	-0.387	-0.031
-101.918	-81.376	0.261	0.084
-100.903	-25.479	-0.253	0.146
-99.889	-67.999	0.168	0.064
-98.874	-38.908	-0.487	0.249
-97.859	-21.308	0.128	-0.076
-96.845	47.858	0.240	-0.218
-95.830	643.810	-0.073	0.180
-94.816	215.593	0.074	-0.115
-93.801	-200.000	0.029	0.160
-92.786	800.000	0.137	0.407
-91.772	-52.227	0.167	0.075
-90.757	-200.000	0.166	-0.000
-89.743	-200.000	0.027	0.142
-88.728	132.834	-0.199	0.250
-87.713	114.397	-0.028	-0.033
-86.699	-51.318	-0.438	-0.199
-85.684	-21.962	-0.221	-0.130
-84.670	734.419	-0.147	-0.382
-83.655	63.964	0.090	-0.088
-82.640	643.495	-0.160	0.396
-81.626	-100.246	-0.325	0.079
-80.611	455.620	-0.074	-0.159
-79.597	-200.000	-0.007	-0.073
-78.582	-38.144	0.315	-0.162
-77.567	-200.000	0.014	0.220
-76.553	13.404	-0.149	-0.112
-75.538	-49.782	0.095	0.044
-74.524	-197.139	0.276	0.002
-73.509	89.838	-0.097	-0.105
-72.494	3.671	0.228	0.161
-71.480	800.000	0.012	-0.051
-70.465	177.912	0.130	0.184
-69.451	-11.592	-0.260	0.166
-68.436	-200.000	0.034	0.452
-67.422	-125.101	0.483	0.072
-66.407	59.960	-0.237	-0.228
-65.392	161.389	-0.143	-0.194
-64.378	14.281	-0.090	-0.068
-63.363	-200.000	-0.013	-0.189
-62.349	-43.524	0.098	0.048
-61.334	93.082	-1.131	-1.242
-60.319	16.799	0.720	0.553
-59.305	-200.000	-0.078	-1.466
-58.290	323.158	0.686	1.269
-57.276	439.687	0.696	1.477
-56.261	-200.000	130.118	701.294
-55.246	396.652	1638.814	3323.845
-54.232	135.924	2798.023	3538.974
-53.217	89.991	2302.301	2497.679
-52.203	31.993	1899.553	1589.327
-51.188	25.678	1694.432	1369.758
-50.173	23.726	1656.185	1324.245
-49.159	46.115	1727.072	1552.597
-48.144	43.033	1737.165	1538.125
-47.130	25.450	1687.984	1362.594
-46.115	22.874	1672.643	1330.775
-45.100	22.735	1667.510	1325.592
-44.086	22.650	1664.868	1322.807
-43.071	22.668	1662.603	1321.089
-42.057	22.551	1660.907	1318.810
-41.042	22.637	1658.298	1317.330
-40.027	22.619	1656.309	1315.567
-39.013	22.708	1654.691	1314.890
-37.998	22.603	1653.170	1312.850
-36.984	22.571	1652.413	1311.955
-35.969	22.738	1650.549	1311.664
-34.954	22.744	1648.890	1310.340
-33.940	22.779	1646.953	1309.010
-32.925	22.787	1645.135	1307.569
-31.911	22.740	1643.460	1305.836
-30.896	22.759	1641.536	1304.401
-29.881	22.784	1640.493	1303.700
-28.867	22.746	1639.022	1302.205
-27.852	22.784	1637.932	1301.565
-26.838	22.777	1636.398	1300.245
-25.823	22.799	1634.540	1298.875
-24.809	22.832	1633.320	1298.099
-23.794	22.857	1631.867	1297.078
-22.779	22.773	1630.891	1295.632
-21.765	22.794	1629.126	1294.331
-20.750	22.747	1627.424	1292.587
-19.736	22.757	1626.294	1291.706
-18.721	22.858	1624.671	1291.106
-17.706	22.869	1623.427	1290.149
-16.692	22.839	1621.544	1288.382
-15.677	22.716	1620.917	1286.931
-14.663	22.939	1619.089	1287.054
-13.648	22.856	1618.434	1285.879
-12.633	22.832	1616.489	1284.105
-11.619	22.842	1614.807	1282.792
-10.604	22.792	1613.499	1281.344
-9.590	22.826	1611.882	1280.250
-8.575	22.815	1611.068	1279.476
-7.560	22.847	1609.638	1278.519
-6.546	22.825	1608.822	1277.664
-5.531	22.861	1607.832	1277.089
-4.517	22.754	1606.854	1275.483
-3.502	22.780	1605.300	1274.393
-2.487	22.894	1603.269	1273.549
-1.473	22.341	1591.173	1259.935
-0.458	19.132	1571.140	1221.297
0.556	14.277	1573.238	1188.076
1.571	11.914	1596.582	1188.463
2.586	11.702	1608.444	1195.640
3.600	10.855	1553.955	1149.049
4.615	6.194	1448.963	1040.539
5.629	1.552	1393.129	970.769
6.644	0.765	1385.722	960.528
7.659	0.716	1384.249	959.105
8.673	0.723	1383.744	958.715
9.688	0.756	1381.212	957.090
10.702	0.632	1377.634	953.744
11.717	2.879	1380.424	969.789
12.731	9.100	1390.294	1016.116
13.746	14.954	1399.381	1059.857
14.761	17.203	1401.743	1075.807
15.775	16.682	1400.138	1071.183
16.790	15.806	1397.032	1063.182
17.804	14.936	1394.838	1055.926
18.819	14.588	1393.662	1052.749
19.834	14.448	1392.052	1050.557
20.848	14.106	1391.067	1047.564
21.863	13.863	1389.600	1044.839
22.877	13.693	1388.487	1042.840
23.892	13.637	1387.491	1041.647
24.907	13.579	1386.797	1040.670
25.921	13.731	1385.453	1040.524
26.936	13.636	1385.163	1039.618
27.950	13.756	1383.619	1039.120
28.965	13.848	1382.805	1038.990
29.980	13.876	1382.168	1038.595
30.994	13.905	1380.704	1037.583
32.009	13.977	1379.611	1037.124
33.023	13.918	1378.680	1035.966
34.038	13.804	1377.596	1034.347
35.053	13.829	1376.582	1033.647
36.067	13.868	1375.499	1032.990
37.082	13.833	1374.517	1031.940
38.096	13.890	1373.070	1031.119
39.111	13.845	1372.767	1030.519
40.126	13.740	1371.913	1029.137
41.140	13.709	1371.217	1028.331
42.155	13.727	1370.440	1027.770
43.169	13.697	1370.277	1027.367
44.184	13.683	1369.972	1026.964
45.199	13.777	1369.174	1026.855
46.213	13.675	1369.364	1026.272
47.228	13.749	1367.862	1025.518
48.242	13.777	1366.816	1024.814
49.257	13.821	1364.775	1023.463
50.271	13.708	1363.818	1021.961
51.286	13.755	1362.413	1021.109
52.301	13.766	1361.199	1020.171
53.315	13.688	1360.148	1018.815
54.330	13.819	1359.017	1018.681
55.344	13.681	1358.232	1017.160
56.359	13.731	1356.593	1016.146
57.374	13.655	1356.279	1015.357
58.388	13.602	1355.162	1014.103
59.403	13.607	1354.922	1013.866
60.417	13.578	1353.997	1012.911
61.432	13.620	1352.746	1012.140
62.447	13.651	1351.994	1011.677
63.461	13.535	1350.992	1010.132
64.476	13.604	1349.724	1009.510
65.490	13.715	1347.770	1008.635
66.505	13.697	1347.010	1007.872
67.520	13.652	1345.507	1006.385
68.534	13.647	1345.217	1006.047
69.549	13.640	1343.774	1004.833
70.563	13.617	1342.490	1003.649
71.578	13.533	1341.938	1002.637
72.593	13.639	1340.428	1002.060
73.607	13.500	1340.250	1001.001
74.622	13.537	1338.757	1000.017
75.636	13.397	1338.551	998.935
76.651	13.486	1337.700	998.745
77.666	13.521	1337.045	998.381
78.680	13.541	1336.896	998.299
79.695	13.595	1335.287	997.334
80.709	13.511	1334.946	996.487
81.724	13.554	1334.378	996.232
82.739	13.591	1333.306	995.567
83.753	13.645	1332.204	994.978
84.768	13.715	1331.235	994.591
85.782	13.897	1329.054	993.958
86.797	13.820	1327.766	992.450
87.812	13.679	1326.922	990.890
88.826	13.732	1325.953	990.394
89.841	13.682	1324.963	989.270
90.855	13.715	1324.162	988.776
91.870	13.847	1322.568	988.288
92.884	13.813	1322.096	987.647
93.899	13.770	1320.934	986.434
94.914	13.875	1320.343	986.528
95.928	13.863	1320.029	986.135
96.943	13.863	1318.825	985.150
97.957	13.831	1317.932	984.205
98.972	13.805	1316.358	982.786
99.987	13.814	1315.573	982.170
101.001	13.838	1314.953	981.762
102.016	13.803	1314.036	980.783
103.030	13.837	1312.605	979.830
104.045	13.840	1312.135	979.409
105.060	13.849	1310.617	978.239
106.074	13.798	1309.200	976.796
107.089	13.709	1307.786	975.131
108.103	13.729	1306.221	973.999
109.118	13.607	1305.685	972.793
110.133	13.720	1304.062	972.163
111.147	13.731	1302.665	971.098
112.162	13.766	1301.361	970.248
113.176	13.729	1300.305	969.156
114.191	13.751	1299.802	968.825
115.206	13.848	1298.379	968.242
116.220	13.804	1297.194	967.016
117.235	13.777	1295.755	965.700
118.249	13.803	1294.970	965.185
119.264	13.704	1294.191	963.940
120.279	13.719	1293.128	963.152
121.293	13.678	1292.135	962.089
122.308	13.730	1290.905	961.391
123.322	13.718	1289.720	960.352
124.337	13.759	1288.490	959.588
125.352	13.711	1287.935	958.813
126.366	13.662	1286.979	957.730
127.381	13.687	1285.496	956.689
128.395	13.683	1284.430	955.791
129.410	13.667	1283.729	955.088
130.424	13.714	1282.401	954.289
131.439	13.700	1282.039	953.855
132.454	13.682	1281.081	952.952
133.468	13.646	1280.221	952.021
134.483	13.814	1278.654	951.736
135.497	13.803	1277.780	950.940
136.512	13.756	1276.571	949.687
137.527	13.837	1275.022	948.913
138.541	13.852	1273.779	947.989
139.556	13.912	1272.405	947.222
140.570	13.884	1271.788	946.519
141.585	13.977	1270.215	945.797
142.600	13.875	1269.518	944.612
143.614	13.882	1268.830	944.059
144.629	13.957	1266.976	943.021
145.643	13.903	1265.807	941.761
146.658	14.048	1264.532	941.550
147.673	13.886	1263.411	939.714
148.687	13.864	1262.062	938.505
149.702	13.768	1261.229	937.262
150.716	13.980	1259.229	936.885
151.731	13.868	1258.908	935.935
152.746	13.879	1257.042	934.528
153.760	14.041	1255.565	934.253
154.775	13.968	1255.079	933.399
155.789	13.967	1254.127	932.606
156.804	14.000	1252.783	931.708
157.819	14.143	1251.788	931.689
158.833	14.063	1250.897	930.493
159.848	14.015	1250.245	929.656
160.862	14.108	1248.699	928.946
161.877	14.046	1247.959	927.965
162.892	13.945	1246.561	926.282
163.906	13.985	1245.926	925.953
164.921	14.073	1244.814	925.529
165.935	14.032	1244.299	924.839
166.950	14.060	1243.420	924.261
167.964	14.129	1242.448	923.838
168.979	14.063	1241.468	922.662
169.994	14.153	1241.036	922.760
171.008	14.162	1239.771	921.785
172.023	14.221	1239.174	921.588
173.037	14.183	1238.792	921.013
174.052	14.192	1237.978	920.373
175.067	14.225	1236.527	919.397
176.081	14.142	1235.471	918.072
177.096	14.069	1235.130	917.338
178.110	14.095	1234.356	916.823
179.125	14.200	1232.516	915.955
180.140	14.278	1231.180	915.305
181.154	14.214	1229.919	913.939
182.169	14.218	1228.987	913.184
183.183	14.343	1227.607	912.767
184.198	14.267	1226.870	911.720
185.213	14.382	1225.605	911.326
186.227	14.404	1224.244	910.356
187.242	14.338	1223.382	909.273
188.256	14.371	1222.661	908.836
189.271	14.485	1221.228	908.315
190.286	14.380	1220.026	906.767
191.300	14.204	1219.717	905.498
192.315	14.239	1218.823	904.946
193.329	14.251	1218.103	904.397
194.344	14.357	1217.524	904.460
195.359	14.438	1217.027	904.452
196.373	14.384	1216.705	903.839
197.388	14.485	1215.617	903.498
198.402	14.553	1215.385	903.616
199.417	14.465	1215.068	902.822
200.432	14.687	1213.569	902.831
201.446	14.559	1213.374	901.913
202.461	14.661	1212.094	901.431
203.475	14.671	1210.726	900.387
204.490	14.612	1209.789	899.293
205.504	14.595	1208.424	898.109
206.519	14.610	1207.103	897.131
207.534	14.555	1205.944	895.893
208.548	14.619	1205.236	895.631
209.563	14.615	1204.287	894.827
210.577	14.628	1203.648	894.344
211.592	14.715	1202.412	893.810
212.607	14.812	1201.532	893.595
213.621	14.789	1200.715	892.786
214.636	14.719	1200.187	891.940
215.650	14.766	1199.025	891.247
216.665	14.823	1198.197	890.860
217.680	14.715	1197.467	889.660
218.694	14.835	1196.528	889.523
219.709	14.901	1195.675	889.161
220.723	14.852	1195.204	888.471
221.738	14.871	1194.124	887.693
222.753	14.855	1193.642	887.168
223.767	14.908	1192.999	886.894
224.782	14.923	1192.395	886.446
225.796	14.965	1191.546	885.961
226.811	15.097	1190.548	885.837
227.826	15.049	1189.770	884.928
228.840	14.890	1189.586	883.868
229.855	14.998	1188.585	883.620
230.869	14.975	1187.738	882.789
231.884	14.910	1187.186	881.959
232.899	15.009	1186.433	881.843
233.913	14.946	1185.465	880.712
234.928	14.890	1184.754	879.813
235.942	14.981	1183.697	879.426
236.957	14.930	1183.153	878.677
237.972	15.031	1182.234	878.449
238.986	14.935	1182.081	877.755
240.001	15.011	1181.093	877.341
241.015	14.973	1180.363	876.520
242.030	15.096	1179.033	876.101
243.045	15.022	1178.663	875.361
244.059	15.095	1177.787	875.014
245.074	15.135	1176.938	874.517
246.088	15.180	1175.822	873.840
247.103	15.210	1175.222	873.476
248.117	15.132	1174.781	872.665
249.132	15.153	1173.795	871.964
250.147	15.320	1173.133	872.264
251.161	15.216	1172.582	871.238
252.176	15.302	1172.008	871.180
253.190	15.404	1170.870	870.783
254.205	15.493	1170.425	870.839
255.220	15.446	1169.901	870.126
256.234	15.523	1169.339	870.035
257.249	15.451	1168.904	869.258
258.263	15.470	1167.750	868.424
259.278	15.463	1167.279	867.958
260.293	15.463	1166.971	867.655
261.307	15.557	1166.240	867.517
262.322	15.548	1165.290	866.686
263.336	15.536	1164.965	866.308
264.351	15.724	1163.631	866.207
265.366	15.629	1163.807	865.775
266.380	15.609	1162.818	864.860
267.395	15.640	1161.781	864.172
268.409	15.696	1160.886	863.717
269.424	15.675	1160.171	863.001
270.439	15.620	1159.800	862.362
271.453	15.697	1159.008	862.095
272.468	15.600	1158.762	861.339
273.482	15.643	1157.552	860.580
274.497	15.708	1157.192	860.569
275.512	15.691	1156.372	859.798
276.526	15.674	1155.321	858.854
277.541	15.639	1155.011	858.366
278.555	15.803	1153.579	858.063
279.570	15.840	1153.165	857.869
280.585	15.839	1152.382	857.204
281.599	15.804	1151.503	856.299
282.614	15.900	1150.071	855.644
283.628	15.772	1149.490	854.486
284.643	15.788	1148.554	853.795
285.657	15.788	1147.874	853.214
286.672	15.869	1146.915	852.839
287.687	15.805	1146.166	851.880
288.701	15.963	1145.134	851.840
289.716	15.990	1144.298	851.277
290.730	15.858	1143.550	849.980
291.745	15.939	1143.058	849.946
292.760	16.055	1141.709	849.455
293.774	15.982	1141.308	848.713
294.789	15.966	1141.132	848.423
295.803	16.001	1140.222	847.851
296.818	16.104	1139.598	847.832
297.833	16.062	1139.007	847.102
298.847	16.063	1137.956	846.251
299.862	16.073	1136.962	845.487
300.876	16.101	1136.800	845.432
301.891	16.141	1136.179	845.096
302.906	16.159	1135.310	844.464
303.920	16.148	1134.407	843.663
304.935	16.253	1133.783	843.653
305.949	16.383	1132.807	843.497
306.964	16.309	1132.642	842.932
307.979	16.240	1131.646	841.770
308.993	16.213	1130.911	841.015
310.008	16.391	1129.908	841.080
311.022	16.480	1129.027	840.794
312.037	16.278	1128.470	839.300
313.052	16.303	1127.476	838.610
314.066	16.279	1126.782	837.900
315.081	16.230	1125.861	836.901
316.095	16.279	1125.007	836.433
317.110	16.308	1124.372	836.033
318.125	16.367	1123.726	835.768
319.139	16.388	1122.579	834.944
320.154	16.375	1122.534	834.775
321.168	16.296	1121.957	833.881
322.183	16.244	1121.547	833.248
323.197	16.404	1120.543	833.213
324.212	16.390	1120.187	832.807
325.227	16.349	1119.668	832.144
326.241	16.337	1118.985	831.505
327.256	16.419	1117.614	830.816
328.270	16.489	1116.882	830.542
329.285	16.394	1115.730	829.149
330.300	16.407	1115.212	828.752
331.314	16.367	1114.356	827.848
332.329	16.467	1113.252	827.442
333.343	16.519	1112.263	826.889
334.358	16.546	1111.552	826.420
335.373	16.578	1110.750	825.903
336.387	16.544	1110.109	825.189
337.402	16.600	1109.435	824.888
338.416	16.694	1108.483	824.564
339.431	16.668	1108.391	824.300
340.446	16.733	1107.375	823.784
341.460	16.699	1106.667	823.019
342.475	16.647	1105.914	822.135
343.489	16.738	1104.922	821.766
344.504	16.784	1103.745	821.043
345.519	16.850	1102.906	820.664
346.533	16.779	1102.589	820.011
347.548	16.937	1101.298	819.745
348.562	16.953	1100.832	819.404
349.577	16.780	1100.412	818.179
350.592	16.846	1099.181	817.512
351.606	16.902	1098.306	817.059
352.621	16.819	1098.142	816.463
353.635	16.783	1097.814	815.973
354.650	16.903	1096.712	815.660
355.665	16.827	1095.841	814.574
356.679	16.876	1095.269	814.311
357.694	17.001	1094.499	814.271
358.708	16.990	1093.910	813.707
359.723	16.970	1093.374	813.141
360.738	16.990	1092.867	812.786
361.752	16.971	1091.990	811.970
362.767	16.915	1091.871	811.543
363.781	17.046	1091.120	811.537
364.796	16.997	1090.558	810.816
365.810	17.204	1089.554	810.985
366.825	17.139	1088.953	810.156
367.840	17.270	1088.057	810.042
368.854	17.170	1087.848	809.337
369.869	17.251	1087.082	809.083
370.883	17.145	1086.541	808.103
371.898	17.296	1085.442	807.935
372.913	17.171	1085.046	806.971
373.927	17.270	1084.546	806.999
374.942	17.247	1083.820	806.281
375.956	17.330	1083.104	806.069
376.971	17.354	1082.527	805.682
377.986	17.245	1082.081	804.763
379.000	17.288	1081.657	804.578
380.015	17.359	1081.071	804.407
381.029	17.464	1080.312	804.269
382.044	17.451	1079.655	803.644
383.059	17.401	1078.746	802.663
384.073	17.387	1078.236	802.148
385.088	17.492	1077.318	801.888
386.102	17.497	1076.649	801.340
387.117	17.441	1075.409	800.083
388.132	17.464	1074.726	799.615
389.146	17.564	1073.862	799.370
390.161	17.391	1073.261	798.038
391.175	17.564	1072.351	798.101
392.190	17.591	1071.746	797.708
393.205	17.618	1071.047	797.242
394.219	17.516	1070.810	796.518
395.234	17.642	1069.438	796.019
396.248	17.514	1068.394	794.571
397.263	17.516	1067.181	793.608
398.278	17.584	1066.511	793.356
399.292	17.512	1066.338	792.826
400.307	17.515	1065.303	791.998
401.321	17.492	1065.050	791.633
402.336	17.508	1064.318	791.096
403.350	17.671	1063.408	791.104
404.365	17.674	1062.891	790.662
405.380	17.678	1062.116	790.035
406.394	17.713	1061.254	789.487
407.409	17.719	1060.497	788.878
408.423	17.888	1059.705	789.002
409.438	17.870	1058.825	788.196
410.453	17.846	1058.327	787.644
411.467	17.850	1057.806	787.203
412.482	17.860	1057.145	786.689
413.496	17.887	1056.257	786.083
414.511	17.848	1055.855	785.534
415.526	17.958	1055.514	785.720
416.540	17.923	1054.919	785.046
417.555	17.933	1054.699	784.855
418.569	18.054	1053.769	784.648
419.584	18.017	1053.567	784.259
420.599	18.066	1053.049	784.033
421.613	110.115	1330.639	1491.548
422.628	101.512	1371.000	1491.641
