DTS Sentinel unit serial number:	SN413079Multiplexer serial number:	ORYXHardware model number:	OX4-SRSoftware version number:	ORYX F/W v4.00 Oryx Data Collector v3.7.2.0data status	okinstallation	princeton_trtdifferential loss correction	single-endedforward channel	channel 2reverse channel	N/Adate	2019/09/16time	21:03:34forward acquisition time	60.00reverse acquisition time	0.00gamma	496.2192k internal	0.2329k external	0.2329temperature offset calibration	0.9966default loss term (dB/km)	0.3790temperature slope calibration	1.0000multiplexer offset coefficient	1.0000multiplexer slope coefficient	1.0000fibre end	0.00T internal ref (°C)	31.95T ext. ref 1 (°C)	0.04T ext. ref 2 (°C)	25.36length (m)	temperature (°C)	Stokes	anti-Stokes-747.200	-50.544	0.106	-0.050
-746.185	619.588	-0.072	0.181
-745.171	102.482	-0.136	0.160
-744.156	536.501	0.080	-0.192
-743.142	379.616	-0.104	-0.214
-742.127	-53.897	-0.167	-0.077
-741.112	-107.640	0.142	0.031
-740.098	-200.000	-0.048	0.342
-739.083	281.502	-0.107	0.193
-738.069	144.207	-0.098	-0.132
-737.054	2.483	-0.044	-0.032
-736.039	-61.042	-0.278	-0.118
-735.025	-32.549	0.374	0.210
-734.010	-85.485	0.258	0.081
-732.996	-9.734	-0.158	-0.106
-731.981	-90.135	0.165	-0.048
-730.966	800.000	-0.015	-0.046
-729.952	-70.299	0.092	0.035
-728.937	-6.224	-0.202	-0.139
-727.923	312.234	-0.124	-0.234
-726.908	-200.000	-0.054	0.345
-725.894	620.871	0.024	0.062
-724.879	800.000	-0.090	0.330
-723.864	134.067	0.237	0.310
-722.850	-61.624	-0.121	0.051
-721.835	204.653	-0.132	0.206
-720.821	-112.137	-0.276	-0.056
-719.806	800.000	0.019	0.057
-718.791	139.930	-0.201	0.266
-717.777	337.050	-0.116	0.228
-716.762	-26.810	0.205	-0.120
-715.748	718.887	0.052	-0.139
-714.733	169.909	-0.214	-0.308
-713.718	380.387	-0.122	-0.251
-712.704	-200.000	-0.014	-0.242
-711.689	399.023	-0.007	-0.015
-710.675	4.703	-0.094	-0.070
-709.660	-174.574	-0.217	-0.006
-708.645	233.678	-0.186	-0.309
-707.631	-200.000	0.001	-0.038
-706.616	-4.076	-0.211	-0.147
-705.602	71.418	0.043	0.045
-704.587	110.582	-0.181	0.218
-703.572	-200.000	0.003	-0.084
-702.558	-200.000	-0.083	-0.373
-701.543	194.833	0.168	0.257
-700.529	-79.408	0.247	0.084
-699.514	-167.315	-0.264	-0.011
-698.499	-55.088	-0.070	0.032
-697.485	48.557	0.185	0.175
-696.470	374.631	-0.070	0.143
-695.456	68.650	0.107	0.111
-694.441	427.158	-0.104	-0.226
-693.426	-55.648	0.094	0.042
-692.412	-200.000	0.027	0.158
-691.397	-140.861	0.192	-0.020
-690.383	-200.000	-0.032	0.208
-689.368	191.767	-0.188	0.285
-688.354	290.457	0.099	-0.180
-687.339	-33.944	-0.389	-0.215
-686.324	567.345	0.133	0.324
-685.310	3.038	-0.178	0.130
-684.295	-112.974	0.388	0.077
-683.281	-82.328	-0.247	-0.081
-682.266	800.000	-0.106	0.315
-681.251	798.846	-0.105	-0.290
-680.237	-55.630	-0.153	0.069
-679.222	-189.578	-0.294	-0.003
-678.208	128.501	0.077	0.099
-677.193	21.617	-0.137	-0.112
-676.178	-31.206	-0.221	-0.125
-675.164	-173.284	-0.073	0.002
-674.149	-4.105	-0.121	-0.084
-673.135	575.922	-0.104	0.256
-672.120	105.591	0.176	-0.208
-671.105	-200.000	-0.035	0.212
-670.091	-115.304	-0.298	-0.057
-669.076	-134.308	-0.221	-0.027
-668.062	-60.036	0.184	0.079
-667.047	800.000	0.058	0.247
-666.032	-102.292	0.139	-0.033
-665.018	-5.226	0.064	0.044
-664.003	292.873	0.118	-0.215
-662.989	-25.909	-0.198	-0.117
-661.974	476.684	-0.097	-0.220
-660.959	800.000	0.061	-0.223
-659.945	5.562	0.096	-0.071
-658.930	-200.000	0.014	0.419
-657.916	-122.908	0.220	0.036
-656.901	-74.303	-0.298	-0.108
-655.886	-116.606	0.087	-0.016
-654.872	119.500	0.056	0.070
-653.857	800.000	0.029	0.099
-652.843	-200.000	-0.035	0.235
-651.828	-82.599	-0.360	0.117
-650.814	800.000	0.030	0.109
-649.799	-42.623	0.186	-0.095
-648.784	-200.000	-0.052	0.280
-647.770	139.037	-0.038	-0.050
-646.755	-15.747	0.081	0.052
-645.741	-65.374	-0.295	-0.119
-644.726	124.536	-0.071	0.089
-643.711	-59.659	-0.196	0.084
-642.697	780.061	-0.070	0.193
-641.682	-200.000	0.055	-0.328
-640.668	-113.178	-0.176	-0.035
-639.653	-96.270	-0.189	-0.050
-638.638	-200.000	0.034	0.261
-637.624	228.755	0.126	-0.207
-636.609	800.000	0.054	0.159
-635.595	-112.041	-0.068	0.014
-634.580	-52.684	-0.138	0.064
-633.565	8.251	-0.198	0.149
-632.551	-200.000	0.013	-0.263
-631.536	93.731	0.117	0.133
-630.522	705.377	-0.089	0.234
-629.507	-200.000	-0.010	0.303
-628.492	-200.000	0.028	0.302
-627.478	41.694	0.324	0.294
-626.463	173.070	0.045	0.065
-625.449	-76.734	-0.151	0.053
-624.434	-200.000	0.016	0.203
-623.419	39.871	-0.041	-0.037
-622.405	147.323	-0.054	0.073
-621.390	353.738	-0.083	-0.165
-620.376	800.000	-0.022	0.070
-619.361	127.549	-0.097	0.123
-618.346	-166.553	-0.518	0.022
-617.332	-49.439	0.326	0.156
-616.317	11.206	0.390	0.299
-615.303	13.082	0.144	0.112
-614.288	-106.715	0.048	0.011
-613.273	-200.000	-0.036	-0.236
-612.259	-200.000	0.019	0.189
-611.244	377.210	0.119	0.243
-610.230	82.648	0.256	0.278
-609.215	580.026	0.083	-0.204
-608.201	11.329	-0.056	-0.043
-607.186	29.243	0.216	-0.184
-606.171	-134.034	0.126	-0.016
-605.157	-30.653	-0.151	-0.086
-604.142	800.000	0.081	-0.258
-603.128	800.000	-0.084	-0.237
-602.113	-57.077	0.076	-0.034
-601.098	39.629	-0.102	0.092
-600.084	-123.451	-0.061	-0.010
-599.069	-200.000	0.132	0.656
-598.055	55.643	0.125	-0.122
-597.040	-22.674	0.218	0.132
-596.025	-200.000	0.016	-0.358
-595.011	-9.085	-0.139	-0.093
-593.996	-41.781	0.197	0.101
-592.982	134.783	-0.071	0.092
-591.967	95.859	-0.089	0.102
-590.952	-194.633	0.327	0.003
-589.938	-176.672	0.231	0.006
-588.923	3.424	-0.289	0.211
-587.909	488.838	-0.075	-0.172
-586.894	-191.083	-0.049	0.001
-585.879	800.000	-0.019	-0.056
-584.865	-200.000	-0.044	-0.201
-583.850	542.142	0.169	0.402
-582.836	-89.148	0.143	0.042
-581.821	-108.173	-0.091	-0.020
-580.806	548.745	-0.093	-0.223
-579.792	800.000	-0.062	-0.185
-578.777	-3.647	0.219	-0.152
-577.763	-25.314	0.172	-0.102
-576.748	-27.972	-0.046	-0.027
-575.733	-137.541	0.120	-0.014
-574.719	-35.562	0.198	0.107
-573.704	-96.357	-0.297	0.079
-572.690	373.372	0.114	0.232
-571.675	-57.950	-0.025	0.011
-570.661	800.000	0.046	-0.182
-569.646	-105.081	-0.014	0.003
-568.631	50.739	0.093	-0.088
-567.617	-46.656	-0.159	0.078
-566.602	477.023	0.142	0.322
-565.588	-151.268	-0.304	-0.023
-564.573	-162.661	0.304	-0.015
-563.558	-108.924	0.115	0.025
-562.544	4.015	-0.174	-0.128
-561.529	92.719	0.126	0.143
-560.515	-200.000	0.043	0.290
-559.500	291.189	0.078	0.142
-558.485	195.782	0.219	-0.333
-557.471	24.661	-0.242	-0.201
-556.456	349.592	-0.223	-0.440
-555.442	-179.645	0.287	-0.006
-554.427	-200.000	-0.029	0.204
-553.412	800.000	-0.059	-0.170
-552.398	-32.686	-0.142	-0.079
-551.383	800.000	0.055	0.162
-550.369	-47.204	-0.176	-0.086
-549.354	46.102	-0.228	0.211
-548.339	52.404	-0.267	-0.255
-547.325	58.953	-0.220	0.216
-546.310	-39.474	0.143	0.075
-545.296	-78.854	-0.109	-0.037
-544.281	-77.259	-0.135	-0.047
-543.266	110.555	0.076	0.091
-542.252	-106.955	-0.334	0.074
-541.237	13.868	0.126	0.098
-540.223	-166.822	-0.423	0.017
-539.208	193.389	0.164	-0.248
-538.193	-114.182	-0.190	0.037
-537.179	33.304	-0.161	-0.139
-536.164	-37.204	0.140	0.075
-535.150	-0.696	0.149	0.105
-534.135	301.630	0.107	0.198
-533.121	-200.000	-0.030	0.168
-532.106	-44.016	-0.427	-0.214
-531.091	-73.837	-0.231	-0.084
-530.077	-135.325	0.343	0.041
-529.062	800.000	0.058	0.253
-528.048	399.704	-0.120	-0.251
-527.033	-22.984	-0.343	-0.206
-526.018	-200.000	0.017	0.085
-525.004	-2.577	-0.137	-0.096
-523.989	-52.408	0.529	-0.244
-522.975	-17.728	0.085	-0.053
-521.960	327.983	-0.213	0.408
-520.945	-29.306	-0.235	0.134
-519.931	-51.800	0.087	0.040
-518.916	-166.495	0.363	-0.015
-517.902	-14.802	-0.217	0.139
-516.887	-120.439	-0.170	-0.029
-515.872	61.790	0.107	-0.107
-514.858	-130.763	-0.123	-0.016
-513.843	80.906	-0.072	-0.077
-512.829	160.719	0.352	-0.491
-511.814	217.608	0.070	0.111
-510.799	-63.298	-0.041	-0.017
-509.785	519.315	-0.128	0.300
-508.770	285.478	0.152	0.273
-507.756	211.890	0.088	0.138
-506.741	-115.112	0.261	-0.049
-505.726	-200.000	0.062	-0.434
-504.712	-200.000	0.044	0.412
-503.697	360.222	0.187	0.374
-502.683	3.997	0.297	0.217
-501.668	-56.705	0.249	0.110
-500.653	200.964	-0.048	0.074
-499.639	-200.000	0.009	-0.253
-498.624	-178.921	0.374	0.008
-497.610	277.430	0.156	0.276
-496.595	-200.000	-0.004	-0.068
-495.581	-200.000	0.060	0.387
-494.566	23.146	0.049	0.040
-493.551	-200.000	0.043	-0.297
-492.537	-72.960	-0.252	0.092
-491.522	-200.000	0.003	0.030
-490.508	-113.786	0.334	0.065
-489.493	-90.004	-0.227	-0.066
-488.478	320.158	-0.083	-0.158
-487.464	-200.000	0.042	-0.316
-486.449	-143.779	-0.332	-0.031
-485.435	-9.003	-0.272	-0.182
-484.420	-200.000	-0.005	0.148
-483.405	-200.000	0.024	0.146
-482.391	-200.000	-0.051	-0.288
-481.376	-123.781	-0.339	0.053
-480.362	398.430	-0.132	0.274
-479.347	-10.299	-0.223	0.148
-478.332	-33.423	-0.163	0.090
-477.318	37.561	0.102	0.090
-476.303	-35.382	-0.062	0.034
-475.289	-67.057	0.412	0.162
-474.274	-94.337	-0.048	-0.013
-473.259	-157.503	-0.334	-0.020
-472.245	20.573	0.142	0.114
-471.230	-130.812	0.071	-0.009
-470.216	-192.806	0.195	0.002
-469.201	800.000	0.043	0.136
-468.186	48.773	-0.066	-0.062
-467.172	-101.903	-0.283	-0.068
-466.157	-84.745	-0.288	0.090
-465.143	-135.543	0.264	0.031
-464.128	800.000	0.073	-0.246
-463.113	233.114	-0.072	-0.118
-462.099	194.870	0.096	-0.146
-461.084	-58.537	-0.237	-0.103
-460.070	-17.002	0.122	-0.077
-459.055	335.706	0.109	-0.210
-458.040	-33.670	0.156	0.086
-457.026	719.839	-0.100	-0.265
-456.011	-65.492	0.178	0.071
-454.997	298.700	0.151	0.276
-453.982	24.835	-0.174	0.144
-452.968	114.951	-0.269	-0.327
-451.953	175.442	-0.101	-0.146
-450.938	800.000	0.092	-0.371
-449.924	-27.618	-0.138	0.080
-448.909	4.984	0.194	-0.142
-447.895	-20.540	-0.060	-0.037
-446.880	-199.845	0.130	0.001
-445.865	12.886	0.253	-0.194
-444.851	408.939	-0.038	0.080
-443.836	-84.961	0.205	-0.064
-442.822	12.510	0.139	-0.107
-441.807	462.648	-0.121	-0.268
-440.792	297.636	0.079	0.144
-439.778	553.782	-0.089	0.214
-438.763	-0.678	0.247	0.174
-437.749	6.334	0.114	-0.084
-436.734	-95.273	0.191	-0.051
-435.719	192.909	0.089	0.134
-434.705	184.399	-0.119	-0.175
-433.690	-73.534	-0.342	0.124
-432.676	104.581	0.145	-0.169
-431.661	-200.000	-0.033	0.216
-430.646	-200.000	-0.024	-0.151
-429.632	-60.092	-0.402	0.171
-428.617	-101.044	0.020	-0.005
-427.603	-0.545	-0.175	-0.124
-426.588	-128.100	-0.033	0.005
-425.573	-92.606	-0.155	0.043
-424.559	-86.432	-0.274	0.084
-423.544	-98.396	0.275	0.070
-422.530	30.081	-0.341	-0.289
-421.515	-61.429	-0.221	-0.092
-420.500	99.008	0.117	0.135
-419.486	-200.000	0.006	-0.207
-418.471	-200.000	-0.063	-0.579
-417.457	374.085	0.072	-0.145
-416.442	-200.000	0.023	-0.313
-415.428	800.000	-0.084	-0.260
-414.413	118.429	-0.041	0.050
-413.398	-200.000	0.031	0.147
-412.384	78.678	0.140	-0.149
-411.369	331.525	0.054	0.104
-410.355	46.249	-0.026	-0.024
-409.340	208.475	0.221	-0.344
-408.325	-109.546	0.434	0.091
-407.311	59.107	0.214	0.209
-406.296	130.544	-0.139	0.178
-405.282	8.091	0.263	-0.196
-404.267	-34.405	-0.096	0.052
-403.252	201.284	0.162	0.248
-402.238	-200.000	-0.002	-0.087
-401.223	-136.761	-0.074	-0.008
-400.209	103.126	-0.128	-0.149
-399.194	-200.000	0.077	-0.440
-398.179	-200.000	-0.014	-0.194
-397.165	4.049	0.144	0.105
-396.150	366.060	0.047	0.094
-395.136	-7.278	0.208	-0.140
-394.121	-80.906	-0.251	0.083
-393.106	144.473	0.167	0.222
-392.092	-113.980	-0.234	0.045
-391.077	181.469	0.166	-0.243
-390.063	-200.000	0.029	0.229
-389.048	-108.224	-0.288	-0.062
-388.033	-28.476	0.049	0.028
-387.019	33.203	-0.212	-0.183
-386.004	800.000	0.025	0.081
-384.990	-47.447	0.192	-0.093
-383.975	331.989	-0.040	0.077
-382.960	197.467	-0.023	0.035
-381.946	19.142	0.170	0.135
-380.931	-102.064	0.172	0.041
-379.917	8.962	0.178	0.133
-378.902	-62.268	0.224	-0.093
-377.888	-121.524	0.130	-0.021
-376.873	132.187	-0.272	0.348
-375.858	-180.952	0.114	0.002
-374.844	-117.863	0.017	0.003
-373.829	256.165	0.146	0.249
-372.815	185.638	0.081	-0.119
-371.800	37.208	-0.077	-0.068
-370.785	-200.000	0.015	-0.208
-369.771	-200.000	-0.018	0.194
-368.756	-98.286	-0.156	0.040
-367.742	-200.000	0.003	-0.387
-366.727	-37.972	-0.192	0.101
-365.712	-14.429	0.167	-0.107
-364.698	800.000	0.039	-0.142
-363.683	-112.740	-0.324	0.064
-362.669	280.409	0.128	0.227
-361.654	124.827	-0.096	0.120
-360.639	1.378	-0.149	0.106
-359.625	-27.894	-0.070	-0.040
-358.610	-68.075	-0.083	0.032
-357.596	-28.884	0.164	-0.094
-356.581	67.078	-0.133	-0.134
-355.566	-145.495	-0.151	-0.013
-354.552	-27.911	-0.285	0.164
-353.537	12.966	0.163	0.125
-352.523	-40.783	-0.253	-0.130
-351.508	199.988	0.083	0.127
-350.493	-200.000	-0.004	-0.182
-349.479	-200.000	-0.008	0.238
-348.464	125.956	0.219	0.274
-347.450	-200.000	0.074	0.343
-346.435	-83.002	0.193	0.062
-345.420	-36.385	-0.181	-0.096
-344.406	-200.000	-0.005	0.330
-343.391	-200.000	-0.035	0.456
-342.377	-107.031	-0.041	-0.009
-341.362	426.168	-0.062	-0.134
-340.348	124.676	0.194	-0.242
-339.333	-112.976	0.273	0.054
-338.318	206.549	-0.066	-0.101
-337.304	800.000	-0.071	-0.305
-336.289	38.951	-0.183	0.163
-335.275	-58.107	-0.180	0.078
-334.260	25.283	-0.228	-0.188
-333.245	-102.663	0.078	-0.018
-332.231	42.852	0.427	0.386
-331.216	-83.061	-0.138	0.044
-330.202	-121.437	0.214	-0.035
-329.187	92.165	-0.220	-0.246
-328.172	243.380	0.165	-0.275
-327.158	-31.531	-0.110	0.061
-326.143	-27.912	0.157	-0.090
-325.129	117.184	-0.154	0.188
-324.114	-38.133	-0.156	-0.082
-323.099	-26.064	-0.345	-0.201
-322.085	-200.000	0.002	-0.154
-321.070	-152.833	-0.237	0.017
-320.056	541.682	0.133	-0.314
-319.041	-160.787	0.262	-0.014
-318.026	165.172	0.130	-0.182
-317.012	273.260	0.159	-0.278
-315.997	220.264	0.152	0.241
-314.983	54.351	0.074	-0.071
-313.968	-102.398	-0.136	0.032
-312.953	-44.596	0.081	-0.040
-311.939	-200.000	0.016	-0.382
-310.924	-111.755	-0.192	-0.038
-309.910	39.495	0.224	-0.199
-308.895	289.589	0.139	-0.250
-307.880	286.260	0.051	0.091
-306.866	667.491	0.102	-0.260
-305.851	-158.230	0.118	-0.007
-304.837	-132.652	-0.361	-0.046
-303.822	208.096	0.199	0.307
-302.807	-19.268	0.182	0.112
-301.793	-141.469	-0.056	0.006
-300.778	800.000	0.064	-0.181
-299.764	186.116	0.006	-0.008
-298.749	-31.162	0.169	0.094
-297.735	22.009	-0.270	-0.218
-296.720	24.893	-0.217	0.178
-295.705	99.693	0.146	-0.167
-294.691	38.725	-0.174	0.154
-293.676	-200.000	-0.014	0.124
-292.662	21.606	-0.046	0.037
-291.647	-78.218	-0.116	0.039
-290.632	259.135	0.070	-0.120
-289.618	-169.342	0.391	-0.014
-288.603	-67.497	-0.160	0.062
-287.589	449.951	0.133	0.291
-286.574	-33.646	0.370	0.202
-285.559	8.848	-0.206	0.154
-284.545	205.439	-0.058	-0.089
-283.530	800.000	0.057	-0.186
-282.516	-29.885	-0.065	-0.037
-281.501	122.411	-0.161	-0.199
-280.486	87.041	-0.054	-0.060
-279.472	-200.000	-0.004	0.021
-278.457	-59.941	-0.327	0.138
-277.443	-132.130	-0.165	0.021
-276.428	-127.763	-0.284	-0.041
-275.413	28.561	0.205	-0.172
-274.399	800.000	-0.063	-0.263
-273.384	35.605	-0.281	0.244
-272.370	-145.600	0.468	0.041
-271.355	-200.000	-0.008	-0.117
-270.340	109.697	0.131	0.155
-269.326	18.350	0.351	-0.277
-268.311	-120.060	-0.221	0.037
-267.297	27.998	0.172	0.143
-266.282	-19.134	-0.162	0.099
-265.267	245.418	-0.086	-0.144
-264.253	313.435	0.058	0.107
-263.238	-58.501	0.470	-0.202
-262.224	800.000	0.017	-0.061
-261.209	123.832	-0.208	0.258
-260.195	-34.117	-0.076	0.041
-259.180	389.232	-0.065	0.134
-258.165	-67.922	0.159	-0.061
-257.151	104.510	0.146	0.170
-256.136	-182.559	-0.210	-0.004
-255.122	-200.000	0.043	0.294
-254.107	230.135	0.169	0.272
-253.092	274.375	-0.066	0.116
-252.078	23.208	0.139	0.113
-251.063	-200.000	-0.009	-0.198
-250.049	44.679	0.093	-0.084
-249.034	-5.888	-0.149	0.101
-248.019	392.543	0.136	0.280
-247.005	-156.397	0.300	-0.019
-245.990	404.825	-0.102	0.213
-244.976	-37.990	-0.203	0.107
-243.961	-162.926	0.243	-0.012
-242.946	30.033	0.077	0.065
-241.932	-200.000	0.014	0.242
-240.917	-23.783	-0.082	0.049
-239.903	393.341	-0.124	0.255
-238.888	523.126	-0.105	-0.244
-237.873	52.107	-0.163	-0.154
-236.859	288.336	-0.179	0.321
-235.844	-200.000	0.023	-0.101
-234.830	-40.521	-0.130	-0.066
-233.815	31.362	0.114	0.096
-232.800	-146.855	-0.124	-0.011
-231.786	-36.611	0.097	-0.052
-230.771	800.000	0.075	0.247
-229.757	-74.082	0.219	-0.078
-228.742	-70.471	-0.135	-0.051
-227.727	314.368	0.173	0.322
-226.713	113.076	-0.065	-0.078
-225.698	34.476	-0.104	-0.090
-224.684	-60.645	-0.425	-0.178
-223.669	32.451	-0.129	0.110
-222.655	-56.954	-0.099	-0.043
-221.640	-4.327	-0.153	-0.104
-220.625	95.301	0.178	0.200
-219.611	-138.900	0.153	0.016
-218.596	800.000	0.041	-0.134
-217.582	-39.396	-0.126	-0.065
-216.567	56.696	0.053	-0.051
-215.552	-200.000	-0.032	-0.398
-214.538	380.480	-0.038	0.077
-213.523	236.425	0.149	0.243
-212.509	-176.758	-0.401	0.010
-211.494	-200.000	-0.009	-0.155
-210.479	-145.627	-0.181	0.016
-209.465	-30.213	0.153	0.086
-208.450	-118.580	-0.094	-0.016
-207.436	800.000	0.084	-0.293
-206.421	-200.000	-0.015	-0.147
-205.406	-89.735	-0.036	-0.010
-204.392	800.000	-0.089	0.277
-203.377	23.426	-0.216	-0.176
-202.363	20.838	-0.230	-0.183
-201.348	565.063	-0.037	-0.089
-200.333	-154.184	-0.160	-0.011
-199.319	-124.098	0.233	-0.036
-198.304	-150.852	-0.153	-0.011
-197.290	132.464	-0.098	0.125
-196.275	42.385	0.337	-0.302
-195.260	138.245	-0.022	-0.028
-194.246	-200.000	-0.001	-0.157
-193.231	8.033	0.222	0.164
-192.217	-101.153	-0.149	0.036
-191.202	11.160	-0.038	-0.029
-190.187	474.366	0.054	-0.119
-189.173	112.037	-0.121	-0.144
-188.158	800.000	-0.149	-0.502
-187.144	-200.000	0.028	-0.296
-186.129	113.876	0.125	-0.150
-185.114	-200.000	-0.021	0.161
-184.100	800.000	0.129	-0.407
-183.085	-200.000	-0.026	-0.247
-182.071	800.000	0.027	0.101
-181.056	98.461	-0.183	0.208
-180.042	-100.955	-0.322	-0.078
-179.027	800.000	0.035	-0.140
-178.012	-66.057	-0.112	-0.044
-176.998	7.625	0.239	0.176
-175.983	110.069	0.189	0.224
-174.969	245.199	-0.079	0.131
-173.954	-52.536	-0.146	-0.066
-172.939	-17.541	0.210	0.130
-171.925	-200.000	-0.016	-0.166
-170.910	-55.042	0.426	0.189
-169.896	-55.063	0.072	-0.032
-168.881	400.473	-0.080	-0.166
-167.866	-200.000	-0.023	0.111
-166.852	-34.503	0.025	-0.014
-165.837	11.233	-0.216	0.163
-164.823	330.398	-0.147	0.278
-163.808	-200.000	0.011	-0.120
-162.793	-200.000	-0.003	-0.253
-161.779	-185.728	0.281	-0.004
-160.764	118.375	-0.161	-0.196
-159.750	-27.612	0.220	-0.126
-158.735	267.542	-0.171	0.294
-157.720	302.069	-0.060	0.110
-156.706	-200.000	-0.037	0.262
-155.691	-93.245	0.211	0.058
-154.677	-140.039	0.388	0.040
-153.662	-154.813	-0.175	-0.011
-152.647	480.554	-0.096	-0.214
-151.633	-200.000	-0.009	-0.286
-150.618	-46.581	0.096	-0.046
-149.604	38.571	0.151	0.132
-148.589	-200.000	0.027	0.159
-147.574	174.017	0.224	0.318
-146.560	-200.000	0.005	-0.298
-145.545	-48.787	-0.187	0.088
-144.531	514.832	-0.113	-0.260
-143.516	20.990	0.030	-0.024
-142.502	-87.101	-0.138	-0.041
-141.487	-37.265	0.185	0.097
-140.472	-106.913	-0.462	-0.101
-139.458	-200.000	-0.078	0.337
-138.443	-75.656	-0.196	0.068
-137.429	-142.972	-0.100	-0.009
-136.414	-37.754	-0.312	0.163
-135.399	-154.297	0.065	0.004
-134.385	-200.000	0.007	0.301
-133.370	800.000	-0.030	-0.121
-132.356	97.783	-0.134	0.151
-131.341	-153.687	0.265	0.018
-130.326	-101.788	0.325	0.077
-129.312	0.815	0.129	0.091
-128.297	-200.000	-0.040	0.289
-127.283	73.582	-0.202	0.208
-126.268	223.382	0.067	-0.106
-125.253	25.393	0.223	0.182
-124.239	-93.222	-0.177	0.048
-123.224	-189.495	-0.247	-0.003
-122.210	-200.000	0.068	0.341
-121.195	378.611	0.171	0.343
-120.180	800.000	0.089	0.344
-119.166	-136.725	0.204	-0.023
-118.151	800.000	0.103	-0.344
-117.137	-200.000	0.000	-0.176
-116.122	-200.000	-0.015	0.143
-115.107	215.387	0.051	0.079
-114.093	-80.614	0.104	-0.034
-113.078	-200.000	0.080	0.352
-112.064	258.703	0.170	0.287
-111.049	800.000	-0.006	-0.016
-110.034	-89.942	-0.138	0.040
-109.020	47.807	-0.056	-0.051
-108.005	800.000	-0.017	-0.069
-106.991	800.000	0.009	0.039
-105.976	-52.370	0.496	0.226
-104.962	564.968	-0.127	0.303
-103.947	-200.000	0.002	0.040
-102.932	800.000	0.079	-0.246
-101.918	-92.604	0.124	-0.034
-100.903	800.000	-0.052	0.169
-99.889	1.419	0.231	0.163
-98.874	33.969	0.331	-0.284
-97.859	-54.493	-0.130	-0.058
-96.845	-200.000	-0.020	-0.093
-95.830	-73.508	-0.130	0.046
-94.816	412.574	-0.044	0.093
-93.801	-200.000	0.025	0.351
-92.786	-150.867	-0.271	-0.020
-91.772	-78.707	0.089	0.030
-90.757	-140.374	0.317	-0.032
-89.743	49.552	0.113	0.104
-88.728	-200.000	0.013	0.210
-87.713	453.835	0.085	-0.184
-86.699	-12.890	-0.234	0.150
-85.684	-200.000	-0.011	0.202
-84.670	800.000	0.108	0.386
-83.655	81.853	-0.273	-0.290
-82.640	800.000	-0.076	0.240
-81.626	-9.246	0.273	0.179
-80.611	-200.000	-0.044	0.227
-79.597	-200.000	-0.029	0.239
-78.582	-148.331	0.301	0.024
-77.567	153.647	0.169	0.227
-76.553	-89.706	0.241	-0.069
-75.538	-200.000	-0.047	-0.232
-74.524	114.772	-0.092	-0.110
-73.509	172.834	-0.178	-0.252
-72.494	321.598	0.100	0.187
-71.480	800.000	0.047	-0.141
-70.465	-6.584	-0.157	-0.105
-69.451	-200.000	-0.012	0.054
-68.436	-200.000	0.086	0.373
-67.422	-200.000	-0.046	0.230
-66.407	-76.390	0.191	0.066
-65.392	-133.689	-0.225	-0.028
-64.378	-54.071	-0.058	-0.026
-63.363	-147.880	0.360	-0.029
-62.349	-9.880	0.135	-0.088
-61.334	76.181	-1.106	-1.148
-60.319	92.752	0.594	0.658
-59.305	800.000	-0.268	-1.049
-58.290	122.466	0.899	1.102
-57.276	800.000	0.674	1.876
-56.261	-200.000	96.146	586.437
-55.246	547.399	1375.972	3229.535
-54.232	162.564	2550.163	3508.438
-53.217	106.763	2263.654	2634.464
-52.203	41.261	1893.379	1678.521
-51.188	35.171	1684.751	1447.671
-50.173	32.525	1641.770	1391.164
-49.159	50.029	1688.143	1561.859
-48.144	51.673	1704.883	1589.592
-47.130	34.749	1666.526	1428.625
-46.115	32.086	1652.109	1396.432
-45.100	31.953	1646.851	1390.949
-44.086	31.938	1644.858	1389.098
-43.071	31.797	1642.509	1386.021
-42.057	31.795	1639.908	1383.754
-41.042	31.927	1637.765	1382.863
-40.027	31.869	1636.081	1380.964
-39.013	31.851	1633.923	1378.949
-37.998	31.816	1632.165	1377.153
-36.984	31.809	1631.209	1376.244
-35.969	31.962	1629.537	1375.902
-34.954	32.002	1627.813	1374.684
-33.940	32.019	1625.763	1373.021
-32.925	31.903	1624.333	1370.912
-31.911	31.893	1622.854	1369.536
-30.896	32.031	1620.834	1368.781
-29.881	31.909	1619.613	1366.811
-28.867	31.921	1617.726	1365.249
-27.852	31.894	1616.176	1363.690
-26.838	31.933	1614.949	1362.885
-25.823	31.903	1613.884	1361.716
-24.809	31.871	1612.241	1360.040
-23.794	32.051	1610.463	1359.792
-22.779	31.999	1609.406	1358.470
-21.765	31.892	1607.980	1356.441
-20.750	31.927	1606.209	1355.146
-19.736	31.957	1604.983	1354.272
-18.721	32.048	1603.258	1353.422
-17.706	32.011	1602.078	1352.102
-16.692	31.982	1600.460	1350.475
-15.677	31.931	1599.370	1349.132
-14.663	32.032	1597.565	1348.283
-13.648	32.033	1596.485	1347.325
-12.633	32.017	1594.805	1345.741
-11.619	32.082	1593.251	1344.841
-10.604	31.993	1592.003	1343.100
-9.590	31.953	1590.527	1341.511
-8.575	31.987	1589.462	1340.807
-7.560	32.041	1587.457	1339.441
-6.546	32.039	1586.766	1338.796
-5.531	31.957	1585.957	1337.474
-4.517	31.976	1584.762	1336.545
-3.502	32.076	1583.451	1336.104
-2.487	31.961	1582.282	1334.242
-1.473	31.579	1570.475	1321.535
-0.458	28.721	1550.389	1284.624
0.556	22.860	1551.034	1250.142
1.571	20.393	1574.339	1251.058
2.586	19.933	1586.556	1257.319
3.600	18.114	1535.143	1203.667
4.615	10.203	1425.197	1065.458
5.629	1.931	1359.405	964.055
6.644	0.171	1351.015	946.956
7.659	0.023	1349.610	944.961
8.673	0.030	1348.715	944.290
9.688	-0.053	1346.595	942.202
10.702	-0.151	1343.703	939.482
11.717	3.672	1350.115	967.880
12.731	12.448	1363.812	1032.971
13.746	17.528	1370.675	1070.083
14.761	17.292	1368.629	1066.911
15.775	16.200	1365.799	1057.767
16.790	15.138	1363.092	1048.929
17.804	14.341	1360.997	1042.238
18.819	14.051	1359.487	1039.176
19.834	13.749	1358.163	1036.185
20.848	13.541	1357.136	1034.014
21.863	13.249	1355.664	1030.981
22.877	13.161	1354.533	1029.480
23.892	13.122	1353.714	1028.525
24.907	13.129	1352.248	1027.360
25.921	13.131	1351.713	1026.873
26.936	13.040	1351.596	1026.131
27.950	13.132	1350.064	1025.450
28.965	13.120	1349.612	1024.942
29.980	13.237	1348.796	1024.957
30.994	13.326	1347.595	1024.501
32.009	13.367	1346.484	1023.824
33.023	13.323	1345.234	1022.510
34.038	13.312	1343.838	1021.287
35.053	13.260	1343.030	1020.265
36.067	13.128	1342.280	1018.789
37.082	13.248	1341.096	1018.539
38.096	13.266	1340.102	1017.805
39.111	13.248	1339.648	1017.259
40.126	13.144	1339.029	1016.060
41.140	13.116	1337.778	1014.850
42.155	13.034	1337.456	1014.014
43.169	13.015	1337.656	1013.957
44.184	13.123	1336.500	1013.655
45.199	12.980	1336.581	1012.747
46.213	13.116	1335.906	1012.983
47.228	13.209	1334.828	1012.642
48.242	13.178	1334.117	1011.822
49.257	13.182	1332.871	1010.815
50.271	13.012	1331.286	1008.486
51.286	13.125	1330.015	1008.120
52.301	13.167	1328.628	1007.241
53.315	13.189	1327.374	1006.330
54.330	13.133	1326.071	1004.913
55.344	13.104	1325.049	1003.875
56.359	13.109	1324.334	1003.276
57.374	13.105	1323.018	1002.165
58.388	13.018	1322.418	1001.096
59.403	13.005	1322.307	1000.844
60.417	13.089	1321.107	1000.357
61.432	13.051	1320.335	999.452
62.447	12.978	1319.352	998.174
63.461	12.932	1317.814	996.648
64.476	12.903	1317.200	995.921
65.490	13.020	1315.964	995.600
66.505	13.082	1313.871	994.306
67.520	13.064	1312.724	993.243
68.534	12.936	1312.498	992.210
69.549	12.999	1311.395	991.666
70.563	13.013	1310.086	990.674
71.578	12.887	1309.051	989.050
72.593	12.895	1307.905	988.145
73.607	12.883	1307.209	987.457
74.622	12.927	1306.275	986.927
75.636	12.938	1305.856	986.592
76.651	12.937	1304.753	985.667
77.666	12.965	1304.002	985.179
78.680	12.917	1303.668	984.552
79.695	12.907	1303.023	983.915
80.709	13.073	1301.760	983.863
81.724	13.157	1300.880	983.613
82.739	13.081	1300.077	982.467
83.753	13.048	1299.384	981.661
84.768	13.146	1298.666	981.612
85.782	13.250	1296.825	980.750
86.797	13.180	1295.557	979.290
87.812	13.157	1294.218	978.055
88.826	13.126	1293.367	977.142
89.841	13.227	1292.491	976.990
90.855	13.212	1291.552	976.107
91.870	13.136	1290.633	974.875
92.884	13.223	1289.678	974.584
93.899	13.239	1289.011	974.090
94.914	13.311	1287.992	973.652
95.928	13.323	1287.081	972.951
96.943	13.292	1286.635	972.343
97.957	13.215	1286.377	971.611
98.972	13.338	1284.491	970.824
99.987	13.282	1283.549	969.695
101.001	13.297	1282.401	968.830
102.016	13.330	1281.346	968.144
103.030	13.313	1280.691	967.462
104.045	13.300	1279.759	966.599
105.060	13.222	1278.714	965.265
106.074	13.006	1277.676	963.139
107.089	12.986	1276.365	961.946
108.103	13.043	1275.177	961.301
109.118	13.121	1273.420	960.340
110.133	13.135	1272.112	959.355
111.147	13.096	1271.192	958.349
112.162	13.040	1269.894	956.960
113.176	13.093	1268.638	956.237
114.191	13.153	1267.611	955.726
115.206	13.104	1266.957	954.862
116.220	13.158	1265.533	954.018
117.235	13.135	1264.072	952.697
118.249	13.143	1263.186	951.991
119.264	13.108	1262.531	951.211
120.279	13.164	1261.112	950.384
121.293	13.058	1260.230	949.024
122.308	13.033	1259.180	948.008
123.322	13.205	1257.931	947.967
124.337	13.081	1256.972	946.451
125.352	13.089	1255.748	945.494
126.366	12.997	1254.829	944.190
127.381	13.067	1253.681	943.641
128.395	13.015	1252.829	942.621
129.410	13.111	1251.966	942.434
130.424	13.156	1250.859	941.777
131.439	13.121	1250.223	941.016
132.454	13.226	1249.162	940.732
133.468	13.226	1247.958	939.736
134.483	13.178	1247.812	939.273
135.497	13.177	1246.472	938.177
136.512	13.106	1245.494	936.957
137.527	13.132	1243.778	935.726
138.541	13.189	1242.497	935.005
139.556	13.186	1241.210	933.934
140.570	13.221	1240.574	933.574
141.585	13.273	1239.014	932.608
142.600	13.283	1238.001	931.821
143.614	13.352	1237.154	931.491
144.629	13.358	1236.143	930.680
145.643	13.397	1234.785	929.790
146.658	13.335	1233.593	928.464
147.673	13.165	1232.329	926.479
148.687	13.196	1231.451	925.909
149.702	13.232	1230.257	925.131
150.716	13.194	1228.560	923.562
151.731	13.194	1227.483	922.669
152.746	13.292	1226.496	922.395
153.760	13.398	1225.181	921.912
154.775	13.386	1223.832	920.753
155.789	13.344	1223.276	920.016
156.804	13.456	1221.935	919.548
157.819	13.462	1220.796	918.644
158.833	13.433	1220.100	917.877
159.848	13.515	1219.202	917.578
160.862	13.435	1218.279	916.355
161.877	13.421	1217.040	915.266
162.892	13.361	1216.110	914.157
163.906	13.373	1215.200	913.454
164.921	13.356	1214.393	912.676
165.935	13.431	1213.224	912.129
166.950	13.392	1212.684	911.429
167.964	13.479	1211.990	911.304
168.979	13.372	1211.454	910.230
169.994	13.462	1210.526	909.950
171.008	13.484	1209.709	909.374
172.023	13.584	1208.719	909.100
173.037	13.517	1208.431	908.434
174.052	13.537	1207.103	907.465
175.067	13.417	1206.506	906.279
176.081	13.407	1205.443	905.349
177.096	13.410	1204.416	904.510
178.110	13.514	1203.194	904.079
179.125	13.526	1201.816	903.032
180.140	13.608	1200.562	902.453
181.154	13.538	1199.301	901.047
182.169	13.524	1198.621	900.381
183.183	13.620	1197.195	899.749
184.198	13.656	1196.024	898.986
185.213	13.660	1194.815	898.019
186.227	13.686	1194.311	897.702
187.242	13.618	1193.339	896.523
188.256	13.898	1191.363	896.472
189.271	13.797	1191.008	895.583
190.286	13.817	1189.721	894.641
191.300	13.607	1189.019	892.902
192.315	13.472	1188.661	891.830
193.329	13.532	1187.738	891.380
194.344	13.522	1187.079	890.753
195.359	13.546	1186.915	890.679
196.373	13.738	1186.282	891.155
197.388	13.786	1185.352	890.636
198.402	13.816	1185.186	890.596
199.417	13.875	1184.533	890.343
200.432	13.893	1183.697	889.731
201.446	13.959	1182.646	889.217
202.461	14.034	1181.380	888.589
203.475	14.002	1180.391	887.591
204.490	13.981	1179.246	886.541
205.504	13.887	1178.526	885.420
206.519	13.930	1177.150	884.535
207.534	13.920	1175.446	883.126
208.548	13.922	1174.712	882.508
209.563	13.944	1174.354	882.275
210.577	14.010	1173.032	881.556
211.592	13.984	1172.504	880.940
212.607	14.079	1171.421	880.556
213.621	14.072	1170.805	879.975
214.636	14.074	1169.921	879.246
215.650	13.995	1169.116	878.142
216.665	14.071	1168.136	877.732
217.680	14.133	1167.063	877.175
218.694	14.145	1166.478	876.721
219.709	14.154	1165.764	876.152
220.723	14.136	1165.128	875.503
221.738	14.233	1164.162	875.210
222.753	14.045	1163.510	873.655
223.767	14.171	1163.008	873.860
224.782	14.234	1162.404	873.661
225.796	14.289	1161.553	873.235
226.811	14.282	1161.040	872.732
227.826	14.326	1160.018	872.117
228.840	14.271	1159.555	871.408
229.855	14.229	1158.939	870.646
230.869	14.265	1157.795	869.896
231.884	14.302	1156.883	869.330
232.899	14.257	1156.140	868.458
233.913	14.214	1155.639	867.780
234.928	14.245	1154.924	867.332
235.942	14.215	1154.075	866.460
236.957	14.205	1153.452	865.861
237.972	14.235	1152.595	865.297
238.986	14.226	1152.113	864.810
240.001	14.339	1151.150	864.599
241.015	14.227	1150.836	863.708
242.030	14.404	1149.853	863.808
243.045	14.287	1148.977	862.471
244.059	14.414	1147.952	862.280
245.074	14.398	1147.329	861.654
246.088	14.412	1146.462	861.000
247.103	14.481	1145.764	860.755
248.117	14.495	1144.905	860.104
249.132	14.560	1144.043	859.715
250.147	14.637	1143.517	859.643
251.161	14.649	1142.910	859.174
252.176	14.733	1142.293	859.066
253.190	14.823	1141.447	858.816
254.205	14.800	1140.929	858.231
255.220	14.841	1140.584	858.104
256.234	14.869	1139.667	857.483
257.249	14.783	1139.252	856.654
258.263	14.782	1138.769	856.208
259.278	14.801	1137.840	855.534
260.293	14.836	1137.300	855.231
261.307	14.858	1136.982	855.025
262.322	14.940	1136.071	854.684
263.336	15.037	1135.013	854.308
264.351	15.054	1134.627	854.029
265.366	15.045	1133.925	853.382
266.380	14.989	1133.650	852.813
267.395	15.029	1132.515	852.089
268.409	14.910	1131.946	850.977
269.424	14.832	1131.461	850.140
270.439	14.926	1130.977	850.179
271.453	15.018	1129.593	849.532
272.468	14.944	1128.605	848.337
273.482	14.923	1128.033	847.726
274.497	15.022	1128.117	848.215
275.512	14.969	1126.942	846.990
276.526	14.965	1126.504	846.563
277.541	15.007	1125.364	845.847
278.555	14.978	1125.124	845.445
279.570	15.181	1123.952	845.514
280.585	15.205	1123.223	845.010
281.599	15.171	1122.640	844.325
282.614	15.149	1121.664	843.409
283.628	15.153	1120.042	842.130
284.643	15.247	1119.098	841.823
285.657	15.174	1118.555	840.974
286.672	15.119	1118.045	840.236
287.687	15.207	1116.484	839.431
288.701	15.253	1116.250	839.409
289.716	15.365	1115.049	838.992
290.730	15.307	1114.702	838.369
291.745	15.290	1114.346	837.941
292.760	15.310	1113.092	837.025
293.774	15.255	1112.688	836.373
294.789	15.425	1112.308	836.861
295.803	15.365	1111.671	836.010
296.818	15.276	1110.663	834.735
297.833	15.352	1109.755	834.356
298.847	15.408	1109.218	834.156
299.862	15.242	1108.390	832.634
300.876	15.401	1107.453	832.647
301.891	15.423	1107.336	832.593
302.906	15.466	1106.576	832.161
303.920	15.625	1105.693	832.211
304.935	15.571	1105.169	831.474
305.949	15.589	1104.485	830.976
306.964	15.503	1104.063	830.159
307.979	15.494	1103.337	829.495
308.993	15.581	1102.320	829.090
310.008	15.663	1101.562	828.851
311.022	15.637	1101.074	828.279
312.037	15.700	1099.981	827.696
313.052	15.500	1099.138	826.001
314.066	15.433	1098.417	825.060
315.081	15.576	1097.106	824.704
316.095	15.530	1096.553	823.992
317.110	15.528	1096.097	823.565
318.125	15.624	1095.324	823.381
319.139	15.544	1094.566	822.348
320.154	15.604	1093.897	822.065
321.168	15.543	1093.648	821.507
322.183	15.544	1092.900	820.878
323.197	15.597	1092.267	820.587
324.212	15.678	1091.486	820.324
325.227	15.688	1090.843	819.816
326.241	15.709	1090.467	819.565
327.256	15.622	1089.691	818.482
328.270	15.584	1088.840	817.586
329.285	15.770	1087.415	817.350
330.300	15.715	1087.085	816.763
331.314	15.661	1086.385	815.902
332.329	15.679	1084.889	814.791
333.343	15.609	1084.231	813.889
334.358	15.808	1083.472	814.209
335.373	15.883	1082.869	814.046
336.387	15.864	1081.885	813.141
337.402	15.936	1081.327	813.001
338.416	15.849	1080.785	812.101
339.431	15.861	1080.380	811.779
340.446	15.936	1079.509	811.417
341.460	16.029	1078.547	811.070
342.475	15.973	1077.948	810.279
343.489	16.102	1076.815	809.975
344.504	16.173	1076.031	809.654
345.519	16.113	1075.246	808.703
346.533	16.018	1074.807	807.846
347.548	16.168	1073.661	807.630
348.562	16.332	1072.918	807.784
349.577	16.137	1072.393	806.387
350.592	16.012	1071.606	805.127
351.606	16.060	1071.384	805.118
352.621	16.002	1070.791	804.323
353.635	16.011	1069.697	803.473
354.650	16.022	1068.965	802.905
355.665	16.221	1068.184	803.193
356.679	16.053	1067.460	801.779
357.694	16.176	1067.338	802.203
358.708	16.148	1066.856	801.634
359.723	16.314	1065.351	801.222
360.738	16.342	1065.197	801.166
361.752	16.329	1064.269	800.340
362.767	16.283	1063.539	799.501
363.781	16.223	1063.684	799.253
364.796	16.298	1062.812	798.885
365.810	16.361	1062.564	798.924
366.825	16.435	1061.831	798.652
367.840	16.408	1061.078	797.890
368.854	16.406	1060.616	797.459
369.869	16.447	1059.587	796.810
370.883	16.394	1059.163	796.169
371.898	16.537	1057.876	795.804
372.913	16.579	1057.176	795.404
373.927	16.556	1057.047	795.130
374.942	16.644	1056.446	795.024
375.956	16.586	1056.149	794.456
376.971	16.547	1055.136	793.440
377.986	16.495	1054.923	792.964
379.000	16.516	1054.723	792.842
380.015	16.685	1053.961	792.993
381.029	16.655	1053.287	792.273
382.044	16.632	1052.433	791.456
383.059	16.745	1051.485	791.198
384.073	16.829	1050.545	790.814
385.088	16.732	1049.806	789.737
386.102	16.782	1049.017	789.305
387.117	16.682	1048.137	788.106
388.132	16.643	1047.262	787.199
389.146	16.680	1046.698	786.878
390.161	16.825	1045.476	786.560
391.175	16.746	1044.925	785.713
392.190	16.796	1044.431	785.504
393.205	16.881	1043.768	785.328
394.219	16.872	1042.715	784.426
395.234	16.868	1042.206	783.953
396.248	16.849	1040.971	782.866
397.263	16.727	1040.154	781.620
398.278	16.714	1039.763	781.197
399.292	16.732	1038.722	780.429
400.307	16.839	1038.295	780.533
401.321	16.679	1037.647	779.238
402.336	16.853	1036.746	779.296
403.350	16.841	1035.996	778.609
404.365	16.793	1035.571	777.996
405.380	16.791	1034.860	777.386
406.394	16.935	1033.993	777.325
407.409	16.948	1033.279	776.778
408.423	17.009	1032.984	776.770
409.438	17.060	1031.919	776.133
410.453	17.011	1031.542	775.556
411.467	17.043	1030.333	774.723
412.482	17.132	1029.794	774.655
413.496	17.142	1029.089	774.104
414.511	17.129	1028.989	773.901
415.526	17.181	1028.816	773.937
416.540	17.198	1028.098	773.408
417.555	17.274	1027.494	773.228
418.569	17.162	1027.006	772.286
419.584	17.232	1026.641	772.259
420.599	17.132	1026.043	771.287
421.613	102.200	1318.910	1460.436
422.628	93.422	1361.566	1460.562
