DTS Sentinel unit serial number:	SN413079Multiplexer serial number:	ORYXHardware model number:	OX4-SRSoftware version number:	ORYX F/W v4.00 Oryx Data Collector v3.7.2.0data status	okinstallation	princeton_trtdifferential loss correction	single-endedforward channel	channel 2reverse channel	N/Adate	2019/09/14time	11:23:35forward acquisition time	60.00reverse acquisition time	0.00gamma	496.2192k internal	0.2311k external	0.2311temperature offset calibration	1.0155default loss term (dB/km)	0.3790temperature slope calibration	1.0000multiplexer offset coefficient	1.0000multiplexer slope coefficient	1.0000fibre end	0.00T internal ref (°C)	36.69T ext. ref 1 (°C)	4.53T ext. ref 2 (°C)	32.78length (m)	temperature (°C)	Stokes	anti-Stokes-747.200	204.207	-0.119	-0.188
-746.185	-176.343	-0.086	0.002
-745.171	55.428	0.428	-0.421
-744.156	150.081	-0.164	0.226
-743.142	328.444	0.108	0.210
-742.127	-200.000	-0.078	0.437
-741.112	89.302	0.171	0.194
-740.098	-200.000	0.006	0.349
-739.083	-64.074	0.427	-0.177
-738.069	-63.148	0.501	0.210
-737.054	-52.864	0.290	0.136
-736.039	-200.000	0.004	0.202
-735.025	125.565	0.157	0.201
-734.010	-200.000	0.021	-0.108
-732.996	-131.350	-0.254	-0.034
-731.981	-200.000	0.022	-0.272
-730.966	-200.000	0.007	0.192
-729.952	123.914	-0.088	-0.112
-728.937	-200.000	0.027	-0.473
-727.923	134.760	-0.148	-0.195
-726.908	-61.143	-0.269	0.115
-725.894	-200.000	-0.033	0.159
-724.879	109.327	0.237	0.288
-723.864	543.637	-0.103	-0.249
-722.850	-115.257	0.107	-0.020
-721.835	-138.894	0.129	-0.014
-720.821	-200.000	-0.006	0.154
-719.806	800.000	-0.027	-0.099
-718.791	-103.855	0.116	-0.027
-717.777	-200.000	-0.009	-0.115
-716.762	380.754	0.077	-0.160
-715.748	800.000	-0.050	-0.183
-714.733	-99.239	-0.022	0.006
-713.718	223.890	-0.010	0.016
-712.704	-7.363	0.123	-0.085
-711.689	83.904	-0.114	-0.126
-710.675	-200.000	0.018	0.148
-709.660	277.464	0.216	-0.390
-708.645	618.941	-0.033	0.083
-707.631	354.879	-0.081	-0.162
-706.616	609.774	-0.106	-0.269
-705.602	-200.000	0.014	-0.458
-704.587	297.191	-0.196	0.364
-703.572	10.195	0.222	0.171
-702.558	5.301	-0.176	-0.132
-701.543	-121.032	0.335	-0.057
-700.529	-32.143	-0.049	-0.028
-699.514	-200.000	0.013	0.111
-698.499	-200.000	0.007	-0.077
-697.485	-200.000	0.007	-0.299
-696.470	-13.151	-0.464	-0.306
-695.456	-90.463	-0.223	0.066
-694.441	-56.383	0.220	0.099
-693.426	186.958	-0.026	-0.039
-692.412	-42.599	0.390	-0.201
-691.397	-76.073	0.188	-0.067
-690.383	-59.765	-0.029	-0.013
-689.368	361.802	0.160	0.325
-688.354	-155.388	-0.251	-0.016
-687.339	255.543	0.138	0.240
-686.324	259.755	-0.193	-0.337
-685.310	800.000	0.031	0.110
-684.295	-105.917	-0.331	0.076
-683.281	1.640	-0.323	-0.236
-682.266	-66.043	-0.279	-0.113
-681.251	-68.376	0.137	0.054
-680.237	-25.484	-0.129	0.077
-679.222	-107.434	0.347	-0.077
-678.208	800.000	-0.126	-0.423
-677.193	130.962	0.160	-0.208
-676.178	141.507	-0.014	0.018
-675.164	-35.357	-0.243	0.133
-674.149	203.951	0.074	-0.116
-673.135	422.041	-0.089	0.194
-672.120	-18.260	-0.124	0.079
-671.105	-73.949	-0.217	0.080
-670.091	-11.600	0.226	-0.150
-669.076	-200.000	-0.042	0.189
-668.062	8.260	-0.376	-0.286
-667.047	800.000	0.113	-0.382
-666.032	-185.286	0.065	0.001
-665.018	512.556	0.052	-0.122
-664.003	-56.757	0.096	-0.043
-662.989	163.653	-0.083	-0.118
-661.974	-200.000	-0.065	0.419
-660.959	770.912	-0.256	0.705
-659.945	657.643	-0.107	-0.279
-658.930	-78.484	-0.234	0.081
-657.916	-25.500	0.128	-0.076
-656.901	56.412	-0.151	-0.148
-655.886	358.442	-0.100	0.201
-654.872	-37.416	-0.244	-0.132
-653.857	-102.946	0.337	0.081
-652.843	-145.909	-0.227	0.020
-651.828	-63.300	0.278	0.116
-650.814	800.000	-0.022	-0.094
-649.799	156.193	-0.208	-0.290
-648.784	59.225	-0.202	-0.201
-647.770	-200.000	0.029	-0.252
-646.755	-45.392	-0.089	0.045
-645.741	217.299	0.142	0.229
-644.726	-6.813	-0.098	0.067
-643.711	-200.000	-0.014	-0.216
-642.697	-27.014	0.088	-0.052
-641.682	-11.308	-0.150	0.100
-640.668	-68.376	-0.414	-0.163
-639.653	178.402	-0.116	-0.171
-638.638	-200.000	-0.039	-0.173
-637.624	-91.941	-0.202	-0.058
-636.609	-200.000	-0.075	0.355
-635.595	199.973	0.103	0.160
-634.580	-126.478	-0.219	0.033
-633.565	-134.540	0.186	0.023
-632.551	-116.841	-0.127	0.023
-631.536	154.357	0.174	0.242
-630.522	311.057	0.175	-0.332
-629.507	-48.080	0.231	0.113
-628.492	-57.783	-0.201	-0.089
-627.478	-8.991	0.094	-0.064
-626.463	-44.936	0.029	-0.014
-625.449	-39.217	-0.149	-0.079
-624.434	-74.842	-0.443	-0.161
-623.419	-200.000	-0.011	-0.120
-622.405	-200.000	0.007	0.200
-621.390	84.369	0.298	0.329
-620.376	-41.829	-0.237	0.123
-619.361	218.446	0.199	0.322
-618.346	50.103	-0.161	0.153
-617.332	-163.586	0.170	0.008
-616.317	200.374	0.182	0.282
-615.303	800.000	0.128	-0.406
-614.288	-185.337	-0.188	-0.003
-613.273	-200.000	-0.017	-0.306
-612.259	5.936	-0.265	-0.198
-611.244	-106.061	0.250	0.057
-610.230	-200.000	-0.009	-0.176
-609.215	128.470	-0.236	0.303
-608.201	121.936	0.082	0.103
-607.186	-41.111	-0.184	-0.096
-606.171	-30.985	-0.033	0.019
-605.157	800.000	0.113	0.351
-604.142	736.498	-0.030	0.082
-603.128	800.000	0.057	0.227
-602.113	-31.239	-0.149	-0.085
-601.098	39.558	0.134	-0.121
-600.084	93.353	0.359	-0.410
-599.069	-57.010	-0.256	-0.114
-598.055	-177.125	0.290	0.007
-597.040	800.000	0.033	0.134
-596.025	-20.073	-0.221	-0.138
-595.011	-74.160	-0.248	-0.090
-593.996	-72.695	0.215	-0.080
-592.982	-200.000	0.055	-0.439
-591.967	-61.690	0.218	0.092
-590.952	133.992	-0.173	0.226
-589.938	317.502	-0.045	-0.085
-588.923	61.607	-0.236	0.237
-587.909	100.385	-0.072	0.085
-586.894	-54.449	0.222	0.102
-585.879	459.701	0.019	-0.044
-584.865	90.339	0.167	0.188
-583.850	-200.000	0.047	0.223
-582.836	3.230	-0.198	-0.145
-581.821	248.475	-0.041	-0.071
-580.806	-42.630	-0.203	-0.104
-579.792	-36.718	0.055	-0.030
-578.777	39.311	0.061	-0.055
-577.763	99.571	-0.096	0.112
-576.748	-114.976	0.240	-0.046
-575.733	-23.827	0.161	0.097
-574.719	10.536	0.133	-0.102
-573.704	-119.264	-0.251	0.044
-572.690	97.875	-0.165	0.191
-571.675	-200.000	-0.031	0.190
-570.661	-57.277	0.148	-0.066
-569.646	800.000	0.057	0.237
-568.631	-67.798	0.228	-0.090
-567.617	28.917	-0.239	-0.204
-566.602	800.000	-0.018	-0.063
-565.588	-50.619	-0.024	0.012
-564.573	-166.651	0.359	-0.015
-563.558	165.327	0.143	-0.203
-562.544	-200.000	0.014	0.158
-561.529	278.434	-0.090	0.162
-560.515	-200.000	0.001	-0.084
-559.500	-20.102	-0.235	-0.146
-558.485	-28.521	-0.208	0.121
-557.471	-124.905	0.246	0.038
-556.456	57.500	-0.225	0.222
-555.442	-26.602	0.205	0.121
-554.427	-50.826	0.253	0.120
-553.412	-14.304	-0.264	-0.172
-552.398	-124.191	-0.066	-0.010
-551.383	-138.481	0.220	0.024
-550.369	264.260	-0.157	0.275
-549.354	698.766	0.128	0.339
-548.339	-41.227	0.150	0.078
-547.325	-200.000	0.015	-0.156
-546.310	-119.748	0.149	0.026
-545.296	-32.238	-0.170	0.096
-544.281	800.000	0.064	0.269
-543.266	184.172	0.108	0.161
-542.252	-101.412	0.381	-0.094
-541.237	-200.000	-0.003	-0.192
-540.223	-200.000	-0.090	0.463
-539.208	239.720	-0.070	0.118
-538.193	200.893	-0.108	0.167
-537.179	27.521	0.223	0.189
-536.164	-69.075	-0.061	0.024
-535.150	-2.932	0.276	0.194
-534.135	-122.601	0.351	-0.057
-533.121	-63.143	-0.313	-0.130
-532.106	171.097	-0.155	-0.224
-531.091	-117.564	0.464	-0.084
-530.077	-200.000	-0.010	0.163
-529.062	446.540	0.116	-0.256
-528.048	321.427	0.141	-0.269
-527.033	-78.659	-0.115	-0.040
-526.018	-54.408	-0.208	0.095
-525.004	-34.880	0.407	-0.224
-523.989	638.431	-0.071	-0.183
-522.975	-200.000	0.042	-0.251
-521.960	442.899	0.063	-0.138
-520.945	-200.000	0.003	-0.092
-519.931	45.999	0.139	0.129
-518.916	43.008	-0.265	0.243
-517.902	800.000	0.123	0.427
-516.887	800.000	0.051	0.163
-515.872	-69.654	0.259	-0.100
-514.858	-200.000	-0.049	-0.282
-513.843	800.000	0.089	-0.268
-512.829	226.595	0.166	0.270
-511.814	48.915	-0.198	0.187
-510.799	-200.000	-0.021	0.187
-509.785	10.729	0.110	0.084
-508.770	800.000	-0.067	0.243
-507.756	-142.867	0.142	0.014
-506.741	96.240	-0.044	-0.050
-505.726	3.488	0.216	0.158
-504.712	449.083	0.143	-0.318
-503.697	-160.916	0.137	0.007
-502.683	36.784	-0.160	0.142
-501.668	-155.111	0.112	0.007
-500.653	-137.269	-0.288	0.033
-499.639	-117.635	-0.135	0.024
-498.624	-116.587	-0.094	-0.017
-497.610	-90.631	-0.346	0.101
-496.595	-188.554	0.264	0.003
-495.581	800.000	0.174	0.620
-494.566	-200.000	0.055	0.381
-493.551	473.537	0.005	0.012
-492.537	622.722	-0.038	-0.096
-491.522	-200.000	-0.057	-0.509
-490.508	456.404	0.150	-0.335
-489.493	-146.723	0.116	0.010
-488.478	-58.472	0.119	0.052
-487.464	-200.000	-0.043	-0.398
-486.449	800.000	-0.095	0.352
-485.435	-78.911	-0.190	-0.065
-484.420	-103.165	0.034	0.008
-483.405	-119.924	-0.030	-0.005
-482.391	263.292	0.097	0.169
-481.376	800.000	0.053	0.199
-480.362	-88.582	-0.182	-0.054
-479.347	-200.000	0.003	-0.315
-478.332	800.000	-0.019	0.071
-477.318	-66.743	-0.194	-0.077
-476.303	-5.049	-0.166	0.115
-475.289	-167.329	-0.096	-0.004
-474.274	-200.000	0.069	-0.351
-473.259	-155.779	0.194	0.012
-472.245	64.195	0.027	0.028
-471.230	-68.696	-0.269	0.104
-470.216	-68.020	0.299	-0.117
-469.201	57.563	0.170	0.167
-468.186	-200.000	0.022	0.185
-467.172	466.764	-0.021	-0.047
-466.157	-49.199	0.135	-0.065
-465.143	-137.844	-0.025	0.003
-464.128	190.722	0.070	-0.106
-463.113	139.368	-0.269	-0.355
-462.099	49.912	0.051	-0.049
-461.084	319.079	0.163	0.310
-460.070	-99.331	-0.225	-0.057
-459.055	-89.038	-0.346	-0.103
-458.040	225.495	0.091	0.148
-457.026	22.102	0.103	-0.085
-456.011	57.316	0.171	-0.168
-454.997	-25.399	0.322	0.191
-453.982	-156.078	-0.093	-0.006
-452.968	-194.572	-0.395	-0.003
-451.953	-200.000	0.016	-0.110
-450.938	-179.790	-0.239	0.005
-449.924	-162.922	-0.306	-0.015
-448.909	22.416	0.209	0.172
-447.895	97.049	-0.078	-0.090
-446.880	32.492	0.102	0.088
-445.865	-200.000	0.009	0.198
-444.851	-100.310	-0.155	0.039
-443.836	-141.117	-0.389	-0.040
-442.822	-200.000	0.035	-0.327
-441.807	-100.729	0.044	0.011
-440.792	608.691	0.117	-0.292
-439.778	139.754	0.011	-0.015
-438.763	56.406	-0.245	-0.239
-437.749	-200.000	-0.017	-0.143
-436.734	132.706	-0.089	0.115
-435.719	-146.293	-0.189	0.017
-434.705	173.490	-0.151	-0.218
-433.690	-157.461	0.302	-0.018
-432.676	694.933	0.157	0.414
-431.661	-33.019	0.275	0.153
-430.646	800.000	-0.063	-0.237
-429.632	47.540	0.247	-0.231
-428.617	-200.000	0.031	0.139
-427.603	-109.893	-0.341	0.072
-426.588	-120.504	0.124	0.021
-425.573	7.506	-0.102	-0.076
-424.559	-200.000	-0.020	-0.111
-423.544	236.242	0.279	-0.462
-422.530	-15.157	0.240	-0.154
-421.515	-30.470	-0.083	0.047
-420.500	-200.000	0.041	-0.208
-419.486	-200.000	0.033	-0.191
-418.471	-46.938	0.466	-0.228
-417.457	800.000	-0.101	-0.298
-416.442	-172.738	0.108	0.003
-415.428	-200.000	0.012	-0.431
-414.413	224.474	0.150	-0.242
-413.398	-29.995	-0.129	0.074
-412.384	800.000	0.039	-0.157
-411.369	-45.310	-0.088	0.044
-410.355	800.000	-0.070	-0.219
-409.340	250.444	-0.155	0.264
-408.325	81.728	0.005	-0.005
-407.311	-148.944	0.262	-0.021
-406.296	-99.074	-0.166	0.042
-405.282	800.000	-0.045	0.147
-404.267	-105.547	0.061	-0.014
-403.252	-53.452	-0.211	-0.097
-402.238	-149.185	-0.246	-0.020
-401.223	-112.139	-0.140	-0.028
-400.209	-45.608	0.400	0.198
-399.194	14.489	-0.350	0.274
-398.179	49.278	-0.037	-0.035
-397.165	-103.890	0.226	0.053
-396.150	-113.364	-0.273	-0.054
-395.136	-75.797	0.149	-0.053
-394.121	-200.000	0.052	-0.282
-393.106	185.976	-0.114	-0.169
-392.092	-34.406	-0.203	-0.111
-391.077	-23.440	0.234	-0.141
-390.063	107.400	0.038	0.045
-389.048	-74.668	-0.353	-0.127
-388.033	165.823	-0.187	0.264
-387.019	220.663	-0.080	-0.129
-386.004	44.409	-0.100	0.092
-384.990	-41.107	-0.158	0.082
-383.975	-200.000	-0.046	-0.238
-382.960	-11.396	-0.339	-0.223
-381.946	63.524	-0.042	0.042
-380.931	-142.661	0.155	0.015
-379.917	348.121	-0.125	-0.246
-378.902	-200.000	0.004	0.193
-377.888	6.882	-0.150	-0.112
-376.873	470.517	0.139	0.313
-375.858	-15.382	-0.411	-0.263
-374.844	779.813	0.061	-0.168
-373.829	-151.650	0.231	-0.017
-372.815	40.226	-0.058	0.053
-371.800	-98.136	-0.250	-0.064
-370.785	-11.239	0.226	0.149
-369.771	35.716	-0.133	-0.117
-368.756	800.000	-0.049	-0.167
-367.742	76.280	-0.056	-0.060
-366.727	800.000	0.067	-0.191
-365.712	-200.000	-0.304	0.001
-364.698	97.838	-0.168	0.194
-363.683	-200.000	0.022	-0.116
-362.669	489.045	-0.055	0.125
-361.654	722.885	-0.083	0.221
-360.639	32.962	0.189	-0.164
-359.625	-200.000	0.040	-0.205
-358.610	307.333	0.288	-0.537
-357.596	447.951	-0.075	0.165
-356.581	190.394	0.030	0.045
-355.566	-96.361	-0.316	-0.084
-354.552	275.171	-0.193	0.341
-353.537	230.969	-0.138	-0.226
-352.523	139.549	0.332	-0.438
-351.508	-129.312	-0.170	-0.024
-350.493	-200.000	-0.015	0.360
-349.479	-200.000	0.013	0.133
-348.464	-70.469	0.180	-0.068
-347.450	-23.917	0.091	-0.054
-346.435	68.934	-0.098	0.101
-345.420	60.357	-0.170	0.169
-344.406	139.636	-0.080	0.105
-343.391	-200.000	-0.016	0.156
-342.377	76.863	0.114	-0.121
-341.362	-100.393	0.156	0.039
-340.348	-200.000	0.007	0.202
-339.333	-200.000	0.026	-0.230
-338.318	-2.791	0.238	-0.166
-337.304	175.772	-0.091	0.132
-336.289	-36.856	0.167	0.090
-335.275	-77.049	-0.166	0.058
-334.260	-200.000	0.024	-0.117
-333.245	800.000	0.134	0.403
-332.231	-19.225	0.205	0.127
-331.216	-200.000	-0.032	-0.222
-330.202	-200.000	0.009	0.323
-329.187	-58.376	0.345	0.150
-328.172	-162.399	-0.179	-0.009
-327.158	113.866	-0.186	-0.226
-326.143	102.442	0.161	0.188
-325.129	447.058	-0.163	0.357
-324.114	618.749	0.132	-0.331
-323.099	-71.636	0.356	-0.133
-322.085	-23.526	-0.039	0.024
-321.070	16.176	-0.259	0.204
-320.056	566.109	0.081	0.197
-319.041	-71.642	0.055	-0.021
-318.026	75.799	0.190	-0.200
-317.012	-163.578	0.238	0.011
-315.997	-40.544	0.162	0.084
-314.983	119.850	-0.095	0.118
-313.968	800.000	-0.039	-0.113
-312.953	-200.000	0.010	0.217
-311.939	205.090	0.167	-0.258
-310.924	-49.512	0.236	-0.112
-309.910	-200.000	-0.012	0.061
-308.895	330.328	-0.113	-0.218
-307.880	708.030	0.060	-0.159
-306.866	311.806	-0.053	-0.100
-305.851	-56.809	-0.283	-0.125
-304.837	-200.000	-0.056	0.413
-303.822	-150.397	0.435	0.033
-302.807	-74.219	0.184	-0.066
-301.793	-70.323	-0.189	0.072
-300.778	800.000	0.086	0.259
-299.764	-200.000	0.006	-0.030
-298.749	295.262	0.012	-0.023
-297.735	-49.921	-0.131	0.062
-296.720	-170.482	0.056	-0.002
-295.705	-110.665	0.328	0.068
-294.691	485.252	-0.141	0.321
-293.676	98.696	0.081	-0.094
-292.662	106.167	0.123	-0.145
-291.647	85.040	0.180	-0.197
-290.632	-200.000	0.028	0.250
-289.618	-200.000	0.036	0.278
-288.603	108.521	-0.142	0.169
-287.589	301.080	0.116	-0.214
-286.574	-118.384	0.112	0.020
-285.559	170.939	-0.070	0.100
-284.545	9.317	0.297	-0.224
-283.530	147.891	0.075	-0.100
-282.516	135.760	-0.142	-0.184
-281.501	106.152	0.028	0.033
-280.486	-176.875	-0.248	-0.006
-279.472	87.039	-0.196	0.215
-278.457	800.000	0.036	-0.151
-277.443	-30.450	-0.079	0.045
-276.428	-186.749	-0.369	0.005
-275.413	127.307	-0.160	0.202
-274.399	344.074	0.045	0.088
-273.384	-27.252	0.226	-0.131
-272.370	-200.000	-0.054	-0.354
-271.355	-29.253	0.152	-0.087
-270.340	789.323	-0.092	-0.252
-269.326	223.636	0.104	0.167
-268.311	-200.000	0.033	-0.168
-267.297	-95.611	0.150	0.040
-266.282	-115.076	0.242	0.046
-265.267	90.383	-0.123	-0.137
-264.253	-91.057	-0.179	-0.051
-263.238	-47.259	-0.256	-0.124
-262.224	800.000	-0.051	-0.149
-261.209	-91.414	-0.124	-0.035
-260.195	66.881	0.121	0.122
-259.180	324.576	0.016	-0.031
-258.165	-200.000	-0.103	-0.513
-257.151	800.000	-0.018	0.063
-256.136	-200.000	-0.031	-0.189
-255.122	-200.000	0.034	-0.251
-254.107	20.832	0.370	-0.298
-253.092	-103.960	0.191	-0.044
-252.078	-100.212	-0.386	-0.096
-251.063	3.606	-0.159	0.115
-250.049	-156.209	-0.064	-0.004
-249.034	800.000	0.053	-0.201
-248.019	95.998	-0.164	0.187
-247.005	40.209	-0.154	-0.138
-245.990	-200.000	0.002	-0.082
-244.976	120.830	0.031	-0.038
-243.961	800.000	-0.043	0.123
-242.946	253.771	0.115	0.195
-241.932	94.192	-0.113	-0.127
-240.917	-156.574	-0.242	-0.015
-239.903	-200.000	0.089	-0.414
-238.888	-38.446	0.231	0.122
-237.873	335.288	-0.125	-0.242
-236.859	-160.052	0.121	0.007
-235.844	800.000	-0.123	0.354
-234.830	-35.149	-0.196	-0.106
-233.815	-51.354	-0.255	0.118
-232.800	502.319	-0.137	-0.315
-231.786	-157.443	0.117	-0.007
-230.771	221.576	-0.127	0.203
-229.757	-137.380	0.022	0.002
-228.742	-23.340	0.158	-0.094
-227.727	-108.910	0.437	0.093
-226.713	568.779	-0.053	-0.128
-225.698	-8.057	-0.056	-0.037
-224.684	647.253	0.127	0.322
-223.669	-93.792	-0.237	-0.065
-222.655	-200.000	0.002	0.084
-221.640	146.459	-0.092	0.123
-220.625	800.000	-0.105	0.306
-219.611	-200.000	0.008	0.184
-218.596	-200.000	0.002	-0.134
-217.582	-53.203	-0.219	0.100
-216.567	489.783	-0.077	0.175
-215.552	156.847	0.189	0.260
-214.538	19.188	-0.371	-0.296
-213.523	253.512	0.151	0.256
-212.509	800.000	0.092	0.341
-211.494	56.366	0.208	0.201
-210.479	800.000	-0.065	0.232
-209.465	-200.000	0.064	0.328
-208.450	21.897	0.105	0.085
-207.436	-200.000	0.038	-0.178
-206.421	188.921	0.075	0.112
-205.406	388.068	0.064	0.131
-204.392	-85.305	0.252	-0.078
-203.377	-193.195	0.290	-0.003
-202.363	-100.067	0.268	-0.066
-201.348	-200.000	0.006	0.145
-200.333	39.883	0.293	-0.262
-199.319	527.301	-0.034	-0.079
-198.304	-97.449	-0.067	0.017
-197.290	800.000	-0.029	-0.116
-196.275	-41.979	-0.377	0.192
-195.260	-35.294	-0.062	-0.033
-194.246	57.112	0.164	-0.159
-193.231	-200.000	0.007	-0.070
-192.217	-200.000	0.035	0.328
-191.202	-102.584	-0.192	-0.046
-190.187	157.116	-0.074	0.101
-189.173	-138.646	0.272	-0.030
-188.158	89.871	-0.078	0.087
-187.144	33.301	-0.169	0.146
-186.129	-48.637	-0.229	0.109
-185.114	748.760	-0.094	0.252
-184.100	-103.756	-0.099	-0.023
-183.085	76.468	0.081	0.085
-182.071	3.654	0.120	0.087
-181.056	70.466	-0.143	-0.147
-180.042	-31.137	-0.039	-0.022
-179.027	-141.045	-0.107	-0.011
-178.012	-18.597	-0.083	-0.051
-176.998	-161.724	0.211	-0.011
-175.983	555.293	-0.109	0.260
-174.969	800.000	-0.067	-0.261
-173.954	581.826	-0.112	0.272
-172.939	299.251	-0.061	-0.112
-171.925	-18.275	-0.109	0.068
-170.910	-29.008	0.507	0.289
-169.896	253.733	0.097	0.164
-168.881	800.000	-0.060	0.240
-167.866	-109.143	-0.286	-0.060
-166.852	-94.957	-0.110	0.029
-165.837	-94.800	-0.233	0.063
-164.823	-4.751	0.139	-0.095
-163.808	-136.316	-0.385	-0.045
-162.793	-119.324	-0.059	0.010
-161.779	-103.557	-0.218	0.051
-160.764	-62.184	0.234	-0.097
-159.750	-184.498	0.425	0.007
-158.735	-43.454	-0.409	0.205
-157.720	-86.406	0.384	-0.117
-156.706	-200.000	0.142	0.000
-155.691	41.176	-0.107	0.096
-154.677	64.064	-0.052	0.052
-153.662	46.613	0.162	-0.149
-152.647	-128.803	0.273	-0.038
-151.633	-144.564	0.193	0.018
-150.618	800.000	0.015	0.048
-149.604	-32.200	0.073	-0.040
-148.589	-124.678	-0.168	-0.026
-147.574	-129.650	0.065	0.009
-146.560	52.469	-0.098	-0.093
-145.545	-66.100	0.128	-0.051
-144.531	-73.561	0.139	-0.050
-143.516	29.534	0.207	0.175
-142.502	197.107	-0.216	-0.327
-141.487	800.000	0.068	-0.198
-140.472	748.317	-0.030	-0.081
-139.458	42.763	-0.065	0.059
-138.443	-14.192	-0.269	-0.172
-137.429	-125.185	0.294	0.045
-136.414	-29.183	0.118	0.067
-135.399	-200.000	0.000	-0.021
-134.385	800.000	-0.040	-0.156
-133.370	-85.070	0.098	0.030
-132.356	-106.672	0.443	-0.098
-131.341	-113.214	0.025	0.005
-130.326	-41.631	-0.071	-0.036
-129.312	800.000	0.041	0.160
-128.297	142.275	-0.056	-0.074
-127.283	-200.000	0.023	0.302
-126.268	-141.577	-0.202	-0.020
-125.253	-200.000	0.002	-0.032
-124.239	-200.000	0.015	-0.156
-123.224	-107.488	0.371	0.081
-122.210	584.602	0.099	-0.241
-121.195	-127.858	-0.201	0.029
-120.180	291.558	-0.102	0.183
-119.166	604.585	-0.031	-0.076
-118.151	-200.000	0.061	0.308
-117.137	800.000	0.044	0.166
-116.122	-200.000	0.052	0.252
-115.107	-26.282	0.148	-0.086
-114.093	-200.000	0.018	0.305
-113.078	-131.343	0.215	-0.028
-112.064	97.783	0.178	0.203
-111.049	-97.223	0.210	-0.054
-110.034	135.572	-0.209	-0.269
-109.020	383.572	0.068	-0.138
-108.005	-101.075	-0.167	0.040
-106.991	-127.032	0.077	-0.011
-105.976	-51.507	-0.225	-0.104
-104.962	333.865	-0.074	0.141
-103.947	-128.228	0.181	-0.026
-102.932	-200.000	0.004	0.098
-101.918	-31.479	-0.150	0.083
-100.903	-19.638	-0.199	-0.122
-99.889	12.949	0.148	0.113
-98.874	-200.000	0.021	-0.275
-97.859	-87.752	-0.291	0.087
-96.845	515.302	0.019	-0.043
-95.830	-200.000	-0.009	0.157
-94.816	-181.703	0.123	-0.002
-93.801	-132.301	-0.238	-0.030
-92.786	800.000	-0.063	-0.250
-91.772	-139.579	-0.236	0.025
-90.757	163.431	0.264	-0.367
-89.743	-162.589	-0.197	0.010
-88.728	-84.887	-0.291	-0.090
-87.713	-44.097	-0.253	-0.126
-86.699	800.000	-0.075	-0.258
-85.684	-200.000	0.019	-0.204
-84.670	-200.000	0.026	0.153
-83.655	-40.374	-0.321	0.165
-82.640	36.284	0.148	0.129
-81.626	252.494	-0.154	-0.260
-80.611	56.517	0.227	-0.219
-79.597	-200.000	0.031	0.144
-78.582	-17.734	0.187	-0.116
-77.567	-71.445	0.178	-0.066
-76.553	290.193	0.037	-0.066
-75.538	659.335	-0.029	0.074
-74.524	-39.207	-0.068	0.035
-73.509	161.322	0.072	-0.100
-72.494	-99.885	0.156	-0.039
-71.480	163.179	0.065	-0.090
-70.465	800.000	0.042	-0.127
-69.451	-6.664	0.174	-0.117
-68.436	537.281	-0.078	-0.183
-67.422	112.781	-0.158	0.189
-66.407	219.357	0.179	0.282
-65.392	800.000	-0.062	0.229
-64.378	-81.145	-0.413	-0.135
-63.363	-108.195	0.391	-0.084
-62.349	60.721	-0.054	0.053
-61.334	-2.821	-0.988	-0.682
-60.319	-75.208	0.487	0.172
-59.305	800.000	-0.310	-0.887
-58.290	800.000	0.341	1.094
-57.276	256.926	0.916	1.554
-56.261	-200.000	89.555	494.729
-55.246	503.561	1414.372	3232.096
-54.232	180.299	2643.124	3830.206
-53.217	111.188	2366.234	2816.338
-52.203	45.632	1971.604	1799.367
-51.188	39.807	1756.901	1557.569
-50.173	37.098	1712.345	1497.137
-49.159	52.180	1755.821	1653.238
-48.144	55.560	1773.835	1696.532
-47.130	39.672	1733.365	1535.413
-46.115	36.710	1718.156	1498.978
-45.100	36.613	1713.271	1493.903
-44.086	36.622	1710.651	1491.633
-43.071	36.594	1708.410	1489.402
-42.057	36.506	1705.773	1486.367
-41.042	36.507	1704.159	1484.908
-40.027	36.603	1701.688	1483.435
-39.013	36.600	1699.399	1481.359
-37.998	36.526	1698.060	1479.563
-36.984	36.600	1696.838	1479.009
-35.969	36.653	1695.579	1478.252
-34.954	36.751	1693.580	1477.203
-33.940	36.726	1691.635	1475.258
-32.925	36.707	1689.523	1473.208
-31.911	36.709	1688.090	1471.921
-30.896	36.767	1686.006	1470.487
-29.881	36.628	1684.568	1468.117
-28.867	36.674	1683.073	1467.103
-27.852	36.721	1681.380	1465.928
-26.838	36.679	1680.128	1464.460
-25.823	36.618	1678.505	1462.521
-24.809	36.652	1677.043	1461.453
-23.794	36.626	1676.129	1460.396
-22.779	36.645	1674.557	1459.115
-21.765	36.762	1672.081	1457.780
-20.750	36.651	1670.748	1455.722
-19.736	36.802	1669.214	1455.466
-18.721	36.700	1667.643	1453.274
-17.706	36.772	1666.016	1452.336
-16.692	36.661	1664.918	1450.489
-15.677	36.682	1663.739	1449.565
-14.663	36.768	1662.205	1448.813
-13.648	36.638	1660.890	1446.636
-12.633	36.794	1658.426	1445.599
-11.619	36.723	1657.568	1444.263
-10.604	36.764	1655.525	1442.731
-9.590	36.726	1654.357	1441.369
-8.575	36.760	1652.738	1440.160
-7.560	36.769	1651.711	1439.269
-6.546	36.670	1651.050	1437.906
-5.531	36.692	1649.631	1436.770
-4.517	36.729	1648.172	1435.717
-3.502	36.727	1646.985	1434.617
-2.487	36.836	1645.395	1433.978
-1.473	36.646	1634.685	1423.195
-0.458	34.037	1614.369	1386.457
0.556	31.747	1613.238	1349.895
1.571	29.013	1637.601	1350.130
2.586	27.998	1650.005	1352.731
3.600	24.053	1594.328	1278.692
4.615	14.139	1476.858	1118.061
5.629	6.083	1407.990	1014.022
6.644	4.633	1399.272	998.348
7.659	4.450	1397.855	996.077
8.673	4.540	1396.772	995.790
9.688	4.477	1395.335	994.275
10.702	4.406	1393.293	992.280
11.717	8.003	1399.520	1019.685
12.731	16.873	1416.250	1089.009
13.746	21.795	1423.533	1126.213
14.761	21.178	1421.061	1120.198
15.775	20.199	1418.616	1111.896
16.790	19.153	1415.280	1102.488
17.804	18.262	1413.397	1095.230
18.819	17.967	1411.542	1091.806
19.834	17.656	1410.564	1088.967
20.848	17.368	1409.959	1086.567
21.863	17.274	1408.098	1084.436
22.877	17.121	1407.030	1082.541
23.892	17.040	1405.789	1080.972
24.907	17.090	1405.097	1080.666
25.921	17.089	1404.314	1079.963
26.936	17.117	1403.529	1079.439
27.950	17.090	1402.400	1078.301
28.965	17.215	1401.213	1078.088
29.980	17.347	1400.233	1078.079
30.994	17.339	1399.475	1077.346
32.009	17.410	1398.160	1076.690
33.023	17.433	1397.042	1075.878
34.038	17.274	1395.445	1073.550
35.053	17.311	1394.310	1072.816
36.067	17.197	1393.111	1071.075
37.082	17.272	1392.227	1070.773
38.096	17.287	1391.564	1070.264
39.111	17.195	1390.584	1068.838
40.126	17.306	1389.025	1068.245
41.140	17.031	1388.511	1066.024
42.155	16.977	1388.018	1065.214
43.169	16.973	1387.488	1064.687
44.184	16.966	1387.315	1064.417
45.199	16.959	1386.889	1063.955
46.213	16.971	1386.273	1063.464
47.228	17.167	1385.732	1064.179
48.242	17.191	1384.135	1063.006
49.257	17.129	1382.607	1061.352
50.271	17.072	1381.708	1060.213
51.286	17.258	1380.134	1060.074
52.301	17.268	1378.769	1058.991
53.315	17.187	1377.810	1057.659
54.330	17.032	1376.614	1055.686
55.344	16.936	1375.534	1054.166
56.359	17.029	1373.907	1053.405
57.374	17.111	1372.899	1053.045
58.388	16.955	1372.721	1051.848
59.403	16.858	1372.162	1050.724
60.417	16.811	1371.836	1050.088
61.432	16.804	1370.868	1049.213
62.447	16.725	1369.644	1047.694
63.461	16.640	1368.314	1046.056
64.476	16.784	1366.790	1045.692
65.490	16.738	1365.503	1044.330
66.505	16.742	1364.141	1043.223
67.520	16.762	1363.404	1042.688
68.534	16.777	1362.051	1041.656
69.549	16.809	1361.072	1041.011
70.563	16.773	1359.760	1039.693
71.578	16.726	1358.476	1038.328
72.593	16.693	1357.910	1037.604
73.607	16.592	1357.125	1036.292
74.622	16.601	1356.349	1035.666
75.636	16.722	1355.025	1035.300
76.651	16.782	1354.464	1035.145
77.666	16.677	1354.336	1034.317
78.680	16.768	1353.759	1034.341
79.695	16.859	1352.616	1033.930
80.709	16.841	1352.115	1033.348
81.724	16.955	1351.222	1033.268
82.739	17.051	1350.014	1032.838
83.753	17.092	1349.414	1032.538
84.768	17.088	1349.138	1032.210
85.782	17.272	1347.235	1031.778
86.797	17.234	1346.109	1030.594
87.812	17.171	1344.740	1029.072
88.826	17.091	1343.819	1027.795
89.841	17.195	1342.760	1027.522
90.855	17.244	1341.512	1026.771
91.870	17.241	1340.884	1026.182
92.884	17.391	1339.480	1025.920
93.899	17.279	1338.899	1024.710
94.914	17.394	1338.030	1024.644
95.928	17.332	1337.524	1023.793
96.943	17.213	1336.512	1022.216
97.957	17.273	1335.466	1021.686
98.972	17.310	1334.128	1020.795
99.987	17.222	1333.394	1019.611
101.001	17.227	1332.454	1018.831
102.016	17.285	1331.405	1018.287
103.030	17.278	1330.850	1017.732
104.045	17.247	1329.579	1016.482
105.060	17.166	1328.346	1014.969
106.074	16.962	1327.145	1012.741
107.089	16.778	1325.890	1010.596
108.103	16.661	1324.788	1008.969
109.118	16.823	1322.827	1008.352
110.133	16.852	1321.641	1007.531
111.147	16.922	1320.246	1006.797
112.162	16.906	1319.244	1005.848
113.176	16.821	1318.577	1004.743
114.191	16.921	1317.088	1004.111
115.206	16.950	1315.616	1003.076
116.220	17.024	1314.712	1002.731
117.235	17.013	1313.295	1001.502
118.249	16.930	1312.608	1000.400
119.264	16.917	1310.653	998.742
120.279	16.880	1309.887	997.851
121.293	16.921	1309.026	997.351
122.308	16.837	1307.808	995.842
123.322	16.715	1306.875	994.324
124.337	16.777	1305.726	993.726
125.352	16.774	1304.299	992.537
126.366	16.711	1303.719	991.636
127.381	16.735	1302.359	990.654
128.395	16.762	1301.432	990.022
129.410	16.765	1300.731	989.418
130.424	16.952	1299.718	989.648
131.439	16.920	1298.897	988.751
132.454	16.907	1298.286	988.121
133.468	16.981	1297.305	987.718
134.483	16.965	1296.944	987.261
135.497	16.973	1295.684	986.262
136.512	16.908	1294.514	984.906
137.527	17.061	1292.742	984.363
138.541	17.009	1291.750	983.218
139.556	17.061	1290.110	982.184
140.570	17.192	1289.359	982.281
141.585	17.220	1288.210	981.478
142.600	17.332	1287.116	981.209
143.614	17.357	1286.245	980.598
144.629	17.332	1284.887	979.334
145.643	17.302	1283.923	978.342
146.658	17.332	1282.153	977.079
147.673	17.147	1280.860	974.943
148.687	17.051	1279.953	973.617
149.702	16.950	1278.757	972.040
150.716	16.956	1277.393	970.955
151.731	17.056	1275.892	970.300
152.746	17.091	1274.970	969.709
153.760	17.052	1273.932	968.614
154.775	17.164	1273.059	968.504
155.789	17.254	1271.617	967.831
156.804	17.279	1270.408	966.967
157.819	17.260	1269.606	966.165
158.833	17.270	1268.798	965.521
159.848	17.423	1267.943	965.654
160.862	17.346	1266.961	964.382
161.877	17.268	1265.726	962.918
162.892	17.128	1264.300	960.952
163.906	17.039	1263.644	959.864
164.921	17.073	1262.544	959.138
165.935	17.198	1261.462	958.938
166.950	17.136	1260.922	958.095
167.964	17.240	1259.992	957.885
168.979	17.256	1259.192	957.284
169.994	17.185	1258.476	956.252
171.008	17.187	1257.906	955.748
172.023	17.310	1257.209	955.827
173.037	17.354	1256.539	955.477
174.052	17.445	1255.512	955.127
175.067	17.216	1254.147	952.717
176.081	17.238	1252.989	951.878
177.096	17.133	1252.157	950.573
178.110	17.232	1250.960	950.135
179.125	17.319	1249.447	949.384
180.140	17.251	1248.121	947.913
181.154	17.288	1247.581	947.626
182.169	17.385	1246.413	947.197
183.183	17.407	1245.367	946.442
184.198	17.484	1244.122	945.836
185.213	17.443	1243.075	944.730
186.227	17.418	1241.617	943.399
187.242	17.524	1240.852	943.326
188.256	17.553	1240.116	942.842
189.271	17.674	1238.852	942.464
190.286	17.544	1237.611	940.723
191.300	17.130	1237.395	938.188
192.315	17.074	1236.000	936.736
193.329	17.118	1235.457	936.483
194.344	17.200	1234.783	936.341
195.359	17.222	1234.069	935.838
196.373	17.441	1233.759	936.727
197.388	17.424	1233.517	936.366
198.402	17.671	1232.617	936.962
199.417	17.695	1232.050	936.575
200.432	17.833	1231.408	936.765
201.446	17.832	1230.521	936.000
202.461	17.913	1229.920	935.907
203.475	17.951	1228.310	934.803
204.490	17.764	1227.139	932.809
205.504	17.655	1226.034	931.292
206.519	17.633	1224.899	930.227
207.534	17.604	1223.736	929.102
208.548	17.692	1222.285	928.398
209.563	17.629	1222.013	927.767
210.577	17.631	1221.346	927.186
211.592	17.757	1220.163	926.896
212.607	17.951	1218.938	926.932
213.621	17.844	1218.503	925.938
214.636	17.926	1217.134	925.260
215.650	17.946	1216.599	924.883
216.665	17.830	1215.754	923.530
217.680	17.955	1214.821	923.417
218.694	18.101	1213.881	923.409
219.709	18.092	1213.222	922.776
220.723	18.010	1211.993	921.319
221.738	17.987	1211.375	920.640
222.753	18.006	1210.689	920.139
223.767	18.001	1210.091	919.581
224.782	18.078	1209.399	919.388
225.796	18.204	1208.656	919.419
226.811	18.100	1208.015	918.292
227.826	17.917	1207.490	916.826
228.840	17.938	1206.581	916.169
229.855	18.007	1205.712	915.796
230.869	18.022	1204.829	915.123
231.884	18.000	1203.990	914.292
232.899	17.900	1203.266	913.126
233.913	17.808	1202.196	911.741
234.928	17.776	1201.566	911.012
235.942	17.879	1200.904	910.975
236.957	17.798	1200.144	909.887
237.972	17.829	1199.790	909.704
238.986	17.937	1198.587	909.287
240.001	17.940	1197.887	908.692
241.015	17.994	1197.188	908.370
242.030	18.051	1196.217	907.852
243.045	18.099	1195.539	907.514
244.059	18.090	1194.630	906.694
245.074	18.089	1194.016	906.147
246.088	18.137	1193.261	905.748
247.103	18.250	1192.315	905.548
248.117	18.328	1191.691	905.402
249.132	18.347	1191.313	905.139
250.147	18.558	1190.730	905.726
251.161	18.505	1190.086	904.879
252.176	18.641	1189.027	904.709
253.190	18.715	1188.306	904.472
254.205	18.729	1188.023	904.250
255.220	18.782	1187.462	904.020
256.234	18.743	1186.294	902.846
257.249	18.779	1185.776	902.564
258.263	18.744	1185.417	902.029
259.278	18.840	1184.348	901.637
260.293	18.706	1184.334	900.844
261.307	18.757	1183.400	900.322
262.322	18.852	1182.593	900.124
263.336	18.895	1182.376	900.103
264.351	18.826	1181.761	899.194
265.366	18.832	1180.980	898.555
266.380	18.839	1179.987	897.756
267.395	18.861	1179.216	897.202
268.409	18.805	1178.427	896.233
269.424	18.791	1177.714	895.538
270.439	18.726	1177.140	894.682
271.453	18.748	1176.078	893.909
272.468	18.726	1175.110	892.981
273.482	18.690	1174.401	892.174
274.497	18.765	1173.765	892.002
275.512	18.753	1173.151	891.398
276.526	18.744	1172.314	890.637
277.541	18.832	1171.712	890.556
278.555	18.768	1171.143	889.714
279.570	18.890	1170.174	889.531
280.585	18.955	1169.550	889.314
281.599	19.042	1168.417	888.822
282.614	18.964	1167.363	887.536
283.628	18.935	1166.408	886.585
284.643	18.838	1165.683	885.455
285.657	18.913	1164.607	884.945
286.672	18.965	1163.402	884.217
287.687	18.910	1163.159	883.674
288.701	18.919	1162.179	882.895
289.716	19.028	1161.276	882.690
290.730	18.971	1160.813	881.970
291.745	19.049	1159.886	881.587
292.760	18.883	1159.673	880.496
293.774	19.004	1158.963	880.499
294.789	19.197	1158.235	880.853
295.803	19.283	1157.276	880.486
296.818	19.119	1156.462	878.950
297.833	19.063	1155.378	877.763
298.847	19.066	1154.915	877.353
299.862	18.946	1154.272	876.172
300.876	19.098	1153.568	876.336
301.891	19.238	1152.763	876.357
302.906	19.360	1151.910	876.253
303.920	19.256	1151.796	875.559
304.935	19.427	1151.074	875.801
305.949	19.414	1150.260	875.038
306.964	19.492	1149.733	874.958
307.979	19.427	1148.629	873.708
308.993	19.392	1148.280	873.189
310.008	19.307	1147.551	872.130
311.022	19.406	1146.399	871.674
312.037	19.389	1145.653	870.944
313.052	19.285	1144.422	869.407
314.066	19.299	1143.607	868.784
315.081	19.232	1142.816	867.767
316.095	19.148	1141.680	866.406
317.110	19.286	1141.268	866.710
318.125	19.255	1140.723	866.064
319.139	19.251	1139.877	865.325
320.154	19.201	1139.161	864.454
321.168	19.232	1138.638	864.136
322.183	19.361	1138.007	864.224
323.197	19.298	1137.360	863.346
324.212	19.358	1136.508	862.920
325.227	19.327	1136.177	862.437
326.241	19.357	1135.341	861.877
327.256	19.369	1134.290	861.063
328.270	19.309	1133.348	859.971
329.285	19.321	1132.508	859.320
330.300	19.378	1131.503	858.763
331.314	19.302	1130.787	857.767
332.329	19.389	1130.087	857.591
333.343	19.381	1129.040	856.683
334.358	19.519	1128.132	856.599
335.373	19.562	1127.504	856.263
336.387	19.578	1126.847	855.768
337.402	19.535	1126.133	854.933
338.416	19.530	1125.488	854.346
339.431	19.595	1124.632	853.944
340.446	19.662	1123.979	853.701
341.460	19.837	1123.360	854.020
342.475	19.788	1122.417	852.984
343.489	19.813	1121.971	852.695
344.504	19.994	1120.440	852.347
345.519	19.933	1120.046	851.674
346.533	20.002	1118.998	851.136
347.548	19.970	1118.671	850.659
348.562	19.970	1117.510	849.698
349.577	19.931	1116.271	848.492
350.592	19.795	1115.907	847.473
351.606	19.780	1115.253	846.828
352.621	19.777	1113.869	845.688
353.635	19.750	1113.698	845.351
354.650	19.873	1112.510	844.973
355.665	19.674	1112.432	843.871
356.679	19.849	1111.841	844.199
357.694	19.887	1110.992	843.664
358.708	19.893	1110.548	843.284
359.723	19.938	1110.058	843.055
360.738	20.016	1109.069	842.611
361.752	19.892	1108.683	841.639
362.767	19.886	1108.395	841.314
363.781	20.028	1107.297	841.097
364.796	19.982	1107.217	840.737
365.810	20.082	1106.237	840.405
366.825	20.237	1105.842	840.783
367.840	20.258	1105.330	840.421
368.854	20.282	1104.769	840.034
369.869	20.283	1103.983	839.367
370.883	20.281	1102.963	838.511
371.898	20.220	1101.900	837.331
372.913	20.313	1101.246	837.208
373.927	20.353	1100.614	836.848
374.942	20.406	1100.354	836.834
375.956	20.320	1099.769	835.898
376.971	20.299	1099.679	835.654
377.986	20.292	1099.114	835.116
379.000	20.392	1098.284	834.893
380.015	20.338	1097.938	834.299
381.029	20.590	1096.911	834.656
382.044	20.462	1096.580	833.713
383.059	20.470	1095.667	832.985
384.073	20.429	1094.579	831.888
385.088	20.568	1093.941	831.994
386.102	20.607	1092.643	831.117
387.117	20.396	1092.038	829.578
388.132	20.254	1090.897	827.960
389.146	20.375	1090.322	828.026
390.161	20.251	1089.635	826.841
391.175	20.243	1088.612	825.954
392.190	20.348	1088.116	826.002
393.205	20.611	1087.151	826.448
394.219	20.546	1086.296	825.416
395.234	20.387	1085.718	824.150
396.248	20.477	1084.422	823.520
397.263	20.354	1083.239	821.967
398.278	20.385	1082.633	821.581
399.292	20.355	1082.124	820.978
400.307	20.225	1080.956	819.407
401.321	20.406	1080.377	819.748
402.336	20.245	1080.296	818.858
403.350	20.390	1078.950	818.446
404.365	20.369	1078.315	817.793
405.380	20.456	1077.744	817.700
406.394	20.539	1076.520	817.085
407.409	20.652	1076.390	817.447
408.423	20.624	1075.737	816.747
409.438	20.726	1074.828	816.465
410.453	20.863	1074.131	816.502
411.467	20.696	1073.765	815.369
412.482	20.877	1072.754	815.380
413.496	20.928	1072.298	815.199
414.511	20.952	1071.651	814.745
415.526	21.150	1070.778	814.936
416.540	21.056	1070.878	814.500
417.555	21.041	1070.492	814.066
418.569	21.049	1069.606	813.357
419.584	20.996	1069.263	812.777
420.599	21.034	1068.105	811.998
421.613	150.419	1401.095	1782.951
422.628	138.502	1449.637	1783.054
