DTS Sentinel unit serial number:	SN413079Multiplexer serial number:	ORYXHardware model number:	OX4-SRSoftware version number:	ORYX F/W v4.00 Oryx Data Collector v3.7.2.0data status	okinstallation	princeton_trtdifferential loss correction	single-endedforward channel	channel 2reverse channel	N/Adate	2019/09/11time	22:17:11forward acquisition time	60.00reverse acquisition time	0.00gamma	496.2192k internal	0.2324k external	0.2324temperature offset calibration	1.0071default loss term (dB/km)	0.3790temperature slope calibration	1.0000multiplexer offset coefficient	1.0000multiplexer slope coefficient	1.0000fibre end	0.00T internal ref (°C)	35.27T ext. ref 1 (°C)	1.76T ext. ref 2 (°C)	29.67length (m)	temperature (°C)	Stokes	anti-Stokes-747.200	-133.200	-0.130	-0.017
-746.185	49.808	-0.086	0.082
-745.171	-200.000	0.022	0.211
-744.156	800.000	-0.084	0.319
-743.142	-75.945	-0.456	-0.163
-742.127	-200.000	-0.006	0.044
-741.112	800.000	-0.007	0.030
-740.098	-92.978	0.207	-0.058
-739.083	-120.711	0.574	-0.098
-738.069	374.433	-0.082	0.169
-737.054	221.220	0.108	-0.174
-736.039	-68.390	-0.127	-0.050
-735.025	-170.527	0.524	-0.018
-734.010	-101.282	0.321	-0.079
-732.996	-134.378	-0.376	0.047
-731.981	-114.813	-0.105	0.020
-730.966	177.604	-0.160	0.235
-729.952	-200.000	0.003	-0.126
-728.937	366.784	-0.100	-0.204
-727.923	59.943	-0.173	0.172
-726.908	-124.706	-0.245	-0.038
-725.894	-200.000	0.039	0.280
-724.879	-200.000	-0.012	-0.173
-723.864	-200.000	0.023	0.394
-722.850	5.108	-0.141	-0.104
-721.835	424.097	0.067	-0.146
-720.821	-200.000	0.006	-0.147
-719.806	153.189	-0.172	-0.238
-718.791	525.334	-0.142	-0.338
-717.777	88.484	-0.213	-0.239
-716.762	-110.575	-0.441	0.092
-715.748	-72.791	0.343	-0.127
-714.733	-53.712	0.137	0.063
-713.718	-172.663	0.295	-0.009
-712.704	-200.000	-0.055	-0.260
-711.689	342.660	-0.074	-0.146
-710.675	555.009	-0.065	0.158
-709.660	-200.000	0.002	-0.035
-708.645	-3.242	-0.252	0.177
-707.631	257.121	0.219	0.380
-706.616	-117.977	-0.418	-0.075
-705.602	98.834	-0.316	-0.368
-704.587	-78.300	-0.233	-0.081
-703.572	70.847	0.042	-0.044
-702.558	-158.528	-0.467	-0.027
-701.543	29.484	0.342	-0.293
-700.529	-200.000	0.079	-0.412
-699.514	800.000	0.107	-0.317
-698.499	201.748	0.170	0.265
-697.485	262.213	0.116	-0.203
-696.470	-82.954	-0.068	0.022
-695.456	522.431	-0.069	0.164
-694.441	-153.937	0.056	0.004
-693.426	-200.000	-0.100	0.479
-692.412	88.415	-0.028	0.032
-691.397	-48.629	0.228	0.110
-690.383	-154.659	0.203	0.014
-689.368	-190.611	-0.069	-0.001
-688.354	120.995	-0.159	0.199
-687.339	800.000	-0.046	-0.163
-686.324	-158.222	-0.118	0.007
-685.310	-75.547	0.205	0.074
-684.295	-51.032	-0.363	-0.172
-683.281	-106.082	-0.254	0.058
-682.266	800.000	-0.069	0.211
-681.251	-126.078	0.064	0.010
-680.237	-200.000	0.000	-0.216
-679.222	-48.866	-0.275	-0.133
-678.208	101.953	0.125	0.147
-677.193	-200.000	-0.004	-0.054
-676.178	-88.911	0.252	0.075
-675.164	-200.000	0.003	-0.018
-674.149	-145.441	0.040	-0.004
-673.135	44.259	-0.197	0.182
-672.120	-0.342	0.039	-0.028
-671.105	-161.580	0.144	-0.007
-670.091	-38.236	-0.261	-0.139
-669.076	800.000	0.059	0.182
-668.062	-44.793	0.185	0.093
-667.047	-200.000	-0.007	-0.104
-666.032	417.409	-0.167	0.358
-665.018	-200.000	-0.006	-0.042
-664.003	26.459	0.397	0.334
-662.989	-100.952	0.245	-0.061
-661.974	52.892	0.130	0.125
-660.959	800.000	0.034	-0.127
-659.945	255.965	-0.096	0.166
-658.930	655.376	-0.030	0.078
-657.916	-200.000	-0.021	0.100
-656.901	800.000	0.156	0.437
-655.886	-85.753	-0.175	0.055
-654.872	-84.542	-0.115	-0.036
-653.857	-0.866	0.121	0.086
-652.843	-200.000	0.028	-0.176
-651.828	-200.000	0.001	0.084
-650.814	-8.826	0.101	0.068
-649.799	69.624	-0.182	-0.188
-648.784	585.823	0.080	-0.198
-647.770	-200.000	-0.039	0.231
-646.755	77.611	0.186	-0.199
-645.741	192.902	0.121	0.184
-644.726	-38.633	-0.265	0.141
-643.711	-119.666	0.155	-0.027
-642.697	-144.871	-0.221	-0.020
-641.682	800.000	0.051	-0.197
-640.668	-141.544	-0.212	0.021
-639.653	-88.392	0.108	0.032
-638.638	-200.000	-0.029	-0.187
-637.624	800.000	-0.029	0.093
-636.609	738.404	0.083	0.223
-635.595	140.842	0.114	-0.152
-634.580	-200.000	-0.027	-0.156
-633.565	-200.000	-0.009	-0.047
-632.551	653.723	0.056	-0.143
-631.536	24.120	-0.291	0.241
-630.522	-119.278	0.285	-0.050
-629.507	-80.195	0.415	0.140
-628.492	237.356	-0.127	-0.211
-627.478	63.695	-0.182	-0.183
-626.463	800.000	-0.045	-0.163
-625.449	749.500	-0.078	-0.211
-624.434	-200.000	0.052	0.383
-623.419	469.603	-0.057	0.129
-622.405	46.121	-0.211	0.196
-621.390	800.000	0.052	0.226
-620.376	-79.316	-0.155	0.053
-619.361	-51.614	-0.145	0.068
-618.346	-200.000	0.042	-0.201
-617.332	-200.000	-0.029	0.281
-616.317	-130.455	-0.313	-0.043
-615.303	800.000	-0.134	-0.525
-614.288	-57.572	-0.178	-0.078
-613.273	-90.522	0.075	-0.022
-612.259	800.000	0.054	-0.190
-611.244	-28.857	0.095	0.055
-610.230	37.149	0.145	0.129
-609.215	-200.000	-0.008	-0.257
-608.201	-200.000	0.010	-0.098
-607.186	172.699	-0.129	-0.186
-606.171	-200.000	0.012	0.304
-605.157	32.978	-0.074	-0.064
-604.142	-200.000	0.022	0.103
-603.128	5.883	-0.214	0.159
-602.113	537.869	-0.139	-0.331
-601.098	471.841	-0.018	-0.041
-600.084	-200.000	-0.011	-0.139
-599.069	-27.224	0.247	-0.144
-598.055	526.417	-0.064	-0.151
-597.040	-57.758	0.115	-0.051
-596.025	800.000	-0.048	0.191
-595.011	-187.546	0.120	0.002
-593.996	-46.899	0.294	0.144
-592.982	-200.000	-0.003	0.383
-591.967	-200.000	-0.046	0.274
-590.952	800.000	-0.137	-0.395
-589.938	168.815	-0.089	0.128
-588.923	21.347	0.119	0.097
-587.909	158.281	-0.234	0.325
-586.894	-127.796	0.309	-0.045
-585.879	263.411	0.078	0.136
-584.865	704.118	0.031	-0.081
-583.850	800.000	-0.063	-0.266
-582.836	199.483	0.226	-0.348
-581.821	497.171	-0.106	-0.244
-580.806	-200.000	0.001	0.113
-579.792	800.000	0.063	-0.254
-578.777	-200.000	0.009	0.043
-577.763	0.640	-0.191	-0.137
-576.748	59.721	-0.210	-0.208
-575.733	-200.000	-0.044	0.201
-574.719	546.073	-0.104	-0.250
-573.704	27.276	0.068	-0.058
-572.690	-78.245	0.101	-0.035
-571.675	-200.000	-0.054	0.264
-570.661	-200.000	-0.026	0.325
-569.646	76.207	-0.217	0.230
-568.631	-200.000	-0.041	0.376
-567.617	-81.261	-0.243	0.081
-566.602	-200.000	-0.018	-0.157
-565.588	-38.614	-0.239	0.126
-564.573	8.085	-0.056	-0.042
-563.558	-193.768	-0.211	-0.002
-562.544	299.661	0.070	0.130
-561.529	-200.000	-0.011	0.328
-560.515	-200.000	-0.057	-0.268
-559.500	-78.619	0.244	-0.084
-558.485	188.021	-0.145	-0.217
-557.471	-168.008	-0.167	-0.007
-556.456	-145.511	-0.285	0.026
-555.442	497.407	-0.043	-0.100
-554.427	95.173	-0.083	-0.095
-553.412	-43.280	0.023	0.012
-552.398	547.645	-0.092	0.219
-551.383	-160.439	-0.160	-0.009
-550.369	-200.000	0.004	-0.123
-549.354	-200.000	0.048	-0.411
-548.339	-62.800	0.237	-0.098
-547.325	182.993	0.213	0.315
-546.310	-200.000	0.016	-0.080
-545.296	483.282	0.048	-0.110
-544.281	289.257	-0.116	0.211
-543.266	411.069	0.065	-0.138
-542.252	181.979	0.021	-0.031
-541.237	426.597	-0.116	-0.251
-540.223	254.761	-0.149	-0.255
-539.208	450.461	-0.094	0.208
-538.193	-179.532	0.399	0.009
-537.179	-200.000	0.030	-0.165
-536.164	6.745	0.136	0.101
-535.150	-65.122	0.220	0.089
-534.135	118.518	0.136	0.168
-533.121	237.212	0.126	0.210
-532.106	-82.224	-0.290	0.095
-531.091	17.586	0.265	-0.211
-530.077	209.055	0.058	0.090
-529.062	-200.000	0.035	0.310
-528.048	800.000	-0.025	0.091
-527.033	10.860	-0.348	-0.266
-526.018	-23.973	-0.304	0.182
-525.004	-88.595	0.124	-0.037
-523.989	-29.144	-0.144	-0.083
-522.975	123.241	-0.172	0.216
-521.960	79.592	-0.046	-0.050
-520.945	-146.555	0.121	-0.011
-519.931	-200.000	-0.022	-0.158
-518.916	-82.150	0.366	-0.119
-517.902	259.445	-0.078	0.135
-516.887	-200.000	-0.007	0.032
-515.872	-133.254	0.284	-0.036
-514.858	-114.168	0.201	-0.039
-513.843	70.126	-0.141	-0.146
-512.829	800.000	0.071	0.260
-511.814	318.953	-0.077	0.146
-510.799	-200.000	0.010	-0.053
-509.785	-200.000	0.032	-0.150
-508.770	163.244	0.190	-0.267
-507.756	-26.112	-0.052	0.031
-506.741	412.886	-0.106	0.225
-505.726	-86.869	-0.082	-0.025
-504.712	-76.276	-0.062	-0.022
-503.697	80.428	0.115	-0.124
-502.683	-41.029	-0.101	0.052
-501.668	-121.548	0.242	0.040
-500.653	44.343	0.059	-0.054
-499.639	362.551	-0.020	-0.040
-498.624	-131.615	0.274	0.036
-497.610	785.836	0.086	0.237
-496.595	-10.716	-0.171	-0.113
-495.581	190.482	-0.053	0.079
-494.566	214.551	-0.213	-0.336
-493.551	9.088	-0.157	-0.118
-492.537	282.217	0.091	-0.163
-491.522	117.649	-0.140	0.172
-490.508	800.000	0.038	0.112
-489.493	337.476	-0.062	-0.121
-488.478	-200.000	0.005	0.033
-487.464	-87.984	0.551	-0.166
-486.449	-200.000	-0.016	-0.225
-485.435	108.744	0.132	-0.157
-484.420	-153.129	0.266	0.019
-483.405	-200.000	0.044	-0.254
-482.391	129.029	-0.054	-0.069
-481.376	800.000	0.044	-0.189
-480.362	-37.594	0.149	-0.079
-479.347	-200.000	0.017	0.142
-478.332	800.000	0.076	0.235
-477.318	208.937	0.148	0.232
-476.303	-154.342	-0.192	0.013
-475.289	-120.650	0.390	0.066
-474.274	80.815	-0.286	0.308
-473.259	-169.674	-0.221	0.008
-472.245	-173.613	-0.085	-0.003
-471.230	-200.000	0.027	0.132
-470.216	82.969	0.116	0.126
-469.201	20.460	0.093	0.075
-468.186	57.269	-0.123	0.120
-467.172	-58.737	-0.310	0.134
-466.157	-115.519	-0.450	0.085
-465.143	-48.073	-0.323	0.156
-464.128	-200.000	-0.007	-0.037
-463.113	-46.385	-0.106	-0.052
-462.099	266.598	0.131	0.228
-461.084	-10.129	0.097	-0.064
-460.070	-129.024	0.135	-0.019
-459.055	5.679	0.112	-0.082
-458.040	-93.700	-0.196	-0.054
-457.026	-200.000	0.028	-0.279
-456.011	-72.692	0.212	-0.078
-454.997	281.936	0.036	-0.065
-453.982	-97.418	0.084	0.022
-452.968	-200.000	0.018	-0.287
-451.953	-151.829	0.255	-0.019
-450.938	382.376	-0.079	-0.161
-449.924	369.440	-0.079	0.159
-448.909	-107.077	0.147	0.032
-447.895	-60.641	0.121	0.051
-446.880	-200.000	0.009	0.095
-445.865	0.120	-0.126	0.090
-444.851	41.236	0.199	0.180
-443.836	800.000	-0.056	0.222
-442.822	-106.103	-0.406	-0.091
-441.807	-194.089	0.164	-0.001
-440.792	194.007	0.180	0.272
-439.778	-26.994	-0.229	-0.133
-438.763	-107.470	-0.486	-0.106
-437.749	137.574	0.076	-0.099
-436.734	-200.000	0.009	-0.048
-435.719	228.509	0.239	-0.388
-434.705	-62.587	0.024	0.010
-433.690	-52.212	-0.091	-0.042
-432.676	-195.449	-0.279	0.002
-431.661	-200.000	0.016	-0.151
-430.646	-83.157	0.419	-0.134
-429.632	50.342	-0.190	-0.179
-428.617	-200.000	-0.033	0.343
-427.603	158.422	-0.281	0.388
-426.588	-106.786	0.239	-0.053
-425.573	-4.960	0.084	-0.057
-424.559	-62.101	-0.218	-0.091
-423.544	201.346	-0.112	-0.172
-422.530	-200.000	-0.012	-0.291
-421.515	-1.183	0.336	0.237
-420.500	-86.191	0.129	-0.040
-419.486	-200.000	-0.016	0.125
-418.471	-124.900	0.252	0.039
-417.457	-120.036	-0.237	-0.040
-416.442	-134.346	-0.386	-0.047
-415.428	234.292	0.083	-0.137
-414.413	800.000	0.021	-0.087
-413.398	-102.115	-0.220	-0.053
-412.384	-126.982	-0.048	-0.007
-411.369	800.000	0.126	-0.526
-410.355	22.454	0.218	-0.178
-409.340	-200.000	-0.032	-0.259
-408.325	-141.665	0.126	-0.013
-407.311	274.915	0.159	-0.281
-406.296	800.000	0.041	0.130
-405.282	-5.282	-0.141	-0.096
-404.267	-195.613	-0.249	-0.002
-403.252	-20.554	0.241	-0.148
-402.238	196.575	0.085	-0.129
-401.223	-35.638	-0.077	-0.042
-400.209	40.812	-0.194	0.175
-399.194	-101.281	0.103	0.025
-398.179	-200.000	-0.011	-0.376
-397.165	197.697	0.091	0.139
-396.150	800.000	0.036	-0.101
-395.136	183.432	-0.090	0.133
-394.121	-47.101	-0.227	-0.110
-393.106	-200.000	0.014	0.324
-392.092	82.304	0.109	0.118
-391.077	176.768	-0.090	-0.130
-390.063	321.329	0.044	0.084
-389.048	-147.524	0.364	-0.031
-388.033	294.939	0.062	0.113
-387.019	-200.000	-0.050	-0.259
-386.004	-173.672	0.169	0.005
-384.990	304.256	-0.087	0.161
-383.975	9.688	-0.101	0.076
-382.960	-69.866	-0.421	0.160
-381.946	29.597	0.156	-0.132
-380.931	-119.188	0.095	0.016
-379.917	-122.131	-0.049	-0.008
-378.902	-200.000	-0.026	-0.168
-377.888	83.584	0.086	0.093
-376.873	-56.943	-0.309	0.136
-375.858	800.000	-0.056	-0.231
-374.844	90.455	0.200	0.223
-373.829	-200.000	-0.048	0.219
-372.815	-200.000	0.042	0.238
-371.800	137.433	0.182	-0.236
-370.785	-72.022	0.254	-0.094
-369.771	-162.934	-0.427	-0.021
-368.756	-50.736	-0.510	0.239
-367.742	515.196	-0.073	0.168
-366.727	-128.165	0.261	-0.037
-365.712	-108.082	0.305	0.066
-364.698	90.689	-0.126	-0.140
-363.683	-4.879	-0.080	0.055
-362.669	-193.023	0.218	-0.002
-361.654	800.000	0.129	0.414
-360.639	73.886	-0.295	-0.307
-359.625	269.249	-0.131	0.228
-358.610	-159.358	-0.210	0.012
-357.596	-49.421	0.153	-0.073
-356.581	-200.000	-0.010	-0.301
-355.566	-115.868	-0.102	-0.019
-354.552	12.755	0.263	0.202
-353.537	-200.000	-0.020	0.093
-352.523	289.621	0.089	0.161
-351.508	59.146	-0.193	0.189
-350.493	800.000	0.066	0.192
-349.479	-157.420	-0.157	-0.009
-348.464	196.812	0.288	0.436
-347.450	784.483	0.114	0.311
-346.435	-46.119	-0.350	-0.171
-345.420	131.536	-0.186	0.237
-344.406	371.209	0.110	-0.221
-343.391	171.469	0.143	0.204
-342.377	174.286	0.186	-0.267
-341.362	-31.411	0.243	0.136
-340.348	-200.000	-0.017	0.146
-339.333	-45.965	-0.255	0.125
-338.318	800.000	-0.063	0.217
-337.304	-200.000	-0.003	-0.061
-336.289	130.165	0.109	0.139
-335.275	800.000	0.059	0.250
-334.260	-200.000	-0.008	-0.142
-333.245	269.150	-0.085	-0.148
-332.231	-124.681	0.196	-0.030
-331.216	-200.000	0.034	-0.230
-330.202	-56.837	-0.170	0.075
-329.187	-68.275	-0.116	0.045
-328.172	-101.724	-0.271	-0.065
-327.158	-99.601	0.239	-0.060
-326.143	52.256	0.089	0.084
-325.129	-59.125	-0.345	0.148
-324.114	-123.617	0.290	-0.046
-323.099	154.521	0.036	0.050
-322.085	-200.000	0.005	0.066
-321.070	-200.000	-0.023	-0.493
-320.056	-173.984	-0.122	-0.004
-319.041	-4.902	0.293	0.201
-318.026	-38.379	-0.193	-0.101
-317.012	-150.543	0.207	0.016
-315.997	183.077	0.152	0.222
-314.983	267.437	-0.160	0.277
-313.968	-145.783	0.118	-0.010
-312.953	104.571	-0.155	0.181
-311.939	-21.103	0.133	-0.081
-310.924	800.000	-0.057	0.223
-309.910	-18.130	0.099	0.061
-308.895	544.160	-0.066	-0.156
-307.880	-84.991	0.297	-0.092
-306.866	-200.000	-0.017	-0.186
-305.851	419.648	0.076	0.161
-304.837	15.980	0.193	-0.151
-303.822	-200.000	0.044	-0.217
-302.807	54.311	0.095	-0.090
-301.793	-38.245	-0.063	-0.033
-300.778	-140.002	-0.078	0.008
-299.764	800.000	0.024	-0.097
-298.749	-66.559	-0.298	-0.117
-297.735	-200.000	0.095	-0.417
-296.720	800.000	-0.014	-0.040
-295.705	95.974	0.069	0.079
-294.691	-25.826	-0.162	-0.095
-293.676	-92.223	-0.169	-0.047
-292.662	-200.000	0.016	-0.126
-291.647	42.647	-0.151	-0.136
-290.632	-106.236	-0.212	-0.047
-289.618	111.691	-0.197	0.235
-288.603	-24.180	0.021	-0.013
-287.589	-200.000	0.009	0.081
-286.574	-200.000	0.024	0.145
-285.559	34.625	-0.202	-0.175
-284.545	765.557	0.041	0.111
-283.530	149.543	0.030	0.041
-282.516	104.664	0.239	0.280
-281.501	271.865	0.105	0.184
-280.486	21.132	0.402	-0.324
-279.472	82.509	0.145	0.156
-278.457	-138.824	-0.236	0.025
-277.443	-135.919	-0.135	0.016
-276.428	-146.266	-0.136	0.012
-275.413	-93.273	-0.229	0.063
-274.399	-200.000	0.017	0.096
-273.384	-20.461	0.192	-0.117
-272.370	-103.439	0.214	0.050
-271.355	-150.617	-0.094	-0.007
-270.340	-11.705	0.262	-0.171
-269.326	-148.879	-0.385	0.031
-268.311	-55.832	0.075	-0.033
-267.297	-60.267	0.235	-0.099
-266.282	800.000	0.068	0.242
-265.267	-119.842	0.253	-0.043
-264.253	-65.846	0.083	0.033
-263.238	72.387	0.162	-0.167
-262.224	-200.000	0.029	0.263
-261.209	-161.810	-0.233	0.012
-260.195	74.828	-0.258	-0.269
-259.180	267.187	-0.072	0.125
-258.165	27.687	0.155	0.129
-257.151	-179.753	-0.521	-0.011
-256.136	-97.973	-0.045	-0.012
-255.122	119.269	-0.207	-0.253
-254.107	-200.000	0.026	0.220
-253.092	-59.379	-0.252	0.107
-252.078	-200.000	-0.020	-0.263
-251.063	130.662	-0.024	0.031
-250.049	32.164	0.179	0.153
-249.034	85.361	0.158	0.171
-248.019	-200.000	0.004	-0.141
-247.005	140.480	0.171	-0.223
-245.990	156.017	0.062	-0.084
-244.976	-4.455	-0.236	0.162
-243.961	-200.000	-0.019	-0.162
-242.946	-119.397	0.306	0.053
-241.932	51.446	-0.169	0.159
-240.917	-87.840	0.266	-0.079
-239.903	-143.545	0.137	-0.013
-238.888	800.000	0.065	-0.193
-237.873	-38.154	0.143	0.075
-236.859	387.305	0.136	0.278
-235.844	273.996	0.021	0.036
-234.830	800.000	0.076	-0.305
-233.815	-175.024	0.155	0.004
-232.800	2.107	0.139	0.099
-231.786	356.193	0.097	-0.192
-230.771	360.998	0.070	-0.138
-229.757	-23.487	-0.261	-0.155
-228.742	-100.331	0.473	-0.116
-227.727	-146.048	0.178	0.016
-226.713	2.619	0.039	-0.028
-225.698	-200.000	0.020	0.470
-224.684	-43.996	-0.252	-0.125
-223.669	-200.000	-0.002	-0.077
-222.655	-66.880	-0.010	-0.004
-221.640	771.807	-0.146	-0.394
-220.625	97.703	-0.050	-0.057
-219.611	-60.963	0.204	-0.085
-218.596	-15.278	0.184	-0.116
-217.582	699.714	-0.058	0.150
-216.567	177.265	-0.103	0.148
-215.552	198.081	-0.094	0.142
-214.538	-200.000	0.033	-0.266
-213.523	-14.876	-0.044	-0.028
-212.509	-112.639	-0.632	0.124
-211.494	-130.225	0.241	-0.032
-210.479	38.762	0.111	0.098
-209.465	-200.000	0.028	-0.221
-208.450	86.885	-0.243	0.265
-207.436	-100.468	-0.426	-0.104
-206.421	-78.755	0.382	0.129
-205.406	-125.753	0.246	-0.037
-204.392	-141.097	-0.456	0.046
-203.377	561.653	0.128	0.306
-202.363	-51.552	0.110	-0.051
-201.348	-38.520	0.119	0.062
-200.333	800.000	0.053	0.159
-199.319	-200.000	0.030	0.141
-198.304	-31.741	-0.191	-0.106
-197.290	-200.000	-0.185	-0.000
-196.275	-23.976	0.105	0.062
-195.260	-61.444	-0.270	-0.112
-194.246	730.816	0.088	-0.232
-193.231	-152.607	0.259	-0.018
-192.217	800.000	0.059	0.243
-191.202	-200.000	-0.071	0.316
-190.187	559.249	-0.028	0.068
-189.173	-200.000	-0.031	0.203
-188.158	216.565	0.105	0.165
-187.144	-200.000	0.005	0.075
-186.129	131.438	0.122	0.155
-185.114	364.198	0.081	-0.161
-184.100	-64.345	0.230	0.092
-183.085	-34.843	-0.228	0.123
-182.071	-43.967	-0.063	-0.031
-181.056	-200.000	-0.003	0.190
-180.042	-105.257	0.135	-0.030
-179.027	-42.217	0.294	0.148
-178.012	-118.756	0.091	-0.016
-176.998	41.232	-0.069	0.062
-175.983	-85.420	-0.241	-0.074
-174.969	65.727	-0.073	-0.073
-173.954	-117.002	-0.168	-0.030
-172.939	156.700	0.127	-0.173
-171.925	76.414	0.257	0.268
-170.910	-17.238	-0.095	-0.059
-169.896	800.000	0.112	0.310
-168.881	67.620	-0.186	-0.187
-167.866	277.193	-0.079	-0.139
-166.852	-135.573	-0.422	-0.050
-165.837	472.759	-0.023	-0.051
-164.823	39.885	-0.171	-0.152
-163.808	75.655	-0.172	-0.179
-162.793	6.691	0.285	0.209
-161.779	8.185	0.173	0.128
-160.764	-144.647	0.007	-0.001
-159.750	-100.172	-0.068	0.017
-158.735	-200.000	-0.005	-0.178
-157.720	-200.000	0.005	-0.099
-156.706	-93.620	0.082	-0.022
-155.691	415.731	0.142	-0.299
-154.677	-93.497	-0.175	0.048
-153.662	-106.319	0.607	0.134
-152.647	800.000	-0.044	-0.132
-151.633	369.435	0.180	0.358
-150.618	294.600	-0.148	-0.266
-149.604	-200.000	0.021	0.109
-148.589	57.271	-0.098	-0.094
-147.574	-82.595	0.205	0.065
-146.560	800.000	0.115	-0.373
-145.545	-124.347	0.169	0.026
-144.531	353.909	0.115	-0.224
-143.516	429.607	-0.179	0.382
-142.502	136.668	-0.051	-0.066
-141.487	-38.361	0.201	-0.105
-140.472	800.000	-0.059	-0.163
-139.458	56.270	-0.172	-0.165
-138.443	-80.867	0.058	-0.019
-137.429	-15.424	-0.189	-0.119
-136.414	800.000	0.104	0.308
-135.399	9.741	-0.207	0.155
-134.385	364.342	0.263	0.522
-133.370	800.000	-0.134	0.414
-132.356	800.000	0.077	0.251
-131.341	166.488	-0.187	0.261
-130.326	13.480	-0.065	-0.050
-129.312	-47.905	-0.077	-0.037
-128.297	-200.000	0.027	0.170
-127.283	111.557	0.391	-0.465
-126.268	535.507	0.129	-0.301
-125.253	-200.000	0.044	0.372
-124.239	-81.113	0.179	0.058
-123.224	114.819	0.041	-0.050
-122.210	356.078	-0.136	0.268
-121.195	638.798	-0.059	0.148
-120.180	98.936	0.052	-0.059
-119.166	-200.000	-0.042	0.383
-118.151	-200.000	0.031	-0.192
-117.137	-200.000	-0.034	0.282
-116.122	22.405	0.157	0.126
-115.107	239.306	-0.154	-0.252
-114.093	30.319	0.211	-0.178
-113.078	-200.000	-0.004	0.178
-112.064	-13.364	0.360	-0.230
-111.049	13.456	-0.047	-0.036
-110.034	60.038	-0.345	-0.335
-109.020	-200.000	0.035	0.207
-108.005	800.000	0.053	-0.187
-106.991	0.628	0.293	0.206
-105.976	-41.220	0.133	0.067
-104.962	445.157	-0.037	-0.081
-103.947	800.000	-0.155	-0.423
-102.932	194.628	0.131	0.195
-101.918	-23.858	0.202	0.119
-100.903	321.553	-0.150	-0.281
-99.889	800.000	0.063	0.218
-98.874	5.083	-0.264	-0.191
-97.859	800.000	-0.063	-0.246
-96.845	-200.000	-0.055	0.351
-95.830	18.765	-0.132	0.104
-94.816	780.781	-0.095	-0.255
-93.801	-200.000	-0.025	0.130
-92.786	65.091	0.349	0.347
-91.772	-74.923	0.318	0.112
-90.757	800.000	0.088	0.303
-89.743	119.400	-0.244	0.297
-88.728	214.745	0.064	0.099
-87.713	-200.000	0.036	-0.221
-86.699	-14.987	-0.155	-0.098
-85.684	211.470	0.139	-0.215
-84.670	742.139	0.031	0.081
-83.655	-21.504	0.280	0.168
-82.640	-15.317	-0.269	-0.169
-81.626	52.229	-0.078	-0.074
-80.611	-122.261	0.473	-0.076
-79.597	-168.816	0.261	-0.010
-78.582	155.791	-0.042	-0.057
-77.567	-51.720	-0.074	-0.034
-76.553	5.877	0.194	0.141
-75.538	-200.000	0.027	0.142
-74.524	-42.346	-0.107	0.054
-73.509	-12.725	0.226	-0.145
-72.494	391.902	0.148	0.301
-71.480	-5.722	0.135	-0.091
-70.465	-134.160	0.333	0.040
-69.451	-200.000	-0.041	0.499
-68.436	-5.129	0.241	-0.163
-67.422	225.530	0.151	0.241
-66.407	-6.026	0.247	-0.166
-65.392	46.402	-0.236	-0.215
-64.378	-200.000	0.050	0.256
-63.363	-200.000	0.001	0.434
-62.349	-200.000	0.043	0.440
-61.334	77.754	-0.699	-0.732
-60.319	83.613	0.488	0.523
-59.305	800.000	-0.319	-1.007
-58.290	149.640	0.704	0.938
-57.276	800.000	0.436	1.516
-56.261	-200.000	95.448	579.382
-55.246	575.392	1370.351	3287.009
-54.232	154.649	2586.351	3490.255
-53.217	111.250	2283.549	2703.259
-52.203	45.069	1901.084	1720.547
-51.188	38.610	1688.605	1479.604
-50.173	35.773	1643.312	1418.969
-49.159	53.903	1691.542	1596.576
-48.144	57.589	1709.922	1641.376
-47.130	38.379	1665.338	1457.266
-46.115	35.349	1650.594	1421.883
-45.100	35.120	1645.814	1416.019
-44.086	35.102	1643.060	1413.461
-43.071	35.098	1640.470	1411.148
-42.057	35.067	1638.403	1409.085
-41.042	35.037	1636.222	1406.934
-40.027	35.114	1633.722	1405.293
-39.013	35.126	1632.172	1403.990
-37.998	35.096	1630.592	1402.353
-36.984	35.189	1628.929	1401.549
-35.969	35.243	1627.795	1400.915
-34.954	35.260	1626.145	1399.565
-33.940	35.285	1624.468	1398.247
-32.925	35.356	1622.301	1396.845
-31.911	35.264	1620.721	1394.760
-30.896	35.254	1619.164	1393.286
-29.881	35.255	1617.894	1392.149
-28.867	35.197	1616.190	1390.208
-27.852	35.336	1614.121	1389.378
-26.838	35.290	1612.991	1388.016
-25.823	35.217	1611.642	1386.274
-24.809	35.327	1610.114	1385.696
-23.794	35.260	1608.989	1384.195
-22.779	35.157	1607.474	1382.091
-21.765	35.285	1605.255	1381.052
-20.750	35.324	1603.527	1379.791
-19.736	35.324	1602.211	1378.604
-18.721	35.393	1600.501	1377.569
-17.706	35.292	1599.149	1375.625
-16.692	35.301	1597.442	1374.173
-15.677	35.307	1596.322	1373.192
-14.663	35.269	1594.798	1371.560
-13.648	35.370	1593.487	1371.101
-12.633	35.316	1591.827	1369.230
-11.619	35.235	1590.984	1367.873
-10.604	35.369	1589.041	1367.100
-9.590	35.303	1587.793	1365.505
-8.575	35.226	1586.423	1363.720
-7.560	35.271	1585.212	1362.952
-6.546	35.381	1583.639	1362.322
-5.531	35.206	1583.496	1360.903
-4.517	35.264	1582.376	1360.296
-3.502	35.284	1581.097	1359.284
-2.487	35.324	1579.106	1357.801
-1.473	35.002	1568.292	1346.185
-0.458	32.303	1549.162	1310.928
0.556	28.809	1549.487	1279.620
1.571	26.441	1573.921	1282.907
2.586	25.997	1587.757	1290.893
3.600	23.102	1534.646	1227.547
4.615	13.061	1422.542	1072.838
5.629	3.750	1353.201	962.666
6.644	1.928	1344.931	945.408
7.659	1.771	1343.346	943.235
8.673	1.755	1341.939	942.065
9.688	1.607	1340.306	939.924
10.702	1.327	1337.342	936.035
11.717	5.104	1344.758	964.526
12.731	15.530	1364.571	1043.756
13.746	23.879	1378.054	1106.148
14.761	25.711	1380.335	1119.284
15.775	25.971	1380.195	1120.691
16.790	26.049	1379.928	1120.856
17.804	26.145	1379.376	1120.904
18.819	26.346	1378.900	1121.665
19.834	26.480	1377.998	1121.665
20.848	26.486	1377.817	1121.453
21.863	26.447	1376.926	1120.391
22.877	26.510	1375.737	1119.714
23.892	26.461	1375.416	1119.051
24.907	26.367	1374.594	1117.702
25.921	26.490	1373.040	1117.097
26.936	26.491	1372.003	1116.163
27.950	26.416	1371.383	1115.097
28.965	26.401	1369.916	1113.714
29.980	26.443	1368.558	1112.767
30.994	26.492	1367.160	1111.834
32.009	26.496	1366.412	1111.150
33.023	26.459	1365.515	1110.095
34.038	26.457	1364.200	1108.920
35.053	26.519	1363.239	1108.418
36.067	26.404	1362.403	1106.935
37.082	26.574	1361.062	1106.789
38.096	26.407	1360.467	1105.187
39.111	26.416	1359.511	1104.365
40.126	26.409	1359.156	1103.938
41.140	26.471	1358.762	1103.899
42.155	26.407	1358.055	1102.833
43.169	26.478	1358.104	1103.210
44.184	26.424	1357.946	1102.653
45.199	26.373	1357.713	1102.057
46.213	26.430	1357.020	1101.745
47.228	26.432	1356.107	1100.920
48.242	26.491	1354.884	1100.187
49.257	26.403	1353.675	1098.575
50.271	26.486	1352.024	1097.641
51.286	26.424	1351.077	1096.398
52.301	26.411	1349.719	1095.121
53.315	26.425	1348.859	1094.409
54.330	26.435	1348.283	1093.906
55.344	26.384	1346.727	1092.239
56.359	26.373	1346.265	1091.704
57.374	26.495	1344.836	1091.180
58.388	26.430	1344.602	1090.502
59.403	26.363	1344.205	1089.679
60.417	26.456	1343.309	1089.416
61.432	26.470	1342.577	1088.815
62.447	26.416	1342.057	1087.969
63.461	26.373	1341.024	1086.780
64.476	26.386	1339.416	1085.456
65.490	26.510	1338.340	1085.229
66.505	26.366	1337.328	1083.453
67.520	26.447	1335.833	1082.630
68.534	26.545	1334.477	1082.022
69.549	26.439	1333.946	1080.859
70.563	26.502	1333.068	1080.434
71.578	26.480	1331.598	1079.013
72.593	26.470	1331.225	1078.553
73.607	26.536	1330.199	1078.024
74.622	26.476	1330.032	1077.434
75.636	26.443	1329.204	1076.469
76.651	26.471	1328.011	1075.576
77.666	26.437	1327.967	1075.242
78.680	26.419	1327.531	1074.688
79.695	26.442	1326.879	1074.200
80.709	26.451	1325.919	1073.383
81.724	26.439	1324.729	1072.257
82.739	26.572	1323.782	1072.179
83.753	26.407	1323.278	1070.702
84.768	26.427	1321.923	1069.627
85.782	26.514	1320.482	1068.881
86.797	26.543	1319.598	1068.241
87.812	26.436	1318.600	1066.710
88.826	26.459	1317.939	1066.218
89.841	26.496	1316.622	1065.274
90.855	26.437	1315.993	1064.323
91.870	26.529	1314.634	1063.670
92.884	26.491	1313.817	1062.691
93.899	26.594	1312.848	1062.418
94.914	26.552	1312.311	1061.645
95.928	26.516	1311.426	1060.622
96.943	26.471	1311.041	1059.955
97.957	26.527	1310.328	1059.609
98.972	26.497	1309.898	1058.996
99.987	26.435	1308.790	1057.641
101.001	26.472	1307.594	1056.797
102.016	26.440	1307.075	1056.098
103.030	26.400	1306.239	1055.098
104.045	26.500	1305.002	1054.587
105.060	26.525	1304.304	1054.072
106.074	26.588	1303.136	1053.406
107.089	26.449	1302.189	1051.739
108.103	26.526	1300.862	1051.017
109.118	26.665	1299.676	1050.774
110.133	26.687	1298.770	1050.077
111.147	26.617	1297.822	1048.812
112.162	26.595	1296.798	1047.766
113.176	26.559	1296.098	1046.899
114.191	26.618	1295.047	1046.296
115.206	26.672	1293.451	1045.227
116.220	26.604	1292.617	1044.066
117.235	26.562	1291.816	1043.089
118.249	26.616	1291.378	1042.950
119.264	26.610	1290.078	1041.775
120.279	26.642	1289.459	1041.366
121.293	26.596	1288.709	1040.405
122.308	26.662	1287.755	1039.920
123.322	26.671	1287.035	1039.300
124.337	26.668	1286.657	1038.884
125.352	26.596	1285.663	1037.577
126.366	26.676	1284.599	1037.085
127.381	26.583	1283.611	1035.663
128.395	26.578	1283.164	1035.181
129.410	26.661	1282.058	1034.675
130.424	26.498	1281.885	1033.511
131.439	26.609	1280.819	1033.196
132.454	26.650	1279.589	1032.347
133.468	26.523	1279.244	1031.251
134.483	26.653	1278.356	1031.182
135.497	26.621	1277.553	1030.263
136.512	26.548	1276.571	1028.963
137.527	26.618	1275.489	1028.397
138.541	26.558	1274.247	1026.964
139.556	26.561	1273.294	1026.125
140.570	26.664	1272.253	1025.776
141.585	26.639	1271.291	1024.768
142.600	26.611	1270.149	1023.600
143.614	26.469	1269.467	1022.161
144.629	26.562	1268.144	1021.529
145.643	26.553	1267.145	1020.583
146.658	26.497	1265.913	1019.185
147.673	26.549	1265.417	1018.990
148.687	26.542	1264.601	1018.202
149.702	26.569	1262.789	1016.806
150.716	26.596	1261.790	1016.063
151.731	26.646	1260.734	1015.399
152.746	26.571	1259.852	1014.178
153.760	26.589	1259.325	1013.765
154.775	26.607	1258.205	1012.875
155.789	26.601	1257.483	1012.174
156.804	26.620	1256.505	1011.399
157.819	26.552	1255.751	1010.326
158.833	26.622	1255.193	1010.178
159.848	26.651	1254.015	1009.301
160.862	26.527	1253.827	1008.373
161.877	26.661	1252.635	1008.068
162.892	26.617	1251.812	1007.070
163.906	26.749	1250.624	1006.764
164.921	26.637	1250.401	1005.868
165.935	26.716	1249.680	1005.637
166.950	26.740	1249.167	1005.271
167.964	26.688	1248.367	1004.251
168.979	26.811	1247.716	1004.320
169.994	26.739	1247.885	1003.969
171.008	26.741	1246.901	1003.098
172.023	26.770	1245.910	1002.374
173.037	26.707	1245.341	1001.478
174.052	26.713	1244.803	1000.988
175.067	26.655	1243.984	999.922
176.081	26.695	1242.900	999.182
177.096	26.750	1241.974	998.653
178.110	26.709	1241.301	997.795
179.125	26.753	1240.141	997.020
180.140	26.810	1239.289	996.557
181.154	26.781	1238.255	995.481
182.169	26.729	1237.239	994.289
183.183	26.738	1236.241	993.447
184.198	26.709	1235.286	992.432
185.213	26.824	1234.408	992.272
186.227	26.845	1233.441	991.521
187.242	26.827	1232.620	990.675
188.256	26.810	1231.723	989.773
189.271	26.840	1230.791	989.098
190.286	26.767	1230.479	988.362
191.300	26.800	1229.701	987.832
192.315	26.770	1229.261	987.230
193.329	26.817	1228.911	987.114
194.344	26.829	1228.368	986.655
195.359	26.850	1227.946	986.346
196.373	26.820	1227.632	985.840
197.388	26.750	1227.011	984.873
198.402	26.774	1226.884	984.817
199.417	26.852	1226.190	984.594
200.432	26.787	1225.579	983.664
201.446	26.787	1225.240	983.306
202.461	26.809	1224.254	982.548
203.475	26.822	1223.490	981.915
204.490	26.879	1222.184	981.091
205.504	26.896	1221.338	980.418
206.519	26.843	1220.699	979.532
207.534	26.829	1219.686	978.556
208.548	26.917	1218.446	977.949
209.563	26.789	1218.388	977.124
210.577	26.954	1216.880	976.719
211.592	26.805	1216.370	975.419
212.607	26.889	1215.907	975.414
213.621	26.999	1215.022	975.208
214.636	26.916	1214.390	974.173
215.650	26.956	1213.325	973.447
216.665	26.936	1212.319	972.443
217.680	26.868	1211.570	971.393
218.694	26.967	1210.555	971.022
219.709	27.018	1210.307	971.013
220.723	27.071	1209.007	970.163
221.738	26.982	1208.795	969.433
222.753	26.884	1208.097	968.262
223.767	26.978	1207.458	968.166
224.782	27.145	1206.551	968.247
225.796	27.051	1206.413	967.550
226.811	27.002	1205.822	966.726
227.826	27.007	1205.538	966.442
228.840	27.075	1204.635	965.993
229.855	26.986	1204.072	964.986
230.869	26.979	1203.294	964.235
231.884	27.074	1202.541	964.054
232.899	27.044	1201.722	963.153
233.913	27.108	1201.340	963.098
234.928	27.092	1201.091	962.729
235.942	27.209	1200.077	962.454
236.957	27.079	1199.536	961.245
237.972	27.071	1198.665	960.418
238.986	27.057	1198.139	959.841
240.001	27.153	1197.943	960.104
241.015	27.228	1196.512	959.269
242.030	27.182	1195.873	958.426
243.045	27.112	1195.367	957.571
244.059	27.106	1194.756	956.963
245.074	27.218	1193.449	956.422
246.088	27.242	1192.891	956.012
247.103	27.163	1192.630	955.307
248.117	27.236	1191.781	954.924
249.132	27.222	1190.805	953.984
250.147	27.309	1190.000	953.710
251.161	27.288	1189.250	952.917
252.176	27.360	1188.990	953.000
253.190	27.224	1188.474	951.790
254.205	27.316	1187.583	951.473
255.220	27.226	1187.225	950.631
256.234	27.343	1186.492	950.572
257.249	27.247	1186.009	949.601
258.263	27.384	1184.837	949.295
259.278	27.378	1184.498	948.905
260.293	27.320	1184.144	948.235
261.307	27.347	1183.390	947.691
262.322	27.404	1182.663	947.320
263.336	27.338	1182.519	946.775
264.351	27.421	1181.529	946.332
265.366	27.229	1181.361	945.115
266.380	27.287	1180.857	944.929
267.395	27.327	1179.646	944.086
268.409	27.345	1179.097	943.656
269.424	27.298	1179.123	943.349
270.439	27.425	1177.794	942.863
271.453	27.432	1177.182	942.323
272.468	27.297	1176.686	941.146
273.482	27.392	1175.892	940.916
274.497	27.427	1175.524	940.722
275.512	27.440	1175.078	940.349
276.526	27.407	1174.320	939.485
277.541	27.472	1173.585	939.150
278.555	27.521	1172.795	938.688
279.570	27.669	1171.946	938.686
280.585	27.547	1171.200	937.379
281.599	27.464	1170.592	936.385
282.614	27.475	1169.684	935.632
283.628	27.516	1168.669	934.948
284.643	27.512	1168.301	934.547
285.657	27.497	1167.109	933.435
286.672	27.510	1166.361	932.822
287.687	27.555	1165.359	932.167
288.701	27.593	1164.933	931.937
289.716	27.615	1164.010	931.230
290.730	27.679	1163.284	930.895
291.745	27.671	1163.164	930.674
292.760	27.655	1162.253	929.783
293.774	27.630	1162.128	929.471
294.789	27.678	1161.149	928.852
295.803	27.653	1160.771	928.338
296.818	27.682	1160.099	927.865
297.833	27.635	1159.659	927.194
298.847	27.567	1159.090	926.314
299.862	27.661	1158.186	925.984
300.876	27.648	1157.554	925.333
301.891	27.723	1156.919	925.122
302.906	27.817	1156.259	924.991
303.920	27.737	1155.797	924.134
304.935	27.642	1155.365	923.224
305.949	27.780	1154.355	923.035
306.964	27.758	1153.688	922.306
307.979	27.744	1153.133	921.710
308.993	27.880	1152.419	921.746
310.008	27.764	1151.865	920.635
311.022	27.779	1151.142	920.051
312.037	27.858	1150.132	919.563
313.052	27.788	1149.205	918.386
314.066	27.762	1148.271	917.429
315.081	27.735	1148.129	917.099
316.095	27.828	1147.013	916.591
317.110	27.759	1146.531	915.778
318.125	27.797	1146.013	915.475
319.139	27.851	1145.410	915.181
320.154	27.856	1145.018	914.814
321.168	27.883	1144.264	914.268
322.183	27.932	1143.247	913.616
323.197	27.961	1142.803	913.325
324.212	27.833	1142.557	912.410
325.227	27.972	1142.023	912.599
326.241	27.953	1141.560	912.052
327.256	27.943	1140.954	911.435
328.270	27.938	1140.280	910.792
329.285	28.004	1139.224	910.198
330.300	27.976	1138.627	909.499
331.314	28.077	1137.476	909.000
332.329	27.987	1136.864	907.987
333.343	28.123	1135.861	907.778
334.358	28.065	1135.527	907.143
335.373	28.083	1134.841	906.603
336.387	28.107	1133.847	905.847
337.402	28.195	1133.309	905.776
338.416	28.133	1132.739	904.930
339.431	28.043	1131.934	903.767
340.446	28.019	1131.888	903.531
341.460	28.187	1130.673	903.309
342.475	28.168	1130.238	902.786
343.489	28.063	1129.724	901.781
344.504	28.268	1128.240	901.527
345.519	28.129	1127.578	900.232
346.533	28.191	1126.951	899.959
347.548	28.237	1126.256	899.549
348.562	28.203	1125.420	898.636
349.577	28.152	1124.716	897.741
350.592	28.107	1123.901	896.794
351.606	28.070	1123.819	896.465
352.621	28.095	1123.218	896.030
353.635	28.210	1122.510	895.949
354.650	28.288	1121.392	895.360
355.665	28.288	1120.907	894.893
356.679	28.234	1120.583	894.287
357.694	28.338	1119.751	894.054
358.708	28.345	1118.933	893.358
359.723	28.319	1118.544	892.840
360.738	28.297	1117.697	891.979
361.752	28.339	1117.278	891.767
362.767	28.392	1116.559	891.373
363.781	28.336	1116.031	890.601
364.796	28.503	1115.435	890.856
365.810	28.323	1115.335	889.825
366.825	28.466	1114.387	889.681
367.840	28.508	1113.967	889.474
368.854	28.465	1113.506	888.816
369.869	28.454	1112.610	887.972
370.883	28.546	1111.994	887.847
371.898	28.519	1110.979	886.829
372.913	28.508	1110.477	886.293
373.927	28.526	1110.071	885.979
374.942	28.598	1109.637	885.902
375.956	28.604	1109.013	885.356
376.971	28.566	1108.729	884.868
377.986	28.591	1108.014	884.339
379.000	28.632	1107.471	884.022
380.015	28.639	1106.943	883.559
381.029	28.668	1105.991	882.856
382.044	28.604	1105.945	882.433
383.059	28.629	1104.849	881.604
384.073	28.714	1104.252	881.456
385.088	28.588	1103.753	880.377
386.102	28.775	1102.429	880.137
387.117	28.609	1101.998	878.919
388.132	28.521	1101.203	877.789
389.146	28.670	1100.310	877.712
390.161	28.642	1099.573	876.914
391.175	28.705	1098.971	876.654
392.190	28.779	1098.356	876.441
393.205	28.709	1097.921	875.682
394.219	28.678	1097.361	875.009
395.234	28.687	1096.692	874.439
396.248	28.694	1095.376	873.349
397.263	28.799	1094.409	872.998
398.278	28.793	1094.362	872.857
399.292	28.845	1093.738	872.527
400.307	28.851	1092.885	871.796
401.321	28.805	1092.184	870.944
402.336	28.762	1092.045	870.552
403.350	28.835	1090.935	869.938
404.365	28.869	1090.608	869.760
405.380	28.844	1089.441	868.632
406.394	29.043	1088.780	868.971
407.409	28.966	1088.167	868.038
408.423	29.116	1087.275	867.957
409.438	28.968	1086.908	866.894
410.453	29.014	1086.354	866.588
411.467	29.013	1085.566	865.881
412.482	28.951	1084.995	865.055
413.496	29.071	1083.995	864.747
414.511	28.907	1083.836	863.770
415.526	28.955	1083.429	863.598
416.540	28.982	1082.952	863.264
417.555	29.071	1082.375	863.148
418.569	28.985	1082.193	862.522
419.584	29.069	1081.277	862.112
420.599	29.196	1080.896	862.326
421.613	101.797	1315.716	1442.202
422.628	94.711	1349.923	1442.322
