DTS Sentinel unit serial number:	SN413079Multiplexer serial number:	ORYXHardware model number:	OX4-SRSoftware version number:	ORYX F/W v4.00 Oryx Data Collector v3.7.2.0data status	okinstallation	princeton_trtdifferential loss correction	single-endedforward channel	channel 2reverse channel	N/Adate	2019/09/13time	17:11:35forward acquisition time	60.00reverse acquisition time	0.00gamma	496.2192k internal	0.2310k external	0.2310temperature offset calibration	1.0202default loss term (dB/km)	0.3790temperature slope calibration	1.0000multiplexer offset coefficient	1.0000multiplexer slope coefficient	1.0000fibre end	0.00T internal ref (°C)	35.45T ext. ref 1 (°C)	4.80T ext. ref 2 (°C)	34.28length (m)	temperature (°C)	Stokes	anti-Stokes-747.200	-200.000	-0.025	0.244
-746.185	77.011	-0.249	0.269
-745.171	800.000	-0.023	0.070
-744.156	800.000	-0.147	0.477
-743.142	-200.000	-0.015	-0.439
-742.127	51.131	0.074	0.072
-741.112	64.367	-0.015	-0.015
-740.098	-52.157	-0.146	0.069
-739.083	81.598	-0.038	-0.042
-738.069	191.305	0.194	0.297
-737.054	141.206	-0.089	-0.119
-736.039	209.979	0.095	-0.152
-735.025	-96.849	-0.375	0.100
-734.010	15.129	-0.120	0.095
-732.996	-104.944	0.240	0.056
-731.981	56.303	-0.421	0.416
-730.966	399.101	0.032	0.069
-729.952	-166.101	-0.559	0.024
-728.937	103.560	-0.101	0.120
-727.923	-200.000	0.050	-0.493
-726.908	800.000	0.140	0.440
-725.894	216.143	-0.106	0.172
-724.879	-156.242	-0.210	-0.013
-723.864	39.105	-0.103	0.094
-722.850	456.729	-0.032	0.072
-721.835	800.000	0.042	0.121
-720.821	318.008	-0.196	-0.376
-719.806	47.456	-0.135	0.128
-718.791	583.822	-0.083	-0.206
-717.777	-22.207	-0.187	-0.115
-716.762	-193.980	-0.092	-0.001
-715.748	-43.435	0.254	0.130
-714.733	12.154	0.290	-0.227
-713.718	73.780	0.115	-0.123
-712.704	84.740	-0.205	0.228
-711.689	664.381	0.132	0.345
-710.675	-171.487	-0.107	-0.004
-709.660	800.000	0.039	-0.132
-708.645	-82.760	0.376	-0.123
-707.631	268.782	0.073	0.129
-706.616	800.000	-0.064	0.222
-705.602	772.323	0.082	-0.226
-704.587	-109.686	0.173	0.037
-703.572	800.000	-0.029	-0.094
-702.558	-12.525	-0.170	-0.112
-701.543	-78.137	0.229	0.080
-700.529	-86.454	0.197	-0.061
-699.514	-200.000	0.016	0.125
-698.499	-110.509	0.098	0.021
-697.485	-200.000	0.009	-0.252
-696.470	-9.343	-0.117	-0.079
-695.456	800.000	-0.081	-0.253
-694.441	-200.000	-0.014	0.200
-693.426	332.650	-0.093	0.183
-692.412	-107.381	0.047	-0.011
-691.397	-171.182	-0.149	-0.005
-690.383	-200.000	-0.014	0.170
-689.368	-46.583	-0.130	-0.065
-688.354	-186.112	-0.127	0.002
-687.339	-85.701	-0.024	-0.007
-686.324	169.712	-0.068	-0.098
-685.310	314.179	0.109	-0.207
-684.295	-47.999	-0.205	-0.100
-683.281	-10.271	-0.217	-0.146
-682.266	434.319	0.088	-0.194
-681.251	55.105	-0.109	0.107
-680.237	-200.000	-0.021	-0.125
-679.222	-68.959	-0.220	-0.086
-678.208	-116.907	-0.350	-0.065
-677.193	10.742	-0.104	-0.080
-676.178	-8.219	0.354	-0.242
-675.164	203.797	0.131	-0.206
-674.149	-200.000	0.029	0.140
-673.135	221.808	-0.146	-0.237
-672.120	307.596	0.090	0.169
-671.105	800.000	-0.054	0.187
-670.091	-33.851	-0.391	0.218
-669.076	800.000	0.047	0.178
-668.062	230.164	-0.125	-0.206
-667.047	-10.083	-0.128	0.086
-666.032	-101.346	0.138	-0.034
-665.018	146.468	0.110	-0.149
-664.003	-200.000	-0.022	0.223
-662.989	64.145	0.167	-0.171
-661.974	37.639	-0.240	-0.215
-660.959	219.127	-0.181	-0.292
-659.945	-75.800	0.208	-0.075
-658.930	305.974	0.209	-0.393
-657.916	266.122	-0.110	0.194
-656.901	-115.195	-0.187	-0.036
-655.886	-200.000	-0.074	-0.333
-654.872	307.961	0.160	-0.302
-653.857	60.876	-0.162	-0.162
-652.843	-200.000	-0.033	-0.288
-651.828	-17.855	0.107	0.068
-650.814	-101.042	-0.312	-0.077
-649.799	-94.393	-0.159	-0.044
-648.784	-101.640	-0.275	0.068
-647.770	127.472	-0.129	0.166
-646.755	-132.310	0.187	-0.025
-645.741	354.543	0.041	-0.082
-644.726	-15.739	-0.194	-0.125
-643.711	170.960	0.046	0.067
-642.697	106.829	-0.104	-0.125
-641.682	-93.408	-0.226	-0.063
-640.668	-73.061	-0.428	-0.159
-639.653	800.000	-0.057	0.167
-638.638	501.953	0.102	0.238
-637.624	-137.863	0.158	0.018
-636.609	-200.000	0.017	0.299
-635.595	-85.641	-0.377	0.119
-634.580	-93.867	-0.399	0.111
-633.565	-200.000	-0.030	0.242
-632.551	-5.212	0.265	0.184
-631.536	800.000	-0.101	0.316
-630.522	-33.917	0.040	0.022
-629.507	-12.883	0.247	-0.163
-628.492	-3.511	0.341	-0.240
-627.478	-200.000	-0.020	-0.228
-626.463	-129.881	0.363	0.050
-625.449	9.311	-0.236	-0.181
-624.434	-14.316	-0.252	0.164
-623.419	800.000	0.083	-0.279
-622.405	-200.000	-0.002	-0.107
-621.390	-61.653	0.164	0.069
-620.376	-98.127	0.161	0.042
-619.361	38.431	-0.176	-0.159
-618.346	800.000	-0.090	-0.395
-617.332	-200.000	-0.025	0.183
-616.317	197.604	-0.110	0.170
-615.303	-20.973	-0.217	-0.134
-614.288	22.115	-0.255	-0.211
-613.273	366.769	0.074	0.151
-612.259	76.539	-0.078	0.084
-611.244	-12.516	-0.092	-0.061
-610.230	667.085	-0.042	-0.108
-609.215	800.000	-0.023	-0.073
-608.201	-5.151	0.174	-0.121
-607.186	-22.480	0.183	-0.112
-606.171	800.000	0.092	0.338
-605.157	-173.789	-0.498	0.015
-604.142	615.522	-0.101	0.256
-603.128	34.353	-0.033	-0.029
-602.113	-200.000	0.014	0.160
-601.098	800.000	-0.026	0.079
-600.084	800.000	0.028	0.099
-599.069	-129.146	-0.299	-0.042
-598.055	-140.173	-0.184	0.020
-597.040	-122.980	-0.145	0.024
-596.025	356.817	0.199	-0.401
-595.011	800.000	0.034	-0.148
-593.996	189.017	-0.075	0.114
-592.982	-89.863	-0.179	-0.053
-591.967	-200.000	0.000	0.031
-590.952	-200.000	-0.008	-0.159
-589.938	-61.892	-0.225	-0.095
-588.923	541.703	-0.209	-0.502
-587.909	178.781	0.228	-0.336
-586.894	-95.767	-0.179	0.048
-585.879	-148.409	-0.094	-0.008
-584.865	-123.716	-0.423	0.068
-583.850	-200.000	-0.030	-0.295
-582.836	-138.216	-0.110	0.012
-581.821	330.513	0.096	0.187
-580.806	800.000	-0.085	-0.279
-579.792	102.466	-0.194	-0.229
-578.777	-2.997	-0.108	-0.076
-577.763	34.586	-0.030	-0.026
-576.748	800.000	0.100	0.328
-575.733	-65.560	-0.335	0.136
-574.719	-200.000	0.054	-0.353
-573.704	-200.000	0.037	-0.247
-572.690	-200.000	0.050	-0.277
-571.675	41.239	0.067	-0.061
-570.661	248.779	0.152	-0.260
-569.646	392.516	-0.110	-0.231
-568.631	-200.000	0.048	0.258
-567.617	-70.362	-0.166	-0.063
-566.602	-200.000	0.000	-0.021
-565.588	4.146	0.233	-0.172
-564.573	-30.821	0.166	0.095
-563.558	-61.706	-0.359	0.152
-562.544	38.932	-0.081	-0.073
-561.529	-82.522	-0.283	-0.092
-560.515	262.260	-0.054	0.095
-559.500	-126.566	0.356	-0.053
-558.485	158.014	-0.283	0.396
-557.471	30.488	-0.211	0.182
-556.456	-116.804	0.202	-0.037
-555.442	34.979	-0.179	-0.158
-554.427	-11.143	-0.068	0.045
-553.412	65.538	-0.134	0.136
-552.398	169.063	0.166	-0.238
-551.383	800.000	0.081	-0.319
-550.369	-72.169	0.173	0.065
-549.354	-200.000	-0.000	0.038
-548.339	-38.922	0.274	0.146
-547.325	-200.000	-0.083	0.389
-546.310	-145.069	-0.236	0.022
-545.296	266.864	0.198	0.349
-544.281	-200.000	-0.051	0.339
-543.266	203.561	-0.055	0.086
-542.252	19.791	-0.287	0.233
-541.237	-102.756	-0.210	-0.050
-540.223	78.313	0.152	0.163
-539.208	-100.939	-0.275	-0.068
-538.193	800.000	-0.046	0.152
-537.179	-200.000	0.008	0.159
-536.164	7.715	0.258	0.195
-535.150	-31.998	0.312	0.176
-534.135	-200.000	0.004	-0.145
-533.121	-86.180	0.431	0.134
-532.106	-200.000	-0.009	0.067
-531.091	44.330	-0.238	-0.220
-530.077	800.000	0.088	-0.261
-529.062	241.931	-0.158	0.266
-528.048	-18.276	-0.182	0.115
-527.033	159.348	-0.144	0.201
-526.018	-21.286	0.135	0.083
-525.004	-151.123	0.330	-0.025
-523.989	512.952	0.070	0.164
-522.975	460.535	-0.126	-0.282
-521.960	-200.000	0.085	-0.468
-520.945	548.486	-0.054	-0.131
-519.931	52.826	-0.126	-0.121
-518.916	-200.000	0.043	-0.202
-517.902	146.122	0.061	-0.082
-516.887	-200.000	-0.029	-0.217
-515.872	143.159	0.175	-0.235
-514.858	-94.787	-0.311	0.085
-513.843	-180.618	-0.217	-0.004
-512.829	14.355	0.119	0.093
-511.814	-200.000	0.069	0.306
-510.799	709.064	-0.036	0.096
-509.785	-200.000	-0.002	-0.146
-508.770	-158.101	-0.044	0.003
-507.756	202.109	-0.273	-0.425
-506.741	233.933	-0.085	0.141
-505.726	-188.442	0.280	0.004
-504.712	608.601	0.017	-0.043
-503.697	-200.000	-0.021	0.121
-502.683	-118.049	0.148	0.027
-501.668	-73.304	0.068	-0.025
-500.653	-200.000	-0.020	-0.153
-499.639	-140.504	-0.195	-0.020
-498.624	-96.067	0.270	-0.072
-497.610	-117.603	0.240	-0.043
-496.595	800.000	0.060	0.210
-495.581	-23.311	-0.184	0.111
-494.566	107.853	-0.181	-0.216
-493.551	302.365	-0.085	-0.158
-492.537	-89.051	-0.318	0.095
-491.522	800.000	0.081	0.344
-490.508	549.356	0.083	0.199
-489.493	800.000	-0.076	-0.305
-488.478	459.449	-0.120	-0.268
-487.464	12.116	0.179	-0.138
-486.449	-32.099	0.280	-0.158
-485.435	-25.400	0.152	-0.091
-484.420	-74.706	-0.162	-0.058
-483.405	800.000	-0.039	-0.157
-482.391	16.475	-0.067	-0.054
-481.376	800.000	0.038	0.114
-480.362	-18.919	0.203	0.127
-479.347	81.837	0.094	-0.102
-478.332	-61.839	0.254	0.107
-477.318	27.164	-0.124	0.104
-476.303	-40.279	0.140	0.073
-475.289	800.000	-0.112	-0.396
-474.274	646.898	0.029	-0.075
-473.259	-200.000	0.002	0.227
-472.245	800.000	-0.033	-0.118
-471.230	-77.929	-0.293	-0.101
-470.216	-110.405	-0.246	0.051
-469.201	-200.000	0.044	0.360
-468.186	-118.842	-0.185	0.033
-467.172	-200.000	0.008	-0.222
-466.157	-105.166	-0.170	-0.039
-465.143	128.943	-0.106	0.136
-464.128	-122.970	0.443	0.072
-463.113	6.264	-0.094	-0.070
-462.099	91.048	-0.283	0.319
-461.084	800.000	-0.060	0.174
-460.070	-24.667	0.220	0.132
-459.055	-117.769	-0.367	-0.066
-458.040	-200.000	-0.048	0.258
-457.026	9.323	0.194	-0.148
-456.011	-34.674	-0.482	-0.265
-454.997	328.318	0.175	0.338
-453.982	8.126	0.185	0.140
-452.968	-166.469	0.195	-0.008
-451.953	-120.937	0.133	-0.022
-450.938	-97.832	-0.307	-0.080
-449.924	22.119	0.057	-0.047
-448.909	82.075	-0.170	-0.185
-447.895	-50.124	-0.234	-0.111
-446.880	-200.000	0.016	0.141
-445.865	-128.813	0.160	0.023
-444.851	-200.000	-0.049	0.335
-443.836	132.552	-0.037	0.048
-442.822	95.839	-0.072	-0.083
-441.807	800.000	0.054	0.223
-440.792	673.725	0.126	-0.328
-439.778	-200.000	0.007	0.065
-438.763	215.806	0.117	-0.186
-437.749	-64.007	-0.126	-0.052
-436.734	22.148	0.137	-0.112
-435.719	-200.000	-0.037	-0.231
-434.705	100.070	-0.223	-0.259
-433.690	8.407	0.194	-0.146
-432.676	-77.269	0.121	-0.042
-431.661	32.160	-0.128	0.111
-430.646	-102.257	0.289	-0.070
-429.632	-99.700	-0.080	-0.020
-428.617	21.898	0.332	0.271
-427.603	209.157	0.149	-0.234
-426.588	349.583	-0.096	0.191
-425.573	-78.215	-0.178	0.061
-424.559	-55.823	0.089	-0.040
-423.544	112.836	0.054	-0.066
-422.530	49.928	-0.055	0.052
-421.515	-200.000	-0.046	-0.394
-420.500	-91.013	0.326	-0.094
-419.486	800.000	-0.007	-0.026
-418.471	227.865	-0.042	0.068
-417.457	-98.280	0.042	-0.011
-416.442	-200.000	-0.006	0.108
-415.428	-154.677	0.086	0.006
-414.413	47.147	0.143	0.133
-413.398	-46.159	-0.155	-0.077
-412.384	-200.000	0.024	-0.328
-411.369	-200.000	-0.020	-0.184
-410.355	-133.503	-0.076	-0.010
-409.340	123.863	-0.121	-0.152
-408.325	52.250	-0.152	0.145
-407.311	317.053	0.125	-0.237
-406.296	-200.000	-0.009	-0.111
-405.282	115.010	-0.125	-0.153
-404.267	51.739	0.210	-0.200
-403.252	-187.648	0.131	0.002
-402.238	304.701	0.086	-0.160
-401.223	-24.213	0.426	0.255
-400.209	-87.123	0.092	0.028
-399.194	442.902	-0.103	-0.227
-398.179	-200.000	-0.026	0.129
-397.165	411.557	-0.014	-0.031
-396.150	-72.053	0.411	0.153
-395.136	158.530	0.140	-0.195
-394.121	-148.225	-0.320	-0.026
-393.106	-154.864	-0.133	-0.009
-392.092	291.291	0.162	-0.295
-391.077	67.114	-0.054	0.055
-390.063	42.722	0.212	0.194
-389.048	-200.000	0.043	-0.192
-388.033	243.810	0.059	0.099
-387.019	-200.000	-0.028	0.278
-386.004	-200.000	0.022	0.112
-384.990	-140.596	-0.167	0.017
-383.975	-70.210	0.170	0.065
-382.960	-200.000	0.014	0.131
-381.946	-200.000	0.009	0.196
-380.931	-135.545	0.110	0.013
-379.917	83.144	-0.096	-0.105
-378.902	-164.909	-0.200	-0.009
-377.888	-63.331	0.093	-0.038
-376.873	-28.662	0.057	-0.033
-375.858	-71.260	0.235	-0.088
-374.844	56.140	0.046	-0.045
-373.829	-169.154	0.392	-0.015
-372.815	408.331	0.108	0.228
-371.800	-128.103	0.208	-0.030
-370.785	19.995	-0.109	0.088
-369.771	-40.233	0.351	0.183
-368.756	-48.117	-0.111	0.054
-367.742	-200.000	0.001	0.089
-366.727	673.728	0.129	-0.334
-365.712	-42.178	-0.201	-0.103
-364.698	107.811	0.135	-0.161
-363.683	-200.000	0.054	-0.481
-362.669	164.514	0.124	0.175
-361.654	282.766	-0.075	0.134
-360.639	-128.755	-0.207	0.029
-359.625	-132.907	0.191	0.024
-358.610	-200.000	0.020	-0.122
-357.596	357.547	0.092	0.183
-356.581	800.000	-0.072	0.226
-355.566	-111.794	-0.410	-0.083
-354.552	-101.040	0.115	-0.028
-353.537	25.369	-0.097	-0.080
-352.523	800.000	-0.029	-0.119
-351.508	800.000	-0.028	-0.099
-350.493	-0.884	-0.169	-0.119
-349.479	-17.535	0.114	0.072
-348.464	-200.000	0.046	-0.255
-347.450	-166.919	-0.124	-0.005
-346.435	105.892	-0.136	-0.161
-345.420	78.375	-0.202	0.216
-344.406	95.245	0.112	-0.128
-343.391	34.801	0.178	-0.156
-342.377	-200.000	-0.022	0.137
-341.362	238.460	-0.041	-0.069
-340.348	93.442	-0.112	0.127
-339.333	244.483	-0.155	0.260
-338.318	145.379	0.096	-0.128
-337.304	800.000	0.084	-0.254
-336.289	-19.491	0.179	0.111
-335.275	-107.378	-0.287	0.063
-334.260	-42.430	-0.146	0.074
-333.245	53.773	-0.095	-0.091
-332.231	-200.000	0.022	-0.303
-331.216	-200.000	-0.006	0.263
-330.202	358.342	0.023	-0.047
-329.187	-200.000	0.004	0.239
-328.172	-123.921	0.161	-0.025
-327.158	800.000	0.067	0.256
-326.143	73.801	-0.058	0.061
-325.129	-158.957	0.057	0.003
-324.114	-42.819	0.255	-0.129
-323.099	266.515	0.208	-0.363
-322.085	211.152	0.137	0.216
-321.070	445.096	-0.063	0.139
-320.056	-200.000	0.078	0.415
-319.041	-81.040	-0.294	0.097
-318.026	58.345	-0.061	0.060
-317.012	171.929	0.072	0.103
-315.997	192.081	-0.159	-0.239
-314.983	-200.000	0.023	-0.321
-313.968	47.510	-0.081	0.075
-312.953	-200.000	-0.031	0.171
-311.939	66.323	0.150	0.152
-310.924	-46.705	-0.179	-0.088
-309.910	-169.849	-0.205	0.007
-308.895	-97.912	0.200	-0.052
-307.880	193.652	-0.133	0.201
-306.866	46.813	0.111	-0.103
-305.851	-101.568	-0.168	0.041
-304.837	-128.937	0.258	0.036
-303.822	-98.900	-0.106	-0.027
-302.807	-81.160	-0.178	-0.059
-301.793	2.928	-0.209	0.152
-300.778	220.517	-0.084	0.134
-299.764	98.753	0.196	0.226
-298.749	-55.961	-0.033	-0.015
-297.735	-200.000	-0.008	0.038
-296.720	-34.302	0.436	-0.239
-295.705	51.600	0.117	0.111
-294.691	-200.000	0.010	0.190
-293.676	-54.475	0.385	0.174
-292.662	-51.383	-0.099	0.046
-291.647	60.972	-0.249	0.247
-290.632	-41.700	-0.147	0.075
-289.618	-143.047	-0.344	0.033
-288.603	-107.026	-0.165	0.036
-287.589	-85.627	-0.093	-0.029
-286.574	-163.909	0.249	-0.012
-285.559	-137.508	0.452	-0.051
-284.545	219.267	0.215	-0.343
-283.530	304.218	0.081	0.150
-282.516	7.153	0.211	0.157
-281.501	129.564	0.162	-0.207
-280.486	-85.879	-0.275	-0.085
-279.472	7.112	0.083	0.062
-278.457	-140.257	-0.376	0.039
-277.443	38.640	-0.239	0.212
-276.428	-39.766	0.256	-0.133
-275.413	107.696	-0.070	0.083
-274.399	109.427	0.097	-0.116
-273.384	-42.304	-0.252	0.129
-272.370	401.626	0.137	-0.287
-271.355	493.869	0.046	0.105
-270.340	-200.000	-0.012	-0.171
-269.326	273.404	-0.035	0.062
-268.311	-28.002	-0.054	0.031
-267.297	-25.134	-0.255	-0.150
-266.282	800.000	-0.009	0.025
-265.267	-49.040	0.157	-0.075
-264.253	-20.003	0.093	0.057
-263.238	53.119	0.269	-0.257
-262.224	-4.643	0.256	0.176
-261.209	-85.561	0.397	-0.123
-260.195	-128.634	0.179	-0.025
-259.180	-14.871	0.218	-0.139
-258.165	-32.137	-0.198	-0.110
-257.151	800.000	0.067	-0.224
-256.136	285.706	-0.109	0.196
-255.122	-158.045	-0.455	0.027
-254.107	-200.000	0.014	0.163
-253.092	775.816	0.087	-0.238
-252.078	-74.041	0.418	0.151
-251.063	-64.022	-0.078	0.032
-250.049	-78.726	-0.119	0.041
-249.034	236.032	0.074	0.122
-248.019	-60.441	-0.140	0.059
-247.005	83.201	0.275	0.298
-245.990	800.000	0.084	0.259
-244.976	54.445	-0.175	-0.168
-243.961	-135.538	0.276	0.033
-242.946	-185.544	-0.062	-0.001
-241.932	199.570	0.057	0.087
-240.917	416.712	-0.133	-0.282
-239.903	149.339	0.119	0.160
-238.888	460.783	-0.040	0.090
-237.873	83.883	-0.173	-0.188
-236.859	-76.546	-0.136	0.048
-235.844	-101.761	0.237	0.057
-234.830	-156.744	-0.311	0.019
-233.815	3.689	0.145	-0.105
-232.800	-127.064	0.248	0.036
-231.786	-26.844	0.167	0.097
-230.771	26.374	0.257	0.214
-229.757	-63.480	-0.224	0.092
-228.742	-5.856	0.167	0.114
-227.727	-200.000	0.014	0.127
-226.713	72.491	0.183	0.190
-225.698	672.193	0.071	0.184
-224.684	489.041	0.060	0.137
-223.669	-181.960	-0.186	0.004
-222.655	85.292	0.332	0.363
-221.640	-60.794	0.154	0.065
-220.625	-186.663	-0.345	0.005
-219.611	-110.833	-0.102	-0.021
-218.596	25.331	-0.288	-0.238
-217.582	-106.263	0.388	0.086
-216.567	-200.000	0.014	-0.173
-215.552	-84.850	-0.047	0.015
-214.538	-102.254	-0.247	0.059
-213.523	-132.821	-0.020	0.002
-212.509	-8.342	-0.172	0.115
-211.494	214.464	-0.064	0.100
-210.479	-23.737	0.172	0.103
-209.465	206.004	-0.106	0.164
-208.450	800.000	0.052	-0.221
-207.436	-30.183	-0.138	0.078
-206.421	3.048	-0.150	-0.108
-205.406	-142.231	-0.175	-0.017
-204.392	-200.000	0.012	-0.309
-203.377	110.917	0.248	-0.297
-202.363	65.438	0.296	0.298
-201.348	800.000	0.016	0.063
-200.333	800.000	-0.044	0.177
-199.319	-59.086	0.202	0.087
-198.304	15.150	0.138	0.107
-197.290	800.000	-0.043	-0.144
-196.275	358.680	0.155	0.308
-195.260	-53.188	-0.336	0.153
-194.246	-99.044	0.408	-0.103
-193.231	-200.000	-0.003	0.044
-192.217	800.000	0.069	0.250
-191.202	103.346	-0.144	-0.168
-190.187	-114.714	0.112	0.021
-189.173	-36.591	0.112	-0.060
-188.158	509.247	0.163	-0.375
-187.144	-103.706	-0.271	0.063
-186.129	26.122	0.328	0.272
-185.114	-28.583	0.239	0.137
-184.100	684.361	0.151	-0.391
-183.085	-200.000	-0.009	-0.085
-182.071	268.230	0.068	0.118
-181.056	30.954	-0.233	-0.199
-180.042	-150.870	-0.458	-0.034
-179.027	358.284	0.129	-0.256
-178.012	-152.960	0.480	0.034
-176.998	-46.572	0.078	0.038
-175.983	53.793	-0.135	-0.129
-174.969	-31.088	0.186	0.104
-173.954	463.644	-0.049	0.109
-172.939	213.714	-0.133	0.209
-171.925	294.523	0.090	0.164
-170.910	90.278	-0.047	0.052
-169.896	94.518	0.045	-0.051
-168.881	31.502	-0.013	0.011
-167.866	97.034	-0.233	-0.266
-166.852	-92.007	-0.179	0.050
-165.837	-106.418	0.268	-0.060
-164.823	-200.000	-0.025	0.160
-163.808	30.509	0.187	0.159
-162.793	84.728	-0.111	-0.121
-161.779	113.349	0.105	0.126
-160.764	-6.395	-0.097	0.066
-159.750	-175.612	0.109	0.003
-158.735	-131.575	-0.228	0.030
-157.720	418.902	-0.010	0.022
-156.706	-200.000	-0.001	0.274
-155.691	-9.388	-0.218	-0.144
-154.677	242.575	0.185	-0.308
-153.662	-110.766	0.228	-0.047
-152.647	46.572	-0.151	0.139
-151.633	9.921	-0.068	-0.052
-150.618	51.123	-0.202	-0.190
-149.604	-200.000	0.014	0.074
-148.589	-80.824	-0.231	-0.076
-147.574	735.014	0.101	0.269
-146.560	-200.000	-0.046	-0.337
-145.545	44.741	0.135	0.123
-144.531	-114.234	-0.028	0.005
-143.516	-128.844	-0.164	0.023
-142.502	-44.612	0.131	-0.065
-141.487	12.924	0.062	0.048
-140.472	24.125	-0.185	0.152
-139.458	-0.512	-0.117	-0.083
-138.443	-200.000	-0.015	0.100
-137.429	-149.751	0.346	0.027
-136.414	800.000	0.043	-0.181
-135.399	-200.000	-0.001	-0.086
-134.385	-99.285	-0.315	0.079
-133.370	454.297	0.110	0.243
-132.356	41.544	-0.174	-0.156
-131.341	621.882	0.159	0.398
-130.326	605.080	-0.061	0.151
-129.312	800.000	-0.033	0.117
-128.297	-17.657	0.059	-0.037
-127.283	57.046	-0.100	0.096
-126.268	208.934	-0.072	-0.112
-125.253	587.845	-0.099	-0.242
-124.239	-75.327	-0.329	-0.116
-123.224	-200.000	-0.080	0.604
-122.210	-86.998	0.561	-0.170
-121.195	376.393	-0.066	-0.133
-120.180	-200.000	-0.057	-0.423
-119.166	-200.000	-0.017	-0.281
-118.151	-200.000	-0.025	-0.358
-117.137	187.393	-0.122	-0.181
-116.122	502.471	-0.028	-0.065
-115.107	-82.421	0.309	-0.100
-114.093	338.289	-0.071	0.137
-113.078	800.000	0.035	-0.118
-112.064	-200.000	-0.025	0.434
-111.049	-16.942	0.249	-0.156
-110.034	-42.204	-0.226	-0.115
-109.020	78.398	0.225	0.239
-108.005	-200.000	-0.084	0.375
-106.991	223.800	0.153	-0.244
-105.976	-44.900	-0.051	-0.025
-104.962	71.904	0.223	0.229
-103.947	-55.644	-0.323	-0.143
-102.932	-200.000	-0.035	-0.286
-101.918	86.969	0.126	-0.138
-100.903	134.690	-0.092	-0.118
-99.889	-83.106	0.207	0.066
-98.874	-30.384	-0.168	-0.095
-97.859	-200.000	0.044	-0.209
-96.845	-146.722	0.105	0.009
-95.830	131.555	-0.079	-0.100
-94.816	323.757	0.147	0.277
-93.801	-88.636	0.576	0.170
-92.786	79.596	-0.096	0.102
-91.772	152.852	-0.096	-0.130
-90.757	-121.518	-0.259	0.043
-89.743	137.756	0.089	0.116
-88.728	-200.000	0.002	0.064
-87.713	800.000	-0.048	-0.196
-86.699	-111.887	0.342	0.068
-85.684	800.000	-0.075	-0.209
-84.670	228.691	-0.029	0.047
-83.655	222.312	-0.106	0.168
-82.640	-143.696	-0.267	0.025
-81.626	-200.000	-0.029	-0.151
-80.611	114.792	0.062	0.075
-79.597	0.089	-0.272	0.192
-78.582	-4.378	-0.187	0.128
-77.567	45.179	-0.146	0.133
-76.553	800.000	0.063	0.230
-75.538	-63.520	0.096	-0.039
-74.524	-15.110	-0.207	0.131
-73.509	22.879	0.213	0.173
-72.494	-64.150	0.111	0.045
-71.480	170.990	0.113	0.161
-70.465	-47.077	0.229	-0.111
-69.451	800.000	0.034	0.106
-68.436	-106.777	-0.201	-0.044
-67.422	-74.533	0.246	-0.088
-66.407	-122.555	-0.050	0.008
-65.392	-86.462	0.253	-0.077
-64.378	-140.529	-0.152	0.016
-63.363	-200.000	0.014	0.143
-62.349	11.846	0.135	0.103
-61.334	166.568	-0.412	-0.577
-60.319	-37.543	0.499	0.263
-59.305	-200.000	-0.045	-1.121
-58.290	800.000	0.317	1.194
-57.276	329.687	0.649	1.234
-56.261	-200.000	90.482	521.282
-55.246	556.625	1392.228	3316.803
-54.232	185.410	2612.195	3834.883
-53.217	113.755	2322.950	2790.822
-52.203	44.700	1932.979	1757.478
-51.188	38.665	1719.067	1516.408
-50.173	35.891	1674.077	1455.719
-49.159	51.594	1720.073	1616.415
-48.144	55.079	1739.049	1660.911
-47.130	38.555	1695.925	1494.917
-46.115	35.500	1681.523	1458.997
-45.100	35.325	1676.826	1453.537
-44.086	35.345	1673.777	1450.984
-43.071	35.303	1671.523	1448.658
-42.057	35.239	1669.106	1446.023
-41.042	35.370	1666.795	1444.948
-40.027	35.317	1665.296	1443.193
-39.013	35.353	1663.091	1441.492
-37.998	35.269	1661.771	1439.662
-36.984	35.349	1660.514	1439.117
-35.969	35.542	1658.811	1439.030
-34.954	35.506	1657.253	1437.350
-33.940	35.442	1655.450	1435.252
-32.925	35.387	1653.757	1433.319
-31.911	35.416	1652.056	1432.001
-30.896	35.491	1650.265	1430.950
-29.881	35.491	1648.375	1429.256
-28.867	35.430	1647.006	1427.557
-27.852	35.417	1645.792	1426.355
-26.838	35.422	1644.441	1425.160
-25.823	35.492	1642.610	1424.037
-24.809	35.446	1641.628	1422.788
-23.794	35.439	1639.915	1421.195
-22.779	35.432	1638.586	1419.937
-21.765	35.517	1636.540	1418.734
-20.750	35.479	1635.372	1417.384
-19.736	35.543	1633.614	1416.276
-18.721	35.547	1631.922	1414.787
-17.706	35.540	1630.752	1413.665
-16.692	35.483	1628.996	1411.664
-15.677	35.469	1627.543	1410.247
-14.663	35.433	1626.603	1409.114
-13.648	35.460	1625.199	1408.038
-12.633	35.429	1623.455	1406.248
-11.619	35.500	1621.960	1405.411
-10.604	35.536	1620.042	1403.956
-9.590	35.398	1619.403	1402.344
-8.575	35.531	1617.730	1401.808
-7.560	35.461	1616.516	1400.188
-6.546	35.501	1615.366	1399.428
-5.531	35.506	1614.270	1398.460
-4.517	35.460	1613.253	1397.192
-3.502	35.468	1612.399	1396.449
-2.487	35.481	1611.017	1395.293
-1.473	35.670	1600.764	1387.724
-0.458	33.976	1582.174	1359.452
0.556	32.744	1581.832	1325.554
1.571	29.419	1604.079	1320.329
2.586	27.547	1615.138	1315.810
3.600	23.615	1559.816	1243.148
4.615	14.447	1447.266	1093.479
5.629	6.362	1380.223	991.971
6.644	4.773	1371.678	975.784
7.659	4.715	1370.501	974.501
8.673	4.897	1368.773	974.321
9.688	4.826	1367.434	972.841
10.702	4.963	1364.820	971.750
11.717	8.499	1372.222	999.064
12.731	17.007	1387.762	1063.854
13.746	22.348	1395.922	1103.604
14.761	22.432	1394.936	1103.255
15.775	21.586	1392.564	1095.984
16.790	20.466	1390.195	1087.021
17.804	19.690	1387.712	1080.136
18.819	19.374	1386.480	1077.109
19.834	19.180	1385.858	1075.320
20.848	18.982	1384.391	1072.849
21.863	18.830	1383.337	1070.987
22.877	18.713	1381.988	1069.125
23.892	18.632	1380.713	1067.538
24.907	18.705	1379.977	1067.329
25.921	18.723	1378.720	1066.374
26.936	18.683	1378.081	1065.539
27.950	18.784	1376.955	1065.198
28.965	18.848	1376.395	1065.069
29.980	18.894	1375.392	1064.480
30.994	18.959	1373.897	1063.632
32.009	18.986	1373.165	1063.137
33.023	18.995	1371.987	1062.187
34.038	18.971	1370.024	1060.426
35.053	18.901	1368.994	1059.105
36.067	18.856	1367.666	1057.709
37.082	18.890	1367.100	1057.384
38.096	18.910	1366.077	1056.623
39.111	18.969	1365.165	1056.187
40.126	18.882	1364.448	1055.002
41.140	18.614	1362.946	1052.105
42.155	18.350	1362.513	1050.060
43.169	18.477	1362.295	1050.578
44.184	18.413	1362.279	1050.077
45.199	18.508	1361.782	1050.184
46.213	18.583	1361.380	1050.239
47.228	18.745	1360.875	1050.750
48.242	18.829	1359.389	1050.023
49.257	18.722	1357.869	1048.106
50.271	18.742	1356.340	1046.953
51.286	18.766	1355.274	1046.183
52.301	18.790	1354.160	1045.375
53.315	18.632	1352.989	1043.420
54.330	18.561	1351.890	1042.051
55.344	18.552	1350.632	1040.930
56.359	18.579	1349.449	1040.093
57.374	18.437	1349.254	1038.990
58.388	18.426	1347.509	1037.485
59.403	18.396	1347.156	1036.939
60.417	18.354	1346.769	1036.297
61.432	18.304	1345.617	1035.016
62.447	18.300	1344.501	1034.042
63.461	18.153	1343.785	1032.510
64.476	18.186	1342.104	1031.330
65.490	18.099	1340.810	1029.716
66.505	18.231	1339.549	1029.451
67.520	18.311	1338.016	1028.664
68.534	18.330	1336.773	1027.735
69.549	18.305	1336.376	1027.188
70.563	18.285	1335.393	1026.223
71.578	18.086	1334.041	1023.899
72.593	18.024	1333.443	1022.975
73.607	17.995	1332.671	1022.120
74.622	18.047	1332.054	1021.869
75.636	18.153	1330.934	1021.555
76.651	18.090	1330.818	1020.996
77.666	18.171	1330.063	1020.811
78.680	18.244	1329.715	1020.890
79.695	18.348	1328.627	1020.583
80.709	18.379	1328.221	1020.365
81.724	18.494	1328.187	1020.935
82.739	18.559	1326.749	1020.125
83.753	18.648	1326.244	1020.177
84.768	18.798	1325.103	1020.097
85.782	18.856	1324.152	1019.620
86.797	18.909	1322.955	1018.920
87.812	18.661	1322.066	1016.678
88.826	18.713	1320.343	1015.571
89.841	18.767	1319.822	1015.403
90.855	18.941	1318.131	1015.038
91.870	18.857	1318.218	1014.520
92.884	19.020	1316.571	1014.121
93.899	18.953	1316.011	1013.208
94.914	19.049	1315.577	1013.345
95.928	19.008	1314.603	1012.264
96.943	19.071	1313.377	1011.601
97.957	19.019	1312.524	1010.550
98.972	18.926	1311.369	1009.028
99.987	18.897	1310.710	1008.258
101.001	18.794	1310.081	1007.081
102.016	18.825	1309.248	1006.534
103.030	18.882	1307.934	1005.771
104.045	18.930	1307.146	1005.355
105.060	18.812	1305.682	1003.453
106.074	18.528	1304.372	1000.699
107.089	18.363	1302.523	998.230
108.103	18.304	1301.409	996.946
109.118	18.288	1300.304	995.916
110.133	18.398	1298.735	995.266
111.147	18.388	1297.413	994.107
112.162	18.301	1296.260	992.632
113.176	18.349	1295.149	991.967
114.191	18.437	1294.931	992.226
115.206	18.491	1293.569	991.403
116.220	18.321	1292.116	989.224
117.235	18.472	1290.672	988.903
118.249	18.352	1290.055	987.648
119.264	18.308	1289.034	986.523
120.279	18.261	1287.679	985.131
121.293	18.263	1286.590	984.219
122.308	18.265	1285.316	983.169
123.322	18.159	1284.176	981.604
124.337	17.987	1283.663	980.136
125.352	18.129	1282.280	979.811
126.366	18.069	1281.042	978.436
127.381	18.009	1280.303	977.442
128.395	18.099	1279.113	976.961
129.410	18.296	1278.148	977.258
130.424	18.260	1278.303	977.088
131.439	18.337	1277.380	976.733
132.454	18.363	1276.331	975.994
133.468	18.497	1275.003	975.657
134.483	18.372	1274.611	974.558
135.497	18.495	1273.637	974.428
136.512	18.483	1272.221	973.189
137.527	18.525	1270.577	972.084
138.541	18.520	1269.582	971.210
139.556	18.538	1268.550	970.435
140.570	18.541	1267.895	969.861
141.585	18.641	1266.382	969.184
142.600	18.827	1265.353	969.360
143.614	18.901	1264.378	968.946
144.629	18.956	1263.468	968.474
145.643	18.952	1262.223	967.408
146.658	18.788	1260.726	965.253
147.673	18.735	1259.162	963.672
148.687	18.622	1258.009	962.073
149.702	18.501	1256.630	960.254
150.716	18.373	1255.646	958.703
151.731	18.351	1254.542	957.653
152.746	18.499	1253.047	957.253
153.760	18.562	1251.910	956.654
154.775	18.558	1251.089	955.919
155.789	18.831	1249.612	956.224
156.804	18.752	1248.832	955.103
157.819	18.881	1247.909	955.031
158.833	18.865	1247.489	954.533
159.848	18.967	1246.454	954.221
160.862	19.008	1245.620	953.730
161.877	18.695	1243.896	950.589
162.892	18.494	1242.818	948.568
163.906	18.557	1242.131	948.309
164.921	18.416	1241.016	946.594
165.935	18.559	1240.348	946.793
166.950	18.630	1239.510	946.460
167.964	18.612	1239.162	946.014
168.979	18.648	1237.725	945.032
169.994	18.606	1237.317	944.401
171.008	18.625	1237.011	944.188
172.023	18.830	1235.725	944.255
173.037	18.958	1234.778	944.146
174.052	18.943	1233.680	943.140
175.067	18.726	1232.568	941.021
176.081	18.563	1231.682	939.366
177.096	18.532	1230.862	938.490
178.110	18.571	1229.817	937.824
179.125	18.659	1228.476	937.198
180.140	18.707	1227.242	936.436
181.154	18.782	1225.889	935.730
182.169	18.869	1225.091	935.509
183.183	18.960	1224.177	935.225
184.198	19.031	1222.787	934.465
185.213	18.956	1222.278	933.590
186.227	19.063	1221.214	933.270
187.242	19.121	1220.124	932.670
188.256	19.121	1219.415	932.050
189.271	19.208	1218.125	931.448
190.286	19.003	1216.814	929.257
191.300	18.676	1215.718	926.570
192.315	18.518	1215.045	925.123
193.329	18.638	1214.243	925.079
194.344	18.664	1214.053	924.991
195.359	18.791	1213.347	925.059
196.373	18.884	1212.952	925.174
197.388	18.971	1212.881	925.508
198.402	19.124	1212.566	926.008
199.417	19.183	1212.116	925.898
200.432	19.293	1211.037	925.583
201.446	19.428	1210.540	925.845
202.461	19.477	1209.026	924.872
203.475	19.522	1208.330	924.496
204.490	19.248	1207.143	922.042
205.504	19.180	1205.732	920.516
206.519	19.012	1204.794	918.823
207.534	19.138	1203.139	918.153
208.548	19.145	1202.420	917.560
209.563	19.131	1201.742	916.885
210.577	19.152	1201.290	916.573
211.592	19.236	1200.284	916.169
212.607	19.265	1199.698	915.797
213.621	19.222	1198.943	914.910
214.636	19.313	1197.815	914.452
215.650	19.278	1197.058	913.607
216.665	19.359	1196.201	913.298
217.680	19.513	1195.099	913.195
218.694	19.672	1194.285	913.331
219.709	19.538	1193.573	911.998
220.723	19.581	1192.343	911.205
221.738	19.408	1192.177	910.082
222.753	19.498	1190.997	909.579
223.767	19.352	1190.807	908.584
224.782	19.605	1189.998	909.216
225.796	19.706	1189.830	909.540
226.811	19.748	1188.487	908.653
227.826	19.460	1188.184	906.827
228.840	19.468	1187.090	905.956
229.855	19.432	1186.224	905.025
230.869	19.461	1185.674	904.678
231.884	19.404	1184.655	903.522
232.899	19.318	1183.923	902.429
233.913	19.308	1183.043	901.630
234.928	19.179	1182.410	900.390
235.942	19.211	1181.269	899.613
236.957	19.113	1180.956	898.781
237.972	19.109	1180.276	898.161
238.986	19.402	1178.842	898.518
240.001	19.248	1178.600	897.453
241.015	19.305	1177.693	896.981
242.030	19.395	1177.263	897.043
243.045	19.382	1176.322	896.176
244.059	19.505	1175.491	896.104
245.074	19.539	1174.644	895.554
246.088	19.541	1173.975	894.974
247.103	19.666	1173.448	895.144
248.117	19.706	1173.150	895.043
249.132	19.833	1172.447	895.086
250.147	20.178	1171.758	896.262
251.161	20.202	1171.162	895.851
252.176	20.215	1170.364	895.231
253.190	20.323	1169.491	895.041
254.205	20.317	1169.089	894.622
255.220	20.331	1168.685	894.307
256.234	20.220	1168.452	893.476
257.249	20.354	1167.240	893.161
258.263	20.240	1166.669	892.057
259.278	20.399	1165.978	892.268
260.293	20.223	1165.940	891.252
261.307	20.370	1165.258	891.408
262.322	20.530	1164.135	891.290
263.336	20.446	1163.790	890.521
264.351	20.484	1163.160	890.152
265.366	20.580	1162.178	889.814
266.380	20.489	1161.383	888.662
267.395	20.458	1160.636	887.850
268.409	20.384	1159.439	886.481
269.424	20.218	1159.380	885.510
270.439	20.284	1158.786	885.314
271.453	20.294	1157.446	884.261
272.468	20.115	1156.623	882.646
273.482	20.008	1156.467	881.903
274.497	20.080	1155.702	881.605
275.512	20.115	1154.925	881.116
276.526	20.117	1153.963	880.313
277.541	20.070	1153.543	879.676
278.555	20.268	1152.856	880.079
279.570	20.441	1152.051	880.265
280.585	20.541	1151.423	880.212
281.599	20.576	1150.171	879.352
282.614	20.535	1148.925	878.115
283.628	20.307	1148.145	876.289
284.643	20.228	1147.431	875.269
285.657	20.308	1146.053	874.543
286.672	20.337	1145.335	874.066
287.687	20.336	1144.451	873.307
288.701	20.257	1144.235	872.671
289.716	20.472	1142.965	872.704
290.730	20.388	1142.374	871.752
291.745	20.362	1141.849	871.145
292.760	20.523	1141.135	871.328
293.774	20.536	1140.585	870.898
294.789	20.708	1139.908	871.167
295.803	20.688	1139.070	870.350
296.818	20.573	1138.843	869.524
297.833	20.403	1137.921	867.890
298.847	20.395	1136.930	867.021
299.862	20.518	1136.046	866.880
300.876	20.588	1135.225	866.526
301.891	20.633	1135.083	866.565
302.906	20.736	1134.389	866.475
303.920	20.733	1134.011	866.091
304.935	20.947	1133.327	866.558
305.949	21.015	1132.113	865.892
306.964	21.075	1131.811	865.879
307.979	20.890	1131.248	864.456
308.993	20.950	1130.381	864.014
310.008	20.843	1129.607	862.816
311.022	21.036	1128.810	863.088
312.037	20.911	1127.777	861.603
313.052	20.796	1127.024	860.382
314.066	20.711	1125.838	858.979
315.081	20.574	1125.141	857.698
316.095	20.519	1124.007	856.487
317.110	20.480	1123.959	856.182
318.125	20.558	1122.873	855.661
319.139	20.484	1122.444	854.897
320.154	20.588	1121.624	854.707
321.168	20.625	1120.775	854.164
322.183	20.623	1120.442	853.826
323.197	20.545	1120.251	853.220
324.212	20.762	1119.062	853.305
325.227	20.728	1118.624	852.727
326.241	20.742	1118.003	852.248
327.256	20.766	1117.284	851.742
328.270	20.681	1116.214	850.434
329.285	20.664	1115.282	849.566
330.300	20.593	1114.362	848.446
331.314	20.771	1113.276	848.411
332.329	20.740	1112.748	847.784
333.343	20.781	1111.759	847.155
334.358	20.882	1111.273	847.199
335.373	20.827	1110.599	846.343
336.387	20.986	1109.753	846.396
337.402	21.090	1108.867	846.147
338.416	20.962	1108.405	845.102
339.431	21.166	1107.936	845.656
340.446	21.237	1107.561	845.640
341.460	21.385	1106.636	845.574
342.475	21.380	1105.905	844.917
343.489	21.369	1104.923	844.039
344.504	21.446	1103.977	843.612
345.519	21.519	1102.856	843.032
346.533	21.539	1102.494	842.780
347.548	21.481	1101.688	841.809
348.562	21.587	1100.569	841.390
349.577	21.400	1100.028	840.004
350.592	21.141	1098.889	837.817
351.606	21.085	1098.161	836.916
352.621	21.128	1097.444	836.504
353.635	20.950	1096.935	835.189
354.650	20.997	1096.353	834.897
355.665	21.195	1095.492	835.113
356.679	21.225	1094.794	834.650
357.694	21.130	1094.876	834.186
358.708	21.437	1093.880	834.819
359.723	21.290	1093.520	833.768
360.738	21.347	1092.003	832.812
361.752	21.412	1091.952	833.006
362.767	21.427	1091.169	832.408
363.781	21.330	1090.808	831.599
364.796	21.458	1090.353	831.784
365.810	21.562	1089.946	831.895
366.825	21.728	1089.481	832.255
367.840	21.800	1088.966	832.129
368.854	21.827	1088.504	831.832
369.869	21.911	1087.441	831.342
370.883	21.732	1086.436	829.656
371.898	21.629	1085.593	828.449
372.913	21.683	1085.363	828.456
373.927	21.643	1084.901	827.843
374.942	21.945	1084.287	828.728
375.956	21.803	1083.623	827.476
376.971	21.592	1083.348	826.198
377.986	21.790	1082.582	826.473
379.000	22.073	1081.536	826.931
380.015	21.971	1081.463	826.324
381.029	22.031	1080.784	826.015
382.044	22.012	1080.270	825.459
383.059	21.914	1079.492	824.332
384.073	21.937	1078.457	823.579
385.088	22.010	1077.650	823.230
386.102	22.005	1076.762	822.453
387.117	21.856	1075.454	820.684
388.132	21.709	1074.427	819.144
389.146	21.770	1073.524	818.666
390.161	21.632	1073.337	817.806
391.175	21.782	1072.326	817.666
392.190	21.774	1072.237	817.486
393.205	21.908	1070.837	816.973
394.219	21.919	1070.720	816.859
395.234	21.897	1069.329	815.624
396.248	21.889	1068.368	814.780
397.263	21.960	1067.142	814.103
398.278	21.672	1066.771	812.414
399.292	21.614	1065.794	811.329
400.307	21.571	1065.096	810.527
401.321	21.655	1064.403	810.318
402.336	21.701	1063.869	810.053
403.350	21.586	1063.323	809.034
404.365	21.778	1062.525	809.241
405.380	21.847	1061.812	808.946
406.394	21.942	1061.088	808.756
407.409	21.996	1060.368	808.387
408.423	22.052	1060.064	808.342
409.438	22.168	1059.035	808.016
410.453	22.123	1058.516	807.344
411.467	22.258	1058.022	807.516
412.482	22.395	1057.063	807.341
413.496	22.275	1056.841	806.551
414.511	22.363	1056.344	806.502
415.526	22.496	1055.816	806.637
416.540	22.558	1055.563	806.656
417.555	22.626	1054.452	806.047
418.569	22.555	1053.994	805.302
419.584	22.486	1053.525	804.558
420.599	22.417	1052.935	803.718
421.613	153.147	1399.567	1787.537
422.628	140.599	1450.085	1787.657
