DTS Sentinel unit serial number:	SN413079Multiplexer serial number:	ORYXHardware model number:	OX4-SRSoftware version number:	ORYX F/W v4.00 Oryx Data Collector v3.7.2.0data status	okinstallation	princeton_trtdifferential loss correction	single-endedforward channel	channel 2reverse channel	N/Adate	2019/09/16time	09:35:34forward acquisition time	60.00reverse acquisition time	0.00gamma	496.2192k internal	0.2324k external	0.2324temperature offset calibration	0.9965default loss term (dB/km)	0.3790temperature slope calibration	1.0000multiplexer offset coefficient	1.0000multiplexer slope coefficient	1.0000fibre end	0.00T internal ref (°C)	32.08T ext. ref 1 (°C)	12.25T ext. ref 2 (°C)	29.89length (m)	temperature (°C)	Stokes	anti-Stokes-747.200	183.416	0.121	-0.181
-746.185	800.000	-0.056	0.175
-745.171	170.016	-0.152	0.220
-744.156	274.737	0.034	0.061
-743.142	-113.866	0.213	0.042
-742.127	-69.145	0.047	0.018
-741.112	-75.335	-0.156	-0.056
-740.098	373.866	0.084	0.172
-739.083	-30.015	-0.196	-0.112
-738.069	62.848	-0.130	0.131
-737.054	112.218	0.139	-0.170
-736.039	-124.112	-0.281	0.045
-735.025	-27.399	0.316	0.186
-734.010	-200.000	-0.028	-0.263
-732.996	-70.538	-0.530	-0.202
-731.981	-147.171	-0.128	0.011
-730.966	800.000	0.121	-0.524
-729.952	800.000	-0.110	-0.312
-728.937	-119.041	-0.406	0.072
-727.923	143.913	0.026	-0.036
-726.908	299.561	-0.142	0.263
-725.894	800.000	-0.051	-0.196
-724.879	280.726	-0.149	-0.270
-723.864	50.752	-0.200	-0.191
-722.850	-5.690	0.113	0.078
-721.835	-200.000	-0.065	0.431
-720.821	57.976	-0.127	-0.126
-719.806	87.557	0.066	0.073
-718.791	-100.552	0.452	-0.113
-717.777	120.330	-0.139	0.174
-716.762	-92.808	0.275	-0.077
-715.748	-43.172	-0.387	-0.198
-714.733	-154.555	0.105	-0.007
-713.718	-29.125	0.086	0.050
-712.704	270.308	-0.031	0.054
-711.689	-200.000	-0.023	0.268
-710.675	-200.000	0.012	0.169
-709.660	-200.000	0.016	0.099
-708.645	-200.000	0.020	-0.148
-707.631	800.000	-0.129	-0.484
-706.616	-138.910	0.163	-0.018
-705.602	-105.551	-0.268	0.061
-704.587	-33.497	-0.237	0.132
-703.572	-200.000	0.066	0.301
-702.558	38.141	-0.126	-0.113
-701.543	456.137	0.038	0.085
-700.529	-14.388	-0.267	0.173
-699.514	166.629	0.071	0.101
-698.499	800.000	0.048	-0.185
-697.485	800.000	-0.094	-0.389
-696.470	93.205	-0.159	-0.181
-695.456	-119.524	-0.429	0.075
-694.441	-124.156	-0.114	0.018
-693.426	-180.186	-0.171	-0.004
-692.412	399.612	0.147	-0.310
-691.397	-69.255	0.156	-0.061
-690.383	36.071	-0.317	0.281
-689.368	-146.939	0.409	-0.035
-688.354	121.227	-0.131	-0.164
-687.339	90.141	0.052	0.059
-686.324	-71.029	0.299	0.113
-685.310	-22.427	-0.065	-0.040
-684.295	-169.171	0.272	-0.010
-683.281	594.939	0.130	0.324
-682.266	48.575	-0.068	-0.064
-681.251	159.930	-0.069	0.097
-680.237	11.571	-0.254	-0.196
-679.222	-149.574	-0.100	-0.008
-678.208	-51.991	0.187	0.087
-677.193	6.529	-0.227	0.170
-676.178	-200.000	0.027	-0.185
-675.164	94.918	-0.198	0.227
-674.149	148.049	-0.157	0.213
-673.135	-92.820	-0.259	-0.073
-672.120	677.900	-0.016	-0.042
-671.105	-49.928	0.116	0.055
-670.091	-84.683	0.423	-0.134
-669.076	31.715	-0.096	-0.083
-668.062	83.516	0.157	-0.172
-667.047	467.146	0.062	0.141
-666.032	241.763	-0.089	-0.150
-665.018	-83.990	-0.213	-0.068
-664.003	-101.641	-0.344	-0.084
-662.989	-200.000	0.054	-0.288
-661.974	302.961	-0.086	0.160
-660.959	-200.000	-0.048	0.294
-659.945	-200.000	0.085	-0.435
-658.930	-29.395	0.148	0.085
-657.916	-200.000	0.009	-0.276
-656.901	-115.358	-0.251	-0.048
-655.886	6.585	0.230	-0.172
-654.872	-166.106	0.255	0.011
-653.857	159.780	-0.045	-0.063
-652.843	-18.550	-0.128	0.081
-651.828	-33.059	0.105	-0.059
-650.814	151.142	-0.111	0.152
-649.799	154.962	0.085	-0.117
-648.784	239.901	-0.086	0.144
-647.770	-45.301	-0.302	0.151
-646.755	701.638	-0.066	-0.175
-645.741	-85.831	-0.361	0.112
-644.726	156.159	0.085	0.118
-643.711	27.112	0.123	-0.104
-642.697	-200.000	-0.042	-0.263
-641.682	178.985	-0.161	0.237
-640.668	-200.000	0.001	0.037
-639.653	-24.387	-0.145	-0.087
-638.638	800.000	0.054	0.190
-637.624	-175.504	0.198	-0.005
-636.609	-22.883	-0.172	-0.104
-635.595	-63.653	-0.089	0.037
-634.580	28.983	-0.170	0.145
-633.565	153.196	-0.131	-0.181
-632.551	468.677	0.149	0.337
-631.536	-117.541	-0.223	0.040
-630.522	-130.444	-0.085	0.011
-629.507	37.294	0.140	0.124
-628.492	43.143	-0.169	0.155
-627.478	-60.581	0.304	-0.130
-626.463	388.820	0.063	-0.132
-625.449	-27.836	0.528	-0.308
-624.434	276.403	-0.179	0.320
-623.419	-200.000	-0.039	-0.333
-622.405	-121.378	-0.214	0.036
-621.390	800.000	-0.041	0.131
-620.376	800.000	-0.043	0.168
-619.361	43.843	-0.059	-0.054
-618.346	-39.041	-0.258	0.136
-617.332	684.485	-0.053	0.140
-616.317	83.632	0.128	-0.141
-615.303	108.358	0.178	-0.214
-614.288	302.900	0.038	0.070
-613.273	-93.079	0.134	-0.037
-612.259	-200.000	0.020	-0.248
-611.244	76.318	-0.159	-0.169
-610.230	-200.000	-0.028	0.282
-609.215	-200.000	-0.014	-0.104
-608.201	-137.002	-0.106	0.012
-607.186	-200.000	-0.002	-0.009
-606.171	800.000	-0.026	0.111
-605.157	20.595	0.187	0.152
-604.142	49.054	0.129	0.121
-603.128	800.000	-0.031	-0.094
-602.113	-200.000	-0.019	-0.299
-601.098	-200.000	0.005	-0.077
-600.084	-87.734	-0.091	0.028
-599.069	233.752	-0.160	-0.264
-598.055	29.441	0.093	0.080
-597.040	157.264	-0.184	0.256
-596.025	-98.354	0.199	-0.051
-595.011	127.683	0.253	0.323
-593.996	-104.139	0.078	0.018
-592.982	42.533	-0.107	-0.098
-591.967	-131.135	0.224	0.030
-590.952	-141.762	0.161	0.016
-589.938	-200.000	0.004	0.165
-588.923	129.482	0.203	-0.260
-587.909	-129.092	-0.340	-0.048
-586.894	-67.132	0.108	-0.043
-585.879	-80.980	-0.181	-0.060
-584.865	422.696	0.137	0.294
-583.850	-131.474	-0.369	0.049
-582.836	429.670	0.079	-0.171
-581.821	580.889	-0.076	-0.187
-580.806	543.170	0.089	0.213
-579.792	800.000	0.074	0.320
-578.777	-200.000	-0.025	-0.174
-577.763	11.147	0.279	0.214
-576.748	-88.422	0.306	0.092
-575.733	359.219	0.074	-0.148
-574.719	-70.138	0.146	-0.056
-573.704	-200.000	0.037	-0.290
-572.690	35.780	-0.208	-0.183
-571.675	-140.099	0.192	-0.020
-570.661	89.591	-0.098	0.109
-569.646	-200.000	0.049	0.235
-568.631	800.000	0.054	-0.221
-567.617	511.593	0.151	-0.353
-566.602	-200.000	0.020	-0.278
-565.588	-200.000	-0.007	-0.072
-564.573	-50.759	0.080	0.038
-563.558	-2.456	-0.106	0.075
-562.544	19.012	-0.144	0.116
-561.529	28.826	0.152	0.129
-560.515	-200.000	-0.038	-0.335
-559.500	-50.035	-0.350	-0.166
-558.485	800.000	0.106	0.360
-557.471	800.000	0.010	-0.036
-556.456	800.000	-0.146	-0.493
-555.442	-200.000	-0.015	-0.192
-554.427	-91.944	-0.061	0.017
-553.412	800.000	0.098	0.426
-552.398	-43.426	-0.127	0.064
-551.383	180.823	-0.186	0.274
-550.369	167.550	-0.050	-0.072
-549.354	263.514	-0.156	-0.271
-548.339	-137.473	-0.117	0.013
-547.325	11.881	0.250	-0.193
-546.310	-189.763	-0.149	-0.002
-545.296	-33.302	0.218	-0.121
-544.281	-12.665	-0.106	-0.069
-543.266	94.997	-0.133	-0.151
-542.252	794.212	0.030	-0.082
-541.237	532.666	-0.078	0.186
-540.223	440.515	0.138	0.302
-539.208	64.596	-0.254	0.257
-538.193	165.566	0.056	0.079
-537.179	-85.873	0.057	-0.018
-536.164	-160.589	0.248	0.013
-535.150	-200.000	0.075	0.405
-534.135	-13.675	-0.290	0.188
-533.121	21.132	0.082	0.067
-532.106	800.000	0.067	0.201
-531.091	3.126	-0.030	-0.022
-530.077	-131.952	-0.129	-0.017
-529.062	71.630	0.262	0.272
-528.048	229.239	0.073	0.119
-527.033	-120.311	0.070	0.012
-526.018	-200.000	0.048	0.249
-525.004	174.664	0.176	-0.254
-523.989	-89.006	-0.158	0.047
-522.975	513.763	-0.046	-0.108
-521.960	-65.312	0.055	-0.022
-520.945	406.078	-0.060	0.128
-519.931	61.354	-0.243	-0.242
-518.916	118.071	-0.174	0.215
-517.902	212.603	-0.148	0.234
-516.887	-39.473	0.030	-0.016
-515.872	-109.786	0.084	0.018
-514.858	8.599	-0.125	-0.094
-513.843	-149.809	-0.218	0.017
-512.829	-40.146	-0.377	0.196
-511.814	-119.771	0.086	0.015
-510.799	41.139	-0.215	-0.194
-509.785	800.000	-0.131	-0.385
-508.770	-200.000	0.071	-0.374
-507.756	557.021	0.144	0.347
-506.741	678.416	-0.016	-0.042
-505.726	-130.621	0.245	0.033
-504.712	-200.000	-0.003	0.112
-503.697	-131.831	0.224	0.029
-502.683	270.797	-0.257	-0.452
-501.668	-48.061	-0.227	0.110
-500.653	-200.000	-0.021	0.113
-499.639	-200.000	0.030	-0.160
-498.624	800.000	-0.022	-0.071
-497.610	-70.863	0.088	-0.033
-496.595	8.625	-0.169	-0.127
-495.581	412.206	-0.053	0.112
-494.566	800.000	0.099	-0.414
-493.551	-200.000	-0.006	-0.382
-492.537	-161.359	0.240	0.012
-491.522	800.000	0.047	0.178
-490.508	-78.206	-0.319	0.110
-489.493	-186.280	0.149	0.002
-488.478	506.122	0.035	-0.081
-487.464	-200.000	-0.053	0.286
-486.449	-100.523	-0.258	0.064
-485.435	-200.000	0.055	0.321
-484.420	-200.000	-0.020	-0.133
-483.405	155.615	0.131	-0.181
-482.391	469.231	-0.113	-0.253
-481.376	275.924	0.024	-0.043
-480.362	-76.212	0.204	0.072
-479.347	800.000	-0.028	0.110
-478.332	3.255	-0.081	-0.059
-477.318	150.531	-0.152	-0.206
-476.303	156.577	0.090	-0.125
-475.289	-200.000	-0.040	0.357
-474.274	-52.324	0.280	0.129
-473.259	-200.000	0.047	-0.221
-472.245	-200.000	-0.001	-0.201
-471.230	-200.000	-0.026	0.245
-470.216	250.820	0.109	0.184
-469.201	104.209	0.253	0.297
-468.186	75.517	-0.160	-0.169
-467.172	-127.511	0.208	0.030
-466.157	-19.598	-0.165	0.102
-465.143	660.539	0.029	0.073
-464.128	-168.512	0.092	0.003
-463.113	-170.151	-0.220	-0.008
-462.099	-124.400	-0.082	0.013
-461.084	-200.000	0.019	0.276
-460.070	-9.771	0.194	0.129
-459.055	800.000	0.022	0.097
-458.040	-91.555	-0.396	0.113
-457.026	83.714	0.142	-0.154
-456.011	-130.977	0.329	0.044
-454.997	166.179	0.160	0.227
-453.982	-73.237	0.149	0.054
-452.968	62.746	0.175	-0.175
-451.953	223.199	0.233	0.375
-450.938	356.534	0.050	-0.099
-449.924	28.756	-0.256	-0.216
-448.909	579.300	0.019	-0.046
-447.895	-66.113	0.096	-0.038
-446.880	-161.556	-0.155	0.008
-445.865	31.750	-0.047	-0.040
-444.851	-65.233	-0.168	0.068
-443.836	800.000	-0.062	0.187
-442.822	-22.316	-0.153	0.092
-441.807	-175.885	0.181	0.005
-440.792	-28.203	-0.056	-0.032
-439.778	-152.119	0.194	0.014
-438.763	-200.000	0.005	-0.088
-437.749	-200.000	0.021	-0.304
-436.734	18.144	-0.266	0.212
-435.719	-150.435	0.115	0.009
-434.705	-79.628	0.366	-0.123
-433.690	-37.202	0.157	0.084
-432.676	-129.077	0.128	0.018
-431.661	94.786	0.059	-0.067
-430.646	78.628	0.123	-0.131
-429.632	8.828	-0.304	-0.228
-428.617	-46.794	0.096	-0.047
-427.603	48.933	0.207	0.194
-426.588	385.098	-0.181	0.372
-425.573	-89.153	0.063	-0.019
-424.559	18.401	-0.113	0.090
-423.544	242.067	-0.138	-0.230
-422.530	-200.000	-0.025	0.122
-421.515	800.000	-0.068	-0.193
-420.500	7.491	0.111	-0.083
-419.486	-72.677	-0.144	0.053
-418.471	-173.608	-0.350	0.010
-417.457	680.746	0.035	-0.092
-416.442	-28.558	-0.185	0.106
-415.428	268.239	0.039	0.069
-414.413	33.626	0.173	0.150
-413.398	-35.434	-0.351	0.190
-412.384	-51.956	0.137	-0.063
-411.369	-200.000	0.005	0.181
-410.355	6.232	0.150	0.111
-409.340	36.228	0.222	0.195
-408.325	-200.000	0.007	-0.113
-407.311	-94.753	0.255	0.069
-406.296	-200.000	0.088	0.419
-405.282	-200.000	-0.005	0.176
-404.267	90.867	0.079	0.088
-403.252	253.604	-0.086	-0.147
-402.238	-17.003	-0.088	-0.055
-401.223	-114.074	0.097	0.019
-400.209	29.647	-0.361	0.306
-399.194	114.426	0.132	0.160
-398.179	77.838	-0.049	0.052
-397.165	217.482	0.140	-0.221
-396.150	-200.000	0.077	-0.362
-395.136	-187.841	-0.212	0.003
-394.121	365.636	0.166	0.333
-393.106	-32.605	0.280	-0.155
-392.092	289.328	-0.181	-0.326
-391.077	44.246	0.176	0.161
-390.063	111.986	0.092	-0.111
-389.048	800.000	0.038	-0.165
-388.033	322.056	0.113	-0.214
-387.019	800.000	0.071	-0.200
-386.004	-6.875	0.150	0.102
-384.990	-104.484	-0.408	0.094
-383.975	230.809	-0.132	-0.215
-382.960	381.492	-0.090	-0.185
-381.946	-13.555	0.092	-0.060
-380.931	-200.000	0.024	0.235
-379.917	-72.949	-0.141	0.052
-378.902	-104.459	0.222	0.051
-377.888	11.717	-0.102	-0.078
-376.873	54.426	-0.127	-0.122
-375.858	-200.000	0.028	-0.359
-374.844	-200.000	-0.010	0.302
-373.829	-12.096	0.094	0.061
-372.815	51.430	-0.039	-0.037
-371.800	46.609	0.086	-0.079
-370.785	-200.000	0.076	0.373
-369.771	-95.213	-0.137	0.037
-368.756	-35.693	0.213	-0.115
-367.742	8.178	0.196	-0.147
-366.727	-159.633	0.163	-0.009
-365.712	-200.000	-0.022	0.315
-364.698	800.000	0.087	-0.250
-363.683	-34.559	0.140	-0.076
-362.669	-76.732	-0.133	0.046
-361.654	-62.019	-0.447	-0.186
-360.639	783.957	0.089	-0.243
-359.625	-45.034	0.096	-0.048
-358.610	-200.000	0.038	-0.184
-357.596	-87.401	-0.444	0.134
-356.581	155.088	0.055	-0.076
-355.566	-200.000	0.000	0.204
-354.552	-117.549	-0.252	0.045
-353.537	800.000	0.078	0.332
-352.523	800.000	-0.027	0.100
-351.508	-200.000	-0.074	-0.358
-350.493	800.000	0.076	0.210
-349.479	-99.483	0.118	0.030
-348.464	7.512	0.172	-0.128
-347.450	99.213	0.150	0.173
-346.435	368.446	-0.088	0.177
-345.420	75.725	-0.042	0.044
-344.406	-51.564	-0.115	-0.053
-343.391	-45.314	0.150	-0.074
-342.377	-64.577	0.077	0.031
-341.362	-200.000	0.084	-0.482
-340.348	-200.000	-0.005	-0.191
-339.333	-200.000	0.011	-0.143
-338.318	50.022	-0.324	-0.304
-337.304	800.000	-0.014	-0.052
-336.289	-200.000	-0.086	0.383
-335.275	800.000	-0.136	0.385
-334.260	119.511	0.251	0.309
-333.245	-144.078	0.284	0.026
-332.231	-13.562	-0.249	-0.160
-331.216	800.000	-0.095	-0.289
-330.202	-200.000	-0.227	-0.000
-329.187	-73.442	-0.320	0.116
-328.172	583.474	-0.035	-0.085
-327.158	800.000	0.048	-0.194
-326.143	-29.160	-0.142	0.081
-325.129	26.808	-0.126	0.105
-324.114	78.108	0.123	-0.131
-323.099	178.936	0.065	0.094
-322.085	-108.445	0.211	0.045
-321.070	-200.000	0.005	0.059
-320.056	781.604	-0.087	-0.236
-319.041	307.978	-0.148	0.275
-318.026	-94.882	-0.310	0.083
-317.012	-171.757	0.421	0.014
-315.997	320.576	-0.154	0.290
-314.983	-200.000	0.038	0.264
-313.968	-15.198	0.239	-0.152
-312.953	-200.000	0.015	-0.119
-311.939	-68.913	-0.219	0.084
-310.924	-200.000	0.016	-0.128
-309.910	800.000	0.027	0.090
-308.895	176.397	-0.029	0.042
-307.880	800.000	0.079	0.288
-306.866	-104.964	-0.407	0.093
-305.851	-121.047	-0.271	0.045
-304.837	800.000	0.094	0.290
-303.822	-102.251	0.191	0.045
-302.807	562.075	-0.106	-0.254
-301.793	-141.141	0.175	-0.018
-300.778	534.482	0.146	0.342
-299.764	142.539	-0.260	0.342
-298.749	800.000	0.041	-0.142
-297.735	373.540	0.145	0.292
-296.720	-200.000	-0.080	0.352
-295.705	182.437	-0.238	0.349
-294.691	-200.000	0.014	0.334
-293.676	61.989	-0.085	-0.084
-292.662	292.771	0.138	0.250
-291.647	23.905	-0.267	0.218
-290.632	5.080	-0.324	-0.237
-289.618	53.665	0.180	0.172
-288.603	183.809	0.150	0.220
-287.589	-200.000	0.020	0.091
-286.574	-200.000	0.064	-0.282
-285.559	-153.099	0.416	-0.029
-284.545	149.953	-0.275	0.370
-283.530	-8.472	-0.045	0.030
-282.516	276.248	-0.149	0.262
-281.501	-175.301	0.231	-0.006
-280.486	-14.929	-0.245	-0.155
-279.472	579.094	-0.011	-0.027
-278.457	-41.336	0.099	-0.051
-277.443	51.093	-0.051	-0.048
-276.428	800.000	0.094	0.312
-275.413	-78.891	0.169	0.057
-274.399	-200.000	-0.019	-0.251
-273.384	-79.449	0.151	-0.051
-272.370	-200.000	-0.016	-0.322
-271.355	-103.881	0.267	-0.062
-270.340	-200.000	-0.003	-0.272
-269.326	72.809	0.075	-0.077
-268.311	108.199	-0.087	-0.102
-267.297	-85.645	-0.103	0.032
-266.282	67.749	0.151	0.153
-265.267	289.989	-0.045	-0.081
-264.253	-200.000	0.041	-0.373
-263.238	-87.990	0.117	0.035
-262.224	287.803	0.212	0.381
-261.209	-123.706	0.114	-0.018
-260.195	150.049	-0.160	0.215
-259.180	48.144	0.198	-0.184
-258.165	-200.000	-0.069	-0.329
-257.151	-36.629	-0.043	-0.023
-256.136	-198.797	0.122	-0.001
-255.122	-200.000	0.030	-0.141
-254.107	-200.000	0.070	-0.308
-253.092	800.000	-0.058	-0.158
-252.078	800.000	-0.035	0.118
-251.063	-200.000	-0.021	-0.172
-250.049	-5.634	0.106	0.072
-249.034	-42.524	-0.067	0.034
-248.019	-103.040	-0.380	-0.089
-247.005	-46.632	-0.354	0.172
-245.990	230.892	-0.060	-0.098
-244.976	-183.374	-0.056	0.001
-243.961	-113.374	-0.103	-0.020
-242.946	45.564	0.124	-0.113
-241.932	50.743	0.225	0.211
-240.917	219.924	0.062	0.098
-239.903	387.911	0.198	-0.406
-238.888	79.613	-0.037	-0.039
-237.873	-108.392	0.355	-0.076
-236.859	90.229	0.156	0.173
-235.844	-200.000	-0.103	-0.645
-234.830	800.000	-0.074	0.303
-233.815	-99.527	0.113	0.028
-232.800	-200.000	0.035	-0.196
-231.786	108.389	0.224	0.264
-230.771	-57.308	0.118	-0.051
-229.757	-121.019	-0.058	0.010
-228.742	201.091	-0.063	-0.096
-227.727	32.970	-0.037	-0.032
-226.713	-200.000	0.028	-0.156
-225.698	-68.275	-0.297	-0.114
-224.684	800.000	-0.010	-0.038
-223.669	6.065	-0.091	-0.067
-222.655	-34.419	-0.111	0.060
-221.640	85.017	0.163	0.177
-220.625	-168.774	0.046	-0.002
-219.611	-51.485	0.064	-0.029
-218.596	-34.194	0.230	-0.125
-217.582	-200.000	0.028	0.295
-216.567	-183.480	0.333	-0.006
-215.552	51.023	0.114	-0.107
-214.538	-3.924	0.248	0.170
-213.523	494.866	-0.024	-0.055
-212.509	-69.445	0.145	0.055
-211.494	800.000	-0.056	0.186
-210.479	690.122	0.117	-0.303
-209.465	-95.580	-0.189	0.050
-208.450	-200.000	-0.009	-0.045
-207.436	-70.156	-0.254	0.095
-206.421	-6.518	0.228	0.154
-205.406	-200.000	0.009	0.327
-204.392	168.820	0.138	0.194
-203.377	161.644	-0.024	0.033
-202.363	-154.683	-0.378	0.025
-201.348	-76.244	-0.155	-0.054
-200.333	-200.000	-0.024	0.153
-199.319	-130.576	-0.298	-0.040
-198.304	-91.064	-0.039	-0.011
-197.290	-200.000	-0.028	-0.229
-196.275	-200.000	-0.005	0.148
-195.260	10.556	0.148	0.111
-194.246	800.000	0.014	0.045
-193.231	47.207	-0.075	0.069
-192.217	491.116	0.101	0.228
-191.202	192.373	0.105	0.156
-190.187	-200.000	-0.284	-0.000
-189.173	-200.000	0.014	-0.189
-188.158	-200.000	-0.058	-0.495
-187.144	-153.410	0.479	0.033
-186.129	-135.844	-0.160	-0.019
-185.114	-200.000	-0.002	-0.030
-184.100	168.032	0.086	-0.121
-183.085	657.198	-0.051	-0.130
-182.071	311.960	-0.162	-0.300
-181.056	-10.929	-0.160	0.104
-180.042	-200.000	-0.031	-0.427
-179.027	50.341	0.322	-0.300
-178.012	-200.000	0.007	-0.057
-176.998	799.436	0.093	-0.252
-175.983	-200.000	-0.044	-0.225
-174.969	-3.314	-0.077	-0.053
-173.954	800.000	-0.075	0.216
-172.939	-95.120	-0.205	0.055
-171.925	51.357	-0.120	-0.112
-170.910	68.271	0.051	0.052
-169.896	-200.000	0.004	0.038
-168.881	-171.483	0.251	-0.008
-167.866	-200.000	0.064	-0.364
-166.852	486.550	-0.031	-0.071
-165.837	-130.202	-0.295	0.040
-164.823	-20.257	-0.140	-0.085
-163.808	-200.000	0.034	-0.179
-162.793	-12.001	0.167	0.108
-161.779	800.000	0.044	0.190
-160.764	-88.867	0.344	-0.101
-159.750	800.000	0.059	-0.221
-158.735	-34.845	-0.074	0.040
-157.720	280.352	0.108	-0.190
-156.706	210.118	-0.113	-0.174
-155.691	-132.843	0.253	0.032
-154.677	-15.852	-0.162	0.102
-153.662	233.148	0.056	0.091
-152.647	280.894	-0.440	-0.776
-151.633	-200.000	0.028	-0.239
-150.618	800.000	0.024	0.071
-149.604	195.219	-0.139	0.208
-148.589	-12.724	0.085	-0.054
-147.574	-200.000	0.003	0.174
-146.560	-200.000	-0.101	0.469
-145.545	505.569	0.109	0.249
-144.531	226.206	-0.049	-0.079
-143.516	198.083	-0.051	-0.077
-142.502	-52.107	-0.134	-0.061
-141.487	-147.672	0.103	-0.009
-140.472	201.101	0.056	0.084
-139.458	-138.798	-0.106	0.011
-138.443	6.999	-0.422	0.310
-137.429	-120.402	-0.233	-0.039
-136.414	-149.570	0.149	0.012
-135.399	191.026	0.091	0.135
-134.385	-200.000	0.053	-0.420
-133.370	-48.808	0.052	-0.025
-132.356	-33.096	-0.318	-0.174
-131.341	92.569	-0.192	-0.213
-130.326	24.572	0.070	0.057
-129.312	-93.850	0.235	-0.064
-128.297	-11.941	0.124	0.080
-127.283	132.523	-0.212	-0.270
-126.268	50.035	-0.101	-0.094
-125.253	100.891	0.197	-0.226
-124.239	0.659	0.043	0.030
-123.224	-130.307	-0.148	0.020
-122.210	-200.000	-0.020	-0.268
-121.195	561.679	0.045	0.107
-120.180	92.499	0.181	0.201
-119.166	800.000	0.088	0.353
-118.151	-200.000	-0.125	0.590
-117.137	800.000	-0.057	0.220
-116.122	-18.965	0.315	0.193
-115.107	-98.623	0.079	-0.020
-114.093	-127.584	0.399	0.057
-113.078	-200.000	-0.007	-0.079
-112.064	248.056	0.074	-0.124
-111.049	-61.697	-0.280	-0.116
-110.034	-88.050	-0.309	-0.091
-109.020	230.511	-0.018	-0.029
-108.005	-160.403	-0.119	0.006
-106.991	-53.827	0.379	-0.170
-105.976	-200.000	-0.052	0.448
-104.962	112.872	0.166	-0.198
-103.947	-39.658	0.351	-0.181
-102.932	128.522	-0.046	-0.058
-101.918	-200.000	0.039	0.533
-100.903	128.051	0.140	0.176
-99.889	-200.000	0.070	0.363
-98.874	-100.853	-0.127	-0.031
-97.859	-39.249	0.252	-0.130
-96.845	800.000	0.074	0.205
-95.830	800.000	0.022	0.083
-94.816	-200.000	-0.051	0.246
-93.801	-200.000	0.052	0.413
-92.786	-51.508	0.376	0.173
-91.772	-200.000	-0.025	-0.146
-90.757	-49.588	0.127	0.059
-89.743	398.680	-0.166	-0.342
-88.728	37.056	0.278	-0.242
-87.713	-80.949	-0.189	0.062
-86.699	-200.000	0.071	0.374
-85.684	-130.307	-0.137	0.018
-84.670	-36.873	0.484	0.255
-83.655	219.682	-0.185	-0.291
-82.640	-24.857	0.270	0.158
-81.626	87.925	0.059	0.064
-80.611	-41.518	-0.251	-0.127
-79.597	257.983	0.075	0.127
-78.582	664.428	0.038	0.098
-77.567	-200.000	-0.007	0.285
-76.553	-200.000	-0.018	0.278
-75.538	-200.000	0.027	0.396
-74.524	-122.270	0.248	0.040
-73.509	120.096	-0.076	0.092
-72.494	-80.674	0.345	-0.113
-71.480	88.125	-0.080	-0.088
-70.465	18.033	0.273	-0.214
-69.451	800.000	0.106	0.295
-68.436	14.404	0.207	-0.158
-67.422	190.857	0.202	0.299
-66.407	566.101	-0.058	0.138
-65.392	-74.305	0.140	-0.050
-64.378	-158.217	0.174	0.010
-63.363	277.576	-0.053	0.093
-62.349	-200.000	0.033	0.653
-61.334	151.581	-0.731	-0.978
-60.319	205.266	0.222	0.340
-59.305	375.515	-0.385	-0.772
-58.290	148.341	0.481	0.639
-57.276	380.162	0.622	1.252
-56.261	-200.000	94.720	572.103
-55.246	531.454	1413.670	3284.908
-54.232	153.009	2607.340	3503.515
-53.217	104.909	2316.060	2683.485
-52.203	41.362	1932.419	1717.356
-51.188	35.175	1719.600	1480.533
-50.173	32.678	1674.208	1422.580
-49.159	50.327	1719.609	1596.341
-48.144	51.797	1736.236	1622.938
-47.130	34.983	1698.567	1460.731
-46.115	32.242	1683.530	1426.968
-45.100	32.043	1678.452	1421.101
-44.086	32.009	1675.674	1418.434
-43.071	32.005	1673.357	1416.386
-42.057	31.973	1671.059	1414.143
-41.042	31.960	1668.907	1412.165
-40.027	32.035	1666.842	1410.929
-39.013	31.942	1665.470	1409.012
-37.998	31.900	1663.547	1407.016
-36.984	31.992	1661.719	1406.104
-35.969	32.090	1660.788	1405.992
-34.954	32.148	1659.198	1405.021
-33.940	32.070	1657.189	1402.681
-32.925	32.012	1656.017	1401.205
-31.911	32.089	1654.223	1400.203
-30.896	32.093	1652.120	1398.398
-29.881	31.967	1650.540	1396.069
-28.867	32.068	1648.512	1395.044
-27.852	32.146	1646.761	1394.086
-26.838	32.163	1645.330	1392.949
-25.823	32.169	1644.141	1391.930
-24.809	32.150	1642.868	1390.658
-23.794	32.053	1641.232	1388.502
-22.779	32.163	1639.691	1387.955
-21.765	32.100	1638.147	1386.126
-20.750	32.090	1636.441	1384.556
-19.736	32.148	1635.104	1383.799
-18.721	32.120	1633.913	1382.527
-17.706	32.150	1632.346	1381.366
-16.692	32.136	1630.383	1379.548
-15.677	32.065	1629.828	1378.505
-14.663	32.088	1628.349	1377.364
-13.648	32.055	1626.491	1375.496
-12.633	32.102	1625.499	1374.946
-11.619	32.027	1623.897	1372.992
-10.604	32.086	1622.316	1372.029
-9.590	32.115	1620.865	1370.957
-8.575	32.073	1619.848	1369.740
-7.560	32.147	1618.387	1368.985
-6.546	32.093	1617.186	1367.521
-5.531	32.086	1615.801	1366.249
-4.517	32.075	1614.546	1365.050
-3.502	32.131	1613.567	1364.578
-2.487	32.257	1611.769	1363.918
-1.473	32.181	1601.491	1354.622
-0.458	30.206	1583.425	1325.188
0.556	25.417	1584.130	1297.932
1.571	23.274	1609.126	1302.546
2.586	22.861	1622.638	1310.303
3.600	21.489	1571.676	1259.170
4.615	17.102	1468.752	1147.037
5.629	13.081	1408.921	1074.108
6.644	12.268	1401.245	1062.899
7.659	12.301	1399.123	1061.406
8.673	12.288	1398.241	1060.559
9.688	12.143	1396.479	1058.194
10.702	12.007	1393.830	1055.216
11.717	14.024	1397.076	1070.584
12.731	17.821	1403.435	1099.889
13.746	18.953	1403.819	1107.388
14.761	17.695	1401.120	1097.067
15.775	16.608	1397.565	1087.208
16.790	15.495	1395.382	1078.268
17.804	14.717	1392.612	1071.045
18.819	14.241	1391.453	1067.008
19.834	13.913	1389.541	1063.349
20.848	13.683	1388.546	1061.019
21.863	13.368	1387.743	1058.301
22.877	13.311	1385.811	1056.365
23.892	13.234	1385.186	1055.304
24.907	13.290	1384.061	1054.715
25.921	13.234	1383.593	1053.908
26.936	13.299	1382.559	1053.439
27.950	13.262	1381.770	1052.511
28.965	13.345	1380.728	1052.148
29.980	13.410	1379.427	1051.481
30.994	13.418	1378.410	1050.660
32.009	13.554	1377.122	1050.446
33.023	13.551	1375.706	1049.254
34.038	13.404	1374.416	1047.253
35.053	13.391	1373.088	1046.064
36.067	13.335	1372.128	1044.885
37.082	13.333	1371.247	1044.111
38.096	13.332	1370.291	1043.281
39.111	13.514	1369.469	1043.715
40.126	13.195	1368.978	1041.238
41.140	13.224	1367.862	1040.475
42.155	13.297	1366.654	1039.925
43.169	13.226	1367.306	1039.880
44.184	13.221	1366.830	1039.397
45.199	13.137	1365.754	1037.958
46.213	13.356	1365.036	1038.697
47.228	13.312	1364.296	1037.765
48.242	13.296	1363.407	1036.899
49.257	13.464	1361.456	1036.371
50.271	13.283	1360.546	1034.459
51.286	13.316	1359.520	1033.792
52.301	13.316	1357.691	1032.309
53.315	13.222	1356.863	1031.005
54.330	13.211	1355.896	1030.105
55.344	13.206	1354.314	1028.784
56.359	13.232	1353.574	1028.294
57.374	13.258	1352.765	1027.745
58.388	13.164	1351.503	1026.116
59.403	13.067	1351.802	1025.646
60.417	13.069	1350.862	1024.858
61.432	13.100	1349.993	1024.298
62.447	13.040	1349.018	1023.097
63.461	13.026	1347.611	1021.854
64.476	13.149	1346.239	1021.481
65.490	13.039	1345.440	1020.106
66.505	13.148	1343.546	1019.252
67.520	13.086	1342.572	1018.038
68.534	13.197	1340.769	1017.267
69.549	13.210	1340.478	1017.036
70.563	13.047	1339.631	1015.302
71.578	13.069	1338.113	1014.197
72.593	13.095	1337.242	1013.605
73.607	12.889	1337.023	1012.086
74.622	13.100	1335.704	1012.291
75.636	13.055	1335.059	1011.437
76.651	13.004	1334.488	1010.603
77.666	12.966	1334.135	1010.016
78.680	12.945	1333.711	1009.476
79.695	12.994	1332.851	1009.032
80.709	13.153	1331.821	1009.134
81.724	13.232	1330.706	1008.682
82.739	13.213	1329.888	1007.861
83.753	13.189	1329.088	1007.017
84.768	13.174	1328.327	1006.263
85.782	13.327	1327.007	1006.104
86.797	13.368	1325.489	1005.109
87.812	13.389	1324.281	1004.236
88.826	13.319	1323.250	1002.937
89.841	13.206	1322.467	1001.574
90.855	13.280	1321.767	1001.400
91.870	13.309	1320.623	1000.619
92.884	13.367	1319.938	1000.362
93.899	13.419	1318.697	999.649
94.914	13.444	1317.634	998.907
95.928	13.385	1317.273	998.190
96.943	13.461	1316.329	997.842
97.957	13.434	1314.950	996.543
98.972	13.365	1314.103	995.400
99.987	13.458	1312.928	994.984
101.001	13.434	1311.862	993.945
102.016	13.347	1310.880	992.586
103.030	13.367	1310.123	992.046
104.045	13.404	1309.445	991.668
105.060	13.343	1308.118	990.209
106.074	13.188	1306.855	988.241
107.089	13.262	1305.515	987.583
108.103	13.203	1304.176	986.129
109.118	13.149	1303.049	984.864
110.133	13.137	1301.733	983.712
111.147	13.245	1300.078	983.018
112.162	13.278	1298.321	981.797
113.176	13.293	1297.416	981.116
114.191	13.290	1296.549	980.353
115.206	13.350	1295.215	979.613
116.220	13.291	1293.687	978.023
117.235	13.225	1293.055	977.072
118.249	13.319	1292.208	976.899
119.264	13.154	1291.213	975.090
120.279	13.116	1290.078	973.921
121.293	13.297	1288.381	973.621
122.308	13.184	1287.701	972.351
123.322	13.146	1286.873	971.419
124.337	13.123	1286.173	970.669
125.352	13.150	1284.713	969.639
126.366	13.138	1283.241	968.371
127.381	13.164	1282.781	968.093
128.395	13.173	1281.252	966.906
129.410	13.222	1280.148	966.270
130.424	13.281	1279.835	966.295
131.439	13.186	1278.972	965.007
132.454	13.281	1277.882	964.649
133.468	13.264	1276.685	963.560
134.483	13.255	1276.010	962.916
135.497	13.195	1275.064	961.765
136.512	13.289	1273.724	961.217
137.527	13.251	1272.396	959.910
138.541	13.301	1270.385	958.599
139.556	13.382	1269.094	958.011
140.570	13.325	1268.780	957.354
141.585	13.373	1267.101	956.285
142.600	13.417	1265.962	955.594
143.614	13.374	1265.275	954.742
144.629	13.444	1263.886	954.012
145.643	13.500	1262.365	953.100
146.658	13.428	1261.995	952.325
147.673	13.307	1260.174	950.171
148.687	13.329	1259.151	949.441
149.702	13.329	1257.863	948.385
150.716	13.334	1256.311	947.163
151.731	13.325	1255.390	946.333
152.746	13.370	1254.398	945.755
153.760	13.409	1253.519	945.231
154.775	13.424	1252.271	944.291
155.789	13.479	1250.940	943.520
156.804	13.462	1249.834	942.506
157.819	13.491	1249.061	942.002
158.833	13.655	1247.559	941.718
159.848	13.612	1247.122	941.061
160.862	13.595	1245.890	939.951
161.877	13.523	1244.743	938.597
162.892	13.421	1243.827	937.247
163.906	13.384	1243.101	936.407
164.921	13.466	1241.817	935.819
165.935	13.482	1240.830	935.082
166.950	13.556	1240.109	934.872
167.964	13.554	1239.586	934.386
168.979	13.545	1239.232	933.986
169.994	13.677	1238.516	934.106
171.008	13.535	1237.369	932.363
172.023	13.663	1236.510	932.351
173.037	13.738	1235.751	932.117
174.052	13.588	1234.710	930.408
175.067	13.632	1233.863	929.931
176.081	13.544	1232.790	928.551
177.096	13.605	1232.052	928.255
178.110	13.564	1230.641	926.879
179.125	13.551	1229.740	926.044
180.140	13.647	1227.951	925.155
181.154	13.640	1226.860	924.209
182.169	13.665	1226.045	923.650
183.183	13.714	1224.932	923.005
184.198	13.786	1223.164	921.992
185.213	13.833	1222.239	921.476
186.227	13.758	1221.554	920.459
187.242	13.866	1220.515	920.195
188.256	13.888	1219.267	919.293
189.271	13.859	1218.780	918.682
190.286	13.902	1217.044	917.531
191.300	13.682	1216.253	915.637
192.315	13.619	1215.646	914.755
193.329	13.681	1214.951	914.493
194.344	13.656	1214.120	913.648
195.359	13.831	1213.377	913.972
196.373	13.719	1213.339	913.248
197.388	13.918	1212.948	913.965
198.402	13.924	1212.444	913.537
199.417	13.992	1211.922	913.437
200.432	13.992	1211.109	912.743
201.446	14.101	1210.190	912.571
202.461	14.195	1208.895	912.029
203.475	14.097	1208.212	910.894
204.490	14.100	1206.752	909.732
205.504	14.099	1205.249	908.509
206.519	13.979	1204.209	906.989
207.534	13.977	1203.329	906.239
208.548	14.053	1202.050	905.606
209.563	14.025	1201.310	904.818
210.577	14.078	1200.509	904.422
211.592	14.030	1199.979	903.682
212.607	14.085	1199.224	903.335
213.621	14.143	1198.077	902.701
214.636	14.157	1197.327	902.132
215.650	14.108	1196.390	901.084
216.665	14.221	1195.233	900.743
217.680	14.344	1194.047	900.436
218.694	14.410	1193.466	900.273
219.709	14.221	1193.068	898.871
220.723	14.246	1192.032	898.146
221.738	14.271	1191.255	897.619
222.753	14.243	1190.488	896.811
223.767	14.170	1189.734	895.768
224.782	14.323	1189.253	896.151
225.796	14.384	1188.688	895.973
226.811	14.411	1187.865	895.420
227.826	14.409	1186.862	894.576
228.840	14.413	1186.278	894.077
229.855	14.430	1185.113	893.209
230.869	14.447	1184.827	893.008
231.884	14.407	1183.929	892.038
232.899	14.286	1183.055	890.651
233.913	14.359	1182.221	890.334
234.928	14.362	1181.647	889.842
235.942	14.267	1180.905	888.696
236.957	14.322	1180.007	888.235
237.972	14.184	1179.777	887.247
238.986	14.302	1178.752	887.024
240.001	14.343	1178.105	886.680
241.015	14.365	1176.896	885.810
242.030	14.430	1176.504	885.781
243.045	14.456	1175.649	885.198
244.059	14.447	1174.835	884.457
245.074	14.526	1173.989	884.160
246.088	14.656	1172.734	883.828
247.103	14.629	1172.285	883.267
248.117	14.681	1171.532	882.894
249.132	14.664	1170.991	882.318
250.147	14.810	1170.258	882.463
251.161	14.866	1169.278	881.941
252.176	14.792	1168.875	881.167
253.190	14.815	1168.257	880.743
254.205	14.928	1167.514	880.703
255.220	14.916	1167.155	880.288
256.234	14.902	1166.651	879.759
257.249	14.917	1165.633	878.990
258.263	14.998	1165.171	878.992
259.278	14.921	1164.417	877.940
260.293	14.974	1163.833	877.701
261.307	15.026	1163.183	877.401
262.322	14.979	1162.929	876.888
263.336	15.128	1161.772	876.720
264.351	15.026	1161.367	875.801
265.366	15.058	1161.216	875.779
266.380	15.069	1159.865	874.739
267.395	15.082	1159.021	874.093
268.409	15.007	1158.218	873.016
269.424	15.093	1157.676	872.980
270.439	15.027	1157.095	872.122
271.453	14.992	1156.537	871.443
272.468	14.994	1155.567	870.644
273.482	14.990	1154.786	869.960
274.497	15.028	1154.162	869.607
275.512	15.202	1153.349	869.821
276.526	15.007	1152.474	868.073
277.541	15.055	1152.336	868.140
278.555	15.190	1150.961	867.730
279.570	15.191	1150.419	867.247
280.585	15.325	1149.707	867.327
281.599	15.326	1148.662	866.468
282.614	15.305	1147.735	865.583
283.628	15.088	1146.744	863.640
284.643	15.162	1145.827	863.255
285.657	15.181	1145.032	862.678
286.672	15.360	1144.057	862.790
287.687	15.272	1142.929	861.409
288.701	15.332	1142.367	861.217
289.716	15.397	1141.609	860.900
290.730	15.329	1141.228	860.191
291.745	15.384	1139.877	859.378
292.760	15.359	1139.353	858.779
293.774	15.338	1139.266	858.529
294.789	15.456	1138.593	858.551
295.803	15.403	1137.652	857.494
296.818	15.420	1136.792	856.854
297.833	15.398	1136.183	856.208
298.847	15.328	1135.615	855.345
299.862	15.422	1134.614	854.995
300.876	15.473	1134.077	854.778
301.891	15.500	1133.163	854.149
302.906	15.561	1132.165	853.633
303.920	15.651	1131.494	853.507
304.935	15.570	1131.069	852.702
305.949	15.742	1129.744	852.498
306.964	15.746	1129.398	852.182
307.979	15.650	1128.792	851.165
308.993	15.562	1128.452	850.386
310.008	15.749	1127.072	850.214
311.022	15.859	1126.421	850.203
312.037	15.760	1125.679	849.071
313.052	15.465	1125.324	847.240
314.066	15.779	1123.482	847.360
315.081	15.663	1122.945	846.294
316.095	15.647	1122.291	845.644
317.110	15.605	1121.855	845.034
318.125	15.661	1120.749	844.404
319.139	15.640	1120.307	843.891
320.154	15.759	1119.188	843.571
321.168	15.648	1118.820	842.665
322.183	15.748	1118.214	842.632
323.197	15.701	1117.885	842.076
324.212	15.707	1117.167	841.489
325.227	15.747	1116.736	841.288
326.241	15.836	1115.765	840.930
327.256	15.851	1114.823	840.221
328.270	15.685	1113.831	838.572
329.285	15.777	1113.118	838.416
330.300	15.748	1112.151	837.471
331.314	15.867	1111.121	837.211
332.329	15.771	1110.345	836.076
333.343	15.801	1109.766	835.717
334.358	15.795	1108.831	834.910
335.373	15.828	1108.338	834.625
336.387	15.858	1107.269	833.896
337.402	16.041	1106.200	833.921
338.416	16.037	1105.849	833.567
339.431	16.037	1105.418	833.165
340.446	15.941	1104.848	832.187
341.460	16.196	1104.030	832.756
342.475	16.208	1103.189	832.109
343.489	16.063	1102.488	830.791
344.504	16.100	1101.133	829.880
345.519	16.176	1100.262	829.521
346.533	16.156	1099.658	828.896
347.548	16.267	1098.684	828.635
348.562	16.153	1098.263	827.686
349.577	16.326	1097.135	827.608
350.592	16.140	1096.810	826.381
351.606	16.092	1095.921	825.402
352.621	16.050	1095.092	824.496
353.635	16.018	1094.354	823.711
354.650	16.187	1093.754	824.015
355.665	16.198	1092.837	823.303
356.679	16.172	1092.129	822.569
357.694	16.148	1091.806	822.137
358.708	16.295	1091.158	822.293
359.723	16.372	1090.257	821.915
360.738	16.212	1090.117	820.961
361.752	16.251	1089.370	820.514
362.767	16.258	1088.765	820.019
363.781	16.292	1088.081	819.596
364.796	16.279	1087.512	819.032
365.810	16.387	1086.959	819.065
366.825	16.476	1086.224	818.872
367.840	16.438	1086.220	818.613
368.854	16.634	1084.788	818.408
369.869	16.595	1084.068	817.606
370.883	16.440	1083.392	816.276
371.898	16.534	1082.728	816.153
372.913	16.510	1082.223	815.588
373.927	16.490	1081.999	815.248
374.942	16.624	1081.053	815.111
375.956	16.565	1080.743	814.521
376.971	16.666	1080.047	814.407
377.986	16.675	1079.391	813.883
379.000	16.651	1079.436	813.734
380.015	16.799	1078.291	813.508
381.029	16.735	1077.889	812.827
382.044	16.776	1077.093	812.348
383.059	16.818	1076.098	811.726
384.073	16.883	1075.274	811.348
385.088	16.886	1074.242	810.510
386.102	16.758	1073.729	809.438
387.117	16.781	1072.801	808.779
388.132	16.810	1071.383	807.776
389.146	16.619	1071.386	806.797
390.161	16.692	1070.106	806.109
391.175	16.770	1069.595	806.022
392.190	16.812	1068.569	805.379
393.205	16.841	1068.036	805.045
394.219	16.859	1067.329	804.524
395.234	16.936	1066.391	804.113
396.248	16.805	1065.206	802.526
397.263	16.860	1064.332	802.057
398.278	16.784	1063.679	801.136
399.292	16.860	1063.076	800.969
400.307	16.818	1062.483	800.250
401.321	16.792	1061.618	799.408
402.336	16.811	1061.246	799.148
403.350	16.877	1060.296	798.669
404.365	16.938	1059.454	798.254
405.380	16.962	1058.666	797.701
406.394	16.925	1057.972	796.936
407.409	16.956	1057.315	796.516
408.423	17.064	1056.364	796.233
409.438	17.234	1055.798	796.536
410.453	17.087	1055.189	795.316
411.467	17.202	1054.429	795.209
412.482	17.097	1053.807	794.181
413.496	17.239	1053.197	794.316
414.511	17.326	1052.449	794.087
415.526	17.329	1052.574	794.126
416.540	17.275	1052.100	793.444
417.555	17.281	1051.581	793.010
418.569	17.369	1050.803	792.765
419.584	17.318	1049.959	791.819
420.599	17.277	1049.704	791.367
421.613	100.566	1319.366	1455.496
422.628	92.542	1358.620	1455.634
