DTS Sentinel unit serial number:	SN413079Multiplexer serial number:	ORYXHardware model number:	OX4-SRSoftware version number:	ORYX F/W v4.00 Oryx Data Collector v3.7.2.0data status	okinstallation	princeton_trtdifferential loss correction	single-endedforward channel	channel 2reverse channel	N/Adate	2019/09/13time	23:15:34forward acquisition time	60.00reverse acquisition time	0.00gamma	496.2192k internal	0.2337k external	0.2337temperature offset calibration	1.0129default loss term (dB/km)	0.3790temperature slope calibration	1.0000multiplexer offset coefficient	1.0000multiplexer slope coefficient	1.0000fibre end	0.00T internal ref (°C)	27.06T ext. ref 1 (°C)	3.20T ext. ref 2 (°C)	20.97length (m)	temperature (°C)	Stokes	anti-Stokes-747.200	113.535	0.244	0.297
-746.185	628.770	-0.158	0.400
-745.171	-129.128	-0.087	-0.012
-744.156	87.150	0.165	0.183
-743.142	-200.000	0.050	-0.247
-742.127	-18.329	-0.220	0.138
-741.112	-24.132	-0.120	0.072
-740.098	-139.224	-0.405	0.044
-739.083	-39.390	0.178	-0.093
-738.069	405.641	0.052	0.110
-737.054	-200.000	-0.001	0.410
-736.039	90.717	-0.253	0.285
-735.025	-69.473	0.428	-0.165
-734.010	194.099	-0.281	-0.427
-732.996	80.389	-0.120	0.130
-731.981	-200.000	0.015	0.226
-730.966	747.088	-0.068	-0.184
-729.952	800.000	-0.120	-0.394
-728.937	-200.000	0.009	-0.069
-727.923	-23.158	-0.098	0.059
-726.908	2.953	-0.191	-0.139
-725.894	-200.000	0.021	-0.106
-724.879	-200.000	-0.059	-0.387
-723.864	57.856	0.164	-0.161
-722.850	-200.000	-0.048	-0.239
-721.835	57.254	-0.139	-0.136
-720.821	-153.509	0.202	-0.014
-719.806	83.258	0.059	-0.064
-718.791	-42.656	0.215	-0.110
-717.777	-75.400	0.387	0.138
-716.762	-119.431	0.168	0.029
-715.748	246.083	-0.088	-0.149
-714.733	188.783	-0.036	-0.054
-713.718	19.504	0.314	0.253
-712.704	-46.271	0.179	-0.088
-711.689	-155.348	-0.240	-0.016
-710.675	-128.349	-0.221	0.032
-709.660	-121.316	-0.222	-0.037
-708.645	200.036	0.048	0.075
-707.631	800.000	-0.005	-0.018
-706.616	163.935	0.185	0.262
-705.602	-200.000	-0.010	-0.149
-704.587	-18.423	-0.322	0.202
-703.572	-200.000	0.013	0.160
-702.558	-123.643	0.351	-0.056
-701.543	89.955	0.065	0.073
-700.529	-143.012	0.036	-0.003
-699.514	-4.018	-0.415	-0.288
-698.499	-133.054	0.286	0.036
-697.485	55.914	0.223	0.217
-696.470	-200.000	-0.018	-0.266
-695.456	-200.000	0.037	-0.312
-694.441	253.162	-0.081	0.139
-693.426	-36.479	0.305	-0.165
-692.412	-99.878	-0.396	0.099
-691.397	800.000	0.034	-0.110
-690.383	-200.000	0.006	0.387
-689.368	-200.000	-0.009	-0.082
-688.354	-200.000	0.038	0.263
-687.339	60.788	-0.210	0.209
-686.324	183.367	0.025	-0.037
-685.310	-200.000	-0.015	0.109
-684.295	88.101	-0.132	0.147
-683.281	179.873	-0.084	-0.123
-682.266	168.450	-0.040	0.057
-681.251	252.680	0.080	-0.136
-680.237	-137.781	0.075	-0.008
-679.222	-39.265	-0.105	-0.055
-678.208	-200.000	0.038	0.192
-677.193	349.703	-0.059	0.118
-676.178	-200.000	-0.024	-0.171
-675.164	135.165	0.186	0.242
-674.149	78.003	0.136	-0.145
-673.135	64.817	-0.248	0.250
-672.120	334.342	0.138	-0.267
-671.105	-34.790	-0.066	-0.036
-670.091	-42.513	0.331	-0.169
-669.076	269.534	0.140	-0.245
-668.062	800.000	-0.074	-0.290
-667.047	-11.630	-0.179	0.118
-666.032	800.000	0.108	-0.341
-665.018	-84.354	0.237	0.075
-664.003	137.433	0.119	0.156
-662.989	-110.223	0.173	0.036
-661.974	800.000	0.054	-0.157
-660.959	-138.512	0.144	-0.016
-659.945	281.540	-0.265	-0.475
-658.930	532.854	0.156	-0.369
-657.916	-200.000	-0.031	-0.171
-656.901	-200.000	0.009	-0.189
-655.886	136.212	-0.244	-0.318
-654.872	27.822	0.184	-0.155
-653.857	-103.848	-0.160	-0.037
-652.843	130.802	-0.008	0.010
-651.828	-89.748	0.191	-0.056
-650.814	-84.149	0.081	0.026
-649.799	-200.000	-0.022	-0.328
-648.784	-185.085	-0.327	0.005
-647.770	62.655	0.118	-0.118
-646.755	168.960	0.125	-0.179
-645.741	-67.352	0.168	0.066
-644.726	-132.336	-0.200	0.026
-643.711	-45.543	0.259	-0.128
-642.697	-83.707	0.308	0.098
-641.682	-42.940	0.121	-0.061
-640.668	71.996	-0.115	0.120
-639.653	-110.009	0.024	0.005
-638.638	-200.000	0.076	0.358
-637.624	-160.712	-0.329	0.017
-636.609	800.000	-0.023	0.064
-635.595	-107.174	0.234	0.052
-634.580	25.815	-0.197	0.164
-633.565	-80.444	0.054	0.018
-632.551	-73.782	-0.063	0.023
-631.536	748.848	0.115	-0.311
-630.522	133.551	-0.138	0.178
-629.507	-133.555	-0.107	0.013
-628.492	-152.828	-0.277	0.020
-627.478	-61.204	0.272	-0.115
-626.463	24.378	-0.063	-0.052
-625.449	-150.069	-0.117	-0.009
-624.434	-200.000	0.025	-0.114
-623.419	-36.988	-0.166	-0.089
-622.405	-8.584	-0.022	-0.014
-621.390	-16.564	0.143	0.090
-620.376	-81.997	0.212	-0.069
-619.361	287.372	-0.066	-0.120
-618.346	183.783	-0.171	0.252
-617.332	800.000	0.019	0.065
-616.317	187.979	-0.074	-0.110
-615.303	-148.432	0.184	-0.015
-614.288	-131.002	-0.025	-0.003
-613.273	-200.000	-0.004	0.343
-612.259	-200.000	0.053	-0.241
-611.244	-119.727	-0.213	-0.037
-610.230	132.434	-0.150	-0.193
-609.215	45.983	-0.411	-0.380
-608.201	111.764	-0.182	0.220
-607.186	97.251	0.159	0.183
-606.171	136.769	-0.077	-0.100
-605.157	-42.253	0.282	-0.144
-604.142	800.000	0.006	0.025
-603.128	-89.666	-0.164	0.048
-602.113	-48.227	0.112	0.054
-601.098	800.000	0.050	-0.174
-600.084	-111.395	-0.216	0.044
-599.069	83.475	-0.202	-0.220
-598.055	179.794	0.223	0.327
-597.040	60.129	0.158	-0.156
-596.025	-112.355	0.138	0.028
-595.011	-21.145	-0.047	-0.029
-593.996	800.000	-0.077	0.219
-592.982	423.592	-0.140	-0.301
-591.967	-111.108	-0.199	0.041
-590.952	299.217	-0.179	-0.330
-589.938	99.839	-0.143	-0.165
-588.923	-200.000	-0.016	0.113
-587.909	-176.574	0.257	-0.007
-586.894	-200.000	0.077	-0.379
-585.879	-45.646	0.205	0.101
-584.865	-132.937	0.039	0.005
-583.850	164.984	0.208	0.292
-582.836	639.174	0.057	0.144
-581.821	19.408	0.234	0.188
-580.806	-63.670	-0.082	-0.034
-579.792	-70.952	0.430	0.162
-578.777	77.792	0.059	-0.062
-577.763	25.056	0.133	0.110
-576.748	800.000	-0.019	-0.079
-575.733	192.525	-0.313	0.471
-574.719	550.661	0.112	-0.269
-573.704	-200.000	0.001	0.172
-572.690	-200.000	-0.052	0.257
-571.675	-92.110	0.074	-0.021
-570.661	-105.975	-0.123	0.028
-569.646	800.000	0.089	0.260
-568.631	32.694	0.191	-0.165
-567.617	-140.380	0.417	-0.043
-566.602	250.870	-0.171	-0.290
-565.588	-61.601	0.101	-0.042
-564.573	-166.689	0.095	0.004
-563.558	43.510	0.208	-0.190
-562.544	721.197	-0.171	-0.453
-561.529	56.586	-0.259	-0.251
-560.515	43.203	-0.189	-0.172
-559.500	-11.962	-0.195	0.127
-558.485	-200.000	0.018	0.122
-557.471	106.788	0.067	-0.079
-556.456	-200.000	-0.050	0.274
-555.442	-36.803	0.245	0.131
-554.427	7.887	-0.185	0.138
-553.412	213.987	-0.110	0.173
-552.398	39.335	-0.229	0.205
-551.383	800.000	-0.019	-0.064
-550.369	800.000	-0.132	0.435
-549.354	-180.800	0.106	-0.002
-548.339	171.996	-0.130	-0.186
-547.325	-116.365	0.116	-0.021
-546.310	63.235	-0.199	-0.199
-545.296	-126.540	-0.275	-0.041
-544.281	-200.000	-0.014	0.188
-543.266	-56.801	-0.272	-0.120
-542.252	534.408	0.088	-0.207
-541.237	-200.000	-0.026	0.187
-540.223	-65.961	-0.082	-0.033
-539.208	33.576	-0.246	-0.213
-538.193	-200.000	-0.001	-0.046
-537.179	-190.636	0.175	0.002
-536.164	-0.565	-0.079	0.056
-535.150	369.458	-0.181	0.364
-534.135	100.183	0.021	0.024
-533.121	-200.000	0.019	-0.427
-532.106	165.452	0.050	0.070
-531.091	-200.000	0.012	-0.131
-530.077	800.000	-0.023	-0.092
-529.062	-67.932	0.059	-0.023
-528.048	-83.906	-0.086	0.027
-527.033	-169.354	-0.192	-0.007
-526.018	800.000	-0.068	0.198
-525.004	-93.899	-0.047	0.013
-523.989	-104.603	-0.178	-0.041
-522.975	319.249	0.145	-0.273
-521.960	800.000	-0.053	-0.157
-520.945	-54.016	-0.108	-0.049
-519.931	-92.085	-0.157	-0.044
-518.916	-98.184	-0.145	-0.037
-517.902	-134.708	-0.111	0.013
-516.887	-56.077	-0.331	-0.147
-515.872	-59.090	-0.237	0.102
-514.858	-200.000	-0.002	-0.026
-513.843	82.719	-0.002	0.002
-512.829	-13.295	0.293	0.189
-511.814	-40.757	0.297	-0.153
-510.799	800.000	-0.048	0.162
-509.785	167.845	-0.106	0.149
-508.770	119.483	0.024	0.029
-507.756	-200.000	0.019	-0.151
-506.741	194.499	0.058	-0.088
-505.726	-56.972	0.168	-0.074
-504.712	-135.210	0.235	0.028
-503.697	800.000	-0.097	-0.274
-502.683	-118.712	0.280	-0.049
-501.668	-65.599	-0.085	0.034
-500.653	800.000	-0.013	-0.055
-499.639	-200.000	0.020	0.138
-498.624	141.553	0.183	0.242
-497.610	151.474	0.190	0.258
-496.595	-39.951	-0.118	0.061
-495.581	-167.426	-0.344	-0.014
-494.566	-200.000	-0.011	-0.210
-493.551	198.449	-0.061	-0.093
-492.537	800.000	0.055	0.217
-491.522	-119.895	-0.214	-0.037
-490.508	-200.000	0.037	0.225
-489.493	800.000	0.063	0.234
-488.478	231.582	-0.159	-0.259
-487.464	-11.150	0.016	-0.011
-486.449	-140.376	0.118	-0.012
-485.435	218.107	0.036	-0.057
-484.420	-200.000	-0.030	0.155
-483.405	510.711	0.083	0.192
-482.391	-118.877	0.096	0.017
-481.376	75.594	-0.165	-0.173
-480.362	376.003	0.148	0.299
-479.347	185.827	-0.151	0.223
-478.332	-122.714	-0.533	-0.086
-477.318	-51.628	-0.155	-0.072
-476.303	-130.393	0.165	0.022
-475.289	-41.247	-0.222	0.114
-474.274	-30.572	0.116	-0.065
-473.259	-75.626	0.130	-0.046
-472.245	548.526	-0.045	0.108
-471.230	800.000	0.057	-0.220
-470.216	-63.756	0.401	-0.163
-469.201	-6.856	0.168	0.113
-468.186	-113.423	-0.073	-0.014
-467.172	-200.000	0.020	0.164
-466.157	-49.414	0.294	0.139
-465.143	758.756	0.068	-0.183
-464.128	42.332	-0.330	-0.298
-463.113	-16.982	-0.246	0.154
-462.099	-169.367	0.222	0.008
-461.084	299.624	-0.073	-0.133
-460.070	370.434	-0.012	-0.025
-459.055	-93.292	-0.407	-0.112
-458.040	-105.576	-0.172	-0.039
-457.026	-200.000	-0.027	0.132
-456.011	-11.907	-0.256	0.167
-454.997	-32.686	-0.249	0.137
-453.982	-200.000	0.011	-0.092
-452.968	800.000	-0.042	-0.121
-451.953	288.729	0.243	-0.438
-450.938	-57.160	0.328	0.143
-449.924	54.496	-0.251	-0.240
-448.909	77.699	0.133	0.140
-447.895	179.805	0.162	-0.235
-446.880	-88.825	0.223	-0.066
-445.865	48.270	0.038	-0.035
-444.851	-75.491	0.284	-0.100
-443.836	-79.545	0.129	-0.043
-442.822	800.000	-0.080	0.264
-441.807	-62.562	-0.267	-0.110
-440.792	-116.528	-0.142	0.026
-439.778	-157.514	0.475	0.028
-438.763	242.629	0.079	-0.131
-437.749	-200.000	-0.004	0.024
-436.734	800.000	0.018	-0.053
-435.719	-147.745	-0.131	0.011
-434.705	-73.924	0.195	0.070
-433.690	112.114	0.242	0.290
-432.676	-136.786	-0.119	-0.014
-431.661	-45.354	-0.329	-0.162
-430.646	-200.000	0.035	-0.433
-429.632	-136.293	-0.330	0.038
-428.617	-168.027	-0.473	0.018
-427.603	800.000	0.108	0.378
-426.588	-200.000	-0.024	-0.135
-425.573	370.628	-0.090	-0.181
-424.559	4.112	0.067	0.049
-423.544	432.596	-0.141	0.303
-422.530	-150.312	-0.127	-0.010
-421.515	298.638	-0.044	0.080
-420.500	-135.961	0.134	-0.016
-419.486	16.278	0.199	0.155
-418.471	283.079	0.234	-0.417
-417.457	-200.000	-0.025	-0.228
-416.442	20.775	0.161	0.129
-415.428	-148.237	-0.360	-0.029
-414.413	712.052	0.102	-0.268
-413.398	-200.000	0.036	-0.193
-412.384	44.284	-0.049	0.045
-411.369	54.189	0.212	-0.202
-410.355	-86.040	0.201	0.062
-409.340	-54.619	-0.145	0.065
-408.325	334.129	0.258	0.495
-407.311	-65.894	0.156	-0.062
-406.296	763.324	-0.094	-0.252
-405.282	313.146	0.054	0.100
-404.267	-52.552	-0.226	-0.103
-403.252	218.905	0.111	-0.175
-402.238	-46.920	0.398	0.193
-401.223	-81.171	0.103	-0.034
-400.209	-200.000	0.021	0.277
-399.194	-95.452	-0.224	0.060
-398.179	-20.579	-0.163	0.099
-397.165	148.311	0.076	0.101
-396.150	231.546	-0.160	0.259
-395.136	152.147	-0.064	0.086
-394.121	-42.707	-0.323	-0.163
-393.106	-200.000	-0.035	-0.219
-392.092	800.000	-0.028	0.109
-391.077	-92.027	-0.481	0.135
-390.063	-190.062	-0.328	-0.004
-389.048	9.516	-0.190	0.142
-388.033	393.079	0.264	0.544
-387.019	15.693	0.217	0.169
-386.004	800.000	0.066	0.236
-384.990	12.030	-0.182	0.139
-383.975	-65.501	-0.131	-0.052
-382.960	288.357	-0.164	-0.294
-381.946	-89.700	-0.206	0.060
-380.931	36.282	-0.043	-0.037
-379.917	-195.412	0.494	-0.004
-378.902	-118.405	-0.456	-0.080
-377.888	-18.702	0.153	-0.094
-376.873	-8.499	0.183	-0.121
-375.858	-6.996	-0.141	-0.095
-374.844	115.837	-0.127	-0.154
-373.829	-21.781	-0.240	-0.145
-372.815	-20.161	0.075	-0.046
-371.800	-124.963	-0.219	0.033
-370.785	-200.000	-0.021	-0.170
-369.771	-100.883	-0.110	0.027
-368.756	-14.367	0.341	-0.217
-367.742	463.709	-0.152	0.336
-366.727	-136.362	-0.261	-0.030
-365.712	104.799	0.201	-0.234
-364.698	50.618	0.043	-0.040
-363.683	-103.336	0.166	-0.039
-362.669	-89.184	0.240	-0.070
-361.654	-124.526	-0.324	-0.050
-360.639	-200.000	-0.011	0.132
-359.625	-85.883	0.465	-0.142
-358.610	-75.629	0.265	-0.093
-357.596	-17.961	0.183	0.113
-356.581	28.853	0.101	0.084
-355.566	46.046	0.242	0.221
-354.552	-200.000	-0.031	0.171
-353.537	14.906	0.032	-0.024
-352.523	-53.885	0.284	-0.128
-351.508	21.940	0.107	0.086
-350.493	-200.000	0.019	-0.211
-349.479	205.046	-0.238	0.365
-348.464	-163.121	0.107	-0.005
-347.450	318.851	-0.107	0.200
-346.435	-125.050	-0.367	-0.056
-345.420	170.422	0.124	0.176
-344.406	146.662	0.191	0.254
-343.391	-132.223	0.274	-0.035
-342.377	-9.222	0.032	0.021
-341.362	-11.631	-0.314	0.204
-340.348	791.707	0.016	-0.043
-339.333	638.949	-0.037	-0.092
-338.318	10.293	-0.132	0.100
-337.304	-49.823	-0.129	0.060
-336.289	-200.000	-0.015	-0.079
-335.275	-38.298	0.094	0.049
-334.260	60.114	-0.074	0.072
-333.245	-200.000	0.017	0.106
-332.231	34.382	-0.265	-0.229
-331.216	60.013	0.354	-0.345
-330.202	701.057	0.077	-0.201
-329.187	-158.170	-0.201	-0.012
-328.172	-19.251	-0.292	-0.179
-327.158	-32.447	0.264	0.145
-326.143	-30.697	-0.149	-0.083
-325.129	103.548	0.043	0.050
-324.114	800.000	-0.023	-0.077
-323.099	-114.843	0.169	0.032
-322.085	-27.570	0.249	-0.143
-321.070	67.294	0.059	-0.060
-320.056	534.230	-0.110	-0.257
-319.041	-200.000	0.002	0.173
-318.026	-200.000	-0.067	0.337
-317.012	-25.277	-0.069	-0.040
-315.997	-164.958	0.240	-0.011
-314.983	155.245	0.202	-0.275
-313.968	-200.000	0.007	0.195
-312.953	-15.501	-0.139	0.088
-311.939	-66.174	-0.073	-0.029
-310.924	-106.068	-0.038	0.009
-309.910	99.308	0.157	0.180
-308.895	-22.674	0.330	0.197
-307.880	-60.902	-0.246	-0.103
-306.866	-157.864	-0.451	0.026
-305.851	-200.000	0.017	0.087
-304.837	2.626	0.032	-0.023
-303.822	-134.808	-0.362	0.043
-302.807	-68.343	0.100	0.038
-301.793	521.526	0.059	-0.136
-300.778	-153.028	-0.255	0.018
-299.764	-3.464	0.128	-0.088
-298.749	800.000	0.087	0.242
-297.735	-120.313	0.258	0.043
-296.720	137.607	0.123	0.159
-295.705	448.000	0.023	0.051
-294.691	-149.533	-0.223	0.017
-293.676	222.069	0.028	0.044
-292.662	800.000	0.056	-0.169
-291.647	-9.301	-0.204	0.135
-290.632	98.082	0.062	-0.071
-289.618	-77.128	0.171	0.059
-288.603	-17.446	-0.034	-0.021
-287.589	-73.298	-0.313	-0.113
-286.574	-173.159	0.405	0.012
-285.559	800.000	-0.057	0.243
-284.545	-128.343	0.338	0.047
-283.530	-112.042	0.197	-0.039
-282.516	-40.324	0.068	0.035
-281.501	-33.784	-0.172	-0.093
-280.486	-184.449	-0.244	-0.004
-279.472	-200.000	-0.042	-0.185
-278.457	-126.408	0.338	-0.050
-277.443	-200.000	-0.081	0.378
-276.428	194.540	-0.125	-0.187
-275.413	68.548	-0.058	-0.058
-274.399	-37.705	0.205	0.107
-273.384	-200.000	-0.031	-0.237
-272.370	-7.626	-0.112	-0.075
-271.355	126.827	-0.221	0.276
-270.340	-200.000	0.022	0.230
-269.326	800.000	0.022	0.083
-268.311	630.199	-0.117	0.291
-267.297	144.445	-0.130	0.171
-266.282	-82.906	0.091	-0.029
-265.267	155.966	-0.092	-0.125
-264.253	715.360	-0.143	0.373
-263.238	740.675	0.239	0.633
-262.224	71.461	-0.104	-0.106
-261.209	-114.090	0.374	-0.071
-260.195	-68.176	-0.269	0.103
-259.180	-111.711	0.203	-0.041
-258.165	-57.587	0.126	0.054
-257.151	57.507	0.331	0.319
-256.136	-200.000	-0.010	0.189
-255.122	800.000	0.034	-0.094
-254.107	-200.000	0.006	0.090
-253.092	-102.652	0.239	-0.056
-252.078	43.181	0.128	-0.115
-251.063	-76.489	-0.122	0.042
-250.049	800.000	0.098	-0.318
-249.034	479.129	-0.140	0.313
-248.019	-188.134	-0.205	-0.003
-247.005	800.000	-0.035	-0.118
-245.990	45.908	0.230	-0.209
-244.976	-161.688	-0.527	0.026
-243.961	113.568	0.114	-0.136
-242.946	800.000	-0.102	-0.289
-241.932	-118.146	0.280	-0.049
-240.917	158.180	-0.071	-0.097
-239.903	259.846	-0.090	-0.153
-238.888	46.446	0.041	-0.038
-237.873	-71.023	0.135	-0.050
-236.859	-200.000	0.038	-0.165
-235.844	-125.888	0.279	-0.041
-234.830	106.927	0.076	-0.089
-233.815	-92.626	0.111	0.031
-232.800	-99.428	0.213	0.053
-231.786	80.790	0.056	0.059
-230.771	-107.997	0.244	-0.052
-229.757	800.000	-0.013	0.041
-228.742	-183.025	-0.038	-0.001
-227.727	-200.000	0.008	-0.071
-226.713	-78.438	-0.164	0.055
-225.698	192.734	0.091	0.135
-224.684	-123.890	0.107	-0.017
-223.669	85.187	0.320	-0.345
-222.655	246.346	-0.119	0.198
-221.640	-200.000	-0.059	-0.371
-220.625	7.686	0.220	0.162
-219.611	361.712	0.078	-0.154
-218.596	-200.000	0.013	-0.219
-217.582	800.000	0.049	-0.136
-216.567	-200.000	-0.011	-0.223
-215.552	-130.497	0.159	0.021
-214.538	-6.000	0.177	-0.119
-213.523	73.651	-0.142	-0.146
-212.509	-140.536	-0.387	-0.040
-211.494	141.060	-0.140	-0.182
-210.479	343.511	0.067	-0.129
-209.465	800.000	-0.057	0.242
-208.450	-200.000	0.047	-0.254
-207.436	800.000	0.065	-0.202
-206.421	-200.000	0.009	-0.220
-205.406	-75.926	-0.104	-0.036
-204.392	370.201	0.055	-0.110
-203.377	87.500	-0.115	-0.125
-202.363	-182.664	-0.203	-0.004
-201.348	800.000	-0.037	0.129
-200.333	-61.648	0.107	0.044
-199.319	-200.000	-0.005	0.161
-198.304	800.000	-0.082	0.345
-197.290	-200.000	0.045	0.198
-196.275	-135.350	0.070	0.008
-195.260	800.000	0.095	0.362
-194.246	800.000	-0.115	-0.393
-193.231	-12.006	-0.107	-0.069
-192.217	800.000	0.067	-0.267
-191.202	576.521	-0.111	0.265
-190.187	-133.655	0.085	-0.010
-189.173	68.200	-0.077	0.077
-188.158	201.272	0.111	-0.168
-187.144	800.000	0.085	0.321
-186.129	-196.324	-0.318	-0.002
-185.114	-147.951	0.224	-0.018
-184.100	29.117	0.136	0.113
-183.085	800.000	-0.035	-0.143
-182.071	-200.000	0.043	0.319
-181.056	800.000	0.084	0.359
-180.042	-77.932	0.348	0.118
-179.027	-21.601	0.412	0.247
-178.012	-116.509	-0.126	-0.023
-176.998	-139.706	-0.248	-0.026
-175.983	-6.624	0.403	0.269
-174.969	201.267	-0.159	0.240
-173.954	-82.812	0.103	-0.033
-172.939	17.210	0.233	0.181
-171.925	174.781	-0.033	-0.046
-170.910	345.383	-0.063	-0.122
-169.896	-159.898	-0.142	-0.008
-168.881	6.505	-0.273	-0.199
-167.866	800.000	-0.027	0.110
-166.852	800.000	0.102	0.298
-165.837	-98.877	0.066	-0.017
-164.823	-200.000	0.058	-0.408
-163.808	-200.000	-0.047	-0.360
-162.793	-91.288	-0.317	0.089
-161.779	-157.260	0.054	-0.003
-160.764	-116.054	0.367	-0.067
-159.750	-97.439	0.255	-0.065
-158.735	37.560	-0.134	-0.117
-157.720	800.000	-0.070	0.231
-156.706	-200.000	-0.049	-0.220
-155.691	-168.010	0.582	-0.022
-154.677	-200.000	-0.011	0.069
-153.662	-200.000	0.003	-0.102
-152.647	-123.200	-0.224	-0.035
-151.633	-57.200	-0.442	-0.191
-150.618	86.847	0.059	-0.064
-149.604	-93.032	-0.197	0.054
-148.589	-10.980	0.310	0.200
-147.574	-55.005	-0.295	-0.130
-146.560	-200.000	-0.013	0.192
-145.545	-111.604	-0.254	0.051
-144.531	800.000	0.116	0.401
-143.516	96.086	0.131	0.147
-142.502	-4.986	-0.068	0.046
-141.487	-153.129	0.613	-0.042
-140.472	-59.704	0.054	0.023
-139.458	-18.507	0.320	-0.196
-138.443	100.515	0.226	0.257
-137.429	110.941	-0.137	0.162
-136.414	432.005	0.088	0.188
-135.399	159.323	0.223	0.304
-134.385	597.307	0.102	0.247
-133.370	672.370	-0.097	0.247
-132.356	127.329	0.150	0.187
-131.341	-13.315	0.148	-0.094
-130.326	24.756	0.164	0.133
-129.312	-20.282	0.227	0.137
-128.297	-200.000	-0.025	0.274
-127.283	800.000	-0.128	0.532
-126.268	7.570	-0.182	0.134
-125.253	-200.000	0.013	0.217
-124.239	-129.250	-0.225	0.031
-123.224	-74.737	0.174	0.061
-122.210	21.606	-0.067	0.054
-121.195	-79.665	-0.321	0.106
-120.180	800.000	0.080	-0.239
-119.166	14.170	-0.307	0.234
-118.151	-39.105	-0.224	0.115
-117.137	57.986	0.288	-0.276
-116.122	270.186	-0.061	-0.104
-115.107	44.554	-0.060	0.054
-114.093	48.899	0.193	0.177
-113.078	-125.061	-0.111	0.017
-112.064	-50.899	0.150	0.069
-111.049	459.124	-0.123	-0.267
-110.034	124.447	0.168	0.207
-109.020	-200.000	0.020	0.128
-108.005	-200.000	0.027	-0.218
-106.991	-181.257	0.127	0.002
-105.976	140.467	0.072	0.093
-104.962	-20.235	-0.183	0.111
-103.947	-155.016	0.068	-0.004
-102.932	-147.693	-0.116	-0.010
-101.918	-144.370	-0.186	-0.017
-100.903	-31.051	-0.120	0.066
-99.889	291.999	0.086	-0.154
-98.874	-127.939	-0.199	0.028
-97.859	-141.601	0.280	-0.028
-96.845	392.314	0.149	-0.303
-95.830	23.670	0.221	0.178
-94.816	193.302	-0.104	-0.153
-93.801	-54.051	-0.152	0.068
-92.786	-20.899	0.263	0.158
-91.772	-200.000	0.005	0.124
-90.757	288.985	0.078	0.138
-89.743	14.385	0.024	0.019
-88.728	77.100	0.111	0.116
-87.713	800.000	0.016	-0.055
-86.699	-41.174	0.310	0.157
-85.684	-78.577	0.047	0.016
-84.670	261.100	-0.032	-0.054
-83.655	265.712	0.111	0.189
-82.640	-9.608	0.079	-0.052
-81.626	155.561	0.031	0.042
-80.611	-35.782	-0.109	0.058
-79.597	-36.228	0.225	-0.119
-78.582	30.337	0.250	-0.209
-77.567	-97.284	0.381	0.097
-76.553	227.523	0.141	0.224
-75.538	-149.093	0.262	0.021
-74.524	-102.100	-0.169	0.040
-73.509	-200.000	-0.077	0.388
-72.494	-97.340	-0.206	-0.053
-71.480	-200.000	-0.017	-0.259
-70.465	800.000	0.044	0.132
-69.451	0.036	0.170	-0.119
-68.436	800.000	-0.071	0.303
-67.422	62.319	0.228	0.223
-66.407	65.974	0.130	-0.129
-65.392	309.136	0.100	0.182
-64.378	-44.482	0.228	0.111
-63.363	-159.973	0.296	0.016
-62.349	800.000	-0.125	0.434
-61.334	-48.177	-1.462	-0.690
-60.319	227.008	0.468	0.742
-59.305	-200.000	-0.245	-1.445
-58.290	623.955	0.545	1.341
-57.276	604.254	0.662	1.609
-56.261	-200.000	115.943	654.454
-55.246	527.013	1524.094	3510.092
-54.232	177.104	2701.592	3842.426
-53.217	100.650	2284.507	2593.378
-52.203	36.125	1894.000	1629.876
-51.188	30.224	1686.798	1406.911
-50.173	27.777	1645.037	1353.894
-49.159	48.805	1701.637	1559.667
-48.144	47.277	1715.629	1560.918
-47.130	29.704	1673.615	1391.778
-46.115	27.095	1658.813	1359.911
-45.100	27.001	1654.351	1355.501
-44.086	26.945	1652.021	1353.118
-43.071	26.871	1649.381	1350.348
-42.057	26.860	1646.996	1348.267
-41.042	26.931	1645.040	1347.137
-40.027	26.951	1642.663	1345.282
-39.013	26.988	1640.274	1343.547
-37.998	26.988	1638.830	1342.314
-36.984	26.941	1637.926	1341.169
-35.969	27.002	1636.512	1340.412
-34.954	27.125	1634.312	1339.465
-33.940	27.069	1633.189	1338.072
-32.925	27.047	1631.522	1336.498
-31.911	26.980	1630.112	1334.794
-30.896	27.013	1627.924	1333.190
-29.881	26.999	1626.834	1332.140
-28.867	27.081	1624.779	1331.008
-27.852	27.083	1623.331	1329.787
-26.838	27.088	1621.658	1328.396
-25.823	27.141	1620.419	1327.715
-24.809	27.082	1619.475	1326.459
-23.794	27.059	1618.082	1325.097
-22.779	27.067	1616.335	1323.677
-21.765	27.092	1614.721	1322.479
-20.750	26.967	1613.406	1320.442
-19.736	27.031	1612.071	1319.766
-18.721	27.076	1610.617	1318.844
-17.706	27.153	1608.535	1317.646
-16.692	27.115	1607.350	1316.353
-15.677	27.057	1606.106	1314.856
-14.663	27.225	1604.366	1314.595
-13.648	27.073	1603.256	1312.539
-12.633	27.070	1602.148	1311.554
-11.619	27.096	1600.412	1310.272
-10.604	27.135	1598.272	1308.751
-9.590	27.152	1597.190	1307.932
-8.575	27.108	1596.228	1306.780
-7.560	27.088	1594.936	1305.519
-6.546	27.082	1593.859	1304.548
-5.531	27.083	1592.458	1303.356
-4.517	26.967	1592.041	1302.128
-3.502	27.065	1590.286	1301.344
-2.487	27.109	1588.963	1300.524
-1.473	26.576	1577.245	1287.093
-0.458	23.574	1557.752	1250.022
0.556	20.799	1558.815	1217.467
1.571	18.435	1582.313	1218.914
2.586	17.965	1594.396	1224.738
3.600	15.790	1540.027	1167.792
4.615	9.276	1434.183	1045.204
5.629	3.993	1375.504	969.335
6.644	3.218	1367.999	959.135
7.659	3.151	1366.778	957.778
8.673	3.153	1365.959	957.130
9.688	3.267	1364.022	956.396
10.702	3.259	1360.448	953.753
11.717	5.651	1365.519	972.082
12.731	12.869	1378.504	1026.319
13.746	19.019	1388.724	1072.289
14.761	20.443	1390.676	1082.579
15.775	19.865	1388.582	1077.260
16.790	18.787	1386.144	1068.568
17.804	18.081	1383.624	1062.148
18.819	17.651	1382.967	1058.878
19.834	17.565	1381.588	1057.195
20.848	17.494	1380.224	1055.615
21.863	17.117	1379.110	1052.336
22.877	17.085	1377.949	1051.156
23.892	17.064	1376.889	1050.127
24.907	17.000	1375.991	1048.952
25.921	16.993	1375.579	1048.501
26.936	17.165	1374.006	1048.274
27.950	17.148	1373.129	1047.406
28.965	17.176	1372.463	1046.975
29.980	17.349	1371.383	1047.127
30.994	17.347	1370.457	1046.316
32.009	17.410	1369.039	1045.525
33.023	17.423	1367.890	1044.633
34.038	17.302	1366.657	1042.858
35.053	17.344	1365.365	1042.037
36.067	17.192	1364.522	1040.371
37.082	17.197	1363.446	1039.492
38.096	17.360	1361.999	1039.290
39.111	17.322	1361.452	1038.547
40.126	17.200	1360.501	1036.987
41.140	17.021	1359.408	1034.973
42.155	16.808	1359.101	1033.347
43.169	16.910	1358.501	1033.419
44.184	16.951	1358.205	1033.353
45.199	16.848	1358.210	1032.637
46.213	17.014	1357.253	1032.828
47.228	17.240	1356.726	1033.713
48.242	17.157	1355.524	1032.199
49.257	17.263	1353.546	1031.247
50.271	17.222	1352.990	1030.483
51.286	17.197	1351.318	1028.967
52.301	17.178	1350.189	1027.900
53.315	17.052	1349.187	1026.288
54.330	16.993	1347.644	1024.663
55.344	16.785	1346.726	1022.624
56.359	16.899	1346.008	1022.673
57.374	16.862	1345.078	1021.652
58.388	16.866	1344.088	1020.837
59.403	16.802	1343.668	1020.040
60.417	16.856	1342.861	1019.663
61.432	16.719	1342.538	1018.502
62.447	16.628	1341.297	1016.922
63.461	16.624	1340.099	1015.900
64.476	16.602	1338.792	1014.691
65.490	16.683	1337.347	1013.988
66.505	16.691	1336.417	1013.242
67.520	16.620	1335.501	1012.035
68.534	16.778	1333.701	1011.526
69.549	16.753	1332.708	1010.535
70.563	16.717	1331.668	1009.440
71.578	16.632	1330.518	1007.972
72.593	16.507	1329.922	1006.688
73.607	16.562	1328.935	1006.178
74.622	16.536	1328.492	1005.598
75.636	16.557	1327.721	1005.051
76.651	16.601	1327.126	1004.773
77.666	16.607	1326.303	1004.099
78.680	16.598	1325.877	1003.631
79.695	16.719	1325.731	1004.152
80.709	16.811	1324.829	1003.922
81.724	16.942	1323.615	1003.689
82.739	16.991	1322.838	1003.302
83.753	17.094	1322.364	1003.466
84.768	17.188	1321.325	1003.138
85.782	17.337	1320.660	1003.427
86.797	17.250	1319.449	1001.907
87.812	17.132	1317.971	999.998
88.826	17.085	1317.155	999.017
89.841	17.245	1315.626	998.704
90.855	17.353	1314.971	998.757
91.870	17.389	1313.911	998.074
92.884	17.387	1313.189	997.427
93.899	17.340	1312.471	996.513
94.914	17.396	1311.470	995.994
95.928	17.475	1310.503	995.634
96.943	17.379	1309.820	994.466
97.957	17.300	1309.074	993.352
98.972	17.268	1307.974	992.239
99.987	17.311	1306.968	991.640
101.001	17.238	1306.173	990.525
102.016	17.246	1304.813	989.451
103.030	17.344	1304.094	989.391
104.045	17.326	1302.924	988.312
105.060	17.070	1302.035	986.061
106.074	16.938	1299.990	983.657
107.089	16.802	1298.479	981.639
108.103	16.769	1297.028	980.265
109.118	16.765	1296.317	979.619
110.133	16.635	1295.209	977.947
111.147	16.698	1294.343	977.570
112.162	16.781	1292.736	976.747
113.176	16.905	1291.172	976.191
114.191	16.936	1290.112	975.482
115.206	16.791	1289.924	974.420
116.220	16.825	1287.875	972.982
117.235	16.841	1286.771	972.154
118.249	16.683	1286.163	970.704
119.264	16.726	1284.633	969.706
120.279	16.697	1283.547	968.637
121.293	16.760	1282.061	967.788
122.308	16.622	1281.213	966.272
123.322	16.589	1280.305	965.316
124.337	16.652	1278.979	964.589
125.352	16.684	1278.166	964.075
126.366	16.709	1276.536	962.901
127.381	16.582	1276.224	961.858
128.395	16.628	1275.041	961.145
129.410	16.624	1274.283	960.464
130.424	16.699	1273.255	960.028
131.439	16.830	1272.508	960.121
132.454	16.770	1271.569	958.989
133.468	16.839	1270.792	958.711
134.483	16.802	1270.067	957.870
135.497	16.845	1269.326	957.470
136.512	16.909	1267.790	956.586
137.527	16.858	1266.652	955.358
138.541	16.861	1265.321	954.286
139.556	16.956	1263.960	953.706
140.570	17.059	1262.652	953.216
141.585	17.163	1261.678	952.981
142.600	17.136	1260.848	952.118
143.614	17.227	1260.255	952.097
144.629	17.270	1259.090	951.370
145.643	17.327	1257.539	950.433
146.658	17.169	1256.531	948.707
147.673	17.119	1255.115	947.271
148.687	16.939	1254.228	945.516
149.702	16.985	1252.552	944.427
150.716	16.885	1251.520	943.010
151.731	16.956	1250.143	942.282
152.746	17.044	1248.756	941.641
153.760	17.063	1247.697	940.863
154.775	17.070	1247.046	940.327
155.789	17.149	1245.734	939.695
156.804	17.150	1245.113	939.147
157.819	17.217	1243.912	938.529
158.833	17.332	1243.196	938.542
159.848	17.377	1242.497	938.176
160.862	17.335	1241.563	937.155
161.877	17.176	1240.051	935.057
162.892	17.081	1238.691	933.427
163.906	17.061	1237.685	932.479
164.921	16.992	1236.932	931.446
165.935	17.137	1236.195	931.605
166.950	17.199	1235.681	931.476
167.964	17.131	1234.680	930.266
168.979	17.113	1233.994	929.567
169.994	17.073	1233.298	928.746
171.008	17.111	1232.515	928.282
172.023	17.261	1231.515	928.266
173.037	17.348	1230.687	928.033
174.052	17.279	1229.842	926.936
175.067	17.175	1228.652	925.392
176.081	17.031	1227.409	923.588
177.096	17.059	1226.554	923.014
178.110	17.036	1225.138	921.743
179.125	17.146	1223.777	921.238
180.140	17.133	1223.472	920.856
181.154	17.216	1221.903	920.040
182.169	17.351	1220.625	919.729
183.183	17.346	1220.127	919.242
184.198	17.420	1218.703	918.490
185.213	17.506	1217.189	917.732
186.227	17.428	1216.649	916.824
187.242	17.553	1216.021	916.940
188.256	17.653	1215.004	916.630
189.271	17.580	1214.184	915.540
190.286	17.503	1212.189	913.540
191.300	17.074	1211.842	910.896
192.315	16.965	1211.265	909.795
193.329	17.044	1210.247	909.377
194.344	17.085	1209.614	909.038
195.359	17.262	1209.375	909.725
196.373	17.290	1209.266	909.715
197.388	17.521	1208.647	910.403
198.402	17.579	1208.463	910.497
199.417	17.740	1207.516	910.557
200.432	17.768	1206.493	909.860
201.446	17.751	1206.339	909.572
202.461	17.794	1205.519	909.102
203.475	17.863	1204.401	908.545
204.490	17.763	1202.670	906.626
205.504	17.612	1201.596	904.935
206.519	17.630	1200.162	903.868
207.534	17.533	1199.328	902.649
208.548	17.677	1198.505	902.713
209.563	17.620	1197.700	901.721
210.577	17.592	1196.573	900.649
211.592	17.689	1196.015	900.661
212.607	17.906	1194.917	900.900
213.621	17.696	1194.416	899.332
214.636	17.683	1193.691	898.638
215.650	17.780	1192.533	898.200
216.665	17.907	1191.572	898.062
217.680	17.975	1190.762	897.730
218.694	17.988	1190.302	897.372
219.709	17.853	1189.448	895.941
220.723	17.872	1188.638	895.350
221.738	17.867	1188.093	894.837
222.753	17.953	1187.108	894.463
223.767	17.948	1186.655	894.019
224.782	18.027	1185.688	893.623
225.796	18.141	1184.788	893.463
226.811	18.121	1184.483	893.048
227.826	17.984	1183.548	891.552
228.840	17.947	1182.663	890.611
229.855	17.941	1181.736	889.804
230.869	17.891	1181.304	889.137
231.884	17.965	1180.230	888.636
232.899	17.861	1179.056	887.134
233.913	17.906	1178.330	886.742
234.928	17.709	1177.893	885.312
235.942	17.685	1177.367	884.715
236.957	17.742	1176.225	884.074
237.972	17.750	1175.914	883.805
238.986	17.797	1175.059	883.326
240.001	17.794	1174.457	882.777
241.015	17.861	1173.466	882.302
242.030	17.828	1173.164	881.826
243.045	17.935	1171.790	881.270
244.059	18.034	1171.311	881.341
245.074	18.035	1170.501	880.660
246.088	18.196	1169.190	880.423
247.103	18.154	1168.609	879.690
248.117	18.279	1168.230	879.972
249.132	18.424	1167.758	880.284
250.147	18.520	1166.933	880.074
251.161	18.621	1166.293	880.031
252.176	18.625	1165.731	879.554
253.190	18.667	1165.167	879.263
254.205	18.710	1164.691	879.046
255.220	18.713	1164.043	878.496
256.234	18.760	1163.449	878.209
257.249	18.684	1162.580	877.085
258.263	18.741	1162.124	876.958
259.278	18.744	1161.073	876.100
260.293	18.725	1160.951	875.836
261.307	18.853	1160.387	875.985
262.322	18.747	1159.822	874.943
263.336	18.836	1159.091	874.763
264.351	18.863	1158.729	874.554
265.366	18.940	1157.661	874.060
266.380	18.688	1157.246	872.386
267.395	18.931	1155.693	872.372
268.409	18.788	1154.669	870.800
269.424	18.705	1154.547	870.211
270.439	18.784	1153.990	870.112
271.453	18.680	1153.278	868.974
272.468	18.644	1152.006	867.753
273.482	18.597	1151.262	866.881
274.497	18.607	1150.664	866.401
275.512	18.606	1150.090	865.889
276.526	18.644	1149.484	865.549
277.541	18.740	1148.593	865.283
278.555	18.748	1147.879	864.710
279.570	18.817	1147.722	864.861
280.585	18.914	1146.688	864.497
281.599	19.015	1145.401	863.954
282.614	18.913	1144.403	862.614
283.628	18.864	1143.241	861.417
284.643	18.797	1142.418	860.383
285.657	18.888	1141.629	860.171
286.672	18.766	1140.667	858.757
287.687	18.903	1139.913	858.798
288.701	18.987	1138.932	858.404
289.716	18.905	1138.437	857.545
290.730	18.964	1137.873	857.339
291.745	18.836	1137.014	855.979
292.760	18.890	1136.542	855.815
293.774	19.031	1135.914	855.970
294.789	19.165	1135.526	856.267
295.803	19.026	1134.863	855.001
296.818	19.078	1133.593	854.229
297.833	18.903	1133.085	852.901
298.847	18.873	1132.186	852.001
299.862	18.964	1131.420	851.799
300.876	18.981	1130.724	851.283
301.891	19.079	1130.134	851.249
302.906	19.208	1129.366	851.233
303.920	19.155	1129.138	850.724
304.935	19.235	1128.751	850.753
305.949	19.393	1128.004	850.893
306.964	19.466	1127.105	850.499
307.979	19.340	1126.095	849.040
308.993	19.331	1125.472	848.450
310.008	19.385	1124.772	848.116
311.022	19.379	1124.069	847.479
312.037	19.304	1123.392	846.526
313.052	19.310	1122.229	845.604
314.066	19.114	1120.886	843.559
315.081	18.982	1120.214	842.333
316.095	19.037	1119.520	842.005
317.110	19.147	1118.068	841.376
318.125	19.126	1117.918	841.086
319.139	19.086	1117.318	840.365
320.154	19.018	1116.490	839.336
321.168	19.058	1115.937	839.042
322.183	19.221	1115.219	839.219
323.197	19.097	1115.371	838.657
324.212	19.281	1114.041	838.476
325.227	19.199	1113.687	837.739
326.241	19.269	1112.793	837.330
327.256	19.105	1112.424	836.182
328.270	19.172	1111.150	835.478
329.285	19.364	1110.086	835.534
330.300	19.147	1109.631	834.067
331.314	19.172	1108.547	833.299
332.329	19.142	1107.588	832.359
333.343	19.202	1106.910	832.065
334.358	19.323	1105.869	831.792
335.373	19.456	1105.387	831.998
336.387	19.437	1105.051	831.581
337.402	19.474	1103.816	830.754
338.416	19.530	1103.689	830.855
339.431	19.550	1102.979	830.344
340.446	19.741	1102.240	830.629
341.460	19.661	1101.826	829.859
342.475	19.850	1100.570	829.751
343.489	19.864	1100.000	829.312
344.504	19.900	1098.833	828.530
345.519	19.824	1098.084	827.529
346.533	20.072	1097.452	828.167
347.548	20.076	1096.615	827.478
348.562	19.953	1095.363	825.876
349.577	19.828	1094.766	824.754
350.592	19.628	1094.096	823.226
351.606	19.599	1093.307	822.421
352.621	19.590	1092.837	821.951
353.635	19.600	1091.979	821.281
354.650	19.500	1091.346	820.257
355.665	19.576	1090.690	820.054
356.679	19.663	1090.271	820.080
357.694	19.709	1089.463	819.613
358.708	19.732	1089.147	819.417
359.723	19.844	1088.376	819.291
360.738	19.741	1087.763	818.273
361.752	19.797	1087.111	817.971
362.767	19.869	1086.780	817.991
363.781	19.886	1086.220	817.579
364.796	19.913	1085.570	817.145
365.810	20.043	1085.105	817.336
366.825	20.162	1084.471	817.345
367.840	20.196	1084.138	817.182
368.854	20.398	1083.108	817.287
369.869	20.298	1082.528	816.304
370.883	20.167	1081.583	814.906
371.898	20.164	1080.837	814.255
372.913	20.003	1080.127	812.894
373.927	20.314	1079.555	813.850
374.942	20.289	1079.757	813.812
375.956	20.265	1078.980	813.043
376.971	20.188	1078.382	812.160
377.986	20.321	1077.546	812.079
379.000	20.313	1077.278	811.771
380.015	20.474	1076.926	812.183
381.029	20.613	1075.511	811.694
382.044	20.411	1075.201	810.447
383.059	20.470	1074.407	810.050
384.073	20.546	1073.537	809.676
385.088	20.495	1072.630	808.685
386.102	20.544	1071.331	807.863
387.117	20.288	1070.898	806.273
388.132	20.363	1069.901	805.800
389.146	20.229	1069.105	804.510
390.161	20.162	1068.418	803.608
391.175	20.225	1067.740	803.319
392.190	20.308	1067.015	803.089
393.205	20.574	1066.090	803.548
394.219	20.510	1065.446	802.699
395.234	20.458	1064.295	801.521
396.248	20.383	1063.347	800.390
397.263	20.277	1062.668	799.321
398.278	20.156	1062.471	798.543
399.292	20.211	1061.224	797.788
400.307	20.266	1060.289	797.266
401.321	20.291	1059.964	797.065
402.336	20.258	1059.246	796.305
403.350	20.193	1058.656	795.494
404.365	20.199	1058.148	795.067
405.380	20.310	1057.693	795.165
406.394	20.344	1056.833	794.606
407.409	20.586	1056.087	795.078
408.423	20.507	1055.355	794.097
409.438	20.582	1054.840	793.982
410.453	20.818	1053.777	794.185
411.467	20.747	1053.420	793.526
412.482	20.918	1052.233	793.338
413.496	20.852	1052.104	792.873
414.511	20.909	1051.447	792.563
415.526	20.998	1051.051	792.599
416.540	21.059	1050.606	792.471
417.555	20.970	1050.211	791.698
418.569	20.964	1049.294	790.911
419.584	20.944	1048.897	790.450
420.599	20.929	1048.619	790.104
421.613	155.427	1404.430	1796.814
422.628	142.473	1456.232	1796.896
