DTS Sentinel unit serial number:	SN413079Multiplexer serial number:	ORYXHardware model number:	OX4-SRSoftware version number:	ORYX F/W v4.00 Oryx Data Collector v3.7.2.0data status	okinstallation	princeton_trtdifferential loss correction	single-endedforward channel	channel 2reverse channel	N/Adate	2019/09/14time	19:47:35forward acquisition time	60.00reverse acquisition time	0.00gamma	496.2192k internal	0.2320k external	0.2320temperature offset calibration	1.0095default loss term (dB/km)	0.3790temperature slope calibration	1.0000multiplexer offset coefficient	1.0000multiplexer slope coefficient	1.0000fibre end	0.00T internal ref (°C)	34.36T ext. ref 1 (°C)	4.88T ext. ref 2 (°C)	28.54length (m)	temperature (°C)	Stokes	anti-Stokes-747.200	218.015	-0.097	0.156
-746.185	-172.017	-0.081	-0.003
-745.171	74.308	0.139	-0.148
-744.156	-118.792	-0.259	-0.046
-743.142	505.417	-0.125	-0.294
-742.127	222.105	0.068	0.111
-741.112	-107.757	-0.380	0.084
-740.098	-146.182	0.150	-0.013
-739.083	122.492	0.128	0.162
-738.069	9.891	-0.412	0.316
-737.054	-188.854	0.261	0.003
-736.039	312.512	-0.108	-0.205
-735.025	140.246	-0.078	0.104
-734.010	-200.000	-0.007	0.078
-732.996	198.169	-0.100	-0.155
-731.981	274.267	0.139	-0.248
-730.966	-200.000	0.004	-0.037
-729.952	-126.220	-0.324	0.049
-728.937	-200.000	0.021	0.165
-727.923	-166.903	0.196	-0.008
-726.908	229.844	0.266	0.438
-725.894	-147.548	0.409	0.035
-724.879	-87.464	-0.257	-0.078
-723.864	204.408	0.102	-0.160
-722.850	45.723	0.156	-0.145
-721.835	-163.428	-0.188	0.009
-720.821	-59.908	0.304	0.131
-719.806	46.743	-0.241	0.226
-718.791	-39.672	-0.039	0.021
-717.777	530.848	-0.153	0.366
-716.762	-200.000	-0.016	-0.119
-715.748	-48.374	-0.040	-0.019
-714.733	800.000	-0.057	-0.204
-713.718	-126.369	-0.158	0.024
-712.704	-3.291	-0.390	-0.274
-711.689	-93.739	-0.364	-0.101
-710.675	76.517	0.081	-0.087
-709.660	-200.000	-0.037	0.188
-708.645	800.000	-0.041	0.116
-707.631	103.967	-0.035	0.042
-706.616	-200.000	0.021	-0.136
-705.602	-200.000	-0.052	0.282
-704.587	800.000	0.067	-0.294
-703.572	-200.000	0.035	-0.524
-702.558	-70.227	-0.161	0.062
-701.543	-21.304	0.260	-0.160
-700.529	380.177	0.033	0.067
-699.514	284.077	-0.166	-0.301
-698.499	-85.716	-0.282	-0.088
-697.485	23.729	-0.093	-0.078
-696.470	81.358	-0.030	0.033
-695.456	-200.000	0.007	-0.110
-694.441	37.474	-0.182	-0.163
-693.426	62.321	-0.218	0.220
-692.412	-127.877	-0.239	0.035
-691.397	121.222	-0.085	-0.107
-690.383	800.000	-0.122	-0.406
-689.368	800.000	-0.117	0.339
-688.354	-94.666	0.122	-0.033
-687.339	155.342	-0.080	0.111
-686.324	-142.889	-0.146	-0.014
-685.310	185.783	0.044	-0.066
-684.295	-177.966	0.218	-0.005
-683.281	800.000	-0.019	-0.056
-682.266	-48.115	-0.316	0.154
-681.251	-161.179	0.107	0.006
-680.237	-200.000	-0.003	0.213
-679.222	-164.373	0.186	-0.009
-678.208	233.762	0.027	0.045
-677.193	238.004	-0.229	0.384
-676.178	172.316	0.009	0.012
-675.164	88.163	0.118	-0.132
-674.149	137.389	-0.123	0.162
-673.135	-165.561	-0.250	0.011
-672.120	-112.512	-0.411	-0.083
-671.105	-200.000	-0.004	-0.034
-670.091	-200.000	-0.035	-0.194
-669.076	55.853	0.020	0.019
-668.062	-184.531	0.030	-0.000
-667.047	-200.000	-0.002	0.109
-666.032	-163.726	0.330	-0.016
-665.018	189.173	-0.031	0.047
-664.003	-119.476	-0.101	-0.018
-662.989	48.516	-0.157	0.148
-661.974	-44.205	-0.255	-0.129
-660.959	254.914	0.084	-0.145
-659.945	-200.000	0.011	-0.111
-658.930	325.217	-0.179	0.345
-657.916	-62.139	-0.169	-0.071
-656.901	-91.653	-0.122	0.035
-655.886	499.766	0.227	-0.527
-654.872	681.317	-0.085	-0.223
-653.857	-159.222	-0.242	-0.014
-652.843	-91.136	-0.163	0.047
-651.828	800.000	-0.033	-0.099
-650.814	249.703	0.090	-0.154
-649.799	-115.199	-0.182	-0.035
-648.784	-86.165	-0.207	0.064
-647.770	-85.561	0.277	-0.087
-646.755	-179.613	-0.285	0.006
-645.741	5.339	-0.162	0.120
-644.726	-200.000	-0.000	0.334
-643.711	-185.331	-0.140	0.002
-642.697	-200.000	-0.065	0.293
-641.682	-60.754	-0.213	-0.091
-640.668	141.114	0.101	-0.135
-639.653	166.274	-0.165	0.235
-638.638	62.322	-0.141	0.141
-637.624	195.607	-0.068	0.104
-636.609	15.797	-0.247	0.196
-635.595	-171.583	0.230	0.008
-634.580	800.000	0.130	0.431
-633.565	-200.000	0.009	-0.240
-632.551	2.063	-0.160	-0.117
-631.536	-91.525	-0.252	-0.072
-630.522	800.000	0.092	0.300
-629.507	800.000	0.085	0.239
-628.492	176.120	0.053	-0.077
-627.478	332.846	0.148	-0.288
-626.463	-200.000	-0.007	-0.086
-625.449	-200.000	-0.045	0.289
-624.434	-144.193	0.460	-0.043
-623.419	4.844	-0.122	-0.090
-622.405	-57.873	0.131	-0.058
-621.390	-6.334	-0.058	-0.040
-620.376	67.267	-0.224	-0.230
-619.361	36.186	-0.143	0.127
-618.346	800.000	0.043	-0.167
-617.332	-162.921	0.086	-0.004
-616.317	15.374	0.090	-0.071
-615.303	35.748	-0.136	-0.120
-614.288	800.000	-0.087	0.317
-613.273	-43.465	0.277	0.141
-612.259	127.487	0.106	0.136
-611.244	800.000	0.026	0.072
-610.230	438.320	-0.131	0.288
-609.215	-86.312	-0.151	-0.047
-608.201	-97.623	0.363	-0.095
-607.186	-200.000	0.086	0.470
-606.171	-200.000	0.003	-0.342
-605.157	134.099	0.270	0.351
-604.142	9.527	0.137	0.104
-603.128	-127.205	-0.399	0.059
-602.113	58.638	-0.238	0.235
-601.098	-62.551	-0.019	-0.008
-600.084	137.850	0.294	-0.387
-599.069	-63.995	-0.372	-0.153
-598.055	800.000	0.103	-0.289
-597.040	-21.451	0.139	0.085
-596.025	-200.000	-0.057	0.268
-595.011	800.000	-0.014	-0.050
-593.996	-144.349	-0.379	0.035
-592.982	55.437	0.249	-0.242
-591.967	4.681	0.219	0.162
-590.952	132.220	0.112	-0.145
-589.938	534.753	0.044	-0.105
-588.923	3.341	0.142	0.104
-587.909	305.956	-0.081	-0.151
-586.894	65.483	0.211	-0.215
-585.879	-200.000	0.025	0.245
-584.865	800.000	-0.050	0.198
-583.850	-124.781	-0.169	-0.026
-582.836	342.072	0.082	-0.161
-581.821	-97.895	0.013	0.003
-580.806	800.000	0.088	0.255
-579.792	123.982	-0.017	0.022
-578.777	489.509	-0.040	-0.091
-577.763	-200.000	0.003	0.151
-576.748	306.393	0.116	0.217
-575.733	224.941	-0.038	-0.062
-574.719	-93.044	0.162	-0.045
-573.704	380.935	-0.042	0.086
-572.690	-95.040	-0.324	-0.088
-571.675	-79.997	-0.101	-0.034
-570.661	62.209	-0.334	-0.335
-569.646	-68.894	0.163	-0.063
-568.631	457.527	0.170	-0.379
-567.617	4.819	-0.075	0.055
-566.602	-33.005	0.166	-0.092
-565.588	-0.146	-0.320	0.228
-564.573	196.782	-0.028	-0.043
-563.558	-200.000	-0.027	-0.308
-562.544	800.000	-0.012	0.040
-561.529	9.832	0.172	0.131
-560.515	800.000	-0.023	-0.072
-559.500	529.048	0.171	0.406
-558.485	204.926	-0.054	-0.085
-557.471	-150.875	-0.199	-0.015
-556.456	-200.000	0.011	0.238
-555.442	791.762	0.134	-0.371
-554.427	-14.409	-0.149	-0.096
-553.412	184.052	-0.093	-0.138
-552.398	-111.861	-0.057	-0.011
-551.383	361.972	0.153	-0.308
-550.369	318.473	0.045	-0.085
-549.354	-46.179	-0.088	-0.043
-548.339	-34.864	0.256	-0.140
-547.325	-110.811	-0.245	-0.051
-546.310	665.663	0.132	0.343
-545.296	800.000	-0.045	-0.178
-544.281	-200.000	-0.029	-0.252
-543.266	800.000	0.111	-0.333
-542.252	0.259	0.142	-0.102
-541.237	-139.149	-0.027	-0.003
-540.223	6.638	-0.080	0.060
-539.208	-152.672	0.151	-0.011
-538.193	-97.064	-0.282	-0.074
-537.179	800.000	0.059	0.198
-536.164	800.000	-0.060	0.194
-535.150	-86.891	-0.163	0.050
-534.135	-200.000	-0.009	0.120
-533.121	351.815	0.078	0.155
-532.106	-200.000	0.018	-0.183
-531.091	33.148	-0.103	0.090
-530.077	156.558	0.048	-0.067
-529.062	800.000	0.066	-0.200
-528.048	-44.054	-0.388	-0.195
-527.033	628.478	0.082	0.209
-526.018	-200.000	-0.017	-0.310
-525.004	132.085	0.058	-0.075
-523.989	59.660	-0.118	0.117
-522.975	-181.692	-0.383	-0.007
-521.960	-20.679	0.097	0.060
-520.945	302.443	0.135	-0.251
-519.931	800.000	-0.114	-0.418
-518.916	-200.000	-0.031	-0.238
-517.902	223.006	0.206	-0.333
-516.887	-67.011	0.063	-0.025
-515.872	-200.000	0.039	0.251
-514.858	-170.716	0.215	0.007
-513.843	733.834	-0.080	0.215
-512.829	-55.629	-0.121	-0.054
-511.814	-188.262	-0.296	-0.004
-510.799	98.457	-0.264	0.305
-509.785	800.000	0.051	0.168
-508.770	-54.476	0.092	-0.042
-507.756	134.966	0.105	0.137
-506.741	-139.608	-0.118	-0.013
-505.726	409.791	-0.039	0.082
-504.712	-14.234	-0.080	0.052
-503.697	-60.564	-0.256	0.109
-502.683	117.571	0.294	0.362
-501.668	-200.000	0.064	0.295
-500.653	-37.793	-0.077	0.041
-499.639	40.249	0.315	-0.284
-498.624	86.469	0.061	-0.067
-497.610	-200.000	0.008	0.136
-496.595	61.632	0.190	-0.189
-495.581	-61.024	0.032	0.014
-494.566	203.484	-0.140	-0.217
-493.551	144.652	-0.155	0.207
-492.537	188.207	0.097	-0.145
-491.522	35.410	-0.035	0.031
-490.508	-68.589	0.187	-0.073
-489.493	-26.318	-0.194	0.114
-488.478	129.076	-0.097	-0.124
-487.464	-105.759	0.409	-0.093
-486.449	-70.763	-0.329	0.124
-485.435	-200.000	0.077	0.380
-484.420	-200.000	0.031	0.222
-483.405	147.754	-0.176	-0.238
-482.391	20.799	0.100	-0.081
-481.376	-9.062	0.298	0.200
-480.362	-200.000	-0.052	0.341
-479.347	800.000	0.075	0.247
-478.332	286.356	-0.136	0.246
-477.318	-16.957	-0.020	0.012
-476.303	169.385	0.070	-0.100
-475.289	-200.000	0.025	-0.195
-474.274	211.176	0.068	-0.107
-473.259	800.000	-0.041	0.150
-472.245	-59.740	-0.229	0.098
-471.230	135.755	0.032	-0.041
-470.216	-27.015	0.081	0.047
-469.201	-200.000	0.079	0.370
-468.186	-65.911	-0.155	0.062
-467.172	86.368	0.101	-0.111
-466.157	-154.442	0.365	0.024
-465.143	133.562	0.171	-0.222
-464.128	-200.000	-0.002	-0.027
-463.113	-46.160	-0.412	0.203
-462.099	-25.277	-0.226	-0.134
-461.084	-184.906	0.203	0.003
-460.070	-1.473	0.191	-0.135
-459.055	723.237	0.075	0.199
-458.040	-161.454	-0.256	-0.013
-457.026	-0.690	0.068	-0.049
-456.011	294.613	-0.059	0.109
-454.997	-200.000	-0.006	-0.094
-453.982	104.970	-0.293	-0.346
-452.968	800.000	-0.159	-0.551
-451.953	107.978	-0.162	-0.193
-450.938	-126.329	-0.409	0.061
-449.924	145.647	0.024	0.032
-448.909	-200.000	-0.026	-0.196
-447.895	429.958	-0.073	0.158
-446.880	-96.819	-0.044	-0.012
-445.865	377.377	-0.171	-0.349
-444.851	789.762	0.099	-0.272
-443.836	-60.097	0.373	0.159
-442.822	-38.386	-0.279	0.148
-441.807	-45.956	0.359	0.177
-440.792	-200.000	0.023	-0.220
-439.778	800.000	0.058	-0.216
-438.763	800.000	0.029	0.106
-437.749	62.804	0.050	-0.050
-436.734	-124.421	0.019	-0.003
-435.719	-39.186	-0.397	-0.208
-434.705	5.185	0.305	0.224
-433.690	259.398	-0.114	0.196
-432.676	-200.000	-0.010	-0.078
-431.661	-93.832	0.387	0.106
-430.646	196.670	-0.258	-0.393
-429.632	-136.594	0.232	0.027
-428.617	-146.086	0.261	-0.023
-427.603	-110.987	0.271	-0.056
-426.588	378.141	-0.030	-0.061
-425.573	15.495	-0.110	-0.086
-424.559	-148.322	-0.301	0.025
-423.544	261.587	-0.023	0.040
-422.530	-63.598	-0.177	-0.073
-421.515	-200.000	0.018	-0.165
-420.500	-93.248	0.234	0.065
-419.486	-73.056	-0.314	0.115
-418.471	-2.205	-0.074	-0.052
-417.457	-200.000	-0.075	0.337
-416.442	79.638	0.074	0.080
-415.428	191.563	0.174	0.262
-414.413	-138.199	0.353	-0.039
-413.398	-89.400	-0.145	-0.043
-412.384	-9.609	0.101	0.067
-411.369	-31.381	0.234	0.132
-410.355	800.000	-0.035	0.103
-409.340	-200.000	-0.026	-0.171
-408.325	800.000	-0.031	-0.102
-407.311	-76.652	0.089	0.031
-406.296	800.000	0.025	0.097
-405.282	-51.390	-0.422	-0.197
-404.267	-200.000	0.035	-0.165
-403.252	123.179	0.089	-0.112
-402.238	306.076	-0.099	0.184
-401.223	508.564	-0.148	0.342
-400.209	-95.421	-0.363	-0.097
-399.194	-125.880	0.530	-0.080
-398.179	-47.662	-0.075	0.036
-397.165	-147.854	0.089	0.007
-396.150	94.155	0.238	0.269
-395.136	-200.000	0.015	-0.249
-394.121	800.000	-0.026	-0.106
-393.106	182.672	0.123	-0.181
-392.092	-35.802	-0.118	0.064
-391.077	-22.226	-0.411	-0.249
-390.063	291.213	-0.124	-0.225
-389.048	-153.070	0.226	0.016
-388.033	-94.575	0.169	-0.046
-387.019	800.000	-0.038	-0.113
-386.004	29.333	0.178	-0.151
-384.990	34.448	-0.135	-0.118
-383.975	-14.736	0.460	0.294
-382.960	-60.040	0.192	-0.082
-381.946	50.806	-0.378	0.357
-380.931	-53.032	0.223	-0.102
-379.917	66.598	0.234	0.237
-378.902	-200.000	0.000	0.129
-377.888	-109.685	0.203	0.043
-376.873	-200.000	-0.007	-0.385
-375.858	-111.707	-0.249	0.050
-374.844	-114.535	0.198	-0.038
-373.829	-200.000	-0.003	-0.128
-372.815	800.000	-0.034	-0.125
-371.800	225.143	-0.160	0.258
-370.785	-12.213	-0.335	-0.219
-369.771	800.000	0.010	0.032
-368.756	75.596	-0.054	-0.056
-367.742	143.576	-0.111	0.147
-366.727	-136.264	-0.014	-0.002
-365.712	197.337	-0.192	-0.292
-364.698	-134.880	-0.134	-0.016
-363.683	162.034	-0.099	-0.138
-362.669	-18.408	0.027	-0.017
-361.654	511.556	0.081	0.188
-360.639	-34.134	-0.486	0.266
-359.625	-200.000	0.161	0.001
-358.610	800.000	-0.086	-0.356
-357.596	-200.000	0.022	0.267
-356.581	698.038	-0.052	0.135
-355.566	189.490	0.235	0.350
-354.552	-158.477	-0.270	-0.016
-353.537	-200.000	0.062	0.287
-352.523	-200.000	0.013	0.069
-351.508	228.108	-0.057	-0.092
-350.493	368.458	-0.022	-0.045
-349.479	-181.351	-0.245	-0.005
-348.464	14.693	-0.245	-0.191
-347.450	800.000	0.111	-0.357
-346.435	-131.622	-0.061	0.008
-345.420	-99.164	0.237	-0.060
-344.406	-85.449	-0.130	-0.040
-343.391	-84.195	0.354	-0.112
-342.377	-55.373	-0.270	0.121
-341.362	-115.931	0.289	-0.054
-340.348	203.094	0.053	-0.082
-339.333	-125.635	-0.114	0.017
-338.318	13.191	-0.118	0.091
-337.304	-200.000	-0.005	0.042
-336.289	145.276	0.167	0.223
-335.275	207.354	-0.032	-0.050
-334.260	-67.475	0.113	0.044
-333.245	212.429	0.163	0.255
-332.231	145.706	0.215	0.286
-331.216	-153.212	-0.042	0.003
-330.202	316.724	0.152	-0.286
-329.187	478.841	0.156	-0.350
-328.172	-29.367	0.274	-0.156
-327.158	46.059	0.043	0.040
-326.143	-141.105	0.098	-0.010
-325.129	-160.312	0.275	0.015
-324.114	800.000	-0.027	-0.096
-323.099	244.827	0.076	-0.128
-322.085	-200.000	-0.007	0.145
-321.070	-148.041	-0.168	0.014
-320.056	-74.735	0.216	0.077
-319.041	-15.848	-0.324	0.205
-318.026	-44.684	0.217	0.108
-317.012	800.000	-0.082	-0.254
-315.997	569.147	-0.131	0.317
-314.983	800.000	0.078	-0.334
-313.968	-91.219	0.245	-0.070
-312.953	196.084	0.154	-0.234
-311.939	800.000	-0.051	0.200
-310.924	707.170	0.028	-0.075
-309.910	195.859	0.036	0.054
-308.895	-138.376	-0.198	-0.022
-307.880	-200.000	0.023	-0.190
-306.866	117.287	-0.202	-0.246
-305.851	800.000	-0.050	0.170
-304.837	-200.000	-0.042	-0.182
-303.822	235.507	0.086	0.141
-302.807	-104.472	0.200	0.046
-301.793	-12.880	-0.147	-0.095
-300.778	-175.731	-0.046	-0.001
-299.764	471.905	0.044	0.099
-298.749	225.860	0.143	0.231
-297.735	-163.211	0.236	0.011
-296.720	92.299	-0.268	-0.300
-295.705	214.432	0.141	0.222
-294.691	-128.785	-0.220	0.031
-293.676	294.722	0.076	0.139
-292.662	-90.185	0.380	0.110
-291.647	10.532	0.112	-0.085
-290.632	-8.312	0.128	-0.086
-289.618	-53.248	-0.143	-0.065
-288.603	407.039	0.096	-0.202
-287.589	200.634	0.190	-0.290
-286.574	213.265	-0.111	-0.174
-285.559	172.302	-0.182	-0.260
-284.545	453.816	0.059	-0.129
-283.530	-106.377	-0.164	-0.036
-282.516	-88.445	-0.201	0.060
-281.501	-200.000	-0.023	-0.161
-280.486	-59.891	-0.284	-0.121
-279.472	762.450	0.082	0.221
-278.457	-200.000	0.012	-0.186
-277.443	280.995	-0.056	0.099
-276.428	-94.907	-0.174	0.047
-275.413	-33.020	-0.373	-0.205
-274.399	800.000	-0.023	0.095
-273.384	678.643	0.021	0.055
-272.370	800.000	-0.072	0.258
-271.355	-60.660	0.145	-0.061
-270.340	-9.656	-0.074	-0.049
-269.326	-69.732	-0.396	0.150
-268.311	2.933	-0.311	-0.224
-267.297	47.689	-0.179	-0.166
-266.282	-51.649	0.208	0.096
-265.267	-200.000	0.003	-0.173
-264.253	326.429	0.017	0.033
-263.238	56.681	0.149	-0.144
-262.224	800.000	-0.104	0.329
-261.209	-200.000	0.212	0.000
-260.195	575.515	-0.074	-0.180
-259.180	99.437	-0.268	0.308
-258.165	82.299	0.256	0.276
-257.151	-146.011	-0.144	-0.013
-256.136	-115.536	-0.265	-0.049
-255.122	383.293	0.079	0.161
-254.107	117.452	-0.119	0.145
-253.092	800.000	-0.107	0.359
-252.078	475.988	-0.036	0.080
-251.063	800.000	-0.040	-0.128
-250.049	248.041	0.086	0.144
-249.034	-200.000	0.000	0.118
-248.019	-200.000	0.026	0.137
-247.005	-200.000	-0.002	-0.243
-245.990	-157.722	0.235	0.014
-244.976	165.732	0.125	0.176
-243.961	-200.000	-0.000	-0.169
-242.946	-22.427	0.235	-0.141
-241.932	-165.603	-0.242	-0.010
-240.917	-111.444	0.206	-0.042
-239.903	-61.198	0.035	-0.015
-238.888	213.728	0.167	-0.262
-237.873	496.830	0.041	0.093
-236.859	75.852	0.216	0.226
-235.844	-101.391	0.120	0.029
-234.830	114.595	-0.340	-0.411
-233.815	800.000	0.082	-0.288
-232.800	16.631	0.187	0.147
-231.786	800.000	-0.032	0.108
-230.771	136.668	0.089	0.116
-229.757	254.093	0.083	-0.141
-228.742	800.000	0.039	-0.138
-227.727	-123.282	-0.465	-0.074
-226.713	-200.000	-0.027	-0.195
-225.698	-200.000	-0.044	-0.235
-224.684	-200.000	-0.015	-0.160
-223.669	-99.404	0.215	0.054
-222.655	-44.758	0.131	0.065
-221.640	-156.832	0.204	0.012
-220.625	800.000	0.097	-0.284
-219.611	-53.417	-0.174	-0.079
-218.596	56.991	0.056	0.054
-217.582	-74.689	0.061	-0.022
-216.567	-90.994	-0.474	0.135
-215.552	415.531	-0.089	-0.187
-214.538	-59.972	-0.201	0.085
-213.523	-168.667	0.088	-0.003
-212.509	114.628	-0.071	-0.086
-211.494	-27.334	0.113	-0.065
-210.479	419.361	0.119	-0.252
-209.465	-42.002	-0.177	0.090
-208.450	800.000	-0.090	0.256
-207.436	-36.017	-0.076	0.040
-206.421	32.825	0.209	0.179
-205.406	-83.700	0.134	0.042
-204.392	-155.356	0.388	0.025
-203.377	-89.995	-0.355	0.103
-202.363	-36.339	0.443	0.236
-201.348	-38.743	-0.123	0.064
-200.333	-200.000	-0.015	0.120
-199.319	144.614	-0.015	-0.020
-198.304	-86.286	-0.089	-0.027
-197.290	-148.628	-0.227	0.018
-196.275	-42.878	0.192	0.097
-195.260	-42.614	0.319	-0.161
-194.246	800.000	-0.046	-0.137
-193.231	-83.545	0.283	-0.090
-192.217	327.628	-0.035	0.066
-191.202	711.180	0.136	0.356
-190.187	-50.293	-0.239	0.112
-189.173	-200.000	-0.057	0.327
-188.158	-25.052	-0.144	-0.084
-187.144	-107.241	-0.224	0.049
-186.129	112.564	-0.225	-0.270
-185.114	107.757	0.099	-0.116
-184.100	272.279	-0.091	0.159
-183.085	-44.286	0.490	0.243
-182.071	-134.890	0.140	-0.017
-181.056	-69.693	-0.278	0.105
-180.042	-87.240	0.074	-0.022
-179.027	800.000	0.033	0.139
-178.012	-11.219	0.164	-0.107
-176.998	202.844	-0.170	0.260
-175.983	-200.000	0.028	0.188
-174.969	-43.920	0.545	-0.271
-173.954	-200.000	-0.019	0.090
-172.939	-101.604	-0.019	-0.005
-171.925	800.000	0.077	-0.297
-170.910	-54.332	0.177	0.079
-169.896	5.849	0.235	0.172
-168.881	-93.838	0.367	-0.100
-167.866	106.448	-0.058	-0.068
-166.852	382.827	-0.146	-0.296
-165.837	-200.000	0.001	0.312
-164.823	545.234	-0.042	-0.099
-163.808	-144.374	0.171	-0.016
-162.793	-200.000	0.037	0.419
-161.779	-200.000	-0.024	0.209
-160.764	800.000	0.089	-0.257
-159.750	-200.000	-0.027	0.436
-158.735	130.699	0.147	0.186
-157.720	-79.431	-0.045	-0.015
-156.706	271.661	-0.044	0.076
-155.691	800.000	0.100	-0.283
-154.677	-200.000	-0.006	-0.274
-153.662	-98.017	-0.205	-0.052
-152.647	-71.744	-0.391	0.144
-151.633	62.075	-0.161	0.158
-150.618	-200.000	0.007	0.069
-149.604	-30.064	-0.363	0.204
-148.589	-200.000	0.004	0.207
-147.574	160.136	-0.207	-0.285
-146.560	-46.413	0.312	0.151
-145.545	-200.000	0.012	0.185
-144.531	-172.034	-0.309	0.010
-143.516	335.526	-0.016	-0.030
-142.502	800.000	-0.075	0.297
-141.487	434.025	-0.057	0.123
-140.472	169.637	0.157	0.221
-139.458	116.997	0.196	0.237
-138.443	-200.000	-0.028	0.138
-137.429	799.846	0.023	0.062
-136.414	-67.564	0.186	0.072
-135.399	-79.423	0.274	-0.091
-134.385	181.174	-0.120	0.175
-133.370	123.528	-0.283	0.351
-132.356	-135.713	0.197	0.023
-131.341	612.936	0.073	-0.180
-130.326	-20.614	0.232	-0.141
-129.312	532.578	-0.061	-0.142
-128.297	-200.000	0.025	-0.133
-127.283	290.488	-0.082	0.148
-126.268	-129.314	0.334	-0.046
-125.253	-25.063	-0.133	-0.078
-124.239	258.459	-0.116	-0.197
-123.224	698.086	-0.137	-0.356
-122.210	-99.104	-0.233	0.058
-121.195	148.235	0.076	0.101
-120.180	75.155	-0.154	-0.161
-119.166	-184.866	0.283	-0.004
-118.151	-97.641	0.289	-0.074
-117.137	-200.000	-0.027	-0.325
-116.122	469.415	0.059	-0.131
-115.107	-8.072	0.191	-0.127
-114.093	98.498	-0.202	0.230
-113.078	17.629	-0.269	-0.211
-112.064	-180.563	-0.374	-0.008
-111.049	-56.266	0.175	0.077
-110.034	800.000	0.073	0.241
-109.020	246.786	0.053	-0.088
-108.005	705.476	-0.093	0.243
-106.991	105.874	0.222	0.259
-105.976	-72.662	0.236	0.086
-104.962	211.338	-0.142	-0.220
-103.947	-162.992	0.129	0.006
-102.932	-200.000	0.062	0.431
-101.918	148.145	-0.119	0.159
-100.903	-8.041	-0.098	0.065
-99.889	-20.758	0.283	0.171
-98.874	-10.796	-0.066	0.043
-97.859	-90.379	0.386	-0.111
-96.845	-184.460	-0.121	0.002
-95.830	-200.000	-0.041	0.244
-94.816	-159.829	-0.474	0.026
-93.801	-200.000	-0.037	-0.286
-92.786	93.533	0.019	-0.021
-91.772	-59.935	-0.019	-0.008
-90.757	-33.801	-0.168	0.091
-89.743	-158.788	-0.270	0.015
-88.728	-50.455	-0.032	0.015
-87.713	149.797	-0.065	0.087
-86.699	-22.124	-0.152	-0.091
-85.684	-200.000	0.010	0.341
-84.670	-82.548	-0.245	0.078
-83.655	-200.000	0.094	0.435
-82.640	118.040	0.130	-0.158
-81.626	55.368	-0.172	-0.164
-80.611	-113.214	0.388	-0.075
-79.597	-200.000	0.045	0.265
-78.582	284.849	0.039	-0.069
-77.567	-200.000	0.011	0.204
-76.553	800.000	0.086	-0.275
-75.538	-127.129	0.171	-0.025
-74.524	-129.073	-0.099	0.014
-73.509	800.000	-0.061	0.238
-72.494	253.694	0.103	0.174
-71.480	30.940	0.217	0.183
-70.465	-200.000	0.061	-0.287
-69.451	198.528	0.086	0.130
-68.436	-152.850	0.159	-0.011
-67.422	-28.848	-0.289	0.164
-66.407	-200.000	0.145	0.659
-65.392	97.903	0.117	-0.132
-64.378	188.375	0.084	-0.124
-63.363	32.230	0.098	0.083
-62.349	-27.047	0.135	0.077
-61.334	81.889	-0.799	-0.852
-60.319	-62.960	0.639	0.260
-59.305	800.000	-0.212	-0.899
-58.290	800.000	0.276	0.803
-57.276	731.991	0.683	1.797
-56.261	-200.000	97.326	575.309
-55.246	636.173	1391.173	3476.960
-54.232	190.685	2594.999	3839.883
-53.217	114.753	2286.752	2744.315
-52.203	43.636	1904.861	1715.296
-51.188	37.549	1695.214	1480.320
-50.173	34.792	1650.812	1421.021
-49.159	52.571	1698.214	1596.164
-48.144	55.578	1715.652	1635.118
-47.130	37.192	1673.458	1458.408
-46.115	34.381	1658.537	1424.371
-45.100	34.221	1653.594	1418.879
-44.086	34.195	1650.989	1416.393
-43.071	34.240	1648.090	1414.185
-42.057	34.258	1645.876	1412.363
-41.042	34.171	1643.882	1409.950
-40.027	34.191	1642.143	1408.556
-39.013	34.134	1639.919	1406.170
-37.998	34.199	1638.371	1405.262
-36.984	34.263	1637.362	1404.818
-35.969	34.347	1635.120	1403.458
-34.954	34.397	1633.689	1402.538
-33.940	34.333	1631.637	1400.256
-32.925	34.288	1629.877	1398.357
-31.911	34.320	1628.483	1397.342
-30.896	34.300	1626.796	1395.686
-29.881	34.383	1625.175	1394.849
-28.867	34.342	1623.434	1393.004
-27.852	34.375	1621.439	1391.479
-26.838	34.370	1620.331	1390.430
-25.823	34.345	1619.040	1389.089
-24.809	34.385	1617.686	1388.162
-23.794	34.381	1616.597	1387.141
-22.779	34.357	1614.641	1385.235
-21.765	34.474	1612.969	1384.592
-20.750	34.358	1611.488	1382.427
-19.736	34.410	1610.242	1381.680
-18.721	34.408	1608.851	1380.415
-17.706	34.384	1607.320	1378.880
-16.692	34.378	1605.830	1377.502
-15.677	34.375	1604.667	1376.426
-14.663	34.474	1602.723	1375.415
-13.648	34.406	1601.102	1373.481
-12.633	34.389	1600.332	1372.642
-11.619	34.448	1598.257	1371.232
-10.604	34.396	1596.918	1369.659
-9.590	34.426	1595.812	1368.871
-8.575	34.478	1594.061	1367.688
-7.560	34.463	1593.118	1366.717
-6.546	34.317	1592.710	1365.264
-5.531	34.374	1591.167	1364.295
-4.517	34.433	1589.787	1363.480
-3.502	34.350	1588.635	1361.849
-2.487	34.412	1587.519	1361.278
-1.473	33.931	1575.885	1347.838
-0.458	31.058	1555.347	1310.074
0.556	27.461	1555.319	1274.585
1.571	24.890	1578.459	1275.143
2.586	24.276	1591.905	1281.479
3.600	21.355	1538.076	1217.721
4.615	12.992	1428.587	1076.591
5.629	6.060	1364.723	985.033
6.644	4.969	1356.127	971.946
7.659	4.821	1355.240	970.300
8.673	4.924	1353.497	969.608
9.688	4.796	1353.011	968.380
10.702	4.714	1350.099	965.698
11.717	7.842	1355.648	989.050
12.731	15.607	1369.721	1047.828
13.746	20.314	1376.634	1082.447
14.761	20.041	1374.732	1079.156
15.775	18.958	1372.148	1070.298
16.790	17.847	1369.543	1061.267
17.804	17.078	1366.932	1054.375
18.819	16.687	1365.966	1051.108
19.834	16.498	1364.732	1048.895
20.848	16.233	1363.279	1046.039
21.863	15.977	1362.330	1043.637
22.877	15.807	1360.742	1041.272
23.892	15.809	1359.872	1040.528
24.907	15.793	1359.427	1039.998
25.921	15.852	1358.651	1039.673
26.936	15.811	1357.692	1038.595
27.950	15.788	1357.082	1037.897
28.965	15.898	1355.520	1037.289
29.980	16.081	1354.539	1037.571
30.994	16.165	1353.315	1037.059
32.009	16.165	1352.311	1036.196
33.023	16.103	1350.871	1034.622
34.038	16.201	1349.785	1034.297
35.053	16.048	1348.223	1032.077
36.067	15.916	1347.615	1030.710
37.082	16.021	1346.591	1030.477
38.096	16.047	1345.683	1029.849
39.111	16.108	1344.279	1029.059
40.126	15.872	1343.690	1027.078
41.140	15.821	1342.838	1026.023
42.155	15.733	1342.509	1025.146
43.169	15.733	1341.868	1024.563
44.184	15.701	1341.631	1024.097
45.199	15.754	1341.099	1023.921
46.213	15.869	1340.971	1024.436
47.228	15.947	1339.542	1023.728
48.242	15.935	1338.828	1023.016
49.257	15.887	1337.535	1021.646
50.271	15.937	1335.884	1020.597
51.286	15.818	1334.792	1018.952
52.301	15.827	1333.912	1018.244
53.315	15.799	1332.526	1016.932
54.330	15.750	1331.220	1015.546
55.344	15.779	1329.764	1014.519
56.359	15.759	1329.025	1013.745
57.374	15.669	1328.010	1012.343
58.388	15.714	1327.075	1011.808
59.403	15.577	1326.706	1010.615
60.417	15.618	1326.349	1010.499
61.432	15.596	1324.953	1009.213
62.447	15.603	1324.116	1008.530
63.461	15.581	1322.852	1007.345
64.476	15.466	1322.291	1006.142
65.490	15.530	1320.753	1005.262
66.505	15.416	1320.138	1004.022
67.520	15.619	1318.416	1003.838
68.534	15.581	1317.415	1002.760
69.549	15.684	1315.923	1002.151
70.563	15.609	1315.121	1001.005
71.578	15.560	1313.692	999.536
72.593	15.495	1312.996	998.535
73.607	15.475	1312.224	997.739
74.622	15.441	1311.482	996.884
75.636	15.509	1310.762	996.649
76.651	15.560	1309.975	996.266
77.666	15.543	1309.577	995.775
78.680	15.494	1309.349	995.225
79.695	15.572	1308.370	994.856
80.709	15.677	1307.825	994.972
81.724	15.646	1307.138	994.179
82.739	15.734	1306.087	993.813
83.753	15.772	1305.163	993.244
84.768	15.850	1304.235	992.910
85.782	16.135	1303.012	993.571
86.797	16.004	1301.809	991.793
87.812	15.810	1300.564	989.618
88.826	15.874	1299.650	989.211
89.841	16.013	1298.624	989.160
90.855	16.076	1297.545	988.621
91.870	16.038	1296.694	987.663
92.884	15.967	1296.014	986.638
93.899	16.017	1295.611	986.536
94.914	16.111	1294.512	986.165
95.928	16.115	1293.591	985.400
96.943	16.022	1292.788	984.156
97.957	15.947	1291.632	982.749
98.972	15.973	1290.622	982.048
99.987	15.890	1289.855	980.894
101.001	15.978	1288.515	980.298
102.016	16.045	1287.898	980.133
103.030	15.990	1286.790	978.881
104.045	16.054	1286.153	978.684
105.060	15.940	1284.985	977.047
106.074	15.779	1283.337	974.772
107.089	15.697	1281.903	973.126
108.103	15.619	1280.653	971.637
109.118	15.654	1279.385	970.795
110.133	15.603	1278.126	969.458
111.147	15.643	1276.805	968.603
112.162	15.679	1275.527	967.751
113.176	15.759	1274.421	967.287
114.191	15.695	1273.756	966.328
115.206	15.743	1272.476	965.547
116.220	15.758	1271.533	964.834
117.235	15.736	1270.160	963.582
118.249	15.797	1269.188	963.109
119.264	15.714	1268.237	961.828
120.279	15.735	1267.040	960.954
121.293	15.657	1265.907	959.565
122.308	15.583	1264.939	958.321
123.322	15.617	1263.834	957.597
124.337	15.532	1262.973	956.373
125.352	15.563	1261.859	955.622
126.366	15.556	1260.759	954.665
127.381	15.608	1259.624	954.017
128.395	15.624	1258.128	952.887
129.410	15.644	1257.743	952.624
130.424	15.732	1256.921	952.420
131.439	15.736	1255.738	951.460
132.454	15.683	1254.892	950.436
133.468	15.764	1253.966	950.107
134.483	15.674	1253.318	949.026
135.497	15.831	1251.877	948.736
136.512	15.756	1251.267	947.765
137.527	15.873	1249.917	947.315
138.541	15.844	1248.627	946.095
139.556	15.817	1247.497	945.001
140.570	15.897	1246.409	944.543
141.585	15.969	1244.931	943.741
142.600	15.953	1244.152	942.979
143.614	16.167	1243.141	943.327
144.629	16.093	1242.179	942.098
145.643	16.040	1240.839	940.701
146.658	15.938	1239.704	939.193
147.673	15.794	1238.414	937.327
148.687	15.907	1237.019	936.821
149.702	15.732	1235.713	934.773
150.716	15.747	1234.403	933.785
151.731	15.811	1233.306	933.228
152.746	15.839	1232.102	932.389
153.760	15.912	1231.190	932.020
154.775	15.982	1229.889	931.339
155.789	15.975	1229.247	930.734
156.804	16.072	1227.745	930.045
157.819	16.021	1227.002	929.122
158.833	15.997	1226.243	928.331
159.848	16.106	1225.306	928.138
160.862	16.188	1224.086	927.583
161.877	15.952	1222.945	925.341
162.892	15.853	1221.734	923.799
163.906	15.872	1220.522	922.906
164.921	15.833	1219.796	922.064
165.935	15.972	1218.877	922.045
166.950	15.918	1218.600	921.459
167.964	15.951	1217.715	920.891
168.979	15.968	1217.140	920.466
169.994	16.010	1216.265	919.953
171.008	16.037	1215.663	919.560
172.023	16.003	1215.129	918.892
173.037	16.190	1214.294	919.198
174.052	16.244	1213.160	918.554
175.067	16.161	1212.175	917.276
176.081	16.047	1211.124	915.778
177.096	15.919	1210.529	914.550
178.110	16.089	1208.885	914.154
179.125	16.116	1207.877	913.452
180.140	16.055	1207.230	912.556
181.154	16.054	1205.749	911.346
182.169	16.159	1204.559	910.938
183.183	16.277	1202.892	910.229
184.198	16.279	1201.880	909.397
185.213	16.281	1201.469	909.016
186.227	16.332	1200.038	908.127
187.242	16.348	1198.966	907.322
188.256	16.396	1198.309	906.997
189.271	16.428	1196.850	905.988
190.286	16.269	1196.127	904.505
191.300	16.033	1195.044	902.348
192.315	16.018	1194.185	901.538
193.329	16.018	1193.860	901.211
194.344	15.970	1193.155	900.341
195.359	16.163	1192.772	901.008
196.373	16.233	1192.116	900.806
197.388	16.312	1192.069	901.110
198.402	16.491	1191.227	901.350
199.417	16.484	1191.324	901.306
200.432	16.545	1189.912	900.479
201.446	16.588	1189.393	900.238
202.461	16.775	1188.328	900.348
203.475	16.619	1187.522	898.828
204.490	16.556	1186.528	897.659
205.504	16.548	1184.636	896.106
206.519	16.576	1183.442	895.274
207.534	16.473	1182.844	894.198
208.548	16.476	1181.454	893.085
209.563	16.506	1181.233	892.993
210.577	16.565	1180.216	892.459
211.592	16.655	1179.212	892.094
212.607	16.614	1178.843	891.521
213.621	16.667	1177.644	890.816
214.636	16.681	1177.023	890.340
215.650	16.668	1175.885	889.332
216.665	16.707	1174.854	888.678
217.680	16.814	1174.214	888.677
218.694	16.774	1173.481	887.835
219.709	16.812	1172.491	887.203
220.723	16.754	1171.682	886.213
221.738	16.691	1171.220	885.455
222.753	16.839	1169.990	885.218
223.767	16.792	1169.573	884.578
224.782	16.886	1169.180	884.695
225.796	16.982	1168.448	884.564
226.811	16.925	1167.295	883.316
227.826	16.761	1167.032	882.184
228.840	16.890	1166.216	882.160
229.855	16.867	1165.660	881.541
230.869	16.778	1164.725	880.294
231.884	16.721	1163.973	879.349
232.899	16.695	1163.366	878.682
233.913	16.748	1162.752	878.414
234.928	16.745	1161.399	877.296
235.942	16.667	1161.158	876.635
236.957	16.787	1160.119	876.392
237.972	16.839	1159.496	876.116
238.986	16.728	1159.170	875.216
240.001	16.829	1158.119	874.867
241.015	16.677	1157.654	873.652
242.030	16.901	1156.558	873.903
243.045	16.963	1155.616	873.434
244.059	16.896	1155.179	872.683
245.074	16.927	1154.320	872.116
246.088	16.988	1153.535	871.759
247.103	17.055	1152.786	871.461
248.117	17.104	1152.219	871.204
249.132	17.244	1151.442	871.256
250.147	17.395	1150.645	871.353
251.161	17.401	1150.146	870.925
252.176	17.342	1149.744	870.244
253.190	17.389	1148.931	869.790
254.205	17.442	1148.402	869.585
255.220	17.509	1147.597	869.240
256.234	17.466	1147.090	868.558
257.249	17.495	1146.394	868.103
258.263	17.621	1145.458	867.961
259.278	17.472	1144.887	866.691
260.293	17.577	1144.533	866.882
261.307	17.477	1143.936	865.843
262.322	17.484	1143.453	865.438
263.336	17.657	1142.725	865.687
264.351	17.570	1141.666	864.371
265.366	17.553	1141.124	863.797
266.380	17.657	1140.605	863.853
267.395	17.705	1139.429	863.130
268.409	17.656	1138.443	862.061
269.424	17.619	1138.150	861.575
270.439	17.610	1137.274	860.789
271.453	17.450	1136.934	859.649
272.468	17.418	1136.400	859.006
273.482	17.506	1135.021	858.333
274.497	17.509	1134.758	858.071
275.512	17.594	1133.796	857.696
276.526	17.499	1133.440	856.873
277.541	17.549	1132.722	856.504
278.555	17.603	1132.052	856.194
279.570	17.804	1130.991	856.323
280.585	17.649	1130.752	855.292
281.599	17.856	1129.371	855.207
282.614	17.819	1128.177	854.041
283.628	17.692	1127.318	852.682
284.643	17.653	1126.411	851.723
285.657	17.695	1125.984	851.537
286.672	17.718	1124.574	850.510
287.687	17.873	1123.675	850.527
288.701	17.900	1123.003	850.075
289.716	17.797	1122.409	849.042
290.730	17.791	1121.710	848.406
291.745	17.927	1120.955	848.435
292.760	17.871	1120.422	847.679
293.774	17.893	1119.865	847.294
294.789	18.015	1119.275	847.376
295.803	17.965	1118.662	846.589
296.818	17.879	1117.891	845.503
297.833	17.884	1117.000	844.780
298.847	17.888	1116.140	844.077
299.862	17.913	1115.950	843.980
300.876	18.019	1114.499	843.332
301.891	18.013	1114.227	843.024
302.906	18.052	1113.614	842.678
303.920	18.090	1113.069	842.377
304.935	18.166	1112.423	842.186
305.949	18.177	1112.075	841.902
306.964	18.211	1110.832	841.056
307.979	18.097	1110.001	839.793
308.993	18.217	1109.259	839.745
310.008	18.232	1108.600	839.244
311.022	18.148	1108.233	838.479
312.037	18.278	1106.985	838.101
313.052	18.244	1106.057	837.157
314.066	18.080	1105.205	835.638
315.081	17.992	1104.688	834.742
316.095	18.034	1103.820	834.214
317.110	18.071	1103.000	833.701
318.125	18.070	1102.264	833.069
319.139	18.113	1101.468	832.604
320.154	18.072	1100.682	831.737
321.168	18.104	1100.188	831.445
322.183	18.111	1099.774	831.090
323.197	18.085	1099.272	830.509
324.212	18.166	1098.558	830.292
325.227	18.270	1097.800	830.149
326.241	18.241	1097.056	829.373
327.256	18.269	1095.952	828.603
328.270	18.199	1095.058	827.513
329.285	18.205	1094.267	826.871
330.300	18.202	1093.712	826.364
331.314	18.241	1092.766	825.765
332.329	18.256	1091.577	824.864
333.343	18.316	1090.575	824.323
334.358	18.359	1090.194	824.172
335.373	18.331	1089.439	823.391
336.387	18.406	1088.916	823.285
337.402	18.409	1087.954	822.497
338.416	18.435	1087.029	821.853
339.431	18.475	1086.734	821.746
340.446	18.653	1085.611	821.678
341.460	18.710	1085.436	821.747
342.475	18.709	1084.365	820.855
343.489	18.716	1083.718	820.329
344.504	18.666	1082.953	819.438
345.519	18.766	1082.143	819.232
346.533	18.803	1081.545	818.882
347.548	18.799	1081.152	818.493
348.562	18.865	1079.747	817.669
349.577	18.686	1079.082	816.243
350.592	18.714	1078.195	815.632
351.606	18.529	1077.625	814.250
352.621	18.465	1077.070	813.455
353.635	18.459	1076.322	812.792
354.650	18.657	1075.591	813.102
355.665	18.641	1075.083	812.573
356.679	18.575	1074.486	811.738
357.694	18.705	1073.920	811.853
358.708	18.734	1072.887	811.136
359.723	18.781	1072.417	810.930
360.738	18.764	1071.915	810.399
361.752	18.880	1071.066	810.232
362.767	18.813	1070.820	809.661
363.781	18.750	1070.286	808.886
364.796	18.831	1069.355	808.495
365.810	19.061	1068.716	809.022
366.825	19.029	1068.335	808.511
367.840	19.089	1067.941	808.422
368.854	19.182	1067.597	808.528
369.869	19.106	1067.043	807.678
370.883	19.022	1065.965	806.397
371.898	19.094	1064.602	805.633
372.913	19.067	1064.349	805.241
373.927	19.145	1063.765	805.096
374.942	19.117	1063.441	804.649
375.956	19.156	1062.942	804.382
376.971	19.137	1062.206	803.665
377.986	19.264	1061.558	803.693
379.000	19.209	1061.266	803.148
380.015	19.439	1060.455	803.534
381.029	19.506	1059.672	803.182
382.044	19.365	1059.407	802.252
383.059	19.250	1058.682	801.100
384.073	19.405	1057.754	801.045
385.088	19.469	1056.341	800.199
386.102	19.384	1055.949	799.440
387.117	19.196	1055.345	798.041
388.132	19.193	1054.310	797.175
389.146	19.131	1053.623	796.295
390.161	19.251	1052.437	795.884
391.175	19.182	1051.870	795.065
392.190	19.227	1051.793	795.145
393.205	19.330	1050.970	794.926
394.219	19.329	1050.056	794.159
395.234	19.345	1048.974	793.344
396.248	19.274	1047.883	792.127
397.263	19.215	1047.200	791.265
398.278	19.265	1046.060	790.567
399.292	19.115	1045.729	789.557
400.307	19.078	1044.784	788.606
401.321	19.255	1044.117	788.841
402.336	19.210	1043.506	788.104
403.350	19.159	1042.908	787.351
404.365	19.267	1042.342	787.348
405.380	19.277	1041.654	786.804
406.394	19.210	1041.341	786.191
407.409	19.353	1040.218	785.926
408.423	19.582	1039.311	786.213
409.438	19.616	1038.898	785.985
410.453	19.650	1037.991	785.385
411.467	19.697	1037.624	785.250
412.482	19.786	1036.913	785.049
413.496	19.715	1036.306	784.196
414.511	19.845	1035.541	784.136
415.526	19.803	1035.577	783.903
416.540	19.871	1035.159	783.825
417.555	19.839	1034.278	782.944
418.569	19.803	1033.431	782.072
419.584	19.770	1033.308	781.762
420.599	19.902	1032.643	781.787
421.613	151.799	1399.997	1792.573
422.628	138.622	1453.512	1792.669
