DTS Sentinel unit serial number:	SN413079Multiplexer serial number:	ORYXHardware model number:	OX4-SRSoftware version number:	ORYX F/W v4.00 Oryx Data Collector v3.7.2.0data status	okinstallation	princeton_trtdifferential loss correction	single-endedforward channel	channel 2reverse channel	N/Adate	2019/09/13time	03:35:35forward acquisition time	60.00reverse acquisition time	0.00gamma	496.2192k internal	0.2334k external	0.2334temperature offset calibration	1.0194default loss term (dB/km)	0.3790temperature slope calibration	1.0000multiplexer offset coefficient	1.0000multiplexer slope coefficient	1.0000fibre end	0.00T internal ref (°C)	27.27T ext. ref 1 (°C)	4.08T ext. ref 2 (°C)	21.65length (m)	temperature (°C)	Stokes	anti-Stokes-747.200	-200.000	0.033	0.258
-746.185	201.809	-0.109	0.170
-745.171	32.872	0.093	-0.081
-744.156	26.139	-0.315	-0.264
-743.142	-76.526	-0.310	-0.110
-742.127	-117.236	-0.188	0.034
-741.112	685.786	0.155	0.406
-740.098	-138.327	-0.321	0.036
-739.083	-95.026	-0.176	-0.048
-738.069	-62.901	-0.107	-0.044
-737.054	114.631	0.015	-0.018
-736.039	800.000	-0.011	-0.045
-735.025	101.689	0.047	0.055
-734.010	-121.101	-0.358	-0.060
-732.996	-200.000	-0.029	-0.232
-731.981	162.984	-0.245	-0.345
-730.966	-133.955	0.118	-0.015
-729.952	-10.561	-0.170	-0.113
-728.937	-200.000	0.060	0.307
-727.923	-71.457	-0.122	0.046
-726.908	492.140	0.099	0.228
-725.894	-200.000	0.011	0.097
-724.879	-174.019	0.369	0.011
-723.864	117.200	-0.169	0.208
-722.850	-164.295	-0.397	0.018
-721.835	-108.171	-0.212	-0.046
-720.821	115.418	0.234	0.287
-719.806	-150.179	-0.035	0.003
-718.791	800.000	-0.032	0.124
-717.777	-29.012	-0.191	-0.110
-716.762	461.144	0.070	-0.157
-715.748	-122.850	-0.200	0.032
-714.733	-152.159	-0.386	-0.028
-713.718	-140.546	-0.394	-0.041
-712.704	-99.330	-0.095	-0.024
-711.689	546.806	0.043	-0.103
-710.675	40.160	0.186	0.167
-709.660	-2.212	-0.227	-0.160
-708.645	-143.802	0.270	-0.026
-707.631	-200.000	-0.015	-0.200
-706.616	800.000	0.045	-0.151
-705.602	97.060	-0.416	-0.478
-704.587	48.928	0.217	0.205
-703.572	-200.000	0.042	-0.282
-702.558	10.695	-0.166	-0.127
-701.543	800.000	0.070	-0.238
-700.529	614.581	-0.143	0.360
-699.514	800.000	-0.071	0.257
-698.499	40.426	0.191	-0.173
-697.485	-26.610	0.113	-0.067
-696.470	9.072	0.082	-0.062
-695.456	-71.872	0.346	0.129
-694.441	-61.068	-0.269	0.114
-693.426	-72.358	0.282	-0.105
-692.412	-138.780	0.163	0.018
-691.397	5.198	-0.270	-0.200
-690.383	100.578	-0.151	-0.176
-689.368	-83.696	-0.306	-0.098
-688.354	800.000	-0.049	-0.136
-687.339	-18.888	0.131	-0.082
-686.324	192.639	0.033	-0.049
-685.310	59.245	-0.083	-0.082
-684.295	-200.000	-0.001	0.103
-683.281	-200.000	0.000	-0.114
-682.266	5.151	0.263	0.194
-681.251	105.323	0.205	0.242
-680.237	-77.808	-0.415	0.144
-679.222	800.000	0.091	0.304
-678.208	-5.060	0.278	-0.192
-677.193	259.955	-0.075	0.131
-676.178	-106.935	0.023	-0.005
-675.164	-83.938	0.297	0.095
-674.149	-137.101	0.209	0.024
-673.135	-154.696	-0.191	-0.013
-672.120	56.431	0.128	0.124
-671.105	673.347	-0.043	-0.113
-670.091	323.824	0.084	0.160
-669.076	-200.000	0.008	-0.163
-668.062	-74.705	-0.363	0.131
-667.047	-60.853	0.149	0.063
-666.032	23.646	0.108	0.089
-665.018	24.472	-0.225	0.186
-664.003	-62.455	0.186	0.078
-662.989	-20.956	-0.327	-0.200
-661.974	-200.000	-0.031	0.287
-660.959	-178.530	-0.428	-0.010
-659.945	-118.200	-0.605	0.108
-658.930	800.000	-0.009	0.037
-657.916	-43.289	0.340	-0.172
-656.901	113.968	-0.385	-0.469
-655.886	-134.774	-0.214	0.026
-654.872	-88.316	-0.443	-0.133
-653.857	78.470	0.269	0.288
-652.843	216.659	0.197	-0.315
-651.828	-133.337	-0.291	-0.037
-650.814	-200.000	0.006	-0.231
-649.799	482.719	0.161	-0.366
-648.784	-81.712	-0.046	-0.015
-647.770	-154.535	0.139	-0.009
-646.755	-200.000	0.025	-0.165
-645.741	-158.465	0.172	0.010
-644.726	-101.111	-0.062	0.015
-643.711	-31.225	0.094	-0.053
-642.697	800.000	0.074	-0.210
-641.682	311.180	-0.101	-0.190
-640.668	18.746	0.205	-0.164
-639.653	-200.000	-0.037	0.329
-638.638	-22.804	-0.079	-0.048
-637.624	1.647	-0.125	0.090
-636.609	-105.237	0.466	0.106
-635.595	88.579	0.182	0.203
-634.580	-200.000	0.016	0.195
-633.565	-111.391	0.111	0.023
-632.551	3.438	0.151	-0.110
-631.536	-200.000	0.012	0.197
-630.522	520.462	0.065	-0.152
-629.507	-18.873	-0.223	-0.139
-628.492	110.606	-0.142	-0.170
-627.478	-200.000	-0.272	-0.001
-626.463	-57.444	-0.402	0.177
-625.449	-137.748	0.033	0.004
-624.434	-93.543	-0.145	-0.040
-623.419	-112.192	-0.308	-0.062
-622.405	-200.000	-0.004	0.111
-621.390	-55.711	0.204	-0.091
-620.376	-200.000	0.001	0.069
-619.361	-200.000	-0.018	0.221
-618.346	117.666	-0.152	0.187
-617.332	290.607	0.114	0.207
-616.317	-51.601	0.310	-0.144
-615.303	-31.031	0.322	0.182
-614.288	-200.000	0.033	0.231
-613.273	-77.219	0.166	0.058
-612.259	455.318	-0.046	-0.102
-611.244	-200.000	-0.004	-0.080
-610.230	800.000	0.045	-0.170
-609.215	-92.293	0.361	0.102
-608.201	55.156	0.109	0.106
-607.186	-7.924	-0.087	0.058
-606.171	-123.026	-0.482	0.077
-605.157	-129.998	-0.270	0.037
-604.142	800.000	-0.118	0.333
-603.128	-101.905	-0.384	-0.093
-602.113	-45.810	-0.300	0.148
-601.098	-200.000	0.004	0.066
-600.084	-88.158	-0.144	-0.043
-599.069	146.328	-0.154	-0.207
-598.055	-88.102	-0.330	0.099
-597.040	22.628	-0.045	-0.037
-596.025	-8.751	0.169	-0.113
-595.011	-94.297	-0.118	0.032
-593.996	160.337	0.164	-0.229
-592.982	-200.000	0.008	-0.075
-591.967	-122.046	0.288	-0.047
-590.952	800.000	0.044	0.181
-589.938	800.000	0.024	0.072
-588.923	15.966	0.245	0.193
-587.909	43.044	0.227	0.207
-586.894	496.674	-0.173	-0.397
-585.879	87.290	-0.190	0.210
-584.865	106.601	-0.096	-0.113
-583.850	800.000	0.063	-0.187
-582.836	-55.654	-0.281	0.126
-581.821	-200.000	-0.007	-0.138
-580.806	-110.113	0.285	0.059
-579.792	-200.000	-0.050	-0.249
-578.777	-90.245	-0.406	0.118
-577.763	-200.000	-0.034	-0.214
-576.748	169.087	-0.101	-0.143
-575.733	191.132	-0.212	-0.319
-574.719	9.474	0.303	-0.229
-573.704	-4.700	-0.189	0.130
-572.690	800.000	-0.056	-0.156
-571.675	362.825	-0.096	-0.193
-570.661	99.909	0.315	-0.364
-569.646	-66.771	-0.118	-0.047
-568.631	-200.000	-0.015	-0.107
-567.617	-98.173	-0.332	0.085
-566.602	-183.353	0.105	0.002
-565.588	-45.819	0.207	0.102
-564.573	-42.365	-0.271	0.138
-563.558	800.000	-0.063	-0.177
-562.544	-61.875	0.233	0.097
-561.529	-44.521	0.113	-0.056
-560.515	-200.000	-0.005	0.113
-559.500	402.968	-0.067	0.140
-558.485	-110.376	-0.096	-0.020
-557.471	297.113	0.132	-0.242
-556.456	-136.516	0.207	-0.024
-555.442	-27.690	-0.205	-0.119
-554.427	531.540	0.071	0.167
-553.412	44.004	-0.247	0.226
-552.398	123.561	-0.035	0.043
-551.383	-200.000	-0.007	0.143
-550.369	-56.279	-0.045	0.020
-549.354	-91.760	-0.346	0.098
-548.339	206.057	0.070	0.108
-547.325	88.939	0.039	-0.043
-546.310	-95.570	-0.418	-0.112
-545.296	21.427	0.162	-0.132
-544.281	286.943	0.075	-0.135
-543.266	-200.000	0.001	0.150
-542.252	-95.891	-0.143	-0.038
-541.237	-169.214	0.145	0.005
-540.223	-200.000	0.026	-0.372
-539.208	199.113	0.156	0.238
-538.193	-129.248	0.179	0.025
-537.179	-200.000	0.008	-0.113
-536.164	-61.679	0.060	0.025
-535.150	-35.182	-0.048	0.026
-534.135	-200.000	-0.059	-0.269
-533.121	-200.000	0.021	-0.133
-532.106	-136.195	-0.075	0.009
-531.091	800.000	-0.031	0.126
-530.077	-111.352	-0.309	-0.063
-529.062	-69.742	0.164	0.062
-528.048	39.558	0.173	-0.155
-527.033	286.540	0.112	0.201
-526.018	-200.000	-0.024	0.337
-525.004	363.120	-0.123	0.245
-523.989	207.753	-0.322	-0.501
-522.975	47.642	0.076	-0.071
-521.960	-200.000	-0.009	0.167
-520.945	800.000	-0.114	-0.335
-519.931	-30.731	-0.029	-0.016
-518.916	-200.000	0.023	0.102
-517.902	601.562	-0.029	-0.071
-516.887	6.240	0.114	-0.084
-515.872	-200.000	-0.026	-0.225
-514.858	326.442	-0.067	-0.129
-513.843	-96.711	0.170	-0.044
-512.829	171.373	0.187	0.268
-511.814	-129.076	-0.190	0.026
-510.799	32.746	0.171	0.148
-509.785	800.000	-0.072	-0.226
-508.770	-97.026	0.432	-0.113
-507.756	21.184	-0.219	0.177
-506.741	-97.677	0.165	0.043
-505.726	-200.000	-0.007	-0.186
-504.712	-50.528	0.272	-0.128
-503.697	-126.285	-0.381	0.057
-502.683	-200.000	-0.030	0.166
-501.668	-200.000	-0.022	-0.134
-500.653	85.615	0.127	-0.139
-499.639	800.000	-0.071	0.244
-498.624	800.000	-0.047	-0.155
-497.610	-20.915	0.307	0.187
-496.595	-97.524	-0.117	0.030
-495.581	-9.216	0.182	-0.121
-494.566	800.000	-0.027	0.102
-493.551	91.013	0.113	-0.126
-492.537	-112.696	-0.252	-0.050
-491.522	800.000	-0.028	-0.088
-490.508	-200.000	-0.005	0.153
-489.493	383.541	0.062	-0.126
-488.478	-200.000	0.030	-0.363
-487.464	-27.604	-0.339	-0.196
-486.449	-200.000	0.303	-0.001
-485.435	-150.955	0.224	-0.017
-484.420	165.862	0.120	-0.169
-483.405	-112.912	-0.358	-0.071
-482.391	-158.359	0.184	-0.011
-481.376	-114.150	-0.127	0.025
-480.362	-109.757	0.143	0.030
-479.347	-14.999	-0.265	-0.169
-478.332	-178.474	-0.252	0.006
-477.318	-89.232	-0.131	0.038
-476.303	-42.416	0.399	0.202
-475.289	12.003	-0.215	0.165
-474.274	21.410	-0.076	0.061
-473.259	517.936	-0.105	0.244
-472.245	800.000	0.058	0.173
-471.230	8.085	-0.116	0.087
-470.216	-77.960	0.194	-0.067
-469.201	-8.508	0.082	-0.055
-468.186	-57.329	0.037	0.016
-467.172	800.000	0.052	0.177
-466.157	470.845	-0.051	0.113
-465.143	-125.317	-0.148	0.022
-464.128	-76.747	0.251	0.088
-463.113	145.162	-0.186	-0.247
-462.099	-200.000	-0.036	0.245
-461.084	-54.620	-0.168	-0.076
-460.070	140.960	0.018	-0.023
-459.055	-24.823	0.274	-0.162
-458.040	-200.000	0.024	0.164
-457.026	800.000	0.080	-0.296
-456.011	20.679	-0.190	0.153
-454.997	211.697	-0.012	-0.019
-453.982	111.970	0.121	-0.145
-452.968	-117.241	-0.156	-0.028
-451.953	-150.452	-0.062	-0.005
-450.938	40.096	-0.195	0.174
-449.924	800.000	0.103	0.374
-448.909	77.408	-0.111	0.117
-447.895	-6.576	-0.073	0.050
-446.880	50.286	0.038	-0.036
-445.865	282.503	-0.091	0.162
-444.851	-95.113	-0.091	-0.024
-443.836	-173.229	-0.343	0.010
-442.822	1.505	0.413	-0.295
-441.807	155.220	0.145	-0.198
-440.792	440.703	0.122	-0.265
-439.778	-31.769	-0.147	-0.082
-438.763	-34.376	-0.354	0.193
-437.749	-37.368	0.074	0.039
-436.734	-118.809	-0.054	-0.009
-435.719	199.383	-0.063	-0.095
-434.705	338.328	0.194	0.376
-433.690	-145.270	-0.013	-0.001
-432.676	8.273	0.284	-0.212
-431.661	-200.000	-0.003	-0.141
-430.646	-200.000	-0.054	0.378
-429.632	-66.948	0.225	0.088
-428.617	-135.740	-0.288	0.034
-427.603	19.884	0.288	-0.231
-426.588	-43.950	-0.163	0.081
-425.573	307.074	-0.230	-0.426
-424.559	-171.204	-0.176	-0.006
-423.544	800.000	-0.032	-0.097
-422.530	-10.540	-0.273	-0.180
-421.515	68.783	0.127	0.129
-420.500	-55.335	-0.178	0.080
-419.486	-166.680	0.203	0.008
-418.471	800.000	0.095	0.265
-417.457	68.832	0.116	-0.118
-416.442	385.848	0.023	0.048
-415.428	-200.000	0.029	-0.130
-414.413	-55.829	-0.183	-0.081
-413.398	-200.000	0.027	-0.172
-412.384	543.981	-0.042	-0.100
-411.369	-200.000	-0.017	0.174
-410.355	-1.604	0.267	-0.187
-409.340	271.757	0.090	0.158
-408.325	59.503	-0.190	0.185
-407.311	-102.661	0.203	0.048
-406.296	-53.861	-0.065	-0.030
-405.282	-77.279	0.069	-0.024
-404.267	-2.722	-0.047	-0.033
-403.252	50.668	0.059	-0.055
-402.238	800.000	-0.070	-0.206
-401.223	-80.114	0.176	0.058
-400.209	-62.767	0.384	0.158
-399.194	-62.010	-0.202	0.084
-398.179	-126.367	0.093	0.014
-397.165	-36.769	-0.446	-0.237
-396.150	-161.425	0.378	0.019
-395.136	-50.708	0.333	-0.156
-394.121	116.236	-0.126	-0.153
-393.106	-12.884	0.176	-0.114
-392.092	-22.512	0.400	-0.240
-391.077	-6.786	0.259	-0.175
-390.063	-200.000	-0.004	-0.064
-389.048	-178.607	-0.233	-0.005
-388.033	-200.000	-0.007	0.195
-387.019	-200.000	-0.018	-0.174
-386.004	-162.828	-0.164	0.008
-384.990	-23.179	-0.326	0.195
-383.975	-73.720	0.309	0.111
-382.960	-70.472	-0.163	-0.061
-381.946	4.850	0.132	-0.096
-380.931	-14.554	0.184	0.117
-379.917	-161.267	-0.195	-0.010
-378.902	-91.615	0.058	0.016
-377.888	-46.034	-0.071	-0.035
-376.873	-76.795	-0.090	-0.031
-375.858	72.077	0.059	-0.060
-374.844	152.097	0.069	-0.093
-373.829	-4.506	-0.189	-0.129
-372.815	95.625	0.273	-0.309
-371.800	-44.506	-0.084	-0.042
-370.785	239.389	0.051	0.083
-369.771	-200.000	0.100	-0.484
-368.756	-63.970	0.373	-0.151
-367.742	587.776	0.059	0.145
-366.727	-82.926	-0.191	0.061
-365.712	-24.409	-0.198	-0.117
-364.698	-80.865	0.233	0.077
-363.683	-200.000	0.044	0.226
-362.669	667.819	-0.129	0.330
-361.654	171.217	0.116	0.164
-360.639	135.634	0.166	0.213
-359.625	-176.727	0.172	0.004
-358.610	142.337	-0.266	0.349
-357.596	-182.462	-0.198	0.004
-356.581	223.218	-0.124	-0.198
-355.566	-82.662	-0.447	0.143
-354.552	-200.000	-0.029	-0.243
-353.537	800.000	0.053	-0.196
-352.523	-200.000	0.036	-0.209
-351.508	-200.000	-0.004	-0.106
-350.493	-200.000	0.000	0.289
-349.479	-157.066	-0.283	0.017
-348.464	-103.526	-0.410	-0.095
-347.450	-18.214	-0.149	-0.092
-346.435	8.925	0.173	-0.129
-345.420	-28.047	-0.220	-0.126
-344.406	109.744	-0.064	-0.075
-343.391	-135.496	0.041	-0.005
-342.377	-61.304	0.216	0.090
-341.362	-49.240	0.138	0.065
-340.348	-62.907	-0.410	0.168
-339.333	-200.000	-0.018	0.179
-338.318	-200.000	0.018	0.118
-337.304	800.000	0.028	0.085
-336.289	143.875	-0.309	0.408
-335.275	16.130	0.246	0.192
-334.260	16.468	-0.188	-0.147
-333.245	-126.052	0.166	-0.025
-332.231	-78.955	-0.084	-0.028
-331.216	-104.675	-0.108	-0.025
-330.202	34.553	-0.182	-0.157
-329.187	580.467	0.125	0.303
-328.172	-176.185	0.018	0.000
-327.158	-4.960	-0.226	-0.154
-326.143	-200.000	-0.024	0.331
-325.129	-104.123	0.284	0.065
-324.114	214.677	0.189	-0.296
-323.099	-175.324	-0.277	-0.008
-322.085	119.111	0.207	0.253
-321.070	218.778	0.165	-0.261
-320.056	800.000	0.071	-0.201
-319.041	800.000	-0.113	0.372
-318.026	-26.386	-0.747	-0.433
-317.012	-62.571	0.595	0.244
-315.997	-5.273	0.162	-0.110
-314.983	-20.469	-0.297	-0.181
-313.968	800.000	-0.056	-0.220
-312.953	-116.274	-0.241	-0.044
-311.939	-87.844	-0.165	-0.049
-310.924	-170.885	0.231	-0.008
-309.910	195.275	-0.219	-0.328
-308.895	-200.000	-0.017	0.123
-307.880	-11.084	-0.296	-0.193
-306.866	288.140	0.023	0.041
-305.851	715.859	0.035	0.091
-304.837	304.124	0.156	0.286
-303.822	3.587	0.189	0.136
-302.807	235.913	-0.001	-0.002
-301.793	-156.424	0.200	0.012
-300.778	39.311	-0.214	0.190
-299.764	-200.000	-0.024	0.153
-298.749	118.043	0.123	0.150
-297.735	-145.762	-0.324	0.029
-296.720	-200.000	0.064	-0.302
-295.705	-200.000	-0.018	-0.077
-294.691	800.000	0.129	0.358
-293.676	-99.509	0.042	-0.011
-292.662	-6.142	0.101	0.068
-291.647	798.314	-0.041	0.111
-290.632	-101.839	0.341	-0.082
-289.618	800.000	0.056	0.222
-288.603	199.707	-0.184	-0.279
-287.589	240.620	-0.148	0.244
-286.574	-200.000	0.020	0.173
-285.559	-83.987	0.345	-0.108
-284.545	3.392	0.067	-0.048
-283.530	191.600	-0.193	-0.288
-282.516	98.555	0.176	-0.201
-281.501	-101.547	0.197	0.047
-280.486	-200.000	0.064	0.298
-279.472	-171.715	-0.193	0.006
-278.457	800.000	0.029	0.084
-277.443	59.868	0.162	0.158
-276.428	230.519	-0.111	0.179
-275.413	-52.796	0.249	-0.113
-274.399	-200.000	0.011	-0.111
-273.384	800.000	-0.040	-0.144
-272.370	96.920	-0.068	0.076
-271.355	321.362	0.149	0.279
-270.340	666.013	0.004	-0.010
-269.326	116.036	0.085	-0.102
-268.311	-200.000	-0.014	-0.120
-267.297	-200.000	-0.008	0.070
-266.282	-158.428	0.372	0.021
-265.267	349.686	0.113	-0.220
-264.253	800.000	-0.025	0.104
-263.238	67.502	-0.274	-0.276
-262.224	800.000	-0.046	0.145
-261.209	800.000	0.049	-0.153
-260.195	-200.000	-0.015	-0.118
-259.180	-35.578	0.145	-0.077
-258.165	264.314	-0.142	-0.244
-257.151	273.421	-0.044	0.077
-256.136	-200.000	-0.014	0.062
-255.122	800.000	0.050	0.181
-254.107	562.207	0.066	0.158
-253.092	800.000	-0.045	0.174
-252.078	66.738	-0.031	0.031
-251.063	579.654	-0.087	0.210
-250.049	-38.586	0.129	0.067
-249.034	63.318	-0.085	0.084
-248.019	-94.081	0.366	0.099
-247.005	-43.445	0.344	-0.171
-245.990	130.640	0.106	0.134
-244.976	-200.000	-0.003	-0.128
-243.961	-200.000	-0.049	0.332
-242.946	199.843	0.114	0.172
-241.932	367.675	-0.030	0.061
-240.917	120.197	0.212	0.259
-239.903	-1.269	-0.193	0.135
-238.888	-26.433	0.038	-0.022
-237.873	-33.617	0.401	0.218
-236.859	-134.194	0.299	-0.036
-235.844	-13.521	0.168	-0.107
-234.830	179.262	0.168	-0.242
-233.815	-200.000	-0.015	0.165
-232.800	-142.363	-0.123	-0.012
-231.786	800.000	0.039	-0.111
-230.771	641.475	-0.083	0.208
-229.757	-200.000	0.010	-0.128
-228.742	-35.452	-0.195	0.105
-227.727	314.832	-0.063	-0.117
-226.713	-171.347	0.154	0.005
-225.698	176.999	-0.080	0.115
-224.684	-42.278	0.287	-0.144
-223.669	-84.578	0.077	0.024
-222.655	40.742	-0.169	0.150
-221.640	-112.479	0.325	-0.064
-220.625	800.000	0.059	0.200
-219.611	43.472	0.163	0.147
-218.596	203.763	0.148	0.226
-217.582	85.707	-0.112	-0.121
-216.567	33.881	-0.111	0.095
-215.552	-200.000	0.011	0.241
-214.538	9.315	-0.121	0.090
-213.523	-58.535	0.224	-0.096
-212.509	523.298	-0.110	-0.254
-211.494	800.000	0.107	-0.311
-210.479	216.530	0.134	-0.210
-209.465	151.673	-0.055	-0.074
-208.450	-95.354	-0.191	-0.051
-207.436	-10.933	0.335	-0.218
-206.421	-200.000	-0.024	0.128
-205.406	24.284	0.082	0.066
-204.392	695.604	-0.085	0.220
-203.377	7.179	-0.162	0.119
-202.363	312.103	-0.018	-0.034
-201.348	-2.703	-0.137	0.094
-200.333	-5.213	-0.114	-0.077
-199.319	-49.980	0.370	0.173
-198.304	89.313	0.046	0.051
-197.290	-200.000	0.010	0.136
-196.275	-200.000	-0.006	0.427
-195.260	-120.095	-0.161	-0.027
-194.246	-200.000	-0.031	0.218
-193.231	227.717	0.158	-0.254
-192.217	526.975	0.033	-0.076
-191.202	14.396	-0.119	0.091
-190.187	218.660	-0.170	-0.267
-189.173	28.222	0.203	-0.168
-188.158	484.519	-0.220	-0.493
-187.144	251.072	-0.046	-0.077
-186.129	-13.150	-0.082	0.053
-185.114	-74.218	-0.150	-0.053
-184.100	-110.695	0.275	0.056
-183.085	-83.224	-0.363	0.115
-182.071	-200.000	-0.016	0.233
-181.056	-35.041	0.222	-0.119
-180.042	-149.854	0.077	-0.006
-179.027	100.206	-0.219	0.249
-178.012	76.919	-0.249	0.259
-176.998	-42.468	-0.128	0.064
-175.983	-101.700	-0.131	0.031
-174.969	82.384	-0.047	-0.050
-173.954	-160.236	-0.080	-0.004
-172.939	-110.647	0.195	0.040
-171.925	-119.743	0.238	-0.040
-170.910	279.654	-0.096	-0.168
-169.896	-149.718	0.294	0.023
-168.881	-36.446	-0.015	0.008
-167.866	-94.577	-0.409	-0.109
-166.852	-200.000	0.028	0.323
-165.837	-75.067	-0.237	-0.083
-164.823	-45.104	-0.215	0.105
-163.808	466.601	-0.084	0.186
-162.793	289.049	0.198	-0.352
-161.779	-78.008	-0.331	0.112
-160.764	224.693	-0.098	0.155
-159.750	-104.425	0.128	0.029
-158.735	-148.408	0.301	0.024
-157.720	-200.000	0.012	0.103
-156.706	-200.000	0.064	-0.335
-155.691	-200.000	0.097	-0.511
-154.677	111.504	0.076	0.090
-153.662	308.221	0.119	0.218
-152.647	-20.421	0.187	0.113
-151.633	-169.578	-0.240	-0.009
-150.618	-38.620	-0.350	0.182
-149.604	45.516	0.165	0.150
-148.589	717.865	0.041	-0.107
-147.574	-200.000	0.048	-0.217
-146.560	-86.554	0.131	-0.039
-145.545	48.414	0.114	-0.105
-144.531	-108.588	-0.133	0.028
-143.516	120.861	0.224	-0.274
-142.502	-200.000	-0.007	-0.183
-141.487	4.762	0.108	0.078
-140.472	-88.307	0.184	-0.054
-139.458	-147.423	0.036	0.003
-138.443	-200.000	0.058	0.528
-137.429	-200.000	-0.006	0.100
-136.414	2.426	-0.070	0.050
-135.399	48.775	-0.069	-0.064
-134.385	-137.541	0.136	-0.015
-133.370	-77.511	-0.081	-0.028
-132.356	-20.283	-0.090	0.054
-131.341	-113.044	-0.278	-0.054
-130.326	-159.584	0.231	-0.013
-129.312	800.000	-0.048	-0.135
-128.297	-175.059	0.330	-0.009
-127.283	-23.444	-0.118	-0.069
-126.268	-114.578	-0.117	0.022
-125.253	-200.000	-0.004	0.084
-124.239	298.446	0.087	-0.157
-123.224	573.531	-0.079	-0.190
-122.210	-160.578	0.274	-0.014
-121.195	243.533	-0.055	-0.090
-120.180	-59.898	0.204	-0.086
-119.166	-200.000	0.002	-0.172
-118.151	-81.722	-0.337	-0.108
-117.137	623.174	-0.092	-0.227
-116.122	-200.000	0.018	0.169
-115.107	293.235	-0.071	-0.127
-114.093	78.659	-0.186	0.195
-113.078	432.264	-0.085	0.181
-112.064	-200.000	-0.012	0.144
-111.049	68.178	0.004	0.004
-110.034	800.000	-0.148	0.433
-109.020	-35.752	-0.313	-0.166
-108.005	-200.000	-0.039	0.212
-106.991	-28.103	0.112	-0.064
-105.976	-122.927	-0.244	-0.039
-104.962	-85.249	0.342	-0.105
-103.947	10.268	-0.026	-0.020
-102.932	-55.751	-0.110	0.048
-101.918	-102.678	0.307	-0.072
-100.903	-200.000	-0.008	0.100
-99.889	6.922	0.231	0.169
-98.874	-62.951	0.126	0.051
-97.859	-121.750	0.453	-0.073
-96.845	-200.000	0.025	0.379
-95.830	315.627	0.041	-0.076
-94.816	153.239	-0.020	0.026
-93.801	-79.982	0.276	0.091
-92.786	-200.000	-0.044	-0.294
-91.772	405.584	0.019	0.039
-90.757	-74.142	0.168	-0.059
-89.743	-15.689	0.249	-0.156
-88.728	-6.854	-0.144	0.096
-87.713	80.327	0.115	-0.122
-86.699	800.000	0.067	-0.229
-85.684	-86.996	0.260	-0.078
-84.670	218.843	0.166	-0.260
-83.655	76.046	0.262	0.271
-82.640	314.461	0.048	0.088
-81.626	-200.000	-0.037	0.219
-80.611	0.316	0.025	-0.017
-79.597	-90.072	0.115	-0.033
-78.582	-92.489	0.092	0.025
-77.567	48.734	0.247	0.227
-76.553	-200.000	-0.042	-0.222
-75.538	-200.000	0.006	-0.140
-74.524	1.062	0.131	-0.092
-73.509	236.621	-0.174	-0.282
-72.494	800.000	0.077	-0.245
-71.480	-88.815	-0.333	-0.097
-70.465	9.407	0.170	0.126
-69.451	-200.000	0.001	0.028
-68.436	-200.000	0.010	0.154
-67.422	-162.327	0.130	-0.006
-66.407	-128.071	-0.142	0.020
-65.392	-24.623	0.100	-0.058
-64.378	800.000	-0.047	0.135
-63.363	682.886	-0.119	-0.305
-62.349	84.208	-0.141	0.151
-61.334	80.370	-0.924	-0.974
-60.319	175.758	0.358	0.508
-59.305	-200.000	-0.249	-1.133
-58.290	240.577	0.685	1.117
-57.276	627.918	0.724	1.790
-56.261	-200.000	115.327	666.394
-55.246	541.181	1529.475	3564.605
-54.232	176.523	2704.232	3844.924
-53.217	103.177	2289.299	2624.969
-52.203	36.638	1895.879	1637.622
-51.188	30.505	1685.885	1409.825
-50.173	27.975	1643.643	1355.704
-49.159	50.445	1699.423	1571.574
-48.144	48.769	1713.672	1572.091
-47.130	30.077	1671.182	1394.091
-46.115	27.420	1656.635	1362.048
-45.100	27.203	1652.197	1356.726
-44.086	27.206	1649.578	1354.548
-43.071	27.123	1647.024	1351.778
-42.057	27.070	1644.621	1349.359
-41.042	27.183	1641.887	1347.903
-40.027	27.237	1640.281	1346.929
-39.013	27.124	1638.184	1344.314
-37.998	27.040	1636.852	1342.545
-36.984	27.097	1635.687	1341.962
-35.969	27.210	1634.504	1341.774
-34.954	27.314	1632.252	1340.633
-33.940	27.265	1630.745	1338.984
-32.925	27.261	1629.046	1337.504
-31.911	27.167	1627.324	1335.347
-30.896	27.269	1625.241	1334.336
-29.881	27.239	1623.443	1332.588
-28.867	27.255	1622.078	1331.529
-27.852	27.235	1620.677	1330.178
-26.838	27.229	1619.183	1328.859
-25.823	27.311	1617.523	1328.044
-24.809	27.370	1616.067	1327.222
-23.794	27.328	1615.005	1325.989
-22.779	27.328	1613.349	1324.582
-21.765	27.275	1611.920	1322.969
-20.750	27.324	1610.461	1322.071
-19.736	27.279	1609.351	1320.784
-18.721	27.296	1607.794	1319.580
-17.706	27.327	1605.998	1318.279
-16.692	27.354	1604.612	1317.279
-15.677	27.365	1603.361	1316.278
-14.663	27.353	1602.162	1315.156
-13.648	27.274	1600.934	1313.526
-12.633	27.345	1599.162	1312.534
-11.619	27.217	1597.616	1310.292
-10.604	27.258	1596.203	1309.373
-9.590	27.337	1594.705	1308.659
-8.575	27.340	1593.427	1307.581
-7.560	27.313	1592.550	1306.616
-6.546	27.287	1591.795	1305.758
-5.531	27.293	1590.029	1304.302
-4.517	27.290	1589.053	1303.429
-3.502	27.321	1587.725	1302.509
-2.487	27.379	1586.288	1301.695
-1.473	27.035	1574.280	1289.346
-0.458	24.053	1554.581	1252.221
0.556	22.455	1555.907	1220.170
1.571	19.984	1579.091	1220.838
2.586	19.354	1591.637	1225.954
3.600	17.469	1538.224	1171.744
4.615	10.933	1432.697	1049.222
5.629	5.166	1373.310	969.892
6.644	4.122	1366.164	958.309
7.659	4.023	1364.869	956.701
8.673	4.044	1364.121	956.224
9.688	4.131	1362.028	955.208
10.702	4.126	1359.150	953.073
11.717	6.908	1364.388	973.821
12.731	14.598	1378.086	1031.201
13.746	21.226	1389.081	1080.486
14.761	23.151	1390.743	1093.592
15.775	22.538	1389.095	1088.418
16.790	21.623	1387.122	1081.131
17.804	20.977	1385.104	1075.476
18.819	20.661	1383.861	1072.468
19.834	20.590	1382.782	1071.099
20.848	20.505	1381.780	1069.705
21.863	20.409	1380.994	1068.413
22.877	20.324	1379.750	1066.835
23.892	20.319	1378.617	1065.831
24.907	20.176	1377.767	1064.205
25.921	20.235	1376.651	1063.606
26.936	20.062	1376.357	1062.225
27.950	20.243	1375.430	1062.523
28.965	20.441	1374.065	1062.588
29.980	20.614	1373.108	1062.810
30.994	20.643	1372.284	1062.254
32.009	20.676	1371.494	1061.750
33.023	20.580	1370.459	1060.271
34.038	20.460	1369.292	1058.544
35.053	20.396	1367.757	1056.873
36.067	20.407	1366.140	1055.596
37.082	20.482	1365.283	1055.297
38.096	20.548	1364.709	1055.164
39.111	20.555	1363.878	1054.469
40.126	20.407	1362.928	1052.745
41.140	20.092	1361.952	1049.987
42.155	19.874	1361.123	1047.939
43.169	19.786	1361.207	1047.376
44.184	19.844	1360.802	1047.325
45.199	19.949	1360.623	1047.726
46.213	20.207	1360.224	1048.887
47.228	20.298	1360.054	1049.216
48.242	20.301	1358.646	1048.052
49.257	20.304	1356.960	1046.675
50.271	20.312	1355.491	1045.500
51.286	20.307	1354.072	1044.285
52.301	20.313	1352.942	1043.357
53.315	20.079	1352.345	1041.398
54.330	20.053	1350.786	1039.946
55.344	20.027	1349.073	1038.380
56.359	19.911	1348.469	1037.132
57.374	19.866	1347.863	1036.305
58.388	19.842	1346.973	1035.382
59.403	19.792	1346.347	1034.512
60.417	19.765	1345.364	1033.500
61.432	19.624	1345.059	1032.336
62.447	19.669	1343.344	1031.193
63.461	19.467	1342.324	1029.119
64.476	19.510	1340.968	1028.242
65.490	19.544	1340.200	1027.763
66.505	19.596	1338.239	1026.479
67.520	19.580	1337.213	1025.504
68.534	19.600	1336.387	1024.900
69.549	19.533	1335.583	1023.796
70.563	19.341	1334.916	1022.058
71.578	19.341	1332.918	1020.438
72.593	19.290	1332.266	1019.542
73.607	19.300	1330.865	1018.442
74.622	19.303	1330.819	1018.336
75.636	19.268	1330.246	1017.600
76.651	19.372	1329.349	1017.437
77.666	19.533	1329.296	1018.253
78.680	19.583	1328.551	1017.887
79.695	19.638	1327.901	1017.624
80.709	19.828	1327.358	1018.236
81.724	19.886	1327.250	1018.407
82.739	19.985	1325.838	1017.814
83.753	20.261	1324.982	1018.687
84.768	20.356	1324.833	1019.043
85.782	20.531	1323.949	1019.300
86.797	20.485	1322.518	1017.835
87.812	20.430	1320.993	1016.249
88.826	20.349	1320.103	1015.001
89.841	20.376	1319.180	1014.358
90.855	20.415	1318.277	1013.801
91.870	20.565	1317.529	1014.013
92.884	20.692	1316.561	1013.920
93.899	20.667	1316.162	1013.379
94.914	20.679	1315.502	1012.847
95.928	20.587	1314.646	1011.563
96.943	20.603	1313.439	1010.637
97.957	20.583	1312.103	1009.406
98.972	20.532	1311.386	1008.471
99.987	20.527	1310.623	1007.764
101.001	20.502	1309.998	1007.048
102.016	20.446	1308.637	1005.589
103.030	20.549	1307.450	1005.182
104.045	20.330	1306.963	1003.455
105.060	20.215	1305.408	1001.509
106.074	19.917	1303.908	998.549
107.089	19.725	1302.036	995.921
108.103	19.479	1300.731	993.422
109.118	19.543	1299.192	992.523
110.133	19.598	1298.048	991.876
111.147	19.612	1296.798	990.918
112.162	19.732	1295.335	990.400
113.176	19.750	1295.010	990.166
114.191	19.783	1294.071	989.548
115.206	19.883	1292.752	989.025
116.220	19.836	1291.276	987.538
117.235	19.829	1290.366	986.718
118.249	19.713	1289.269	985.128
119.264	19.603	1288.075	983.504
120.279	19.628	1286.626	982.449
121.293	19.413	1286.213	980.829
122.308	19.339	1284.653	979.131
123.322	19.355	1283.376	978.163
124.337	19.184	1282.688	976.580
125.352	19.278	1281.661	976.242
126.366	19.213	1280.636	975.009
127.381	19.292	1279.381	974.416
128.395	19.149	1278.625	972.942
129.410	19.348	1277.548	973.165
130.424	19.382	1277.402	973.156
131.439	19.490	1276.567	973.044
132.454	19.553	1275.575	972.554
133.468	19.674	1274.530	972.355
134.483	19.689	1273.758	971.766
135.497	19.716	1272.986	971.238
136.512	19.831	1271.496	970.662
137.527	19.790	1270.690	969.733
138.541	19.817	1269.329	968.760
139.556	19.840	1268.451	968.133
140.570	20.024	1267.251	968.156
141.585	20.145	1266.303	968.023
142.600	20.327	1265.152	968.074
143.614	20.320	1264.891	967.752
144.629	20.396	1263.948	967.365
145.643	20.411	1262.518	966.271
146.658	20.210	1261.537	964.314
147.673	19.953	1259.569	961.299
148.687	19.899	1258.434	960.051
149.702	19.947	1256.531	958.779
150.716	19.773	1255.183	956.703
151.731	19.703	1254.692	955.859
152.746	19.663	1253.574	954.699
153.760	19.824	1252.268	954.506
154.775	19.934	1251.695	954.595
155.789	20.124	1250.506	954.647
156.804	20.094	1249.600	953.708
157.819	20.251	1248.870	953.928
158.833	20.417	1248.079	954.152
159.848	20.557	1247.417	954.333
160.862	20.428	1246.550	952.874
161.877	20.106	1244.633	949.562
162.892	19.777	1243.150	946.544
163.906	19.721	1242.587	945.725
164.921	19.752	1241.950	945.328
165.935	19.850	1241.099	945.134
166.950	20.006	1240.626	945.538
167.964	19.912	1239.916	944.402
168.979	19.929	1238.914	943.650
169.994	19.912	1238.180	942.913
171.008	19.953	1237.399	942.460
172.023	20.019	1237.426	942.752
173.037	20.278	1236.389	943.288
174.052	20.200	1235.749	942.296
175.067	19.957	1234.050	939.598
176.081	19.862	1232.665	937.945
177.096	19.777	1231.864	936.789
178.110	19.781	1231.022	936.092
179.125	19.719	1230.514	935.285
180.140	20.038	1229.143	935.885
181.154	20.148	1227.668	935.269
182.169	20.131	1227.145	934.700
183.183	20.302	1226.157	934.783
184.198	20.334	1225.079	934.053
185.213	20.392	1223.975	933.439
186.227	20.435	1222.980	932.827
187.242	20.487	1222.475	932.641
188.256	20.600	1221.092	932.109
189.271	20.665	1220.324	931.786
190.286	20.346	1219.331	929.242
191.300	19.884	1218.183	925.813
192.315	19.774	1217.137	924.346
193.329	19.749	1216.857	923.919
194.344	19.970	1215.800	924.216
195.359	19.934	1215.543	923.747
196.373	20.017	1214.979	923.680
197.388	20.171	1215.082	924.494
198.402	20.401	1215.139	925.683
199.417	20.637	1214.276	926.198
200.432	20.782	1213.802	926.531
201.446	20.908	1213.263	926.702
202.461	20.975	1212.512	926.404
203.475	20.988	1211.312	925.476
204.490	20.594	1209.825	922.167
205.504	20.483	1208.025	920.130
206.519	20.331	1207.112	918.549
207.534	20.274	1205.951	917.278
208.548	20.320	1205.177	916.855
209.563	20.324	1204.268	916.101
210.577	20.374	1203.369	915.600
211.592	20.358	1203.236	915.332
212.607	20.671	1201.912	915.892
213.621	20.676	1201.193	915.291
214.636	20.623	1200.570	914.455
215.650	20.597	1199.506	913.429
216.665	20.679	1198.792	913.233
217.680	21.038	1197.993	914.426
218.694	21.021	1197.821	914.126
219.709	20.879	1196.906	912.604
220.723	20.952	1195.597	911.907
221.738	20.844	1195.176	910.939
222.753	20.750	1193.717	909.258
223.767	20.768	1193.295	908.950
224.782	21.063	1193.115	910.272
225.796	21.084	1192.740	910.012
226.811	21.050	1192.002	909.194
227.826	20.817	1191.236	907.315
228.840	20.705	1190.263	905.909
229.855	20.631	1189.591	904.934
230.869	20.737	1188.338	904.450
231.884	20.506	1188.006	902.920
232.899	20.466	1186.942	901.822
233.913	20.345	1185.990	900.394
234.928	20.336	1185.299	899.738
235.942	20.396	1184.352	899.250
236.957	20.296	1183.389	897.926
237.972	20.315	1183.005	897.653
238.986	20.332	1182.196	897.045
240.001	20.371	1181.148	896.375
241.015	20.336	1180.782	895.835
242.030	20.330	1180.283	895.348
243.045	20.609	1179.541	896.143
244.059	20.622	1178.495	895.338
245.074	20.607	1178.238	894.981
246.088	20.800	1177.553	895.379
247.103	20.970	1176.884	895.663
248.117	21.059	1176.152	895.483
249.132	21.277	1175.854	896.296
250.147	21.586	1175.404	897.456
251.161	21.671	1174.593	897.192
252.176	21.659	1174.690	897.127
253.190	21.828	1173.540	897.033
254.205	21.936	1172.824	896.959
255.220	21.795	1172.482	895.897
256.234	21.730	1172.174	895.253
257.249	21.834	1171.040	894.836
258.263	21.730	1170.520	893.831
259.278	21.875	1169.409	893.642
260.293	21.784	1169.289	893.006
261.307	21.903	1168.956	893.281
262.322	21.876	1168.153	892.449
263.336	21.941	1167.248	892.012
264.351	22.005	1166.681	891.823
265.366	21.988	1166.448	891.480
266.380	21.868	1165.828	890.315
267.395	21.909	1164.146	889.162
268.409	21.759	1163.311	887.686
269.424	21.589	1163.045	886.546
270.439	21.701	1162.034	886.260
271.453	21.543	1161.618	885.066
272.468	21.480	1160.467	883.792
273.482	21.371	1159.693	882.574
274.497	21.378	1159.353	882.271
275.512	21.316	1158.520	881.248
276.526	21.378	1157.558	880.751
277.541	21.454	1156.641	880.358
278.555	21.560	1156.194	880.474
279.570	21.829	1155.819	881.460
280.585	21.995	1155.092	881.665
281.599	21.940	1153.948	880.437
282.614	21.745	1152.768	878.481
283.628	21.571	1151.635	876.667
284.643	21.573	1150.532	875.762
285.657	21.620	1149.700	875.283
286.672	21.497	1149.402	874.368
287.687	21.608	1148.420	874.096
288.701	21.667	1147.418	873.549
289.716	21.753	1146.186	872.963
290.730	21.649	1146.068	872.276
291.745	21.682	1145.525	871.952
292.760	21.754	1144.941	871.788
293.774	21.783	1144.751	871.713
294.789	22.036	1144.225	872.491
295.803	21.875	1143.402	870.986
296.818	21.656	1142.485	869.123
297.833	21.702	1141.089	868.213
298.847	21.512	1141.372	867.412
299.862	21.684	1140.025	867.164
300.876	21.647	1139.567	866.553
301.891	21.912	1138.794	867.199
302.906	22.030	1138.408	867.411
303.920	22.186	1138.002	867.795
304.935	22.278	1137.461	867.759
305.949	22.350	1136.812	867.544
306.964	22.405	1135.768	866.939
307.979	22.131	1135.058	864.971
308.993	22.066	1134.073	863.826
310.008	22.103	1133.622	863.589
311.022	22.260	1132.571	863.480
312.037	22.106	1131.890	862.132
313.052	22.077	1130.701	861.008
314.066	21.817	1129.620	858.834
315.081	21.656	1128.478	857.102
316.095	21.604	1127.722	856.197
317.110	21.650	1127.097	855.869
318.125	21.545	1126.724	855.001
319.139	21.665	1125.638	854.685
320.154	21.646	1125.309	854.267
321.168	21.698	1124.515	853.841
322.183	21.660	1123.665	852.934
323.197	21.736	1123.613	853.192
324.212	21.854	1122.853	853.113
325.227	21.813	1122.367	852.471
326.241	21.850	1121.631	852.017
327.256	21.716	1120.584	850.494
328.270	21.798	1119.744	850.178
329.285	21.605	1119.032	848.629
330.300	21.757	1118.006	848.509
331.314	21.604	1117.486	847.298
332.329	21.768	1116.079	846.952
333.343	21.681	1115.538	846.042
334.358	21.939	1114.904	846.734
335.373	22.064	1114.167	846.704
336.387	22.192	1113.363	846.633
337.402	22.257	1112.983	846.582
338.416	22.119	1112.443	845.432
339.431	22.282	1111.659	845.546
340.446	22.553	1110.973	846.250
341.460	22.667	1110.897	846.666
342.475	22.784	1109.936	846.417
343.489	22.725	1108.749	845.157
344.504	22.851	1107.882	845.021
345.519	22.738	1107.703	844.271
346.533	22.895	1106.565	844.081
347.548	22.958	1106.055	843.918
348.562	22.889	1105.044	842.739
349.577	22.642	1103.969	840.668
350.592	22.295	1103.293	838.429
351.606	22.126	1101.851	836.455
352.621	22.172	1100.967	835.928
353.635	21.975	1100.467	834.536
354.650	21.999	1100.101	834.298
355.665	22.189	1099.360	834.565
356.679	22.357	1098.526	834.654
357.694	22.469	1097.818	834.576
358.708	22.499	1097.455	834.366
359.723	22.443	1097.316	833.921
360.738	22.461	1096.385	833.227
361.752	22.577	1095.770	833.232
362.767	22.432	1095.457	832.235
363.781	22.432	1094.833	831.686
364.796	22.603	1094.617	832.259
365.810	22.883	1093.843	832.919
366.825	23.030	1093.426	833.216
367.840	23.106	1093.141	833.283
368.854	23.305	1092.360	833.552
369.869	23.152	1091.663	832.229
370.883	22.982	1090.645	830.580
371.898	22.847	1089.643	829.108
372.913	22.821	1089.144	828.532
373.927	22.957	1088.879	828.894
374.942	23.111	1088.426	829.201
375.956	22.921	1088.392	828.210
376.971	22.852	1087.302	826.983
377.986	23.086	1086.797	827.625
379.000	23.272	1086.303	828.042
380.015	23.171	1085.976	827.249
381.029	23.289	1085.189	827.129
382.044	23.270	1084.347	826.322
383.059	23.219	1083.531	825.391
384.073	23.185	1082.796	824.601
385.088	23.301	1081.729	824.251
386.102	23.176	1081.087	823.109
387.117	23.047	1079.729	821.405
388.132	22.831	1078.693	819.540
389.146	22.749	1077.673	818.313
390.161	22.819	1076.890	817.972
391.175	22.803	1076.348	817.410
392.190	22.995	1075.768	817.790
393.205	23.052	1075.440	817.731
394.219	23.135	1074.465	817.297
395.234	23.005	1073.451	815.854
396.248	22.862	1072.287	814.239
397.263	22.909	1071.432	813.737
398.278	22.677	1070.520	811.902
399.292	22.653	1069.684	811.084
400.307	22.567	1069.030	810.125
401.321	22.700	1068.162	810.006
402.336	22.613	1067.578	809.089
403.350	22.600	1067.093	808.592
404.365	22.666	1066.775	808.582
405.380	22.896	1065.802	808.826
406.394	22.908	1065.166	808.325
407.409	23.064	1065.232	809.020
408.423	23.255	1064.643	809.375
409.438	23.478	1063.604	809.529
410.453	23.519	1062.929	809.133
411.467	23.470	1062.510	808.518
412.482	23.603	1061.402	808.209
413.496	23.617	1061.078	807.955
414.511	23.711	1060.860	808.143
415.526	23.782	1060.607	808.202
416.540	23.912	1059.889	808.178
417.555	23.816	1059.500	807.372
418.569	23.656	1059.025	806.211
419.584	23.592	1058.153	805.187
420.599	23.592	1057.643	804.729
421.613	157.664	1404.783	1798.415
422.628	144.879	1455.326	1798.472
