DTS Sentinel unit serial number:	SN413079Multiplexer serial number:	ORYXHardware model number:	OX4-SRSoftware version number:	ORYX F/W v4.00 Oryx Data Collector v3.7.2.0data status	okinstallation	princeton_trtdifferential loss correction	single-endedforward channel	channel 2reverse channel	N/Adate	2019/09/18time	09:39:34forward acquisition time	60.00reverse acquisition time	0.00gamma	496.2192k internal	0.2336k external	0.2336temperature offset calibration	0.9977default loss term (dB/km)	0.3790temperature slope calibration	1.0000multiplexer offset coefficient	1.0000multiplexer slope coefficient	1.0000fibre end	0.00T internal ref (°C)	26.70T ext. ref 1 (°C)	0.28T ext. ref 2 (°C)	23.36length (m)	temperature (°C)	Stokes	anti-Stokes-747.200	17.475	-0.301	-0.240
-746.185	-39.350	-0.028	-0.015
-745.171	-19.519	0.326	-0.203
-744.156	-114.798	-0.355	0.068
-743.142	144.908	-0.052	-0.070
-742.127	-73.017	0.109	0.040
-741.112	123.612	-0.050	-0.063
-740.098	600.630	-0.171	0.427
-739.083	152.694	-0.096	-0.131
-738.069	214.217	-0.173	-0.275
-737.054	-200.000	-0.024	-0.268
-736.039	-73.971	-0.057	-0.021
-735.025	-44.109	-0.121	0.061
-734.010	-54.431	-0.252	-0.115
-732.996	-34.234	-0.280	-0.154
-731.981	-101.658	0.328	0.080
-730.966	-157.643	0.261	0.016
-729.952	-200.000	0.009	0.216
-728.937	-38.026	-0.222	-0.118
-727.923	-18.876	0.159	-0.100
-726.908	458.858	-0.054	0.121
-725.894	14.980	-0.063	-0.049
-724.879	574.997	0.150	-0.367
-723.864	299.484	0.060	-0.111
-722.850	90.606	-0.105	0.119
-721.835	-1.967	-0.228	0.161
-720.821	48.054	0.170	0.160
-719.806	-57.427	-0.104	-0.046
-718.791	-126.391	-0.217	-0.032
-717.777	-2.498	-0.122	0.085
-716.762	800.000	-0.079	0.235
-715.748	-77.406	0.042	-0.015
-714.733	134.490	0.127	-0.165
-713.718	74.989	0.117	-0.123
-712.704	6.006	0.123	-0.091
-711.689	104.975	0.226	-0.267
-710.675	-104.741	-0.353	-0.081
-709.660	-25.224	-0.177	0.105
-708.645	-68.305	0.190	-0.074
-707.631	225.004	-0.053	0.087
-706.616	390.705	0.134	0.279
-705.602	-200.000	0.035	0.255
-704.587	-200.000	-0.007	0.034
-703.572	-122.075	-0.390	0.064
-702.558	-56.664	-0.249	0.111
-701.543	-31.832	0.102	0.058
-700.529	-131.490	-0.332	0.044
-699.514	195.304	0.102	0.155
-698.499	2.429	-0.202	-0.146
-697.485	-47.422	0.049	0.024
-696.470	4.615	0.148	0.109
-695.456	-200.000	0.051	0.313
-694.441	-42.857	0.107	-0.054
-693.426	84.141	0.076	-0.083
-692.412	-15.887	-0.338	-0.216
-691.397	-200.000	-0.026	-0.205
-690.383	-66.980	-0.036	-0.014
-689.368	-153.700	-0.141	-0.010
-688.354	404.097	-0.084	0.178
-687.339	-33.650	0.307	0.170
-686.324	-73.014	-0.047	-0.017
-685.310	-18.590	0.303	0.190
-684.295	-200.000	-0.022	0.226
-683.281	-134.104	0.363	0.045
-682.266	-45.445	-0.052	-0.026
-681.251	-200.000	-0.028	-0.327
-680.237	-200.000	-0.025	-0.162
-679.222	-86.781	-0.261	0.080
-678.208	-36.509	0.059	-0.032
-677.193	-69.505	-0.136	-0.052
-676.178	-200.000	-0.023	0.229
-675.164	9.231	0.220	0.166
-674.149	506.566	-0.045	-0.106
-673.135	-66.055	0.402	0.161
-672.120	673.180	0.134	0.348
-671.105	800.000	0.137	-0.445
-670.091	800.000	-0.082	0.234
-669.076	4.411	0.107	-0.078
-668.062	-119.054	-0.128	0.022
-667.047	-132.742	0.212	0.027
-666.032	-12.060	-0.449	0.295
-665.018	145.178	-0.152	0.203
-664.003	-178.964	0.075	-0.002
-662.989	800.000	-0.040	-0.126
-661.974	375.224	0.084	0.172
-660.959	-18.405	0.278	-0.174
-659.945	259.290	-0.048	0.083
-658.930	800.000	-0.053	-0.227
-657.916	54.131	0.089	-0.085
-656.901	-15.442	0.196	0.125
-655.886	-64.394	-0.195	-0.079
-654.872	24.056	0.165	0.136
-653.857	-57.272	-0.261	0.115
-652.843	-53.431	-0.309	-0.142
-651.828	-200.000	-0.045	0.462
-650.814	-132.463	0.191	0.025
-649.799	-60.110	-0.059	-0.025
-648.784	77.223	-0.145	-0.155
-647.770	-22.238	-0.169	-0.102
-646.755	28.326	0.132	0.112
-645.741	-200.000	-0.013	-0.085
-644.726	-86.272	0.288	0.089
-643.711	-200.000	0.036	-0.274
-642.697	-27.120	0.123	0.072
-641.682	-51.301	0.262	0.123
-640.668	-26.415	0.246	0.144
-639.653	-21.571	0.272	-0.166
-638.638	125.528	0.148	-0.187
-637.624	79.986	-0.119	0.128
-636.609	-82.804	-0.207	-0.067
-635.595	-74.426	0.205	-0.074
-634.580	-109.154	-0.070	0.015
-633.565	-200.000	0.002	-0.203
-632.551	183.511	-0.177	-0.261
-631.536	-42.891	-0.054	-0.027
-630.522	-53.756	0.082	0.037
-629.507	-64.138	-0.146	-0.060
-628.492	-200.000	0.012	-0.079
-627.478	46.827	0.203	-0.189
-626.463	800.000	-0.046	-0.193
-625.449	375.691	-0.053	-0.107
-624.434	182.219	-0.135	-0.199
-623.419	27.434	-0.108	-0.091
-622.405	-200.000	-0.023	0.246
-621.390	-200.000	-0.032	-0.167
-620.376	14.130	-0.156	-0.122
-619.361	-200.000	0.036	0.511
-618.346	-200.000	0.028	0.195
-617.332	-70.297	0.017	-0.006
-616.317	-45.238	-0.293	0.146
-615.303	-200.000	0.001	-0.238
-614.288	531.739	0.033	-0.078
-613.273	-136.976	0.317	0.036
-612.259	800.000	0.013	0.052
-611.244	-84.681	0.114	-0.036
-610.230	800.000	0.066	-0.220
-609.215	-105.070	-0.167	-0.038
-608.201	155.861	0.121	-0.167
-607.186	-146.798	0.211	-0.018
-606.171	-45.202	-0.230	0.114
-605.157	800.000	0.124	0.376
-604.142	-118.311	-0.207	0.037
-603.128	-200.000	-0.015	-0.240
-602.113	-142.623	-0.331	0.032
-601.098	-200.000	-0.022	-0.223
-600.084	-33.450	-0.125	0.069
-599.069	-26.665	0.230	0.135
-598.055	-34.460	-0.280	-0.153
-597.040	-57.086	0.163	-0.072
-596.025	-107.675	-0.030	-0.006
-595.011	800.000	0.027	0.073
-593.996	50.227	0.264	-0.249
-592.982	555.319	-0.021	0.049
-591.967	236.572	-0.139	-0.229
-590.952	-1.276	-0.198	-0.139
-589.938	23.913	-0.181	-0.149
-588.923	-137.760	-0.191	0.021
-587.909	-67.634	0.644	0.252
-586.894	-98.918	0.278	-0.071
-585.879	-113.511	0.153	-0.030
-584.865	16.097	-0.327	-0.257
-583.850	140.429	0.055	0.073
-582.836	-36.273	0.312	0.168
-581.821	-81.316	-0.260	0.085
-580.806	-73.656	0.129	-0.047
-579.792	-200.000	-0.024	0.167
-578.777	-131.514	-0.278	-0.037
-577.763	-26.935	0.238	-0.139
-576.748	43.512	-0.204	0.186
-575.733	800.000	-0.047	-0.187
-574.719	-200.000	-0.035	0.212
-573.704	157.314	0.087	-0.120
-572.690	-60.838	0.396	-0.167
-571.675	463.222	-0.122	-0.273
-570.661	137.454	-0.122	0.159
-569.646	800.000	-0.048	0.166
-568.631	-68.151	-0.041	0.016
-567.617	-47.981	-0.181	-0.087
-566.602	665.634	0.172	-0.443
-565.588	-137.145	-0.107	0.012
-564.573	800.000	0.077	-0.238
-563.558	19.905	0.186	-0.150
-562.544	-30.924	0.294	-0.166
-561.529	428.825	-0.014	0.029
-560.515	375.641	-0.065	0.133
-559.500	83.384	0.128	-0.139
-558.485	-140.447	-0.118	-0.012
-557.471	137.998	0.173	-0.227
-556.456	197.625	-0.288	0.439
-555.442	5.894	0.087	-0.064
-554.427	337.159	-0.223	-0.432
-553.412	-3.085	0.127	0.088
-552.398	486.230	0.112	0.255
-551.383	-27.122	-0.180	0.105
-550.369	96.241	-0.178	-0.203
-549.354	-200.000	-0.021	-0.444
-548.339	318.062	-0.169	0.319
-547.325	-78.632	0.447	0.152
-546.310	800.000	0.052	-0.212
-545.296	55.056	-0.189	-0.182
-544.281	255.087	-0.140	0.239
-543.266	-200.000	-0.057	0.548
-542.252	-12.101	0.048	-0.032
-541.237	-159.959	-0.232	0.013
-540.223	-117.308	-0.434	-0.079
-539.208	-200.000	-0.005	0.062
-538.193	254.086	0.206	-0.352
-537.179	-200.000	0.030	-0.192
-536.164	-200.000	0.004	-0.204
-535.150	-200.000	0.041	0.265
-534.135	-89.124	-0.346	0.102
-533.121	197.951	-0.146	-0.223
-532.106	800.000	0.104	-0.424
-531.091	229.418	-0.082	-0.133
-530.077	-161.832	0.016	-0.001
-529.062	-41.543	0.154	-0.079
-528.048	-86.722	-0.138	-0.042
-527.033	-100.700	-0.189	-0.046
-526.018	-60.872	-0.019	-0.008
-525.004	800.000	-0.058	-0.216
-523.989	-152.454	-0.094	-0.007
-522.975	261.407	0.157	-0.270
-521.960	414.671	0.064	0.136
-520.945	800.000	-0.028	0.120
-519.931	114.634	-0.070	-0.084
-518.916	65.052	-0.059	0.060
-517.902	1.139	-0.074	0.053
-516.887	-73.701	0.292	-0.106
-515.872	-72.427	0.206	0.076
-514.858	-20.151	-0.057	-0.035
-513.843	800.000	0.018	0.049
-512.829	-200.000	0.050	0.235
-511.814	-87.145	-0.209	0.063
-510.799	-16.008	-0.324	0.205
-509.785	-132.566	0.068	0.009
-508.770	-40.033	-0.377	-0.196
-507.756	140.255	0.199	0.261
-506.741	-200.000	0.028	0.218
-505.726	290.855	-0.149	-0.270
-504.712	237.373	0.137	0.227
-503.697	800.000	-0.076	0.274
-502.683	800.000	-0.037	-0.107
-501.668	-200.000	0.045	-0.303
-500.653	106.777	-0.144	-0.170
-499.639	800.000	0.016	-0.048
-498.624	-0.141	-0.314	0.222
-497.610	284.453	-0.064	0.115
-496.595	11.149	-0.216	0.164
-495.581	179.296	0.040	-0.058
-494.566	800.000	-0.019	0.065
-493.551	-141.906	-0.080	-0.008
-492.537	15.439	0.257	0.201
-491.522	80.421	-0.161	-0.173
-490.508	793.298	-0.092	-0.252
-489.493	-200.000	0.063	-0.321
-488.478	155.529	-0.183	0.250
-487.464	63.833	-0.364	-0.364
-486.449	-200.000	0.017	0.352
-485.435	-32.651	-0.190	-0.105
-484.420	415.832	0.042	-0.088
-483.405	168.117	0.125	-0.176
-482.391	510.105	-0.028	0.065
-481.376	-149.566	-0.512	0.040
-480.362	226.403	0.118	0.190
-479.347	-127.046	-0.092	0.013
-478.332	195.668	0.127	-0.192
-477.318	-124.028	-0.155	0.024
-476.303	87.938	-0.140	-0.155
-475.289	665.150	0.063	0.163
-474.274	800.000	0.080	0.289
-473.259	44.417	-0.165	0.150
-472.245	234.001	-0.034	-0.055
-471.230	-21.840	0.268	-0.162
-470.216	136.927	-0.078	0.101
-469.201	-148.836	-0.158	0.013
-468.186	-163.532	0.348	0.016
-467.172	800.000	-0.075	-0.225
-466.157	800.000	0.058	-0.217
-465.143	-61.864	0.100	-0.042
-464.128	-35.614	-0.141	-0.076
-463.113	167.578	-0.185	0.261
-462.099	94.396	0.148	0.167
-461.084	-200.000	-0.048	-0.236
-460.070	269.016	-0.101	-0.176
-459.055	800.000	-0.075	-0.254
-458.040	17.950	-0.084	0.066
-457.026	245.614	-0.145	0.243
-456.011	-164.341	0.132	-0.006
-454.997	67.282	0.215	-0.218
-453.982	800.000	-0.079	-0.262
-452.968	-200.000	0.016	0.072
-451.953	22.734	0.136	0.111
-450.938	307.564	-0.122	-0.225
-449.924	466.249	0.146	-0.324
-448.909	-200.000	0.044	-0.314
-447.895	103.917	-0.346	-0.403
-446.880	64.306	0.090	-0.090
-445.865	-4.226	-0.285	-0.196
-444.851	474.438	0.123	0.275
-443.836	-34.037	0.160	-0.087
-442.822	-74.146	0.148	0.053
-441.807	130.782	-0.010	0.013
-440.792	-182.517	0.134	0.002
-439.778	-200.000	0.066	0.366
-438.763	-165.310	-0.274	0.012
-437.749	-71.588	-0.139	0.051
-436.734	-62.785	-0.107	0.044
-435.719	-114.976	-0.193	0.036
-434.705	-15.320	0.052	0.033
-433.690	542.591	0.031	0.072
-432.676	46.259	0.155	-0.143
-431.661	-101.706	0.643	0.155
-430.646	32.894	0.016	-0.014
-429.632	-60.334	0.192	-0.081
-428.617	-200.000	0.051	-0.277
-427.603	9.800	0.185	-0.139
-426.588	-81.212	-0.215	0.070
-425.573	-159.733	-0.248	-0.014
-424.559	134.664	-0.140	0.181
-423.544	-108.825	-0.249	-0.053
-422.530	-200.000	-0.002	0.215
-421.515	800.000	0.058	0.232
-420.500	-133.029	0.088	-0.011
-419.486	-111.215	-0.291	-0.059
-418.471	423.733	-0.116	-0.246
-417.457	-200.000	-0.003	0.163
-416.442	677.920	0.046	0.118
-415.428	77.489	0.018	-0.019
-414.413	800.000	0.104	-0.398
-413.398	580.932	0.140	0.340
-412.384	-109.547	0.301	-0.063
-411.369	-200.000	0.000	0.141
-410.355	-58.859	0.170	-0.073
-409.340	21.727	0.049	0.040
-408.325	28.887	0.090	0.076
-407.311	-200.000	0.018	0.093
-406.296	-200.000	-0.065	-0.452
-405.282	30.698	-0.052	-0.044
-404.267	-200.000	-0.017	-0.225
-403.252	247.555	-0.138	0.231
-402.238	28.665	-0.326	0.273
-401.223	100.602	0.164	-0.188
-400.209	153.367	-0.134	-0.182
-399.194	-126.575	0.195	-0.029
-398.179	-200.000	-0.009	0.154
-397.165	363.804	0.067	0.133
-396.150	-66.067	-0.281	0.111
-395.136	85.881	-0.387	-0.422
-394.121	-200.000	-0.010	0.105
-393.106	426.742	-0.105	0.224
-392.092	199.075	0.092	0.139
-391.077	-147.441	0.278	0.023
-390.063	800.000	0.034	-0.131
-389.048	165.106	0.358	-0.501
-388.033	-200.000	-0.010	-0.060
-387.019	800.000	0.056	0.172
-386.004	-71.114	0.286	0.106
-384.990	-149.669	0.222	-0.017
-383.975	447.199	0.171	-0.372
-382.960	-111.182	0.364	-0.074
-381.946	52.974	0.193	0.182
-380.931	-89.675	-0.272	0.079
-379.917	79.416	-0.029	0.031
-378.902	109.675	-0.092	0.109
-377.888	-113.399	-0.256	0.050
-376.873	-53.943	0.129	0.058
-375.858	393.916	-0.014	-0.029
-374.844	-16.676	-0.167	0.104
-373.829	-47.654	0.112	0.054
-372.815	-113.767	0.363	0.070
-371.800	129.996	-0.092	-0.116
-370.785	-154.172	0.242	0.016
-369.771	-125.595	-0.214	-0.032
-368.756	16.411	0.262	-0.205
-367.742	129.709	-0.136	-0.172
-366.727	175.165	-0.050	-0.072
-365.712	-53.965	-0.360	-0.162
-364.698	-57.200	-0.102	-0.045
-363.683	29.495	0.082	-0.069
-362.669	-25.811	0.066	-0.039
-361.654	-200.000	-0.047	-0.345
-360.639	-91.633	0.235	-0.066
-359.625	42.237	0.162	-0.145
-358.610	-200.000	-0.559	0.002
-357.596	-200.000	-0.032	-0.168
-356.581	-130.421	-0.367	0.049
-355.566	-17.449	-0.184	-0.114
-354.552	44.343	-0.279	0.253
-353.537	-200.000	0.021	-0.113
-352.523	-143.241	-0.269	-0.026
-351.508	-200.000	-0.034	0.275
-350.493	386.119	0.177	-0.362
-349.479	-20.801	0.148	-0.090
-348.464	5.556	-0.168	-0.123
-347.450	202.907	0.053	0.081
-346.435	-200.000	-0.012	0.235
-345.420	12.318	-0.154	0.117
-344.406	5.877	-0.250	0.183
-343.391	-29.084	0.324	0.184
-342.377	-200.000	-0.023	0.140
-341.362	800.000	-0.049	0.190
-340.348	-2.980	0.226	-0.156
-339.333	800.000	-0.078	0.258
-338.318	-200.000	0.010	-0.226
-337.304	800.000	-0.119	0.414
-336.289	-73.300	-0.320	0.116
-335.275	-163.198	0.451	-0.021
-334.260	-15.859	-0.077	0.049
-333.245	91.046	0.197	-0.219
-332.231	168.976	-0.223	-0.315
-331.216	101.517	0.204	0.235
-330.202	51.110	-0.262	0.246
-329.187	266.330	0.154	0.265
-328.172	800.000	0.096	0.394
-327.158	-114.910	0.151	0.028
-326.143	309.622	0.149	-0.276
-325.129	-200.000	0.023	0.110
-324.114	58.704	-0.178	-0.173
-323.099	-200.000	0.007	0.050
-322.085	-8.671	-0.164	0.109
-321.070	-97.682	-0.103	-0.026
-320.056	-152.515	0.182	-0.013
-319.041	-71.187	-0.254	-0.094
-318.026	-24.263	0.280	-0.165
-317.012	120.429	-0.047	0.058
-315.997	171.424	0.251	0.356
-314.983	-200.000	-0.003	-0.191
-313.968	-105.076	-0.124	0.028
-312.953	87.232	0.164	-0.179
-311.939	159.886	-0.132	0.181
-310.924	-51.868	0.294	0.135
-309.910	-152.869	0.228	0.016
-308.895	188.305	0.096	-0.142
-307.880	31.382	0.050	-0.043
-306.866	-54.393	0.177	0.079
-305.851	27.140	0.237	0.196
-304.837	800.000	0.100	-0.426
-303.822	129.558	-0.132	-0.166
-302.807	257.368	0.229	0.389
-301.793	-82.371	-0.100	0.032
-300.778	-200.000	0.019	-0.292
-299.764	59.115	0.303	-0.294
-298.749	-29.301	0.171	0.097
-297.735	1.240	0.204	0.145
-296.720	-200.000	-0.010	0.056
-295.705	-41.161	-0.181	0.092
-294.691	-200.000	-0.003	0.190
-293.676	262.643	-0.042	-0.071
-292.662	-183.341	0.194	-0.003
-291.647	-148.247	-0.141	-0.012
-290.632	-200.000	-0.067	0.288
-289.618	208.866	0.108	-0.166
-288.603	-200.000	-0.265	0.001
-287.589	326.543	0.161	-0.304
-286.574	-200.000	0.050	0.318
-285.559	-76.517	-0.336	-0.116
-284.545	800.000	0.066	0.256
-283.530	431.593	-0.122	-0.262
-282.516	-90.723	0.452	0.129
-281.501	-200.000	0.069	0.365
-280.486	-200.000	0.054	0.337
-279.472	562.397	-0.114	0.273
-278.457	800.000	0.079	0.274
-277.443	-200.000	-0.040	-0.195
-276.428	-34.536	-0.164	-0.089
-275.413	21.059	0.155	0.124
-274.399	-200.000	-0.008	-0.044
-273.384	-111.984	0.117	-0.023
-272.370	-102.588	0.189	0.044
-271.355	-176.397	0.379	0.010
-270.340	58.329	-0.210	0.203
-269.326	-96.980	0.251	0.065
-268.311	-45.471	0.030	0.015
-267.297	207.166	0.110	-0.169
-266.282	-64.507	0.013	0.005
-265.267	-160.462	-0.254	0.013
-264.253	-122.278	-0.314	0.051
-263.238	260.013	0.100	-0.170
-262.224	-18.941	-0.154	-0.094
-261.209	-93.785	-0.288	0.078
-260.195	455.181	0.072	0.158
-259.180	415.768	0.049	-0.104
-258.165	-200.000	-0.018	-0.236
-257.151	298.367	0.094	-0.171
-256.136	107.433	-0.172	0.202
-255.122	774.457	0.042	0.112
-254.107	-200.000	0.042	0.194
-253.092	65.975	0.076	-0.076
-252.078	-112.627	0.126	-0.025
-251.063	-100.034	0.233	-0.057
-250.049	-52.198	-0.114	-0.052
-249.034	92.970	0.027	-0.030
-248.019	-25.871	-0.257	0.149
-247.005	19.648	-0.062	0.049
-245.990	-26.362	0.344	0.199
-244.976	361.469	0.015	0.029
-243.961	-200.000	-0.019	0.197
-242.946	-200.000	0.044	0.310
-241.932	198.573	0.062	-0.093
-240.917	-126.325	-0.033	-0.005
-239.903	-119.565	-0.240	-0.041
-238.888	0.437	-0.311	0.219
-237.873	-157.992	0.121	-0.007
-236.859	282.360	0.155	0.274
-235.844	162.352	0.112	0.154
-234.830	800.000	-0.056	0.204
-233.815	221.163	0.126	-0.198
-232.800	-82.237	0.254	-0.081
-231.786	-13.876	-0.355	-0.226
-230.771	-46.655	0.083	-0.040
-229.757	-12.372	0.241	0.155
-228.742	-18.816	0.083	-0.051
-227.727	376.980	-0.069	0.138
-226.713	-200.000	0.035	0.196
-225.698	-81.413	0.271	0.088
-224.684	-57.071	-0.165	-0.071
-223.669	16.744	-0.226	0.176
-222.655	157.913	-0.110	-0.150
-221.640	73.944	-0.088	0.091
-220.625	-200.000	0.021	-0.124
-219.611	267.742	-0.250	-0.431
-218.596	76.410	-0.259	0.270
-217.582	696.416	-0.105	0.271
-216.567	238.421	0.135	0.221
-215.552	227.166	0.159	0.254
-214.538	-200.000	0.025	-0.123
-213.523	-200.000	0.004	-0.039
-212.509	318.354	-0.044	-0.082
-211.494	192.597	-0.175	0.261
-210.479	205.159	-0.124	0.189
-209.465	-17.784	0.144	0.089
-208.450	60.504	0.104	-0.102
-207.436	107.255	0.318	0.372
-206.421	120.570	0.229	-0.280
-205.406	160.819	-0.148	0.204
-204.392	-134.777	-0.261	0.031
-203.377	-152.158	-0.136	-0.010
-202.363	800.000	-0.127	0.349
-201.348	123.259	-0.072	-0.089
-200.333	-200.000	-0.030	0.397
-199.319	9.914	0.112	0.084
-198.304	-200.000	-0.024	0.228
-197.290	160.998	0.071	0.098
-196.275	44.636	-0.263	0.238
-195.260	-9.329	0.108	0.071
-194.246	-47.598	-0.179	-0.085
-193.231	-2.958	-0.185	0.127
-192.217	69.861	-0.221	0.224
-191.202	-200.000	0.000	-0.215
-190.187	-122.168	0.387	-0.062
-189.173	-47.242	-0.057	0.027
-188.158	-9.370	0.387	-0.254
-187.144	-106.398	0.190	0.042
-186.129	-200.000	-0.008	-0.278
-185.114	648.612	0.115	0.289
-184.100	59.270	-0.118	0.114
-183.085	-200.000	0.023	0.303
-182.071	-20.330	0.174	0.105
-181.056	-35.602	-0.116	-0.062
-180.042	-19.754	-0.250	0.152
-179.027	30.476	-0.216	0.181
-178.012	-113.453	0.159	0.031
-176.998	22.312	0.256	-0.205
-175.983	-200.000	0.016	-0.192
-174.969	800.000	0.076	-0.251
-173.954	-200.000	0.028	-0.384
-172.939	455.116	0.049	-0.108
-171.925	-200.000	-0.027	0.197
-170.910	74.264	-0.071	-0.073
-169.896	-123.938	-0.115	0.018
-168.881	-72.770	0.124	-0.045
-167.866	217.461	0.248	0.388
-166.852	-200.000	-0.008	0.149
-165.837	-84.789	0.064	0.020
-164.823	40.952	0.200	-0.177
-163.808	-200.000	0.067	-0.344
-162.793	50.298	-0.145	0.135
-161.779	266.237	0.025	0.043
-160.764	-200.000	0.004	0.199
-159.750	310.671	-0.064	0.118
-158.735	428.285	0.104	0.220
-157.720	-200.000	0.011	-0.064
-156.706	-141.600	-0.173	-0.017
-155.691	-200.000	-0.036	-0.225
-154.677	70.550	-0.149	0.151
-153.662	-168.798	0.179	-0.007
-152.647	800.000	0.072	-0.225
-151.633	-96.066	0.209	0.054
-150.618	213.566	-0.097	0.150
-149.604	20.661	-0.258	-0.205
-148.589	95.759	0.060	0.068
-147.574	-200.000	-0.008	0.173
-146.560	800.000	0.013	0.047
-145.545	-200.000	-0.011	-0.084
-144.531	-65.790	0.044	0.017
-143.516	-111.662	0.289	-0.057
-142.502	-91.760	-0.135	-0.038
-141.487	800.000	0.052	0.189
-140.472	370.963	0.137	0.272
-139.458	-24.689	0.361	0.211
-138.443	-200.000	-0.031	0.184
-137.429	-200.000	0.036	0.193
-136.414	-121.933	-0.244	0.039
-135.399	-128.836	0.259	0.036
-134.385	-33.115	-0.098	-0.053
-133.370	-200.000	0.035	0.435
-132.356	108.351	-0.172	-0.201
-131.341	-200.000	-0.043	0.424
-130.326	11.462	-0.296	-0.223
-129.312	-24.648	0.267	-0.156
-128.297	-109.889	0.199	-0.041
-127.283	-95.842	-0.222	0.058
-126.268	-24.760	0.338	0.197
-125.253	60.266	-0.077	0.075
-124.239	-200.000	0.076	0.487
-123.224	160.493	0.102	0.140
-122.210	388.655	0.102	0.207
-121.195	-2.261	0.070	-0.048
-120.180	179.121	0.054	0.077
-119.166	-103.904	0.254	0.058
-118.151	15.302	-0.296	0.228
-117.137	-81.580	-0.246	0.079
-116.122	57.858	-0.187	-0.180
-115.107	-200.000	-0.006	0.074
-114.093	84.931	-0.181	0.194
-113.078	-200.000	-0.025	-0.340
-112.064	-200.000	-0.000	-0.149
-111.049	284.297	0.200	0.352
-110.034	123.032	0.211	-0.259
-109.020	800.000	-0.077	-0.311
-108.005	-200.000	0.028	-0.197
-106.991	-158.263	0.081	0.005
-105.976	387.109	0.019	-0.039
-104.962	-175.379	0.147	-0.004
-103.947	-98.892	-0.043	0.011
-102.932	313.299	-0.116	-0.213
-101.918	385.973	0.063	0.128
-100.903	-103.713	0.102	-0.023
-99.889	-200.000	-0.016	0.142
-98.874	-200.000	-0.020	0.133
-97.859	-165.193	-0.166	-0.007
-96.845	293.146	-0.079	-0.142
-95.830	-34.195	0.359	0.193
-94.816	62.275	-0.220	0.215
-93.801	331.519	0.058	0.110
-92.786	-88.018	-0.123	0.036
-91.772	0.466	0.057	0.040
-90.757	-85.369	-0.117	-0.036
-89.743	222.474	-0.124	0.195
-88.728	223.913	-0.091	-0.144
-87.713	-200.000	0.003	-0.214
-86.699	266.938	0.088	0.150
-85.684	800.000	-0.124	0.338
-84.670	-200.000	0.006	0.117
-83.655	-88.319	-0.115	-0.034
-82.640	100.543	0.136	-0.155
-81.626	-17.137	-0.134	0.083
-80.611	-200.000	0.019	-0.284
-79.597	-110.479	0.038	0.008
-78.582	800.000	-0.052	0.182
-77.567	-54.508	0.169	0.075
-76.553	-106.289	-0.068	0.015
-75.538	18.532	-0.321	0.251
-74.524	64.795	0.171	0.169
-73.509	1.959	-0.256	0.181
-72.494	-127.196	-0.047	0.007
-71.480	-109.951	-0.356	-0.073
-70.465	800.000	0.109	0.296
-69.451	301.187	0.093	0.167
-68.436	-67.301	0.250	-0.096
-67.422	-126.849	-0.081	0.012
-66.407	75.000	-0.183	-0.189
-65.392	0.014	-0.254	0.177
-64.378	800.000	0.078	0.270
-63.363	800.000	-0.012	-0.044
-62.349	-200.000	-0.001	0.085
-61.334	33.886	-1.108	-0.944
-60.319	-19.374	0.862	0.523
-59.305	-200.000	-0.182	-1.175
-58.290	457.088	0.573	1.243
-57.276	754.141	0.622	1.643
-56.261	-200.000	113.485	616.565
-55.246	443.858	1517.635	3254.213
-54.232	143.527	2709.235	3527.524
-53.217	94.616	2319.137	2577.201
-52.203	35.727	1924.454	1653.450
-51.188	29.677	1712.701	1424.975
-50.173	27.317	1670.068	1371.684
-49.159	48.455	1724.207	1578.461
-48.144	46.904	1738.266	1579.414
-47.130	29.455	1697.092	1410.071
-46.115	26.849	1682.668	1378.259
-45.100	26.683	1677.822	1372.974
-44.086	26.673	1675.087	1370.605
-43.071	26.519	1673.162	1367.811
-42.057	26.566	1670.806	1366.189
-41.042	26.602	1668.547	1364.557
-40.027	26.579	1666.608	1362.748
-39.013	26.524	1664.304	1360.392
-37.998	26.550	1662.770	1359.281
-36.984	26.521	1661.780	1358.202
-35.969	26.713	1660.201	1358.297
-34.954	26.665	1658.335	1356.354
-33.940	26.681	1656.583	1354.987
-32.925	26.673	1654.669	1353.311
-31.911	26.761	1653.075	1352.608
-30.896	26.697	1651.194	1350.536
-29.881	26.711	1649.843	1349.486
-28.867	26.765	1648.022	1348.344
-27.852	26.750	1646.413	1346.859
-26.838	26.664	1644.847	1344.886
-25.823	26.689	1644.221	1344.507
-24.809	26.801	1642.499	1343.882
-23.794	26.668	1641.385	1341.931
-22.779	26.580	1640.078	1340.152
-21.765	26.732	1637.833	1339.394
-20.750	26.759	1636.152	1338.162
-19.736	26.744	1634.807	1336.899
-18.721	26.838	1633.072	1336.122
-17.706	26.719	1632.272	1334.534
-16.692	26.691	1630.554	1332.872
-15.677	26.689	1629.394	1331.856
-14.663	26.719	1628.168	1331.023
-13.648	26.740	1626.364	1329.646
-12.633	26.803	1624.152	1328.248
-11.619	26.718	1623.210	1326.801
-10.604	26.795	1621.486	1325.901
-9.590	26.773	1620.564	1324.940
-8.575	26.762	1618.856	1323.408
-7.560	26.813	1617.651	1322.740
-6.546	26.771	1616.790	1321.682
-5.531	26.664	1615.634	1319.903
-4.517	26.866	1613.810	1319.827
-3.502	26.699	1613.510	1318.318
-2.487	26.903	1611.518	1318.123
-1.473	26.762	1599.844	1307.505
-0.458	24.408	1581.208	1275.416
0.556	19.686	1583.501	1248.103
1.571	17.608	1608.653	1252.557
2.586	17.254	1622.059	1260.257
3.600	15.822	1567.392	1207.407
4.615	8.803	1455.968	1074.547
5.629	1.787	1392.729	982.644
6.644	0.396	1385.033	968.200
7.659	0.315	1383.940	966.833
8.673	0.243	1382.965	965.605
9.688	0.166	1380.571	963.353
10.702	0.003	1377.154	959.845
11.717	3.367	1382.456	984.981
12.731	11.038	1394.382	1042.695
13.746	16.008	1401.760	1080.056
14.761	16.792	1401.374	1084.682
15.775	16.190	1399.077	1078.960
16.790	15.205	1396.422	1070.528
17.804	14.413	1394.520	1063.917
18.819	14.099	1393.131	1060.762
19.834	13.920	1391.490	1058.276
20.848	13.520	1390.677	1055.021
21.863	13.336	1389.464	1052.832
22.877	13.139	1387.716	1050.163
23.892	13.069	1387.191	1049.228
24.907	13.124	1386.481	1048.948
25.921	13.083	1385.137	1047.576
26.936	13.179	1384.198	1047.382
27.950	13.255	1382.932	1046.818
28.965	13.319	1381.592	1046.117
29.980	13.206	1381.724	1045.409
30.994	13.270	1380.495	1044.790
32.009	13.360	1379.508	1044.514
33.023	13.441	1377.909	1043.723
34.038	13.390	1377.099	1042.695
35.053	13.287	1376.244	1041.309
36.067	13.201	1375.099	1039.812
37.082	13.277	1374.061	1039.410
38.096	13.296	1372.891	1038.554
39.111	13.299	1372.685	1038.321
40.126	13.250	1371.493	1037.024
41.140	13.211	1370.720	1036.100
42.155	13.100	1370.331	1035.023
43.169	13.115	1370.149	1034.883
44.184	13.138	1369.482	1034.432
45.199	13.136	1369.359	1034.237
46.213	13.210	1368.786	1034.178
47.228	13.313	1367.480	1033.743
48.242	13.288	1366.187	1032.515
49.257	13.224	1364.992	1031.125
50.271	13.154	1363.595	1029.540
51.286	13.188	1362.471	1028.813
52.301	13.258	1361.209	1028.203
53.315	13.219	1359.925	1026.902
54.330	13.172	1359.215	1025.984
55.344	13.113	1358.164	1024.731
56.359	13.171	1356.801	1023.974
57.374	13.122	1356.307	1023.207
58.388	13.090	1355.187	1022.069
59.403	13.078	1355.379	1022.053
60.417	13.057	1353.921	1020.732
61.432	13.025	1352.980	1019.734
62.447	13.090	1352.176	1019.438
63.461	13.055	1350.608	1017.952
64.476	12.985	1349.888	1016.888
65.490	13.098	1348.501	1016.450
66.505	13.091	1346.927	1015.128
67.520	13.074	1345.730	1014.031
68.534	13.113	1344.927	1013.574
69.549	13.077	1343.944	1012.524
70.563	13.083	1342.687	1011.528
71.578	12.976	1341.773	1010.091
72.593	13.001	1340.536	1009.227
73.607	13.006	1339.868	1008.664
74.622	12.991	1338.908	1007.758
75.636	12.994	1338.291	1007.222
76.651	12.950	1337.472	1006.250
77.666	12.975	1336.270	1005.408
78.680	12.964	1336.320	1005.294
79.695	12.972	1335.457	1004.601
80.709	13.118	1334.376	1004.587
81.724	13.030	1333.604	1003.382
82.739	13.256	1332.334	1003.712
83.753	13.173	1331.350	1002.375
84.768	13.296	1330.426	1002.338
85.782	13.248	1329.490	1001.253
86.797	13.259	1327.962	1000.078
87.812	13.258	1326.478	998.866
88.826	13.244	1325.584	998.020
89.841	13.069	1324.900	996.366
90.855	13.158	1324.254	996.323
91.870	13.274	1323.084	996.059
92.884	13.203	1322.222	994.891
93.899	13.354	1321.234	994.966
94.914	13.305	1320.226	993.825
95.928	13.415	1319.160	993.598
96.943	13.307	1318.595	992.436
97.957	13.205	1318.071	991.339
98.972	13.204	1316.920	990.383
99.987	13.177	1315.822	989.309
101.001	13.251	1314.822	988.908
102.016	13.246	1313.658	987.916
103.030	13.310	1312.670	987.470
104.045	13.319	1312.090	986.999
105.060	13.166	1310.722	984.970
106.074	13.184	1309.400	983.997
107.089	13.151	1307.585	982.350
108.103	13.146	1306.912	981.730
109.118	13.080	1305.569	980.244
110.133	13.117	1303.719	978.983
111.147	13.116	1302.772	978.181
112.162	13.150	1301.521	977.359
113.176	13.220	1300.304	976.770
114.191	13.123	1299.690	975.648
115.206	13.237	1298.125	975.060
116.220	13.280	1296.913	974.317
117.235	13.274	1295.591	973.201
118.249	13.256	1294.683	972.330
119.264	13.204	1293.335	970.924
120.279	13.189	1292.715	970.286
121.293	13.190	1291.525	969.309
122.308	13.108	1290.304	967.832
123.322	13.132	1289.584	967.342
124.337	13.106	1288.309	966.150
125.352	13.174	1287.178	965.611
126.366	13.121	1286.541	964.742
127.381	13.182	1285.276	964.063
128.395	13.116	1283.817	962.498
129.410	13.149	1282.902	961.922
130.424	13.218	1282.282	961.774
131.439	13.225	1281.301	960.988
132.454	13.340	1279.827	960.472
133.468	13.290	1279.111	959.554
134.483	13.299	1278.600	959.138
135.497	13.235	1277.333	957.732
136.512	13.250	1276.445	957.071
137.527	13.131	1275.257	955.407
138.541	13.263	1273.494	954.766
139.556	13.327	1272.170	954.057
140.570	13.304	1270.858	952.857
141.585	13.290	1269.981	952.033
142.600	13.371	1268.571	951.358
143.614	13.356	1268.331	951.004
144.629	13.468	1266.784	950.405
145.643	13.435	1265.648	949.282
146.658	13.337	1264.553	947.813
147.673	13.274	1262.946	946.163
148.687	13.325	1261.761	945.484
149.702	13.286	1260.379	944.144
150.716	13.235	1259.332	942.984
151.731	13.269	1258.091	942.164
152.746	13.350	1256.578	941.408
153.760	13.379	1255.613	940.766
154.775	13.402	1254.182	939.743
155.789	13.486	1253.452	939.591
156.804	13.498	1252.437	938.814
157.819	13.511	1250.959	937.698
158.833	13.473	1250.282	936.890
159.848	13.557	1249.482	936.683
160.862	13.610	1248.129	935.885
161.877	13.489	1247.363	934.546
162.892	13.347	1246.724	933.185
163.906	13.442	1245.447	932.681
164.921	13.496	1244.484	932.180
165.935	13.433	1243.684	931.144
166.950	13.499	1242.811	930.777
167.964	13.534	1242.421	930.604
168.979	13.581	1241.202	929.870
169.994	13.555	1240.259	928.934
171.008	13.498	1240.060	928.382
172.023	13.625	1239.182	928.355
173.037	13.642	1238.527	927.878
174.052	13.582	1237.162	926.442
175.067	13.500	1236.627	925.495
176.081	13.492	1235.618	924.614
177.096	13.593	1234.376	924.167
178.110	13.677	1233.003	923.525
179.125	13.634	1231.850	922.342
180.140	13.489	1230.922	920.758
181.154	13.664	1229.137	920.314
182.169	13.711	1228.121	919.733
183.183	13.727	1227.098	918.974
184.198	13.722	1226.182	918.180
185.213	13.693	1225.068	917.102
186.227	13.823	1223.401	916.491
187.242	13.806	1222.510	915.649
188.256	13.826	1221.655	915.038
189.271	13.753	1220.698	913.838
190.286	13.762	1219.559	912.956
191.300	13.716	1218.853	912.092
192.315	13.603	1218.324	910.993
193.329	13.796	1217.467	911.335
194.344	13.623	1217.475	910.310
195.359	13.736	1216.396	910.043
196.373	13.801	1216.077	910.079
197.388	13.873	1215.477	909.944
198.402	13.872	1214.885	909.412
199.417	13.950	1213.936	909.048
200.432	13.902	1213.802	908.605
201.446	14.038	1212.224	908.086
202.461	14.041	1211.013	907.116
203.475	14.141	1209.720	906.615
204.490	14.139	1208.587	905.672
205.504	14.036	1207.667	904.344
206.519	14.049	1206.367	903.362
207.534	14.013	1204.985	902.052
208.548	14.036	1204.160	901.476
209.563	14.028	1204.148	901.346
210.577	14.070	1202.947	900.593
211.592	14.102	1202.148	900.092
212.607	14.177	1200.770	899.382
213.621	14.099	1200.616	898.770
214.636	14.052	1199.427	897.541
215.650	14.211	1198.183	897.392
216.665	14.186	1197.367	896.567
217.680	14.188	1196.717	896.009
218.694	14.195	1195.499	895.058
219.709	14.250	1194.803	894.754
220.723	14.266	1194.106	894.237
221.738	14.300	1193.414	893.821
222.753	14.301	1192.669	893.191
223.767	14.268	1191.825	892.301
224.782	14.281	1191.143	891.782
225.796	14.405	1190.303	891.738
226.811	14.352	1189.972	891.130
227.826	14.329	1189.240	890.381
228.840	14.364	1188.191	889.701
229.855	14.423	1187.280	889.255
230.869	14.439	1186.328	888.548
231.884	14.365	1186.101	887.904
232.899	14.362	1185.242	887.166
233.913	14.363	1184.595	886.613
234.928	14.433	1183.235	885.886
235.942	14.369	1182.852	885.180
236.957	14.318	1182.222	884.359
237.972	14.278	1181.471	883.506
238.986	14.521	1180.458	883.959
240.001	14.371	1180.243	882.927
241.015	14.470	1178.883	882.355
242.030	14.375	1178.544	881.521
243.045	14.460	1177.464	881.083
244.059	14.605	1176.735	881.228
245.074	14.556	1175.783	880.176
246.088	14.478	1175.433	879.428
247.103	14.566	1174.211	878.896
248.117	14.548	1173.592	878.260
249.132	14.659	1172.969	878.302
250.147	14.612	1172.441	877.584
251.161	14.634	1171.720	877.081
252.176	14.637	1171.029	876.502
253.190	14.722	1170.241	876.281
254.205	14.718	1169.952	875.963
255.220	14.874	1169.159	876.111
256.234	14.757	1168.610	875.007
257.249	14.848	1167.473	874.555
258.263	14.935	1166.935	874.530
259.278	14.856	1166.271	873.544
260.293	14.849	1166.232	873.402
261.307	15.003	1165.196	873.353
262.322	14.875	1164.382	871.996
263.336	14.926	1164.008	871.906
264.351	15.019	1163.334	871.807
265.366	14.974	1162.554	870.910
266.380	14.996	1161.577	870.218
267.395	14.959	1161.482	869.875
268.409	15.024	1160.380	869.311
269.424	15.032	1159.703	868.771
270.439	15.046	1159.344	868.494
271.453	15.099	1158.021	867.701
272.468	15.013	1157.312	866.647
273.482	15.007	1156.598	866.004
274.497	15.027	1156.065	865.632
275.512	15.156	1155.308	865.657
276.526	15.096	1154.428	864.611
277.541	15.071	1153.817	863.947
278.555	15.071	1153.154	863.374
279.570	15.140	1152.337	863.044
280.585	15.093	1151.892	862.392
281.599	15.245	1150.789	862.271
282.614	15.151	1150.148	861.232
283.628	15.237	1148.364	860.260
284.643	15.268	1147.590	859.765
285.657	15.202	1146.847	858.795
286.672	15.305	1146.021	858.626
287.687	15.338	1144.712	857.738
288.701	15.308	1144.258	857.168
289.716	15.219	1143.625	856.165
290.730	15.298	1142.737	855.828
291.745	15.302	1141.977	855.202
292.760	15.429	1140.902	854.968
293.774	15.436	1140.752	854.815
294.789	15.455	1140.343	854.532
295.803	15.374	1139.533	853.438
296.818	15.458	1138.745	853.198
297.833	15.493	1138.184	852.881
298.847	15.443	1137.320	851.900
299.862	15.474	1136.530	851.391
300.876	15.493	1135.701	850.791
301.891	15.577	1135.215	850.780
302.906	15.543	1133.860	849.515
303.920	15.673	1133.418	849.767
304.935	15.660	1132.728	849.110
305.949	15.590	1132.441	848.465
306.964	15.770	1131.533	848.619
307.979	15.551	1131.044	847.072
308.993	15.655	1130.123	846.829
310.008	15.634	1129.163	845.928
311.022	15.634	1128.695	845.503
312.037	15.733	1127.762	845.231
313.052	15.670	1126.810	844.124
314.066	15.677	1125.933	843.425
315.081	15.662	1125.043	842.611
316.095	15.733	1124.099	842.183
317.110	15.682	1123.377	841.316
318.125	15.748	1122.809	841.146
319.139	15.689	1122.538	840.572
320.154	15.718	1121.505	839.867
321.168	15.674	1121.161	839.320
322.183	15.596	1120.682	838.498
323.197	15.621	1119.715	837.822
324.212	15.743	1119.131	837.919
325.227	15.694	1118.670	837.258
326.241	15.668	1118.117	836.639
327.256	15.752	1117.224	836.315
328.270	15.813	1116.212	835.787
329.285	15.730	1115.011	834.402
330.300	15.738	1114.523	834.000
331.314	15.860	1113.227	833.562
332.329	15.822	1112.586	832.821
333.343	15.821	1111.614	832.012
334.358	15.853	1110.856	831.530
335.373	15.878	1110.017	830.952
336.387	15.927	1109.251	830.547
337.402	15.838	1108.678	829.606
338.416	15.984	1107.633	829.472
339.431	15.955	1107.148	828.889
340.446	15.985	1106.902	828.781
341.460	15.946	1106.158	827.960
342.475	16.162	1104.642	827.809
343.489	16.138	1103.876	827.045
344.504	16.008	1103.453	826.020
345.519	16.283	1102.104	826.284
346.533	16.210	1101.276	825.232
347.548	16.285	1100.824	825.187
348.562	16.343	1099.745	824.585
349.577	16.178	1099.305	823.377
350.592	16.129	1098.520	822.480
351.606	16.122	1097.646	821.719
352.621	16.207	1097.013	821.584
353.635	16.128	1096.718	820.908
354.650	16.216	1095.557	820.395
355.665	16.239	1094.995	820.014
356.679	16.118	1094.671	819.108
357.694	16.128	1094.158	818.701
358.708	16.232	1093.391	818.557
359.723	16.197	1092.910	817.958
360.738	16.304	1092.196	817.870
361.752	16.331	1091.358	817.299
362.767	16.337	1090.537	816.641
363.781	16.339	1090.123	816.270
364.796	16.448	1089.709	816.412
365.810	16.430	1089.169	815.848
366.825	16.387	1088.411	815.003
367.840	16.520	1087.885	815.176
368.854	16.543	1087.009	814.559
369.869	16.575	1086.455	814.224
370.883	16.551	1085.571	813.375
371.898	16.503	1084.819	812.511
372.913	16.468	1084.432	811.981
373.927	16.568	1083.637	811.793
374.942	16.530	1083.287	811.274
375.956	16.621	1082.729	811.224
376.971	16.606	1082.266	810.735
377.986	16.612	1081.458	810.083
379.000	16.725	1080.886	810.124
380.015	16.700	1080.436	809.596
381.029	16.855	1079.465	809.536
382.044	16.769	1078.784	808.545
383.059	16.738	1078.172	807.867
384.073	16.878	1077.624	808.053
385.088	16.783	1076.693	806.829
386.102	16.830	1075.827	806.332
387.117	16.761	1074.952	805.277
388.132	16.596	1074.051	803.748
389.146	16.698	1072.889	803.293
390.161	16.805	1072.428	803.382
391.175	16.718	1071.480	802.188
392.190	16.811	1070.752	802.011
393.205	16.796	1070.225	801.474
394.219	17.055	1069.162	801.835
395.234	16.950	1068.201	800.547
396.248	16.837	1067.602	799.494
397.263	16.833	1066.324	798.445
398.278	16.826	1066.030	798.122
399.292	16.839	1065.100	797.416
400.307	16.839	1064.661	797.020
401.321	16.852	1063.638	796.243
402.336	16.784	1063.457	795.716
403.350	16.991	1062.080	795.585
404.365	16.939	1061.187	794.602
405.380	17.044	1060.503	794.513
406.394	17.092	1059.959	794.259
407.409	17.030	1059.604	793.633
408.423	17.060	1059.040	793.281
409.438	17.123	1058.250	792.912
410.453	17.221	1057.083	792.427
411.467	17.241	1056.588	792.076
412.482	17.140	1056.415	791.408
413.496	17.250	1055.242	790.972
414.511	17.227	1055.207	790.769
415.526	17.211	1055.074	790.522
416.540	17.308	1054.056	790.144
417.555	17.258	1053.405	789.352
418.569	17.385	1052.350	789.082
419.584	17.372	1052.416	788.998
420.599	17.277	1052.339	788.429
421.613	105.154	1328.227	1479.822
422.628	96.795	1368.391	1479.915
