DTS Sentinel unit serial number:	SN413079Multiplexer serial number:	ORYXHardware model number:	OX4-SRSoftware version number:	ORYX F/W v4.00 Oryx Data Collector v3.7.2.0data status	okinstallation	princeton_trtdifferential loss correction	single-endedforward channel	channel 2reverse channel	N/Adate	2019/09/15time	07:35:35forward acquisition time	60.00reverse acquisition time	0.00gamma	496.2192k internal	0.2326k external	0.2326temperature offset calibration	1.0037default loss term (dB/km)	0.3790temperature slope calibration	1.0000multiplexer offset coefficient	1.0000multiplexer slope coefficient	1.0000fibre end	0.00T internal ref (°C)	30.61T ext. ref 1 (°C)	4.97T ext. ref 2 (°C)	25.41length (m)	temperature (°C)	Stokes	anti-Stokes-747.200	280.286	0.078	-0.140
-746.185	113.690	0.101	0.123
-745.171	5.320	-0.425	-0.316
-744.156	290.004	0.091	0.167
-743.142	-84.522	-0.074	0.024
-742.127	521.257	0.058	0.138
-741.112	304.239	0.127	-0.237
-740.098	-39.929	-0.401	-0.211
-739.083	552.336	0.053	0.128
-738.069	153.991	-0.272	0.376
-737.054	-200.000	0.043	0.189
-736.039	33.373	-0.118	0.103
-735.025	-181.217	0.335	-0.007
-734.010	-45.711	-0.225	-0.112
-732.996	-200.000	0.012	-0.073
-731.981	309.405	0.120	-0.226
-730.966	646.117	0.011	-0.029
-729.952	800.000	0.034	-0.101
-728.937	13.203	0.259	-0.203
-727.923	370.239	0.123	0.251
-726.908	-124.126	-0.243	0.038
-725.894	-200.000	0.008	0.160
-724.879	-93.808	0.186	0.052
-723.864	-40.276	-0.331	0.174
-722.850	16.979	0.161	-0.129
-721.835	-18.867	0.163	0.103
-720.821	-66.482	0.283	-0.113
-719.806	-166.303	-0.341	0.014
-718.791	-104.173	-0.232	-0.054
-717.777	-107.190	-0.360	0.080
-716.762	-137.672	0.005	0.001
-715.748	264.557	-0.078	-0.137
-714.733	-176.821	-0.123	-0.003
-713.718	-44.766	-0.406	-0.204
-712.704	2.093	0.094	-0.068
-711.689	800.000	0.015	-0.047
-710.675	80.207	-0.123	-0.133
-709.660	-2.731	-0.136	-0.096
-708.645	542.351	0.115	0.275
-707.631	87.905	0.046	0.051
-706.616	800.000	-0.022	-0.088
-705.602	-171.458	0.188	0.006
-704.587	-200.000	-0.004	0.169
-703.572	-200.000	0.004	0.205
-702.558	325.894	-0.073	-0.141
-701.543	-5.982	-0.147	-0.102
-700.529	137.889	0.069	0.091
-699.514	-200.000	-0.009	-0.148
-698.499	99.011	0.134	0.156
-697.485	-94.312	-0.175	0.048
-696.470	-32.923	0.255	-0.143
-695.456	-200.000	0.060	0.372
-694.441	-42.267	0.106	-0.054
-693.426	-200.000	0.004	0.118
-692.412	-127.480	0.225	-0.033
-691.397	-181.593	-0.346	0.007
-690.383	-111.469	-0.360	-0.074
-689.368	-93.331	-0.182	-0.051
-688.354	-200.000	-0.003	-0.248
-687.339	224.164	0.110	-0.179
-686.324	-76.615	0.239	0.084
-685.310	800.000	0.055	-0.181
-684.295	-200.000	-0.013	-0.130
-683.281	-200.000	-0.076	-0.500
-682.266	-106.801	-0.223	-0.050
-681.251	-10.236	-0.249	0.167
-680.237	-41.718	-0.281	0.145
-679.222	-86.159	-0.312	-0.097
-678.208	-42.866	0.419	-0.214
-677.193	-200.000	0.044	0.239
-676.178	800.000	0.132	0.551
-675.164	37.298	0.077	0.068
-674.149	-10.511	-0.076	-0.051
-673.135	112.025	-0.124	-0.151
-672.120	-200.000	0.077	-0.385
-671.105	-200.000	-0.006	0.201
-670.091	-200.000	0.003	-0.282
-669.076	800.000	0.082	0.246
-668.062	185.493	-0.194	-0.290
-667.047	-4.668	-0.220	0.153
-666.032	281.670	0.151	0.273
-665.018	-161.742	-0.190	0.010
-664.003	800.000	-0.040	-0.114
-662.989	-200.000	-0.017	0.102
-661.974	-181.138	0.335	-0.007
-660.959	18.709	-0.306	-0.246
-659.945	549.773	0.101	-0.243
-658.930	-171.864	0.355	0.012
-657.916	-86.108	0.079	-0.024
-656.901	-34.882	0.093	-0.051
-655.886	625.937	0.024	0.060
-654.872	800.000	-0.061	-0.203
-653.857	-123.644	0.207	0.033
-652.843	-40.494	-0.199	0.104
-651.828	339.330	0.126	-0.246
-650.814	-89.047	-0.190	0.056
-649.799	16.134	-0.176	-0.140
-648.784	800.000	-0.016	-0.048
-647.770	-130.156	0.289	0.040
-646.755	455.460	-0.112	0.249
-645.741	-200.000	-0.005	0.027
-644.726	95.257	0.098	-0.113
-643.711	800.000	0.042	-0.130
-642.697	-40.177	0.113	-0.059
-641.682	-46.727	-0.190	-0.093
-640.668	274.404	0.128	-0.228
-639.653	49.165	0.210	0.199
-638.638	-13.096	-0.088	0.057
-637.624	-181.021	-0.347	-0.007
-636.609	-40.976	0.121	0.063
-635.595	-200.000	0.061	-0.279
-634.580	-28.357	0.300	-0.174
-633.565	800.000	-0.139	-0.405
-632.551	-99.250	-0.239	-0.061
-631.536	41.662	0.201	-0.183
-630.522	47.366	-0.254	-0.237
-629.507	287.192	-0.101	-0.183
-628.492	162.767	0.031	-0.044
-627.478	-149.378	-0.132	-0.011
-626.463	11.016	0.224	0.172
-625.449	-200.000	0.025	0.228
-624.434	243.957	0.111	0.187
-623.419	138.350	0.125	-0.164
-622.405	577.376	-0.143	-0.352
-621.390	-125.024	0.163	-0.025
-620.376	-200.000	0.059	0.385
-619.361	-20.239	0.121	-0.075
-618.346	800.000	-0.056	-0.172
-617.332	170.768	-0.100	-0.144
-616.317	646.053	-0.104	0.265
-615.303	29.520	-0.250	-0.214
-614.288	5.263	0.106	0.078
-613.273	450.607	-0.113	-0.249
-612.259	-177.517	0.427	0.010
-611.244	-200.000	0.097	-0.465
-610.230	-6.006	-0.515	0.353
-609.215	368.006	0.117	0.238
-608.201	4.568	-0.251	0.185
-607.186	32.085	0.120	0.104
-606.171	685.725	0.088	0.230
-605.157	-60.868	-0.099	0.042
-604.142	87.377	0.054	-0.060
-603.128	-72.482	0.218	-0.081
-602.113	74.086	-0.287	-0.302
-601.098	-11.859	-0.241	0.159
-600.084	-0.796	0.260	-0.185
-599.069	55.838	-0.248	-0.241
-598.055	-96.898	0.478	-0.126
-597.040	-200.000	-0.063	0.324
-596.025	800.000	-0.010	0.042
-595.011	80.956	0.181	-0.196
-593.996	-54.332	-0.077	-0.035
-592.982	-82.241	-0.232	-0.076
-591.967	-129.751	0.317	0.044
-590.952	20.655	0.133	-0.108
-589.938	-100.359	-0.314	-0.078
-588.923	-93.294	-0.250	-0.070
-587.909	800.000	0.048	-0.183
-586.894	-13.699	0.276	-0.179
-585.879	-36.832	-0.122	0.066
-584.865	-200.000	-0.001	-0.110
-583.850	800.000	0.064	0.256
-582.836	-85.102	0.310	0.097
-581.821	-82.766	-0.063	0.021
-580.806	78.778	0.133	0.143
-579.792	110.291	0.143	0.173
-578.777	-46.061	0.379	0.187
-577.763	-58.227	0.265	-0.115
-576.748	99.394	-0.110	-0.128
-575.733	203.880	-0.157	0.243
-574.719	-25.715	0.059	0.035
-573.704	-200.000	-0.005	-0.269
-572.690	62.470	-0.027	-0.027
-571.675	-44.490	-0.227	0.114
-570.661	-24.392	0.094	0.056
-569.646	-26.206	-0.175	-0.103
-568.631	-48.186	0.499	0.241
-567.617	800.000	0.090	0.277
-566.602	-9.620	-0.161	0.107
-565.588	-97.075	0.358	0.094
-564.573	131.645	-0.087	-0.112
-563.558	-121.232	0.142	-0.024
-562.544	118.521	-0.136	0.169
-561.529	29.369	-0.055	-0.047
-560.515	-61.267	-0.285	0.120
-559.500	-200.000	-0.016	-0.192
-558.485	279.168	-0.082	0.147
-557.471	-87.094	0.291	0.089
-556.456	214.970	-0.087	0.138
-555.442	-125.097	-0.165	-0.025
-554.427	-120.211	-0.142	0.024
-553.412	-116.730	0.147	-0.027
-552.398	-38.956	0.034	-0.018
-551.383	-32.060	-0.323	0.181
-550.369	105.390	0.158	0.187
-549.354	-57.654	-0.386	-0.169
-548.339	-70.571	-0.050	0.019
-547.325	-32.435	-0.209	-0.117
-546.310	74.614	-0.213	0.225
-545.296	228.177	-0.058	0.095
-544.281	126.633	-0.201	-0.254
-543.266	-134.575	-0.164	0.020
-542.252	2.200	-0.052	-0.038
-541.237	-200.000	0.017	-0.387
-540.223	-108.416	-0.327	0.071
-539.208	-153.891	0.236	-0.016
-538.193	10.765	-0.151	0.116
-537.179	-200.000	0.009	0.099
-536.164	-200.000	-0.004	-0.445
-535.150	595.628	-0.128	0.316
-534.135	277.813	-0.122	0.218
-533.121	-200.000	0.041	-0.283
-532.106	48.929	0.186	0.174
-531.091	-59.268	0.273	0.118
-530.077	306.448	-0.099	0.184
-529.062	-172.284	0.295	-0.009
-528.048	-200.000	0.024	-0.220
-527.033	234.138	0.018	-0.029
-526.018	5.610	0.167	0.123
-525.004	19.402	0.305	0.245
-523.989	-26.088	0.068	-0.040
-522.975	-59.896	-0.155	-0.066
-521.960	68.506	-0.040	0.041
-520.945	-173.652	0.276	0.008
-519.931	-103.955	-0.137	0.032
-518.916	-156.962	-0.115	0.007
-517.902	-25.100	-0.053	-0.032
-516.887	-200.000	0.005	-0.043
-515.872	209.654	-0.203	0.318
-514.858	800.000	-0.108	0.416
-513.843	231.461	-0.057	0.093
-512.829	-200.000	0.016	-0.389
-511.814	-7.203	0.219	-0.148
-510.799	-41.688	-0.360	-0.185
-509.785	-7.003	-0.068	0.046
-508.770	-82.894	-0.037	-0.012
-507.756	-200.000	-0.012	0.202
-506.741	185.132	0.200	-0.297
-505.726	57.704	-0.227	-0.222
-504.712	-81.398	0.182	-0.060
-503.697	3.836	0.255	0.186
-502.683	-97.066	0.121	-0.032
-501.668	-153.621	0.084	-0.006
-500.653	330.872	0.097	-0.187
-499.639	-200.000	-0.015	-0.306
-498.624	56.366	0.026	0.025
-497.610	800.000	0.007	0.028
-496.595	94.763	-0.177	-0.201
-495.581	79.630	0.197	0.211
-494.566	4.693	-0.057	-0.042
-493.551	-166.490	0.334	0.014
-492.537	800.000	0.042	0.144
-491.522	68.029	0.089	-0.090
-490.508	679.182	0.084	-0.218
-489.493	-102.444	0.101	0.024
-488.478	-200.000	-0.004	0.254
-487.464	-107.591	-0.120	0.026
-486.449	-159.043	-0.461	-0.026
-485.435	-200.000	-0.004	-0.040
-484.420	54.439	-0.050	-0.048
-483.405	-94.143	0.275	0.075
-482.391	-57.282	-0.311	-0.136
-481.376	219.476	0.200	0.319
-480.362	-25.974	-0.293	-0.172
-479.347	162.201	0.229	0.320
-478.332	123.344	0.079	-0.098
-477.318	-62.621	0.250	-0.104
-476.303	-159.068	-0.396	0.022
-475.289	30.410	0.121	-0.103
-474.274	-195.526	-0.355	-0.003
-473.259	-15.680	-0.073	-0.047
-472.245	483.421	0.054	-0.122
-471.230	171.272	0.113	0.162
-470.216	99.976	0.104	0.121
-469.201	-36.321	-0.073	-0.039
-468.186	-144.070	0.091	0.009
-467.172	-129.124	-0.491	-0.068
-466.157	299.171	-0.045	-0.083
-465.143	151.641	-0.157	-0.213
-464.128	-200.000	-0.000	-0.394
-463.113	-119.508	0.189	0.033
-462.099	-200.000	-0.025	-0.164
-461.084	268.715	-0.204	-0.358
-460.070	-200.000	-0.025	0.255
-459.055	-8.455	0.123	0.083
-458.040	28.436	0.126	-0.106
-457.026	-200.000	0.008	-0.295
-456.011	85.079	-0.155	-0.170
-454.997	385.248	-0.013	0.026
-453.982	-152.591	0.059	-0.004
-452.968	-19.157	-0.114	0.070
-451.953	-47.013	0.145	0.071
-450.938	39.731	0.320	0.286
-449.924	-200.000	0.031	0.156
-448.909	630.434	0.035	0.087
-447.895	82.736	-0.230	-0.249
-446.880	13.668	0.157	-0.122
-445.865	6.860	0.352	-0.261
-444.851	-200.000	0.058	-0.311
-443.836	800.000	-0.069	-0.247
-442.822	-61.361	0.010	0.004
-441.807	-30.883	0.188	-0.106
-440.792	800.000	-0.045	-0.132
-439.778	90.383	0.154	-0.172
-438.763	102.040	0.183	-0.213
-437.749	-200.000	0.013	-0.274
-436.734	6.773	0.194	0.144
-435.719	-56.331	-0.184	-0.081
-434.705	54.168	-0.057	-0.055
-433.690	-200.000	-0.074	0.400
-432.676	35.326	0.169	0.147
-431.661	40.046	-0.214	-0.192
-430.646	-200.000	0.010	-0.310
-429.632	-41.863	-0.182	0.093
-428.617	800.000	0.044	0.142
-427.603	-138.043	0.347	-0.039
-426.588	363.010	-0.127	0.255
-425.573	716.254	0.061	0.161
-424.559	357.344	-0.123	-0.244
-423.544	120.289	0.166	-0.206
-422.530	114.285	-0.153	-0.186
-421.515	96.171	0.121	-0.138
-420.500	277.501	-0.089	-0.158
-419.486	-200.000	0.010	-0.176
-418.471	436.191	0.123	-0.267
-417.457	299.083	0.064	0.117
-416.442	484.731	-0.062	0.140
-415.428	-127.024	-0.044	-0.006
-414.413	430.808	-0.082	-0.177
-413.398	58.788	-0.351	0.343
-412.384	-94.857	0.031	0.008
-411.369	467.751	0.082	-0.184
-410.355	-166.517	-0.278	0.012
-409.340	-146.400	-0.073	-0.006
-408.325	307.130	-0.140	0.260
-407.311	-90.546	-0.116	0.033
-406.296	-170.354	-0.162	-0.006
-405.282	-140.320	-0.280	-0.029
-404.267	2.978	-0.210	0.152
-403.252	-19.984	-0.253	0.155
-402.238	208.128	0.203	-0.316
-401.223	181.910	-0.052	-0.076
-400.209	184.884	-0.096	0.142
-399.194	96.050	0.119	-0.135
-398.179	316.422	0.043	-0.081
-397.165	242.557	0.042	-0.070
-396.150	105.842	0.093	-0.110
-395.136	118.280	-0.154	0.189
-394.121	59.293	-0.172	0.168
-393.106	800.000	-0.058	-0.167
-392.092	800.000	-0.121	0.373
-391.077	-85.757	-0.504	-0.156
-390.063	-123.372	0.021	0.003
-389.048	65.386	-0.142	0.143
-388.033	-200.000	0.040	0.191
-387.019	250.770	-0.101	0.171
-386.004	72.923	-0.194	0.201
-384.990	-0.414	0.067	0.048
-383.975	-20.961	0.306	-0.187
-382.960	388.981	0.068	0.140
-381.946	-50.678	0.178	-0.083
-380.931	767.746	0.062	-0.168
-379.917	-52.447	-0.150	-0.069
-378.902	-91.149	-0.123	0.035
-377.888	405.804	0.109	0.229
-376.873	361.395	0.038	0.076
-375.858	-46.641	0.089	0.043
-374.844	-200.000	-0.005	0.182
-373.829	-26.379	-0.240	0.140
-372.815	279.089	0.081	0.144
-371.800	-200.000	-0.064	-0.351
-370.785	295.076	-0.104	0.190
-369.771	-64.796	-0.118	-0.047
-368.756	111.648	-0.256	-0.307
-367.742	276.932	-0.056	-0.099
-366.727	-109.897	-0.043	0.009
-365.712	-28.329	0.137	0.078
-364.698	82.631	0.104	0.113
-363.683	45.588	0.121	-0.111
-362.669	800.000	0.076	-0.284
-361.654	507.488	-0.160	-0.369
-360.639	152.063	0.300	0.407
-359.625	703.851	0.072	0.188
-358.610	-32.461	-0.130	-0.072
-357.596	-19.961	0.219	0.135
-356.581	800.000	0.054	0.228
-355.566	-37.607	0.119	-0.063
-354.552	92.869	0.074	-0.083
-353.537	-200.000	0.061	0.269
-352.523	103.753	-0.189	0.220
-351.508	-22.144	0.231	-0.139
-350.493	683.950	-0.095	0.246
-349.479	-6.591	0.185	0.125
-348.464	-3.358	0.090	0.062
-347.450	-143.471	0.227	-0.022
-346.435	301.035	-0.075	0.138
-345.420	311.637	-0.122	-0.227
-344.406	489.568	-0.053	-0.119
-343.391	-49.378	-0.187	0.089
-342.377	-126.627	-0.164	0.024
-341.362	-140.664	-0.338	-0.035
-340.348	65.993	0.183	-0.185
-339.333	-183.649	0.392	0.007
-338.318	-126.782	0.141	0.021
-337.304	104.836	0.175	-0.205
-336.289	-200.000	0.036	-0.194
-335.275	-200.000	0.023	0.222
-334.260	800.000	0.041	-0.122
-333.245	-200.000	0.028	0.401
-332.231	-50.380	0.385	0.181
-331.216	-180.441	0.345	0.007
-330.202	-119.023	-0.475	0.083
-329.187	-173.537	-0.220	-0.007
-328.172	800.000	0.081	-0.271
-327.158	800.000	0.095	0.306
-326.143	579.343	-0.081	0.196
-325.129	-124.928	0.332	-0.051
-324.114	221.819	0.089	-0.142
-323.099	3.710	-0.077	0.056
-322.085	-19.769	-0.314	-0.193
-321.070	110.221	0.146	0.174
-320.056	120.063	0.194	-0.239
-319.041	-14.708	-0.085	-0.054
-318.026	-176.279	0.158	-0.004
-317.012	-128.425	0.100	-0.014
-315.997	-182.820	0.519	-0.009
-314.983	-200.000	0.012	-0.243
-313.968	24.343	0.093	0.076
-312.953	800.000	-0.016	-0.061
-311.939	484.400	-0.065	0.147
-310.924	505.086	-0.100	0.229
-309.910	49.471	0.194	-0.181
-308.895	540.525	-0.100	-0.236
-307.880	334.464	0.111	0.213
-306.866	100.458	0.183	0.210
-305.851	-153.259	-0.181	0.013
-304.837	-110.359	0.035	0.007
-303.822	-53.014	0.359	0.164
-302.807	-96.531	0.062	0.016
-301.793	800.000	0.044	0.178
-300.778	110.313	0.063	-0.075
-299.764	11.830	-0.110	0.084
-298.749	-200.000	0.013	0.451
-297.735	-83.695	0.121	-0.038
-296.720	-83.185	0.151	-0.048
-295.705	209.704	0.236	0.367
-294.691	-49.750	0.231	-0.109
-293.676	-157.291	0.170	-0.010
-292.662	-41.772	-0.223	0.114
-291.647	176.525	-0.163	-0.235
-290.632	-200.000	0.033	-0.172
-289.618	612.876	-0.048	0.118
-288.603	8.550	-0.246	0.184
-287.589	-104.201	0.228	-0.053
-286.574	64.073	0.188	0.188
-285.559	-166.349	-0.223	0.009
-284.545	-200.000	0.062	-0.340
-283.530	510.762	-0.175	0.403
-282.516	-162.224	-0.216	0.011
-281.501	-78.208	0.111	0.038
-280.486	-13.514	0.165	0.106
-279.472	-67.083	-0.304	-0.119
-278.457	-52.839	0.168	-0.077
-277.443	-148.400	-0.383	-0.031
-276.428	-43.064	0.287	-0.144
-275.413	176.496	-0.127	-0.183
-274.399	-200.000	0.024	0.205
-273.384	-200.000	-0.006	-0.059
-272.370	-32.360	-0.015	-0.008
-271.355	579.027	-0.082	0.198
-270.340	34.638	-0.207	0.180
-269.326	-81.212	-0.289	-0.094
-268.311	-125.353	-0.289	-0.044
-267.297	-112.112	-0.191	0.038
-266.282	-51.069	-0.231	-0.107
-265.267	-92.771	-0.061	0.017
-264.253	-200.000	-0.042	-0.386
-263.238	69.925	0.196	-0.200
-262.224	0.529	0.089	0.063
-261.209	-200.000	0.021	0.274
-260.195	-126.777	-0.262	-0.038
-259.180	-200.000	0.012	-0.097
-258.165	175.067	0.044	-0.063
-257.151	291.612	0.181	0.325
-256.136	72.649	-0.118	0.122
-255.122	-88.640	0.430	0.127
-254.107	13.499	-0.261	0.200
-253.092	-145.581	0.282	0.025
-252.078	-40.636	0.112	0.057
-251.063	9.106	0.153	-0.114
-250.049	-86.438	0.104	0.031
-249.034	25.109	0.121	0.099
-248.019	148.767	0.070	0.094
-247.005	-200.000	-0.007	0.107
-245.990	-183.053	-0.193	0.003
-244.976	-70.400	-0.284	-0.107
-243.961	263.697	0.026	-0.045
-242.946	-129.385	0.086	-0.012
-241.932	-132.099	-0.178	0.023
-240.917	-80.162	0.100	-0.033
-239.903	-198.521	-0.136	-0.001
-238.888	779.328	-0.020	-0.055
-237.873	-200.000	0.005	0.130
-236.859	800.000	-0.021	0.076
-235.844	-86.570	-0.517	0.157
-234.830	140.179	0.131	-0.171
-233.815	41.491	-0.081	0.072
-232.800	230.145	-0.207	0.334
-231.786	800.000	-0.038	-0.124
-230.771	-200.000	-0.006	-0.252
-229.757	-200.000	-0.020	-0.133
-228.742	-200.000	0.032	0.221
-227.727	23.172	-0.221	-0.180
-226.713	47.050	-0.221	-0.204
-225.698	-200.000	-0.076	-0.408
-224.684	115.573	-0.019	-0.022
-223.669	-4.229	0.089	0.061
-222.655	-200.000	0.008	-0.038
-221.640	304.835	-0.191	-0.350
-220.625	-200.000	0.004	-0.221
-219.611	-178.184	0.356	0.008
-218.596	45.632	0.319	0.291
-217.582	-39.095	0.116	0.060
-216.567	-200.000	-0.022	-0.220
-215.552	-200.000	0.001	-0.047
-214.538	471.974	0.086	-0.192
-213.523	-70.626	-0.121	-0.045
-212.509	37.026	-0.229	0.200
-211.494	107.178	-0.099	-0.116
-210.479	-140.386	0.146	-0.015
-209.465	137.563	-0.099	0.128
-208.450	-190.732	-0.035	-0.000
-207.436	-45.368	-0.168	-0.082
-206.421	-33.124	0.229	-0.125
-205.406	800.000	0.052	-0.206
-204.392	244.225	0.119	-0.197
-203.377	105.455	-0.031	0.036
-202.363	-43.376	-0.230	-0.115
-201.348	-122.836	0.313	0.050
-200.333	296.861	0.086	0.155
-199.319	-124.654	-0.131	0.020
-198.304	10.767	-0.211	0.159
-197.290	288.845	0.030	0.053
-196.275	-32.871	-0.094	0.052
-195.260	-200.000	-0.026	0.256
-194.246	248.016	0.114	-0.191
-193.231	-158.401	-0.342	0.020
-192.217	28.234	0.242	0.202
-191.202	-200.000	-0.037	0.245
-190.187	-26.758	-0.110	0.064
-189.173	-17.903	0.206	-0.128
-188.158	-167.729	-0.287	0.011
-187.144	-68.693	0.419	0.160
-186.129	572.870	-0.154	0.370
-185.114	-61.433	0.268	0.111
-184.100	37.565	-0.169	0.148
-183.085	47.269	-0.075	-0.069
-182.071	-143.994	-0.091	0.008
-181.056	-47.826	-0.240	0.115
-180.042	-159.178	-0.097	-0.005
-179.027	-77.418	-0.141	-0.048
-178.012	-53.815	-0.006	0.003
-176.998	-115.399	-0.164	0.030
-175.983	76.309	0.205	0.214
-174.969	230.250	-0.105	-0.169
-173.954	424.154	-0.017	0.036
-172.939	18.707	0.128	0.101
-171.925	-23.292	0.028	-0.017
-170.910	-79.140	-0.273	-0.091
-169.896	-113.956	0.235	0.045
-168.881	-29.181	0.028	0.016
-167.866	132.564	0.210	-0.267
-166.852	-120.931	-0.157	0.026
-165.837	-85.942	0.181	-0.055
-164.823	258.498	0.138	-0.235
-163.808	99.024	0.051	0.058
-162.793	8.542	-0.130	0.097
-161.779	226.934	0.080	0.129
-160.764	130.017	0.109	0.137
-159.750	-200.000	0.024	-0.130
-158.735	-200.000	0.076	0.370
-157.720	-113.202	-0.039	0.008
-156.706	109.593	-0.061	-0.072
-155.691	189.936	0.075	0.110
-154.677	83.256	-0.114	-0.122
-153.662	680.969	0.117	0.299
-152.647	-5.202	0.342	0.232
-151.633	-92.291	0.096	-0.027
-150.618	-93.326	0.246	0.067
-149.604	-59.654	-0.348	-0.147
-148.589	-200.000	0.032	0.226
-147.574	-61.828	-0.125	0.052
-146.560	89.008	-0.173	0.190
-145.545	-81.352	0.070	0.023
-144.531	-77.149	0.027	-0.009
-143.516	-96.334	0.193	-0.050
-142.502	-159.418	0.168	-0.009
-141.487	46.371	0.129	-0.118
-140.472	-107.693	0.231	-0.050
-139.458	-132.865	-0.080	-0.010
-138.443	-107.769	-0.168	-0.036
-137.429	-200.000	-0.041	0.227
-136.414	70.429	-0.170	0.173
-135.399	91.858	0.214	0.237
-134.385	-110.016	-0.212	0.044
-133.370	-60.382	0.144	-0.061
-132.356	800.000	-0.037	0.104
-131.341	-13.111	-0.235	0.151
-130.326	-116.053	-0.097	-0.018
-129.312	317.412	-0.135	-0.252
-128.297	314.474	-0.029	-0.055
-127.283	800.000	0.134	-0.376
-126.268	83.736	0.066	0.071
-125.253	-161.081	-0.368	0.019
-124.239	211.719	-0.038	0.059
-123.224	9.488	0.200	0.149
-122.210	-62.949	0.111	0.045
-121.195	215.199	-0.122	0.190
-120.180	314.385	-0.189	0.350
-119.166	-9.073	-0.057	0.038
-118.151	79.172	0.043	0.045
-117.137	-200.000	-0.027	-0.185
-116.122	800.000	0.078	-0.251
-115.107	89.248	0.189	-0.207
-114.093	-200.000	-0.023	-0.260
-113.078	-200.000	0.049	-0.369
-112.064	-36.353	0.195	0.103
-111.049	-137.769	-0.110	-0.012
-110.034	-200.000	0.194	0.000
-109.020	305.624	-0.115	-0.210
-108.005	-104.916	-0.318	0.072
-106.991	-170.077	0.346	-0.012
-105.976	-60.784	0.340	-0.142
-104.962	-51.399	0.313	-0.144
-103.947	382.056	0.078	-0.157
-102.932	189.150	0.126	0.185
-101.918	-148.117	0.133	-0.011
-100.903	43.289	0.059	0.053
-99.889	40.455	0.228	0.202
-98.874	-168.375	-0.140	0.005
-97.859	-4.485	-0.025	0.017
-96.845	66.500	0.088	0.088
-95.830	35.479	-0.398	-0.344
-94.816	-200.000	-0.097	0.429
-93.801	-160.014	0.114	-0.006
-92.786	81.031	0.113	0.120
-91.772	-147.879	-0.351	0.029
-90.757	-97.043	-0.204	-0.053
-89.743	60.929	0.213	0.208
-88.728	408.543	-0.050	0.103
-87.713	-200.000	0.000	0.132
-86.699	128.508	0.128	-0.160
-85.684	-78.725	0.321	0.108
-84.670	37.142	-0.204	0.177
-83.655	242.874	-0.062	0.102
-82.640	-4.478	-0.325	-0.220
-81.626	-29.680	0.172	-0.096
-80.611	366.727	0.042	-0.083
-79.597	-74.899	-0.439	-0.155
-78.582	-102.634	0.242	-0.057
-77.567	-114.212	0.098	0.019
-76.553	-115.127	0.333	0.062
-75.538	-132.402	-0.105	0.013
-74.524	-111.214	0.346	-0.070
-73.509	-200.000	-0.067	-0.361
-72.494	800.000	-0.092	-0.343
-71.480	-200.000	-0.003	0.025
-70.465	-200.000	-0.021	0.163
-69.451	-60.046	-0.258	-0.108
-68.436	539.314	0.053	-0.124
-67.422	-34.962	-0.086	0.046
-66.407	-78.605	-0.358	0.120
-65.392	-27.918	0.052	-0.030
-64.378	312.759	-0.190	0.351
-63.363	-108.614	-0.103	-0.022
-62.349	-138.841	0.076	0.008
-61.334	94.231	-0.754	-0.841
-60.319	340.983	0.261	0.500
-59.305	460.626	-0.303	-0.664
-58.290	457.229	0.455	0.993
-57.276	349.468	0.715	1.387
-56.261	-200.000	102.817	592.494
-55.246	554.067	1435.996	3391.048
-54.232	185.575	2634.814	3842.731
-53.217	110.046	2284.676	2692.151
-52.203	39.857	1900.047	1674.602
-51.188	33.761	1687.976	1441.522
-50.173	31.240	1644.111	1385.333
-49.159	49.696	1695.412	1568.027
-48.144	50.685	1711.475	1590.269
-47.130	33.471	1669.924	1423.697
-46.115	30.736	1655.668	1391.080
-45.100	30.576	1650.983	1385.895
-44.086	30.517	1648.490	1383.310
-43.071	30.510	1645.671	1380.839
-42.057	30.518	1643.335	1378.878
-41.042	30.514	1641.301	1377.089
-40.027	30.514	1639.615	1375.621
-39.013	30.441	1638.042	1373.706
-37.998	30.352	1636.027	1371.305
-36.984	30.492	1634.863	1371.310
-35.969	30.651	1633.206	1371.039
-34.954	30.684	1631.486	1369.779
-33.940	30.619	1629.693	1367.743
-32.925	30.687	1627.996	1366.765
-31.911	30.636	1626.577	1365.145
-30.896	30.600	1624.871	1363.394
-29.881	30.566	1623.172	1361.664
-28.867	30.644	1621.601	1360.866
-27.852	30.606	1619.759	1358.986
-26.838	30.555	1618.142	1357.200
-25.823	30.587	1617.316	1356.694
-24.809	30.748	1615.274	1356.095
-23.794	30.729	1613.966	1354.811
-22.779	30.696	1612.674	1353.431
-21.765	30.592	1611.580	1351.703
-20.750	30.591	1609.439	1349.845
-19.736	30.593	1608.693	1349.178
-18.721	30.617	1607.199	1348.044
-17.706	30.624	1605.262	1346.420
-16.692	30.513	1603.806	1344.339
-15.677	30.678	1602.649	1344.513
-14.663	30.693	1601.203	1343.354
-13.648	30.759	1599.437	1342.297
-12.633	30.698	1598.167	1340.739
-11.619	30.648	1596.533	1338.948
-10.604	30.616	1594.952	1337.346
-9.590	30.590	1594.164	1336.438
-8.575	30.666	1592.336	1335.402
-7.560	30.582	1591.628	1334.154
-6.546	30.642	1590.099	1333.244
-5.531	30.570	1589.641	1332.292
-4.517	30.679	1587.966	1331.620
-3.502	30.626	1587.318	1330.643
-2.487	30.694	1585.368	1329.441
-1.473	30.467	1573.606	1317.919
-0.458	27.655	1554.395	1282.036
0.556	23.499	1555.704	1251.074
1.571	21.184	1580.140	1254.010
2.586	20.640	1593.235	1260.347
3.600	18.612	1539.848	1203.789
4.615	11.706	1433.519	1075.304
5.629	5.922	1373.131	993.391
6.644	5.028	1365.949	982.480
7.659	4.953	1364.362	980.779
8.673	4.950	1363.596	980.123
9.688	4.959	1361.691	978.727
10.702	4.892	1358.792	976.133
11.717	7.565	1363.908	996.516
12.731	14.435	1376.099	1048.693
13.746	18.785	1382.920	1081.244
14.761	18.773	1381.680	1080.107
15.775	17.758	1378.849	1071.422
16.790	16.670	1376.100	1062.367
17.804	15.963	1373.823	1056.083
18.819	15.490	1372.814	1052.251
19.834	15.328	1371.202	1049.906
20.848	14.976	1370.305	1046.925
21.863	14.904	1368.429	1044.953
22.877	14.600	1367.992	1042.626
23.892	14.686	1366.824	1042.178
24.907	14.664	1365.904	1041.250
25.921	14.685	1364.952	1040.564
26.936	14.675	1364.387	1039.978
27.950	14.763	1363.417	1039.691
28.965	14.748	1362.578	1038.870
29.980	14.869	1360.747	1038.132
30.994	14.927	1359.648	1037.560
32.009	15.009	1359.029	1037.504
33.023	14.977	1357.736	1036.226
34.038	14.892	1356.402	1034.594
35.053	14.859	1355.292	1033.453
36.067	14.854	1354.078	1032.403
37.082	14.829	1352.987	1031.325
38.096	14.901	1352.226	1031.098
39.111	14.830	1351.431	1029.966
40.126	14.828	1350.552	1029.192
41.140	14.714	1349.680	1027.732
42.155	14.551	1349.292	1026.344
43.169	14.588	1348.762	1026.076
44.184	14.546	1348.272	1025.355
45.199	14.600	1348.063	1025.438
46.213	14.646	1347.628	1025.299
47.228	14.717	1346.680	1024.919
48.242	14.794	1345.259	1024.222
49.257	14.684	1343.934	1022.450
50.271	14.712	1342.694	1021.588
51.286	14.825	1341.281	1021.110
52.301	14.826	1340.229	1020.227
53.315	14.743	1338.845	1018.578
54.330	14.674	1338.046	1017.459
55.344	14.666	1336.847	1016.404
56.359	14.581	1336.011	1015.162
57.374	14.631	1334.647	1014.342
58.388	14.540	1334.124	1013.300
59.403	14.422	1334.369	1012.680
60.417	14.523	1333.111	1012.247
61.432	14.460	1332.190	1011.081
62.447	14.519	1331.045	1010.477
63.461	14.408	1330.379	1009.212
64.476	14.399	1329.093	1008.091
65.490	14.445	1327.512	1007.081
66.505	14.548	1325.979	1006.453
67.520	14.541	1324.685	1005.339
68.534	14.526	1323.735	1004.436
69.549	14.558	1322.840	1003.862
70.563	14.521	1321.441	1002.489
71.578	14.427	1320.697	1001.271
72.593	14.446	1319.547	1000.425
73.607	14.301	1318.807	998.904
74.622	14.273	1318.449	998.380
75.636	14.420	1317.441	998.409
76.651	14.358	1317.015	997.623
77.666	14.318	1316.647	997.017
78.680	14.424	1316.177	997.210
79.695	14.407	1315.084	996.191
80.709	14.506	1314.550	996.286
81.724	14.559	1313.381	995.633
82.739	14.653	1312.711	995.596
83.753	14.703	1311.680	995.023
84.768	14.773	1310.745	994.641
85.782	14.739	1310.220	993.953
86.797	14.850	1307.999	992.843
87.812	14.711	1307.257	991.365
88.826	14.627	1306.657	990.321
89.841	14.682	1305.251	989.494
90.855	14.847	1303.874	989.341
91.870	14.791	1303.189	988.405
92.884	14.787	1302.389	987.684
93.899	14.855	1301.680	987.465
94.914	14.942	1300.931	987.321
95.928	14.953	1300.101	986.669
96.943	14.873	1299.226	985.445
97.957	14.853	1297.644	984.039
98.972	14.901	1296.270	983.191
99.987	14.871	1295.803	982.575
101.001	14.831	1295.264	981.848
102.016	14.843	1293.496	980.486
103.030	14.826	1292.926	979.870
104.045	14.883	1291.734	979.213
105.060	14.728	1290.850	977.551
106.074	14.737	1289.083	976.178
107.089	14.633	1287.533	974.310
108.103	14.548	1286.678	973.082
109.118	14.532	1285.529	972.032
110.133	14.531	1284.205	970.940
111.147	14.479	1283.028	969.660
112.162	14.617	1281.474	969.201
113.176	14.621	1280.870	968.683
114.191	14.597	1279.762	967.618
115.206	14.660	1278.281	966.778
116.220	14.709	1277.290	966.230
117.235	14.703	1276.444	965.467
118.249	14.540	1275.747	963.916
119.264	14.502	1274.556	962.710
120.279	14.559	1273.348	962.042
121.293	14.579	1272.456	961.398
122.308	14.513	1271.227	960.004
123.322	14.437	1270.378	958.838
124.337	14.544	1269.251	958.521
125.352	14.569	1267.755	957.450
126.366	14.484	1266.889	956.220
127.381	14.496	1266.447	955.875
128.395	14.613	1265.104	955.446
129.410	14.569	1263.759	954.094
130.424	14.568	1263.365	953.703
131.439	14.682	1262.129	953.339
132.454	14.667	1261.035	952.343
133.468	14.788	1259.963	952.137
134.483	14.704	1259.447	951.186
135.497	14.551	1258.823	949.758
136.512	14.649	1257.256	949.052
137.527	14.752	1255.935	948.553
138.541	14.654	1254.626	946.927
139.556	14.768	1253.355	946.526
140.570	14.743	1252.262	945.477
141.585	14.827	1251.155	945.031
142.600	14.859	1250.242	944.441
143.614	14.817	1249.291	943.400
144.629	14.971	1248.180	943.350
145.643	14.942	1246.912	942.141
146.658	14.977	1245.408	941.121
147.673	14.750	1244.806	939.304
148.687	14.605	1243.338	937.298
149.702	14.677	1241.932	936.559
150.716	14.669	1240.458	935.322
151.731	14.633	1239.391	934.231
152.746	14.787	1238.203	934.114
153.760	14.890	1236.864	933.601
154.775	14.900	1236.038	932.951
155.789	14.934	1235.265	932.474
156.804	14.886	1234.196	931.315
157.819	14.942	1233.174	930.774
158.833	15.030	1232.050	930.330
159.848	15.073	1231.402	930.000
160.862	14.976	1230.142	928.425
161.877	14.798	1228.950	926.456
162.892	14.899	1227.697	925.989
163.906	14.838	1227.539	925.452
164.921	14.928	1226.007	924.713
165.935	14.938	1225.208	924.082
166.950	14.898	1224.792	923.465
167.964	14.994	1223.610	923.024
168.979	14.994	1223.427	922.802
169.994	14.965	1222.553	921.902
171.008	14.954	1221.979	921.327
172.023	15.078	1220.633	920.914
173.037	15.130	1220.350	920.905
174.052	15.132	1219.165	919.940
175.067	14.999	1218.394	918.547
176.081	14.871	1217.175	916.847
177.096	14.947	1216.416	916.611
178.110	14.975	1215.440	915.948
179.125	14.972	1213.910	914.696
180.140	15.046	1212.839	914.214
181.154	15.014	1211.454	912.910
182.169	15.051	1210.626	912.411
183.183	15.132	1209.642	912.029
184.198	15.192	1208.367	911.313
185.213	15.286	1206.974	910.690
186.227	15.288	1206.136	909.989
187.242	15.248	1205.052	908.874
188.256	15.246	1204.259	908.187
189.271	15.333	1203.167	907.751
190.286	15.284	1201.874	906.432
191.300	15.008	1201.194	904.348
192.315	14.970	1200.761	903.737
193.329	14.913	1199.847	902.659
194.344	15.150	1199.201	903.372
195.359	15.163	1198.641	902.942
196.373	15.291	1198.195	903.216
197.388	15.349	1197.847	903.184
198.402	15.400	1197.683	903.255
199.417	15.441	1196.907	902.808
200.432	15.590	1196.144	902.957
201.446	15.476	1195.079	901.459
202.461	15.561	1194.268	901.225
203.475	15.584	1193.076	900.368
204.490	15.518	1191.703	898.898
205.504	15.379	1190.699	897.320
206.519	15.408	1189.725	896.662
207.534	15.450	1188.984	896.249
208.548	15.416	1187.549	894.905
209.563	15.488	1186.772	894.627
210.577	15.422	1186.446	893.945
211.592	15.601	1185.088	893.797
212.607	15.523	1185.226	893.408
213.621	15.505	1183.785	892.146
214.636	15.545	1182.773	891.518
215.650	15.645	1181.351	890.895
216.665	15.549	1181.031	890.065
217.680	15.724	1179.713	889.922
218.694	15.908	1178.732	890.078
219.709	15.670	1178.419	888.502
220.723	15.750	1177.690	888.296
221.738	15.539	1177.283	886.796
222.753	15.802	1175.775	886.970
223.767	15.760	1175.392	886.383
224.782	15.839	1174.447	886.008
225.796	15.884	1174.102	885.902
226.811	15.912	1173.392	885.439
227.826	15.837	1172.596	884.362
228.840	15.747	1172.030	883.387
229.855	15.696	1171.442	882.596
230.869	15.797	1169.918	881.902
231.884	15.711	1169.211	880.841
232.899	15.805	1168.344	880.598
233.913	15.637	1167.934	879.337
234.928	15.706	1166.962	878.884
235.942	15.656	1166.345	878.084
236.957	15.650	1165.824	877.583
237.972	15.581	1165.616	876.986
238.986	15.726	1164.608	876.907
240.001	15.772	1163.829	876.482
241.015	15.684	1162.923	875.265
242.030	15.800	1162.015	875.107
243.045	15.920	1161.049	874.927
244.059	15.930	1160.499	874.484
245.074	16.024	1159.457	874.111
246.088	15.884	1159.357	873.229
247.103	15.989	1158.316	872.913
248.117	15.977	1157.785	872.374
249.132	16.227	1156.921	872.937
250.147	16.135	1156.568	872.120
251.161	16.329	1154.990	871.855
252.176	16.362	1154.668	871.703
253.190	16.267	1154.343	870.894
254.205	16.443	1153.614	871.174
255.220	16.406	1153.050	870.480
256.234	16.354	1152.689	869.860
257.249	16.452	1151.477	869.372
258.263	16.371	1150.932	868.470
259.278	16.411	1150.497	868.271
260.293	16.389	1150.095	867.774
261.307	16.434	1149.235	867.281
262.322	16.537	1148.430	867.128
263.336	16.490	1147.963	866.455
264.351	16.486	1147.631	866.106
265.366	16.635	1146.784	866.152
266.380	16.500	1145.723	864.586
267.395	16.468	1145.164	863.922
268.409	16.557	1144.052	863.462
269.424	16.485	1143.244	862.409
270.439	16.464	1143.004	862.044
271.453	16.447	1142.564	861.551
272.468	16.434	1141.610	860.687
273.482	16.421	1140.652	859.822
274.497	16.401	1140.082	859.218
275.512	16.471	1139.224	858.850
276.526	16.447	1138.666	858.228
277.541	16.546	1137.976	858.139
278.555	16.410	1137.497	857.012
279.570	16.639	1136.855	857.614
280.585	16.732	1136.013	857.373
281.599	16.789	1134.702	856.593
282.614	16.637	1133.833	855.093
283.628	16.592	1132.772	853.992
284.643	16.543	1131.842	852.967
285.657	16.689	1131.053	853.035
286.672	16.766	1130.099	852.625
287.687	16.754	1128.806	851.515
288.701	16.751	1128.429	851.139
289.716	16.822	1127.361	850.617
290.730	16.723	1126.919	849.710
291.745	16.689	1126.694	849.293
292.760	16.816	1125.716	849.119
293.774	16.889	1125.053	848.911
294.789	16.960	1124.762	848.970
295.803	16.901	1123.961	847.996
296.818	16.845	1123.366	847.193
297.833	16.847	1122.179	846.233
298.847	16.917	1121.180	845.752
299.862	16.804	1120.993	844.972
300.876	16.827	1120.373	844.544
301.891	16.871	1119.844	844.293
302.906	17.022	1119.038	844.361
303.920	17.059	1118.337	843.938
304.935	17.088	1117.333	843.250
305.949	17.212	1117.148	843.655
306.964	17.152	1116.484	842.780
307.979	17.112	1115.442	841.722
308.993	17.095	1114.943	841.184
310.008	17.245	1113.997	841.142
311.022	17.255	1113.422	840.680
312.037	17.266	1112.509	839.972
313.052	17.178	1111.135	838.424
314.066	16.979	1110.636	836.991
315.081	16.980	1109.869	836.345
316.095	16.880	1108.898	835.049
317.110	17.039	1108.240	835.262
318.125	16.977	1107.667	834.448
319.139	16.993	1106.966	833.925
320.154	17.078	1106.316	833.779
321.168	17.093	1105.326	833.032
322.183	17.049	1105.146	832.610
323.197	17.205	1104.228	832.606
324.212	17.045	1104.367	831.856
325.227	17.171	1103.629	831.840
326.241	17.289	1102.308	831.352
327.256	17.222	1101.920	830.657
328.270	17.038	1101.236	829.170
329.285	17.176	1099.978	828.821
330.300	17.201	1098.935	828.086
331.314	17.043	1098.475	826.892
332.329	17.160	1097.295	826.504
333.343	17.309	1096.490	826.549
334.358	17.314	1095.610	825.836
335.373	17.386	1094.737	825.454
336.387	17.331	1094.240	824.740
337.402	17.321	1093.539	824.090
338.416	17.466	1092.725	824.106
339.431	17.463	1092.234	823.649
340.446	17.479	1091.436	823.049
341.460	17.588	1091.060	823.222
342.475	17.595	1089.928	822.327
343.489	17.546	1089.763	821.892
344.504	17.685	1088.261	821.360
345.519	17.691	1087.884	821.028
346.533	17.652	1087.035	820.129
347.548	17.734	1086.221	819.837
348.562	17.763	1085.359	819.251
349.577	17.635	1084.406	817.844
350.592	17.624	1083.745	817.223
351.606	17.554	1083.382	816.541
352.621	17.521	1082.366	815.546
353.635	17.485	1081.529	814.671
354.650	17.585	1080.951	814.639
355.665	17.489	1080.198	813.543
356.679	17.653	1079.390	813.645
357.694	17.632	1078.672	812.933
358.708	17.651	1078.433	812.769
359.723	17.643	1078.196	812.479
360.738	17.788	1077.291	812.416
361.752	17.696	1076.774	811.518
362.767	17.711	1076.352	811.202
363.781	17.633	1076.095	810.564
364.796	17.820	1075.122	810.646
365.810	17.836	1074.277	810.014
366.825	18.015	1074.027	810.604
367.840	18.013	1073.275	809.953
368.854	18.044	1072.811	809.680
369.869	18.104	1071.762	809.100
370.883	18.029	1071.031	808.119
371.898	17.928	1070.614	807.260
372.913	17.957	1069.835	806.737
373.927	17.986	1069.366	806.448
374.942	18.106	1068.700	806.438
375.956	18.193	1068.122	806.345
376.971	18.033	1067.605	805.129
377.986	18.126	1066.861	804.935
379.000	18.223	1066.240	804.852
380.015	18.100	1066.259	804.214
381.029	18.348	1065.198	804.507
382.044	18.321	1064.732	803.957
383.059	18.297	1063.982	803.206
384.073	18.275	1062.850	802.177
385.088	18.321	1062.166	801.808
386.102	18.293	1061.228	800.897
387.117	18.238	1060.568	800.069
388.132	18.180	1059.225	798.716
389.146	18.194	1058.617	798.255
390.161	18.105	1058.001	797.303
391.175	18.186	1057.137	796.959
392.190	18.260	1056.640	796.860
393.205	18.313	1055.900	796.475
394.219	18.395	1054.714	795.890
395.234	18.244	1054.188	794.724
396.248	18.309	1053.285	794.276
397.263	18.240	1051.985	792.904
398.278	18.153	1052.008	792.447
399.292	18.258	1050.556	791.770
400.307	18.099	1049.818	790.407
401.321	18.216	1049.153	790.379
402.336	18.264	1048.652	790.154
403.350	18.307	1048.004	789.794
404.365	18.331	1047.231	789.249
405.380	18.295	1046.737	788.644
406.394	18.407	1046.323	788.776
407.409	18.394	1045.771	788.231
408.423	18.572	1044.739	788.203
409.438	18.699	1043.818	788.019
410.453	18.530	1043.597	787.008
411.467	18.547	1042.690	786.335
412.482	18.678	1042.051	786.379
413.496	18.733	1041.244	785.955
414.511	18.684	1040.927	785.422
415.526	18.729	1040.349	785.121
416.540	18.878	1039.766	785.295
417.555	18.798	1039.231	784.456
418.569	18.707	1038.444	783.374
419.584	18.715	1038.225	783.176
420.599	18.811	1037.804	783.230
421.613	150.760	1401.767	1795.416
422.628	137.780	1454.769	1795.507
