DTS Sentinel unit serial number:	SN413079Multiplexer serial number:	ORYXHardware model number:	OX4-SRSoftware version number:	ORYX F/W v4.00 Oryx Data Collector v3.7.2.0data status	okinstallation	princeton_trtdifferential loss correction	single-endedforward channel	channel 2reverse channel	N/Adate	2019/09/13time	14:19:35forward acquisition time	60.00reverse acquisition time	0.00gamma	496.2192k internal	0.2315k external	0.2315temperature offset calibration	1.0205default loss term (dB/km)	0.3790temperature slope calibration	1.0000multiplexer offset coefficient	1.0000multiplexer slope coefficient	1.0000fibre end	0.00T internal ref (°C)	35.28T ext. ref 1 (°C)	4.62T ext. ref 2 (°C)	31.40length (m)	temperature (°C)	Stokes	anti-Stokes-747.200	35.659	-0.085	-0.076
-746.185	-170.483	-0.206	0.007
-745.171	456.038	-0.150	0.338
-744.156	342.724	-0.093	0.185
-743.142	-0.947	-0.101	-0.073
-742.127	-88.400	0.349	-0.106
-741.112	-113.821	0.340	0.067
-740.098	-60.599	-0.091	0.039
-739.083	5.020	-0.099	-0.074
-738.069	17.528	-0.148	0.119
-737.054	293.846	-0.044	0.081
-736.039	209.765	-0.189	0.300
-735.025	-108.097	-0.099	0.022
-734.010	590.366	-0.146	0.365
-732.996	604.187	0.156	0.394
-731.981	44.854	-0.098	-0.091
-730.966	-72.198	0.196	0.074
-729.952	800.000	0.084	-0.344
-728.937	79.005	-0.253	0.275
-727.923	-21.966	-0.209	0.129
-726.908	14.653	-0.272	-0.215
-725.894	741.697	-0.080	-0.217
-724.879	237.807	-0.128	0.216
-723.864	12.199	-0.169	-0.132
-722.850	800.000	0.084	-0.317
-721.835	377.620	-0.029	0.061
-720.821	47.638	-0.128	0.121
-719.806	-58.390	-0.234	-0.103
-718.791	126.960	0.153	-0.197
-717.777	-200.000	-0.027	-0.328
-716.762	-52.399	-0.060	-0.028
-715.748	-200.000	-0.045	0.280
-714.733	-171.100	-0.149	0.005
-713.718	-200.000	0.047	-0.305
-712.704	800.000	-0.056	-0.207
-711.689	800.000	0.074	-0.288
-710.675	-0.120	-0.293	-0.211
-709.660	800.000	0.016	0.064
-708.645	-200.000	0.035	-0.222
-707.631	-69.593	0.331	-0.128
-706.616	159.265	-0.140	-0.197
-705.602	-56.443	0.119	0.054
-704.587	701.442	-0.124	0.329
-703.572	-200.000	0.017	-0.385
-702.558	641.742	0.051	-0.131
-701.543	-169.054	-0.263	-0.010
-700.529	-85.732	-0.234	-0.073
-699.514	-130.055	0.295	-0.041
-698.499	-200.000	0.183	0.000
-697.485	-200.000	-0.002	0.017
-696.470	-37.617	-0.280	-0.151
-695.456	-46.446	-0.259	-0.128
-694.441	53.464	-0.123	-0.119
-693.426	-98.093	0.386	0.101
-692.412	635.873	-0.187	-0.479
-691.397	554.837	0.100	-0.243
-690.383	645.715	-0.180	0.465
-689.368	82.074	-0.133	-0.146
-688.354	-142.210	-0.104	0.010
-687.339	-127.558	-0.378	0.055
-686.324	-200.000	-0.014	0.158
-685.310	175.132	0.134	-0.196
-684.295	2.053	-0.204	-0.149
-683.281	-40.368	0.115	-0.060
-682.266	800.000	-0.049	0.145
-681.251	96.591	-0.215	0.249
-680.237	800.000	-0.123	-0.530
-679.222	149.854	-0.084	-0.115
-678.208	-200.000	-0.012	-0.145
-677.193	112.727	-0.204	-0.250
-676.178	-94.355	0.199	-0.055
-675.164	800.000	-0.072	-0.260
-674.149	37.903	0.130	-0.117
-673.135	639.326	-0.059	0.151
-672.120	117.760	0.087	0.109
-671.105	177.937	-0.128	-0.189
-670.091	-103.810	0.173	-0.041
-669.076	-82.041	-0.165	0.054
-668.062	-130.990	-0.325	-0.044
-667.047	-61.530	0.160	-0.068
-666.032	-200.000	-0.052	-0.392
-665.018	-113.694	0.191	-0.038
-664.003	793.922	0.045	-0.124
-662.989	240.713	-0.182	-0.307
-661.974	-113.240	0.093	0.018
-660.959	281.302	0.129	-0.233
-659.945	-42.635	0.129	0.066
-658.930	-109.094	0.270	-0.058
-657.916	-106.696	-0.223	0.050
-656.901	142.042	0.037	-0.049
-655.886	153.419	-0.058	0.080
-654.872	128.414	-0.076	0.098
-653.857	-103.274	-0.262	0.063
-652.843	-116.927	0.262	0.048
-651.828	-200.000	-0.007	-0.560
-650.814	800.000	-0.077	-0.249
-649.799	385.686	0.079	-0.165
-648.784	-200.000	0.022	0.269
-647.770	-0.385	-0.268	0.193
-646.755	36.512	-0.303	-0.270
-645.741	9.537	-0.229	-0.175
-644.726	35.122	0.167	0.148
-643.711	274.588	0.239	-0.427
-642.697	-196.391	-0.477	0.003
-641.682	-200.000	0.014	-0.172
-640.668	155.993	-0.049	0.068
-639.653	380.120	-0.055	0.115
-638.638	-78.428	0.155	-0.054
-637.624	-80.322	-0.153	0.052
-636.609	-42.053	-0.242	0.125
-635.595	788.333	0.096	0.267
-634.580	59.832	0.133	-0.133
-633.565	130.447	-0.166	0.215
-632.551	264.316	0.115	0.201
-631.536	-200.000	-0.170	-0.000
-630.522	39.532	0.128	-0.115
-629.507	-200.000	0.003	0.286
-628.492	-157.196	0.440	-0.027
-627.478	-152.547	-0.235	-0.017
-626.463	163.065	0.167	0.237
-625.449	-167.229	-0.307	0.013
-624.434	547.475	-0.093	0.225
-623.419	-166.309	0.086	0.004
-622.405	6.645	0.444	0.333
-621.390	-7.329	-0.208	0.142
-620.376	27.265	-0.064	0.054
-619.361	217.103	-0.260	-0.418
-618.346	-155.198	-0.163	0.011
-617.332	255.081	-0.101	0.174
-616.317	-72.198	-0.234	-0.087
-615.303	800.000	-0.035	-0.112
-614.288	93.392	-0.181	-0.207
-613.273	-26.225	-0.141	0.084
-612.259	-154.721	0.171	0.011
-611.244	326.755	-0.076	0.148
-610.230	-200.000	0.069	0.328
-609.215	-141.392	0.302	-0.031
-608.201	-81.556	0.218	-0.072
-607.186	-104.493	0.193	-0.045
-606.171	-21.522	-0.113	0.069
-605.157	119.268	0.062	-0.078
-604.142	289.990	0.014	0.026
-603.128	800.000	-0.135	-0.387
-602.113	442.251	-0.028	-0.062
-601.098	307.206	-0.044	-0.083
-600.084	-49.922	-0.381	0.182
-599.069	-56.062	-0.259	0.116
-598.055	53.882	-0.214	-0.207
-597.040	113.193	0.142	0.173
-596.025	-93.828	0.244	-0.068
-595.011	-200.000	-0.020	-0.192
-593.996	203.912	0.021	-0.032
-592.982	405.753	-0.032	0.067
-591.967	800.000	0.050	-0.213
-590.952	-41.982	-0.680	-0.351
-589.938	-200.000	-0.026	-0.157
-588.923	-146.844	0.238	-0.021
-587.909	-61.247	0.211	-0.090
-586.894	-49.122	-0.269	-0.130
-585.879	-200.000	-0.068	-0.302
-584.865	-125.669	0.250	-0.038
-583.850	-63.973	0.107	-0.044
-582.836	151.210	0.158	0.217
-581.821	800.000	0.058	-0.163
-580.806	196.649	-0.153	-0.235
-579.792	800.000	0.100	-0.388
-578.777	656.637	-0.059	0.152
-577.763	-97.631	-0.103	-0.027
-576.748	-158.911	-0.144	0.008
-575.733	800.000	-0.080	0.257
-574.719	-138.853	0.292	0.032
-573.704	-200.000	-0.016	-0.138
-572.690	-151.896	0.386	-0.028
-571.675	31.731	-0.095	-0.082
-570.661	94.672	0.103	0.118
-569.646	-47.657	-0.320	0.156
-568.631	29.750	0.253	0.217
-567.617	134.740	0.124	0.162
-566.602	-108.503	-0.239	0.052
-565.588	800.000	-0.085	-0.311
-564.573	89.014	-0.278	-0.311
-563.558	311.977	0.067	-0.127
-562.544	243.649	-0.170	0.287
-561.529	9.970	-0.123	0.094
-560.515	712.978	0.079	-0.212
-559.500	271.499	0.121	-0.215
-558.485	-103.868	0.171	-0.040
-557.471	209.071	-0.103	-0.163
-556.456	-78.766	0.124	-0.043
-555.442	-115.560	-0.420	-0.079
-554.427	41.672	-0.055	0.050
-553.412	92.520	-0.164	-0.187
-552.398	-200.000	-0.025	0.257
-551.383	118.540	-0.269	-0.334
-550.369	-200.000	0.001	-0.023
-549.354	-89.625	0.058	-0.017
-548.339	-61.266	-0.141	-0.060
-547.325	42.255	-0.156	0.142
-546.310	-200.000	-0.015	-0.079
-545.296	-193.744	0.247	0.002
-544.281	-200.000	-0.005	0.026
-543.266	-54.635	0.095	0.043
-542.252	-87.115	0.053	-0.016
-541.237	57.369	-0.230	0.226
-540.223	-8.530	-0.369	0.249
-539.208	141.069	0.244	-0.324
-538.193	-121.523	-0.113	-0.019
-537.179	-39.959	-0.156	0.082
-536.164	524.376	-0.177	-0.418
-535.150	569.260	0.216	-0.529
-534.135	-93.239	0.154	-0.043
-533.121	-163.095	0.163	0.008
-532.106	461.475	-0.131	-0.293
-531.091	325.610	0.112	-0.216
-530.077	69.006	0.200	0.207
-529.062	27.690	-0.077	0.065
-528.048	-79.334	0.170	-0.058
-527.033	-200.000	0.010	0.210
-526.018	-79.639	-0.259	-0.088
-525.004	726.003	0.065	0.173
-523.989	176.809	-0.194	-0.283
-522.975	-68.405	0.189	0.074
-521.960	-120.476	0.533	0.091
-520.945	-200.000	-0.011	0.306
-519.931	377.326	-0.072	-0.149
-518.916	-200.000	-0.016	-0.176
-517.902	-45.364	-0.406	-0.202
-516.887	-12.046	-0.039	-0.026
-515.872	-118.996	0.123	0.022
-514.858	-134.322	-0.457	0.056
-513.843	-187.033	0.176	-0.002
-512.829	-168.474	0.031	0.001
-511.814	-59.490	0.223	0.096
-510.799	613.721	0.130	-0.327
-509.785	-112.225	-0.257	-0.052
-508.770	147.389	0.094	-0.127
-507.756	-200.000	0.050	-0.279
-506.741	-4.012	0.163	-0.114
-505.726	-65.425	-0.108	0.044
-504.712	-200.000	-0.002	0.369
-503.697	-84.954	-0.239	-0.075
-502.683	-40.045	0.252	-0.132
-501.668	-63.703	-0.173	0.071
-500.653	-200.000	-0.001	0.087
-499.639	-200.000	-0.027	-0.216
-498.624	-200.000	-0.000	-0.056
-497.610	-200.000	0.059	0.278
-496.595	350.351	0.025	-0.050
-495.581	363.706	-0.049	0.099
-494.566	-1.841	0.151	-0.106
-493.551	17.690	0.070	-0.056
-492.537	-51.133	0.124	-0.058
-491.522	-46.798	0.258	0.126
-490.508	-111.653	0.356	0.072
-489.493	94.847	0.043	0.049
-488.478	-70.819	0.043	-0.016
-487.464	189.323	0.116	-0.174
-486.449	181.957	0.166	0.245
-485.435	147.431	0.272	0.368
-484.420	-6.900	0.079	-0.054
-483.405	561.904	0.055	-0.134
-482.391	-139.754	-0.327	0.035
-481.376	-134.199	-0.194	-0.024
-480.362	472.398	0.069	0.155
-479.347	-167.119	-0.260	-0.011
-478.332	800.000	0.086	0.289
-477.318	-200.000	-0.001	-0.086
-476.303	381.643	-0.087	0.179
-475.289	147.323	-0.137	0.185
-474.274	-200.000	-0.036	-0.239
-473.259	-60.124	-0.173	-0.074
-472.245	-27.301	0.162	0.095
-471.230	-23.899	0.124	0.075
-470.216	240.352	0.075	-0.126
-469.201	500.369	0.102	0.235
-468.186	800.000	-0.061	-0.178
-467.172	-170.963	-0.198	0.007
-466.157	-200.000	-0.016	-0.284
-465.143	-101.186	0.225	0.055
-464.128	369.541	0.044	0.089
-463.113	146.568	0.229	0.308
-462.099	15.346	-0.121	-0.095
-461.084	36.717	0.100	-0.088
-460.070	-200.000	0.008	-0.075
-459.055	33.068	0.082	0.072
-458.040	-97.672	0.142	-0.037
-457.026	164.095	-0.137	-0.193
-456.011	-103.187	0.034	-0.008
-454.997	-108.209	0.198	-0.043
-453.982	800.000	-0.106	-0.301
-452.968	-69.921	0.294	0.112
-451.953	800.000	0.041	-0.175
-450.938	800.000	-0.040	-0.163
-449.924	65.467	0.188	-0.191
-448.909	318.055	-0.066	0.125
-447.895	800.000	0.027	-0.074
-446.880	-108.611	0.171	-0.037
-445.865	-125.652	-0.319	0.048
-444.851	46.760	-0.177	0.164
-443.836	-200.000	-0.037	0.349
-442.822	-87.667	-0.048	-0.014
-441.807	-89.041	0.049	0.015
-440.792	269.471	0.099	0.174
-439.778	56.361	-0.044	-0.042
-438.763	123.903	0.142	-0.178
-437.749	707.957	0.124	0.328
-436.734	31.538	-0.134	-0.115
-435.719	207.000	-0.162	-0.253
-434.705	75.243	0.170	-0.179
-433.690	149.614	-0.145	0.197
-432.676	186.424	0.198	-0.295
-431.661	800.000	-0.048	-0.145
-430.646	-9.724	0.098	-0.065
-429.632	-114.515	0.248	-0.048
-428.617	-200.000	0.001	0.145
-427.603	615.542	0.048	0.120
-426.588	74.462	-0.134	0.141
-425.573	-200.000	-0.020	-0.105
-424.559	-200.000	-0.040	-0.212
-423.544	-200.000	-0.057	0.439
-422.530	-148.647	0.445	-0.036
-421.515	-120.644	0.255	-0.043
-420.500	-86.283	-0.258	-0.080
-419.486	-200.000	0.069	0.302
-418.471	800.000	0.142	0.461
-417.457	25.416	-0.209	0.174
-416.442	-49.176	0.166	-0.079
-415.428	-200.000	-0.071	-0.411
-414.413	6.797	-0.168	0.125
-413.398	772.079	0.123	0.337
-412.384	-57.700	-0.120	0.053
-411.369	-8.583	-0.059	0.040
-410.355	-18.073	0.098	0.061
-409.340	-200.000	0.010	-0.158
-408.325	-135.515	0.054	0.006
-407.311	-94.719	-0.285	0.077
-406.296	166.910	0.083	0.118
-405.282	800.000	-0.087	0.342
-404.267	85.224	-0.032	0.035
-403.252	-200.000	0.013	0.135
-402.238	765.627	0.070	0.191
-401.223	-65.707	0.132	-0.053
-400.209	-6.397	-0.126	-0.086
-399.194	-128.453	-0.109	0.015
-398.179	239.318	-0.186	0.310
-397.165	-200.000	0.001	0.316
-396.150	342.657	0.047	-0.092
-395.136	-200.000	0.004	-0.070
-394.121	762.971	0.122	0.330
-393.106	-200.000	0.024	-0.292
-392.092	-149.812	-0.368	-0.029
-391.077	18.913	-0.148	0.118
-390.063	721.169	-0.042	-0.112
-389.048	-181.870	-0.216	-0.004
-388.033	36.889	0.152	0.134
-387.019	-87.034	-0.147	0.045
-386.004	272.770	-0.126	0.222
-384.990	9.174	0.173	-0.131
-383.975	-43.352	-0.223	0.113
-382.960	-66.806	0.272	0.108
-381.946	-74.307	0.222	-0.080
-380.931	-110.654	0.188	0.039
-379.917	115.038	-0.045	-0.054
-378.902	142.469	-0.152	0.202
-377.888	-113.108	0.140	0.028
-376.873	-7.740	-0.049	-0.033
-375.858	800.000	-0.096	-0.266
-374.844	-153.626	-0.168	0.012
-373.829	-200.000	-0.009	0.118
-372.815	-200.000	-0.010	-0.047
-371.800	701.612	0.076	0.200
-370.785	91.026	0.201	0.225
-369.771	85.009	0.213	-0.233
-368.756	-200.000	-0.001	0.027
-367.742	-49.519	-0.126	0.060
-366.727	83.539	0.139	0.151
-365.712	425.477	0.116	-0.249
-364.698	264.554	-0.062	0.108
-363.683	-10.002	-0.308	-0.204
-362.669	356.637	0.090	0.179
-361.654	-200.000	-0.023	0.192
-360.639	11.373	0.113	0.087
-359.625	-33.464	-0.143	-0.079
-358.610	-108.833	0.098	0.021
-357.596	-200.000	-0.027	-0.363
-356.581	-30.573	0.075	0.042
-355.566	-105.512	0.068	-0.015
-354.552	-41.768	0.293	0.150
-353.537	-119.981	0.126	0.022
-352.523	-104.409	-0.194	-0.045
-351.508	800.000	0.132	0.390
-350.493	38.006	0.086	0.076
-349.479	-72.716	-0.413	-0.152
-348.464	-200.000	-0.036	-0.207
-347.450	-200.000	-0.084	-0.428
-346.435	-132.862	-0.127	-0.016
-345.420	800.000	0.131	-0.433
-344.406	-15.195	-0.112	0.072
-343.391	-103.026	0.257	-0.061
-342.377	22.870	-0.161	0.132
-341.362	355.220	0.082	-0.162
-340.348	800.000	-0.058	-0.193
-339.333	-200.000	-0.027	0.123
-338.318	-109.682	-0.040	-0.008
-337.304	36.841	0.142	-0.125
-336.289	-1.211	-0.195	-0.138
-335.275	720.947	-0.119	-0.314
-334.260	800.000	-0.095	-0.272
-333.245	42.159	0.512	-0.464
-332.231	-99.736	-0.259	0.065
-331.216	134.883	-0.049	0.063
-330.202	-200.000	-0.078	0.418
-329.187	777.862	0.131	0.358
-328.172	-200.000	-0.004	0.084
-327.158	-200.000	0.012	-0.252
-326.143	-81.030	0.372	-0.123
-325.129	-117.682	0.136	0.024
-324.114	111.943	-0.036	-0.044
-323.099	114.212	0.048	0.058
-322.085	-13.451	-0.080	-0.051
-321.070	-68.519	-0.158	0.061
-320.056	-46.549	0.223	-0.109
-319.041	-132.041	0.082	0.011
-318.026	165.903	0.143	0.202
-317.012	188.846	0.068	0.102
-315.997	-163.214	-0.154	-0.007
-314.983	-194.117	0.318	0.003
-313.968	-200.000	-0.010	0.051
-312.953	-37.758	-0.014	0.007
-311.939	-134.142	0.448	-0.055
-310.924	51.027	-0.209	-0.197
-309.910	-28.920	-0.273	0.156
-308.895	37.241	0.357	-0.315
-307.880	698.027	-0.049	0.127
-306.866	-40.582	0.236	0.122
-305.851	-64.472	-0.077	0.031
-304.837	43.170	0.021	0.019
-303.822	-16.611	0.080	0.050
-302.807	800.000	-0.082	0.243
-301.793	198.181	-0.173	0.263
-300.778	800.000	-0.096	-0.326
-299.764	800.000	0.043	-0.184
-298.749	-9.625	-0.215	-0.143
-297.735	-5.466	-0.133	-0.091
-296.720	-21.988	-0.133	0.081
-295.705	463.471	0.081	0.180
-294.691	11.968	-0.106	0.081
-293.676	66.212	-0.265	0.268
-292.662	-113.859	-0.109	0.021
-291.647	-51.473	-0.073	0.034
-290.632	-91.647	-0.109	0.031
-289.618	214.356	0.141	-0.222
-288.603	34.383	0.097	0.084
-287.589	-1.331	-0.240	0.168
-286.574	574.290	-0.084	-0.204
-285.559	-200.000	0.001	0.114
-284.545	-51.447	-0.207	-0.096
-283.530	742.067	0.105	-0.281
-282.516	800.000	0.010	-0.031
-281.501	-147.564	-0.099	0.008
-280.486	-10.063	-0.041	-0.027
-279.472	310.085	0.130	-0.242
-278.457	-95.781	0.088	0.024
-277.443	-200.000	0.008	-0.138
-276.428	-93.559	0.138	0.038
-275.413	614.163	0.119	-0.295
-274.399	58.135	0.218	-0.213
-273.384	-173.213	-0.152	0.005
-272.370	-65.340	-0.053	-0.021
-271.355	180.888	-0.122	0.178
-270.340	624.237	0.063	0.159
-269.326	626.082	-0.090	-0.227
-268.311	292.118	-0.068	-0.123
-267.297	-22.986	0.206	0.124
-266.282	14.326	-0.133	-0.103
-265.267	800.000	0.028	-0.086
-264.253	97.804	-0.231	0.265
-263.238	18.460	0.067	-0.053
-262.224	-200.000	0.008	-0.192
-261.209	-135.943	0.061	0.007
-260.195	723.600	0.014	0.036
-259.180	103.572	-0.190	-0.222
-258.165	-200.000	0.037	0.177
-257.151	10.288	0.123	-0.093
-256.136	-35.834	0.369	0.199
-255.122	-25.311	0.184	0.108
-254.107	-200.000	0.053	0.331
-253.092	-200.000	-0.008	0.039
-252.078	177.388	0.100	0.145
-251.063	-161.581	-0.491	-0.025
-250.049	102.081	0.323	0.375
-249.034	-63.377	-0.167	0.068
-248.019	538.963	-0.027	0.064
-247.005	299.147	0.157	-0.288
-245.990	-19.940	-0.119	-0.073
-244.976	-104.246	0.115	-0.027
-243.961	272.964	0.102	-0.179
-242.946	-200.000	-0.001	0.365
-241.932	10.907	-0.154	0.117
-240.917	115.807	-0.129	-0.157
-239.903	-200.000	-0.028	0.143
-238.888	247.966	0.124	-0.209
-237.873	-140.657	0.227	0.023
-236.859	-91.104	0.225	-0.064
-235.844	-200.000	-0.003	0.020
-234.830	94.587	0.196	0.222
-233.815	-200.000	0.006	0.033
-232.800	-13.164	0.035	-0.023
-231.786	378.595	-0.305	0.619
-230.771	-154.507	-0.236	-0.016
-229.757	95.871	0.164	-0.185
-228.742	-188.140	0.387	0.005
-227.727	-200.000	0.001	0.250
-226.713	-200.000	0.044	0.314
-225.698	366.552	0.163	0.326
-224.684	-200.000	0.032	-0.160
-223.669	213.448	-0.040	-0.063
-222.655	96.257	0.089	0.101
-221.640	800.000	0.082	-0.227
-220.625	319.004	-0.149	-0.280
-219.611	4.710	-0.193	0.141
-218.596	-44.878	-0.076	0.038
-217.582	800.000	0.057	-0.203
-216.567	-100.101	-0.254	0.063
-215.552	-96.639	-0.423	-0.111
-214.538	-200.000	-0.019	-0.187
-213.523	33.280	0.140	-0.121
-212.509	94.418	-0.169	-0.191
-211.494	558.314	0.078	0.186
-210.479	-78.655	-0.402	0.136
-209.465	111.641	-0.250	0.300
-208.450	-200.000	0.000	-0.243
-207.436	800.000	0.052	0.180
-206.421	-200.000	-0.029	0.195
-205.406	-200.000	-0.012	-0.153
-204.392	-34.726	0.178	0.097
-203.377	335.970	0.104	0.200
-202.363	131.992	-0.230	-0.294
-201.348	800.000	-0.050	-0.200
-200.333	109.250	-0.080	-0.095
-199.319	69.922	-0.269	0.275
-198.304	-155.966	0.045	0.003
-197.290	-84.046	0.144	0.045
-196.275	-200.000	-0.010	-0.132
-195.260	-80.504	-0.112	-0.037
-194.246	-143.853	-0.198	-0.019
-193.231	-183.162	-0.182	0.003
-192.217	161.035	0.179	0.248
-191.202	26.749	0.234	0.194
-190.187	-150.466	-0.189	0.014
-189.173	-55.320	-0.182	0.081
-188.158	780.566	0.111	-0.300
-187.144	-187.428	0.262	-0.003
-186.129	9.270	0.245	-0.184
-185.114	-83.520	-0.440	0.139
-184.100	-200.000	-0.029	-0.131
-183.085	36.359	0.144	0.126
-182.071	-79.621	0.192	0.064
-181.056	720.802	0.075	0.198
-180.042	121.853	0.146	0.180
-179.027	-141.297	-0.195	-0.020
-178.012	-113.431	0.159	0.031
-176.998	800.000	-0.059	0.187
-175.983	-200.000	0.022	0.287
-174.969	800.000	0.012	0.050
-173.954	-133.163	-0.076	0.010
-172.939	-75.303	0.019	-0.007
-171.925	800.000	0.124	0.358
-170.910	287.644	0.111	0.199
-169.896	98.689	-0.046	0.053
-168.881	26.669	-0.138	-0.115
-167.866	-93.784	0.105	0.029
-166.852	-29.095	0.297	-0.169
-165.837	-22.108	-0.236	0.142
-164.823	565.951	0.109	-0.262
-163.808	203.998	-0.118	0.180
-162.793	39.655	0.073	-0.065
-161.779	800.000	-0.046	-0.132
-160.764	-89.428	0.478	-0.139
-159.750	800.000	0.031	0.119
-158.735	-35.349	0.178	-0.096
-157.720	-62.373	0.168	-0.069
-156.706	-200.000	-0.076	-0.431
-155.691	-200.000	-0.016	0.133
-154.677	-144.015	-0.241	-0.022
-153.662	247.946	0.199	-0.333
-152.647	-93.230	0.213	0.059
-151.633	800.000	-0.039	0.132
-150.618	-41.499	-0.180	0.092
-149.604	52.352	0.091	0.086
-148.589	-159.182	0.227	-0.013
-147.574	62.040	-0.132	0.130
-146.560	-200.000	0.031	-0.354
-145.545	-48.573	0.085	-0.041
-144.531	-116.975	0.209	-0.038
-143.516	-200.000	-0.011	-0.168
-142.502	201.591	-0.202	-0.308
-141.487	-98.966	-0.054	-0.013
-140.472	-83.946	0.225	-0.071
-139.458	114.266	-0.100	0.120
-138.443	-200.000	0.015	-0.148
-137.429	170.915	-0.058	0.082
-136.414	800.000	0.020	0.062
-135.399	-131.197	-0.160	-0.021
-134.385	751.437	-0.026	0.068
-133.370	259.326	-0.112	0.191
-132.356	-108.367	-0.162	0.035
-131.341	294.904	-0.211	-0.382
-130.326	800.000	0.180	-0.508
-129.312	168.716	0.091	0.128
-128.297	5.499	0.370	-0.270
-127.283	-1.392	0.159	-0.111
-126.268	-124.814	0.270	-0.041
-125.253	-31.409	-0.096	-0.053
-124.239	220.816	-0.157	0.249
-123.224	138.396	-0.327	0.424
-122.210	44.317	-0.127	-0.115
-121.195	-24.124	-0.213	0.126
-120.180	-200.000	-0.032	-0.205
-119.166	36.935	-0.457	-0.400
-118.151	-110.439	0.198	0.041
-117.137	-95.761	0.364	-0.096
-116.122	488.417	0.053	-0.120
-115.107	-52.908	0.099	-0.045
-114.093	-200.000	-0.035	-0.152
-113.078	271.206	-0.243	-0.423
-112.064	10.345	-0.161	-0.121
-111.049	34.305	0.332	-0.287
-110.034	-5.671	-0.025	-0.017
-109.020	-66.846	0.054	0.021
-108.005	-37.472	0.155	0.082
-106.991	-126.455	0.542	-0.080
-105.976	-47.972	0.394	0.188
-104.962	21.058	-0.016	0.013
-103.947	90.875	0.178	-0.198
-102.932	-148.975	-0.268	-0.021
-101.918	94.887	0.143	-0.161
-100.903	255.460	-0.162	0.275
-99.889	-84.665	0.163	0.051
-98.874	28.939	0.345	-0.289
-97.859	-200.000	-0.022	-0.224
-96.845	43.306	-0.273	-0.247
-95.830	376.479	-0.069	0.138
-94.816	479.135	0.016	-0.037
-93.801	27.542	0.161	0.134
-92.786	-115.927	-0.119	0.022
-91.772	-82.747	0.061	0.019
-90.757	-180.209	-0.165	0.003
-89.743	-35.942	0.321	0.172
-88.728	-54.594	-0.126	-0.056
-87.713	23.744	-0.320	0.261
-86.699	10.445	0.253	0.190
-85.684	-200.000	-0.003	0.012
-84.670	-200.000	-0.001	0.134
-83.655	270.313	-0.078	0.135
-82.640	-157.363	0.333	-0.020
-81.626	108.555	0.112	0.132
-80.611	-200.000	-0.023	0.478
-79.597	-8.046	-0.278	0.185
-78.582	57.105	-0.095	-0.092
-77.567	-91.571	-0.252	0.071
-76.553	-136.630	0.115	0.013
-75.538	743.681	0.090	0.240
-74.524	-113.655	0.164	0.032
-73.509	800.000	-0.068	0.251
-72.494	-115.092	0.326	0.061
-71.480	800.000	0.111	-0.472
-70.465	-92.422	0.325	0.090
-69.451	-200.000	-0.003	-0.042
-68.436	249.000	-0.202	0.338
-67.422	143.139	0.067	0.088
-66.407	800.000	-0.019	0.061
-65.392	25.645	0.178	-0.146
-64.378	-200.000	0.018	0.135
-63.363	-200.000	0.005	-0.229
-62.349	-62.686	0.206	0.084
-61.334	55.478	-0.854	-0.815
-60.319	136.080	0.285	0.367
-59.305	800.000	-0.238	-0.833
-58.290	53.784	0.712	0.674
-57.276	517.953	0.647	1.492
-56.261	-200.000	94.382	556.099
-55.246	635.061	1383.220	3461.689
-54.232	186.986	2610.819	3837.874
-53.217	117.068	2320.000	2811.044
-52.203	45.196	1931.794	1756.464
-51.188	38.702	1717.301	1511.503
-50.173	35.740	1672.154	1449.428
-49.159	52.286	1720.251	1617.954
-48.144	55.540	1738.059	1659.502
-47.130	38.351	1694.365	1488.412
-46.115	35.326	1679.339	1452.289
-45.100	35.196	1674.669	1447.213
-44.086	35.176	1671.744	1444.473
-43.071	35.080	1669.525	1441.775
-42.057	35.082	1667.200	1439.724
-41.042	35.163	1664.930	1438.317
-40.027	35.228	1662.924	1437.018
-39.013	35.176	1661.009	1434.914
-37.998	35.086	1659.677	1433.030
-36.984	35.211	1658.291	1432.713
-35.969	35.308	1656.220	1431.595
-34.954	35.356	1655.138	1430.957
-33.940	35.220	1653.703	1428.649
-32.925	35.342	1650.896	1427.073
-31.911	35.248	1649.957	1425.501
-30.896	35.227	1648.431	1423.975
-29.881	35.215	1646.697	1422.333
-28.867	35.281	1644.864	1421.183
-27.852	35.277	1643.506	1419.923
-26.838	35.190	1641.807	1417.751
-25.823	35.346	1640.310	1417.561
-24.809	35.287	1639.419	1416.295
-23.794	35.326	1637.953	1415.260
-22.779	35.315	1636.229	1413.634
-21.765	35.299	1634.328	1411.818
-20.750	35.271	1632.909	1410.332
-19.736	35.373	1631.369	1409.692
-18.721	35.396	1629.584	1408.262
-17.706	35.407	1627.855	1406.795
-16.692	35.304	1626.337	1404.671
-15.677	35.308	1625.233	1403.694
-14.663	35.327	1623.672	1402.428
-13.648	35.318	1622.292	1401.113
-12.633	35.319	1620.783	1399.764
-11.619	35.237	1619.865	1398.313
-10.604	35.353	1617.576	1397.130
-9.590	35.407	1616.321	1396.382
-8.575	35.227	1615.646	1394.431
-7.560	35.300	1614.133	1393.603
-6.546	35.224	1612.801	1391.849
-5.531	35.329	1611.623	1391.540
-4.517	35.420	1610.141	1390.859
-3.502	35.289	1609.677	1389.460
-2.487	35.441	1608.125	1389.160
-1.473	35.233	1596.774	1377.807
-0.458	32.416	1577.045	1340.691
0.556	30.647	1576.410	1302.794
1.571	27.717	1598.751	1300.291
2.586	26.520	1611.553	1301.984
3.600	23.109	1557.575	1234.498
4.615	14.201	1445.464	1087.579
5.629	6.141	1378.652	986.796
6.644	4.636	1370.086	971.179
7.659	4.596	1369.173	970.202
8.673	4.615	1367.696	969.186
9.688	4.633	1366.590	968.427
10.702	4.605	1364.226	966.491
11.717	8.470	1370.737	995.122
12.731	17.155	1387.198	1061.492
13.746	22.560	1394.971	1101.215
14.761	22.665	1394.307	1101.249
15.775	21.842	1391.878	1094.104
16.790	20.928	1388.825	1085.916
17.804	20.002	1386.834	1078.498
18.819	19.727	1385.765	1075.860
19.834	19.485	1384.658	1073.401
20.848	19.394	1383.524	1071.859
21.863	19.318	1382.073	1070.167
22.877	19.113	1381.071	1068.026
23.892	19.134	1380.185	1067.378
24.907	18.961	1379.565	1065.733
25.921	18.934	1378.821	1064.893
26.936	19.066	1377.261	1064.413
27.950	19.116	1376.255	1063.847
28.965	19.132	1375.660	1063.393
29.980	19.275	1374.598	1063.364
30.994	19.314	1373.868	1062.943
32.009	19.388	1372.985	1062.621
33.023	19.409	1371.254	1061.318
34.038	19.307	1369.827	1059.494
35.053	19.198	1369.036	1058.119
36.067	19.271	1367.019	1056.913
37.082	19.174	1366.706	1055.982
38.096	19.294	1365.694	1055.842
39.111	19.338	1364.716	1055.264
40.126	19.201	1363.965	1053.751
41.140	19.021	1362.531	1051.447
42.155	18.787	1361.845	1049.398
43.169	18.710	1362.040	1048.982
44.184	18.739	1361.669	1048.781
45.199	18.755	1361.204	1048.430
46.213	18.897	1361.191	1049.192
47.228	19.170	1360.298	1050.075
48.242	19.176	1359.268	1049.225
49.257	19.038	1357.742	1047.113
50.271	19.150	1355.740	1046.159
51.286	19.171	1354.647	1045.349
52.301	19.196	1353.363	1044.420
53.315	19.004	1352.489	1042.489
54.330	18.854	1351.687	1040.868
55.344	18.891	1350.126	1039.799
56.359	18.886	1349.290	1039.033
57.374	18.853	1348.250	1037.940
58.388	18.803	1347.440	1036.921
59.403	18.593	1347.317	1035.467
60.417	18.707	1346.310	1035.293
61.432	18.598	1345.365	1033.817
62.447	18.645	1344.534	1033.368
63.461	18.551	1342.930	1031.481
64.476	18.552	1341.722	1030.466
65.490	18.578	1340.595	1029.664
66.505	18.651	1338.946	1028.747
67.520	18.605	1338.244	1027.841
68.534	18.617	1337.263	1027.069
69.549	18.617	1336.276	1026.216
70.563	18.448	1335.492	1024.517
71.578	18.468	1333.711	1023.181
72.593	18.411	1332.861	1022.097
73.607	18.306	1332.015	1020.728
74.622	18.394	1331.062	1020.432
75.636	18.448	1330.624	1020.330
76.651	18.402	1330.639	1019.975
77.666	18.492	1329.532	1019.574
78.680	18.523	1329.192	1019.407
79.695	18.614	1328.181	1019.079
80.709	18.668	1327.854	1019.062
81.724	18.713	1327.403	1018.891
82.739	18.871	1326.577	1019.105
83.753	19.147	1325.466	1019.793
84.768	19.173	1324.687	1019.261
85.782	19.277	1323.927	1019.202
86.797	19.237	1322.396	1017.693
87.812	19.164	1321.431	1016.432
88.826	19.135	1320.357	1015.346
89.841	19.200	1319.269	1014.803
90.855	19.227	1318.235	1014.077
91.870	19.329	1317.356	1013.910
92.884	19.291	1316.679	1013.072
93.899	19.385	1315.717	1012.799
94.914	19.443	1314.978	1012.480
95.928	19.396	1314.434	1011.697
96.943	19.396	1313.432	1010.835
97.957	19.301	1312.834	1009.727
98.972	19.353	1311.287	1008.756
99.987	19.216	1310.752	1007.450
101.001	19.228	1309.665	1006.595
102.016	19.272	1308.646	1005.983
103.030	19.300	1307.782	1005.390
104.045	19.180	1306.898	1003.926
105.060	19.220	1305.523	1003.008
106.074	18.867	1303.996	999.699
107.089	18.531	1302.756	996.703
108.103	18.582	1300.835	995.442
109.118	18.631	1299.677	994.749
110.133	18.552	1298.729	993.481
111.147	18.640	1297.116	992.666
112.162	18.604	1296.410	991.834
113.176	18.747	1295.272	991.700
114.191	18.779	1294.233	990.999
115.206	18.807	1293.075	990.191
116.220	18.714	1291.913	988.676
117.235	18.748	1291.105	988.167
118.249	18.817	1289.704	987.402
119.264	18.629	1288.536	985.342
120.279	18.562	1287.434	984.024
121.293	18.508	1286.435	982.867
122.308	18.511	1285.107	981.781
123.322	18.389	1284.551	980.574
124.337	18.397	1282.971	979.326
125.352	18.398	1282.109	978.588
126.366	18.436	1280.839	977.749
127.381	18.370	1280.080	976.705
128.395	18.447	1279.021	976.248
129.410	18.530	1278.334	976.110
130.424	18.613	1277.597	975.933
131.439	18.666	1276.882	975.600
132.454	18.730	1275.814	975.064
133.468	18.713	1275.138	974.366
134.483	18.635	1274.660	973.469
135.497	18.800	1273.698	973.586
136.512	18.776	1272.510	972.456
137.527	18.882	1270.734	971.608
138.541	18.824	1269.626	970.349
139.556	18.902	1268.335	969.715
140.570	18.895	1267.769	969.162
141.585	19.020	1266.412	968.740
142.600	19.098	1265.117	968.102
143.614	19.246	1264.782	968.595
144.629	19.304	1263.082	967.530
145.643	19.226	1261.899	966.104
146.658	19.008	1260.828	963.974
147.673	18.911	1259.231	962.126
148.687	18.838	1257.855	960.578
149.702	18.770	1256.661	959.204
150.716	18.707	1255.051	957.540
151.731	18.718	1254.134	956.815
152.746	18.740	1253.148	956.101
153.760	18.946	1251.725	956.077
154.775	18.983	1250.737	955.444
155.789	19.008	1249.978	954.916
156.804	18.993	1248.921	953.941
157.819	19.165	1247.671	953.859
158.833	19.153	1247.457	953.544
159.848	19.329	1246.343	953.577
160.862	19.285	1245.087	952.292
161.877	19.099	1243.427	949.912
162.892	18.734	1242.618	947.194
163.906	18.859	1241.462	946.922
164.921	18.804	1240.849	946.067
165.935	18.925	1239.992	945.996
166.950	18.948	1239.376	945.566
167.964	19.036	1238.282	945.134
168.979	18.975	1237.819	944.359
169.994	19.042	1237.080	944.081
171.008	18.874	1236.537	942.663
172.023	19.102	1235.530	943.059
173.037	19.295	1234.938	943.583
174.052	19.217	1233.746	942.160
175.067	18.987	1232.519	939.884
176.081	18.861	1231.481	938.320
177.096	18.834	1230.394	937.263
178.110	18.801	1229.694	936.467
179.125	18.897	1228.490	935.990
180.140	19.030	1227.078	935.552
181.154	19.169	1225.962	935.376
182.169	19.219	1224.885	934.744
183.183	19.384	1223.835	934.754
184.198	19.411	1222.814	934.038
185.213	19.319	1221.599	932.528
186.227	19.406	1220.364	931.971
187.242	19.424	1219.579	931.387
188.256	19.483	1219.071	931.237
189.271	19.421	1218.229	930.177
190.286	19.276	1217.037	928.400
191.300	18.904	1215.837	925.404
192.315	18.779	1214.755	923.825
193.329	18.863	1214.185	923.762
194.344	18.991	1213.446	923.807
195.359	19.016	1213.450	923.860
196.373	19.110	1212.754	923.754
197.388	19.381	1212.347	924.814
198.402	19.481	1212.294	925.230
199.417	19.561	1211.932	925.298
200.432	19.767	1210.807	925.462
201.446	19.795	1210.563	925.343
202.461	19.834	1209.883	924.950
203.475	19.860	1208.598	924.022
204.490	19.515	1207.313	921.120
205.504	19.450	1205.701	919.463
206.519	19.459	1204.535	918.540
207.534	19.343	1203.249	916.860
208.548	19.429	1202.727	916.838
209.563	19.415	1201.920	916.067
210.577	19.464	1200.907	915.472
211.592	19.590	1200.273	915.578
212.607	19.875	1199.133	916.137
213.621	19.639	1198.558	914.367
214.636	19.698	1197.454	913.755
215.650	19.626	1197.051	912.990
216.665	19.736	1196.332	912.939
217.680	19.822	1195.118	912.384
218.694	19.961	1194.486	912.554
219.709	19.899	1193.132	911.112
220.723	19.867	1192.716	910.545
221.738	19.810	1192.001	909.621
222.753	19.696	1191.166	908.303
223.767	19.790	1190.459	908.180
224.782	19.842	1190.183	908.160
225.796	19.950	1189.634	908.227
226.811	20.005	1188.688	907.711
227.826	19.832	1188.034	906.226
228.840	19.814	1187.246	905.453
229.855	19.790	1186.507	904.682
230.869	19.808	1185.699	904.080
231.884	19.711	1184.723	902.752
232.899	19.505	1183.697	900.813
233.913	19.565	1183.051	900.554
234.928	19.623	1182.141	900.082
235.942	19.646	1181.175	899.390
236.957	19.588	1180.349	898.379
237.972	19.514	1180.171	897.778
238.986	19.576	1179.287	897.348
240.001	19.468	1179.059	896.535
241.015	19.684	1177.524	896.407
242.030	19.651	1177.103	895.839
243.045	19.780	1176.378	895.873
244.059	19.718	1175.505	894.810
245.074	19.848	1175.033	895.045
246.088	19.909	1174.335	894.747
247.103	20.082	1173.482	894.915
248.117	20.205	1172.632	894.820
249.132	20.202	1172.920	894.946
250.147	20.498	1171.970	895.669
251.161	20.526	1171.538	895.403
252.176	20.582	1170.604	894.900
253.190	20.652	1170.243	894.901
254.205	20.753	1169.667	894.904
255.220	20.746	1168.937	894.229
256.234	20.571	1168.583	892.979
257.249	20.617	1167.710	892.468
258.263	20.589	1166.673	891.456
259.278	20.789	1166.217	892.049
260.293	20.726	1165.463	891.071
261.307	20.776	1165.251	891.086
262.322	20.824	1164.490	890.671
263.336	20.827	1163.600	889.928
264.351	20.836	1163.157	889.556
265.366	20.889	1162.513	889.257
266.380	20.832	1161.991	888.487
267.395	20.721	1161.148	887.198
268.409	20.644	1159.902	885.778
269.424	20.527	1159.505	884.797
270.439	20.695	1159.001	885.193
271.453	20.612	1158.219	884.095
272.468	20.459	1157.356	882.581
273.482	20.467	1156.317	881.750
274.497	20.376	1155.990	880.959
275.512	20.436	1155.050	880.473
276.526	20.484	1154.106	879.915
277.541	20.551	1153.496	879.710
278.555	20.603	1152.763	879.340
279.570	20.720	1152.316	879.512
280.585	20.903	1151.446	879.690
281.599	20.900	1150.534	878.901
282.614	20.651	1149.421	876.722
283.628	20.649	1147.853	875.440
284.643	20.599	1147.421	874.777
285.657	20.583	1146.607	873.999
286.672	20.769	1145.510	874.020
287.687	20.826	1145.005	873.844
288.701	20.860	1143.915	873.106
289.716	20.712	1142.940	871.542
290.730	20.773	1142.245	871.242
291.745	20.760	1141.849	870.794
292.760	20.754	1141.585	870.487
293.774	20.869	1140.726	870.331
294.789	20.984	1140.453	870.618
295.803	20.898	1140.068	869.820
296.818	20.770	1138.777	868.118
297.833	20.747	1137.942	867.293
298.847	20.827	1137.043	866.927
299.862	20.783	1136.297	866.062
300.876	20.826	1135.727	865.767
301.891	20.950	1135.204	865.905
302.906	21.036	1134.626	865.816
303.920	21.103	1133.984	865.584
304.935	21.224	1133.492	865.730
305.949	21.397	1132.755	865.945
306.964	21.407	1132.016	865.356
307.979	21.241	1131.284	863.897
308.993	21.151	1130.435	862.728
310.008	21.199	1129.834	862.431
311.022	21.345	1129.065	862.485
312.037	21.306	1128.065	861.452
313.052	21.105	1127.275	859.787
314.066	21.035	1125.980	858.375
315.081	20.781	1125.040	856.335
316.095	20.811	1124.570	856.050
317.110	20.846	1123.487	855.321
318.125	20.881	1123.097	855.121
319.139	20.885	1122.456	854.574
320.154	20.924	1121.504	853.965
321.168	20.868	1120.936	853.183
322.183	20.946	1120.495	853.155
323.197	21.009	1119.497	852.629
324.212	21.063	1119.064	852.488
325.227	20.970	1118.679	851.662
326.241	20.938	1118.227	851.088
327.256	21.009	1117.154	850.543
328.270	21.036	1115.724	849.510
329.285	20.925	1115.303	848.572
330.300	20.938	1114.470	847.928
331.314	20.993	1113.338	847.258
332.329	20.949	1112.396	846.256
333.343	21.083	1111.620	846.236
334.358	21.167	1110.922	846.041
335.373	21.261	1110.427	846.043
336.387	21.295	1109.481	845.410
337.402	21.212	1108.832	844.441
338.416	21.408	1108.324	844.929
339.431	21.432	1107.543	844.374
340.446	21.544	1107.251	844.613
341.460	21.577	1106.732	844.303
342.475	21.766	1106.091	844.650
343.489	21.662	1104.920	843.184
344.504	21.903	1103.942	843.517
345.519	21.965	1103.072	843.076
346.533	21.795	1102.789	841.969
347.548	21.841	1102.012	841.524
348.562	21.939	1100.722	840.935
349.577	21.743	1100.148	839.483
350.592	21.524	1098.874	837.388
351.606	21.428	1098.121	836.279
352.621	21.357	1097.560	835.438
353.635	21.396	1096.630	834.845
354.650	21.354	1096.068	834.141
355.665	21.412	1095.631	834.014
356.679	21.482	1095.136	833.897
357.694	21.548	1094.416	833.588
358.708	21.579	1094.312	833.585
359.723	21.677	1093.222	833.146
360.738	21.732	1092.570	832.836
361.752	21.723	1092.059	832.329
362.767	21.652	1091.807	831.728
363.781	21.598	1091.303	831.014
364.796	21.822	1090.413	831.322
365.810	21.864	1089.903	831.061
366.825	21.970	1089.567	831.233
367.840	22.207	1089.390	832.144
368.854	22.323	1088.254	831.752
369.869	22.176	1087.809	830.644
370.883	22.029	1086.690	829.024
371.898	21.949	1085.649	827.776
372.913	22.052	1085.464	828.049
373.927	21.934	1085.080	827.126
374.942	22.075	1084.443	827.235
375.956	22.112	1083.667	826.741
376.971	22.071	1082.975	825.947
377.986	22.185	1082.398	825.968
379.000	22.218	1082.666	826.257
380.015	22.423	1081.631	826.358
381.029	22.369	1081.050	825.583
382.044	22.464	1080.172	825.289
383.059	22.412	1079.395	824.378
384.073	22.379	1078.648	823.577
385.088	22.433	1077.343	822.761
386.102	22.447	1076.530	822.134
387.117	22.270	1075.688	820.595
388.132	22.014	1074.989	818.792
389.146	22.036	1074.239	818.252
390.161	21.906	1073.175	816.762
391.175	22.152	1072.217	817.107
392.190	22.135	1072.240	816.971
393.205	22.355	1071.172	817.108
394.219	22.380	1070.291	816.480
395.234	22.223	1069.279	814.905
396.248	22.140	1068.258	813.671
397.263	22.121	1067.230	812.728
398.278	21.995	1066.693	811.669
399.292	21.975	1066.230	811.149
400.307	22.059	1065.028	810.551
401.321	21.853	1064.643	809.236
402.336	21.915	1064.012	808.970
403.350	22.060	1063.182	808.936
404.365	22.050	1062.694	808.446
405.380	22.213	1062.166	808.724
406.394	22.217	1061.022	807.800
407.409	22.326	1060.706	807.990
408.423	22.395	1059.979	807.680
409.438	22.449	1059.664	807.615
410.453	22.531	1058.832	807.286
411.467	22.597	1058.029	806.903
412.482	22.591	1057.440	806.358
413.496	22.770	1056.562	806.433
414.511	22.733	1056.430	806.092
415.526	22.934	1055.951	806.572
416.540	23.142	1054.885	806.639
417.555	22.971	1054.580	805.551
418.569	22.901	1053.940	804.674
419.584	22.908	1053.208	804.075
420.599	22.821	1052.868	803.349
421.613	154.502	1400.267	1790.218
422.628	141.855	1450.880	1790.319
