DTS Sentinel unit serial number:	SN413079Multiplexer serial number:	ORYXHardware model number:	OX4-SRSoftware version number:	ORYX F/W v4.00 Oryx Data Collector v3.7.2.0data status	okinstallation	princeton_trtdifferential loss correction	single-endedforward channel	channel 2reverse channel	N/Adate	2019/09/19time	14:27:35forward acquisition time	60.00reverse acquisition time	0.00gamma	496.2192k internal	0.2324k external	0.2324temperature offset calibration	1.0020default loss term (dB/km)	0.3790temperature slope calibration	1.0000multiplexer offset coefficient	1.0000multiplexer slope coefficient	1.0000fibre end	0.00T internal ref (°C)	32.06T ext. ref 1 (°C)	1.07T ext. ref 2 (°C)	29.26length (m)	temperature (°C)	Stokes	anti-Stokes-747.200	267.463	-0.125	0.220
-746.185	298.778	0.190	0.353
-745.171	-200.000	0.073	-0.349
-744.156	-174.731	-0.132	-0.004
-743.142	-200.000	0.017	0.260
-742.127	800.000	0.076	-0.232
-741.112	-136.054	-0.234	-0.028
-740.098	-56.685	-0.119	-0.053
-739.083	800.000	-0.065	-0.262
-738.069	800.000	0.061	0.267
-737.054	-200.000	-0.305	0.000
-736.039	-124.363	-0.354	-0.056
-735.025	23.411	-0.035	0.029
-734.010	103.865	-0.096	-0.114
-732.996	-200.000	-0.065	-0.360
-731.981	-200.000	-0.041	-0.209
-730.966	290.833	0.088	-0.161
-729.952	257.212	0.028	0.049
-728.937	61.544	-0.190	-0.191
-727.923	-200.000	-0.030	-0.186
-726.908	800.000	0.069	-0.218
-725.894	114.041	-0.160	-0.196
-724.879	800.000	-0.126	-0.431
-723.864	327.332	-0.085	0.165
-722.850	118.296	0.152	-0.189
-721.835	-75.135	0.232	-0.084
-720.821	-191.011	-0.398	-0.004
-719.806	62.509	-0.250	-0.252
-718.791	-18.221	-0.230	-0.145
-717.777	14.282	0.185	-0.146
-716.762	-53.229	-0.139	0.064
-715.748	-1.604	0.212	0.151
-714.733	380.796	0.121	-0.250
-713.718	-72.736	0.232	-0.086
-712.704	-61.672	0.252	0.107
-711.689	-70.435	-0.206	-0.079
-710.675	4.938	0.036	-0.027
-709.660	-200.000	0.008	-0.045
-708.645	-2.354	-0.153	-0.108
-707.631	228.027	-0.146	-0.240
-706.616	-92.760	-0.122	-0.034
-705.602	-40.194	0.196	0.103
-704.587	-200.000	0.011	-0.148
-703.572	-128.593	0.202	0.029
-702.558	35.280	-0.372	-0.329
-701.543	-3.089	-0.144	0.101
-700.529	-200.000	-0.058	-0.269
-699.514	-200.000	0.022	-0.344
-698.499	-200.000	0.068	-0.348
-697.485	-119.175	-0.377	-0.066
-696.470	-3.807	0.033	0.023
-695.456	-200.000	-0.064	0.507
-694.441	47.529	0.039	0.036
-693.426	332.387	0.131	-0.255
-692.412	262.932	0.078	-0.136
-691.397	-61.646	0.244	-0.103
-690.383	800.000	0.053	0.214
-689.368	41.479	-0.173	0.158
-688.354	-63.735	0.211	0.087
-687.339	-149.064	0.177	0.014
-686.324	-5.807	0.202	-0.140
-685.310	286.935	-0.195	0.354
-684.295	48.698	-0.113	-0.106
-683.281	-100.964	-0.131	0.032
-682.266	244.687	0.026	-0.044
-681.251	-123.079	-0.107	-0.017
-680.237	-117.873	-0.215	0.039
-679.222	-114.176	0.174	0.034
-678.208	-29.608	0.094	0.054
-677.193	106.478	-0.155	0.185
-676.178	-49.431	-0.308	0.148
-675.164	-106.209	-0.033	0.007
-674.149	-129.819	-0.128	-0.018
-673.135	593.753	0.058	-0.144
-672.120	-138.292	-0.162	0.018
-671.105	-110.146	-0.179	-0.038
-670.091	494.293	0.092	-0.212
-669.076	28.313	0.244	-0.207
-668.062	18.386	-0.307	0.247
-667.047	-103.905	-0.428	0.101
-666.032	106.005	-0.170	-0.203
-665.018	-80.935	0.202	-0.067
-664.003	-134.426	-0.346	-0.043
-662.989	-200.000	-0.012	-0.099
-661.974	-36.199	0.082	-0.045
-660.959	458.015	0.043	0.096
-659.945	82.436	-0.246	-0.269
-658.930	-200.000	-0.003	0.277
-657.916	-99.978	0.141	-0.035
-656.901	386.675	-0.097	-0.202
-655.886	424.306	0.137	-0.298
-654.872	800.000	-0.024	-0.075
-653.857	-185.250	0.230	-0.004
-652.843	800.000	0.059	-0.175
-651.828	800.000	0.119	-0.431
-650.814	-200.000	0.017	0.493
-649.799	-57.794	-0.085	-0.038
-648.784	-70.320	-0.148	0.057
-647.770	13.672	-0.242	0.189
-646.755	439.691	0.090	0.197
-645.741	93.311	-0.233	-0.265
-644.726	-200.000	0.004	-0.074
-643.711	-200.000	-0.034	0.394
-642.697	114.853	-0.039	-0.048
-641.682	-55.596	-0.419	-0.189
-640.668	201.074	-0.074	0.114
-639.653	-69.805	-0.434	0.166
-638.638	-200.000	0.022	-0.123
-637.624	800.000	0.124	-0.500
-636.609	-153.091	0.112	0.008
-635.595	182.121	-0.203	-0.300
-634.580	191.348	0.088	0.133
-633.565	242.472	0.121	0.204
-632.551	202.053	-0.122	0.189
-631.536	70.124	-0.084	0.088
-630.522	-45.576	-0.417	0.207
-629.507	-79.141	0.163	0.055
-628.492	252.695	-0.182	0.312
-627.478	-27.317	0.035	0.020
-626.463	-151.416	-0.301	-0.022
-625.449	245.944	-0.037	-0.063
-624.434	430.418	-0.097	0.211
-623.419	-24.645	0.113	0.068
-622.405	-200.000	0.018	0.201
-621.390	723.322	-0.062	0.167
-620.376	266.110	0.069	-0.121
-619.361	-36.533	-0.079	0.043
-618.346	-85.550	-0.079	-0.025
-617.332	800.000	-0.002	-0.005
-616.317	774.889	-0.102	0.279
-615.303	-27.891	-0.148	-0.086
-614.288	-32.085	0.240	-0.135
-613.273	298.368	-0.108	0.199
-612.259	-54.309	-0.115	-0.052
-611.244	-72.019	-0.298	0.111
-610.230	132.317	0.098	-0.127
-609.215	-200.000	0.009	-0.188
-608.201	156.215	-0.324	0.449
-607.186	75.965	0.218	0.232
-606.171	-200.000	-0.017	-0.441
-605.157	-133.212	-0.070	0.009
-604.142	-87.398	0.158	-0.048
-603.128	535.333	-0.055	0.132
-602.113	76.077	-0.064	-0.068
-601.098	363.434	-0.054	-0.109
-600.084	10.095	-0.170	-0.130
-599.069	96.036	-0.166	0.190
-598.055	340.247	0.008	-0.016
-597.040	-32.778	-0.079	0.044
-596.025	-200.000	-0.057	-0.273
-595.011	-200.000	0.012	0.142
-593.996	196.793	-0.197	0.302
-592.982	-63.450	0.137	0.056
-591.967	-106.335	-0.329	0.074
-590.952	63.486	0.048	0.048
-589.938	121.861	0.140	-0.175
-588.923	-2.240	0.195	-0.137
-587.909	-200.000	-0.048	0.291
-586.894	-105.215	-0.133	0.030
-585.879	-38.718	0.196	-0.104
-584.865	45.094	0.121	-0.111
-583.850	800.000	-0.044	0.129
-582.836	209.959	-0.254	-0.399
-581.821	571.432	-0.145	-0.353
-580.806	-101.452	-0.311	0.076
-579.792	205.185	-0.118	-0.183
-578.777	-65.361	0.076	0.031
-577.763	-36.574	0.161	0.087
-576.748	-171.806	-0.069	-0.002
-575.733	-13.768	0.174	0.113
-574.719	-103.796	-0.084	-0.020
-573.704	-169.057	0.336	-0.013
-572.690	-200.000	-0.017	0.184
-571.675	-180.079	0.052	0.001
-570.661	-22.370	0.146	0.089
-569.646	-200.000	-0.044	-0.282
-568.631	-53.276	0.385	0.177
-567.617	138.421	-0.207	-0.272
-566.602	-45.129	0.238	0.119
-565.588	90.206	-0.167	-0.187
-564.573	-125.911	-0.058	0.009
-563.558	291.411	-0.061	-0.112
-562.544	-95.735	-0.266	-0.071
-561.529	800.000	-0.054	-0.237
-560.515	-39.740	0.188	-0.098
-559.500	-47.819	0.428	-0.208
-558.485	-67.548	-0.152	0.060
-557.471	800.000	-0.090	-0.259
-556.456	474.821	0.143	-0.324
-555.442	-34.253	0.116	-0.064
-554.427	630.802	0.070	0.177
-553.412	55.104	-0.188	0.182
-552.398	-200.000	0.003	0.067
-551.383	92.011	0.139	-0.157
-550.369	800.000	-0.086	-0.354
-549.354	94.129	0.180	-0.205
-548.339	115.497	0.077	-0.094
-547.325	685.376	0.109	-0.285
-546.310	83.940	-0.034	-0.038
-545.296	124.668	-0.147	0.185
-544.281	-200.000	0.002	-0.029
-543.266	-200.000	0.011	-0.059
-542.252	169.592	0.066	0.094
-541.237	47.503	-0.170	-0.159
-540.223	450.522	-0.198	-0.438
-539.208	523.057	-0.006	-0.013
-538.193	-118.046	-0.362	0.065
-537.179	-200.000	0.028	0.286
-536.164	211.226	0.236	-0.371
-535.150	328.135	0.067	0.129
-534.135	-90.590	0.124	0.036
-533.121	4.941	0.095	0.070
-532.106	494.716	0.227	-0.522
-531.091	142.260	-0.061	0.082
-530.077	-31.106	-0.128	0.072
-529.062	-99.037	-0.293	-0.074
-528.048	800.000	0.021	0.062
-527.033	-200.000	-0.012	-0.070
-526.018	-200.000	0.014	0.148
-525.004	-88.475	-0.106	0.032
-523.989	-94.029	-0.412	-0.113
-522.975	10.814	0.278	-0.213
-521.960	-200.000	0.016	-0.128
-520.945	393.728	0.190	-0.395
-519.931	800.000	0.092	-0.337
-518.916	-51.097	0.114	-0.054
-517.902	-10.276	-0.061	0.040
-516.887	-170.314	0.145	0.005
-515.872	469.081	-0.115	0.258
-514.858	24.684	-0.184	0.153
-513.843	-200.000	0.031	0.319
-512.829	800.000	-0.085	-0.294
-511.814	-200.000	0.004	-0.106
-510.799	-60.820	-0.293	0.124
-509.785	-200.000	-0.007	0.155
-508.770	31.154	0.212	0.182
-507.756	221.220	0.129	-0.207
-506.741	-36.823	0.320	-0.172
-505.726	-138.591	-0.159	-0.017
-504.712	545.190	-0.063	0.151
-503.697	138.395	-0.066	0.087
-502.683	-175.709	0.267	-0.007
-501.668	-89.398	0.301	-0.088
-500.653	320.227	-0.187	-0.355
-499.639	-200.000	-0.003	0.105
-498.624	-38.835	-0.122	-0.064
-497.610	30.130	-0.223	0.190
-496.595	-83.101	0.141	0.045
-495.581	-45.505	-0.142	-0.071
-494.566	187.575	-0.064	0.095
-493.551	-178.275	0.210	-0.005
-492.537	760.251	0.093	-0.253
-491.522	800.000	0.068	-0.244
-490.508	-144.972	-0.450	0.041
-489.493	-2.321	-0.167	-0.117
-488.478	-83.843	0.069	-0.022
-487.464	800.000	0.032	-0.121
-486.449	126.200	-0.148	0.187
-485.435	183.436	-0.160	0.236
-484.420	-200.000	-0.028	-0.125
-483.405	472.012	-0.054	0.122
-482.391	2.241	0.250	0.181
-481.376	177.653	0.021	-0.031
-480.362	-104.066	0.039	-0.009
-479.347	-200.000	0.052	0.280
-478.332	-149.685	-0.373	0.029
-477.318	-118.948	0.093	0.016
-476.303	26.000	-0.028	-0.023
-475.289	-89.705	-0.184	-0.054
-474.274	-200.000	-0.031	0.351
-473.259	-200.000	0.027	0.173
-472.245	-200.000	0.041	-0.217
-471.230	515.705	-0.093	0.216
-470.216	448.903	-0.126	0.276
-469.201	29.642	0.221	0.188
-468.186	-200.000	0.001	0.230
-467.172	-23.280	-0.342	0.206
-466.157	-143.456	-0.223	0.021
-465.143	-24.924	-0.180	-0.107
-464.128	-20.035	-0.068	-0.042
-463.113	151.628	0.068	-0.093
-462.099	-129.581	0.170	0.024
-461.084	-200.000	0.015	-0.157
-460.070	-68.373	0.272	0.105
-459.055	-96.367	-0.252	-0.067
-458.040	84.766	0.259	-0.283
-457.026	-71.769	-0.247	-0.092
-456.011	-152.690	0.368	0.026
-454.997	-101.444	0.055	0.013
-453.982	800.000	0.061	0.221
-452.968	103.399	-0.178	0.209
-451.953	36.488	0.225	-0.198
-450.938	800.000	-0.065	0.227
-449.924	14.264	0.171	0.133
-448.909	625.895	-0.001	-0.003
-447.895	-118.032	0.041	0.007
-446.880	61.833	-0.064	0.064
-445.865	-65.616	0.266	-0.107
-444.851	-200.000	-0.002	-0.114
-443.836	-115.815	0.135	-0.025
-442.822	295.925	0.200	-0.365
-441.807	-65.294	-0.059	0.024
-440.792	-89.621	0.071	-0.021
-439.778	342.929	0.084	0.163
-438.763	-80.442	-0.312	0.104
-437.749	-92.906	-0.186	0.052
-436.734	-200.000	0.013	0.183
-435.719	-58.401	0.164	0.071
-434.705	146.698	-0.233	0.312
-433.690	-156.793	-0.310	0.019
-432.676	-110.243	-0.106	0.022
-431.661	-143.922	0.135	-0.013
-430.646	-29.962	0.287	-0.163
-429.632	373.526	0.067	-0.135
-428.617	-200.000	-0.304	-0.001
-427.603	-79.559	-0.221	0.075
-426.588	-55.828	-0.179	-0.080
-425.573	-99.555	-0.417	0.104
-424.559	88.729	0.105	0.117
-423.544	-95.282	-0.075	0.020
-422.530	361.215	0.069	-0.138
-421.515	-200.000	-0.059	0.259
-420.500	82.483	0.029	0.032
-419.486	-173.009	-0.157	0.005
-418.471	24.470	-0.138	-0.114
-417.457	37.420	0.186	0.164
-416.442	-83.006	-0.322	-0.103
-415.428	800.000	0.015	0.049
-414.413	5.656	0.171	-0.126
-413.398	124.005	0.044	0.055
-412.384	800.000	0.095	-0.362
-411.369	31.431	-0.179	0.153
-410.355	-200.000	-0.012	0.105
-409.340	800.000	-0.057	-0.196
-408.325	-200.000	0.001	-0.123
-407.311	114.220	0.298	0.362
-406.296	99.655	0.265	0.306
-405.282	-15.281	-0.193	0.123
-404.267	-200.000	0.015	-0.088
-403.252	800.000	0.014	-0.049
-402.238	5.674	0.227	-0.167
-401.223	-111.452	-0.218	-0.044
-400.209	-88.536	-0.354	-0.105
-399.194	-29.649	-0.138	-0.078
-398.179	110.470	0.166	-0.199
-397.165	-178.584	-0.229	0.005
-396.150	-200.000	0.027	0.157
-395.136	42.734	-0.201	-0.182
-394.121	377.276	-0.044	-0.090
-393.106	397.152	0.106	-0.220
-392.092	-200.000	0.012	-0.061
-391.077	-122.335	0.156	-0.025
-390.063	4.051	-0.129	-0.094
-389.048	-60.920	0.128	0.054
-388.033	0.860	-0.224	0.160
-387.019	-91.119	-0.151	-0.043
-386.004	-3.330	0.291	0.202
-384.990	12.441	0.055	0.042
-383.975	800.000	0.092	0.351
-382.960	152.357	-0.194	0.264
-381.946	547.083	-0.072	0.172
-380.931	-200.000	0.026	0.142
-379.917	-56.505	0.297	0.131
-378.902	296.225	-0.155	-0.283
-377.888	33.982	0.104	-0.090
-376.873	-64.891	0.276	-0.111
-375.858	443.119	-0.095	-0.208
-374.844	-118.368	-0.125	-0.022
-373.829	-170.839	0.318	-0.011
-372.815	-34.531	0.260	0.142
-371.800	800.000	-0.047	-0.174
-370.785	800.000	0.060	-0.183
-369.771	-117.547	0.418	0.075
-368.756	-200.000	-0.101	0.469
-367.742	-200.000	0.023	0.197
-366.727	45.811	-0.178	0.164
-365.712	-171.163	-0.247	0.008
-364.698	-71.648	0.246	-0.091
-363.683	-200.000	-0.044	-0.277
-362.669	43.241	0.098	-0.089
-361.654	-200.000	0.025	-0.137
-360.639	800.000	-0.084	0.323
-359.625	43.122	0.348	0.315
-358.610	415.497	-0.127	0.269
-357.596	-19.141	-0.273	-0.169
-356.581	-167.226	0.407	-0.016
-355.566	-91.236	0.200	-0.057
-354.552	-2.584	0.183	0.127
-353.537	780.589	-0.060	0.164
-352.523	-84.732	0.060	-0.019
-351.508	-80.524	-0.323	-0.107
-350.493	-89.440	0.300	0.088
-349.479	-29.892	0.151	0.085
-348.464	-200.000	-0.033	-0.305
-347.450	-29.343	0.136	0.077
-346.435	-139.515	0.248	0.026
-345.420	10.209	-0.038	0.029
-344.406	-200.000	0.026	0.298
-343.391	-92.356	0.259	0.073
-342.377	-112.020	-0.416	0.083
-341.362	-137.417	0.420	0.047
-340.348	-200.000	0.043	0.630
-339.333	331.931	0.071	0.136
-338.318	800.000	-0.042	-0.119
-337.304	-35.752	-0.342	-0.184
-336.289	-200.000	0.010	-0.186
-335.275	-73.157	0.217	-0.079
-334.260	-4.157	-0.331	-0.228
-333.245	-151.197	-0.295	-0.022
-332.231	67.815	-0.190	-0.193
-331.216	53.745	0.163	0.156
-330.202	27.212	0.124	0.104
-329.187	-107.134	-0.197	0.043
-328.172	275.325	0.068	-0.121
-327.158	-34.954	-0.127	-0.069
-326.143	-25.557	-0.163	0.096
-325.129	-61.672	0.241	-0.100
-324.114	-40.568	-0.157	-0.081
-323.099	-95.146	0.147	0.039
-322.085	74.788	-0.206	0.216
-321.070	-27.204	0.231	0.133
-320.056	-19.768	0.257	-0.157
-319.041	528.959	-0.017	0.040
-318.026	206.096	-0.106	0.164
-317.012	-71.292	-0.039	0.015
-315.997	-200.000	-0.030	0.518
-314.983	800.000	0.035	-0.122
-313.968	122.859	-0.020	0.025
-312.953	-52.244	-0.241	0.111
-311.939	351.967	-0.069	-0.136
-310.924	88.736	0.264	-0.291
-309.910	800.000	-0.078	0.243
-308.895	617.452	-0.078	0.195
-307.880	0.203	0.196	-0.139
-306.866	1.844	0.221	-0.158
-305.851	-85.117	-0.329	0.102
-304.837	-129.577	0.311	-0.043
-303.822	-34.705	-0.175	-0.095
-302.807	328.638	0.087	-0.166
-301.793	102.556	-0.061	-0.071
-300.778	-200.000	0.016	-0.242
-299.764	-200.000	0.015	0.265
-298.749	642.044	0.039	-0.098
-297.735	-190.676	0.245	0.003
-296.720	800.000	-0.064	-0.216
-295.705	635.469	-0.051	-0.128
-294.691	-115.659	-0.227	0.042
-293.676	352.560	-0.047	-0.093
-292.662	-175.815	-0.096	-0.003
-291.647	162.490	0.205	-0.286
-290.632	-167.562	0.288	0.011
-289.618	-200.000	0.296	0.001
-288.603	-200.000	-0.011	0.099
-287.589	321.462	0.094	-0.178
-286.574	-42.937	0.200	0.101
-285.559	-200.000	0.039	0.230
-284.545	800.000	-0.040	0.147
-283.530	-94.133	-0.161	-0.044
-282.516	218.902	0.071	0.112
-281.501	49.270	0.192	-0.179
-280.486	-38.719	-0.376	0.197
-279.472	-36.280	0.271	-0.145
-278.457	-80.070	-0.271	0.090
-277.443	43.263	0.042	-0.038
-276.428	-60.260	-0.205	0.086
-275.413	301.745	0.190	-0.348
-274.399	-55.493	0.271	-0.120
-273.384	-200.000	0.059	-0.270
-272.370	-94.393	0.271	0.073
-271.355	3.629	0.170	0.123
-270.340	-200.000	-0.029	-0.267
-269.326	63.358	0.092	-0.091
-268.311	747.368	-0.095	-0.254
-267.297	733.514	-0.069	-0.182
-266.282	380.766	0.086	-0.175
-265.267	-13.127	-0.154	0.099
-264.253	12.711	-0.275	0.211
-263.238	-65.303	0.252	0.100
-262.224	-164.221	-0.069	-0.003
-261.209	-200.000	0.019	0.287
-260.195	800.000	0.062	0.245
-259.180	738.031	0.100	0.266
-258.165	238.813	-0.082	-0.135
-257.151	800.000	0.062	0.226
-256.136	-59.311	0.247	0.105
-255.122	527.963	0.077	-0.180
-254.107	-24.418	-0.219	0.129
-253.092	356.126	-0.180	0.355
-252.078	-200.000	-0.000	0.113
-251.063	-200.000	0.066	-0.000
-250.049	800.000	-0.028	0.096
-249.034	166.615	-0.095	0.134
-248.019	-200.000	0.016	0.069
-247.005	800.000	0.022	-0.092
-245.990	-144.735	-0.085	-0.008
-244.976	60.368	0.211	-0.207
-243.961	-200.000	0.005	0.124
-242.946	33.690	-0.075	-0.064
-241.932	-96.046	-0.100	0.026
-240.917	-76.381	-0.270	-0.094
-239.903	-200.000	0.003	-0.034
-238.888	-75.818	-0.342	0.120
-237.873	52.186	-0.111	-0.105
-236.859	-122.449	-0.189	-0.030
-235.844	-153.875	-0.177	0.012
-234.830	800.000	-0.105	-0.385
-233.815	34.710	0.247	-0.214
-232.800	800.000	0.075	-0.301
-231.786	0.563	-0.232	-0.164
-230.771	100.616	0.262	0.302
-229.757	300.076	0.238	-0.434
-228.742	-37.965	-0.129	-0.068
-227.727	117.167	-0.069	-0.083
-226.713	-92.801	-0.381	0.105
-225.698	-200.000	-0.021	-0.146
-224.684	800.000	0.050	0.148
-223.669	-108.529	0.253	0.054
-222.655	-200.000	-0.016	-0.275
-221.640	185.730	0.091	0.134
-220.625	-97.217	-0.165	0.043
-219.611	-115.001	0.244	-0.046
-218.596	-200.000	0.022	-0.294
-217.582	800.000	0.098	0.288
-216.567	-140.161	0.269	0.028
-215.552	34.159	0.075	0.065
-214.538	9.923	0.212	0.159
-213.523	-177.163	-0.234	0.006
-212.509	800.000	0.057	-0.223
-211.494	-55.558	0.497	0.220
-210.479	220.340	0.119	0.188
-209.465	-200.000	0.000	-0.316
-208.450	211.329	-0.109	0.169
-207.436	-119.623	-0.066	0.011
-206.421	-79.027	0.164	-0.055
-205.406	175.362	-0.134	-0.192
-204.392	-200.000	-0.038	-0.205
-203.377	800.000	0.063	0.182
-202.363	541.814	0.113	0.265
-201.348	130.081	0.225	-0.284
-200.333	164.080	0.174	-0.242
-199.319	102.747	0.185	0.214
-198.304	-59.820	0.123	-0.052
-197.290	-200.000	0.001	-0.357
-196.275	-200.000	0.057	0.335
-195.260	58.081	-0.061	-0.059
-194.246	-82.119	0.148	-0.048
-193.231	-70.614	0.093	-0.035
-192.217	-121.596	0.100	0.016
-191.202	491.024	0.178	0.403
-190.187	-200.000	0.000	-0.072
-189.173	-200.000	0.004	0.243
-188.158	35.743	0.251	-0.218
-187.144	-18.128	0.191	0.118
-186.129	-200.000	0.011	0.141
-185.114	-64.916	-0.307	-0.122
-184.100	184.732	0.137	0.200
-183.085	-200.000	0.055	0.301
-182.071	-75.585	0.243	0.085
-181.056	16.936	0.190	0.148
-180.042	254.923	0.079	0.134
-179.027	-10.693	0.139	0.090
-178.012	256.936	0.046	-0.077
-176.998	-200.000	0.043	0.288
-175.983	19.631	-0.518	-0.412
-174.969	800.000	-0.056	-0.169
-173.954	106.801	0.164	-0.192
-172.939	40.662	0.138	-0.123
-171.925	800.000	-0.051	-0.195
-170.910	-15.649	0.265	-0.167
-169.896	-165.078	-0.117	0.005
-168.881	688.540	0.070	-0.182
-167.866	800.000	-0.123	-0.341
-166.852	-71.057	0.084	-0.031
-165.837	-4.723	0.249	0.170
-164.823	44.589	0.081	-0.073
-163.808	-45.407	-0.171	-0.084
-162.793	729.441	0.138	-0.365
-161.779	454.844	-0.123	0.270
-160.764	800.000	0.098	0.391
-159.750	-76.116	-0.128	0.044
-158.735	209.016	0.054	-0.084
-157.720	-45.136	-0.145	-0.071
-156.706	77.101	0.117	0.123
-155.691	-91.187	-0.221	0.063
-154.677	-96.474	-0.458	0.119
-153.662	15.725	0.194	0.151
-152.647	-200.000	0.023	0.254
-151.633	-200.000	0.012	-0.309
-150.618	72.423	-0.034	0.035
-149.604	11.974	0.161	0.122
-148.589	697.728	-0.104	-0.270
-147.574	9.471	-0.074	-0.056
-146.560	190.892	-0.259	-0.385
-145.545	800.000	-0.061	0.194
-144.531	50.472	0.118	0.110
-143.516	27.747	0.103	-0.086
-142.502	-113.730	0.177	0.034
-141.487	39.423	-0.135	0.119
-140.472	280.863	-0.072	0.128
-139.458	800.000	0.051	-0.192
-138.443	-81.154	-0.184	-0.060
-137.429	-144.457	0.113	0.010
-136.414	154.451	-0.098	-0.133
-135.399	-24.829	-0.249	0.146
-134.385	800.000	-0.063	-0.250
-133.370	498.166	-0.014	0.032
-132.356	-200.000	-0.011	0.073
-131.341	-118.070	0.254	-0.045
-130.326	-200.000	-0.022	0.361
-129.312	188.261	-0.030	0.044
-128.297	437.853	-0.180	-0.387
-127.283	-166.024	-0.401	-0.017
-126.268	-200.000	0.005	-0.278
-125.253	-15.949	0.238	-0.149
-124.239	-174.233	0.191	0.005
-123.224	33.782	0.152	-0.130
-122.210	-88.956	0.252	-0.073
-121.195	-70.438	0.306	-0.114
-120.180	332.852	0.017	0.033
-119.166	111.942	-0.083	-0.098
-118.151	800.000	-0.072	-0.311
-117.137	-200.000	-0.026	-0.265
-116.122	146.845	-0.115	-0.152
-115.107	-91.590	0.122	0.034
-114.093	-200.000	-0.018	0.123
-113.078	-147.400	-0.175	0.015
-112.064	-139.203	0.427	0.045
-111.049	61.213	-0.056	0.054
-110.034	52.384	0.134	-0.126
-109.020	119.900	0.154	-0.188
-108.005	800.000	-0.054	-0.179
-106.991	130.985	0.014	0.017
-105.976	-181.089	0.160	-0.003
-104.962	61.122	0.232	-0.226
-103.947	-33.271	0.061	0.033
-102.932	800.000	0.023	-0.086
-101.918	-30.569	0.390	0.218
-100.903	-123.939	-0.104	0.016
-99.889	800.000	-0.112	0.482
-98.874	800.000	-0.047	-0.129
-97.859	-103.639	0.056	-0.013
-96.845	-4.782	0.084	0.057
-95.830	749.454	0.082	-0.218
-94.816	-20.844	0.189	-0.114
-93.801	-130.207	0.280	-0.038
-92.786	-127.098	0.152	0.022
-91.772	-63.629	-0.208	0.084
-90.757	-150.181	-0.065	-0.005
-89.743	185.080	0.097	0.141
-88.728	259.046	0.146	0.248
-87.713	144.632	-0.079	0.104
-86.699	-128.432	0.377	-0.053
-85.684	-110.759	0.102	-0.021
-84.670	800.000	0.029	0.103
-83.655	-108.560	0.216	-0.046
-82.640	-61.356	-0.115	-0.048
-81.626	-89.760	0.169	-0.049
-80.611	125.153	0.033	-0.041
-79.597	23.447	-0.075	-0.060
-78.582	-59.798	0.138	0.058
-77.567	204.319	0.127	-0.194
-76.553	-37.798	-0.141	0.074
-75.538	-78.303	-0.199	0.067
-74.524	-81.401	0.136	-0.044
-73.509	-13.384	-0.071	0.045
-72.494	-67.862	-0.276	0.106
-71.480	341.392	-0.212	0.407
-70.465	-15.798	-0.125	-0.078
-69.451	375.128	0.117	-0.234
-68.436	37.115	-0.125	0.109
-67.422	-15.366	-0.180	0.113
-66.407	499.451	0.125	0.283
-65.392	-133.774	-0.270	0.033
-64.378	-200.000	0.275	0.001
-63.363	20.795	0.089	0.071
-62.349	293.249	0.131	0.235
-61.334	176.969	-0.777	-1.111
-60.319	-105.329	0.527	0.118
-59.305	-200.000	-0.167	-0.986
-58.290	127.059	0.877	1.093
-57.276	479.406	0.619	1.378
-56.261	-200.000	92.610	555.592
-55.246	509.605	1407.380	3214.708
-54.232	150.954	2625.894	3508.845
-53.217	104.353	2335.215	2700.646
-52.203	41.551	1951.371	1735.962
-51.188	35.304	1736.916	1496.559
-50.173	32.565	1692.297	1437.191
-49.159	49.928	1737.368	1609.891
-48.144	51.260	1753.254	1634.826
-47.130	34.877	1715.690	1474.741
-46.115	32.131	1701.590	1441.522
-45.100	32.022	1695.934	1435.842
-44.086	32.016	1693.147	1433.379
-43.071	31.987	1690.660	1430.996
-42.057	31.971	1688.221	1428.752
-41.042	31.995	1686.374	1427.313
-40.027	32.078	1683.973	1425.858
-39.013	31.936	1682.130	1423.160
-37.998	31.947	1680.990	1422.223
-36.984	31.956	1679.554	1421.025
-35.969	32.024	1678.362	1420.473
-34.954	32.054	1676.273	1418.874
-33.940	32.077	1674.462	1417.462
-32.925	32.047	1672.937	1415.884
-31.911	32.069	1671.149	1414.480
-30.896	32.042	1669.143	1412.526
-29.881	32.123	1667.442	1411.639
-28.867	32.095	1665.653	1409.855
-27.852	32.049	1664.174	1408.207
-26.838	32.147	1662.452	1407.424
-25.823	32.074	1661.248	1405.801
-24.809	32.004	1660.032	1404.196
-23.794	32.021	1658.542	1403.008
-22.779	32.037	1657.165	1401.901
-21.765	32.106	1655.257	1400.747
-20.750	32.088	1653.205	1398.822
-19.736	32.056	1652.072	1397.570
-18.721	32.175	1650.631	1397.180
-17.706	32.097	1649.700	1395.759
-16.692	32.148	1647.679	1394.375
-15.677	32.126	1646.230	1392.926
-14.663	32.118	1644.701	1391.519
-13.648	32.032	1643.869	1390.124
-12.633	32.059	1642.140	1388.805
-11.619	32.082	1640.499	1387.534
-10.604	32.029	1639.330	1386.097
-9.590	32.140	1637.669	1385.460
-8.575	32.141	1635.878	1383.896
-7.560	32.121	1635.204	1383.123
-6.546	32.094	1633.628	1381.535
-5.531	32.046	1632.701	1380.342
-4.517	32.149	1630.895	1379.519
-3.502	32.170	1630.176	1379.012
-2.487	32.133	1628.792	1377.511
-1.473	32.182	1617.536	1368.297
-0.458	29.875	1597.754	1334.890
0.556	25.092	1597.637	1299.500
1.571	22.158	1620.258	1296.180
2.586	20.746	1632.067	1295.010
3.600	18.041	1577.657	1232.247
4.615	10.152	1464.389	1090.674
5.629	2.677	1398.695	993.360
6.644	1.137	1390.124	977.268
7.659	1.096	1388.790	975.981
8.673	1.057	1387.968	975.065
9.688	0.970	1385.868	972.942
10.702	0.747	1382.956	969.384
11.717	3.962	1387.540	993.169
12.731	11.434	1399.949	1050.194
13.746	16.468	1406.168	1087.222
14.761	17.354	1407.068	1093.525
15.775	16.889	1404.456	1088.412
16.790	15.942	1401.936	1080.290
17.804	15.007	1399.934	1072.664
18.819	14.723	1398.455	1069.612
19.834	14.416	1396.965	1066.415
20.848	14.164	1395.702	1063.743
21.863	13.926	1394.350	1061.102
22.877	13.775	1392.754	1058.827
23.892	13.655	1392.250	1057.587
24.907	13.563	1391.548	1056.376
25.921	13.770	1390.107	1056.504
26.936	13.642	1389.521	1055.154
27.950	13.771	1388.114	1054.809
28.965	13.724	1387.614	1054.038
29.980	13.760	1386.372	1053.231
30.994	13.843	1385.344	1052.880
32.009	13.911	1384.331	1052.447
33.023	13.823	1383.418	1051.107
34.038	13.828	1381.905	1049.892
35.053	13.829	1380.890	1049.037
36.067	13.870	1379.939	1048.479
37.082	13.892	1378.428	1047.377
38.096	13.805	1378.246	1046.600
39.111	13.842	1377.057	1045.835
40.126	13.733	1375.964	1044.226
41.140	13.859	1375.126	1044.290
42.155	13.772	1375.012	1043.564
43.169	13.661	1375.314	1043.000
44.184	13.636	1374.697	1042.287
45.199	13.703	1374.192	1042.234
46.213	13.765	1373.509	1042.013
47.228	13.740	1372.793	1041.218
48.242	13.725	1371.541	1040.080
49.257	13.707	1369.920	1038.652
50.271	13.772	1368.104	1037.590
51.286	13.832	1366.858	1036.927
52.301	13.787	1365.806	1035.757
53.315	13.760	1365.065	1034.931
54.330	13.747	1363.872	1033.853
55.344	13.678	1362.681	1032.432
56.359	13.734	1361.735	1031.973
57.374	13.640	1360.994	1030.735
58.388	13.658	1360.177	1030.139
59.403	13.676	1359.711	1029.803
60.417	13.618	1358.987	1028.807
61.432	13.595	1358.323	1028.068
62.447	13.599	1357.072	1027.057
63.461	13.612	1355.647	1025.968
64.476	13.605	1354.828	1025.210
65.490	13.675	1353.161	1024.293
66.505	13.675	1351.456	1022.910
67.520	13.611	1350.597	1021.779
68.534	13.674	1349.344	1021.127
69.549	13.704	1348.258	1020.400
70.563	13.631	1347.210	1019.067
71.578	13.558	1345.945	1017.568
72.593	13.489	1345.332	1016.594
73.607	13.564	1344.443	1016.293
74.622	13.479	1343.550	1015.005
75.636	13.567	1342.897	1014.963
76.651	13.587	1341.932	1014.263
77.666	13.462	1342.100	1013.534
78.680	13.491	1340.996	1012.790
79.695	13.528	1339.893	1012.097
80.709	13.665	1338.885	1012.080
81.724	13.565	1338.331	1010.959
82.739	13.634	1337.027	1010.309
83.753	13.731	1335.436	1009.606
84.768	13.792	1335.007	1009.564
85.782	13.787	1333.571	1008.357
86.797	13.692	1332.626	1006.977
87.812	13.606	1331.851	1005.778
88.826	13.634	1330.780	1005.055
89.841	13.639	1329.396	1003.951
90.855	13.730	1327.989	1003.347
91.870	13.818	1327.403	1003.349
92.884	13.877	1326.307	1002.790
93.899	13.735	1325.876	1001.518
94.914	13.794	1324.921	1001.063
95.928	13.908	1323.813	1000.826
96.943	13.757	1323.461	999.556
97.957	13.735	1322.899	998.911
98.972	13.799	1321.338	998.029
99.987	13.783	1320.398	997.138
101.001	13.813	1319.234	996.353
102.016	13.755	1318.590	995.427
103.030	13.938	1317.314	995.471
104.045	13.819	1316.230	993.856
105.060	13.762	1315.266	992.693
106.074	13.706	1314.304	991.545
107.089	13.625	1312.957	989.957
108.103	13.665	1311.362	988.909
109.118	13.568	1310.485	987.583
110.133	13.613	1309.443	986.977
111.147	13.663	1307.509	985.730
112.162	13.683	1306.747	985.185
113.176	13.690	1305.364	984.096
114.191	13.773	1304.173	983.605
115.206	13.704	1302.905	982.152
116.220	13.768	1301.195	981.155
117.235	13.747	1300.288	980.258
118.249	13.694	1299.965	979.618
119.264	13.690	1298.476	978.387
120.279	13.698	1297.576	977.668
121.293	13.655	1296.105	976.221
122.308	13.725	1295.182	975.849
123.322	13.780	1293.903	975.124
124.337	13.776	1292.899	974.257
125.352	13.797	1291.191	973.009
126.366	13.644	1290.551	971.543
127.381	13.811	1289.530	971.666
128.395	13.663	1288.428	969.885
129.410	13.704	1287.304	969.189
130.424	13.659	1286.997	968.613
131.439	13.757	1285.709	968.130
132.454	13.765	1284.747	967.361
133.468	13.850	1284.199	967.361
134.483	13.761	1282.881	965.765
135.497	13.749	1281.786	964.787
136.512	13.744	1280.676	963.837
137.527	13.753	1279.705	963.073
138.541	13.718	1278.004	961.505
139.556	13.773	1276.307	960.462
140.570	13.893	1275.361	960.359
141.585	13.836	1274.096	958.989
142.600	13.916	1273.129	958.642
143.614	13.868	1272.241	957.609
144.629	13.839	1271.546	956.834
145.643	13.985	1269.838	956.304
146.658	13.842	1268.655	954.507
147.673	13.888	1267.420	953.755
148.687	13.777	1266.554	952.387
149.702	13.822	1264.976	951.372
150.716	13.791	1263.462	949.970
151.731	13.934	1261.745	949.413
152.746	13.948	1260.836	948.724
153.760	13.919	1259.870	947.748
154.775	14.019	1258.634	947.303
155.789	14.057	1257.388	946.501
156.804	14.108	1256.158	945.780
157.819	14.009	1255.382	944.551
158.833	14.067	1254.357	944.023
159.848	14.046	1253.318	943.040
160.862	14.081	1252.314	942.401
161.877	14.018	1251.387	941.262
162.892	13.977	1250.451	940.243
163.906	13.871	1249.779	939.056
164.921	14.059	1248.255	938.886
165.935	14.041	1247.597	938.211
166.950	14.028	1246.816	937.466
167.964	14.041	1246.179	936.979
168.979	14.062	1245.477	936.485
169.994	14.087	1245.050	936.223
171.008	14.096	1244.094	935.470
172.023	14.146	1243.164	934.971
173.037	14.093	1242.978	934.449
174.052	14.211	1241.112	933.624
175.067	14.111	1240.640	932.627
176.081	14.226	1239.090	932.025
177.096	14.122	1238.677	931.050
178.110	14.257	1237.109	930.543
179.125	14.114	1236.250	929.017
180.140	14.207	1235.114	928.595
181.154	14.228	1233.815	927.658
182.169	14.192	1232.448	926.344
183.183	14.368	1231.631	926.631
184.198	14.334	1230.059	925.176
185.213	14.202	1229.275	923.772
186.227	14.283	1228.450	923.520
187.242	14.401	1227.086	923.065
188.256	14.347	1225.671	921.620
189.271	14.342	1224.772	920.837
190.286	14.263	1224.351	920.002
191.300	14.247	1223.241	918.997
192.315	14.300	1222.325	918.517
193.329	14.251	1221.491	917.543
194.344	14.247	1221.315	917.307
195.359	14.322	1220.817	917.261
196.373	14.229	1220.048	916.092
197.388	14.368	1219.677	916.498
198.402	14.454	1218.814	916.241
199.417	14.584	1218.149	916.374
200.432	14.591	1217.107	915.550
201.446	14.607	1215.980	914.706
202.461	14.591	1215.355	914.065
203.475	14.619	1214.571	913.549
204.490	14.579	1213.247	912.256
205.504	14.489	1212.571	911.174
206.519	14.643	1210.988	910.746
207.534	14.620	1209.943	909.753
208.548	14.573	1208.740	908.510
209.563	14.531	1208.036	907.671
210.577	14.553	1207.219	907.097
211.592	14.567	1206.707	906.711
212.607	14.637	1205.443	906.059
213.621	14.635	1204.905	905.564
214.636	14.702	1203.797	905.013
215.650	14.710	1202.522	904.022
216.665	14.759	1201.676	903.566
217.680	14.763	1201.093	903.073
218.694	14.761	1199.914	902.093
219.709	14.807	1199.209	901.735
220.723	14.715	1198.637	900.727
221.738	14.779	1197.656	900.253
222.753	14.739	1197.138	899.574
223.767	14.775	1196.357	899.101
224.782	14.921	1195.533	899.184
225.796	14.886	1195.068	898.565
226.811	14.874	1194.580	898.054
227.826	14.821	1193.743	897.064
228.840	14.984	1192.755	897.117
229.855	14.976	1192.061	896.473
230.869	14.914	1191.361	895.531
231.884	14.931	1190.539	894.925
232.899	14.940	1189.569	894.166
233.913	14.767	1189.423	893.054
234.928	14.928	1187.906	892.697
235.942	14.893	1187.403	892.053
236.957	14.973	1186.675	891.853
237.972	14.921	1185.751	890.802
238.986	14.914	1184.931	890.072
240.001	14.901	1184.456	889.566
241.015	14.942	1183.672	889.113
242.030	15.020	1182.753	888.759
243.045	14.999	1182.192	888.146
244.059	15.031	1181.240	887.527
245.074	15.042	1180.758	887.140
246.088	15.047	1179.538	886.176
247.103	15.021	1178.896	885.477
248.117	15.114	1177.907	885.144
249.132	15.132	1177.543	884.887
250.147	15.182	1176.487	884.280
251.161	15.188	1175.655	883.609
252.176	15.243	1174.933	883.278
253.190	15.237	1174.878	883.125
254.205	15.217	1174.525	882.679
255.220	15.263	1173.229	881.866
256.234	15.378	1172.735	882.023
257.249	15.438	1171.898	881.630
258.263	15.432	1171.046	880.883
259.278	15.342	1170.506	879.926
260.293	15.397	1170.009	879.759
261.307	15.489	1169.290	879.626
262.322	15.535	1168.571	879.247
263.336	15.399	1167.913	877.963
264.351	15.505	1167.108	877.833
265.366	15.527	1166.739	877.593
266.380	15.520	1166.179	877.059
267.395	15.497	1165.271	876.175
268.409	15.527	1164.644	875.783
269.424	15.478	1163.779	874.804
270.439	15.633	1163.157	875.062
271.453	15.535	1162.601	874.059
272.468	15.540	1161.470	873.154
273.482	15.611	1160.572	872.775
274.497	15.587	1160.322	872.382
275.512	15.586	1159.405	871.611
276.526	15.669	1158.702	871.437
277.541	15.567	1158.035	870.327
278.555	15.745	1157.302	870.623
279.570	15.704	1156.896	870.028
280.585	15.741	1155.943	869.423
281.599	15.736	1154.744	868.420
282.614	15.787	1153.527	867.693
283.628	15.761	1153.024	867.100
284.643	15.779	1151.986	866.337
285.657	15.772	1151.219	865.647
286.672	15.732	1150.191	864.592
287.687	15.734	1149.411	863.942
288.701	15.758	1148.463	863.275
289.716	15.887	1147.522	863.152
290.730	15.871	1146.674	862.356
291.745	15.797	1146.460	861.741
292.760	15.921	1145.783	861.788
293.774	15.839	1145.281	860.915
294.789	15.872	1145.068	860.848
295.803	15.926	1144.080	860.307
296.818	15.950	1143.603	859.992
297.833	16.036	1142.283	859.364
298.847	15.997	1141.690	858.640
299.862	16.048	1140.350	857.819
300.876	16.027	1139.875	857.279
301.891	16.026	1139.357	856.807
302.906	16.081	1138.433	856.314
303.920	16.097	1137.737	855.798
304.935	16.144	1137.570	855.833
305.949	16.119	1136.506	854.831
306.964	16.245	1135.831	854.885
307.979	16.238	1134.957	854.116
308.993	16.128	1134.609	853.224
310.008	16.243	1133.493	852.893
311.022	16.249	1133.056	852.518
312.037	16.290	1131.471	851.457
313.052	16.314	1131.028	851.169
314.066	16.271	1129.807	849.955
315.081	16.180	1129.563	849.239
316.095	16.225	1128.739	848.772
317.110	16.310	1127.767	848.395
318.125	16.287	1126.989	847.618
319.139	16.336	1126.180	847.180
320.154	16.216	1125.734	846.169
321.168	16.242	1125.241	845.850
322.183	16.329	1124.637	845.759
323.197	16.407	1124.017	845.609
324.212	16.303	1123.447	844.586
325.227	16.265	1123.240	844.165
326.241	16.474	1121.642	843.933
327.256	16.340	1121.359	842.974
328.270	16.380	1120.401	842.382
329.285	16.356	1119.609	841.593
330.300	16.425	1118.016	840.664
331.314	16.360	1117.485	839.867
332.329	16.327	1116.797	839.111
333.343	16.320	1115.704	838.178
334.358	16.383	1114.791	837.730
335.373	16.350	1114.355	837.167
336.387	16.519	1113.484	837.277
337.402	16.531	1112.550	836.559
338.416	16.601	1111.909	836.351
339.431	16.492	1111.013	835.064
340.446	16.603	1110.455	835.119
341.460	16.741	1109.536	835.031
342.475	16.683	1108.802	834.121
343.489	16.641	1107.958	833.207
344.504	16.657	1107.288	832.708
345.519	16.777	1106.249	832.443
346.533	16.728	1105.134	831.286
347.548	16.669	1104.885	830.735
348.562	16.789	1104.220	830.752
349.577	16.763	1103.202	829.785
350.592	16.666	1102.749	828.897
351.606	16.783	1101.610	828.540
352.621	16.693	1101.172	827.696
353.635	16.709	1100.749	827.385
354.650	16.779	1099.592	826.783
355.665	16.669	1099.383	826.017
356.679	16.780	1098.767	826.022
357.694	16.787	1097.912	825.339
358.708	16.931	1097.165	825.405
359.723	16.965	1096.545	825.033
360.738	16.885	1095.817	824.020
361.752	16.873	1095.433	823.602
362.767	16.951	1095.143	823.690
363.781	16.946	1094.300	822.956
364.796	17.030	1093.268	822.516
365.810	16.973	1093.156	822.085
366.825	16.971	1092.520	821.523
367.840	17.023	1092.251	821.497
368.854	17.121	1091.537	821.362
369.869	17.134	1090.137	820.298
370.883	17.079	1089.383	819.395
371.898	17.023	1089.008	818.768
372.913	17.083	1088.299	818.452
373.927	17.085	1087.988	818.157
374.942	17.103	1087.654	817.918
375.956	17.176	1086.566	817.380
376.971	17.258	1085.754	817.093
377.986	17.175	1085.098	816.126
379.000	17.185	1085.247	816.217
380.015	17.285	1084.572	816.114
381.029	17.414	1083.592	815.927
382.044	17.380	1082.647	814.978
383.059	17.257	1082.306	814.060
384.073	17.264	1081.878	813.700
385.088	17.418	1080.213	813.112
386.102	17.364	1079.642	812.353
387.117	17.325	1078.887	811.524
388.132	17.319	1077.499	810.379
389.146	17.343	1076.603	809.748
390.161	17.398	1076.016	809.498
391.175	17.304	1075.547	808.624
392.190	17.443	1074.879	808.715
393.205	17.505	1074.026	808.293
394.219	17.436	1072.916	807.060
395.234	17.407	1072.385	806.452
396.248	17.455	1071.243	805.751
397.263	17.573	1070.220	805.467
398.278	17.403	1069.689	804.193
399.292	17.438	1069.184	803.908
400.307	17.386	1068.526	803.097
401.321	17.408	1067.801	802.585
402.336	17.516	1066.739	802.224
403.350	17.431	1066.578	801.632
404.365	17.487	1065.548	801.050
405.380	17.549	1064.998	800.854
406.394	17.619	1064.178	800.499
407.409	17.659	1063.445	800.064
408.423	17.605	1062.624	799.121
409.438	17.801	1061.727	799.295
410.453	17.791	1061.230	798.805
411.467	17.714	1060.357	797.716
412.482	17.730	1060.094	797.521
413.496	17.796	1059.121	797.024
414.511	17.798	1058.399	796.423
415.526	17.834	1058.036	796.247
416.540	17.810	1057.620	795.749
417.555	17.872	1057.212	795.661
418.569	17.876	1056.764	795.275
419.584	17.985	1055.935	795.085
420.599	17.853	1055.693	794.220
421.613	102.771	1321.134	1460.826
422.628	94.779	1359.794	1460.948
