DTS Sentinel unit serial number:	SN413079Multiplexer serial number:	ORYXHardware model number:	OX4-SRSoftware version number:	ORYX F/W v4.00 Oryx Data Collector v3.7.2.0data status	okinstallation	princeton_trtdifferential loss correction	single-endedforward channel	channel 2reverse channel	N/Adate	2019/09/15time	08:23:35forward acquisition time	60.00reverse acquisition time	0.00gamma	496.2192k internal	0.2324k external	0.2324temperature offset calibration	1.0024default loss term (dB/km)	0.3790temperature slope calibration	1.0000multiplexer offset coefficient	1.0000multiplexer slope coefficient	1.0000fibre end	0.00T internal ref (°C)	31.37T ext. ref 1 (°C)	4.99T ext. ref 2 (°C)	28.50length (m)	temperature (°C)	Stokes	anti-Stokes-747.200	15.077	-0.274	-0.217
-746.185	-91.588	0.266	0.077
-745.171	67.802	0.113	-0.117
-744.156	-36.107	-0.161	-0.088
-743.142	-200.000	-0.017	0.396
-742.127	-43.618	-0.407	0.207
-741.112	-129.008	0.327	0.046
-740.098	240.907	0.200	0.336
-739.083	76.805	0.199	-0.213
-738.069	75.045	0.014	0.015
-737.054	64.871	0.195	0.199
-736.039	-120.910	0.277	-0.047
-735.025	223.399	0.174	0.283
-734.010	-200.000	-0.042	-0.244
-732.996	-4.306	0.354	-0.247
-731.981	800.000	-0.128	-0.418
-730.966	30.750	-0.162	-0.140
-729.952	125.803	-0.120	-0.153
-728.937	650.416	-0.048	-0.124
-727.923	12.613	0.083	0.065
-726.908	93.860	-0.216	0.247
-725.894	-43.323	-0.204	-0.104
-724.879	94.852	-0.191	0.219
-723.864	-122.438	-0.098	-0.016
-722.850	-134.453	-0.361	-0.045
-721.835	665.510	-0.143	-0.372
-720.821	-76.403	-0.245	-0.087
-719.806	-200.000	0.034	0.202
-718.791	800.000	-0.072	0.218
-717.777	105.481	-0.198	0.236
-716.762	800.000	0.088	-0.263
-715.748	-119.143	0.275	0.048
-714.733	-48.724	-0.125	0.061
-713.718	-110.846	0.393	0.082
-712.704	63.342	-0.114	-0.115
-711.689	37.591	-0.218	-0.195
-710.675	-200.000	0.007	-0.189
-709.660	-200.000	0.034	-0.172
-708.645	-23.869	0.166	-0.100
-707.631	-200.000	0.008	0.038
-706.616	-200.000	-0.007	-0.053
-705.602	-98.400	-0.186	0.048
-704.587	489.034	0.037	-0.086
-703.572	298.571	-0.139	0.258
-702.558	94.027	-0.122	0.139
-701.543	197.250	0.206	-0.316
-700.529	800.000	-0.042	0.138
-699.514	-200.000	0.000	0.068
-698.499	-64.249	0.488	-0.200
-697.485	-200.000	-0.046	-0.367
-696.470	53.574	-0.118	-0.115
-695.456	-200.000	-0.051	-0.309
-694.441	104.687	-0.108	-0.128
-693.426	-200.000	-0.021	0.397
-692.412	691.972	-0.071	-0.186
-691.397	-183.585	0.232	-0.004
-690.383	61.704	0.020	-0.020
-689.368	-200.000	-0.065	0.299
-688.354	-83.338	0.086	-0.028
-687.339	109.629	0.012	-0.014
-686.324	26.115	0.079	-0.066
-685.310	-90.472	-0.068	-0.020
-684.295	318.423	0.131	-0.249
-683.281	-55.144	0.090	-0.041
-682.266	339.371	-0.112	0.221
-681.251	131.689	-0.231	-0.299
-680.237	-53.992	0.432	-0.198
-679.222	-103.411	-0.165	0.039
-678.208	62.547	-0.088	0.089
-677.193	-200.000	0.001	-0.235
-676.178	41.622	0.354	-0.323
-675.164	800.000	0.026	0.095
-674.149	39.983	0.114	0.103
-673.135	-4.088	0.203	0.142
-672.120	84.260	-0.100	-0.110
-671.105	44.949	-0.116	-0.107
-670.091	7.393	-0.170	-0.128
-669.076	65.725	0.120	0.123
-668.062	-200.000	0.032	-0.284
-667.047	38.359	-0.331	0.297
-666.032	-17.400	-0.283	0.180
-665.018	-200.000	-0.008	-0.278
-664.003	-0.780	-0.082	0.058
-662.989	-94.401	-0.291	-0.080
-661.974	118.392	0.102	0.127
-660.959	-106.377	-0.401	-0.090
-659.945	800.000	-0.127	-0.425
-658.930	-200.000	0.025	-0.112
-657.916	-1.254	-0.225	0.160
-656.901	138.390	0.070	0.092
-655.886	35.146	-0.129	0.114
-654.872	500.605	0.129	-0.300
-653.857	367.057	0.080	-0.163
-652.843	-200.000	0.037	0.178
-651.828	-31.473	-0.168	-0.095
-650.814	800.000	0.129	-0.426
-649.799	196.674	-0.145	-0.223
-648.784	153.001	-0.111	0.153
-647.770	-21.969	0.184	0.113
-646.755	4.837	-0.114	-0.085
-645.741	-101.850	0.281	-0.068
-644.726	-200.000	0.001	-0.050
-643.711	85.635	-0.060	0.067
-642.697	46.991	-0.069	-0.064
-641.682	-28.988	0.255	-0.147
-640.668	140.810	-0.185	-0.246
-639.653	800.000	0.053	0.206
-638.638	-170.401	0.181	0.006
-637.624	27.613	0.229	-0.194
-636.609	87.653	-0.152	0.169
-635.595	265.354	-0.109	0.191
-634.580	800.000	0.042	-0.128
-633.565	23.160	-0.200	0.165
-632.551	-139.490	0.149	0.016
-631.536	691.281	-0.074	0.194
-630.522	-136.727	0.205	0.024
-629.507	289.756	-0.132	-0.241
-628.492	218.186	-0.037	-0.059
-627.478	800.000	0.021	0.061
-626.463	-40.557	-0.205	-0.107
-625.449	-200.000	0.010	-0.102
-624.434	-23.561	-0.206	-0.124
-623.419	109.598	0.074	0.089
-622.405	203.909	-0.309	0.480
-621.390	800.000	0.026	-0.088
-620.376	-90.822	-0.148	0.043
-619.361	-121.962	-0.133	-0.022
-618.346	81.371	0.089	-0.096
-617.332	-44.409	-0.215	0.108
-616.317	24.236	-0.158	0.131
-615.303	-100.052	0.148	0.037
-614.288	8.445	-0.194	0.147
-613.273	16.334	0.212	-0.168
-612.259	43.387	0.095	0.087
-611.244	800.000	-0.066	0.263
-610.230	-51.040	-0.232	0.109
-609.215	-131.087	-0.320	0.043
-608.201	800.000	-0.089	0.374
-607.186	-200.000	-0.037	-0.202
-606.171	-200.000	-0.025	-0.301
-605.157	-67.832	-0.246	0.096
-604.142	178.000	0.166	-0.243
-603.128	-136.801	-0.329	-0.038
-602.113	-103.956	0.260	-0.061
-601.098	-133.991	-0.206	0.026
-600.084	800.000	-0.030	-0.097
-599.069	-55.965	0.052	0.023
-598.055	-17.473	0.261	-0.165
-597.040	-22.569	0.097	0.059
-596.025	800.000	-0.014	-0.040
-595.011	-51.316	-0.130	-0.061
-593.996	800.000	-0.069	-0.246
-592.982	-200.000	0.008	-0.072
-591.967	150.674	0.213	0.291
-590.952	800.000	-0.048	-0.148
-589.938	-45.495	-0.082	0.041
-588.923	784.814	0.052	-0.143
-587.909	780.148	0.073	-0.200
-586.894	234.986	-0.056	-0.093
-585.879	-200.000	-0.034	0.205
-584.865	506.945	-0.091	0.211
-583.850	-54.806	-0.274	-0.124
-582.836	-42.604	-0.178	-0.091
-581.821	800.000	0.006	0.025
-580.806	-159.836	0.058	0.003
-579.792	-200.000	0.039	-0.199
-578.777	800.000	-0.065	0.233
-577.763	177.020	0.025	-0.036
-576.748	-13.888	-0.112	0.073
-575.733	-104.179	-0.235	0.055
-574.719	493.185	0.087	-0.201
-573.704	-53.842	0.238	0.109
-572.690	651.715	-0.105	0.271
-571.675	-53.711	0.058	-0.026
-570.661	32.158	0.195	0.168
-569.646	800.000	-0.084	-0.233
-568.631	156.732	0.057	0.079
-567.617	-200.000	0.005	-0.030
-566.602	-146.050	0.282	-0.025
-565.588	152.166	0.075	0.103
-564.573	135.491	-0.148	-0.193
-563.558	-200.000	0.001	-0.040
-562.544	-200.000	0.018	0.115
-561.529	83.975	-0.122	0.134
-560.515	310.324	-0.045	-0.084
-559.500	-200.000	-0.019	0.163
-558.485	-37.961	0.141	-0.075
-557.471	457.655	-0.156	-0.348
-556.456	800.000	-0.056	-0.234
-555.442	-200.000	0.033	0.166
-554.427	-27.104	-0.211	-0.123
-553.412	2.847	0.113	-0.082
-552.398	86.289	-0.199	0.220
-551.383	-200.000	-0.003	0.278
-550.369	229.991	-0.078	-0.128
-549.354	-19.881	0.350	0.216
-548.339	28.852	0.087	-0.074
-547.325	-143.666	-0.200	-0.019
-546.310	-138.577	-0.153	-0.017
-545.296	-94.837	-0.250	0.068
-544.281	295.300	0.102	0.186
-543.266	-79.938	-0.107	0.036
-542.252	800.000	0.075	0.314
-541.237	85.987	0.098	-0.108
-540.223	-200.000	0.011	0.098
-539.208	-200.000	-0.012	0.110
-538.193	-200.000	-0.015	-0.076
-537.179	392.619	0.123	-0.257
-536.164	-75.459	0.041	-0.015
-535.150	800.000	-0.026	-0.086
-534.135	62.784	-0.348	-0.349
-533.121	-200.000	-0.046	-0.301
-532.106	-174.610	-0.164	0.005
-531.091	-15.749	-0.121	-0.077
-530.077	-200.000	-0.046	-0.356
-529.062	800.000	0.025	0.079
-528.048	-200.000	-0.004	0.120
-527.033	-27.958	-0.157	-0.091
-526.018	311.762	-0.199	0.373
-525.004	800.000	0.083	0.292
-523.989	11.072	0.112	-0.085
-522.975	522.293	-0.064	0.150
-521.960	-133.706	-0.325	0.041
-520.945	504.265	0.149	0.345
-519.931	-122.257	0.164	-0.027
-518.916	-70.715	-0.373	0.141
-517.902	-32.720	0.136	-0.076
-516.887	-76.201	0.088	0.031
-515.872	-30.112	-0.077	0.044
-514.858	202.238	0.196	0.303
-513.843	490.358	0.105	-0.239
-512.829	-200.000	0.010	0.467
-511.814	800.000	-0.032	0.089
-510.799	195.239	-0.314	-0.478
-509.785	-70.683	0.102	0.038
-508.770	-57.379	-0.198	-0.087
-507.756	800.000	-0.098	0.320
-506.741	-200.000	0.003	0.232
-505.726	44.415	-0.036	-0.033
-504.712	449.838	0.175	-0.385
-503.697	155.073	0.085	-0.117
-502.683	425.667	-0.189	-0.407
-501.668	-104.149	-0.200	-0.046
-500.653	366.206	0.076	-0.153
-499.639	-59.289	0.462	-0.199
-498.624	789.655	0.056	0.154
-497.610	-200.000	0.033	-0.166
-496.595	111.596	-0.201	0.242
-495.581	69.025	-0.069	0.071
-494.566	-66.114	0.313	-0.125
-493.551	-65.333	0.335	-0.135
-492.537	-18.613	-0.046	-0.028
-491.522	-0.724	-0.179	0.127
-490.508	-19.012	-0.089	-0.055
-489.493	262.321	-0.086	0.150
-488.478	-72.035	-0.152	-0.057
-487.464	-138.021	0.278	0.031
-486.449	14.482	-0.096	0.075
-485.435	-51.974	-0.461	-0.214
-484.420	-200.000	-0.034	-0.275
-483.405	-35.775	-0.130	0.070
-482.391	241.985	0.236	-0.394
-481.376	-19.633	-0.213	0.131
-480.362	-141.223	0.370	-0.038
-479.347	18.689	0.308	-0.246
-478.332	176.678	-0.026	0.037
-477.318	-46.540	-0.149	-0.073
-476.303	-63.859	-0.312	-0.128
-475.289	800.000	0.014	-0.051
-474.274	-112.871	-0.165	0.033
-473.259	-43.084	0.073	0.037
-472.245	-133.034	-0.537	0.068
-471.230	800.000	-0.067	-0.222
-470.216	13.107	0.311	-0.240
-469.201	131.849	-0.131	-0.168
-468.186	94.103	0.184	-0.209
-467.172	-62.064	0.172	-0.072
-466.157	-58.379	-0.251	-0.109
-465.143	-200.000	-0.031	-0.353
-464.128	-136.957	-0.041	0.005
-463.113	-166.124	0.250	-0.011
-462.099	800.000	-0.013	-0.037
-461.084	-173.710	-0.181	-0.005
-460.070	91.289	-0.099	0.111
-459.055	-103.808	0.188	0.044
-458.040	-102.848	0.144	0.034
-457.026	51.273	0.179	0.170
-456.011	-75.559	-0.051	-0.018
-454.997	-89.624	0.329	-0.096
-453.982	-200.000	0.032	-0.220
-452.968	660.509	0.096	0.248
-451.953	-60.721	-0.161	-0.068
-450.938	29.553	0.220	0.187
-449.924	-7.899	-0.197	0.132
-448.909	593.906	0.063	-0.156
-447.895	65.227	0.135	0.137
-446.880	-98.007	0.152	0.039
-445.865	-87.058	-0.258	0.078
-444.851	-200.000	0.016	0.128
-443.836	-200.000	0.005	0.116
-442.822	-99.048	0.272	-0.069
-441.807	-142.391	0.220	0.022
-440.792	-64.194	-0.228	0.093
-439.778	153.406	-0.209	0.286
-438.763	-68.855	0.230	-0.089
-437.749	78.267	-0.153	-0.163
-436.734	132.842	0.175	0.226
-435.719	-200.000	-0.027	0.225
-434.705	800.000	0.073	-0.245
-433.690	62.397	0.248	0.247
-432.676	26.969	0.197	0.165
-431.661	-200.000	0.075	-0.333
-430.646	21.905	0.092	-0.075
-429.632	536.547	0.164	-0.388
-428.617	4.774	-0.158	0.116
-427.603	170.726	0.218	0.312
-426.588	-10.346	-0.320	-0.211
-425.573	-122.849	0.054	-0.009
-424.559	240.650	-0.086	-0.143
-423.544	-24.311	0.057	-0.034
-422.530	-83.568	-0.288	-0.092
-421.515	386.155	0.059	0.122
-420.500	421.714	-0.107	-0.228
-419.486	112.521	0.090	-0.109
-418.471	285.914	0.077	-0.139
-417.457	-31.152	0.034	0.019
-416.442	-51.072	-0.103	-0.048
-415.428	-200.000	-0.014	-0.111
-414.413	183.378	-0.172	0.253
-413.398	8.962	0.228	0.171
-412.384	-200.000	0.021	-0.156
-411.369	-77.127	0.312	0.108
-410.355	-72.557	0.307	-0.113
-409.340	89.084	-0.137	-0.152
-408.325	-66.277	-0.385	0.153
-407.311	123.625	0.362	0.453
-406.296	128.017	-0.074	-0.093
-405.282	-88.712	-0.110	-0.033
-404.267	180.981	-0.123	0.181
-403.252	-36.720	0.072	0.038
-402.238	-195.402	-0.350	-0.003
-401.223	-52.382	0.258	-0.119
-400.209	94.278	-0.212	0.239
-399.194	333.881	-0.132	-0.254
-398.179	256.249	0.081	0.139
-397.165	698.353	0.045	0.119
-396.150	-44.205	-0.245	0.122
-395.136	-154.121	0.191	-0.013
-394.121	-124.259	0.135	-0.021
-393.106	-29.799	-0.143	0.081
-392.092	-102.813	0.304	-0.072
-391.077	-139.827	0.157	0.017
-390.063	90.779	-0.129	0.144
-389.048	-54.040	0.243	0.110
-388.033	-189.833	-0.202	-0.002
-387.019	-35.329	-0.127	-0.069
-386.004	-14.562	-0.021	0.013
-384.990	103.618	-0.229	-0.267
-383.975	15.915	-0.276	0.216
-382.960	-200.000	0.018	0.120
-381.946	378.206	-0.136	0.277
-380.931	-73.473	-0.188	-0.068
-379.917	529.218	-0.022	0.051
-378.902	250.942	-0.134	-0.227
-377.888	-55.446	0.312	0.139
-376.873	-200.000	-0.001	0.216
-375.858	-114.929	0.182	0.034
-374.844	208.344	0.237	-0.369
-373.829	-200.000	-0.071	-0.348
-372.815	63.861	-0.147	0.147
-371.800	-100.947	0.139	-0.034
-370.785	-200.000	-0.013	0.098
-369.771	-34.591	0.230	0.125
-368.756	29.816	-0.388	0.328
-367.742	-200.000	0.019	-0.085
-366.727	-187.483	0.224	-0.003
-365.712	126.492	-0.151	-0.190
-364.698	82.026	-0.088	0.094
-363.683	-40.807	0.250	0.129
-362.669	800.000	0.085	0.341
-361.654	60.347	-0.173	-0.170
-360.639	152.567	-0.081	-0.110
-359.625	800.000	0.118	0.417
-358.610	-44.103	-0.205	0.102
-357.596	-22.476	0.166	0.100
-356.581	800.000	0.032	-0.127
-355.566	205.838	-0.197	0.305
-354.552	-10.782	-0.146	-0.096
-353.537	-138.543	-0.350	-0.038
-352.523	-82.518	0.344	0.111
-351.508	316.659	-0.066	0.124
-350.493	-200.000	-0.012	-0.090
-349.479	218.211	-0.159	0.252
-348.464	800.000	-0.045	-0.147
-347.450	-144.911	0.210	0.019
-346.435	2.303	-0.124	0.089
-345.420	581.220	-0.085	-0.207
-344.406	-116.096	-0.191	-0.035
-343.391	-88.851	-0.244	-0.072
-342.377	-41.896	-0.054	0.028
-341.362	-98.608	-0.089	-0.022
-340.348	-200.000	-0.032	0.154
-339.333	24.096	-0.305	-0.250
-338.318	87.163	0.066	0.073
-337.304	-22.547	0.244	-0.146
-336.289	-107.928	0.319	0.069
-335.275	316.160	0.117	-0.220
-334.260	526.587	-0.158	0.369
-333.245	-38.427	-0.065	0.034
-332.231	800.000	-0.037	-0.108
-331.216	72.204	-0.136	-0.140
-330.202	-200.000	0.038	0.183
-329.187	-55.503	-0.158	-0.071
-328.172	-112.652	-0.098	-0.019
-327.158	-200.000	-0.006	0.033
-326.143	225.282	0.155	-0.249
-325.129	239.389	0.062	-0.103
-324.114	11.736	0.258	-0.197
-323.099	-74.157	-0.157	0.056
-322.085	-43.742	-0.017	-0.008
-321.070	-132.416	0.110	0.014
-320.056	511.623	0.048	-0.111
-319.041	116.147	-0.103	-0.125
-318.026	788.369	-0.021	-0.056
-317.012	679.826	0.071	0.185
-315.997	543.668	-0.045	0.105
-314.983	-2.370	-0.079	0.055
-313.968	-121.464	0.102	-0.017
-312.953	-200.000	-0.004	0.119
-311.939	64.802	0.190	0.190
-310.924	175.826	0.161	-0.232
-309.910	-200.000	0.047	-0.217
-308.895	175.343	0.371	-0.533
-307.880	-200.000	-0.001	-0.278
-306.866	363.033	-0.051	0.101
-305.851	-39.905	0.119	0.062
-304.837	187.119	0.222	-0.328
-303.822	-200.000	-0.010	0.044
-302.807	164.004	-0.164	-0.229
-301.793	33.639	0.068	0.059
-300.778	-121.489	0.215	0.036
-299.764	-200.000	-0.017	-0.149
-298.749	-86.260	0.263	0.080
-297.735	55.665	0.103	0.099
-296.720	-79.634	-0.194	0.065
-295.705	22.488	-0.072	0.059
-294.691	-27.906	0.197	0.113
-293.676	-200.000	0.013	0.094
-292.662	-2.259	0.234	-0.163
-291.647	800.000	-0.106	-0.331
-290.632	96.835	0.057	-0.065
-289.618	456.735	-0.009	-0.019
-288.603	-109.587	0.192	-0.040
-287.589	-32.386	-0.213	-0.118
-286.574	-62.527	0.265	0.109
-285.559	59.825	0.258	-0.253
-284.545	15.754	-0.315	-0.245
-283.530	-71.458	0.094	0.035
-282.516	441.388	-0.154	-0.334
-281.501	232.640	0.078	-0.127
-280.486	-81.481	0.421	-0.137
-279.472	-134.443	0.360	-0.044
-278.457	664.919	-0.067	0.172
-277.443	800.000	0.083	0.282
-276.428	303.665	0.080	0.146
-275.413	-122.329	-0.230	-0.037
-274.399	-188.414	-0.031	0.000
-273.384	60.812	0.230	-0.226
-272.370	163.346	0.116	0.162
-271.355	247.350	-0.128	-0.214
-270.340	433.952	-0.040	0.085
-269.326	-72.251	0.120	-0.044
-268.311	-71.247	-0.224	0.083
-267.297	77.379	0.138	-0.145
-266.282	-200.000	-0.040	-0.255
-265.267	98.246	-0.109	-0.125
-264.253	-143.853	-0.242	-0.023
-263.238	-58.423	-0.196	0.085
-262.224	-106.945	0.251	0.055
-261.209	104.402	-0.112	0.130
-260.195	119.219	0.156	0.191
-259.180	-127.969	0.473	0.067
-258.165	-200.000	-0.021	0.264
-257.151	-109.890	-0.076	0.016
-256.136	-200.000	0.008	0.063
-255.122	-62.364	0.367	0.151
-254.107	-27.590	-0.353	-0.203
-253.092	20.187	-0.082	-0.066
-252.078	214.251	-0.062	0.097
-251.063	-200.000	-0.021	0.140
-250.049	-29.358	0.202	-0.115
-249.034	-18.113	0.083	0.052
-248.019	-111.727	0.264	-0.053
-247.005	-51.631	-0.178	-0.082
-245.990	127.358	0.093	0.117
-244.976	-200.000	-0.003	-0.021
-243.961	15.975	-0.091	-0.071
-242.946	800.000	-0.016	0.049
-241.932	222.005	-0.174	-0.277
-240.917	-136.769	0.360	-0.041
-239.903	-132.944	0.259	0.033
-238.888	164.682	0.051	0.072
-237.873	6.884	-0.102	0.075
-236.859	82.217	0.014	0.015
-235.844	133.514	0.126	-0.162
-234.830	365.311	-0.087	-0.174
-233.815	-120.557	-0.209	-0.035
-232.800	-32.706	-0.308	0.170
-231.786	-200.000	-0.071	0.327
-230.771	-83.222	-0.237	-0.075
-229.757	-70.009	0.322	-0.121
-228.742	-3.603	-0.180	0.124
-227.727	43.499	0.186	-0.168
-226.713	800.000	0.050	0.175
-225.698	-48.095	0.362	0.173
-224.684	132.752	-0.284	0.362
-223.669	140.844	0.268	0.351
-222.655	12.215	-0.157	0.119
-221.640	-179.100	-0.137	-0.003
-220.625	196.214	-0.053	-0.079
-219.611	122.403	-0.108	-0.134
-218.596	604.759	-0.099	0.243
-217.582	226.330	0.176	0.282
-216.567	-200.000	-0.022	-0.133
-215.552	-61.025	-0.145	0.060
-214.538	-43.961	-0.157	0.078
-213.523	800.000	0.050	0.188
-212.509	800.000	0.060	-0.206
-211.494	-107.829	0.186	0.040
-210.479	476.099	0.169	0.377
-209.465	11.099	0.059	0.044
-208.450	648.185	0.144	-0.364
-207.436	99.341	-0.172	-0.196
-206.421	42.123	-0.077	-0.069
-205.406	8.281	-0.241	0.179
-204.392	800.000	0.027	-0.105
-203.377	800.000	0.004	-0.012
-202.363	607.703	0.093	0.230
-201.348	-200.000	-0.032	0.254
-200.333	-200.000	0.016	-0.116
-199.319	800.000	-0.110	-0.353
-198.304	-86.060	0.349	-0.106
-197.290	-200.000	-0.006	0.239
-196.275	-56.849	0.240	0.105
-195.260	0.083	-0.133	0.094
-194.246	242.564	0.049	0.081
-193.231	800.000	-0.070	0.257
-192.217	-200.000	-0.010	0.142
-191.202	-141.934	0.214	0.021
-190.187	800.000	-0.055	0.193
-189.173	-86.448	-0.359	0.109
-188.158	800.000	-0.058	-0.168
-187.144	-200.000	0.012	0.134
-186.129	150.576	0.084	0.113
-185.114	281.755	0.014	0.024
-184.100	36.333	0.077	0.067
-183.085	800.000	-0.024	-0.070
-182.071	-200.000	-0.063	-0.298
-181.056	-69.983	-0.020	-0.007
-180.042	676.550	-0.066	-0.170
-179.027	-200.000	0.008	-0.050
-178.012	-141.186	0.078	-0.008
-176.998	282.242	-0.146	-0.258
-175.983	164.234	-0.168	0.234
-174.969	15.913	-0.191	-0.148
-173.954	-135.956	0.193	0.022
-172.939	-68.707	0.348	0.133
-171.925	-200.000	-0.020	-0.160
-170.910	-200.000	-0.030	-0.163
-169.896	57.144	-0.127	-0.123
-168.881	58.525	-0.182	0.176
-167.866	-27.257	0.176	0.101
-166.852	800.000	0.094	0.343
-165.837	-200.000	-0.012	-0.095
-164.823	26.018	0.343	0.283
-163.808	396.532	-0.014	-0.030
-162.793	189.954	0.074	-0.110
-161.779	-155.085	-0.381	0.025
-160.764	283.354	0.069	-0.122
-159.750	280.976	-0.106	0.187
-158.735	536.659	-0.123	-0.289
-157.720	-100.335	0.100	0.024
-156.706	459.976	0.056	0.123
-155.691	-68.984	-0.188	-0.072
-154.677	-59.581	0.208	0.088
-153.662	141.560	0.184	0.240
-152.647	34.436	0.123	-0.106
-151.633	-166.427	0.309	-0.013
-150.618	800.000	0.058	0.201
-149.604	-39.807	-0.324	0.167
-148.589	93.185	-0.159	0.178
-147.574	-200.000	-0.041	0.359
-146.560	-200.000	0.005	0.153
-145.545	67.736	-0.323	0.326
-144.531	124.438	0.105	0.130
-143.516	468.908	0.180	-0.398
-142.502	-88.469	0.239	0.070
-141.487	-1.030	-0.122	-0.085
-140.472	-200.000	-0.081	-0.479
-139.458	-173.818	0.168	-0.005
-138.443	800.000	0.027	0.104
-137.429	-200.000	-0.010	0.389
-136.414	28.829	0.074	-0.062
-135.399	-35.049	-0.411	-0.221
-134.385	-107.716	0.308	0.066
-133.370	408.279	-0.117	0.243
-132.356	60.831	-0.140	0.137
-131.341	-103.288	-0.069	0.016
-130.326	69.654	-0.072	-0.073
-129.312	112.915	0.072	-0.086
-128.297	-58.421	0.211	0.091
-127.283	-84.961	-0.418	0.129
-126.268	-18.183	-0.283	-0.174
-125.253	383.039	-0.099	0.201
-124.239	192.296	0.230	0.342
-123.224	-64.458	0.061	0.024
-122.210	252.317	-0.143	-0.240
-121.195	-41.207	0.147	-0.075
-120.180	260.286	-0.214	-0.364
-119.166	65.635	0.062	0.062
-118.151	8.047	0.168	0.125
-117.137	-200.000	-0.022	0.113
-116.122	-108.721	-0.215	-0.045
-115.107	-200.000	0.009	0.152
-114.093	98.489	0.201	-0.228
-113.078	-39.035	0.148	-0.077
-112.064	311.211	0.129	-0.239
-111.049	-136.518	0.200	0.023
-110.034	-200.000	0.055	-0.521
-109.020	203.212	0.189	0.288
-108.005	-67.202	0.297	-0.115
-106.991	-42.712	0.198	-0.099
-105.976	-137.249	-0.108	-0.012
-104.962	800.000	-0.030	0.105
-103.947	-87.374	0.242	-0.072
-102.932	-123.956	-0.095	-0.015
-101.918	-90.372	-0.356	-0.102
-100.903	45.155	-0.144	0.131
-99.889	-38.922	0.092	-0.048
-98.874	800.000	-0.031	-0.098
-97.859	202.061	-0.151	0.228
-96.845	-38.533	0.316	-0.165
-95.830	19.087	-0.236	0.186
-94.816	613.573	0.096	0.237
-93.801	-38.923	-0.048	-0.025
-92.786	-47.696	0.251	0.120
-91.772	-200.000	-0.009	0.126
-90.757	-200.000	-0.041	0.420
-89.743	-162.125	0.250	-0.012
-88.728	800.000	0.071	-0.218
-87.713	-77.805	0.337	0.115
-86.699	9.071	-0.198	-0.147
-85.684	-200.000	-0.043	0.195
-84.670	312.560	0.118	0.219
-83.655	-21.537	0.007	-0.004
-82.640	-96.331	0.259	0.067
-81.626	-162.959	-0.179	0.009
-80.611	-73.354	0.271	0.097
-79.597	291.009	-0.168	0.301
-78.582	-200.000	0.064	0.356
-77.567	-94.863	0.195	0.052
-76.553	-56.913	0.304	-0.132
-75.538	800.000	-0.098	0.341
-74.524	-21.615	0.128	-0.077
-73.509	-149.186	0.229	-0.018
-72.494	-109.004	-0.301	0.063
-71.480	-91.890	-0.259	-0.072
-70.465	362.593	0.117	-0.231
-69.451	-73.296	-0.247	0.089
-68.436	-163.585	0.306	0.014
-67.422	114.426	-0.116	-0.139
-66.407	-99.930	0.270	-0.066
-65.392	-59.444	0.165	0.070
-64.378	-20.889	0.237	0.143
-63.363	354.112	0.096	-0.186
-62.349	-143.259	0.361	-0.034
-61.334	255.675	-0.644	-1.085
-60.319	-59.882	0.572	0.240
-59.305	800.000	-0.360	-1.261
-58.290	800.000	0.450	1.255
-57.276	255.385	0.881	1.484
-56.261	-200.000	96.849	602.500
-55.246	646.760	1385.786	3478.807
-54.232	194.754	2575.441	3839.370
-53.217	112.664	2278.882	2710.918
-52.203	40.907	1902.157	1686.543
-51.188	34.614	1691.360	1451.911
-50.173	31.956	1647.225	1394.248
-49.159	50.302	1693.622	1571.981
-48.144	51.625	1709.514	1596.620
-47.130	34.351	1670.705	1431.974
-46.115	31.521	1656.356	1398.502
-45.100	31.377	1651.499	1393.269
-44.086	31.274	1649.169	1390.484
-43.071	31.222	1646.764	1388.016
-42.057	31.200	1644.202	1385.633
-41.042	31.269	1641.899	1384.153
-40.027	31.289	1640.351	1382.942
-39.013	31.295	1638.228	1381.135
-37.998	31.182	1636.661	1378.932
-36.984	31.258	1635.300	1378.289
-35.969	31.438	1633.808	1378.306
-34.954	31.395	1632.247	1376.611
-33.940	31.333	1630.821	1374.901
-32.925	31.401	1629.192	1373.971
-31.911	31.340	1627.522	1372.060
-30.896	31.288	1625.801	1370.177
-29.881	31.381	1623.361	1368.747
-28.867	31.330	1622.432	1367.533
-27.852	31.291	1620.732	1365.763
-26.838	31.335	1619.531	1365.017
-25.823	31.363	1617.883	1363.781
-24.809	31.434	1616.215	1362.840
-23.794	31.430	1614.820	1361.575
-22.779	31.373	1613.709	1360.170
-21.765	31.401	1611.757	1358.678
-20.750	31.351	1610.426	1357.137
-19.736	31.441	1608.838	1356.394
-18.721	31.430	1607.459	1355.099
-17.706	31.381	1606.045	1353.502
-16.692	31.382	1604.626	1352.258
-15.677	31.426	1603.284	1351.390
-14.663	31.478	1601.788	1350.455
-13.648	31.472	1600.427	1349.207
-12.633	31.369	1599.266	1347.436
-11.619	31.385	1597.376	1345.902
-10.604	31.365	1595.807	1344.380
-9.590	31.368	1594.751	1343.460
-8.575	31.467	1593.262	1342.868
-7.560	31.545	1591.822	1342.157
-6.546	31.479	1590.855	1340.820
-5.531	31.398	1590.142	1339.582
-4.517	31.411	1588.538	1338.267
-3.502	31.374	1587.897	1337.409
-2.487	31.478	1585.901	1336.419
-1.473	31.366	1574.710	1326.146
-0.458	29.150	1556.569	1295.246
0.556	25.207	1558.350	1267.707
1.571	23.144	1582.006	1272.019
2.586	22.581	1595.836	1278.942
3.600	20.194	1541.616	1218.624
4.615	12.464	1433.945	1082.690
5.629	6.055	1371.746	995.149
6.644	5.178	1363.918	983.857
7.659	4.940	1362.539	981.277
8.673	4.898	1361.565	980.223
9.688	4.955	1359.926	979.313
10.702	4.790	1356.890	976.010
11.717	8.047	1362.796	1000.649
12.731	15.441	1375.868	1056.876
13.746	19.342	1381.952	1086.081
14.761	18.841	1379.306	1080.758
15.775	17.706	1376.657	1071.456
16.790	16.595	1374.274	1062.529
17.804	15.772	1371.627	1055.229
18.819	15.430	1370.153	1051.861
19.834	15.102	1369.134	1048.928
20.848	14.890	1367.795	1046.487
21.863	14.646	1366.710	1044.038
22.877	14.533	1365.728	1042.486
23.892	14.465	1364.435	1040.987
24.907	14.503	1363.682	1040.553
25.921	14.475	1362.768	1039.588
26.936	14.485	1362.098	1039.052
27.950	14.550	1361.090	1038.595
28.965	14.578	1360.855	1038.495
29.980	14.697	1359.156	1037.850
30.994	14.754	1358.018	1037.240
32.009	14.852	1356.367	1036.495
33.023	14.851	1355.454	1035.700
34.038	14.745	1354.357	1034.116
35.053	14.666	1352.867	1032.399
36.067	14.761	1351.750	1032.041
37.082	14.672	1350.697	1030.595
38.096	14.688	1349.612	1029.773
39.111	14.666	1348.848	1028.963
40.126	14.586	1348.228	1027.906
41.140	14.470	1347.083	1026.232
42.155	14.400	1346.573	1025.324
43.169	14.456	1346.053	1025.178
44.184	14.389	1345.907	1024.562
45.199	14.541	1345.520	1025.117
46.213	14.502	1345.250	1024.576
47.228	14.650	1343.655	1024.180
48.242	14.549	1343.523	1023.372
49.257	14.582	1341.698	1022.093
50.271	14.533	1340.248	1020.599
51.286	14.535	1339.280	1019.779
52.301	14.607	1337.415	1018.711
53.315	14.495	1336.421	1017.179
54.330	14.504	1335.520	1016.461
55.344	14.431	1334.442	1015.107
56.359	14.474	1333.476	1014.540
57.374	14.369	1332.207	1012.849
58.388	14.412	1331.759	1012.677
59.403	14.333	1331.286	1011.752
60.417	14.395	1330.303	1011.290
61.432	14.351	1329.502	1010.322
62.447	14.282	1328.367	1008.956
63.461	14.286	1327.200	1008.005
64.476	14.240	1326.041	1006.757
65.490	14.299	1324.894	1006.151
66.505	14.349	1323.632	1005.405
67.520	14.374	1322.051	1004.267
68.534	14.422	1321.252	1003.858
69.549	14.331	1320.464	1002.624
70.563	14.389	1319.199	1001.925
71.578	14.335	1318.068	1000.652
72.593	14.285	1317.370	999.736
73.607	14.295	1316.114	998.752
74.622	14.179	1316.035	997.908
75.636	14.233	1314.818	997.219
76.651	14.257	1314.457	997.000
77.666	14.157	1313.486	995.578
78.680	14.332	1313.119	996.260
79.695	14.304	1312.601	995.611
80.709	14.406	1311.848	995.558
81.724	14.454	1310.831	994.986
82.739	14.529	1309.801	994.565
83.753	14.503	1309.564	994.141
84.768	14.569	1308.589	993.706
85.782	14.658	1307.539	993.352
86.797	14.654	1306.160	992.193
87.812	14.581	1304.785	990.627
88.826	14.598	1303.832	989.917
89.841	14.665	1302.289	989.057
90.855	14.547	1302.115	988.134
91.870	14.674	1300.929	987.901
92.884	14.677	1300.153	987.242
93.899	14.612	1299.444	986.229
94.914	14.764	1298.657	986.444
95.928	14.699	1297.617	985.186
96.943	14.676	1296.886	984.403
97.957	14.815	1295.826	984.335
98.972	14.784	1294.499	983.053
99.987	14.760	1293.655	982.185
101.001	14.655	1292.936	980.938
102.016	14.657	1291.629	979.867
103.030	14.660	1290.821	979.190
104.045	14.672	1290.095	978.620
105.060	14.699	1288.419	977.419
106.074	14.574	1287.292	975.748
107.089	14.409	1285.858	973.610
108.103	14.324	1284.914	972.315
109.118	14.424	1283.616	971.829
110.133	14.372	1282.177	970.352
111.147	14.427	1280.694	969.462
112.162	14.426	1279.228	968.261
113.176	14.512	1278.215	967.910
114.191	14.454	1277.413	966.879
115.206	14.416	1276.253	965.696
116.220	14.469	1274.694	964.736
117.235	14.484	1273.601	963.910
118.249	14.531	1272.875	963.547
119.264	14.492	1271.688	962.340
120.279	14.461	1270.676	961.308
121.293	14.509	1269.412	960.544
122.308	14.428	1268.528	959.325
123.322	14.313	1267.588	957.867
124.337	14.220	1266.553	956.465
125.352	14.398	1265.233	956.405
126.366	14.347	1264.090	955.164
127.381	14.375	1263.088	954.481
128.395	14.366	1262.219	953.690
129.410	14.440	1261.426	953.428
130.424	14.430	1260.787	952.804
131.439	14.460	1259.347	951.806
132.454	14.404	1258.688	950.905
133.468	14.521	1257.770	950.793
134.483	14.498	1256.950	949.957
135.497	14.418	1256.296	948.921
136.512	14.566	1254.433	948.273
137.527	14.655	1252.987	947.601
138.541	14.517	1251.955	945.957
139.556	14.585	1250.949	945.497
140.570	14.628	1250.255	945.133
141.585	14.715	1248.495	944.207
142.600	14.707	1247.895	943.628
143.614	14.775	1246.214	942.658
144.629	14.786	1245.235	941.892
145.643	14.767	1244.403	941.072
146.658	14.753	1242.965	939.826
147.673	14.691	1241.579	938.346
148.687	14.605	1240.356	936.856
149.702	14.513	1239.192	935.379
150.716	14.483	1238.106	934.308
151.731	14.518	1237.031	933.608
152.746	14.533	1235.884	932.747
153.760	14.542	1234.941	932.003
154.775	14.675	1233.573	931.628
155.789	14.804	1232.375	931.359
156.804	14.777	1231.796	930.690
157.819	14.738	1230.327	929.278
158.833	14.755	1230.019	929.062
159.848	14.918	1228.592	928.806
160.862	14.822	1227.864	927.640
161.877	14.799	1226.381	926.312
162.892	14.663	1225.147	924.544
163.906	14.593	1224.416	923.524
164.921	14.631	1223.860	923.229
165.935	14.646	1223.366	922.862
166.950	14.675	1222.065	921.956
167.964	14.859	1220.846	921.970
168.979	14.768	1220.821	921.369
169.994	14.792	1220.019	920.816
171.008	14.808	1218.785	919.887
172.023	14.968	1218.041	920.129
173.037	14.952	1217.813	919.784
174.052	14.925	1216.586	918.626
175.067	14.756	1216.297	917.399
176.081	14.781	1214.789	916.319
177.096	14.762	1213.763	915.358
178.110	14.787	1212.714	914.625
179.125	14.732	1211.865	913.601
180.140	14.791	1210.620	912.906
181.154	14.834	1209.264	912.036
182.169	14.941	1207.935	911.537
183.183	14.969	1206.842	910.786
184.198	15.044	1205.382	910.008
185.213	14.990	1204.714	909.131
186.227	15.076	1203.678	908.735
187.242	15.186	1202.256	908.176
188.256	15.044	1202.017	907.150
189.271	15.098	1200.984	906.582
190.286	14.905	1200.016	904.727
191.300	14.877	1198.527	903.372
192.315	14.786	1198.016	902.414
193.329	14.864	1197.226	902.162
194.344	14.819	1196.928	901.616
195.359	14.973	1196.043	901.697
196.373	15.048	1195.925	901.935
197.388	15.185	1195.296	902.117
198.402	15.209	1195.121	902.032
199.417	15.200	1194.491	901.429
200.432	15.224	1193.660	900.853
201.446	15.338	1192.705	900.661
202.461	15.425	1191.606	900.222
203.475	15.365	1190.610	899.066
204.490	15.347	1189.045	897.710
205.504	15.214	1188.161	896.254
206.519	15.165	1187.422	895.352
207.534	15.203	1186.000	894.404
208.548	15.245	1185.243	893.980
209.563	15.228	1184.124	892.967
210.577	15.244	1183.598	892.575
211.592	15.366	1182.345	892.200
212.607	15.370	1181.585	891.565
213.621	15.373	1181.123	891.158
214.636	15.341	1179.817	889.921
215.650	15.372	1179.108	889.474
216.665	15.406	1178.303	888.970
217.680	15.573	1177.043	888.821
218.694	15.507	1176.691	888.128
219.709	15.492	1175.641	887.180
220.723	15.433	1175.073	886.360
221.738	15.537	1174.262	886.217
222.753	15.557	1173.199	885.441
223.767	15.533	1172.912	885.020
224.782	15.566	1172.400	884.730
225.796	15.652	1171.637	884.531
226.811	15.573	1170.909	883.487
227.826	15.712	1169.880	883.362
228.840	15.579	1169.419	882.236
229.855	15.624	1168.678	881.837
230.869	15.691	1167.539	881.250
231.884	15.563	1167.142	880.200
232.899	15.460	1166.189	878.866
233.913	15.578	1165.452	878.848
234.928	15.522	1164.778	877.971
235.942	15.491	1163.653	876.884
236.957	15.471	1163.025	876.226
237.972	15.461	1162.692	875.846
238.986	15.615	1161.499	875.676
240.001	15.399	1161.322	874.340
241.015	15.613	1160.543	874.790
242.030	15.641	1159.662	874.189
243.045	15.696	1158.826	873.771
244.059	15.694	1158.256	873.253
245.074	15.872	1157.009	873.160
246.088	15.689	1156.518	871.762
247.103	15.822	1155.376	871.515
248.117	15.913	1154.860	871.517
249.132	16.069	1154.080	871.658
250.147	16.178	1153.280	871.542
251.161	16.109	1152.689	870.659
252.176	16.053	1152.550	870.189
253.190	16.078	1152.054	869.866
254.205	16.183	1151.500	869.914
255.220	16.207	1150.598	869.275
256.234	16.303	1149.671	868.993
257.249	16.255	1149.195	868.309
258.263	16.306	1148.683	868.107
259.278	16.207	1148.011	867.016
260.293	16.261	1147.373	866.736
261.307	16.299	1146.755	866.385
262.322	16.210	1146.262	865.483
263.336	16.368	1145.314	865.499
264.351	16.375	1144.752	865.032
265.366	16.281	1144.074	863.965
266.380	16.445	1143.162	864.036
267.395	16.321	1142.704	862.980
268.409	16.377	1141.652	862.395
269.424	16.323	1141.110	861.634
270.439	16.369	1140.717	861.493
271.453	16.360	1139.618	860.545
272.468	16.452	1138.507	860.096
273.482	16.266	1138.172	858.823
274.497	16.341	1137.478	858.603
275.512	16.398	1136.608	858.159
276.526	16.370	1135.766	857.304
277.541	16.316	1135.170	856.504
278.555	16.450	1134.377	856.514
279.570	16.492	1134.038	856.391
280.585	16.523	1133.228	855.864
281.599	16.584	1132.266	855.366
282.614	16.509	1131.084	854.020
283.628	16.501	1130.258	853.283
284.643	16.421	1129.769	852.433
285.657	16.551	1128.489	852.044
286.672	16.382	1127.932	850.697
287.687	16.418	1126.756	849.919
288.701	16.611	1125.613	849.948
289.716	16.634	1124.800	849.379
290.730	16.509	1124.699	848.597
291.745	16.631	1123.642	848.337
292.760	16.650	1122.760	847.689
293.774	16.603	1122.141	846.912
294.789	16.723	1122.093	847.404
295.803	16.768	1121.249	846.917
296.818	16.569	1120.815	845.519
297.833	16.674	1119.422	844.918
298.847	16.509	1119.356	843.970
299.862	16.749	1118.127	844.162
300.876	16.666	1117.664	843.326
301.891	16.785	1117.173	843.475
302.906	16.878	1116.405	843.280
303.920	16.799	1115.805	842.359
304.935	16.777	1115.071	841.624
305.949	16.973	1114.283	841.925
306.964	16.900	1114.116	841.363
307.979	16.869	1113.268	840.493
308.993	16.883	1112.360	839.806
310.008	16.960	1111.374	839.366
311.022	17.036	1110.740	839.192
312.037	17.011	1109.845	838.318
313.052	16.932	1108.829	837.084
314.066	16.852	1108.195	836.138
315.081	16.874	1107.626	835.741
316.095	16.794	1106.597	834.499
317.110	16.836	1106.120	834.272
318.125	16.850	1104.988	833.411
319.139	16.808	1104.403	832.690
320.154	16.919	1103.881	832.768
321.168	16.875	1103.098	831.890
322.183	16.828	1102.715	831.296
323.197	16.886	1102.067	831.017
324.212	16.900	1101.550	830.621
325.227	17.017	1101.144	830.816
326.241	17.009	1100.571	830.269
327.256	17.041	1099.137	829.274
328.270	16.845	1098.748	827.950
329.285	16.899	1097.544	827.231
330.300	16.930	1096.465	826.494
331.314	16.909	1095.456	825.558
332.329	16.893	1094.841	824.943
333.343	16.975	1093.838	824.514
334.358	17.140	1092.896	824.533
335.373	17.163	1092.566	824.323
336.387	17.110	1092.086	823.633
337.402	17.168	1091.129	823.117
338.416	17.135	1090.468	822.386
339.431	17.182	1089.500	821.813
340.446	17.234	1089.238	821.794
341.460	17.317	1088.595	821.634
342.475	17.396	1087.696	821.266
343.489	17.332	1087.142	820.467
344.504	17.456	1085.891	820.046
345.519	17.563	1085.168	819.941
346.533	17.571	1084.097	819.101
347.548	17.598	1083.702	818.860
348.562	17.586	1083.093	818.267
349.577	17.454	1082.175	816.869
350.592	17.347	1081.297	815.621
351.606	17.352	1080.308	814.824
352.621	17.396	1079.423	814.296
353.635	17.402	1079.144	814.046
354.650	17.370	1078.474	813.311
355.665	17.313	1078.052	812.649
356.679	17.415	1077.299	812.498
357.694	17.364	1077.016	811.969
358.708	17.320	1076.187	811.064
359.723	17.535	1075.233	811.296
360.738	17.561	1074.665	810.922
361.752	17.577	1074.193	810.568
362.767	17.522	1074.097	810.164
363.781	17.507	1073.290	809.411
364.796	17.642	1072.407	809.314
365.810	17.703	1071.933	809.175
366.825	17.795	1071.036	808.860
367.840	17.867	1070.818	808.969
368.854	17.852	1070.355	808.474
369.869	17.860	1069.368	807.696
370.883	17.815	1068.558	806.802
371.898	17.846	1067.417	806.015
372.913	17.845	1066.824	805.489
373.927	17.856	1067.004	805.603
374.942	17.898	1066.289	805.192
375.956	17.891	1065.727	804.664
376.971	18.019	1064.565	804.319
377.986	17.891	1064.518	803.609
379.000	18.037	1063.934	803.785
380.015	18.114	1063.248	803.554
381.029	18.038	1062.807	802.797
382.044	18.213	1061.827	802.804
383.059	18.098	1060.861	801.464
384.073	17.923	1060.860	800.573
385.088	18.090	1059.670	800.387
386.102	18.080	1058.837	799.638
387.117	17.974	1058.137	798.545
388.132	17.960	1057.193	797.697
389.146	17.967	1056.449	797.096
390.161	17.937	1055.335	796.045
391.175	17.958	1054.856	795.713
392.190	18.086	1054.241	795.774
393.205	18.188	1053.308	795.471
394.219	18.134	1052.271	794.368
395.234	18.093	1051.722	793.694
396.248	18.104	1050.665	792.877
397.263	18.043	1049.801	791.871
398.278	18.131	1048.869	791.506
399.292	18.025	1048.438	790.618
400.307	17.999	1047.706	789.877
401.321	18.013	1047.137	789.445
402.336	17.962	1046.471	788.638
403.350	18.180	1045.396	788.761
404.365	18.075	1045.272	788.111
405.380	18.020	1044.799	787.432
406.394	18.224	1043.764	787.521
407.409	18.117	1043.216	786.548
408.423	18.266	1042.223	786.415
409.438	18.490	1041.295	786.673
410.453	18.380	1040.732	785.675
411.467	18.357	1040.191	785.089
412.482	18.466	1039.575	785.053
413.496	18.464	1039.256	784.736
414.511	18.514	1038.464	784.298
415.526	18.549	1037.979	784.021
416.540	18.626	1037.390	783.857
417.555	18.496	1037.171	783.032
418.569	18.483	1036.801	782.620
419.584	18.549	1036.213	782.408
420.599	18.549	1035.544	781.834
421.613	149.583	1400.984	1792.029
422.628	136.615	1454.221	1792.130
