DTS Sentinel unit serial number:	SN413079Multiplexer serial number:	ORYXHardware model number:	OX4-SRSoftware version number:	ORYX F/W v4.00 Oryx Data Collector v3.7.2.0data status	okinstallation	princeton_trtdifferential loss correction	single-endedforward channel	channel 2reverse channel	N/Adate	2019/09/12time	08:49:11forward acquisition time	60.00reverse acquisition time	0.00gamma	496.2192k internal	0.2317k external	0.2317temperature offset calibration	1.0065default loss term (dB/km)	0.3790temperature slope calibration	1.0000multiplexer offset coefficient	1.0000multiplexer slope coefficient	1.0000fibre end	0.00T internal ref (°C)	33.98T ext. ref 1 (°C)	1.74T ext. ref 2 (°C)	30.69length (m)	temperature (°C)	Stokes	anti-Stokes-747.200	-91.326	0.152	-0.044
-746.185	-161.561	-0.159	0.008
-745.171	800.000	-0.036	0.109
-744.156	800.000	0.110	0.386
-743.142	-109.186	0.054	0.012
-742.127	-200.000	0.034	0.274
-741.112	-80.105	-0.037	0.013
-740.098	600.745	-0.130	0.327
-739.083	-200.000	-0.055	-0.326
-738.069	162.060	0.155	0.219
-737.054	433.457	0.140	0.308
-736.039	48.724	-0.234	0.222
-735.025	-14.641	0.105	-0.068
-734.010	-41.474	-0.115	-0.060
-732.996	-182.901	0.267	0.005
-731.981	-39.007	-0.438	0.233
-730.966	34.674	0.149	0.132
-729.952	-200.000	0.029	0.226
-728.937	-36.701	0.177	-0.096
-727.923	-200.000	0.054	-0.386
-726.908	108.102	0.208	-0.251
-725.894	-146.202	-0.351	0.031
-724.879	-6.719	-0.168	0.116
-723.864	-200.000	0.053	-0.478
-722.850	15.593	0.095	0.075
-721.835	30.653	-0.022	-0.019
-720.821	-31.356	-0.092	0.052
-719.806	800.000	0.028	-0.117
-718.791	361.875	-0.066	0.134
-717.777	-200.000	0.056	-0.437
-716.762	284.344	0.117	0.212
-715.748	345.030	-0.069	-0.138
-714.733	-145.619	-0.501	-0.045
-713.718	800.000	-0.034	-0.128
-712.704	-181.592	0.111	0.002
-711.689	21.551	-0.216	0.178
-710.675	240.990	0.147	0.248
-709.660	-110.599	-0.181	-0.038
-708.645	599.224	-0.081	0.204
-707.631	45.652	0.226	-0.211
-706.616	-200.000	0.020	-0.434
-705.602	299.545	0.069	-0.128
-704.587	-53.032	-0.312	-0.145
-703.572	-6.440	0.207	-0.143
-702.558	800.000	-0.022	-0.081
-701.543	57.861	-0.029	-0.028
-700.529	-117.267	-0.176	-0.032
-699.514	-170.979	-0.420	-0.014
-698.499	-67.997	-0.328	-0.129
-697.485	30.033	0.187	-0.161
-696.470	-146.327	0.049	-0.004
-695.456	-112.833	-0.440	0.088
-694.441	680.451	-0.140	-0.368
-693.426	800.000	-0.060	-0.189
-692.412	-45.937	0.117	0.058
-691.397	0.511	0.156	-0.113
-690.383	503.237	-0.067	-0.157
-689.368	-146.875	-0.286	0.025
-688.354	-19.961	-0.071	-0.044
-687.339	267.163	-0.072	-0.128
-686.324	800.000	0.019	-0.056
-685.310	800.000	-0.110	0.334
-684.295	-105.139	0.347	-0.080
-683.281	519.822	-0.076	0.180
-682.266	-85.527	-0.129	0.040
-681.251	25.027	-0.425	0.356
-680.237	-44.554	-0.330	0.166
-679.222	343.224	0.121	-0.239
-678.208	-108.515	-0.344	0.075
-677.193	-37.590	-0.338	0.182
-676.178	156.977	0.044	0.061
-675.164	698.547	0.064	-0.169
-674.149	366.916	-0.164	0.335
-673.135	-190.910	-0.230	-0.002
-672.120	-200.000	0.026	-0.151
-671.105	-200.000	-0.043	0.209
-670.091	800.000	0.160	-0.464
-669.076	100.539	-0.159	-0.187
-668.062	584.524	0.136	-0.338
-667.047	31.979	0.186	-0.162
-666.032	-132.905	-0.265	0.034
-665.018	-200.000	0.048	0.246
-664.003	19.940	-0.139	0.113
-662.989	134.023	-0.259	-0.338
-661.974	-19.685	-0.161	0.101
-660.959	800.000	0.061	-0.194
-659.945	-115.558	0.274	-0.052
-658.930	84.145	-0.087	-0.095
-657.916	-200.000	0.031	-0.200
-656.901	-175.249	0.120	-0.003
-655.886	48.456	-0.381	-0.360
-654.872	-200.000	-0.007	0.222
-653.857	-200.000	0.067	-0.350
-652.843	-71.071	-0.292	-0.111
-651.828	110.076	-0.096	-0.116
-650.814	-82.028	-0.185	-0.061
-649.799	-96.839	-0.085	0.023
-648.784	119.915	0.147	0.184
-647.770	717.417	-0.025	0.066
-646.755	-200.000	0.020	0.182
-645.741	2.814	0.282	-0.206
-644.726	800.000	-0.179	-0.546
-643.711	-104.034	0.294	-0.069
-642.697	-23.497	-0.154	-0.093
-641.682	-13.986	-0.202	-0.131
-640.668	800.000	-0.056	0.196
-639.653	-200.000	0.004	-0.149
-638.638	-200.000	-0.006	-0.040
-637.624	-57.726	-0.020	0.009
-636.609	800.000	-0.010	0.035
-635.595	70.757	0.016	-0.017
-634.580	-200.000	0.098	-0.441
-633.565	800.000	0.050	-0.186
-632.551	-200.000	0.005	-0.198
-631.536	-200.000	0.012	-0.120
-630.522	154.206	-0.150	0.207
-629.507	217.331	-0.048	-0.077
-628.492	-200.000	0.023	-0.163
-627.478	-69.848	-0.387	0.149
-626.463	16.094	0.172	-0.136
-625.449	-200.000	0.036	-0.341
-624.434	282.614	-0.106	0.192
-623.419	-135.635	-0.194	0.023
-622.405	176.561	0.073	-0.107
-621.390	-52.140	0.426	-0.199
-620.376	72.753	-0.269	-0.283
-619.361	81.268	0.073	-0.080
-618.346	-1.546	0.136	0.096
-617.332	123.847	-0.198	-0.250
-616.317	-16.660	0.067	0.043
-615.303	800.000	-0.062	0.175
-614.288	-200.000	-0.045	0.289
-613.273	155.110	-0.192	0.266
-612.259	91.674	0.126	0.143
-611.244	173.407	-0.154	0.223
-610.230	-128.285	0.076	0.011
-609.215	381.435	0.071	0.147
-608.201	800.000	-0.043	-0.151
-607.186	-124.587	0.369	0.058
-606.171	-84.197	0.174	-0.055
-605.157	50.556	0.173	-0.165
-604.142	161.089	0.112	-0.157
-603.128	-165.747	-0.204	0.009
-602.113	-95.881	-0.109	-0.029
-601.098	-200.000	0.009	-0.294
-600.084	0.384	0.074	0.054
-599.069	226.147	-0.232	0.378
-598.055	24.994	-0.251	0.210
-597.040	694.389	0.029	0.077
-596.025	800.000	-0.041	-0.182
-595.011	244.197	-0.136	0.230
-593.996	-122.287	0.223	-0.037
-592.982	-200.000	-0.038	0.190
-591.967	-20.868	-0.053	-0.033
-590.952	33.475	-0.131	0.114
-589.938	800.000	0.072	-0.263
-588.923	54.947	-0.179	-0.174
-587.909	-123.118	0.127	0.021
-586.894	210.472	-0.052	-0.082
-585.879	-39.771	-0.178	-0.094
-584.865	-200.000	0.008	-0.189
-583.850	221.659	-0.087	-0.141
-582.836	638.602	-0.072	0.183
-581.821	-118.144	0.129	-0.023
-580.806	800.000	-0.040	0.167
-579.792	253.233	0.134	0.230
-578.777	-90.759	0.082	0.024
-577.763	800.000	0.025	-0.092
-576.748	-21.226	0.115	0.071
-575.733	-43.295	0.111	-0.057
-574.719	201.631	0.184	0.285
-573.704	27.570	-0.254	0.215
-572.690	-105.999	-0.028	0.006
-571.675	497.749	0.200	0.463
-570.661	-152.230	0.379	0.028
-569.646	7.250	-0.052	-0.039
-568.631	153.223	0.171	0.235
-567.617	27.345	-0.287	0.243
-566.602	800.000	0.046	0.145
-565.588	179.672	-0.104	0.153
-564.573	371.097	0.070	0.142
-563.558	689.787	-0.027	0.071
-562.544	-200.000	-0.056	-0.279
-561.529	-65.407	0.219	0.089
-560.515	-200.000	-0.054	0.264
-559.500	800.000	0.058	0.239
-558.485	153.798	-0.143	-0.198
-557.471	-71.664	0.222	-0.083
-556.456	-125.636	0.271	-0.041
-555.442	-132.175	0.296	-0.039
-554.427	109.329	-0.178	0.214
-553.412	-102.160	0.289	-0.070
-552.398	-98.557	-0.155	-0.040
-551.383	70.037	-0.084	0.087
-550.369	12.142	0.132	0.102
-549.354	730.259	-0.090	0.243
-548.339	286.041	-0.076	0.138
-547.325	323.630	0.085	-0.163
-546.310	-112.862	-0.111	0.022
-545.296	-122.743	-0.012	-0.002
-544.281	64.846	0.040	-0.040
-543.266	-127.263	-0.581	-0.085
-542.252	215.264	-0.116	0.185
-541.237	-43.549	0.135	0.068
-540.223	671.584	-0.086	-0.223
-539.208	-200.000	-0.009	-0.207
-538.193	-74.166	0.250	0.091
-537.179	38.892	-0.319	0.286
-536.164	800.000	-0.083	0.246
-535.150	-200.000	-0.088	-0.500
-534.135	99.759	-0.072	-0.084
-533.121	800.000	-0.092	-0.266
-532.106	-48.239	0.121	0.059
-531.091	-92.263	0.165	0.047
-530.077	-24.017	-0.139	-0.084
-529.062	57.785	0.134	-0.132
-528.048	477.753	-0.042	0.097
-527.033	800.000	0.082	-0.250
-526.018	191.379	-0.110	0.166
-525.004	-169.706	-0.170	0.006
-523.989	141.108	-0.136	0.181
-522.975	30.781	0.156	0.134
-521.960	44.256	0.197	0.182
-520.945	600.329	0.071	-0.176
-519.931	-200.000	0.020	-0.164
-518.916	-43.130	-0.041	0.021
-517.902	37.550	-0.277	0.247
-516.887	-11.838	-0.324	0.213
-515.872	4.008	-0.045	0.033
-514.858	-200.000	0.018	0.118
-513.843	35.026	0.113	-0.099
-512.829	216.915	-0.075	-0.120
-511.814	583.088	-0.047	0.116
-510.799	-76.016	-0.089	0.031
-509.785	607.117	-0.097	0.243
-508.770	800.000	-0.037	-0.162
-507.756	-163.459	0.079	-0.004
-506.741	123.819	0.159	0.200
-505.726	-200.000	-0.058	0.276
-504.712	368.707	-0.136	-0.276
-503.697	701.737	0.056	0.147
-502.683	800.000	-0.051	-0.214
-501.668	-98.681	-0.125	0.032
-500.653	-186.466	-0.066	-0.001
-499.639	-48.328	-0.041	0.020
-498.624	88.517	-0.086	-0.095
-497.610	-200.000	-0.047	-0.355
-496.595	91.211	0.163	0.184
-495.581	-146.947	-0.292	0.025
-494.566	-83.133	-0.107	-0.035
-493.551	-50.359	0.366	-0.174
-492.537	113.573	-0.072	0.088
-491.522	188.196	-0.183	0.274
-490.508	-200.000	-0.018	0.216
-489.493	-17.908	-0.208	-0.131
-488.478	-200.000	-0.055	0.262
-487.464	226.228	-0.191	0.311
-486.449	-200.000	-0.072	-0.317
-485.435	-33.619	0.203	-0.113
-484.420	15.101	-0.095	0.074
-483.405	3.786	0.105	-0.077
-482.391	198.572	-0.105	0.161
-481.376	480.778	0.116	-0.263
-480.362	14.208	0.241	-0.188
-479.347	-81.902	-0.203	0.067
-478.332	237.230	0.130	0.216
-477.318	189.027	-0.079	-0.118
-476.303	-150.382	-0.074	0.006
-475.289	59.345	-0.069	-0.068
-474.274	-78.500	-0.162	-0.056
-473.259	-159.725	-0.077	0.004
-472.245	800.000	0.038	-0.149
-471.230	505.191	0.110	-0.256
-470.216	712.302	-0.128	-0.339
-469.201	-67.284	0.344	0.136
-468.186	302.280	0.053	-0.098
-467.172	49.246	0.113	-0.106
-466.157	251.768	-0.084	-0.144
-465.143	61.045	-0.121	0.120
-464.128	-56.871	0.163	0.072
-463.113	-60.857	0.254	-0.108
-462.099	-100.685	-0.209	-0.052
-461.084	-200.000	0.025	0.110
-460.070	-141.822	0.227	0.023
-459.055	-54.605	-0.345	-0.156
-458.040	-200.000	0.043	-0.208
-457.026	-1.745	-0.159	0.112
-456.011	271.681	0.070	-0.123
-454.997	14.676	0.125	0.098
-453.982	66.854	0.116	0.118
-452.968	-89.989	0.327	-0.095
-451.953	223.101	0.045	0.073
-450.938	97.043	-0.272	0.312
-449.924	-65.871	0.110	-0.044
-448.909	142.567	0.104	-0.138
-447.895	85.073	-0.184	0.202
-446.880	104.084	-0.210	-0.247
-445.865	-76.590	0.225	0.079
-444.851	353.920	0.125	0.248
-443.836	37.476	0.123	-0.109
-442.822	-200.000	-0.013	0.136
-441.807	-41.961	-0.223	0.114
-440.792	153.626	-0.091	0.124
-439.778	272.621	-0.201	-0.355
-438.763	-200.000	-0.007	0.078
-437.749	637.815	-0.073	0.185
-436.734	-64.123	0.064	-0.026
-435.719	52.924	-0.210	0.201
-434.705	127.161	0.105	0.133
-433.690	238.229	0.032	0.053
-432.676	-21.588	0.144	-0.088
-431.661	162.010	0.110	-0.154
-430.646	47.616	0.180	-0.168
-429.632	800.000	-0.104	-0.344
-428.617	120.860	-0.228	0.283
-427.603	-200.000	0.003	0.203
-426.588	-68.654	0.159	0.061
-425.573	-53.050	0.623	0.287
-424.559	-98.997	0.255	-0.065
-423.544	-15.546	-0.090	-0.058
-422.530	-92.763	0.035	0.010
-421.515	-44.669	0.177	-0.088
-420.500	-200.000	0.059	0.293
-419.486	-171.080	0.064	0.002
-418.471	215.183	-0.137	-0.218
-417.457	324.945	-0.165	-0.316
-416.442	45.467	0.469	0.433
-415.428	-200.000	0.001	0.170
-414.413	-30.852	0.433	-0.245
-413.398	98.293	-0.039	-0.045
-412.384	800.000	0.089	-0.299
-411.369	-127.321	0.105	-0.015
-410.355	116.579	-0.206	0.252
-409.340	-200.000	0.002	-0.019
-408.325	-200.000	-0.031	-0.426
-407.311	-113.610	0.289	0.056
-406.296	800.000	-0.039	0.150
-405.282	599.422	0.067	-0.165
-404.267	3.258	-0.186	0.135
-403.252	235.718	-0.083	-0.137
-402.238	-200.000	-0.002	0.092
-401.223	162.255	-0.035	-0.049
-400.209	-35.045	0.384	-0.209
-399.194	800.000	-0.101	-0.315
-398.179	-65.773	0.171	-0.068
-397.165	-43.797	-0.168	0.084
-396.150	78.159	0.196	0.209
-395.136	199.834	0.221	0.339
-394.121	237.519	0.132	0.218
-393.106	-200.000	-0.031	0.145
-392.092	-95.093	-0.222	0.060
-391.077	-108.204	-0.044	-0.009
-390.063	-124.049	-0.222	0.035
-389.048	178.563	0.192	0.280
-388.033	-104.502	0.324	-0.075
-387.019	0.020	0.019	-0.014
-386.004	-200.000	-0.014	-0.180
-384.990	-165.426	-0.297	-0.013
-383.975	-71.519	-0.180	0.067
-382.960	27.124	-0.167	0.140
-381.946	-121.006	0.280	0.047
-380.931	800.000	-0.058	-0.236
-379.917	194.111	-0.055	0.083
-378.902	-200.000	0.070	-0.361
-377.888	130.699	0.262	-0.335
-376.873	9.587	0.096	0.073
-375.858	17.356	0.152	-0.120
-374.844	-196.584	-0.102	0.001
-373.829	585.906	-0.086	-0.211
-372.815	187.642	0.104	-0.155
-371.800	35.795	0.031	0.028
-370.785	74.522	0.079	0.083
-369.771	-83.164	-0.288	-0.092
-368.756	153.341	0.166	0.227
-367.742	-143.338	-0.142	-0.014
-366.727	-91.171	0.126	-0.036
-365.712	-164.999	-0.372	-0.017
-364.698	208.388	-0.178	-0.277
-363.683	800.000	-0.102	0.334
-362.669	800.000	-0.073	0.284
-361.654	-110.446	-0.390	-0.081
-360.639	190.444	0.035	-0.053
-359.625	758.074	0.058	-0.156
-358.610	-200.000	-0.085	-0.438
-357.596	238.308	-0.166	0.275
-356.581	-200.000	0.032	-0.153
-355.566	125.571	-0.222	0.280
-354.552	104.978	0.201	0.237
-353.537	-200.000	-0.041	0.231
-352.523	83.088	0.118	-0.129
-351.508	591.345	-0.073	0.181
-350.493	-47.076	-0.288	0.140
-349.479	421.017	-0.084	-0.179
-348.464	745.636	-0.068	0.181
-347.450	-74.248	0.205	-0.074
-346.435	4.607	-0.188	-0.137
-345.420	87.938	0.017	-0.018
-344.406	45.465	-0.076	0.070
-343.391	-200.000	-0.017	0.288
-342.377	-22.059	-0.183	0.111
-341.362	-25.799	-0.204	-0.120
-340.348	-200.000	-0.009	-0.279
-339.333	33.312	0.079	0.068
-338.318	-187.053	-0.277	0.004
-337.304	100.255	0.254	0.293
-336.289	-97.185	0.271	0.070
-335.275	118.011	-0.087	-0.106
-334.260	-200.000	0.028	-0.157
-333.245	-2.690	0.099	0.069
-332.231	486.002	-0.096	0.219
-331.216	-200.000	0.038	-0.254
-330.202	800.000	-0.098	0.329
-329.187	-200.000	0.048	-0.398
-328.172	-200.000	0.035	0.157
-327.158	630.479	-0.068	-0.171
-326.143	451.374	0.040	-0.087
-325.129	191.285	-0.226	0.339
-324.114	-200.000	-0.003	0.237
-323.099	193.959	0.101	0.152
-322.085	0.216	0.107	0.076
-321.070	-134.170	-0.188	0.023
-320.056	9.428	-0.129	0.097
-319.041	101.933	-0.038	0.044
-318.026	112.927	0.159	-0.191
-317.012	-133.768	-0.202	0.025
-315.997	-60.635	-0.131	0.055
-314.983	-200.000	0.001	-0.310
-313.968	-68.819	0.122	0.047
-312.953	277.154	-0.003	0.006
-311.939	65.254	-0.114	0.114
-310.924	-52.714	0.186	-0.085
-309.910	-11.567	0.065	0.043
-308.895	58.917	0.202	0.198
-307.880	-12.617	0.148	-0.096
-306.866	-90.048	0.102	0.029
-305.851	-45.467	0.217	-0.107
-304.837	-41.365	-0.225	-0.115
-303.822	-40.683	0.184	-0.095
-302.807	163.520	-0.047	0.066
-301.793	546.970	0.086	-0.204
-300.778	-153.818	0.110	-0.007
-299.764	28.893	-0.279	0.236
-298.749	-200.000	-0.055	-0.371
-297.735	37.005	-0.095	0.084
-296.720	-142.713	0.129	-0.013
-295.705	81.554	-0.154	-0.166
-294.691	-76.802	0.238	-0.083
-293.676	-108.823	-0.256	0.055
-292.662	22.431	-0.240	-0.195
-291.647	122.264	0.241	-0.300
-290.632	-52.562	-0.117	-0.054
-289.618	-200.000	0.045	0.402
-288.603	-200.000	-0.006	0.045
-287.589	495.886	-0.015	0.035
-286.574	-104.329	-0.080	-0.018
-285.559	47.683	-0.229	0.212
-284.545	21.810	-0.203	-0.165
-283.530	-132.374	-0.284	0.036
-282.516	-84.140	0.152	0.048
-281.501	-143.697	-0.152	-0.014
-280.486	-112.154	0.052	0.010
-279.472	1.067	0.427	0.305
-278.457	-99.849	0.525	0.131
-277.443	-27.079	0.344	0.200
-276.428	-111.056	0.277	-0.056
-275.413	279.445	-0.125	-0.223
-274.399	-200.000	-0.020	0.091
-273.384	-200.000	0.072	-0.696
-272.370	-17.048	0.098	-0.062
-271.355	222.130	0.109	0.174
-270.340	800.000	-0.092	-0.334
-269.326	-56.018	0.140	0.062
-268.311	-56.190	-0.146	-0.065
-267.297	533.041	0.145	-0.341
-266.282	-60.762	-0.367	0.155
-265.267	63.285	0.193	0.192
-264.253	46.931	-0.084	-0.078
-263.238	21.882	-0.114	-0.092
-262.224	-121.374	-0.191	0.032
-261.209	105.426	0.160	-0.187
-260.195	-95.112	-0.151	-0.041
-259.180	-200.000	-0.035	0.381
-258.165	-100.497	0.186	0.046
-257.151	106.379	-0.105	0.124
-256.136	86.129	-0.066	-0.073
-255.122	-165.408	-0.268	0.012
-254.107	41.631	-0.258	-0.232
-253.092	800.000	0.092	0.262
-252.078	47.883	-0.084	0.078
-251.063	9.011	0.423	0.317
-250.049	35.103	-0.183	-0.159
-249.034	19.897	0.105	0.084
-248.019	18.427	-0.121	-0.096
-247.005	296.112	0.119	0.216
-245.990	-42.752	-0.391	0.197
-244.976	101.644	0.197	0.228
-243.961	-69.238	0.142	-0.054
-242.946	800.000	0.101	0.413
-241.932	-200.000	-0.006	0.044
-240.917	99.937	0.256	-0.295
-239.903	-200.000	-0.339	0.000
-238.888	46.466	0.193	0.178
-237.873	-4.446	0.238	0.163
-236.859	220.517	-0.072	0.115
-235.844	-137.343	0.289	0.033
-234.830	0.434	0.074	0.053
-233.815	59.111	0.287	0.280
-232.800	-80.997	-0.486	-0.160
-231.786	166.797	0.227	-0.319
-230.771	-112.021	0.190	0.038
-229.757	75.506	0.086	-0.091
-228.742	-200.000	-0.001	0.287
-227.727	92.697	0.162	-0.181
-226.713	-3.753	0.080	-0.055
-225.698	-29.537	0.381	0.216
-224.684	-6.485	0.089	-0.060
-223.669	80.221	0.208	-0.222
-222.655	262.939	-0.119	-0.205
-221.640	272.326	0.234	0.410
-220.625	642.055	-0.166	-0.419
-219.611	128.300	-0.424	0.535
-218.596	800.000	-0.046	-0.167
-217.582	19.300	0.198	0.158
-216.567	-35.958	0.342	0.183
-215.552	394.782	0.104	-0.215
-214.538	-75.143	-0.097	-0.034
-213.523	111.422	-0.099	0.119
-212.509	800.000	0.015	0.042
-211.494	800.000	0.035	-0.140
-210.479	800.000	-0.119	0.339
-209.465	36.087	-0.133	0.116
-208.450	674.064	0.096	-0.247
-207.436	-112.500	0.225	-0.045
-206.421	-45.841	0.062	-0.030
-205.406	321.524	-0.008	-0.016
-204.392	55.919	-0.162	0.156
-203.377	-200.000	0.033	-0.414
-202.363	62.471	0.120	0.119
-201.348	-75.770	-0.154	-0.054
-200.333	24.963	0.017	0.014
-199.319	800.000	-0.080	-0.294
-198.304	-89.616	0.146	-0.042
-197.290	47.299	0.228	-0.211
-196.275	-16.186	-0.272	-0.171
-195.260	-161.373	-0.293	-0.015
-194.246	800.000	-0.085	-0.304
-193.231	-200.000	-0.117	0.538
-192.217	285.641	-0.184	0.328
-191.202	800.000	-0.047	0.140
-190.187	-99.624	-0.257	-0.064
-189.173	635.332	-0.087	-0.220
-188.158	-200.000	-0.029	-0.127
-187.144	-200.000	0.031	-0.366
-186.129	800.000	0.129	-0.434
-185.114	74.897	0.103	0.108
-184.100	-117.285	0.434	-0.078
-183.085	800.000	-0.067	-0.234
-182.071	143.420	-0.159	-0.209
-181.056	177.990	-0.209	0.302
-180.042	18.463	-0.157	0.124
-179.027	-63.896	-0.377	-0.153
-178.012	57.279	-0.151	-0.146
-176.998	163.220	0.167	-0.232
-175.983	81.011	0.149	-0.159
-174.969	328.215	-0.091	-0.172
-173.954	-130.587	-0.255	-0.034
-172.939	-86.355	-0.044	-0.013
-171.925	-200.000	0.013	0.064
-170.910	-172.918	0.399	0.012
-169.896	16.498	-0.236	0.184
-168.881	-200.000	0.001	-0.126
-167.866	-49.103	0.117	-0.055
-166.852	132.635	0.043	-0.055
-165.837	-200.000	0.044	0.498
-164.823	800.000	0.032	-0.117
-163.808	-200.000	-0.002	0.081
-162.793	405.484	-0.125	-0.261
-161.779	-75.005	-0.322	0.114
-160.764	209.197	0.253	-0.393
-159.750	-200.000	-0.010	0.131
-158.735	800.000	0.052	0.195
-157.720	-84.722	0.194	0.060
-156.706	-200.000	0.000	-0.110
-155.691	-60.901	-0.271	-0.113
-154.677	390.660	0.140	-0.288
-153.662	-87.730	-0.151	0.045
-152.647	800.000	-0.030	0.094
-151.633	377.018	0.053	-0.107
-150.618	800.000	0.019	-0.080
-149.604	27.969	-0.317	-0.264
-148.589	68.367	0.066	0.066
-147.574	166.440	-0.093	0.131
-146.560	64.327	-0.308	-0.307
-145.545	-32.374	-0.142	-0.078
-144.531	484.602	0.103	-0.231
-143.516	159.799	0.081	-0.111
-142.502	16.726	0.155	0.121
-141.487	-75.199	0.053	0.019
-140.472	-200.000	-0.076	0.374
-139.458	-200.000	-0.000	0.232
-138.443	10.750	-0.125	-0.094
-137.429	-19.892	-0.152	-0.093
-136.414	364.811	-0.079	0.156
-135.399	131.319	0.172	-0.219
-134.385	580.198	-0.105	-0.253
-133.370	800.000	0.061	0.203
-132.356	620.150	0.111	0.275
-131.341	-89.542	0.216	0.063
-130.326	-86.005	0.096	0.029
-129.312	125.972	-0.156	0.195
-128.297	327.661	-0.142	0.269
-127.283	-34.354	0.302	-0.164
-126.268	-133.772	-0.026	-0.003
-125.253	-60.797	-0.077	-0.032
-124.239	-200.000	0.010	-0.053
-123.224	275.979	-0.147	-0.258
-122.210	-16.459	-0.194	-0.122
-121.195	-127.992	-0.309	-0.044
-120.180	192.230	0.067	0.101
-119.166	100.921	0.101	0.116
-118.151	-200.000	0.003	-0.253
-117.137	-200.000	-0.055	-0.429
-116.122	-71.130	-0.154	-0.057
-115.107	112.664	0.031	0.037
-114.093	-200.000	-0.002	-0.250
-113.078	-143.362	0.314	-0.030
-112.064	107.138	-0.073	-0.086
-111.049	359.417	-0.026	0.052
-110.034	-96.208	-0.189	0.050
-109.020	-38.007	-0.383	0.201
-108.005	72.017	0.122	-0.125
-106.991	69.785	0.155	-0.157
-105.976	-200.000	0.019	0.310
-104.962	-166.858	-0.381	-0.015
-103.947	-10.898	-0.167	-0.109
-102.932	-150.895	0.352	-0.026
-101.918	-75.683	-0.156	0.055
-100.903	132.477	0.174	-0.222
-99.889	-17.421	-0.167	-0.104
-98.874	98.182	0.081	0.093
-97.859	800.000	0.061	0.229
-96.845	-200.000	0.020	-0.222
-95.830	292.322	-0.140	-0.251
-94.816	-200.000	-0.007	0.101
-93.801	-143.124	0.238	0.023
-92.786	-200.000	0.010	-0.346
-91.772	-44.279	-0.361	-0.179
-90.757	-200.000	-0.008	0.223
-89.743	-200.000	-0.005	-0.301
-88.728	538.326	0.059	0.139
-87.713	-115.019	0.252	-0.047
-86.699	-114.355	-0.286	-0.054
-85.684	323.889	0.208	0.391
-84.670	-200.000	-0.016	-0.288
-83.655	-200.000	-0.002	-0.053
-82.640	766.470	0.072	0.193
-81.626	299.639	0.195	-0.355
-80.611	92.052	-0.127	0.141
-79.597	98.102	0.120	-0.136
-78.582	137.628	0.170	0.219
-77.567	-200.000	0.020	-0.319
-76.553	85.674	-0.132	-0.143
-75.538	-21.948	0.329	0.197
-74.524	111.277	-0.258	0.307
-73.509	-200.000	-0.093	0.435
-72.494	521.866	-0.105	0.243
-71.480	98.090	0.082	0.093
-70.465	41.423	0.049	0.044
-69.451	588.966	-0.099	-0.240
-68.436	127.683	-0.078	-0.098
-67.422	-71.026	0.332	-0.123
-66.407	-133.794	-0.114	0.014
-65.392	800.000	-0.032	-0.091
-64.378	332.653	-0.150	-0.286
-63.363	-57.911	0.363	-0.156
-62.349	228.460	-0.066	-0.106
-61.334	35.652	-0.731	-0.634
-60.319	575.380	0.207	0.499
-59.305	-200.000	-0.099	-1.171
-58.290	137.473	0.838	1.081
-57.276	629.400	0.643	1.603
-56.261	-200.000	98.186	584.858
-55.246	540.339	1403.704	3293.830
-54.232	149.114	2621.531	3495.600
-53.217	107.132	2304.641	2699.044
-52.203	43.496	1915.894	1726.127
-51.188	37.140	1703.924	1486.598
-50.173	34.449	1659.297	1427.494
-49.159	52.384	1708.451	1606.330
-48.144	55.755	1725.683	1648.008
-47.130	37.041	1681.095	1465.698
-46.115	34.041	1666.335	1430.253
-45.100	33.932	1661.378	1425.122
-44.086	33.851	1658.771	1422.222
-43.071	33.848	1656.180	1419.921
-42.057	33.792	1653.885	1417.480
-41.042	33.823	1651.775	1415.849
-40.027	33.942	1650.017	1415.171
-39.013	33.856	1647.548	1412.360
-37.998	33.847	1645.692	1410.640
-36.984	33.871	1644.856	1410.046
-35.969	34.007	1643.088	1409.483
-34.954	34.021	1641.178	1407.897
-33.940	33.936	1640.007	1406.206
-32.925	33.915	1637.995	1404.273
-31.911	33.971	1636.120	1403.023
-30.896	33.986	1634.185	1401.412
-29.881	34.003	1632.698	1400.212
-28.867	33.919	1631.172	1398.230
-27.852	34.019	1629.122	1397.152
-26.838	34.057	1627.866	1396.297
-25.823	34.038	1626.885	1395.262
-24.809	33.993	1625.707	1393.861
-23.794	33.942	1624.141	1392.093
-22.779	33.989	1622.677	1391.130
-21.765	34.034	1620.446	1389.490
-20.750	34.002	1618.975	1387.934
-19.736	33.994	1617.816	1386.828
-18.721	34.007	1616.353	1385.617
-17.706	33.975	1614.651	1383.870
-16.692	33.907	1613.133	1382.017
-15.677	33.978	1611.931	1381.450
-14.663	34.033	1610.947	1380.948
-13.648	34.039	1608.823	1379.117
-12.633	34.092	1607.627	1378.425
-11.619	34.027	1605.712	1376.254
-10.604	34.025	1604.364	1375.035
-9.590	34.047	1603.207	1374.143
-8.575	34.116	1602.111	1373.651
-7.560	34.042	1600.825	1371.956
-6.546	34.021	1599.490	1370.609
-5.531	34.013	1598.305	1369.483
-4.517	34.065	1597.049	1368.724
-3.502	33.966	1596.259	1367.277
-2.487	34.124	1594.711	1367.037
-1.473	34.005	1583.249	1356.305
-0.458	31.568	1564.585	1323.059
0.556	28.187	1565.089	1293.048
1.571	26.038	1589.807	1297.905
2.586	25.417	1603.834	1304.734
3.600	21.888	1549.238	1235.407
4.615	11.850	1434.522	1078.033
5.629	3.216	1367.919	973.475
6.644	1.856	1359.351	958.742
7.659	1.809	1357.836	957.288
8.673	1.695	1356.794	955.754
9.688	1.601	1355.119	953.900
10.702	1.361	1351.972	950.101
11.717	4.849	1359.278	977.060
12.731	15.363	1378.919	1057.704
13.746	23.964	1393.914	1123.685
14.761	26.098	1396.157	1138.880
15.775	26.551	1395.959	1141.475
16.790	26.561	1395.971	1141.447
17.804	26.684	1395.246	1141.527
18.819	26.770	1395.089	1141.841
19.834	26.871	1394.674	1142.035
20.848	26.809	1393.971	1140.969
21.863	26.911	1393.151	1140.836
22.877	26.903	1392.166	1139.883
23.892	27.009	1391.000	1139.488
24.907	27.018	1389.797	1138.463
25.921	26.971	1388.907	1137.338
26.936	26.915	1388.504	1136.556
27.950	26.810	1387.585	1135.042
28.965	26.960	1385.797	1134.418
29.980	26.909	1384.841	1133.218
30.994	26.944	1383.537	1132.269
32.009	26.997	1382.419	1131.583
33.023	27.078	1381.120	1130.925
34.038	26.982	1380.087	1129.385
35.053	26.904	1379.238	1128.104
36.067	26.908	1378.518	1127.438
37.082	26.917	1377.662	1126.692
38.096	26.817	1376.829	1125.296
39.111	26.956	1375.973	1125.355
40.126	26.958	1375.237	1124.667
41.140	26.896	1374.678	1123.725
42.155	26.840	1374.716	1123.310
43.169	26.903	1374.250	1123.222
44.184	26.942	1373.627	1122.851
45.199	26.872	1373.178	1121.952
46.213	26.980	1372.815	1122.225
47.228	26.943	1371.971	1121.209
48.242	26.982	1370.951	1120.516
49.257	26.961	1369.283	1118.924
50.271	26.907	1367.849	1117.322
51.286	26.989	1366.530	1116.652
52.301	26.928	1365.382	1115.238
53.315	26.879	1364.774	1114.340
54.330	26.898	1364.106	1113.813
55.344	26.958	1362.918	1113.112
56.359	26.885	1362.018	1111.831
57.374	26.844	1361.309	1110.905
58.388	26.752	1360.700	1109.744
59.403	26.938	1360.289	1110.448
60.417	26.915	1359.966	1109.948
61.432	26.909	1358.987	1109.016
62.447	26.891	1358.036	1108.031
63.461	26.885	1356.928	1106.989
64.476	26.889	1356.037	1106.191
65.490	26.984	1354.652	1105.544
66.505	26.958	1353.133	1104.048
67.520	26.957	1352.082	1103.086
68.534	26.978	1351.096	1102.310
69.549	26.914	1350.603	1101.418
70.563	27.027	1349.055	1100.749
71.578	27.030	1347.984	1099.790
72.593	26.938	1347.194	1098.495
73.607	26.892	1347.066	1098.012
74.622	26.947	1345.791	1097.213
75.636	26.968	1345.139	1096.711
76.651	26.925	1344.480	1095.814
77.666	26.968	1344.466	1095.968
78.680	26.990	1343.754	1095.420
79.695	26.994	1342.909	1094.659
80.709	26.938	1342.053	1093.529
81.724	26.887	1341.307	1092.514
82.739	27.005	1340.100	1092.147
83.753	26.868	1339.613	1090.827
84.768	27.011	1338.151	1090.404
85.782	26.940	1337.140	1089.053
86.797	26.918	1336.236	1088.087
87.812	27.016	1334.689	1087.320
88.826	26.941	1334.125	1086.315
89.841	26.980	1333.414	1085.873
90.855	27.084	1331.819	1085.101
91.870	26.978	1330.815	1083.554
92.884	27.018	1330.605	1083.523
93.899	27.064	1329.264	1082.610
94.914	27.078	1328.794	1082.220
95.928	27.109	1327.649	1081.376
96.943	26.988	1327.372	1080.332
97.957	27.107	1326.207	1079.997
98.972	27.077	1325.647	1079.263
99.987	26.948	1324.858	1077.760
101.001	26.975	1323.861	1077.018
102.016	26.900	1323.088	1075.844
103.030	26.983	1321.988	1075.348
104.045	27.010	1321.185	1074.762
105.060	27.061	1320.295	1074.244
106.074	26.958	1319.513	1072.900
107.089	27.015	1318.421	1072.258
108.103	27.003	1317.314	1071.190
109.118	27.076	1316.190	1070.609
110.133	27.059	1315.149	1069.568
111.147	27.152	1313.554	1068.725
112.162	27.171	1312.830	1068.153
113.176	27.109	1311.695	1066.770
114.191	27.101	1310.642	1065.776
115.206	26.987	1309.967	1064.465
116.220	27.085	1308.789	1063.987
117.235	27.017	1308.199	1063.012
118.249	27.038	1307.360	1062.361
119.264	26.998	1306.353	1061.214
120.279	27.055	1306.118	1061.261
121.293	27.062	1305.238	1060.494
122.308	27.150	1304.022	1059.928
123.322	27.143	1303.181	1059.108
124.337	27.138	1302.459	1058.400
125.352	27.193	1301.502	1057.850
126.366	27.162	1300.769	1056.976
127.381	27.108	1299.916	1055.876
128.395	27.200	1298.918	1055.506
129.410	27.289	1298.111	1055.275
130.424	27.193	1297.556	1054.175
131.439	27.163	1296.393	1052.961
132.454	27.229	1295.774	1052.749
133.468	27.055	1295.620	1051.524
134.483	27.224	1294.746	1051.696
135.497	27.148	1293.871	1050.455
136.512	27.166	1292.995	1049.756
137.527	27.210	1291.618	1048.796
138.541	27.112	1290.376	1047.131
139.556	27.093	1289.153	1045.935
140.570	27.104	1288.006	1044.978
141.585	27.029	1287.481	1044.029
142.600	27.084	1286.222	1043.227
143.614	26.961	1285.963	1042.221
144.629	27.074	1284.696	1041.749
145.643	27.002	1283.479	1040.256
146.658	27.072	1282.441	1039.724
147.673	27.042	1281.544	1038.733
148.687	27.094	1280.497	1038.094
149.702	27.027	1279.589	1036.879
150.716	27.032	1278.554	1035.977
151.731	27.068	1277.507	1035.246
152.746	27.139	1276.030	1034.362
153.760	27.205	1275.120	1033.906
154.775	27.102	1274.456	1032.688
155.789	27.133	1273.483	1031.985
156.804	27.100	1272.680	1031.058
157.819	27.075	1271.858	1030.160
158.833	27.164	1271.234	1030.069
159.848	27.216	1270.291	1029.508
160.862	27.181	1269.576	1028.634
161.877	27.171	1269.078	1028.086
162.892	27.125	1268.108	1026.948
163.906	27.109	1267.809	1026.524
164.921	27.255	1266.906	1026.526
165.935	27.209	1266.121	1025.539
166.950	27.185	1265.397	1024.726
167.964	27.123	1265.213	1024.142
168.979	27.211	1264.418	1023.903
169.994	27.159	1263.868	1023.075
171.008	27.283	1262.907	1022.902
172.023	27.206	1262.212	1021.813
173.037	27.175	1261.875	1021.280
174.052	27.107	1261.079	1020.159
175.067	27.106	1259.958	1019.156
176.081	27.294	1259.088	1019.416
177.096	27.300	1257.985	1018.467
178.110	27.227	1257.401	1017.495
179.125	27.319	1255.939	1016.739
180.140	27.299	1254.849	1015.656
181.154	27.244	1254.410	1014.905
182.169	27.208	1253.373	1013.772
183.183	27.146	1252.900	1012.957
184.198	27.266	1251.152	1012.122
185.213	27.364	1250.112	1011.737
186.227	27.261	1249.609	1010.663
187.242	27.322	1248.289	1009.846
188.256	27.230	1247.777	1008.832
189.271	27.294	1246.548	1008.106
190.286	27.233	1246.201	1007.396
191.300	27.263	1245.882	1007.217
192.315	27.304	1244.993	1006.633
193.329	27.365	1245.016	1006.905
194.344	27.338	1244.186	1005.993
195.359	27.367	1243.276	1005.329
196.373	27.310	1243.283	1004.928
197.388	27.288	1243.188	1004.642
198.402	27.223	1242.271	1003.453
199.417	27.297	1242.085	1003.623
200.432	27.296	1241.662	1003.187
201.446	27.277	1241.227	1002.644
202.461	27.311	1239.943	1001.703
203.475	27.243	1239.337	1000.750
204.490	27.361	1238.216	1000.404
205.504	27.401	1237.165	999.688
206.519	27.485	1236.091	999.191
207.534	27.475	1235.562	998.624
208.548	27.383	1234.654	997.294
209.563	27.506	1233.517	996.963
210.577	27.402	1232.897	995.806
211.592	27.343	1232.617	995.164
212.607	27.400	1231.409	994.413
213.621	27.513	1230.401	994.131
214.636	27.566	1229.917	993.938
215.650	27.420	1229.134	992.425
216.665	27.550	1227.841	992.001
217.680	27.472	1227.329	991.074
218.694	27.458	1226.695	990.396
219.709	27.490	1225.722	989.700
220.723	27.518	1224.976	989.162
221.738	27.409	1224.494	988.089
222.753	27.479	1223.508	987.589
223.767	27.517	1223.160	987.428
224.782	27.433	1222.883	986.662
225.796	27.620	1222.000	986.870
226.811	27.632	1221.165	986.173
227.826	27.610	1220.929	985.781
228.840	27.571	1220.069	984.786
229.855	27.588	1219.682	984.477
230.869	27.616	1218.835	983.858
231.884	27.476	1218.217	982.520
232.899	27.599	1217.545	982.551
233.913	27.578	1216.863	981.800
234.928	27.602	1216.518	981.568
235.942	27.718	1215.777	981.507
236.957	27.572	1215.334	980.274
237.972	27.589	1214.541	979.641
238.986	27.616	1213.877	979.163
240.001	27.654	1213.236	978.763
241.015	27.656	1212.589	978.166
242.030	27.744	1211.367	977.565
243.045	27.770	1210.883	977.226
244.059	27.784	1210.128	976.604
245.074	27.801	1209.263	975.915
246.088	27.705	1208.891	975.016
247.103	27.784	1207.864	974.519
248.117	27.718	1207.112	973.476
249.132	27.888	1206.133	973.508
250.147	27.730	1205.850	972.348
251.161	27.796	1205.163	972.059
252.176	27.741	1204.289	970.976
253.190	27.823	1203.463	970.660
254.205	27.864	1202.692	970.173
255.220	27.816	1202.165	969.407
256.234	27.842	1201.772	969.141
257.249	27.783	1201.412	968.451
258.263	27.773	1200.841	967.851
259.278	27.792	1200.160	967.317
260.293	27.864	1199.775	967.305
261.307	27.895	1198.997	966.753
262.322	27.821	1198.298	965.716
263.336	27.838	1197.788	965.309
264.351	27.892	1197.070	964.931
265.366	27.818	1196.633	964.100
266.380	27.906	1195.793	963.801
267.395	27.859	1195.029	962.855
268.409	27.863	1194.531	962.387
269.424	27.823	1194.355	961.951
270.439	27.797	1193.900	961.361
271.453	27.929	1192.891	961.157
272.468	27.859	1192.019	960.003
273.482	27.813	1191.416	959.194
274.497	27.947	1190.727	959.257
275.512	27.903	1190.732	958.946
276.526	28.043	1189.385	958.510
277.541	27.997	1188.652	957.591
278.555	27.993	1188.591	957.437
279.570	28.038	1187.298	956.549
280.585	28.000	1186.512	955.628
281.599	27.996	1185.867	955.003
282.614	27.967	1185.392	954.387
283.628	28.020	1184.231	953.646
284.643	28.049	1183.101	952.802
285.657	28.071	1182.489	952.338
286.672	27.891	1182.032	950.946
287.687	28.054	1181.203	951.047
288.701	28.008	1180.427	950.098
289.716	28.170	1179.424	950.049
290.730	28.032	1179.009	948.912
291.745	28.099	1178.566	948.818
292.760	28.134	1177.702	948.220
293.774	28.060	1177.705	947.758
294.789	28.119	1177.129	947.516
295.803	28.266	1176.028	947.304
296.818	28.170	1175.403	946.223
297.833	28.083	1174.767	945.178
298.847	28.287	1173.847	945.404
299.862	28.217	1173.181	944.425
300.876	28.143	1172.715	943.583
301.891	28.219	1171.916	943.250
302.906	28.288	1171.464	943.157
303.920	28.300	1170.606	942.447
304.935	28.304	1170.145	942.011
305.949	28.327	1169.256	941.331
306.964	28.361	1168.598	940.891
307.979	28.305	1168.420	940.379
308.993	28.316	1167.646	939.726
310.008	28.251	1167.031	938.818
311.022	28.397	1165.853	938.532
312.037	28.279	1165.197	937.321
313.052	28.227	1164.706	936.572
314.066	28.355	1163.462	936.147
315.081	28.278	1163.075	935.359
316.095	28.337	1162.385	935.021
317.110	28.418	1161.601	934.723
318.125	28.272	1161.200	933.571
319.139	28.345	1160.506	933.302
320.154	28.398	1159.920	933.017
321.168	28.315	1159.656	932.302
322.183	28.380	1158.877	931.924
323.197	28.449	1158.183	931.635
324.212	28.347	1157.664	930.614
325.227	28.405	1157.377	930.595
326.241	28.350	1156.960	929.898
327.256	28.469	1155.932	929.595
328.270	28.578	1154.830	929.179
329.285	28.497	1154.536	928.452
330.300	28.436	1153.555	927.268
331.314	28.511	1152.632	926.825
332.329	28.488	1151.896	926.033
333.343	28.617	1150.957	925.848
334.358	28.574	1150.222	924.959
335.373	28.541	1149.790	924.362
336.387	28.645	1148.755	923.972
337.402	28.660	1148.266	923.576
338.416	28.595	1147.572	922.604
339.431	28.575	1146.893	921.877
340.446	28.611	1146.609	921.751
341.460	28.738	1145.803	921.659
342.475	28.717	1145.094	920.902
343.489	28.721	1144.098	920.038
344.504	28.748	1143.294	919.444
345.519	28.818	1142.319	918.932
346.533	28.737	1141.823	918.046
347.548	28.788	1141.170	917.695
348.562	28.604	1140.743	916.351
349.577	28.713	1139.926	916.156
350.592	28.692	1139.119	915.321
351.606	28.656	1138.608	914.653
352.621	28.798	1137.914	914.719
353.635	28.783	1137.495	914.227
354.650	28.651	1136.597	912.770
355.665	28.701	1135.931	912.400
356.679	28.815	1135.513	912.552
357.694	28.801	1134.798	911.826
358.708	28.844	1134.028	911.342
359.723	28.838	1133.119	910.501
360.738	28.837	1132.704	910.082
361.752	28.885	1132.070	909.729
362.767	28.805	1131.576	908.854
363.781	28.832	1131.199	908.604
364.796	28.942	1130.219	908.282
365.810	28.799	1129.921	907.257
366.825	28.928	1129.393	907.385
367.840	29.153	1128.616	907.792
368.854	29.079	1128.210	907.020
369.869	28.957	1127.567	905.820
370.883	28.915	1126.653	904.801
371.898	29.019	1126.094	904.785
372.913	29.035	1125.231	904.086
373.927	29.039	1124.946	903.801
374.942	28.924	1124.918	903.130
375.956	29.059	1124.041	903.011
376.971	29.011	1123.572	902.316
377.986	28.982	1123.284	901.862
379.000	29.149	1122.581	902.040
380.015	29.060	1122.213	901.226
381.029	29.062	1121.640	900.699
382.044	29.090	1120.711	900.006
383.059	29.083	1119.999	899.323
384.073	29.125	1119.534	899.072
385.088	29.102	1118.731	898.239
386.102	29.185	1117.589	897.647
387.117	29.118	1116.855	896.649
388.132	29.062	1115.848	895.492
389.146	29.140	1115.138	895.221
390.161	29.142	1114.869	894.936
391.175	29.173	1113.887	894.221
392.190	29.162	1113.606	893.859
393.205	29.227	1112.414	893.141
394.219	29.188	1111.647	892.253
395.234	29.241	1111.001	891.918
396.248	29.250	1110.199	891.236
397.263	29.276	1109.591	890.795
398.278	29.326	1109.248	890.683
399.292	29.292	1108.598	889.917
400.307	29.351	1107.778	889.463
401.321	29.367	1107.077	888.902
402.336	29.378	1106.234	888.195
403.350	29.321	1106.005	887.660
404.365	29.390	1105.533	887.537
405.380	29.298	1104.724	886.362
406.394	29.445	1103.621	886.110
407.409	29.547	1102.982	886.005
408.423	29.552	1102.181	885.306
409.438	29.491	1101.766	884.602
410.453	29.508	1101.167	884.127
411.467	29.483	1100.163	883.121
412.482	29.491	1099.578	882.611
413.496	29.460	1099.077	881.983
414.511	29.523	1098.327	881.608
415.526	29.365	1098.203	880.671
416.540	29.574	1097.791	881.264
417.555	29.517	1097.257	880.483
418.569	29.561	1096.660	880.136
419.584	29.592	1096.275	879.899
420.599	29.666	1095.877	879.854
421.613	100.840	1320.037	1447.548
422.628	94.127	1352.678	1447.677
