DTS Sentinel unit serial number:	SN413079Multiplexer serial number:	ORYXHardware model number:	OX4-SRSoftware version number:	ORYX F/W v4.00 Oryx Data Collector v3.7.2.0data status	okinstallation	princeton_trtdifferential loss correction	single-endedforward channel	channel 2reverse channel	N/Adate	2019/09/13time	10:55:34forward acquisition time	60.00reverse acquisition time	0.00gamma	496.2192k internal	0.2322k external	0.2322temperature offset calibration	1.0200default loss term (dB/km)	0.3790temperature slope calibration	1.0000multiplexer offset coefficient	1.0000multiplexer slope coefficient	1.0000fibre end	0.00T internal ref (°C)	31.75T ext. ref 1 (°C)	4.62T ext. ref 2 (°C)	28.25length (m)	temperature (°C)	Stokes	anti-Stokes-747.200	800.000	0.136	0.557
-746.185	-69.680	0.404	0.156
-745.171	-200.000	0.070	0.341
-744.156	-200.000	-0.007	0.152
-743.142	-76.338	-0.383	-0.136
-742.127	-72.390	-0.099	0.037
-741.112	-8.390	0.295	-0.200
-740.098	492.954	0.039	-0.090
-739.083	800.000	0.038	-0.116
-738.069	-59.624	-0.098	0.042
-737.054	-200.000	-0.036	-0.332
-736.039	-29.931	-0.191	-0.110
-735.025	-120.307	-0.182	-0.031
-734.010	517.080	0.037	-0.088
-732.996	32.856	-0.121	-0.105
-731.981	242.388	-0.063	-0.107
-730.966	701.317	0.108	0.287
-729.952	-16.843	-0.090	0.058
-728.937	40.693	0.147	0.133
-727.923	-25.268	-0.241	0.144
-726.908	291.793	0.078	-0.143
-725.894	-77.638	-0.315	-0.110
-724.879	-94.748	0.262	-0.072
-723.864	-111.621	-0.248	0.051
-722.850	-95.812	-0.200	0.054
-721.835	15.481	-0.070	0.055
-720.821	40.168	-0.295	-0.268
-719.806	-17.828	0.165	-0.104
-718.791	-25.588	-0.075	0.045
-717.777	-164.320	0.192	0.009
-716.762	32.296	-0.064	0.056
-715.748	800.000	0.081	-0.272
-714.733	9.935	-0.182	0.140
-713.718	593.514	-0.066	0.163
-712.704	262.922	-0.159	0.279
-711.689	800.000	-0.061	-0.172
-710.675	746.512	0.075	-0.204
-709.660	800.000	-0.046	-0.191
-708.645	-200.000	0.022	-0.218
-707.631	130.318	0.065	0.085
-706.616	-121.471	0.377	-0.063
-705.602	-31.278	0.270	0.153
-704.587	-200.000	0.006	-0.035
-703.572	-105.471	-0.126	0.029
-702.558	186.692	0.120	-0.180
-701.543	-78.584	0.064	-0.022
-700.529	800.000	-0.047	-0.176
-699.514	-173.219	-0.279	0.009
-698.499	212.695	-0.145	-0.231
-697.485	-101.995	0.101	0.024
-696.470	202.189	-0.138	-0.215
-695.456	-150.471	-0.688	0.053
-694.441	800.000	0.043	0.153
-693.426	-141.181	-0.255	0.026
-692.412	-161.856	0.360	0.018
-691.397	549.412	-0.054	-0.129
-690.383	185.853	-0.260	-0.389
-689.368	283.264	-0.098	0.178
-688.354	110.534	0.061	0.074
-687.339	699.074	0.134	0.354
-686.324	-191.353	0.149	0.002
-685.310	-124.391	-0.413	-0.065
-684.295	-43.420	-0.172	0.088
-683.281	-103.912	-0.184	0.043
-682.266	323.656	-0.066	-0.126
-681.251	684.096	-0.057	0.150
-680.237	163.468	-0.210	-0.297
-679.222	-200.000	0.008	-0.075
-678.208	-114.866	-0.372	0.071
-677.193	-103.556	-0.237	0.056
-676.178	427.781	0.093	-0.202
-675.164	-43.860	0.116	-0.059
-674.149	-200.000	-0.001	-0.067
-673.135	27.236	-0.168	0.142
-672.120	-141.052	0.212	0.022
-671.105	529.172	-0.059	-0.139
-670.091	88.356	0.336	-0.376
-669.076	-45.069	0.061	-0.031
-668.062	-31.872	-0.150	0.085
-667.047	259.467	-0.058	0.100
-666.032	70.399	0.064	-0.067
-665.018	54.933	-0.284	0.276
-664.003	-127.195	-0.292	-0.043
-662.989	-200.000	0.006	0.099
-661.974	-56.145	0.211	0.095
-660.959	-107.601	-0.164	0.036
-659.945	-200.000	0.009	0.282
-658.930	-1.108	-0.112	0.079
-657.916	-108.354	-0.192	0.042
-656.901	-174.307	-0.234	0.007
-655.886	223.346	0.049	-0.080
-654.872	49.581	-0.122	0.116
-653.857	-95.773	-0.206	0.056
-652.843	-91.538	0.044	0.013
-651.828	375.571	0.137	-0.282
-650.814	-15.637	-0.070	0.045
-649.799	269.032	0.232	-0.410
-648.784	30.052	-0.064	0.055
-647.770	-85.315	-0.209	0.066
-646.755	54.532	-0.197	0.191
-645.741	128.947	0.062	-0.079
-644.726	205.047	-0.126	-0.197
-643.711	-200.000	0.007	0.307
-642.697	-121.633	-0.077	-0.013
-641.682	-4.978	-0.324	-0.224
-640.668	2.026	0.245	-0.178
-639.653	-106.338	-0.312	0.070
-638.638	-170.237	0.142	-0.005
-637.624	68.618	0.105	-0.109
-636.609	800.000	0.078	-0.232
-635.595	1.249	0.057	0.041
-634.580	241.129	0.029	-0.048
-633.565	22.083	0.076	-0.063
-632.551	-109.609	-0.308	-0.065
-631.536	246.605	-0.077	0.130
-630.522	-38.293	-0.376	0.200
-629.507	33.002	0.055	0.048
-628.492	-200.000	0.010	0.051
-627.478	-137.961	0.221	0.025
-626.463	73.794	-0.225	-0.237
-625.449	141.536	-0.196	0.260
-624.434	175.195	0.108	0.158
-623.419	-72.045	0.202	-0.075
-622.405	-120.779	-0.092	-0.016
-621.390	-57.894	0.232	-0.102
-620.376	-200.000	0.022	-0.160
-619.361	800.000	-0.102	-0.301
-618.346	-171.860	-0.239	0.008
-617.332	-186.284	0.125	0.002
-616.317	-86.236	-0.136	-0.042
-615.303	-40.291	-0.164	-0.086
-614.288	-36.446	-0.101	0.055
-613.273	-73.665	0.366	0.134
-612.259	121.027	0.101	-0.126
-611.244	440.769	-0.041	0.090
-610.230	-130.355	0.214	-0.029
-609.215	-62.251	-0.165	0.069
-608.201	402.560	0.062	0.130
-607.186	-32.911	0.181	0.101
-606.171	55.392	0.033	-0.032
-605.157	-63.574	-0.308	-0.127
-604.142	800.000	-0.130	0.476
-603.128	-200.000	0.032	-0.236
-602.113	119.817	0.174	-0.217
-601.098	-0.552	-0.094	-0.067
-600.084	-29.158	0.148	0.085
-599.069	-112.031	-0.287	0.058
-598.055	-121.495	-0.386	-0.064
-597.040	-26.672	-0.013	-0.008
-596.025	20.782	0.243	0.197
-595.011	-66.536	0.296	-0.118
-593.996	-128.668	-0.278	-0.039
-592.982	-183.777	-0.110	-0.002
-591.967	59.162	-0.140	0.139
-590.952	-170.837	0.238	0.008
-589.938	256.084	-0.089	-0.153
-588.923	-81.537	0.081	0.027
-587.909	194.517	0.182	-0.278
-586.894	-11.363	0.166	0.110
-585.879	-200.000	-0.063	0.460
-584.865	-54.734	0.118	-0.053
-583.850	205.897	0.117	-0.183
-582.836	-141.247	0.142	-0.014
-581.821	-78.171	0.175	0.060
-580.806	505.296	0.079	0.185
-579.792	-84.992	-0.244	0.077
-578.777	-200.000	-0.010	-0.151
-577.763	-86.860	-0.276	-0.085
-576.748	-200.000	-0.031	-0.139
-575.733	46.581	-0.181	-0.169
-574.719	-36.070	0.122	-0.066
-573.704	-106.243	0.171	-0.039
-572.690	-14.973	0.228	-0.147
-571.675	-200.000	-0.041	0.190
-570.661	-200.000	0.019	0.121
-569.646	706.309	-0.031	0.081
-568.631	-62.869	-0.118	-0.049
-567.617	-19.074	0.210	-0.131
-566.602	-82.975	-0.295	-0.095
-565.588	139.164	-0.139	0.184
-564.573	0.045	-0.046	0.033
-563.558	475.239	-0.015	0.035
-562.544	-68.745	0.089	-0.035
-561.529	191.850	0.041	0.063
-560.515	-200.000	-0.018	0.133
-559.500	-82.483	-0.241	-0.078
-558.485	-200.000	0.075	0.379
-557.471	-152.723	-0.264	0.019
-556.456	-200.000	-0.015	-0.131
-555.442	92.965	-0.167	0.190
-554.427	-200.000	0.000	0.231
-553.412	-78.979	-0.133	0.046
-552.398	-161.093	-0.261	0.014
-551.383	146.130	0.089	0.120
-550.369	-125.992	0.420	0.063
-549.354	158.995	-0.156	-0.218
-548.339	-11.607	-0.126	0.083
-547.325	800.000	-0.005	0.020
-546.310	800.000	-0.071	-0.295
-545.296	97.840	0.095	0.109
-544.281	365.757	0.020	-0.040
-543.266	-200.000	-0.005	0.143
-542.252	-84.258	0.253	0.080
-541.237	348.776	0.094	0.185
-540.223	6.787	-0.222	0.166
-539.208	97.040	-0.086	0.098
-538.193	-2.425	-0.141	0.099
-537.179	800.000	0.100	0.366
-536.164	71.721	-0.038	-0.040
-535.150	-32.553	-0.135	-0.075
-534.135	-150.184	0.094	0.007
-533.121	-54.750	-0.155	-0.070
-532.106	-47.713	-0.223	-0.108
-531.091	-18.911	-0.109	-0.068
-530.077	-136.158	-0.254	0.030
-529.062	800.000	0.026	0.113
-528.048	247.089	0.075	0.126
-527.033	-9.367	-0.072	-0.048
-526.018	-200.000	-0.021	0.141
-525.004	327.535	0.078	-0.149
-523.989	33.500	0.286	-0.249
-522.975	142.655	-0.114	0.151
-521.960	-200.000	0.026	-0.164
-520.945	800.000	-0.120	0.348
-519.931	-135.014	0.179	-0.022
-518.916	317.452	0.150	0.284
-517.902	41.298	0.253	-0.229
-516.887	771.554	-0.118	-0.321
-515.872	87.131	-0.150	-0.166
-514.858	2.467	-0.185	0.134
-513.843	-74.118	-0.163	-0.059
-512.829	800.000	0.015	0.048
-511.814	-200.000	0.381	0.000
-510.799	-71.271	-0.087	0.033
-509.785	-125.983	-0.261	0.039
-508.770	800.000	0.055	0.172
-507.756	-200.000	-0.023	0.161
-506.741	-200.000	-0.025	0.177
-505.726	67.421	-0.233	-0.238
-504.712	-135.851	0.213	-0.025
-503.697	47.175	0.049	0.046
-502.683	44.047	0.323	0.297
-501.668	282.496	0.149	-0.267
-500.653	800.000	-0.053	-0.199
-499.639	-4.242	0.169	0.117
-498.624	800.000	-0.030	0.106
-497.610	411.028	0.103	0.219
-496.595	-84.440	-0.209	-0.066
-495.581	-123.244	-0.173	0.028
-494.566	658.165	-0.047	0.122
-493.551	-129.271	0.096	-0.013
-492.537	-70.708	0.097	0.036
-491.522	207.421	-0.162	0.253
-490.508	381.525	-0.163	-0.335
-489.493	-200.000	-0.014	-0.210
-488.478	177.819	-0.232	-0.338
-487.464	67.819	-0.038	-0.039
-486.449	-200.000	0.014	-0.353
-485.435	-45.888	0.239	-0.118
-484.420	701.041	-0.089	-0.235
-483.405	-200.000	-0.037	0.204
-482.391	-178.035	0.119	-0.003
-481.376	625.177	0.063	0.159
-480.362	-163.597	0.201	0.009
-479.347	-200.000	0.009	0.212
-478.332	237.733	-0.165	-0.273
-477.318	0.556	0.308	0.220
-476.303	-123.012	0.226	0.036
-475.289	-109.289	-0.078	-0.017
-474.274	-200.000	0.012	-0.198
-473.259	-200.000	-0.015	0.126
-472.245	661.169	0.159	-0.408
-471.230	298.008	0.082	-0.151
-470.216	-45.752	0.039	0.019
-469.201	-200.000	-0.002	0.038
-468.186	-115.252	0.282	0.053
-467.172	-200.000	0.042	-0.203
-466.157	-58.484	-0.242	0.105
-465.143	190.745	-0.080	-0.120
-464.128	94.832	-0.083	-0.094
-463.113	-112.802	-0.183	0.036
-462.099	-129.634	-0.162	-0.022
-461.084	-81.966	-0.161	-0.052
-460.070	800.000	0.060	0.209
-459.055	459.382	0.044	-0.097
-458.040	-59.070	-0.439	-0.189
-457.026	-200.000	-0.023	0.163
-456.011	-160.064	-0.371	-0.020
-454.997	-70.882	0.215	-0.081
-453.982	-200.000	-0.036	0.174
-452.968	57.135	-0.202	-0.197
-451.953	-141.822	-0.136	-0.014
-450.938	-180.087	0.061	-0.001
-449.924	106.858	0.245	0.291
-448.909	800.000	0.028	0.112
-447.895	-52.894	-0.162	0.075
-446.880	-163.102	-0.156	-0.008
-445.865	20.379	0.236	-0.190
-444.851	-45.430	0.155	0.077
-443.836	-170.377	-0.352	-0.012
-442.822	-66.999	0.327	-0.129
-441.807	-88.993	0.345	0.102
-440.792	130.340	-0.094	0.121
-439.778	-43.135	0.254	0.129
-438.763	-20.704	-0.131	-0.080
-437.749	-100.356	0.350	-0.087
-436.734	-34.456	-0.132	-0.072
-435.719	120.107	0.084	-0.104
-434.705	800.000	0.073	0.252
-433.690	-84.876	-0.233	0.073
-432.676	20.229	-0.250	0.202
-431.661	598.127	-0.126	-0.313
-430.646	675.871	0.025	0.066
-429.632	292.279	0.185	0.336
-428.617	210.362	0.144	0.226
-427.603	800.000	0.066	0.182
-426.588	-108.421	-0.377	-0.081
-425.573	67.881	-0.140	-0.143
-424.559	-116.776	-0.160	0.029
-423.544	-94.132	0.076	-0.021
-422.530	154.669	0.059	-0.080
-421.515	327.439	-0.078	0.149
-420.500	-162.516	-0.068	-0.003
-419.486	-115.933	0.265	0.049
-418.471	161.467	0.168	-0.234
-417.457	-200.000	-0.010	-0.172
-416.442	800.000	0.083	-0.269
-415.428	477.703	-0.074	0.166
-414.413	-52.237	-0.160	0.074
-413.398	-200.000	-0.025	0.266
-412.384	586.008	-0.181	0.444
-411.369	-31.536	0.129	-0.072
-410.355	800.000	-0.063	0.246
-409.340	144.462	-0.090	-0.120
-408.325	196.151	-0.083	0.126
-407.311	112.119	-0.137	-0.165
-406.296	-179.384	-0.177	0.004
-405.282	44.028	-0.196	-0.179
-404.267	800.000	-0.090	-0.293
-403.252	-124.274	0.130	-0.020
-402.238	-16.535	-0.244	-0.154
-401.223	-81.087	-0.205	0.068
-400.209	29.701	-0.114	0.097
-399.194	-200.000	-0.029	0.258
-398.179	-200.000	-0.017	0.455
-397.165	-200.000	-0.006	0.203
-396.150	30.370	0.254	-0.216
-395.136	60.831	0.178	0.176
-394.121	262.512	0.099	-0.172
-393.106	-200.000	0.040	0.418
-392.092	62.030	-0.051	-0.051
-391.077	-59.135	0.255	-0.110
-390.063	-72.957	0.249	-0.091
-389.048	-31.166	0.368	-0.207
-388.033	-200.000	-0.024	0.155
-387.019	-154.914	-0.007	-0.000
-386.004	-80.165	0.301	0.100
-384.990	61.040	0.147	-0.145
-383.975	23.174	-0.320	-0.262
-382.960	-200.000	0.012	0.173
-381.946	-76.706	0.088	0.031
-380.931	-84.333	-0.280	0.088
-379.917	23.981	-0.136	-0.112
-378.902	-102.392	-0.147	-0.035
-377.888	-154.373	0.052	0.003
-376.873	-45.005	0.106	0.052
-375.858	-200.000	0.035	-0.315
-374.844	-70.552	-0.089	-0.034
-373.829	-163.468	0.228	-0.011
-372.815	-11.941	0.164	-0.107
-371.800	800.000	0.075	0.256
-370.785	546.280	0.038	-0.090
-369.771	2.697	0.305	0.220
-368.756	70.534	-0.176	0.182
-367.742	33.748	-0.211	-0.183
-366.727	-32.588	0.260	0.144
-365.712	800.000	-0.030	0.082
-364.698	187.085	0.243	0.361
-363.683	800.000	0.044	-0.127
-362.669	-200.000	0.026	0.452
-361.654	800.000	0.069	-0.191
-360.639	-68.184	0.254	0.098
-359.625	-45.734	0.123	0.061
-358.610	-25.692	-0.234	-0.137
-357.596	-200.000	-0.050	0.228
-356.581	-200.000	-0.011	-0.313
-355.566	800.000	-0.089	0.328
-354.552	7.779	-0.169	-0.126
-353.537	347.059	0.049	0.096
-352.523	-200.000	0.009	0.309
-351.508	-45.368	-0.428	-0.211
-350.493	-3.582	0.118	0.082
-349.479	0.877	0.295	-0.211
-348.464	306.301	-0.095	0.176
-347.450	30.843	0.199	0.170
-346.435	66.246	-0.135	0.136
-345.420	65.181	-0.258	0.260
-344.406	315.938	-0.139	-0.262
-343.391	-26.975	-0.023	-0.014
-342.377	117.743	-0.194	0.238
-341.362	-73.147	0.079	0.029
-340.348	-200.000	0.078	-0.357
-339.333	-50.346	-0.122	-0.057
-338.318	-81.411	-0.236	0.077
-337.304	-42.411	0.429	0.218
-336.289	275.303	-0.058	-0.102
-335.275	-200.000	-0.015	-0.073
-334.260	-200.000	0.040	-0.183
-333.245	266.342	0.067	0.117
-332.231	57.438	0.062	-0.060
-331.216	-32.433	0.440	-0.244
-330.202	-60.545	0.287	-0.121
-329.187	15.852	-0.189	0.148
-328.172	-121.488	0.105	0.017
-327.158	652.322	0.151	-0.383
-326.143	-102.575	0.095	0.023
-325.129	-62.963	0.265	0.109
-324.114	81.658	-0.073	0.079
-323.099	134.446	-0.063	0.082
-322.085	-89.696	-0.114	-0.033
-321.070	7.192	0.057	0.042
-320.056	-74.889	0.178	-0.063
-319.041	226.852	0.196	-0.316
-318.026	70.146	0.269	0.276
-317.012	-200.000	-0.015	0.154
-315.997	77.101	0.152	0.160
-314.983	112.519	-0.023	-0.027
-313.968	800.000	0.121	-0.454
-312.953	67.127	-0.246	-0.249
-311.939	-53.647	0.206	-0.093
-310.924	-75.863	0.206	-0.072
-309.910	-36.107	-0.273	-0.146
-308.895	45.340	-0.070	0.064
-307.880	17.374	0.269	0.213
-306.866	506.915	0.091	0.210
-305.851	-139.040	0.066	0.007
-304.837	60.320	-0.079	-0.077
-303.822	-200.000	0.052	0.395
-302.807	800.000	-0.041	-0.170
-301.793	124.140	-0.245	0.306
-300.778	-200.000	-0.003	0.201
-299.764	464.986	0.124	-0.275
-298.749	-200.000	-0.021	-0.190
-297.735	-35.134	-0.180	-0.097
-296.720	-138.198	0.161	0.018
-295.705	-23.145	0.241	-0.144
-294.691	375.261	0.110	0.222
-293.676	0.619	0.184	0.130
-292.662	362.312	0.187	-0.372
-291.647	-95.783	-0.170	0.045
-290.632	-128.701	0.215	0.030
-289.618	-114.841	0.105	-0.020
-288.603	288.388	0.075	0.135
-287.589	-51.547	-0.298	0.138
-286.574	577.625	0.063	0.153
-285.559	94.608	-0.188	-0.212
-284.545	99.893	-0.154	-0.177
-283.530	114.246	0.043	0.052
-282.516	-117.651	0.150	0.027
-281.501	-64.095	0.260	-0.105
-280.486	-74.787	-0.190	0.068
-279.472	-105.558	0.122	-0.027
-278.457	-46.809	0.270	-0.131
-277.443	49.537	0.155	0.145
-276.428	-144.840	-0.114	-0.010
-275.413	800.000	-0.035	-0.132
-274.399	-69.924	-0.120	0.045
-273.384	800.000	0.042	-0.126
-272.370	21.528	0.228	-0.184
-271.355	-198.936	0.438	-0.002
-270.340	-70.143	0.380	-0.143
-269.326	-200.000	-0.038	0.187
-268.311	-23.669	-0.315	-0.187
-267.297	1.646	0.058	0.042
-266.282	368.329	0.076	0.152
-265.267	-36.919	0.035	-0.019
-264.253	800.000	0.030	-0.105
-263.238	67.237	0.200	-0.202
-262.224	135.708	-0.189	-0.244
-261.209	449.911	0.095	0.208
-260.195	70.241	-0.033	0.034
-259.180	213.772	-0.097	0.152
-258.165	-189.409	0.195	0.002
-257.151	41.804	-0.111	0.100
-256.136	100.149	-0.189	0.217
-255.122	440.186	-0.014	0.030
-254.107	-200.000	0.014	0.105
-253.092	-76.290	0.169	-0.059
-252.078	363.077	0.052	-0.103
-251.063	566.481	0.071	-0.171
-250.049	-200.000	-0.006	-0.060
-249.034	800.000	0.065	-0.243
-248.019	249.708	-0.164	-0.276
-247.005	96.032	0.278	-0.315
-245.990	-200.000	-0.028	0.138
-244.976	60.561	-0.260	-0.255
-243.961	-135.906	-0.179	0.021
-242.946	-11.691	0.332	-0.216
-241.932	83.220	-0.223	-0.240
-240.917	16.941	0.164	-0.129
-239.903	127.174	-0.137	-0.172
-238.888	800.000	0.049	0.153
-237.873	-42.988	-0.136	0.069
-236.859	20.747	-0.097	0.077
-235.844	199.462	0.129	-0.197
-234.830	-200.000	-0.002	-0.085
-233.815	492.284	0.088	0.199
-232.800	-37.798	-0.152	-0.080
-231.786	89.091	0.106	0.117
-230.771	-52.004	0.273	0.126
-229.757	-200.000	0.002	0.356
-228.742	-200.000	-0.029	0.307
-227.727	-99.973	0.100	0.025
-226.713	124.930	-0.120	0.150
-225.698	-130.719	-0.313	-0.042
-224.684	-71.882	-0.007	-0.003
-223.669	55.160	-0.136	0.130
-222.655	-103.927	-0.105	-0.024
-221.640	-31.287	-0.131	-0.073
-220.625	166.582	-0.359	-0.504
-219.611	-77.798	0.190	-0.065
-218.596	76.922	-0.073	-0.077
-217.582	-200.000	-0.029	0.356
-216.567	97.239	-0.103	-0.117
-215.552	-168.078	-0.164	-0.006
-214.538	-73.393	0.549	-0.199
-213.523	162.837	0.228	0.317
-212.509	-200.000	-0.062	0.366
-211.494	-33.339	-0.149	0.082
-210.479	-200.000	0.006	-0.185
-209.465	540.585	0.143	0.336
-208.450	-121.446	-0.187	-0.031
-207.436	-166.385	-0.560	-0.023
-206.421	800.000	-0.019	-0.068
-205.406	15.373	0.205	-0.159
-204.392	-200.000	0.005	-0.180
-203.377	-89.778	-0.421	-0.122
-202.363	87.942	0.080	0.087
-201.348	-102.413	0.286	0.068
-200.333	394.265	-0.097	-0.199
-199.319	-24.209	-0.229	-0.135
-198.304	18.990	0.140	-0.111
-197.290	-46.364	0.276	-0.134
-196.275	286.125	-0.121	-0.215
-195.260	-131.844	0.227	-0.029
-194.246	-74.556	0.135	-0.048
-193.231	-125.966	0.082	-0.012
-192.217	-99.085	-0.309	-0.077
-191.202	-17.897	-0.161	0.100
-190.187	-118.813	0.181	-0.031
-189.173	309.837	0.104	-0.191
-188.158	-61.478	0.494	-0.205
-187.144	-2.321	0.210	0.146
-186.129	800.000	0.007	-0.027
-185.114	197.297	-0.069	0.104
-184.100	800.000	0.052	0.150
-183.085	71.628	-0.098	-0.101
-182.071	-21.732	0.010	0.006
-181.056	483.128	-0.074	0.165
-180.042	-17.243	0.132	0.082
-179.027	800.000	0.060	-0.246
-178.012	159.765	0.080	0.111
-176.998	-22.691	-0.173	0.103
-175.983	228.505	-0.155	-0.250
-174.969	800.000	-0.103	0.309
-173.954	114.756	0.128	-0.154
-172.939	88.404	-0.180	-0.197
-171.925	9.518	-0.297	-0.222
-170.910	156.767	-0.068	0.092
-169.896	-200.000	0.057	0.304
-168.881	-106.112	-0.020	0.004
-167.866	-46.588	-0.197	-0.095
-166.852	-200.000	0.008	-0.287
-165.837	-137.476	0.530	-0.059
-164.823	-86.351	0.303	0.092
-163.808	-73.127	-0.203	0.074
-162.793	-57.764	-0.167	-0.072
-161.779	2.521	0.007	0.005
-160.764	-143.763	-0.228	-0.021
-159.750	-42.593	-0.346	0.174
-158.735	64.508	-0.190	-0.189
-157.720	-78.726	0.025	0.008
-156.706	256.860	-0.184	0.313
-155.691	58.552	-0.148	-0.143
-154.677	98.523	-0.131	-0.149
-153.662	800.000	-0.075	0.305
-152.647	-16.426	-0.235	0.147
-151.633	-61.088	0.148	-0.062
-150.618	-200.000	0.013	-0.194
-149.604	-154.492	-0.213	-0.014
-148.589	-92.224	0.255	0.071
-147.574	-200.000	0.011	0.184
-146.560	-200.000	-0.036	0.339
-145.545	-200.000	-0.009	0.192
-144.531	800.000	0.070	-0.205
-143.516	-123.957	-0.332	-0.052
-142.502	-200.000	0.063	-0.283
-141.487	82.046	0.079	0.084
-140.472	-191.077	-0.315	-0.003
-139.458	589.644	0.139	0.337
-138.443	89.914	0.093	0.103
-137.429	-106.445	0.533	0.117
-136.414	800.000	0.082	0.261
-135.399	2.198	-0.365	0.260
-134.385	-38.165	-0.178	-0.093
-133.370	26.789	0.120	0.099
-132.356	29.322	-0.135	0.113
-131.341	-200.000	0.006	-0.158
-130.326	800.000	-0.074	0.219
-129.312	-108.846	-0.126	0.027
-128.297	203.538	-0.090	-0.138
-127.283	800.000	0.026	0.105
-126.268	70.717	0.117	0.120
-125.253	-151.420	-0.123	0.009
-124.239	-153.601	0.176	-0.012
-123.224	-48.211	0.282	-0.134
-122.210	268.509	-0.123	0.212
-121.195	405.014	-0.198	0.411
-120.180	-172.718	0.362	0.011
-119.166	-93.014	-0.142	0.039
-118.151	-109.995	0.311	0.064
-117.137	83.748	-0.055	0.059
-116.122	113.713	0.221	0.264
-115.107	10.878	0.133	-0.100
-114.093	-200.000	-0.001	-0.586
-113.078	-113.318	0.145	0.028
-112.064	36.907	0.118	-0.103
-111.049	-93.561	-0.126	-0.034
-110.034	-33.612	-0.075	-0.041
-109.020	-38.154	0.131	0.068
-108.005	800.000	0.108	0.373
-106.991	-200.000	-0.034	0.269
-105.976	-200.000	-0.060	-0.401
-104.962	18.850	-0.201	0.159
-103.947	-108.541	-0.237	0.050
-102.932	-200.000	-0.001	-0.100
-101.918	-85.147	-0.118	-0.036
-100.903	-67.788	-0.198	-0.076
-99.889	-143.047	0.270	0.026
-98.874	281.646	-0.084	-0.148
-97.859	533.599	0.068	0.158
-96.845	-13.340	0.264	0.169
-95.830	259.373	-0.059	-0.100
-94.816	-77.431	-0.121	0.042
-93.801	321.695	0.118	0.222
-92.786	-14.898	-0.251	-0.159
-91.772	530.430	-0.037	-0.085
-90.757	-9.820	-0.163	0.107
-89.743	53.315	-0.072	-0.068
-88.728	-71.292	-0.073	0.027
-87.713	-8.420	-0.201	0.133
-86.699	-200.000	-0.007	0.161
-85.684	-98.847	0.371	0.093
-84.670	-63.345	-0.172	0.070
-83.655	-42.753	-0.059	-0.029
-82.640	31.608	0.150	-0.127
-81.626	-200.000	-0.005	-0.343
-80.611	-118.424	-0.260	0.045
-79.597	-95.678	-0.092	-0.024
-78.582	-119.973	0.083	0.014
-77.567	464.625	0.036	0.080
-76.553	-83.479	0.258	-0.081
-75.538	-10.570	0.322	0.210
-74.524	-49.851	-0.206	0.096
-73.509	-49.968	-0.074	0.035
-72.494	-200.000	0.051	0.230
-71.480	281.049	0.131	0.231
-70.465	-116.466	0.226	-0.041
-69.451	-167.642	-0.079	-0.003
-68.436	46.022	-0.196	0.178
-67.422	800.000	0.078	-0.307
-66.407	133.542	0.123	-0.156
-65.392	800.000	0.039	-0.106
-64.378	0.326	0.412	0.290
-63.363	-200.000	0.030	-0.353
-62.349	-135.927	0.155	0.018
-61.334	80.265	-0.943	-0.998
-60.319	800.000	0.137	0.456
-59.305	-200.000	-0.073	-0.691
-58.290	84.050	0.707	0.760
-57.276	577.320	0.744	1.789
-56.261	-200.000	95.421	597.570
-55.246	643.541	1393.706	3494.828
-54.232	191.342	2594.693	3841.089
-53.217	113.031	2298.252	2739.469
-52.203	41.368	1918.383	1706.223
-51.188	35.008	1706.498	1469.086
-50.173	32.279	1662.110	1410.384
-49.159	50.180	1708.483	1586.115
-48.144	51.581	1724.113	1611.195
-47.130	34.736	1685.707	1448.899
-46.115	31.906	1671.358	1415.189
-45.100	31.732	1666.180	1409.438
-44.086	31.639	1663.694	1406.578
-43.071	31.605	1661.272	1404.220
-42.057	31.665	1658.868	1402.588
-41.042	31.639	1656.672	1400.478
-40.027	31.579	1655.225	1398.747
-39.013	31.605	1652.771	1396.813
-37.998	31.600	1651.487	1395.637
-36.984	31.635	1649.870	1394.474
-35.969	31.738	1648.231	1393.805
-34.954	31.709	1646.959	1392.452
-33.940	31.747	1644.865	1390.911
-32.925	31.765	1643.381	1389.739
-31.911	31.834	1640.715	1387.939
-30.896	31.675	1639.777	1385.915
-29.881	31.736	1638.519	1385.243
-28.867	31.688	1636.391	1383.038
-27.852	31.734	1634.597	1381.802
-26.838	31.783	1633.467	1381.156
-25.823	31.729	1632.126	1379.569
-24.809	31.726	1630.591	1378.193
-23.794	31.862	1628.930	1377.739
-22.779	31.793	1627.617	1376.063
-21.765	31.733	1625.951	1374.162
-20.750	31.761	1624.317	1372.931
-19.736	31.735	1623.309	1371.835
-18.721	31.786	1621.514	1370.639
-17.706	31.867	1620.155	1370.027
-16.692	31.701	1619.282	1368.021
-15.677	31.775	1617.041	1366.611
-14.663	31.868	1615.801	1366.183
-13.648	31.860	1614.063	1364.604
-12.633	31.726	1613.213	1362.861
-11.619	31.805	1611.105	1361.593
-10.604	31.768	1609.789	1360.164
-9.590	31.810	1608.425	1359.262
-8.575	31.847	1606.777	1358.079
-7.560	31.751	1606.344	1356.969
-6.546	31.802	1604.721	1355.912
-5.531	31.799	1603.521	1354.822
-4.517	31.761	1602.462	1353.596
-3.502	31.765	1601.558	1352.806
-2.487	31.844	1599.445	1351.539
-1.473	31.651	1587.896	1340.348
-0.458	28.940	1568.136	1304.417
0.556	27.427	1568.352	1270.339
1.571	25.020	1592.055	1272.347
2.586	24.169	1604.329	1275.952
3.600	21.221	1550.718	1212.769
4.615	13.147	1440.510	1074.175
5.629	5.942	1377.030	981.822
6.644	4.547	1368.731	967.143
7.659	4.581	1367.998	966.747
8.673	4.658	1367.097	966.505
9.688	4.704	1365.287	965.424
10.702	4.640	1362.511	962.980
11.717	7.894	1369.024	987.716
12.731	16.178	1383.627	1049.919
13.746	21.766	1393.060	1091.901
14.761	22.555	1392.381	1096.180
15.775	21.886	1390.508	1090.452
16.790	20.874	1388.082	1082.169
17.804	20.140	1385.800	1075.744
18.819	19.828	1384.371	1072.605
19.834	19.665	1383.768	1071.030
20.848	19.558	1382.367	1069.186
21.863	19.332	1381.368	1066.923
22.877	19.205	1380.615	1065.460
23.892	19.241	1379.266	1064.552
24.907	19.131	1378.332	1063.051
25.921	19.133	1377.855	1062.604
26.936	19.175	1376.658	1061.846
27.950	19.212	1375.927	1061.419
28.965	19.260	1374.672	1060.648
29.980	19.557	1373.200	1061.246
30.994	19.614	1372.595	1061.033
32.009	19.627	1371.571	1060.230
33.023	19.666	1370.099	1059.239
34.038	19.408	1369.345	1056.979
35.053	19.320	1368.104	1055.389
36.067	19.301	1367.038	1054.355
37.082	19.367	1365.809	1053.719
38.096	19.505	1364.784	1053.675
39.111	19.580	1363.952	1053.399
40.126	19.425	1362.982	1051.615
41.140	19.050	1362.393	1048.778
42.155	18.933	1361.744	1047.474
43.169	18.914	1361.590	1047.145
44.184	18.860	1361.368	1046.553
45.199	18.903	1361.049	1046.477
46.213	19.088	1360.388	1047.003
47.228	19.262	1359.749	1047.476
48.242	19.322	1358.790	1047.008
49.257	19.335	1357.067	1045.669
50.271	19.316	1355.818	1044.500
51.286	19.348	1354.593	1043.657
52.301	19.377	1352.973	1042.489
53.315	19.212	1352.002	1040.654
54.330	19.047	1350.681	1038.553
55.344	18.997	1349.892	1037.549
56.359	18.959	1348.521	1036.173
57.374	18.988	1347.422	1035.415
58.388	18.847	1346.762	1033.964
59.403	18.829	1346.674	1033.698
60.417	18.818	1345.509	1032.645
61.432	18.839	1344.631	1032.009
62.447	18.765	1343.969	1030.967
63.461	18.707	1342.342	1029.276
64.476	18.589	1341.816	1028.073
65.490	18.654	1340.664	1027.490
66.505	18.639	1338.989	1026.027
67.520	18.628	1337.610	1024.814
68.534	18.710	1336.616	1024.448
69.549	18.811	1335.432	1024.053
70.563	18.687	1334.227	1022.302
71.578	18.448	1333.989	1020.609
72.593	18.489	1332.709	1019.778
73.607	18.426	1331.942	1018.728
74.622	18.478	1331.006	1018.230
75.636	18.550	1330.625	1018.274
76.651	18.603	1329.755	1017.834
77.666	18.596	1329.405	1017.439
78.680	18.660	1329.482	1017.786
79.695	18.780	1328.270	1017.478
80.709	18.896	1327.361	1017.380
81.724	18.912	1326.656	1016.842
82.739	19.035	1325.997	1016.974
83.753	19.093	1325.647	1016.958
84.768	19.376	1324.157	1017.394
85.782	19.434	1323.758	1017.343
86.797	19.502	1322.251	1016.495
87.812	19.352	1320.793	1014.400
88.826	19.240	1319.974	1013.024
89.841	19.438	1318.799	1013.193
90.855	19.449	1317.850	1012.440
91.870	19.491	1317.409	1012.259
92.884	19.565	1316.090	1011.588
93.899	19.510	1315.794	1010.952
94.914	19.561	1314.897	1010.467
95.928	19.522	1314.224	1009.632
96.943	19.535	1313.016	1008.692
97.957	19.499	1311.940	1007.569
98.972	19.429	1310.913	1006.281
99.987	19.434	1309.871	1005.423
101.001	19.428	1309.219	1004.799
102.016	19.473	1308.248	1004.224
103.030	19.394	1307.359	1002.995
104.045	19.346	1306.516	1001.978
105.060	19.192	1305.512	1000.229
106.074	19.019	1303.269	997.416
107.089	18.743	1302.272	994.964
108.103	18.646	1300.041	992.616
109.118	18.769	1299.560	992.870
110.133	18.797	1297.704	991.528
111.147	18.769	1296.380	990.265
112.162	18.937	1294.998	990.089
113.176	18.844	1294.504	989.087
114.191	18.826	1293.593	988.198
115.206	18.985	1292.045	987.843
116.220	18.877	1291.304	986.568
117.235	18.874	1289.773	985.297
118.249	18.833	1288.757	984.197
119.264	18.767	1287.579	982.834
120.279	18.658	1286.511	981.311
121.293	18.655	1285.142	980.158
122.308	18.489	1284.532	978.660
123.322	18.508	1283.397	977.820
124.337	18.414	1282.355	976.401
125.352	18.543	1281.081	976.080
126.366	18.438	1280.193	974.718
127.381	18.412	1279.046	973.613
128.395	18.397	1277.833	972.519
129.410	18.588	1277.091	972.951
130.424	18.685	1276.347	972.850
131.439	18.758	1276.021	972.926
132.454	18.807	1274.878	972.246
133.468	18.794	1274.139	971.525
134.483	18.773	1273.534	970.857
135.497	18.984	1272.201	970.943
136.512	18.949	1270.722	969.533
137.527	19.006	1269.484	968.823
138.541	19.024	1267.904	967.632
139.556	19.034	1266.964	966.888
140.570	19.057	1266.119	966.284
141.585	19.112	1265.319	965.897
142.600	19.255	1263.978	965.589
143.614	19.484	1263.071	966.095
144.629	19.507	1262.212	965.483
145.643	19.475	1261.007	964.294
146.658	19.294	1259.866	962.326
147.673	19.107	1258.037	959.804
148.687	19.028	1256.861	958.377
149.702	18.927	1255.371	956.597
150.716	18.845	1254.200	955.166
151.731	18.847	1253.386	954.469
152.746	18.870	1252.110	953.540
153.760	19.090	1250.689	953.597
154.775	19.161	1249.781	953.214
155.789	19.110	1249.141	952.355
156.804	19.211	1248.125	952.058
157.819	19.201	1246.655	950.796
158.833	19.381	1246.030	951.226
159.848	19.448	1245.465	951.083
160.862	19.331	1244.506	949.620
161.877	19.103	1242.927	947.078
162.892	18.898	1241.918	945.098
163.906	18.922	1240.852	944.335
164.921	18.991	1239.763	943.802
165.935	19.007	1238.972	943.201
166.950	19.195	1238.342	943.668
167.964	19.133	1237.735	942.787
168.979	19.083	1236.683	941.625
169.994	19.063	1236.166	941.041
171.008	19.211	1234.796	940.720
172.023	19.212	1234.337	940.292
173.037	19.432	1234.256	941.351
174.052	19.335	1232.952	939.744
175.067	19.128	1231.575	937.486
176.081	18.944	1230.642	935.689
177.096	18.942	1229.549	934.762
178.110	19.068	1228.410	934.500
179.125	19.075	1227.222	933.551
180.140	19.074	1226.039	932.565
181.154	19.199	1225.423	932.691
182.169	19.304	1224.319	932.336
183.183	19.464	1222.874	932.016
184.198	19.511	1221.883	931.435
185.213	19.499	1221.010	930.620
186.227	19.467	1219.836	929.472
187.242	19.512	1219.021	929.010
188.256	19.642	1218.063	928.899
189.271	19.747	1217.201	928.723
190.286	19.456	1215.745	925.967
191.300	19.017	1214.882	922.874
192.315	18.754	1214.394	921.009
193.329	18.996	1213.581	921.609
194.344	19.155	1212.966	921.912
195.359	19.120	1212.945	921.628
196.373	19.389	1211.965	922.237
197.388	19.407	1212.116	922.366
198.402	19.468	1212.285	922.741
199.417	19.787	1211.260	923.586
200.432	19.788	1210.830	923.181
201.446	19.758	1210.228	922.479
202.461	19.934	1209.531	922.804
203.475	20.051	1207.922	922.115
204.490	19.804	1206.695	919.784
205.504	19.587	1204.914	917.194
206.519	19.552	1203.782	916.066
207.534	19.408	1203.046	914.659
208.548	19.462	1202.137	914.174
209.563	19.432	1201.353	913.338
210.577	19.601	1200.072	913.180
211.592	19.641	1199.735	913.056
212.607	19.769	1198.715	912.872
213.621	19.745	1197.783	911.955
214.636	19.729	1196.776	911.021
215.650	19.737	1196.206	910.552
216.665	19.844	1195.280	910.327
217.680	19.918	1194.910	910.355
218.694	20.141	1193.400	910.296
219.709	20.007	1192.867	909.104
220.723	20.053	1192.284	908.822
221.738	19.979	1191.255	907.570
222.753	19.913	1190.595	906.641
223.767	19.876	1190.135	906.019
224.782	20.052	1189.341	906.252
225.796	20.194	1189.016	906.668
226.811	20.130	1187.917	905.414
227.826	20.032	1186.695	903.890
228.840	19.885	1185.913	902.450
229.855	19.803	1185.808	901.864
230.869	19.942	1184.789	901.732
231.884	19.791	1184.086	900.331
232.899	19.753	1183.049	899.264
233.913	19.695	1182.387	898.379
234.928	19.655	1181.261	897.239
235.942	19.586	1180.622	896.315
236.957	19.650	1179.680	895.850
237.972	19.590	1179.041	894.974
238.986	19.653	1178.209	894.592
240.001	19.620	1177.802	894.032
241.015	19.754	1177.040	894.071
242.030	19.773	1176.726	893.847
243.045	19.927	1175.435	893.586
244.059	19.917	1175.050	893.161
245.074	20.123	1173.660	893.085
246.088	20.113	1173.171	892.586
247.103	20.205	1172.535	892.497
248.117	20.297	1171.860	892.373
249.132	20.375	1171.309	892.275
250.147	20.592	1171.083	893.143
251.161	20.773	1170.862	893.822
252.176	20.789	1169.399	892.711
253.190	20.739	1169.201	892.225
254.205	20.956	1168.692	892.866
255.220	20.912	1168.123	892.126
256.234	20.831	1167.500	891.160
257.249	20.776	1166.891	890.334
258.263	20.866	1165.865	889.933
259.278	20.723	1165.522	888.863
260.293	20.839	1165.016	888.991
261.307	20.918	1164.186	888.677
262.322	20.984	1163.170	888.163
263.336	20.952	1162.793	887.630
264.351	21.028	1162.262	887.536
265.366	21.014	1161.740	886.985
266.380	20.956	1161.278	886.263
267.395	20.986	1160.236	885.540
268.409	20.753	1159.198	883.488
269.424	20.799	1158.248	882.915
270.439	20.809	1157.962	882.669
271.453	20.679	1157.222	881.373
272.468	20.581	1155.671	879.618
273.482	20.542	1155.039	878.860
274.497	20.686	1154.670	879.227
275.512	20.556	1153.888	877.900
276.526	20.516	1153.389	877.238
277.541	20.678	1152.478	877.285
278.555	20.799	1151.500	877.075
279.570	20.945	1151.077	877.409
280.585	21.122	1150.563	877.830
281.599	21.050	1149.856	876.849
282.614	20.948	1148.038	874.876
283.628	20.729	1146.997	872.908
284.643	20.775	1146.025	872.319
285.657	20.836	1145.582	872.210
286.672	20.851	1144.315	871.247
287.687	20.869	1143.516	870.648
288.701	20.770	1143.253	869.879
289.716	20.806	1142.459	869.377
290.730	20.779	1141.810	868.671
291.745	20.850	1141.024	868.350
292.760	20.989	1140.090	868.254
293.774	21.149	1139.651	868.639
294.789	21.149	1139.137	868.169
295.803	21.029	1138.666	867.139
296.818	20.811	1137.750	865.279
297.833	20.773	1136.886	864.359
298.847	20.938	1136.110	864.510
299.862	20.809	1135.472	863.310
300.876	20.768	1135.104	862.749
301.891	21.082	1134.395	863.690
302.906	21.108	1133.959	863.408
303.920	21.248	1133.152	863.410
304.935	21.344	1132.573	863.367
305.949	21.427	1132.197	863.412
306.964	21.413	1131.247	862.544
307.979	21.213	1130.599	860.985
308.993	21.255	1129.420	860.219
310.008	21.284	1128.998	859.964
311.022	21.457	1128.131	860.080
312.037	21.343	1127.507	858.969
313.052	21.281	1125.825	857.308
314.066	21.113	1124.809	855.635
315.081	20.856	1124.011	853.690
316.095	20.916	1123.327	853.391
317.110	20.889	1122.841	852.812
318.125	20.867	1122.355	852.262
319.139	20.957	1121.168	851.724
320.154	20.944	1120.747	851.264
321.168	21.026	1120.007	851.030
322.183	20.989	1119.440	850.340
323.197	21.067	1118.709	850.092
324.212	21.028	1118.055	849.329
325.227	21.156	1117.507	849.461
326.241	21.073	1117.020	848.612
327.256	21.156	1116.044	848.200
328.270	20.944	1115.645	846.789
329.285	21.054	1114.156	846.120
330.300	21.006	1113.634	845.413
331.314	20.983	1112.401	844.292
332.329	21.071	1111.416	843.894
333.343	21.030	1110.908	843.239
334.358	21.309	1109.681	843.580
335.373	21.326	1109.407	843.377
336.387	21.394	1108.557	842.984
337.402	21.337	1108.059	842.257
338.416	21.501	1107.496	842.544
339.431	21.488	1107.255	842.224
340.446	21.490	1106.544	841.616
341.460	21.726	1106.352	842.530
342.475	21.743	1105.106	841.588
343.489	21.752	1104.532	841.119
344.504	21.816	1103.314	840.425
345.519	21.939	1102.147	840.053
346.533	21.992	1101.523	839.758
347.548	22.027	1101.225	839.621
348.562	21.963	1100.315	838.550
349.577	21.877	1098.864	836.958
350.592	21.638	1097.670	834.835
351.606	21.471	1097.445	833.796
352.621	21.467	1096.486	832.972
353.635	21.460	1095.651	832.230
354.650	21.399	1094.961	831.345
355.665	21.452	1095.048	831.586
356.679	21.593	1094.040	831.416
357.694	21.652	1093.525	831.231
358.708	21.634	1093.269	830.880
359.723	21.684	1092.487	830.447
360.738	21.755	1091.473	829.943
361.752	21.768	1091.137	829.672
362.767	21.835	1090.331	829.302
363.781	21.867	1089.988	829.122
364.796	21.835	1089.642	828.633
365.810	22.024	1089.196	829.113
366.825	22.170	1088.498	829.198
367.840	22.354	1088.022	829.629
368.854	22.376	1087.478	829.246
369.869	22.285	1086.705	828.156
370.883	22.199	1085.760	826.954
371.898	22.221	1084.616	826.113
372.913	22.041	1084.496	825.104
373.927	22.150	1084.005	825.170
374.942	22.267	1083.304	825.113
375.956	22.254	1082.728	824.540
376.971	22.287	1081.964	824.037
377.986	22.424	1081.399	824.175
379.000	22.335	1081.211	823.547
380.015	22.494	1080.740	823.855
381.029	22.661	1079.720	823.787
382.044	22.601	1079.392	823.182
383.059	22.520	1078.431	821.998
384.073	22.460	1077.720	821.104
385.088	22.469	1076.700	820.296
386.102	22.483	1076.029	819.779
387.117	22.264	1074.963	817.874
388.132	22.123	1073.495	816.030
389.146	22.079	1072.606	815.077
390.161	22.153	1072.271	815.095
391.175	22.035	1071.733	814.067
392.190	22.210	1071.079	814.308
393.205	22.518	1070.182	814.978
394.219	22.376	1069.756	813.926
395.234	22.301	1068.677	812.689
396.248	22.236	1067.151	811.157
397.263	22.252	1066.189	810.425
398.278	22.167	1065.700	809.591
399.292	21.980	1064.937	808.077
400.307	21.911	1063.989	806.972
401.321	21.982	1063.469	806.832
402.336	21.949	1062.953	806.216
403.350	22.042	1062.279	806.062
404.365	22.033	1061.830	805.609
405.380	22.132	1061.113	805.448
406.394	22.312	1060.346	805.618
407.409	22.405	1059.789	805.549
408.423	22.422	1059.333	805.206
409.438	22.662	1058.720	805.766
410.453	22.573	1058.132	804.845
411.467	22.636	1057.217	804.361
412.482	22.819	1056.776	804.790
413.496	22.746	1056.538	804.204
414.511	22.932	1055.617	804.283
415.526	22.950	1055.272	804.029
416.540	23.061	1054.865	804.150
417.555	22.966	1054.347	803.255
418.569	22.877	1053.816	802.372
419.584	22.849	1052.936	801.507
420.599	22.846	1052.437	801.041
421.613	155.921	1401.279	1793.712
422.628	143.156	1452.082	1793.825
