DTS Sentinel unit serial number:	SN413079Multiplexer serial number:	ORYXHardware model number:	OX4-SRSoftware version number:	ORYX F/W v4.00 Oryx Data Collector v3.7.2.0data status	okinstallation	princeton_trtdifferential loss correction	single-endedforward channel	channel 2reverse channel	N/Adate	2019/09/12time	18:45:48forward acquisition time	15.00reverse acquisition time	0.00gamma	496.2192k internal	0.2323k external	0.2323temperature offset calibration	1.0132default loss term (dB/km)	0.3790temperature slope calibration	1.0000multiplexer offset coefficient	1.0000multiplexer slope coefficient	1.0000fibre end	0.00T internal ref (°C)	33.00T ext. ref 1 (°C)	2.98T ext. ref 2 (°C)	27.49length (m)	temperature (°C)	Stokes	anti-Stokes-747.200	439.849	0.216	0.476
-746.185	800.000	0.204	0.588
-745.171	-200.000	0.039	-0.567
-744.156	-200.000	0.027	-0.358
-743.142	67.553	-0.340	0.350
-742.127	-98.446	-0.302	0.078
-741.112	240.049	-0.409	0.687
-740.098	-200.000	-0.031	0.367
-739.083	-183.537	0.469	0.008
-738.069	209.902	0.368	-0.583
-737.054	-98.672	-0.672	0.173
-736.039	-107.703	-0.735	0.162
-735.025	-12.131	-0.402	0.266
-734.010	8.367	-0.370	-0.281
-732.996	-101.779	-0.295	-0.072
-731.981	-17.916	0.150	-0.095
-730.966	-80.042	0.593	-0.201
-729.952	-60.448	-1.298	-0.557
-728.937	258.910	-0.291	-0.506
-727.923	-80.126	0.650	-0.220
-726.908	0.583	-0.171	-0.123
-725.894	-114.744	-1.010	-0.195
-724.879	229.337	0.518	0.854
-723.864	21.396	0.553	-0.454
-722.850	-200.000	-0.099	-0.484
-721.835	55.359	0.583	-0.569
-720.821	-57.416	0.307	0.136
-719.806	-118.295	0.721	0.129
-718.791	372.443	0.117	-0.240
-717.777	-179.540	0.954	-0.021
-716.762	-75.422	0.174	0.063
-715.748	596.717	0.066	-0.164
-714.733	-83.063	0.429	-0.139
-713.718	78.484	0.107	-0.115
-712.704	-165.825	-0.304	0.013
-711.689	-30.003	-0.080	0.046
-710.675	66.402	-0.261	-0.268
-709.660	286.284	-0.265	-0.483
-708.645	-84.911	-0.182	0.057
-707.631	225.086	0.192	-0.313
-706.616	152.081	-0.254	-0.349
-705.602	599.803	-0.114	0.285
-704.587	-116.081	0.473	-0.089
-703.572	-200.000	-0.038	0.245
-702.558	-26.389	0.489	0.289
-701.543	22.185	0.641	-0.528
-700.529	-148.085	1.068	0.089
-699.514	699.536	0.307	-0.813
-698.499	58.224	0.229	0.227
-697.485	800.000	0.341	0.959
-696.470	-167.451	-0.128	0.005
-695.456	-30.186	0.421	-0.241
-694.441	137.430	-0.304	-0.401
-693.426	591.050	-0.413	1.026
-692.412	-108.337	0.426	0.093
-691.397	800.000	-0.067	-0.268
-690.383	675.932	0.154	-0.403
-689.368	61.714	0.198	0.198
-688.354	-84.200	0.353	-0.113
-687.339	-37.068	0.710	-0.383
-686.324	1.420	-0.562	-0.407
-685.310	-59.161	-0.161	0.070
-684.295	221.888	-0.448	-0.725
-683.281	16.875	-0.635	-0.507
-682.266	476.286	0.046	0.105
-681.251	-200.000	0.130	-0.647
-680.237	-17.441	-0.535	-0.339
-679.222	-45.926	-0.392	-0.195
-678.208	263.101	-0.180	-0.315
-677.193	118.749	-0.350	0.435
-676.178	-200.000	0.244	1.152
-675.164	800.000	0.111	-0.366
-674.149	-200.000	0.065	0.546
-673.135	-200.000	-0.014	-0.507
-672.120	99.690	-0.238	-0.278
-671.105	3.557	0.810	0.595
-670.091	-151.385	-1.510	-0.113
-669.076	800.000	-0.118	-0.480
-668.062	53.445	0.289	0.279
-667.047	368.675	-0.227	-0.462
-666.032	91.434	-0.663	-0.750
-665.018	-200.000	0.027	-0.140
-664.003	10.856	-0.819	0.630
-662.989	574.727	-0.033	-0.082
-661.974	-200.000	-0.081	1.400
-660.959	-87.872	0.608	-0.184
-659.945	-133.459	0.852	-0.108
-658.930	-200.000	0.061	-0.470
-657.916	-77.070	-0.754	0.264
-656.901	-53.770	-1.266	0.581
-655.886	56.915	0.204	0.200
-654.872	-91.117	-0.593	0.171
-653.857	-51.176	-0.857	0.404
-652.843	-103.115	0.781	0.186
-651.828	800.000	0.120	-0.436
-650.814	18.209	-0.105	-0.084
-649.799	-54.182	-0.416	0.190
-648.784	-124.955	0.375	-0.058
-647.770	63.965	-0.506	-0.512
-646.755	-91.489	-0.460	0.132
-645.741	17.522	0.521	-0.416
-644.726	667.148	-0.397	-1.031
-643.711	-87.806	-1.179	0.357
-642.697	328.143	0.421	0.812
-641.682	-52.234	-0.166	0.077
-640.668	-90.072	1.051	-0.308
-639.653	46.897	-0.563	0.527
-638.638	-13.900	-0.341	-0.221
-637.624	-200.000	0.025	0.523
-636.609	63.188	-0.185	-0.186
-635.595	-119.004	0.416	-0.073
-634.580	-8.301	0.273	-0.185
-633.565	-56.003	-0.608	-0.273
-632.551	-92.080	-0.072	-0.020
-631.536	0.308	0.281	0.201
-630.522	-27.488	-0.630	0.368
-629.507	-94.958	-0.689	0.187
-628.492	-80.966	0.713	0.237
-627.478	-200.000	-0.033	-0.664
-626.463	17.477	-0.419	-0.335
-625.449	-200.000	0.025	0.112
-624.434	-125.602	0.342	-0.052
-623.419	-136.104	1.188	-0.140
-622.405	4.722	0.335	-0.247
-621.390	302.422	0.369	0.687
-620.376	-31.200	-0.321	-0.182
-619.361	-91.980	-0.671	-0.191
-618.346	-110.595	-0.331	0.069
-617.332	662.304	-0.380	-0.983
-616.317	143.818	-0.335	-0.449
-615.303	-36.331	0.619	-0.335
-614.288	-53.541	-0.787	0.362
-613.273	800.000	0.306	0.991
-612.259	-68.183	-0.525	0.205
-611.244	163.121	0.590	0.833
-610.230	432.271	0.250	0.545
-609.215	62.394	0.607	0.608
-608.201	-200.000	-0.042	-0.420
-607.186	2.529	0.518	-0.377
-606.171	-19.210	-0.576	0.359
-605.157	-101.378	-0.153	-0.037
-604.142	703.086	0.503	-1.331
-603.128	-91.432	-0.225	0.064
-602.113	-117.687	0.947	-0.171
-601.098	-200.000	-0.114	-0.634
-600.084	-200.000	0.020	0.460
-599.069	-200.000	-0.022	-0.527
-598.055	-200.000	0.004	-0.258
-597.040	-119.963	-0.508	0.088
-596.025	364.924	0.232	0.470
-595.011	-17.023	-0.329	-0.209
-593.996	-121.745	0.478	-0.079
-592.982	-132.640	-0.396	0.051
-591.967	-200.000	-0.030	0.396
-590.952	679.809	0.126	-0.328
-589.938	74.433	-0.169	-0.179
-588.923	-76.894	-0.550	0.193
-587.909	43.548	-0.412	-0.378
-586.894	548.028	-0.222	0.535
-585.879	206.331	-0.225	0.352
-584.865	102.458	-0.244	0.286
-583.850	800.000	-0.070	0.284
-582.836	-200.000	0.012	0.197
-581.821	-200.000	-0.027	0.577
-580.806	800.000	0.055	-0.217
-579.792	-89.552	0.326	0.096
-578.777	-12.264	-0.537	0.352
-577.763	-85.332	-0.231	-0.072
-576.748	-36.192	-0.781	0.423
-575.733	-113.120	-0.431	-0.085
-574.719	-155.567	0.306	-0.020
-573.704	-39.310	-0.489	-0.258
-572.690	800.000	-0.113	0.411
-571.675	108.876	0.473	0.567
-570.661	775.642	0.057	0.156
-569.646	-53.501	1.015	0.466
-568.631	637.633	-0.159	-0.406
-567.617	-104.948	-0.617	-0.142
-566.602	-150.477	0.914	0.070
-565.588	483.416	0.145	-0.331
-564.573	75.952	0.091	-0.096
-563.558	262.980	0.138	-0.240
-562.544	290.009	-0.023	-0.042
-561.529	216.005	-0.168	-0.268
-560.515	-114.813	-0.757	-0.145
-559.500	33.374	0.651	0.566
-558.485	-200.000	-0.013	-0.292
-557.471	-124.939	0.237	0.037
-556.456	-42.069	0.344	-0.176
-555.442	-200.000	-0.037	0.868
-554.427	-1.601	0.292	-0.206
-553.412	800.000	0.087	0.266
-552.398	-129.158	-0.509	0.071
-551.383	800.000	-0.179	-0.528
-550.369	41.785	-0.716	0.650
-549.354	80.655	-0.253	0.273
-548.339	-200.000	0.033	0.392
-547.325	608.900	0.469	-1.174
-546.310	-165.877	0.452	-0.019
-545.296	-97.586	-0.557	0.145
-544.281	6.083	-0.130	0.096
-543.266	350.353	-0.421	0.833
-542.252	-98.109	0.141	0.036
-541.237	-200.000	0.002	-0.536
-540.223	-97.135	0.515	-0.135
-539.208	-125.874	-0.467	0.071
-538.193	-97.892	0.617	0.160
-537.179	207.561	-0.364	-0.568
-536.164	644.498	-0.111	-0.285
-535.150	-200.000	-0.096	-0.568
-534.135	-40.025	-0.444	0.232
-533.121	384.182	-0.148	-0.305
-532.106	-78.773	0.988	-0.338
-531.091	-177.131	-0.526	0.013
-530.077	-200.000	0.057	-0.258
-529.062	-200.000	-0.015	0.159
-528.048	-101.450	-0.498	0.121
-527.033	-87.221	0.711	0.216
-526.018	144.490	-0.576	-0.770
-525.004	389.760	-0.460	-0.955
-523.989	-55.898	0.378	0.169
-522.975	551.184	-0.366	0.879
-521.960	-200.000	-0.065	-0.438
-520.945	-95.488	0.189	-0.051
-519.931	18.526	0.395	-0.316
-518.916	800.000	0.158	0.546
-517.902	-54.639	1.133	0.513
-516.887	-4.618	-0.100	0.069
-515.872	732.946	-0.132	0.354
-514.858	-88.273	-0.474	0.142
-513.843	48.565	0.309	0.290
-512.829	800.000	-0.143	-0.415
-511.814	-64.098	-0.700	0.286
-510.799	700.030	-0.153	0.403
-509.785	-90.998	0.440	0.127
-508.770	417.584	-0.274	-0.585
-507.756	34.975	0.456	0.399
-506.741	-48.933	0.590	-0.283
-505.726	-113.666	1.323	-0.258
-504.712	800.000	0.290	-0.905
-503.697	-44.696	0.282	-0.141
-502.683	-200.000	0.143	0.851
-501.668	800.000	0.168	-0.659
-500.653	97.788	0.311	0.358
-499.639	-200.000	0.152	0.895
-498.624	-72.509	0.190	-0.070
-497.610	-200.000	-0.047	0.767
-496.595	-200.000	-0.173	-0.852
-495.581	-81.067	-0.127	0.042
-494.566	27.271	0.488	0.410
-493.551	298.968	0.247	0.454
-492.537	800.000	-0.197	-0.559
-491.522	-83.887	-0.438	-0.139
-490.508	-88.922	0.596	-0.177
-489.493	103.412	0.205	0.240
-488.478	-200.000	0.030	1.179
-487.464	-41.715	0.276	0.142
-486.449	-68.496	-0.483	0.187
-485.435	344.373	-0.176	-0.344
-484.420	376.512	0.408	-0.832
-483.405	166.955	-0.375	0.533
-482.391	-116.097	-0.718	-0.133
-481.376	-58.559	-0.369	-0.160
-480.362	-4.383	0.593	0.410
-479.347	-134.590	-0.247	-0.030
-478.332	-200.000	0.054	0.554
-477.318	531.939	0.263	0.621
-476.303	293.895	0.150	-0.273
-475.289	501.029	0.112	-0.257
-474.274	-200.000	0.036	0.465
-473.259	180.904	0.182	-0.267
-472.245	-67.414	-0.560	-0.220
-471.230	76.238	-0.378	-0.399
-470.216	-87.467	0.500	-0.151
-469.201	-61.588	-0.631	-0.264
-468.186	-180.279	1.011	0.021
-467.172	59.593	-0.388	-0.382
-466.157	-200.000	0.641	0.002
-465.143	59.426	0.529	0.520
-464.128	-53.228	-0.690	0.316
-463.113	597.115	0.134	-0.333
-462.099	-200.000	-0.074	0.504
-461.084	-30.884	0.054	0.031
-460.070	51.150	-0.104	-0.099
-459.055	61.954	0.430	-0.428
-458.040	136.891	-0.450	-0.587
-457.026	223.518	-0.304	0.490
-456.011	154.749	-0.515	-0.707
-454.997	26.971	0.407	-0.341
-453.982	-0.868	-0.118	0.084
-452.968	-70.743	1.026	0.387
-451.953	-54.364	-0.653	0.296
-450.938	-187.444	-0.454	-0.006
-449.924	554.543	-0.081	0.193
-448.909	-176.097	-0.134	-0.004
-447.895	324.269	-0.482	-0.918
-446.880	326.472	-0.067	0.127
-445.865	-117.864	0.373	0.067
-444.851	-5.776	0.191	0.130
-443.836	-79.617	1.122	0.378
-442.822	-200.000	0.004	-0.444
-441.807	-38.412	0.363	0.192
-440.792	17.398	0.450	0.356
-439.778	-48.474	0.473	-0.227
-438.763	55.699	-0.418	-0.405
-437.749	-200.000	-0.006	0.355
-436.734	-25.800	-0.151	0.089
-435.719	-200.000	0.018	-0.208
-434.705	65.394	-0.227	-0.229
-433.690	-200.000	0.072	0.394
-432.676	-200.000	-0.069	-0.317
-431.661	149.631	0.191	-0.259
-430.646	57.682	-0.342	0.334
-429.632	-45.593	-0.310	0.153
-428.617	-53.837	0.386	0.176
-427.603	1.539	0.558	0.400
-426.588	171.413	0.286	-0.409
-425.573	223.317	-0.513	-0.825
-424.559	169.563	-0.434	-0.618
-423.544	-200.000	0.001	-0.201
-422.530	0.361	-0.894	-0.636
-421.515	102.421	0.215	0.251
-420.500	458.088	0.382	0.846
-419.486	140.663	-0.389	0.513
-418.471	69.836	0.447	-0.459
-417.457	-126.120	-1.095	0.164
-416.442	-38.512	-1.141	-0.602
-415.428	286.868	-0.075	-0.136
-414.413	-49.909	0.430	0.203
-413.398	800.000	0.083	0.230
-412.384	-200.000	0.106	-0.700
-411.369	-200.000	0.049	0.431
-410.355	-137.684	-0.752	-0.084
-409.340	-75.343	0.532	-0.189
-408.325	-110.967	-0.228	-0.047
-407.311	-18.910	0.278	-0.172
-406.296	800.000	-0.120	-0.447
-405.282	297.005	0.430	0.786
-404.267	93.906	-0.432	0.488
-403.252	-40.985	-0.689	-0.355
-402.238	-200.000	0.161	-0.861
-401.223	17.251	0.909	-0.719
-400.209	-200.000	0.029	-0.289
-399.194	-200.000	0.090	0.521
-398.179	753.478	-0.203	0.546
-397.165	762.336	-0.215	-0.582
-396.150	-200.000	0.443	-0.000
-395.136	-80.492	-0.249	0.083
-394.121	-184.191	-0.327	0.005
-393.106	342.488	-0.126	0.245
-392.092	-17.789	0.641	0.400
-391.077	-21.624	0.491	0.298
-390.063	-200.000	-0.061	0.468
-389.048	-200.000	-0.179	-0.846
-388.033	800.000	0.155	0.447
-387.019	227.861	0.254	0.411
-386.004	-27.722	-0.249	0.144
-384.990	-200.000	0.046	0.268
-383.975	519.571	0.201	-0.470
-382.960	47.113	0.328	-0.304
-381.946	627.958	0.259	0.651
-380.931	800.000	-0.027	-0.102
-379.917	-18.944	-0.562	-0.348
-378.902	156.329	0.567	0.778
-377.888	-106.538	-0.230	-0.051
-376.873	56.276	0.106	0.103
-375.858	493.450	0.288	-0.657
-374.844	-200.000	0.032	-0.282
-373.829	-45.138	-0.772	0.382
-372.815	0.198	-0.531	0.377
-371.800	270.724	0.543	0.950
-370.785	104.614	-0.211	0.247
-369.771	-151.459	0.281	-0.021
-368.756	-97.566	0.202	-0.052
-367.742	-52.493	-0.752	-0.346
-366.727	-5.176	0.520	-0.356
-365.712	-104.099	0.682	-0.158
-364.698	800.000	0.278	-0.995
-363.683	-97.909	0.663	-0.170
-362.669	-145.778	0.558	0.049
-361.654	21.530	0.304	-0.246
-360.639	291.723	0.224	0.406
-359.625	800.000	-0.073	0.254
-358.610	-38.717	-0.919	0.482
-357.596	-6.537	-0.250	-0.169
-356.581	-41.649	0.432	0.221
-355.566	-156.156	-0.693	0.043
-354.552	-5.697	0.785	0.535
-353.537	-89.373	-0.359	-0.105
-352.523	-183.007	0.264	0.005
-351.508	-200.000	-0.154	0.916
-350.493	2.492	-0.537	-0.386
-349.479	155.795	0.607	0.832
-348.464	-178.118	0.288	-0.007
-347.450	-200.000	-0.108	0.587
-346.435	800.000	-0.208	0.751
-345.420	-161.712	0.565	-0.029
-344.406	-60.792	0.388	-0.163
-343.391	97.206	0.748	-0.854
-342.377	800.000	-0.230	0.782
-341.362	640.354	-0.357	-0.904
-340.348	-102.899	0.588	0.139
-339.333	212.464	0.234	0.366
-338.318	80.319	-0.153	-0.163
-337.304	289.604	0.331	-0.598
-336.289	136.443	0.475	0.616
-335.275	196.508	0.339	-0.513
-334.260	-60.682	-0.574	0.242
-333.245	-200.000	0.077	0.373
-332.231	-60.310	0.545	0.231
-331.216	-159.436	-0.814	0.045
-330.202	-200.000	0.175	-1.251
-329.187	-200.000	-0.106	0.526
-328.172	-200.000	0.068	0.753
-327.158	-56.845	-0.246	0.108
-326.143	74.656	0.144	-0.151
-325.129	800.000	-0.098	-0.369
-324.114	800.000	-0.065	-0.187
-323.099	-127.089	0.561	0.082
-322.085	-47.654	-0.574	-0.276
-321.070	101.908	-0.184	-0.213
-320.056	71.552	-0.473	-0.488
-319.041	126.220	0.601	-0.755
-318.026	273.828	-0.284	-0.498
-317.012	-70.105	-0.530	-0.200
-315.997	54.446	-0.675	-0.646
-314.983	105.472	-0.094	0.111
-313.968	-15.419	1.117	-0.708
-312.953	-24.405	-0.487	0.288
-311.939	-140.947	0.448	0.046
-310.924	44.125	0.540	0.492
-309.910	-117.224	-0.506	0.091
-308.895	-79.553	0.624	0.209
-307.880	-200.000	-0.100	-0.628
-306.866	-164.406	-0.983	0.045
-305.851	58.350	0.467	-0.455
-304.837	-159.784	-0.186	0.010
-303.822	-200.000	-0.013	0.168
-302.807	237.938	0.177	0.292
-301.793	-129.295	0.301	0.042
-300.778	673.609	-0.175	-0.451
-299.764	7.216	-0.156	-0.116
-298.749	85.931	0.249	-0.272
-297.735	-73.217	0.330	-0.120
-296.720	-200.000	-0.130	-0.725
-295.705	276.408	0.489	0.862
-294.691	-59.291	0.978	-0.418
-293.676	139.504	-0.336	0.439
-292.662	-136.475	0.316	-0.036
-291.647	103.644	-0.158	-0.184
-290.632	-200.000	0.052	-0.304
-289.618	-13.000	-0.440	-0.284
-288.603	-200.000	-0.062	0.468
-287.589	79.423	-0.103	0.109
-286.574	-200.000	-0.055	0.393
-285.559	-13.611	0.503	0.323
-284.545	-200.000	-0.123	-1.106
-283.530	-126.671	-0.444	0.065
-282.516	-40.922	0.699	0.359
-281.501	-136.779	-0.622	0.071
-280.486	-36.490	-0.596	0.318
-279.472	184.206	0.268	-0.394
-278.457	-200.000	0.170	0.893
-277.443	133.709	-0.218	0.280
-276.428	-41.845	0.468	0.238
-275.413	225.652	0.372	-0.597
-274.399	-80.926	0.179	-0.059
-273.384	-130.385	-0.262	-0.035
-272.370	453.059	0.080	-0.176
-271.355	-122.534	0.407	-0.066
-270.340	139.910	-0.357	-0.466
-269.326	800.000	0.158	0.595
-268.311	65.187	-0.047	0.047
-267.297	-200.000	-0.060	0.561
-266.282	434.981	0.289	-0.622
-265.267	-130.727	0.358	-0.048
-264.253	51.188	-0.308	0.289
-263.238	-72.601	0.203	0.074
-262.224	165.000	-0.155	-0.217
-261.209	341.817	0.467	-0.905
-260.195	-109.288	-0.578	0.121
-259.180	-200.000	0.011	-0.178
-258.165	211.775	-0.294	0.459
-257.151	-44.321	0.629	0.312
-256.136	694.159	-0.349	0.907
-255.122	-12.334	-0.227	0.147
-254.107	-163.395	1.182	0.056
-253.092	-129.248	-0.498	-0.069
-252.078	-200.000	-0.006	0.125
-251.063	-51.932	0.651	0.300
-250.049	-129.336	-0.286	0.039
-249.034	-59.602	0.391	0.166
-248.019	-200.000	-0.038	-0.698
-247.005	287.460	-0.114	-0.204
-245.990	201.079	0.501	-0.763
-244.976	-200.000	-0.066	0.468
-243.961	800.000	-0.074	-0.270
-242.946	-200.000	0.034	0.148
-241.932	-71.160	-0.454	-0.169
-240.917	-107.352	-0.448	0.097
-239.903	-108.103	0.558	0.120
-238.888	398.448	0.401	-0.830
-237.873	-156.579	-0.499	-0.031
-236.859	-200.000	-0.114	0.585
-235.844	-200.000	0.017	-0.091
-234.830	-71.267	-0.651	0.242
-233.815	-123.938	-0.271	0.042
-232.800	-130.333	0.396	-0.053
-231.786	800.000	0.213	-0.655
-230.771	61.053	-0.703	-0.691
-229.757	-100.297	-0.038	0.009
-228.742	6.408	-0.205	-0.150
-227.727	125.483	0.206	0.257
-226.713	-12.692	0.418	0.270
-225.698	45.077	-0.382	0.348
-224.684	-118.158	-0.445	-0.078
-223.669	800.000	-0.288	0.873
-222.655	574.282	0.231	-0.558
-221.640	800.000	-0.277	-0.779
-220.625	-12.832	0.324	-0.209
-219.611	255.178	0.515	-0.873
-218.596	30.893	-0.072	-0.061
-217.582	-139.163	0.544	0.058
-216.567	-200.000	-0.115	-0.855
-215.552	66.105	-0.147	-0.148
-214.538	-180.850	-0.828	0.017
-213.523	-61.924	0.451	-0.187
-212.509	-166.885	-0.499	0.020
-211.494	-116.346	1.067	0.195
-210.479	-125.594	-0.947	-0.142
-209.465	483.640	-0.069	-0.154
-208.450	137.357	-0.039	-0.050
-207.436	66.399	-0.594	-0.596
-206.421	-200.000	-0.070	-0.345
-205.406	-200.000	-0.034	0.496
-204.392	105.832	0.235	0.274
-203.377	43.484	-0.233	0.210
-202.363	-117.066	-0.299	-0.054
-201.348	76.874	-0.205	0.215
-200.333	800.000	0.129	0.546
-199.319	48.864	-0.612	0.567
-198.304	130.116	-0.168	0.212
-197.290	13.901	0.501	-0.385
-196.275	90.194	-0.474	-0.524
-195.260	277.657	-0.231	0.407
-194.246	168.978	-0.534	0.752
-193.231	38.218	0.092	0.081
-192.217	590.661	0.323	-0.788
-191.202	-32.257	0.529	-0.292
-190.187	49.884	-0.242	-0.225
-189.173	-200.000	0.092	0.424
-188.158	-121.981	-0.243	-0.040
-187.144	800.000	0.378	-1.168
-186.129	-200.000	-0.036	-0.617
-185.114	-143.405	0.690	0.065
-184.100	800.000	-0.123	0.398
-183.085	-143.277	-0.702	0.067
-182.071	-127.798	0.202	-0.029
-181.056	-161.714	-0.794	-0.040
-180.042	-200.000	0.139	-0.822
-179.027	800.000	-0.120	0.370
-178.012	509.224	-0.222	0.510
-176.998	47.765	0.225	-0.207
-175.983	800.000	-0.207	-0.698
-174.969	-179.733	-0.702	-0.015
-173.954	-200.000	0.134	0.764
-172.939	-72.669	-1.109	0.404
-171.925	-128.209	-1.017	-0.143
-170.910	-84.658	-0.418	0.130
-169.896	-200.000	-0.107	0.533
-168.881	-159.480	1.214	-0.067
-167.866	-114.958	-0.117	-0.022
-166.852	800.000	0.216	0.645
-165.837	274.192	0.753	1.316
-164.823	-59.402	0.145	0.061
-163.808	800.000	-0.065	-0.217
-162.793	200.170	-0.237	-0.359
-161.779	266.275	0.311	-0.536
-160.764	-200.000	-0.217	0.957
-159.750	100.916	0.154	0.177
-158.735	-4.398	-0.306	-0.209
-157.720	242.324	-0.200	0.330
-156.706	-185.931	-0.278	-0.004
-155.691	800.000	-0.257	0.943
-154.677	57.014	0.652	-0.627
-153.662	-36.276	0.471	0.250
-152.647	284.566	-0.259	0.460
-151.633	-58.820	-0.613	0.262
-150.618	-35.885	-0.283	0.151
-149.604	12.713	0.339	-0.258
-148.589	-59.938	0.260	0.109
-147.574	-45.532	-0.321	0.157
-146.560	-173.458	-0.316	0.009
-145.545	-136.210	-1.002	0.116
-144.531	-128.112	0.744	-0.105
-143.516	-146.505	0.661	0.057
-142.502	-35.457	-0.411	0.220
-141.487	1.485	0.360	-0.255
-140.472	0.166	-0.299	-0.210
-139.458	16.328	-0.605	-0.471
-138.443	-69.491	-0.793	-0.300
-137.429	200.846	-0.363	0.551
-136.414	-200.000	0.000	-0.019
-135.399	800.000	0.293	-0.905
-134.385	193.131	0.178	-0.265
-133.370	-200.000	0.021	-0.134
-132.356	-47.481	0.765	0.366
-131.341	14.378	-0.403	-0.310
-130.326	679.021	-0.179	0.459
-129.312	250.556	0.343	0.575
-128.297	-200.000	0.080	-0.986
-127.283	223.063	0.190	-0.302
-126.268	-200.000	0.113	-0.506
-125.253	-200.000	-0.048	1.230
-124.239	-200.000	0.175	0.852
-123.224	28.059	-0.462	0.384
-122.210	74.423	0.512	-0.531
-121.195	-142.378	0.211	-0.020
-120.180	-200.000	-0.079	0.809
-119.166	358.241	-0.409	-0.804
-118.151	-200.000	0.089	-0.589
-117.137	-78.801	0.248	0.083
-116.122	97.677	-0.290	0.328
-115.107	-184.565	0.043	0.001
-114.093	-12.656	0.462	-0.297
-113.078	11.466	-0.580	0.438
-112.064	-79.805	-0.229	0.076
-111.049	-90.908	-0.108	0.031
-110.034	11.931	-0.624	-0.472
-109.020	-107.057	-0.263	-0.057
-108.005	11.319	-0.542	-0.409
-106.991	-200.000	-0.042	0.852
-105.976	356.336	-0.218	0.427
-104.962	154.767	-0.382	-0.517
-103.947	-109.591	-0.446	0.093
-102.932	-200.000	0.092	-0.827
-101.918	164.499	-0.280	0.388
-100.903	-60.146	0.351	-0.148
-99.889	800.000	0.331	1.088
-98.874	800.000	-0.141	-0.487
-97.859	-24.156	-0.168	0.099
-96.845	-138.018	1.038	0.114
-95.830	800.000	0.139	-0.400
-94.816	-91.361	0.291	-0.082
-93.801	90.436	0.247	-0.272
-92.786	44.866	-0.224	0.203
-91.772	132.971	-0.122	0.155
-90.757	-18.760	-0.352	-0.216
-89.743	-200.000	0.024	0.857
-88.728	52.860	-0.454	0.428
-87.713	-114.417	-0.872	0.165
-86.699	-20.674	-0.577	0.348
-85.684	-139.696	0.204	-0.021
-84.670	-18.159	-0.321	0.198
-83.655	40.131	0.601	0.532
-82.640	56.457	0.191	0.183
-81.626	184.772	0.264	-0.384
-80.611	-197.762	0.617	0.004
-79.597	-200.000	0.045	0.406
-78.582	-200.000	-0.029	-0.610
-77.567	-113.792	1.541	-0.295
-76.553	-198.239	0.235	0.001
-75.538	-134.549	0.248	0.030
-74.524	-160.836	-0.354	0.018
-73.509	-26.810	0.345	0.198
-72.494	-177.397	-0.217	0.005
-71.480	83.430	0.092	0.098
-70.465	-200.000	0.018	0.447
-69.451	237.871	-0.240	-0.392
-68.436	14.902	0.696	0.536
-67.422	112.854	-0.313	-0.373
-66.407	-52.283	-0.290	0.132
-65.392	-200.000	0.128	-0.674
-64.378	-51.954	-0.271	-0.124
-63.363	14.969	0.492	-0.379
-62.349	22.636	0.183	-0.148
-61.334	-137.157	-1.760	-0.197
-60.319	298.540	-0.789	1.427
-59.305	-200.000	0.036	-0.697
-58.290	231.147	0.523	0.842
-57.276	447.006	0.973	2.103
-56.261	-200.000	95.507	579.544
-55.246	658.188	1363.792	3447.252
-54.232	201.416	2536.892	3839.655
-53.217	112.251	2252.002	2675.967
-52.203	42.435	1882.058	1681.994
-51.188	36.101	1675.169	1449.592
-50.173	33.663	1630.534	1393.040
-49.159	52.200	1679.860	1573.647
-48.144	52.913	1694.965	1593.036
-47.130	35.771	1656.314	1430.596
-46.115	33.206	1641.521	1398.821
-45.100	33.026	1636.230	1392.929
-44.086	32.844	1634.606	1390.151
-43.071	32.980	1631.178	1388.183
-42.057	32.896	1628.649	1385.360
-41.042	32.994	1627.182	1384.770
-40.027	32.798	1625.557	1381.901
-39.013	32.954	1623.314	1381.080
-37.998	32.961	1620.315	1378.520
-36.984	32.946	1620.357	1378.397
-35.969	33.017	1618.701	1377.446
-34.954	32.952	1616.980	1375.460
-33.940	32.815	1615.809	1373.408
-32.925	32.842	1614.819	1372.706
-31.911	32.970	1612.310	1371.453
-30.896	33.088	1608.844	1369.305
-29.881	33.060	1607.775	1368.140
-28.867	33.000	1606.495	1366.560
-27.852	32.970	1606.342	1366.159
-26.838	32.903	1603.671	1363.351
-25.823	32.969	1602.641	1362.896
-24.809	33.255	1600.194	1362.817
-23.794	33.115	1599.451	1361.124
-22.779	33.086	1597.294	1359.025
-21.765	32.971	1596.026	1357.066
-20.750	32.942	1594.533	1355.535
-19.736	33.029	1593.104	1354.892
-18.721	33.052	1592.476	1354.467
-17.706	33.024	1589.789	1351.932
-16.692	33.109	1589.519	1352.252
-15.677	33.084	1587.713	1350.488
-14.663	32.923	1586.473	1348.227
-13.648	32.912	1585.734	1347.467
-12.633	32.888	1583.765	1345.571
-11.619	32.912	1582.514	1344.624
-10.604	33.251	1580.355	1345.146
-9.590	32.929	1579.297	1341.905
-8.575	33.112	1578.046	1342.087
-7.560	33.116	1576.496	1340.746
-6.546	33.039	1576.189	1339.883
-5.531	33.060	1574.000	1338.119
-4.517	32.910	1573.844	1336.871
-3.502	32.694	1573.845	1335.293
-2.487	33.156	1570.516	1335.677
-1.473	32.745	1557.998	1322.095
-0.458	29.651	1539.428	1284.814
0.556	27.378	1538.538	1253.574
1.571	24.693	1563.075	1254.634
2.586	24.066	1574.871	1259.559
3.600	21.661	1520.466	1199.492
4.615	12.440	1412.756	1055.470
5.629	4.448	1348.399	958.151
6.644	3.088	1339.709	943.552
7.659	3.026	1338.642	942.336
8.673	2.955	1337.628	941.104
9.688	2.852	1335.930	939.196
10.702	2.762	1334.190	937.338
11.717	6.207	1340.547	962.844
12.731	15.699	1358.141	1034.021
13.746	23.063	1368.615	1087.370
14.761	24.588	1370.941	1098.502
15.775	25.059	1369.505	1100.147
16.790	24.965	1369.308	1099.315
17.804	24.943	1368.912	1098.766
18.819	25.492	1367.960	1101.270
19.834	25.443	1367.035	1100.125
20.848	25.220	1367.642	1099.152
21.863	25.284	1366.722	1098.707
22.877	25.055	1366.743	1097.223
23.892	25.455	1365.665	1098.710
24.907	25.460	1363.706	1097.064
25.921	25.339	1361.795	1094.694
26.936	25.301	1362.615	1095.024
27.950	25.382	1360.749	1093.921
28.965	25.544	1359.923	1094.147
29.980	25.559	1357.960	1092.563
30.994	25.350	1358.637	1091.739
32.009	25.460	1356.702	1090.758
33.023	25.409	1356.756	1090.394
34.038	25.661	1354.172	1089.744
35.053	25.339	1353.891	1087.473
36.067	25.248	1353.876	1086.815
37.082	25.317	1352.475	1086.013
38.096	25.387	1351.339	1085.426
39.111	25.464	1349.479	1084.300
40.126	25.335	1349.680	1083.585
41.140	25.153	1349.637	1082.356
42.155	25.266	1350.012	1083.245
43.169	25.379	1349.344	1083.293
44.184	25.413	1348.699	1082.885
45.199	25.445	1348.901	1083.144
46.213	25.494	1347.595	1082.297
47.228	25.529	1346.248	1081.326
48.242	25.435	1345.151	1079.787
49.257	25.476	1343.678	1078.758
50.271	25.482	1342.494	1077.746
51.286	25.599	1342.116	1078.049
52.301	25.380	1339.834	1074.810
53.315	25.584	1338.912	1075.197
54.330	25.652	1338.118	1074.865
55.344	25.379	1338.245	1073.241
56.359	25.548	1336.656	1072.881
57.374	25.429	1335.589	1071.222
58.388	25.454	1335.874	1071.504
59.403	25.488	1335.345	1071.186
60.417	25.343	1334.422	1069.492
61.432	25.388	1334.134	1069.433
62.447	25.442	1333.117	1068.843
63.461	25.427	1331.572	1067.421
64.476	25.539	1331.614	1068.026
65.490	25.296	1330.555	1065.642
66.505	25.633	1327.731	1065.279
67.520	25.474	1327.437	1064.009
68.534	25.437	1326.471	1062.923
69.549	25.532	1325.957	1062.979
70.563	25.615	1324.482	1062.188
71.578	25.515	1323.720	1060.897
72.593	25.536	1322.966	1060.321
73.607	25.647	1322.123	1060.206
74.622	25.545	1321.055	1058.654
75.636	25.848	1320.320	1059.757
76.651	25.636	1319.342	1057.627
77.666	25.575	1319.627	1057.406
78.680	25.459	1319.423	1056.467
79.695	25.490	1319.145	1056.335
80.709	25.487	1318.888	1056.017
81.724	25.450	1318.250	1055.195
82.739	25.497	1315.469	1053.148
83.753	25.666	1314.932	1053.620
84.768	25.466	1314.394	1051.920
85.782	25.494	1312.817	1050.730
86.797	25.612	1312.668	1051.207
87.812	25.611	1311.041	1049.806
88.826	25.407	1310.027	1047.709
89.841	25.668	1308.357	1047.801
90.855	25.770	1307.384	1047.523
91.870	25.495	1307.098	1045.604
92.884	25.547	1306.291	1045.168
93.899	25.575	1306.156	1045.131
94.914	25.437	1304.875	1043.209
95.928	25.480	1304.298	1042.909
96.943	25.547	1303.835	1042.831
97.957	25.705	1302.927	1042.928
98.972	25.761	1301.031	1041.645
99.987	25.818	1300.079	1041.118
101.001	25.635	1299.829	1039.769
102.016	25.827	1298.255	1039.525
103.030	25.299	1299.075	1037.041
104.045	25.758	1297.515	1038.350
105.060	25.790	1296.851	1037.913
106.074	25.709	1295.062	1035.921
107.089	26.082	1293.008	1036.333
108.103	25.640	1293.364	1033.985
109.118	25.739	1291.624	1033.070
110.133	25.554	1291.339	1031.690
111.147	26.119	1288.664	1032.698
112.162	25.745	1288.914	1030.664
113.176	25.360	1289.257	1028.640
114.191	25.669	1287.219	1028.693
115.206	25.709	1285.165	1027.188
116.220	25.598	1285.032	1026.356
117.235	25.669	1284.150	1025.965
118.249	25.580	1282.399	1023.969
119.264	25.601	1282.184	1023.826
120.279	25.576	1281.909	1023.377
121.293	25.518	1281.808	1022.873
122.308	25.471	1280.799	1021.709
123.322	25.720	1279.593	1022.074
124.337	25.669	1279.011	1021.227
125.352	25.816	1277.662	1020.894
126.366	25.756	1276.690	1019.689
127.381	25.650	1275.612	1018.136
128.395	25.703	1275.125	1017.954
129.410	25.845	1273.725	1017.551
130.424	25.978	1272.667	1017.367
131.439	25.641	1273.126	1015.739
132.454	25.879	1271.557	1015.739
133.468	25.541	1271.468	1013.673
134.483	25.919	1270.680	1015.088
135.497	25.751	1268.986	1012.698
136.512	25.649	1268.552	1011.688
137.527	25.683	1267.953	1011.311
138.541	25.498	1266.329	1008.890
139.556	25.824	1264.328	1009.034
140.570	25.772	1264.438	1008.741
141.585	25.666	1262.813	1006.762
142.600	25.967	1261.401	1007.229
143.614	25.818	1261.105	1006.073
144.629	25.490	1261.785	1004.692
145.643	25.764	1259.773	1004.526
146.658	25.434	1258.884	1001.892
147.673	25.759	1257.766	1002.721
148.687	25.837	1255.966	1001.634
149.702	25.628	1255.940	1000.364
150.716	25.714	1254.586	999.672
151.731	25.416	1253.977	997.445
152.746	25.400	1252.889	996.400
153.760	25.830	1250.724	996.971
154.775	25.652	1250.057	995.370
155.789	25.650	1249.300	994.667
156.804	25.878	1248.878	995.504
157.819	26.017	1247.077	994.746
158.833	25.777	1246.390	992.787
159.848	25.743	1245.958	992.166
160.862	25.831	1245.191	991.952
161.877	25.894	1244.409	991.591
162.892	25.670	1244.305	990.183
163.906	25.687	1243.405	989.474
164.921	25.741	1241.980	988.552
165.935	26.080	1240.996	989.540
166.950	25.857	1240.914	988.165
167.964	26.018	1239.775	988.051
168.979	26.088	1239.388	988.040
169.994	25.746	1240.556	987.007
171.008	25.722	1238.181	984.901
172.023	25.904	1237.274	985.087
173.037	25.948	1237.893	985.733
174.052	25.808	1236.851	984.051
175.067	25.867	1235.176	982.954
176.081	25.829	1234.270	981.937
177.096	25.811	1233.641	981.251
178.110	26.079	1232.469	981.691
179.125	25.937	1231.042	979.697
180.140	25.940	1229.692	978.552
181.154	25.569	1230.016	976.704
182.169	25.790	1228.914	976.945
183.183	25.979	1226.591	976.037
184.198	25.764	1226.814	974.964
185.213	25.945	1226.140	975.321
186.227	26.137	1224.715	975.138
187.242	25.931	1224.739	973.959
188.256	25.889	1224.079	973.121
189.271	25.966	1222.891	972.506
190.286	25.919	1221.299	970.898
191.300	25.760	1220.955	969.685
192.315	25.878	1220.762	970.077
193.329	26.077	1220.096	970.533
194.344	26.001	1219.580	969.628
195.359	25.926	1219.178	968.821
196.373	25.712	1217.304	966.098
197.388	25.458	1218.000	965.202
198.402	25.472	1218.378	965.488
199.417	26.067	1216.679	967.248
200.432	26.163	1215.387	966.653
201.446	25.905	1216.609	966.152
202.461	25.890	1215.786	965.335
203.475	25.774	1215.306	964.245
204.490	25.844	1213.792	963.336
205.504	25.748	1212.818	961.965
206.519	25.708	1211.844	960.891
207.534	25.766	1209.780	959.478
208.548	25.559	1210.096	958.545
209.563	25.713	1207.805	957.462
210.577	25.848	1207.995	958.244
211.592	25.619	1206.674	955.899
212.607	25.758	1206.147	956.133
213.621	26.082	1205.166	956.989
214.636	26.030	1204.661	956.228
215.650	25.879	1203.847	954.697
216.665	25.708	1202.544	952.673
217.680	25.913	1202.056	953.289
218.694	25.891	1200.983	952.233
219.709	26.012	1200.583	952.474
220.723	25.642	1200.329	950.232
221.738	26.188	1198.158	951.309
222.753	25.887	1198.493	949.902
223.767	25.894	1197.157	948.796
224.782	25.834	1197.821	948.926
225.796	25.755	1197.556	948.213
226.811	26.059	1196.219	948.671
227.826	26.010	1195.096	947.440
228.840	26.095	1194.547	947.366
229.855	26.146	1193.010	946.331
230.869	25.966	1193.527	945.712
231.884	25.722	1192.298	943.377
232.899	25.707	1191.389	942.495
233.913	25.949	1190.211	942.746
234.928	25.985	1191.075	943.535
235.942	25.971	1190.138	942.635
236.957	26.033	1189.317	942.226
237.972	25.778	1188.803	940.403
238.986	25.761	1188.064	939.649
240.001	25.860	1188.117	940.125
241.015	25.896	1186.281	938.774
242.030	26.097	1185.105	938.805
243.045	26.228	1185.012	939.330
244.059	26.109	1183.783	937.656
245.074	26.139	1183.144	937.224
246.088	26.125	1183.113	937.041
247.103	26.112	1181.607	935.698
248.117	26.218	1181.290	935.913
249.132	25.997	1180.335	933.930
250.147	26.182	1180.646	935.050
251.161	26.485	1179.049	935.273
252.176	26.242	1179.117	933.984
253.190	26.420	1178.272	934.155
254.205	26.416	1177.547	933.476
255.220	26.498	1177.121	933.478
256.234	26.367	1176.021	931.846
257.249	26.328	1176.038	931.577
258.263	26.573	1174.211	931.308
259.278	26.275	1173.809	929.378
260.293	26.393	1172.880	929.164
261.307	26.375	1172.837	928.955
262.322	26.400	1172.807	928.978
263.336	26.378	1172.551	928.578
264.351	26.575	1171.053	928.320
265.366	26.139	1170.833	925.831
266.380	26.271	1169.408	925.299
267.395	26.386	1169.237	925.666
268.409	26.252	1168.633	924.420
269.424	25.941	1168.752	922.841
270.439	26.207	1167.952	923.491
271.453	26.330	1166.927	923.225
272.468	26.295	1164.956	921.405
273.482	26.045	1165.786	920.706
274.497	26.371	1164.799	921.505
275.512	26.234	1164.289	920.325
276.526	26.072	1163.662	918.923
277.541	26.181	1162.424	918.417
278.555	26.336	1161.868	918.686
279.570	26.380	1161.852	918.813
280.585	26.442	1160.221	917.756
281.599	26.286	1159.718	916.488
282.614	26.140	1159.907	915.815
283.628	26.191	1158.119	914.583
284.643	26.471	1157.302	915.269
285.657	26.389	1156.020	913.760
286.672	26.176	1156.309	912.836
287.687	26.089	1155.803	911.911
288.701	26.145	1155.197	911.636
289.716	26.254	1153.306	910.614
290.730	26.330	1152.127	909.987
291.745	26.353	1151.803	909.765
292.760	26.378	1151.338	909.444
293.774	26.423	1151.868	910.008
294.789	26.320	1150.827	908.584
295.803	26.360	1151.242	909.033
296.818	26.400	1149.269	907.595
297.833	26.323	1148.587	906.590
298.847	26.345	1146.735	905.162
299.862	26.555	1145.891	905.463
300.876	26.335	1146.012	904.376
301.891	26.097	1146.850	903.768
302.906	26.501	1145.427	904.588
303.920	26.660	1143.442	903.731
304.935	26.382	1143.771	902.527
305.949	26.223	1144.064	901.886
306.964	26.451	1142.510	901.713
307.979	26.508	1141.849	901.396
308.993	26.522	1141.104	900.799
310.008	26.458	1141.007	900.326
311.022	26.327	1139.758	898.608
312.037	26.401	1138.780	898.125
313.052	26.413	1138.129	897.590
314.066	26.407	1137.642	897.099
315.081	26.250	1135.844	894.825
316.095	26.106	1135.953	894.118
317.110	26.448	1135.078	895.039
318.125	26.490	1134.422	894.655
319.139	26.562	1133.349	894.084
320.154	26.484	1133.132	893.450
321.168	26.247	1133.469	892.465
322.183	25.941	1132.807	890.352
323.197	26.607	1130.012	891.358
324.212	26.470	1129.975	890.572
325.227	26.469	1129.945	890.466
326.241	26.444	1130.407	890.630
327.256	26.304	1128.817	888.607
328.270	26.265	1128.054	887.740
329.285	26.287	1127.603	887.411
330.300	26.633	1126.022	887.787
331.314	26.381	1125.568	886.117
332.329	26.597	1124.797	886.489
333.343	26.326	1123.974	884.436
334.358	26.565	1124.200	885.704
335.373	26.606	1122.843	884.757
336.387	26.518	1122.241	883.774
337.402	26.624	1121.222	883.412
338.416	26.647	1120.858	883.157
339.431	26.736	1119.869	882.736
340.446	26.636	1119.927	882.214
341.460	26.603	1119.421	881.575
342.475	26.596	1118.056	880.390
343.489	26.517	1117.201	879.254
344.504	26.482	1116.508	878.459
345.519	26.835	1115.662	879.429
346.533	26.676	1115.002	878.061
347.548	26.817	1114.041	877.909
348.562	26.765	1112.798	876.599
349.577	26.377	1113.389	875.111
350.592	26.458	1111.908	874.263
351.606	26.563	1110.742	873.774
352.621	26.579	1111.406	874.297
353.635	26.404	1109.906	872.198
354.650	26.422	1109.585	871.952
355.665	26.515	1108.408	871.397
356.679	26.812	1107.606	872.117
357.694	26.869	1107.225	872.019
358.708	26.651	1106.185	870.075
359.723	26.708	1106.504	870.520
360.738	26.382	1106.441	868.827
361.752	26.411	1105.108	867.843
362.767	26.784	1103.604	868.375
363.781	26.350	1104.485	866.906
364.796	26.463	1102.972	866.185
365.810	26.878	1101.872	867.227
366.825	27.040	1101.702	867.791
367.840	26.471	1102.049	865.268
368.854	26.692	1100.750	865.230
369.869	27.220	1099.389	866.600
370.883	26.751	1099.748	864.566
371.898	27.034	1098.257	864.667
372.913	26.429	1098.808	862.144
373.927	26.846	1097.984	863.404
374.942	26.590	1097.927	862.067
375.956	26.759	1097.081	862.130
376.971	26.904	1096.231	862.073
377.986	26.720	1095.708	860.711
379.000	26.592	1096.045	860.293
380.015	26.502	1095.059	859.014
381.029	27.015	1093.446	860.103
382.044	26.861	1092.984	858.935
383.059	27.059	1091.667	858.759
384.073	27.157	1090.103	857.918
385.088	26.844	1091.113	857.155
386.102	26.751	1090.080	855.829
387.117	26.705	1089.074	854.749
388.132	26.470	1088.617	853.206
389.146	26.698	1087.088	853.008
390.161	26.593	1086.709	852.140
391.175	26.866	1085.680	852.541
392.190	26.591	1085.233	850.822
393.205	26.989	1084.916	852.364
394.219	26.724	1084.425	850.663
395.234	26.905	1082.947	850.276
396.248	26.315	1082.782	847.304
397.263	26.657	1081.030	847.461
398.278	26.301	1081.134	845.799
399.292	26.880	1079.800	847.388
400.307	26.725	1079.270	846.174
401.321	26.738	1079.318	846.195
402.336	26.632	1078.356	844.872
403.350	26.597	1077.465	843.938
404.365	26.664	1077.400	844.123
405.380	26.769	1076.341	843.707
406.394	27.021	1075.283	843.977
407.409	26.446	1075.063	841.053
408.423	26.895	1074.539	842.657
409.438	26.873	1074.469	842.427
410.453	27.034	1071.772	840.981
411.467	26.865	1072.298	840.537
412.482	26.822	1071.036	839.273
413.496	26.524	1070.946	837.750
414.511	26.887	1070.648	839.120
415.526	26.983	1068.833	838.071
416.540	26.910	1069.468	838.156
417.555	26.956	1068.362	837.424
418.569	26.763	1067.672	835.919
419.584	26.838	1068.056	836.494
420.599	26.898	1066.757	835.679
421.613	152.684	1404.700	1793.400
422.628	140.498	1453.924	1793.442
