DTS Sentinel unit serial number:	SN413079Multiplexer serial number:	ORYXHardware model number:	OX4-SRSoftware version number:	ORYX F/W v4.00 Oryx Data Collector v3.7.2.0data status	okinstallation	princeton_trtdifferential loss correction	single-endedforward channel	channel 2reverse channel	N/Adate	2019/09/18time	18:11:35forward acquisition time	60.00reverse acquisition time	0.00gamma	496.2192k internal	0.2304k external	0.2304temperature offset calibration	1.0022default loss term (dB/km)	0.3790temperature slope calibration	1.0000multiplexer offset coefficient	1.0000multiplexer slope coefficient	1.0000fibre end	0.00T internal ref (°C)	39.06T ext. ref 1 (°C)	0.93T ext. ref 2 (°C)	32.19length (m)	temperature (°C)	Stokes	anti-Stokes-747.200	-200.000	0.004	-0.225
-746.185	800.000	0.036	0.114
-745.171	262.045	-0.100	0.177
-744.156	43.196	0.261	0.243
-743.142	800.000	0.029	-0.113
-742.127	-200.000	-0.000	-0.018
-741.112	444.277	-0.033	0.074
-740.098	-200.000	-0.027	0.350
-739.083	-93.508	-0.211	0.060
-738.069	800.000	-0.065	0.186
-737.054	-113.215	-0.206	-0.041
-736.039	-104.197	-0.328	0.078
-735.025	-200.000	-0.027	0.182
-734.010	800.000	0.116	-0.402
-732.996	-111.993	-0.398	-0.082
-731.981	215.313	0.042	0.067
-730.966	107.906	-0.083	-0.100
-729.952	-133.300	-0.287	0.037
-728.937	-200.000	-0.024	-0.219
-727.923	39.632	-0.085	0.078
-726.908	-9.359	-0.203	0.138
-725.894	-12.286	0.120	-0.080
-724.879	476.205	-0.084	0.192
-723.864	800.000	-0.046	0.134
-722.850	-200.000	-0.008	-0.141
-721.835	232.877	-0.077	-0.129
-720.821	568.163	-0.117	0.289
-719.806	-200.000	0.013	0.069
-718.791	-114.659	-0.163	-0.032
-717.777	121.573	-0.173	0.219
-716.762	-61.208	0.228	0.098
-715.748	83.941	-0.057	-0.063
-714.733	-74.194	0.281	-0.104
-713.718	-96.603	0.242	-0.065
-712.704	506.734	0.116	0.274
-711.689	800.000	0.088	0.343
-710.675	435.539	0.122	0.269
-709.660	113.776	0.164	-0.203
-708.645	-118.122	-0.493	-0.089
-707.631	-30.906	0.203	0.116
-706.616	-67.072	-0.267	-0.107
-705.602	-50.834	0.087	0.042
-704.587	204.847	0.014	-0.022
-703.572	-184.440	-0.280	0.005
-702.558	643.904	0.024	0.063
-701.543	158.111	0.076	0.107
-700.529	241.749	-0.111	-0.189
-699.514	125.089	-0.136	-0.175
-698.499	800.000	0.066	-0.271
-697.485	238.261	0.103	-0.175
-696.470	162.497	0.169	0.240
-695.456	53.950	-0.242	-0.236
-694.441	183.552	-0.050	-0.075
-693.426	-200.000	0.047	-0.235
-692.412	34.843	-0.277	-0.246
-691.397	-200.000	-0.022	-0.135
-690.383	171.973	-0.197	0.287
-689.368	-116.430	0.129	-0.024
-688.354	-200.000	0.001	0.154
-687.339	-95.845	0.291	-0.079
-686.324	-8.448	-0.179	-0.123
-685.310	73.384	0.233	0.247
-684.295	-36.717	0.376	0.205
-683.281	80.245	0.117	-0.128
-682.266	-200.000	-0.439	-0.001
-681.251	-41.393	0.123	-0.065
-680.237	-146.576	0.105	0.009
-679.222	800.000	0.041	0.175
-678.208	-157.972	-0.139	0.008
-677.193	-200.000	-0.017	0.244
-676.178	800.000	0.028	-0.092
-675.164	43.335	-0.130	0.121
-674.149	-25.050	0.059	0.036
-673.135	48.000	0.132	-0.125
-672.120	-200.000	0.033	-0.194
-671.105	800.000	-0.075	-0.223
-670.091	-101.798	0.313	0.077
-669.076	379.326	0.032	-0.067
-668.062	-79.757	-0.310	0.106
-667.047	-41.623	0.131	0.068
-666.032	23.286	-0.300	0.251
-665.018	15.114	-0.122	0.097
-664.003	800.000	-0.085	0.241
-662.989	437.842	-0.057	0.126
-661.974	-82.095	-0.321	-0.106
-660.959	-52.336	-0.304	0.143
-659.945	4.970	0.097	-0.072
-658.930	-53.790	-0.023	0.010
-657.916	-121.012	-0.123	-0.021
-656.901	800.000	0.088	0.289
-655.886	727.280	0.099	-0.269
-654.872	149.316	-0.067	0.091
-653.857	-16.689	-0.085	-0.055
-652.843	-0.135	0.088	0.063
-651.828	154.285	-0.025	-0.035
-650.814	-200.000	0.085	-0.477
-649.799	800.000	-0.077	-0.244
-648.784	87.017	-0.080	-0.090
-647.770	47.652	-0.239	-0.226
-646.755	137.588	-0.044	0.059
-645.741	26.561	-0.125	0.106
-644.726	58.530	0.180	-0.180
-643.711	-112.643	0.369	0.075
-642.697	-107.694	-0.214	0.047
-641.682	52.341	0.031	-0.030
-640.668	-156.461	0.273	0.017
-639.653	-78.026	-0.162	0.056
-638.638	-115.939	-0.092	0.017
-637.624	-101.180	-0.170	-0.042
-636.609	-101.459	0.144	-0.035
-635.595	-90.544	0.354	0.104
-634.580	-200.000	0.426	-0.000
-633.565	569.811	0.034	0.083
-632.551	-89.072	-0.127	0.038
-631.536	-135.806	0.303	-0.036
-630.522	221.397	-0.100	0.163
-629.507	180.946	0.064	0.096
-628.492	-200.000	-0.045	-0.454
-627.478	800.000	0.027	0.098
-626.463	-122.880	0.104	-0.017
-625.449	-116.241	-0.325	-0.061
-624.434	-200.000	0.223	0.000
-623.419	376.909	0.158	0.327
-622.405	531.891	-0.162	-0.388
-621.390	-200.000	-0.004	0.168
-620.376	686.138	-0.098	0.259
-619.361	-112.295	0.130	0.026
-618.346	74.898	0.061	-0.065
-617.332	-200.000	-0.064	0.289
-616.317	-53.678	-0.285	-0.132
-615.303	261.458	0.075	-0.131
-614.288	-80.753	0.126	0.042
-613.273	-7.837	-0.218	-0.149
-612.259	-43.066	-0.372	-0.191
-611.244	-157.313	-0.295	-0.018
-610.230	66.736	0.062	0.064
-609.215	-140.275	0.270	0.029
-608.201	-113.844	-0.122	0.024
-607.186	800.000	-0.028	0.126
-606.171	-17.012	-0.344	-0.220
-605.157	278.648	-0.106	-0.191
-604.142	413.887	-0.135	0.291
-603.128	83.192	-0.177	0.195
-602.113	800.000	0.064	-0.239
-601.098	523.125	0.110	-0.261
-600.084	147.661	0.010	0.014
-599.069	-7.832	-0.176	-0.120
-598.055	-200.000	-0.056	-0.401
-597.040	800.000	0.062	0.180
-596.025	-106.277	0.144	0.033
-595.011	518.853	0.206	-0.489
-593.996	-186.310	0.185	0.003
-592.982	-132.583	0.330	-0.043
-591.967	424.609	-0.116	-0.254
-590.952	439.478	-0.154	-0.340
-589.938	-113.554	0.393	-0.078
-588.923	-200.000	-0.001	-0.173
-587.909	-200.000	0.023	-0.530
-586.894	29.449	0.105	-0.090
-585.879	480.963	0.033	-0.076
-584.865	-34.788	-0.078	-0.043
-583.850	-42.401	0.176	-0.091
-582.836	-59.127	0.155	0.068
-581.821	94.176	0.180	-0.206
-580.806	-179.434	0.192	-0.004
-579.792	174.047	-0.095	0.139
-578.777	-94.662	-0.163	-0.045
-577.763	394.966	-0.035	-0.073
-576.748	800.000	-0.039	-0.121
-575.733	25.070	0.357	0.299
-574.719	800.000	-0.024	0.069
-573.704	218.310	-0.081	0.131
-572.690	63.284	-0.073	0.074
-571.675	248.111	-0.195	0.334
-570.661	55.706	0.212	-0.208
-569.646	625.345	-0.066	0.169
-568.631	-58.895	0.164	0.072
-567.617	91.973	-0.113	-0.128
-566.602	737.946	0.073	-0.197
-565.588	-6.890	0.195	-0.134
-564.573	-0.246	0.080	-0.057
-563.558	201.995	-0.142	0.221
-562.544	-200.000	-0.048	0.329
-561.529	-28.298	-0.198	0.116
-560.515	137.751	-0.199	-0.264
-559.500	189.979	-0.076	0.116
-558.485	123.849	-0.084	0.106
-557.471	422.885	0.204	-0.443
-556.456	90.023	-0.189	0.213
-555.442	800.000	-0.069	-0.221
-554.427	148.744	0.143	-0.195
-553.412	-100.649	0.261	-0.065
-552.398	272.809	-0.108	0.193
-551.383	-86.964	-0.069	-0.021
-550.369	-19.374	0.305	-0.191
-549.354	-67.595	-0.220	-0.087
-548.339	249.970	-0.132	0.226
-547.325	800.000	0.081	-0.266
-546.310	114.020	0.075	-0.092
-545.296	-71.088	0.164	-0.062
-544.281	-54.873	0.177	0.080
-543.266	-200.000	0.007	0.285
-542.252	-39.676	-0.282	0.149
-541.237	-200.000	-0.044	-0.240
-540.223	61.732	-0.142	-0.143
-539.208	-145.060	0.184	0.017
-538.193	800.000	0.006	-0.019
-537.179	-137.885	0.107	-0.012
-536.164	-84.850	-0.397	0.126
-535.150	-40.085	0.065	0.034
-534.135	-200.000	-0.029	0.137
-533.121	-42.608	0.095	0.049
-532.106	-110.894	-0.379	-0.079
-531.091	800.000	0.096	0.277
-530.077	-22.083	0.101	-0.062
-529.062	495.546	-0.004	0.008
-528.048	-20.464	0.238	0.148
-527.033	-152.264	0.548	0.040
-526.018	-69.213	0.256	-0.099
-525.004	450.661	-0.129	0.287
-523.989	-153.429	-0.095	-0.007
-522.975	222.849	0.108	0.175
-521.960	418.397	0.093	0.201
-520.945	-200.000	-0.004	-0.214
-519.931	-11.258	-0.121	-0.080
-518.916	-200.000	0.020	-0.155
-517.902	-53.354	0.328	-0.152
-516.887	127.524	0.043	0.055
-515.872	199.738	0.192	0.297
-514.858	31.701	0.160	0.139
-513.843	-63.080	-0.065	0.027
-512.829	-97.630	0.152	0.040
-511.814	-83.008	0.080	-0.026
-510.799	-74.574	-0.292	-0.106
-509.785	312.597	-0.097	0.183
-508.770	749.192	-0.027	0.073
-507.756	-67.499	0.392	-0.155
-506.741	-124.318	0.165	-0.026
-505.726	-41.607	0.109	-0.057
-504.712	74.234	-0.232	0.245
-503.697	-34.907	0.157	-0.086
-502.683	34.948	-0.196	-0.173
-501.668	-200.000	0.029	-0.286
-500.653	241.286	0.107	0.181
-499.639	-96.878	-0.148	0.039
-498.624	-200.000	0.008	-0.110
-497.610	626.078	0.042	0.107
-496.595	800.000	0.011	-0.040
-495.581	-97.241	-0.327	0.086
-494.566	-200.000	0.034	-0.230
-493.551	-27.924	-0.261	-0.152
-492.537	769.862	0.034	-0.093
-491.522	-60.418	-0.132	-0.057
-490.508	-200.000	-0.012	-0.372
-489.493	-111.047	-0.132	0.027
-488.478	-200.000	-0.035	-0.174
-487.464	520.524	0.081	-0.191
-486.449	-200.000	-0.028	0.176
-485.435	-29.038	-0.039	0.022
-484.420	800.000	0.053	-0.185
-483.405	144.043	0.110	0.148
-482.391	5.239	-0.233	0.173
-481.376	-180.358	-0.284	0.006
-480.362	422.717	-0.113	-0.244
-479.347	-157.952	0.127	-0.008
-478.332	-200.000	0.015	0.083
-477.318	18.434	-0.209	-0.168
-476.303	-169.170	-0.474	0.018
-475.289	-200.000	0.038	0.219
-474.274	110.774	-0.213	-0.259
-473.259	-7.467	-0.145	-0.099
-472.245	-199.777	0.459	-0.002
-471.230	-52.437	-0.044	0.020
-470.216	173.181	-0.219	0.317
-469.201	396.295	-0.159	0.334
-468.186	-200.000	0.002	-0.183
-467.172	-42.394	0.156	-0.080
-466.157	800.000	-0.066	-0.269
-465.143	-56.331	-0.143	0.064
-464.128	-63.773	-0.085	0.035
-463.113	-21.777	-0.219	0.134
-462.099	800.000	-0.085	-0.272
-461.084	-34.439	-0.041	0.023
-460.070	-46.448	-0.262	-0.130
-459.055	209.253	0.030	-0.047
-458.040	-29.308	0.160	0.092
-457.026	23.735	-0.125	0.104
-456.011	739.346	-0.063	-0.170
-454.997	-139.443	0.256	0.028
-453.982	800.000	-0.054	0.215
-452.968	5.602	-0.308	0.229
-451.953	-107.557	-0.107	0.024
-450.938	-69.970	0.162	-0.062
-449.924	406.616	0.114	-0.242
-448.909	80.895	-0.245	-0.266
-447.895	-62.476	-0.254	0.106
-446.880	-200.000	0.001	-0.105
-445.865	800.000	0.085	0.256
-444.851	800.000	0.039	-0.126
-443.836	-154.842	-0.248	0.017
-442.822	-200.000	-0.030	-0.307
-441.807	-200.000	-0.016	-0.127
-440.792	-200.000	0.003	-0.201
-439.778	-73.375	0.232	-0.085
-438.763	50.115	-0.356	-0.338
-437.749	800.000	-0.071	-0.207
-436.734	-67.660	-0.122	0.048
-435.719	-33.165	-0.162	0.091
-434.705	800.000	0.052	0.157
-433.690	312.309	0.099	-0.188
-432.676	-135.694	-0.291	0.035
-431.661	-131.687	0.457	0.060
-430.646	-200.000	-0.011	0.213
-429.632	-49.099	-0.369	-0.178
-428.617	138.029	0.117	0.154
-427.603	-26.900	-0.251	0.148
-426.588	-96.000	-0.085	0.023
-425.573	305.566	-0.176	-0.330
-424.559	-1.853	-0.268	-0.190
-423.544	-8.726	0.409	0.276
-422.530	-30.076	-0.179	0.103
-421.515	-200.000	-0.021	0.396
-420.500	-143.232	-0.319	-0.031
-419.486	696.802	0.117	-0.310
-418.471	-57.331	-0.268	0.119
-417.457	-132.160	0.068	-0.009
-416.442	221.766	-0.204	-0.330
-415.428	0.877	0.152	0.109
-414.413	-0.562	-0.095	0.068
-413.398	44.291	0.163	0.150
-412.384	-200.000	0.053	-0.401
-411.369	26.298	-0.082	0.069
-410.355	168.811	0.155	0.222
-409.340	192.531	-0.129	0.195
-408.325	31.876	0.249	-0.215
-407.311	85.153	-0.162	0.179
-406.296	-200.000	-0.067	0.344
-405.282	-189.410	0.161	-0.002
-404.267	-65.195	0.041	-0.017
-403.252	-112.033	-0.270	-0.055
-402.238	-122.644	0.263	-0.043
-401.223	23.418	-0.114	0.094
-400.209	800.000	-0.041	0.153
-399.194	110.182	-0.174	-0.210
-398.179	-56.973	0.207	0.092
-397.165	-46.080	0.184	-0.091
-396.150	800.000	-0.035	0.115
-395.136	-200.000	-0.040	-0.310
-394.121	383.112	0.016	0.032
-393.106	572.555	-0.033	-0.082
-392.092	-200.000	0.008	-0.234
-391.077	-51.819	-0.342	-0.160
-390.063	-72.324	-0.039	0.014
-389.048	-170.783	0.033	-0.001
-388.033	479.681	0.114	0.260
-387.019	-106.071	-0.216	0.049
-386.004	-112.969	-0.134	-0.027
-384.990	187.579	0.190	-0.284
-383.975	300.808	0.088	0.163
-382.960	377.777	0.115	0.236
-381.946	-16.060	0.129	-0.082
-380.931	23.961	0.212	0.176
-379.917	411.612	0.232	-0.495
-378.902	-88.306	0.199	0.060
-377.888	-84.333	-0.273	-0.087
-376.873	11.483	-0.160	0.123
-375.858	-110.903	-0.295	-0.061
-374.844	-6.209	0.322	0.221
-373.829	-200.000	0.003	0.061
-372.815	468.693	-0.078	0.176
-371.800	-200.000	0.005	-0.258
-370.785	-98.399	0.322	0.083
-369.771	-108.803	-0.333	0.071
-368.756	-123.468	0.194	-0.031
-367.742	30.398	-0.116	-0.099
-366.727	-76.770	0.166	-0.058
-365.712	-96.220	0.093	0.025
-364.698	77.560	-0.207	0.221
-363.683	-64.504	-0.152	0.062
-362.669	-52.144	0.315	-0.147
-361.654	-70.869	-0.105	-0.040
-360.639	12.364	0.201	0.155
-359.625	-145.968	-0.086	0.008
-358.610	432.482	-0.063	0.138
-357.596	1.977	-0.122	0.088
-356.581	-200.000	0.003	0.057
-355.566	27.290	-0.221	0.186
-354.552	-22.797	0.477	0.289
-353.537	-200.000	-0.005	0.166
-352.523	800.000	-0.027	0.098
-351.508	-23.064	-0.332	0.200
-350.493	114.212	0.251	0.306
-349.479	-20.890	0.017	0.010
-348.464	-200.000	-0.030	0.267
-347.450	77.684	0.030	0.032
-346.435	800.000	-0.015	0.060
-345.420	139.328	0.140	-0.185
-344.406	278.279	0.088	0.156
-343.391	426.599	0.087	0.187
-342.377	-90.144	0.126	0.037
-341.362	447.191	0.148	-0.326
-340.348	-200.000	0.018	0.348
-339.333	-112.542	0.128	-0.026
-338.318	231.853	0.295	-0.484
-337.304	146.620	-0.114	-0.154
-336.289	-161.031	-0.037	0.002
-335.275	-80.445	0.196	0.066
-334.260	47.059	-0.148	-0.138
-333.245	-75.538	0.464	0.165
-332.231	5.788	-0.349	0.258
-331.216	-130.162	0.305	-0.042
-330.202	-200.000	-0.017	0.418
-329.187	-4.439	-0.310	0.215
-328.172	16.897	-0.234	-0.185
-327.158	-196.441	0.214	-0.001
-326.143	800.000	-0.147	0.428
-325.129	-8.515	0.169	0.113
-324.114	-11.644	-0.205	-0.135
-323.099	249.861	-0.115	-0.195
-322.085	-106.649	0.368	0.082
-321.070	-200.000	0.027	0.300
-320.056	87.542	0.156	-0.173
-319.041	-156.217	-0.050	0.003
-318.026	-20.062	-0.299	0.185
-317.012	-200.000	-0.063	0.391
-315.997	765.349	0.083	0.225
-314.983	-13.829	-0.126	-0.082
-313.968	800.000	-0.119	-0.408
-312.953	-200.000	-0.014	-0.336
-311.939	-127.990	-0.219	-0.031
-310.924	196.051	0.190	0.289
-309.910	-200.000	0.034	0.292
-308.895	336.327	0.144	-0.280
-307.880	-67.141	-0.278	-0.109
-306.866	50.317	0.050	0.048
-305.851	231.801	0.112	-0.184
-304.837	-3.523	0.051	-0.035
-303.822	800.000	0.048	0.186
-302.807	-53.699	-0.050	0.023
-301.793	-73.231	-0.278	-0.102
-300.778	-200.000	-0.020	-0.370
-299.764	-200.000	-0.008	0.099
-298.749	-104.055	-0.037	-0.009
-297.735	-200.000	-0.051	-0.233
-296.720	-46.189	0.448	-0.221
-295.705	-200.000	-0.030	0.326
-294.691	-200.000	0.030	-0.220
-293.676	-32.338	0.032	-0.018
-292.662	158.520	-0.043	0.060
-291.647	-53.189	0.107	-0.049
-290.632	-90.664	-0.201	0.058
-289.618	218.113	-0.106	0.169
-288.603	-200.000	-0.057	0.318
-287.589	800.000	0.059	0.221
-286.574	35.577	0.189	0.166
-285.559	-55.234	0.290	-0.131
-284.545	-200.000	-0.054	-0.340
-283.530	800.000	-0.095	0.292
-282.516	-131.029	0.270	0.036
-281.501	43.067	0.036	0.033
-280.486	-200.000	0.003	0.044
-279.472	-0.937	0.191	-0.135
-278.457	7.529	0.122	-0.091
-277.443	-108.077	-0.004	-0.001
-276.428	800.000	-0.059	0.174
-275.413	-200.000	0.017	0.274
-274.399	-22.888	0.081	-0.049
-273.384	12.917	0.279	-0.216
-272.370	-116.260	0.124	0.023
-271.355	539.835	-0.070	-0.165
-270.340	-200.000	0.038	0.291
-269.326	-200.000	0.044	0.239
-268.311	138.610	0.172	0.226
-267.297	614.457	0.102	0.256
-266.282	82.201	0.063	0.068
-265.267	-132.846	0.136	-0.017
-264.253	72.523	0.025	-0.027
-263.238	-92.113	-0.108	-0.031
-262.224	-40.148	-0.171	0.089
-261.209	105.920	-0.226	0.267
-260.195	-18.947	-0.241	0.150
-259.180	-173.855	0.393	0.012
-258.165	-200.000	-0.031	-0.261
-257.151	-166.757	0.155	0.006
-256.136	800.000	0.031	-0.125
-255.122	800.000	-0.109	-0.348
-254.107	49.386	0.056	-0.053
-253.092	-31.635	0.083	-0.047
-252.078	-46.795	-0.406	0.198
-251.063	65.083	0.139	-0.140
-250.049	-200.000	0.088	0.416
-249.034	18.637	0.006	0.005
-248.019	800.000	0.059	0.251
-247.005	59.474	-0.065	-0.064
-245.990	492.654	-0.153	-0.350
-244.976	-51.742	0.223	-0.104
-243.961	-200.000	0.031	0.149
-242.946	-15.458	0.171	-0.109
-241.932	-113.927	-0.262	0.051
-240.917	-115.862	-0.446	0.083
-239.903	-95.825	0.143	0.038
-238.888	325.322	0.065	-0.124
-237.873	-200.000	-0.009	-0.267
-236.859	-84.556	-0.134	0.042
-235.844	-105.355	-0.128	0.029
-234.830	-92.081	0.421	-0.119
-233.815	309.293	-0.164	-0.306
-232.800	-200.000	0.016	-0.227
-231.786	13.703	-0.194	-0.150
-230.771	39.202	-0.124	0.111
-229.757	-105.244	0.211	-0.048
-228.742	420.494	-0.062	0.133
-227.727	302.079	-0.117	0.217
-226.713	216.346	-0.211	-0.335
-225.698	23.009	0.291	0.238
-224.684	-130.760	0.201	0.027
-223.669	-200.000	0.080	-0.350
-222.655	-94.434	0.201	-0.055
-221.640	800.000	-0.090	-0.311
-220.625	22.129	0.102	-0.083
-219.611	-106.326	0.141	0.031
-218.596	-96.841	-0.576	0.151
-217.582	-171.657	0.204	0.007
-216.567	-5.995	0.212	0.145
-215.552	-138.597	0.199	-0.022
-214.538	267.274	-0.179	-0.312
-213.523	-29.517	0.322	-0.184
-212.509	444.199	0.042	0.093
-211.494	-200.000	0.047	-0.282
-210.479	7.310	-0.071	0.053
-209.465	-200.000	0.027	-0.160
-208.450	-48.295	0.362	0.174
-207.436	-82.068	0.220	0.072
-206.421	0.637	0.150	0.107
-205.406	-200.000	0.003	-0.044
-204.392	-64.129	-0.466	0.190
-203.377	-77.238	0.069	0.024
-202.363	-167.842	-0.080	0.003
-201.348	-70.975	-0.377	-0.141
-200.333	393.491	0.140	-0.289
-199.319	344.564	-0.164	-0.321
-198.304	-200.000	-0.033	-0.224
-197.290	-150.581	0.438	-0.033
-196.275	-100.613	-0.375	-0.092
-195.260	287.545	-0.097	-0.176
-194.246	-8.365	-0.084	-0.056
-193.231	9.658	-0.086	-0.065
-192.217	-121.574	0.248	-0.041
-191.202	-21.288	0.168	0.102
-190.187	-2.064	-0.102	0.071
-189.173	800.000	0.106	0.307
-188.158	-64.678	-0.205	0.083
-187.144	352.487	0.141	0.279
-186.129	-120.579	0.278	-0.047
-185.114	-90.864	0.165	0.047
-184.100	28.531	-0.324	0.273
-183.085	-200.000	-0.019	0.133
-182.071	87.538	-0.196	0.216
-181.056	-200.000	-0.051	0.260
-180.042	-200.000	0.032	0.364
-179.027	800.000	0.029	0.099
-178.012	322.351	-0.065	-0.124
-176.998	22.420	0.144	0.117
-175.983	-200.000	-0.017	-0.210
-174.969	55.355	-0.090	0.086
-173.954	277.151	-0.110	-0.195
-172.939	-54.887	0.197	-0.088
-171.925	-109.387	-0.222	-0.047
-170.910	-43.317	-0.293	0.148
-169.896	-200.000	-0.020	-0.144
-168.881	-136.932	0.245	-0.028
-167.866	82.634	-0.226	0.244
-166.852	643.305	0.056	-0.142
-165.837	25.023	0.148	0.122
-164.823	800.000	0.086	0.299
-163.808	-200.000	-0.058	0.443
-162.793	-200.000	-0.078	0.372
-161.779	259.926	-0.160	-0.275
-160.764	775.835	0.053	0.143
-159.750	219.029	0.129	0.206
-158.735	35.089	0.270	0.235
-157.720	-129.365	0.160	0.022
-156.706	345.196	-0.119	-0.233
-155.691	0.706	-0.245	0.174
-154.677	-44.640	-0.117	-0.058
-153.662	-160.826	-0.262	-0.014
-152.647	-156.332	0.081	-0.005
-151.633	800.000	0.048	-0.157
-150.618	-142.751	0.161	0.016
-149.604	35.416	0.171	-0.149
-148.589	-200.000	0.023	0.327
-147.574	-200.000	0.021	0.157
-146.560	55.546	-0.063	-0.060
-145.545	-74.668	0.083	-0.030
-144.531	-0.620	-0.085	-0.060
-143.516	-73.804	0.082	-0.030
-142.502	416.896	0.143	0.303
-141.487	-16.001	-0.382	-0.242
-140.472	517.180	0.074	-0.172
-139.458	411.057	-0.039	0.083
-138.443	-79.948	0.229	0.077
-137.429	62.870	0.149	0.148
-136.414	155.533	0.121	0.165
-135.399	-200.000	-0.043	0.279
-134.385	99.503	-0.085	-0.098
-133.370	-89.207	-0.254	0.075
-132.356	-200.000	-0.007	0.364
-131.341	464.311	0.108	-0.241
-130.326	-200.000	0.052	-0.317
-129.312	240.989	0.092	-0.152
-128.297	-64.329	-0.027	0.011
-127.283	83.250	0.049	0.053
-126.268	-58.138	0.267	-0.116
-125.253	325.281	0.059	0.111
-124.239	-146.716	0.232	0.020
-123.224	256.705	0.032	0.055
-122.210	67.236	0.140	0.142
-121.195	-83.995	-0.156	0.049
-120.180	631.048	0.077	0.194
-119.166	-67.983	0.240	-0.093
-118.151	351.032	-0.115	0.227
-117.137	-78.941	0.198	0.067
-116.122	-200.000	-0.011	-0.249
-115.107	49.419	-0.044	0.041
-114.093	-62.738	-0.113	0.046
-113.078	-23.836	0.305	-0.181
-112.064	-200.000	0.011	0.214
-111.049	-200.000	-0.007	-0.139
-110.034	17.831	-0.471	-0.372
-109.020	-60.214	-0.296	-0.125
-108.005	-99.607	0.137	-0.034
-106.991	35.040	0.229	-0.200
-105.976	-98.720	0.138	0.035
-104.962	800.000	-0.042	0.145
-103.947	28.157	0.230	-0.193
-102.932	800.000	-0.108	-0.381
-101.918	-138.773	0.133	-0.014
-100.903	-108.279	-0.212	-0.045
-99.889	-116.681	0.308	0.056
-98.874	800.000	0.041	0.134
-97.859	389.299	-0.059	0.121
-96.845	800.000	-0.069	0.264
-95.830	257.889	-0.088	0.151
-94.816	-107.582	0.221	-0.048
-93.801	162.693	-0.293	0.408
-92.786	-75.268	-0.411	0.146
-91.772	132.130	0.101	-0.130
-90.757	-82.677	-0.160	0.052
-89.743	140.382	-0.044	0.058
-88.728	-38.234	-0.180	-0.095
-87.713	798.899	-0.042	-0.116
-86.699	-118.795	-0.058	0.010
-85.684	-107.773	0.039	-0.008
-84.670	800.000	-0.058	-0.187
-83.655	-200.000	0.066	-0.345
-82.640	-47.217	0.206	0.099
-81.626	42.435	-0.045	-0.040
-80.611	-75.006	-0.293	0.104
-79.597	-200.000	-0.014	0.165
-78.582	-70.026	0.339	0.128
-77.567	-50.400	0.129	-0.061
-76.553	35.895	0.271	0.237
-75.538	-200.000	0.006	-0.271
-74.524	-200.000	0.044	0.276
-73.509	22.124	0.149	0.121
-72.494	-177.583	-0.302	0.007
-71.480	-44.301	-0.146	0.073
-70.465	54.713	-0.221	-0.212
-69.451	-200.000	-0.005	-0.265
-68.436	-49.861	0.213	-0.100
-67.422	136.740	0.165	-0.214
-66.407	-17.608	0.446	-0.278
-65.392	-43.023	-0.136	-0.069
-64.378	-1.413	0.104	0.073
-63.363	46.021	-0.193	0.177
-62.349	-83.387	0.203	0.065
-61.334	-6.550	-1.180	-0.797
-60.319	800.000	0.127	0.370
-59.305	800.000	-0.153	-0.487
-58.290	124.685	0.655	0.818
-57.276	800.000	0.560	1.580
-56.261	-200.000	83.537	508.203
-55.246	492.967	1358.754	3087.277
-54.232	147.324	2588.847	3453.748
-53.217	106.380	2361.575	2773.802
-52.203	48.038	1974.245	1828.595
-51.188	42.342	1760.099	1585.338
-50.173	39.492	1714.425	1522.152
-49.159	53.804	1754.541	1669.782
-48.144	58.020	1773.676	1720.855
-47.130	42.078	1733.901	1559.438
-46.115	39.146	1719.355	1523.605
-45.100	38.988	1714.793	1518.285
-44.086	38.967	1711.900	1515.501
-43.071	39.009	1709.228	1513.400
-42.057	38.820	1707.545	1510.392
-41.042	38.909	1704.903	1508.682
-40.027	38.936	1703.246	1507.362
-39.013	38.954	1700.969	1505.424
-37.998	38.866	1699.460	1503.354
-36.984	38.891	1698.098	1502.283
-35.969	39.092	1696.217	1502.099
-34.954	39.128	1694.763	1501.024
-33.940	39.036	1692.947	1498.650
-32.925	39.110	1690.602	1497.084
-31.911	39.071	1689.267	1495.544
-30.896	39.075	1687.075	1493.571
-29.881	39.091	1685.317	1492.078
-28.867	39.154	1683.880	1491.229
-27.852	39.021	1683.107	1489.473
-26.838	39.127	1681.477	1488.775
-25.823	39.122	1679.910	1487.289
-24.809	39.089	1678.613	1485.837
-23.794	39.070	1677.400	1484.559
-22.779	39.036	1675.701	1482.738
-21.765	39.050	1673.809	1481.112
-20.750	39.036	1672.221	1479.541
-19.736	39.054	1670.541	1478.134
-18.721	39.129	1669.188	1477.440
-17.706	39.094	1668.164	1476.215
-16.692	39.078	1666.277	1474.360
-15.677	39.198	1664.848	1473.942
-14.663	39.146	1663.830	1472.592
-13.648	39.108	1661.777	1470.431
-12.633	39.071	1660.768	1469.203
-11.619	39.053	1658.907	1467.361
-10.604	39.037	1657.365	1465.824
-9.590	39.099	1655.886	1464.916
-8.575	39.113	1654.708	1463.923
-7.560	39.047	1653.325	1462.150
-6.546	39.049	1652.041	1460.973
-5.531	39.075	1651.035	1460.214
-4.517	39.092	1649.630	1459.042
-3.502	39.008	1648.620	1457.471
-2.487	39.075	1646.862	1456.354
-1.473	38.794	1634.735	1443.500
-0.458	35.449	1612.406	1399.394
0.556	29.009	1607.171	1346.950
1.571	24.566	1626.915	1330.374
2.586	22.788	1638.607	1326.461
3.600	19.951	1584.510	1261.911
4.615	11.235	1470.675	1111.928
5.629	2.901	1400.479	1004.434
6.644	1.055	1390.932	985.496
7.659	0.932	1388.996	983.242
8.673	0.901	1388.344	982.493
9.688	0.822	1386.620	980.672
10.702	0.681	1383.566	977.512
11.717	3.924	1389.002	1002.302
12.731	11.902	1401.636	1063.310
13.746	17.178	1408.504	1102.768
14.761	17.546	1408.359	1104.944
15.775	16.893	1405.955	1098.733
16.790	15.868	1402.799	1089.539
17.804	14.985	1400.862	1082.229
18.819	14.764	1399.003	1079.267
19.834	14.426	1397.506	1075.835
20.848	14.067	1396.294	1072.491
21.863	13.785	1395.431	1069.918
22.877	13.616	1393.984	1067.620
23.892	13.522	1393.170	1066.301
24.907	13.538	1392.475	1065.778
25.921	13.564	1391.773	1065.313
26.936	13.687	1390.754	1065.226
27.950	13.632	1389.611	1063.905
28.965	13.725	1388.748	1063.750
29.980	13.802	1387.290	1063.027
30.994	13.794	1386.148	1062.009
32.009	13.874	1385.530	1061.955
33.023	13.815	1384.814	1060.935
34.038	13.855	1383.094	1059.779
35.053	13.808	1381.906	1058.473
36.067	13.883	1380.732	1057.959
37.082	13.813	1380.371	1057.140
38.096	13.832	1378.915	1056.055
39.111	13.874	1378.266	1055.732
40.126	13.809	1377.356	1054.531
41.140	13.722	1376.780	1053.442
42.155	13.595	1376.366	1052.223
43.169	13.631	1376.241	1052.261
44.184	13.647	1375.841	1051.969
45.199	13.719	1375.264	1051.891
46.213	13.671	1374.771	1051.117
47.228	13.821	1373.734	1051.179
48.242	13.761	1372.246	1049.568
49.257	13.736	1370.867	1048.260
50.271	13.714	1369.782	1047.199
51.286	13.800	1368.179	1046.424
52.301	13.797	1366.575	1045.087
53.315	13.663	1366.051	1043.752
54.330	13.689	1364.502	1042.636
55.344	13.675	1363.777	1041.901
56.359	13.644	1362.193	1040.404
57.374	13.684	1361.436	1039.988
58.388	13.630	1360.671	1038.972
59.403	13.608	1360.313	1038.469
60.417	13.608	1359.585	1037.820
61.432	13.607	1358.706	1037.055
62.447	13.551	1357.754	1035.881
63.461	13.587	1356.360	1034.954
64.476	13.459	1355.605	1033.485
65.490	13.607	1353.743	1032.902
66.505	13.600	1352.426	1031.761
67.520	13.663	1351.105	1031.048
68.534	13.621	1350.009	1029.862
69.549	13.664	1348.979	1029.256
70.563	13.551	1348.249	1027.904
71.578	13.604	1346.640	1026.912
72.593	13.584	1345.699	1025.984
73.607	13.491	1345.131	1024.883
74.622	13.458	1344.389	1024.024
75.636	13.506	1343.394	1023.472
76.651	13.405	1343.076	1022.516
77.666	13.469	1342.058	1022.043
78.680	13.533	1341.366	1021.822
79.695	13.499	1340.545	1020.897
80.709	13.517	1339.730	1020.295
81.724	13.623	1338.946	1020.259
82.739	13.600	1337.878	1019.216
83.753	13.650	1336.859	1018.655
84.768	13.719	1335.422	1017.896
85.782	13.675	1334.614	1016.920
86.797	13.698	1332.905	1015.669
87.812	13.657	1331.745	1014.442
88.826	13.685	1330.782	1013.788
89.841	13.750	1329.725	1013.290
90.855	13.748	1328.842	1012.518
91.870	13.768	1327.895	1011.829
92.884	13.786	1326.899	1011.091
93.899	13.783	1326.331	1010.550
94.914	13.834	1325.788	1010.356
95.928	13.802	1324.917	1009.409
96.943	13.824	1323.716	1008.540
97.957	13.781	1322.854	1007.532
98.972	13.773	1321.525	1006.383
99.987	13.736	1320.951	1005.633
101.001	13.809	1319.534	1004.906
102.016	13.751	1318.440	1003.633
103.030	13.770	1317.613	1003.030
104.045	13.749	1316.564	1002.014
105.060	13.772	1315.460	1001.224
106.074	13.611	1314.459	999.404
107.089	13.664	1312.860	998.419
108.103	13.710	1311.874	997.857
109.118	13.633	1310.590	996.328
110.133	13.582	1309.502	995.110
111.147	13.636	1307.827	994.068
112.162	13.713	1305.990	993.049
113.176	13.729	1305.309	992.537
114.191	13.737	1304.156	991.619
115.206	13.728	1302.992	990.597
116.220	13.748	1301.526	989.511
117.235	13.702	1300.778	988.581
118.249	13.686	1299.805	987.658
119.264	13.733	1298.396	986.782
120.279	13.698	1296.980	985.409
121.293	13.595	1296.395	984.265
122.308	13.689	1295.336	983.935
123.322	13.663	1294.299	982.903
124.337	13.636	1293.342	981.930
125.352	13.634	1292.376	981.097
126.366	13.694	1291.120	980.413
127.381	13.610	1290.371	979.259
128.395	13.666	1288.923	978.406
129.410	13.762	1287.877	978.094
130.424	13.717	1287.389	977.366
131.439	13.641	1286.532	976.181
132.454	13.721	1285.191	975.549
133.468	13.727	1284.527	974.997
134.483	13.754	1283.884	974.578
135.497	13.794	1282.751	973.867
136.512	13.835	1281.277	972.905
137.527	13.817	1279.922	971.686
138.541	13.762	1278.211	969.978
139.556	13.924	1277.013	969.926
140.570	13.878	1276.533	969.209
141.585	13.929	1274.628	967.974
142.600	13.882	1273.789	966.978
143.614	13.932	1272.679	966.340
144.629	13.900	1271.735	965.352
145.643	13.980	1270.233	964.594
146.658	13.815	1269.518	963.005
147.673	13.932	1267.763	962.265
148.687	13.800	1266.734	960.636
149.702	13.815	1265.395	959.623
150.716	13.741	1263.914	957.987
151.731	13.840	1262.451	957.364
152.746	13.836	1261.239	956.336
153.760	13.819	1260.257	955.414
154.775	13.912	1258.816	954.772
155.789	13.912	1257.690	953.830
156.804	13.841	1256.978	952.798
157.819	14.003	1255.422	952.466
158.833	13.926	1254.884	951.530
159.848	14.001	1253.485	950.815
160.862	14.097	1252.615	950.621
161.877	13.979	1251.324	948.884
162.892	13.953	1250.252	947.835
163.906	13.908	1249.540	946.958
164.921	13.890	1248.524	946.001
165.935	13.869	1247.904	945.328
166.950	13.987	1246.878	945.134
167.964	13.968	1246.308	944.513
168.979	13.987	1245.382	943.838
169.994	13.971	1244.720	943.161
171.008	14.105	1243.714	943.076
172.023	14.067	1243.064	942.284
173.037	14.091	1242.148	941.641
174.052	14.169	1240.837	941.004
175.067	14.062	1239.876	939.590
176.081	14.066	1239.011	938.870
177.096	14.080	1238.091	938.168
178.110	14.065	1236.860	937.069
179.125	14.035	1236.057	936.211
180.140	14.021	1234.809	935.101
181.154	14.051	1233.320	934.062
182.169	13.993	1232.231	932.828
183.183	14.167	1230.766	932.615
184.198	14.205	1229.643	931.894
185.213	14.330	1228.311	931.501
186.227	14.184	1227.310	929.839
187.242	14.260	1226.252	929.384
188.256	14.359	1225.278	929.113
189.271	14.401	1224.094	928.368
190.286	14.263	1223.229	926.862
191.300	14.156	1222.918	925.947
192.315	14.111	1222.278	925.129
193.329	14.144	1221.126	924.360
194.344	14.198	1220.361	923.998
195.359	14.262	1220.356	924.271
196.373	14.317	1219.412	923.776
197.388	14.302	1218.828	923.173
198.402	14.290	1218.295	922.621
199.417	14.316	1217.600	922.155
200.432	14.412	1216.632	921.871
201.446	14.537	1215.577	921.680
202.461	14.443	1214.880	920.554
203.475	14.524	1213.712	920.034
204.490	14.512	1212.992	919.337
205.504	14.510	1211.542	918.148
206.519	14.439	1210.531	916.911
207.534	14.622	1208.848	916.562
208.548	14.578	1207.988	915.586
209.563	14.562	1207.099	914.741
210.577	14.479	1206.501	913.756
211.592	14.506	1205.292	912.905
212.607	14.562	1204.833	912.785
213.621	14.572	1203.850	912.011
214.636	14.637	1202.738	911.445
215.650	14.565	1201.786	910.250
216.665	14.658	1200.968	910.056
217.680	14.642	1200.221	909.321
218.694	14.603	1199.227	908.274
219.709	14.680	1198.495	908.062
220.723	14.632	1197.714	907.130
221.738	14.734	1197.081	907.122
222.753	14.767	1196.446	906.736
223.767	14.616	1195.602	905.202
224.782	14.685	1194.848	904.923
225.796	14.870	1194.106	905.285
226.811	14.851	1193.875	904.923
227.826	14.714	1193.289	903.661
228.840	14.833	1192.172	903.375
229.855	14.855	1191.451	902.868
230.869	14.781	1190.637	901.774
231.884	14.775	1189.510	900.810
232.899	14.870	1188.742	900.657
233.913	14.740	1188.407	899.625
234.928	14.860	1187.773	899.711
235.942	14.811	1186.884	898.697
236.957	14.731	1185.861	897.409
237.972	14.826	1185.229	897.365
238.986	14.882	1184.472	897.011
240.001	14.933	1183.866	896.744
241.015	14.910	1182.799	895.737
242.030	14.852	1182.053	894.782
243.045	14.860	1181.382	894.237
244.059	14.922	1180.295	893.666
245.074	14.907	1179.932	893.234
246.088	15.014	1178.775	892.846
247.103	14.947	1178.398	892.124
248.117	15.071	1177.039	891.677
249.132	15.184	1176.196	891.562
250.147	15.091	1175.848	890.726
251.161	15.184	1175.065	890.545
252.176	15.344	1173.795	890.358
253.190	15.256	1173.458	889.554
254.205	15.172	1173.180	888.820
255.220	15.298	1172.601	888.971
256.234	15.185	1171.960	887.807
257.249	15.388	1171.167	888.201
258.263	15.407	1170.227	887.510
259.278	15.370	1169.886	886.979
260.293	15.381	1169.442	886.619
261.307	15.279	1169.350	885.936
262.322	15.359	1168.022	885.273
263.336	15.348	1167.497	884.736
264.351	15.371	1167.037	884.432
265.366	15.365	1166.288	883.751
266.380	15.376	1165.762	883.336
267.395	15.412	1164.764	882.692
268.409	15.411	1163.780	881.860
269.424	15.468	1163.081	881.553
270.439	15.472	1162.520	881.072
271.453	15.462	1162.064	880.596
272.468	15.450	1161.090	879.717
273.482	15.546	1159.969	879.291
274.497	15.518	1159.513	878.722
275.512	15.400	1159.408	877.945
276.526	15.489	1158.212	877.429
277.541	15.555	1157.215	876.939
278.555	15.620	1156.804	876.889
279.570	15.603	1156.137	876.217
280.585	15.544	1155.146	875.080
281.599	15.686	1154.314	875.113
282.614	15.765	1153.114	874.537
283.628	15.642	1152.021	872.994
284.643	15.701	1151.257	872.640
285.657	15.603	1150.543	871.516
286.672	15.669	1149.596	871.065
287.687	15.717	1148.257	870.219
288.701	15.776	1147.738	870.056
289.716	15.739	1146.979	869.209
290.730	15.758	1145.884	868.402
291.745	15.752	1145.796	868.229
292.760	15.838	1144.886	867.905
293.774	15.920	1144.131	867.677
294.789	15.920	1143.338	866.999
295.803	15.971	1142.748	866.737
296.818	15.862	1142.264	865.733
297.833	15.874	1141.189	864.902
298.847	15.874	1140.566	864.354
299.862	15.913	1139.577	863.732
300.876	16.003	1139.126	863.771
301.891	15.925	1138.269	862.646
302.906	15.875	1137.959	862.079
303.920	16.054	1136.848	862.075
304.935	15.953	1136.494	861.216
305.949	16.076	1135.728	861.189
306.964	16.143	1134.865	860.798
307.979	16.005	1133.857	859.255
308.993	16.057	1133.250	858.982
310.008	16.061	1132.608	858.442
311.022	16.059	1131.625	857.611
312.037	16.095	1130.982	857.232
313.052	15.955	1130.500	856.079
314.066	16.089	1128.712	855.328
315.081	16.120	1128.167	854.997
316.095	16.069	1127.530	854.178
317.110	16.055	1127.068	853.683
318.125	16.181	1126.230	853.612
319.139	16.093	1125.566	852.585
320.154	16.236	1124.478	852.409
321.168	16.150	1123.898	851.460
322.183	16.303	1123.338	851.731
323.197	16.298	1122.653	851.115
324.212	16.152	1122.492	850.178
325.227	16.270	1121.826	850.194
326.241	16.215	1120.982	849.202
327.256	16.232	1120.046	848.503
328.270	16.236	1118.772	847.481
329.285	16.262	1117.981	846.941
330.300	16.192	1117.209	845.928
331.314	16.205	1116.378	845.288
332.329	16.331	1115.304	845.032
333.343	16.292	1114.652	844.267
334.358	16.268	1114.082	843.641
335.373	16.401	1113.168	843.539
336.387	16.334	1112.230	842.420
337.402	16.283	1111.553	841.577
338.416	16.485	1110.692	841.857
339.431	16.418	1110.402	841.232
340.446	16.370	1110.159	840.733
341.460	16.523	1109.068	840.592
342.475	16.597	1108.076	840.132
343.489	16.552	1107.216	839.182
344.504	16.491	1106.318	838.129
345.519	16.646	1105.394	838.119
346.533	16.659	1104.459	837.401
347.548	16.628	1103.870	836.729
348.562	16.621	1103.263	836.160
349.577	16.567	1102.469	835.218
350.592	16.580	1101.344	834.356
351.606	16.674	1100.591	834.175
352.621	16.563	1100.316	833.346
353.635	16.529	1099.520	832.501
354.650	16.624	1098.818	832.364
355.665	16.608	1098.107	831.672
356.679	16.716	1097.432	831.618
357.694	16.706	1096.538	830.815
358.708	16.672	1096.030	830.194
359.723	16.759	1095.284	829.979
360.738	16.813	1094.460	829.548
361.752	16.755	1094.107	828.920
362.767	16.786	1093.805	828.772
363.781	16.743	1092.893	827.798
364.796	16.844	1092.075	827.597
365.810	16.890	1091.799	827.541
366.825	16.925	1091.112	827.117
367.840	16.929	1091.065	827.028
368.854	16.922	1090.109	826.196
369.869	16.833	1089.762	825.423
370.883	16.982	1088.505	825.126
371.898	17.041	1087.750	824.768
372.913	16.930	1087.264	823.786
373.927	17.011	1086.717	823.693
374.942	17.126	1085.885	823.547
375.956	17.114	1085.502	823.125
376.971	16.989	1085.422	822.384
377.986	17.094	1084.462	822.093
379.000	17.111	1084.211	821.913
380.015	17.139	1083.480	821.424
381.029	17.140	1082.638	820.713
382.044	17.151	1082.027	820.232
383.059	17.204	1081.107	819.718
384.073	17.299	1080.260	819.464
385.088	17.232	1079.563	818.538
386.102	17.150	1078.556	817.309
387.117	17.247	1077.648	817.015
388.132	17.151	1077.008	815.995
389.146	17.097	1075.720	814.686
390.161	17.309	1075.197	815.235
391.175	17.267	1074.336	814.308
392.190	17.403	1073.087	813.939
393.205	17.321	1072.824	813.278
394.219	17.337	1072.477	813.018
395.234	17.374	1071.332	812.254
396.248	17.326	1070.542	811.356
397.263	17.319	1069.217	810.246
398.278	17.222	1068.719	809.337
399.292	17.206	1068.147	808.753
400.307	17.478	1066.801	808.957
401.321	17.416	1066.266	808.184
402.336	17.366	1065.981	807.658
403.350	17.359	1065.379	807.097
404.365	17.404	1064.710	806.734
405.380	17.454	1063.923	806.306
406.394	17.485	1062.966	805.656
407.409	17.495	1062.467	805.249
408.423	17.551	1061.682	804.851
409.438	17.584	1060.819	804.279
410.453	17.590	1060.118	803.708
411.467	17.594	1059.638	803.292
412.482	17.625	1059.160	803.003
413.496	17.734	1058.199	802.714
414.511	17.729	1057.494	802.089
415.526	17.673	1057.281	801.589
416.540	17.730	1057.000	801.573
417.555	17.738	1056.285	801.000
418.569	17.737	1055.561	800.373
419.584	17.691	1054.990	799.653
420.599	17.717	1054.867	799.613
421.613	92.920	1306.320	1405.724
422.628	85.648	1342.948	1405.854
