DTS Sentinel unit serial number:	SN413079Multiplexer serial number:	ORYXHardware model number:	OX4-SRSoftware version number:	ORYX F/W v4.00 Oryx Data Collector v3.7.2.0data status	okinstallation	princeton_trtdifferential loss correction	single-endedforward channel	channel 2reverse channel	N/Adate	2019/09/13time	09:43:34forward acquisition time	60.00reverse acquisition time	0.00gamma	496.2192k internal	0.2325k external	0.2325temperature offset calibration	1.0190default loss term (dB/km)	0.3790temperature slope calibration	1.0000multiplexer offset coefficient	1.0000multiplexer slope coefficient	1.0000fibre end	0.00T internal ref (°C)	29.77T ext. ref 1 (°C)	4.43T ext. ref 2 (°C)	26.29length (m)	temperature (°C)	Stokes	anti-Stokes-747.200	124.688	0.178	0.226
-746.185	413.801	-0.038	-0.082
-745.171	-35.111	0.098	-0.054
-744.156	-76.574	-0.603	0.213
-743.142	-200.000	0.012	-0.123
-742.127	331.238	-0.048	0.094
-741.112	800.000	-0.082	0.359
-740.098	-180.868	-0.169	-0.003
-739.083	-45.974	0.297	-0.148
-738.069	55.829	-0.318	0.311
-737.054	-200.000	-0.010	0.177
-736.039	-181.894	-0.419	-0.008
-735.025	17.127	0.162	0.129
-734.010	-143.497	-0.508	0.049
-732.996	-154.302	0.145	0.010
-731.981	-98.392	-0.234	-0.061
-730.966	-101.245	-0.641	-0.158
-729.952	155.625	-0.198	0.275
-728.937	149.480	0.119	-0.162
-727.923	20.652	-0.257	0.209
-726.908	-200.000	0.002	-0.156
-725.894	102.655	0.115	0.136
-724.879	800.000	0.040	-0.120
-723.864	-200.000	0.010	0.081
-722.850	-122.746	0.239	0.039
-721.835	111.913	-0.293	-0.357
-720.821	72.344	0.116	-0.122
-719.806	170.205	0.122	-0.176
-718.791	-81.577	0.083	-0.027
-717.777	-139.511	-0.053	-0.006
-716.762	-75.244	-0.344	-0.124
-715.748	-200.000	-0.007	-0.054
-714.733	746.817	0.224	-0.607
-713.718	-200.000	0.070	-0.360
-712.704	-156.913	-0.383	-0.024
-711.689	166.076	-0.204	-0.291
-710.675	64.118	-0.080	0.081
-709.660	492.645	0.078	-0.179
-708.645	-200.000	0.221	0.000
-707.631	-171.445	0.219	0.007
-706.616	646.865	0.053	-0.137
-705.602	56.512	0.085	0.083
-704.587	68.506	0.182	0.188
-703.572	529.355	0.064	-0.153
-702.558	800.000	0.064	0.183
-701.543	800.000	0.060	0.236
-700.529	305.579	0.133	-0.249
-699.514	-155.938	0.175	0.011
-698.499	-99.028	-0.286	-0.073
-697.485	63.890	-0.167	0.169
-696.470	117.604	0.017	-0.021
-695.456	-200.000	-0.004	-0.054
-694.441	-200.000	0.012	-0.133
-693.426	-130.179	0.212	0.029
-692.412	800.000	0.084	-0.252
-691.397	-25.422	0.168	-0.100
-690.383	800.000	0.068	-0.203
-689.368	800.000	0.117	-0.344
-688.354	-53.154	-0.144	-0.067
-687.339	586.962	0.065	0.160
-686.324	-200.000	0.010	0.144
-685.310	-200.000	0.069	-0.343
-684.295	-200.000	-0.001	0.044
-683.281	-200.000	-0.032	0.277
-682.266	-21.638	-0.221	0.135
-681.251	81.723	-0.129	-0.140
-680.237	-200.000	-0.005	-0.171
-679.222	-200.000	-0.044	-0.458
-678.208	-200.000	0.011	0.191
-677.193	800.000	0.076	-0.261
-676.178	800.000	0.054	-0.169
-675.164	800.000	-0.018	-0.062
-674.149	18.483	0.181	-0.145
-673.135	46.953	0.037	-0.034
-672.120	316.650	-0.104	0.197
-671.105	-121.709	-0.090	0.015
-670.091	-73.424	0.348	-0.128
-669.076	-200.000	-0.030	0.455
-668.062	-18.523	-0.174	0.109
-667.047	-200.000	-0.032	-0.470
-666.032	71.022	0.089	-0.093
-665.018	-70.418	0.253	0.096
-664.003	-149.159	-0.080	-0.006
-662.989	115.782	0.145	-0.178
-661.974	-6.789	-0.096	0.065
-660.959	-200.000	0.039	0.257
-659.945	61.638	0.260	0.260
-658.930	-8.765	-0.155	0.104
-657.916	-200.000	-0.009	-0.150
-656.901	-65.952	0.152	0.061
-655.886	-124.874	0.241	0.037
-654.872	14.523	0.236	0.185
-653.857	71.844	-0.132	0.138
-652.843	449.750	0.077	0.170
-651.828	-130.614	0.152	-0.021
-650.814	440.702	-0.061	-0.135
-649.799	290.676	-0.096	-0.174
-648.784	-200.000	-0.055	0.383
-647.770	800.000	0.051	0.144
-646.755	-103.348	-0.405	0.096
-645.741	-91.385	-0.189	-0.054
-644.726	-200.000	0.438	0.001
-643.711	85.162	-0.306	0.337
-642.697	-200.000	0.020	-0.351
-641.682	-200.000	-0.000	0.159
-640.668	800.000	-0.106	0.383
-639.653	-26.272	0.181	-0.107
-638.638	800.000	0.098	-0.281
-637.624	-63.798	-0.100	-0.041
-636.609	-100.685	0.078	0.019
-635.595	712.211	0.075	0.199
-634.580	-129.223	-0.162	-0.023
-633.565	-200.000	-0.017	-0.186
-632.551	154.809	0.192	-0.265
-631.536	729.465	-0.180	-0.483
-630.522	-200.000	0.006	-0.129
-629.507	-112.900	0.213	0.042
-628.492	800.000	0.047	0.150
-627.478	800.000	-0.126	0.369
-626.463	-85.830	0.119	-0.037
-625.449	-69.802	-0.134	-0.051
-624.434	-200.000	-0.006	0.128
-623.419	142.413	-0.151	-0.201
-622.405	-200.000	0.019	0.177
-621.390	-122.738	-0.140	-0.023
-620.376	58.867	-0.280	-0.276
-619.361	98.202	0.078	0.091
-618.346	-200.000	-0.028	-0.178
-617.332	51.102	0.309	-0.294
-616.317	-200.000	0.077	-0.383
-615.303	-200.000	0.000	-0.102
-614.288	669.097	-0.066	0.170
-613.273	-151.819	-0.790	0.058
-612.259	-24.923	0.352	-0.210
-611.244	41.269	0.198	0.180
-610.230	-96.893	-0.207	-0.054
-609.215	-51.902	-0.447	0.209
-608.201	-200.000	0.012	0.085
-607.186	-73.086	-0.262	-0.096
-606.171	-35.545	-0.140	0.076
-605.157	-31.813	-0.310	-0.175
-604.142	-134.383	0.081	-0.010
-603.128	-10.293	0.023	-0.015
-602.113	125.515	0.213	0.270
-601.098	117.215	-0.328	-0.405
-600.084	-200.000	-0.025	-0.293
-599.069	34.672	-0.086	-0.076
-598.055	56.316	0.052	-0.051
-597.040	-43.376	-0.281	-0.142
-596.025	-78.286	0.280	-0.097
-595.011	724.321	-0.128	0.343
-593.996	-175.946	-0.148	0.004
-592.982	800.000	0.046	0.193
-591.967	144.302	-0.255	0.342
-590.952	-3.502	0.177	0.124
-589.938	45.114	-0.112	0.103
-588.923	760.782	-0.022	-0.060
-587.909	-54.676	0.261	0.118
-586.894	55.180	-0.027	0.026
-585.879	137.030	0.220	0.289
-584.865	-44.193	-0.074	-0.037
-583.850	-200.000	-0.011	-0.124
-582.836	-200.000	-0.008	0.043
-581.821	-118.966	-0.166	-0.029
-580.806	800.000	0.075	-0.229
-579.792	-118.959	0.261	0.046
-578.777	800.000	0.071	0.242
-577.763	60.901	-0.136	0.135
-576.748	-122.115	-0.097	0.016
-575.733	-125.997	-0.285	-0.043
-574.719	-200.000	-0.071	0.368
-573.704	800.000	0.062	-0.239
-572.690	291.320	-0.047	0.085
-571.675	43.592	0.287	0.263
-570.661	-3.984	0.165	-0.115
-569.646	46.970	-0.047	-0.044
-568.631	-200.000	0.032	-0.307
-567.617	487.564	0.066	0.152
-566.602	-114.364	-0.227	-0.044
-565.588	800.000	-0.016	-0.050
-564.573	-95.965	0.256	-0.068
-563.558	800.000	0.044	-0.172
-562.544	-185.829	0.184	-0.003
-561.529	243.436	0.159	0.267
-560.515	-44.937	0.287	0.143
-559.500	108.383	-0.203	-0.243
-558.485	800.000	0.075	-0.253
-557.471	-169.329	0.333	0.012
-556.456	-14.879	0.099	-0.064
-555.442	-85.557	-0.419	0.131
-554.427	61.982	0.297	-0.297
-553.412	-200.000	0.021	-0.108
-552.398	203.455	-0.100	0.154
-551.383	-71.877	0.373	0.139
-550.369	800.000	0.023	0.071
-549.354	-21.250	0.102	-0.063
-548.339	-66.895	-0.161	-0.064
-547.325	71.886	-0.081	-0.084
-546.310	17.130	-0.148	0.117
-545.296	-200.000	-0.070	-0.539
-544.281	284.267	0.114	-0.205
-543.266	-200.000	-0.040	0.441
-542.252	630.674	0.101	-0.256
-541.237	-16.274	-0.217	-0.138
-540.223	-114.642	0.193	0.037
-539.208	-98.579	0.352	-0.090
-538.193	-150.542	-0.506	-0.039
-537.179	-62.509	-0.203	-0.084
-536.164	171.794	0.044	-0.063
-535.150	-15.792	0.248	0.158
-534.135	-92.932	0.484	0.135
-533.121	-103.893	-0.035	-0.008
-532.106	-200.000	0.002	0.038
-531.091	181.801	0.038	-0.056
-530.077	553.507	-0.035	-0.083
-529.062	737.852	0.130	-0.350
-528.048	800.000	-0.050	-0.206
-527.033	-122.394	-0.251	-0.041
-526.018	-200.000	0.018	0.087
-525.004	128.364	0.112	-0.142
-523.989	-151.058	-0.226	0.017
-522.975	259.254	-0.087	0.150
-521.960	645.663	-0.105	0.267
-520.945	-23.519	0.208	0.125
-519.931	-75.757	0.156	0.055
-518.916	800.000	-0.090	-0.314
-517.902	800.000	0.119	-0.396
-516.887	800.000	0.074	-0.262
-515.872	361.108	-0.095	-0.191
-514.858	124.007	-0.193	-0.243
-513.843	216.269	0.080	0.128
-512.829	39.778	0.190	0.170
-511.814	-150.252	0.082	-0.006
-510.799	-83.616	-0.458	-0.146
-509.785	-157.155	-0.155	0.009
-508.770	-62.177	-0.272	-0.113
-507.756	800.000	0.062	-0.264
-506.741	800.000	-0.091	-0.261
-505.726	-64.504	0.140	0.057
-504.712	-112.103	0.172	0.035
-503.697	-2.371	-0.278	-0.195
-502.683	182.705	0.024	0.036
-501.668	31.678	0.154	0.132
-500.653	-200.000	-0.023	-0.240
-499.639	-147.711	-0.227	-0.019
-498.624	800.000	-0.085	0.237
-497.610	-200.000	0.033	0.283
-496.595	-63.493	-0.333	-0.137
-495.581	-200.000	0.002	-0.154
-494.566	-75.421	-0.256	-0.091
-493.551	82.515	-0.232	-0.251
-492.537	438.131	-0.164	-0.357
-491.522	-200.000	0.008	0.178
-490.508	13.504	-0.227	0.176
-489.493	-200.000	0.004	0.114
-488.478	270.633	-0.091	0.160
-487.464	-69.970	0.093	0.035
-486.449	-44.287	-0.184	0.092
-485.435	346.661	0.049	-0.096
-484.420	163.257	0.058	-0.081
-483.405	-94.337	-0.060	0.016
-482.391	800.000	-0.050	-0.174
-481.376	-200.000	-0.003	-0.040
-480.362	-200.000	-0.018	0.092
-479.347	266.610	-0.144	-0.252
-478.332	94.963	-0.199	-0.227
-477.318	-200.000	-0.023	0.274
-476.303	307.590	-0.048	-0.090
-475.289	-200.000	-0.038	0.209
-474.274	-52.638	-0.229	0.105
-473.259	800.000	0.042	-0.152
-472.245	187.324	0.069	0.103
-471.230	-90.150	0.399	-0.116
-470.216	-62.215	-0.170	-0.071
-469.201	-200.000	-0.002	-0.010
-468.186	-200.000	-0.039	0.250
-467.172	438.598	0.091	-0.199
-466.157	-9.126	0.177	0.118
-465.143	800.000	-0.122	-0.423
-464.128	-79.885	-0.257	-0.086
-463.113	800.000	-0.028	-0.086
-462.099	382.410	-0.119	0.244
-461.084	307.677	0.160	0.298
-460.070	-49.720	-0.036	0.017
-459.055	278.897	0.162	0.289
-458.040	-200.000	0.007	0.286
-457.026	-33.518	0.222	-0.122
-456.011	192.752	0.164	-0.247
-454.997	-76.117	0.218	-0.077
-453.982	189.324	-0.131	0.195
-452.968	-100.105	-0.401	-0.100
-451.953	-136.027	-0.203	0.024
-450.938	89.980	0.126	-0.141
-449.924	-80.713	-0.139	0.046
-448.909	-200.000	0.005	-0.040
-447.895	6.177	0.334	-0.247
-446.880	-93.730	0.222	-0.061
-445.865	-128.896	0.175	0.025
-444.851	-54.522	-0.237	-0.107
-443.836	-17.533	0.148	-0.093
-442.822	88.312	0.051	-0.056
-441.807	-117.073	0.230	0.042
-440.792	-158.226	-0.671	-0.039
-439.778	-104.955	0.069	-0.016
-438.763	-200.000	-0.044	0.406
-437.749	-46.052	-0.393	-0.193
-436.734	-200.000	-0.025	0.363
-435.719	132.034	-0.229	-0.294
-434.705	267.636	0.157	0.273
-433.690	427.077	0.054	0.115
-432.676	11.668	0.045	0.034
-431.661	221.193	0.093	0.150
-430.646	800.000	0.070	0.256
-429.632	-80.351	-0.378	0.126
-428.617	-200.000	0.012	0.316
-427.603	15.746	0.247	0.194
-426.588	-200.000	0.022	0.185
-425.573	-32.205	0.093	0.052
-424.559	161.616	0.039	0.055
-423.544	-107.994	0.094	0.020
-422.530	-21.056	0.080	0.049
-421.515	-34.628	-0.349	0.190
-420.500	-200.000	-0.081	0.407
-419.486	268.348	0.055	-0.096
-418.471	-105.791	0.137	-0.031
-417.457	2.348	0.135	0.097
-416.442	-174.099	0.211	0.006
-415.428	-135.035	0.254	0.030
-414.413	-71.700	0.144	0.053
-413.398	176.448	-0.124	0.179
-412.384	-88.621	0.363	-0.108
-411.369	188.462	-0.084	0.125
-410.355	103.594	0.096	0.112
-409.340	533.263	0.019	-0.045
-408.325	-200.000	0.030	0.140
-407.311	-200.000	0.001	-0.068
-406.296	199.404	0.187	0.285
-405.282	-53.429	-0.220	0.100
-404.267	179.121	-0.158	-0.230
-403.252	-65.204	0.120	0.048
-402.238	800.000	-0.016	-0.057
-401.223	-200.000	-0.074	-0.342
-400.209	128.328	0.058	0.073
-399.194	37.512	0.276	0.243
-398.179	-200.000	-0.007	-0.239
-397.165	-26.834	-0.263	0.153
-396.150	84.218	0.212	0.231
-395.136	-79.693	-0.193	-0.065
-394.121	17.629	0.144	0.114
-393.106	800.000	-0.046	-0.181
-392.092	-111.978	0.163	-0.033
-391.077	-186.780	0.014	-0.000
-390.063	-96.482	0.431	-0.113
-389.048	800.000	-0.090	-0.264
-388.033	219.645	0.112	0.178
-387.019	-155.229	-0.330	-0.021
-386.004	800.000	0.056	0.237
-384.990	-64.890	-0.052	-0.021
-383.975	800.000	-0.105	-0.290
-382.960	-3.007	0.154	0.107
-381.946	-200.000	0.038	-0.326
-380.931	372.171	0.051	-0.103
-379.917	474.942	-0.024	-0.055
-378.902	-200.000	-0.005	0.277
-377.888	-200.000	0.004	-0.203
-376.873	-200.000	0.002	-0.011
-375.858	-106.035	0.149	-0.033
-374.844	415.691	-0.159	-0.337
-373.829	166.387	0.042	0.059
-372.815	-46.354	-0.519	0.253
-371.800	-200.000	0.056	0.259
-370.785	800.000	-0.046	0.166
-369.771	111.885	-0.176	0.212
-368.756	49.089	0.156	0.146
-367.742	588.501	-0.067	0.165
-366.727	518.018	0.142	0.330
-365.712	582.308	0.043	-0.106
-364.698	154.294	0.191	-0.260
-363.683	-42.867	-0.256	0.129
-362.669	724.245	0.042	0.112
-361.654	-114.747	-0.143	0.027
-360.639	-63.712	0.225	-0.092
-359.625	-200.000	-0.013	0.264
-358.610	75.700	0.110	-0.116
-357.596	-200.000	-0.027	0.123
-356.581	108.210	0.205	-0.243
-355.566	259.859	-0.087	-0.149
-354.552	352.189	-0.025	-0.050
-353.537	-104.399	-0.420	0.097
-352.523	-28.450	-0.153	0.088
-351.508	2.495	-0.352	-0.254
-350.493	244.390	0.157	-0.262
-349.479	-200.000	-0.003	-0.027
-348.464	-200.000	0.004	-0.055
-347.450	-200.000	-0.003	-0.114
-346.435	51.818	-0.069	-0.065
-345.420	47.703	0.052	-0.048
-344.406	-143.690	0.107	0.010
-343.391	242.131	-0.062	0.103
-342.377	-200.000	-0.012	0.114
-341.362	-78.943	0.225	0.076
-340.348	633.431	-0.063	-0.159
-339.333	-200.000	0.002	0.137
-338.318	178.287	-0.102	0.147
-337.304	-200.000	-0.016	-0.081
-336.289	-200.000	0.025	-0.205
-335.275	800.000	-0.045	-0.153
-334.260	184.066	0.166	-0.244
-333.245	228.621	-0.088	-0.143
-332.231	-200.000	0.035	0.245
-331.216	-116.336	0.067	-0.012
-330.202	373.146	0.082	0.166
-329.187	800.000	0.054	0.165
-328.172	595.292	0.064	0.157
-327.158	121.276	0.240	0.296
-326.143	7.497	0.139	-0.103
-325.129	-122.709	-0.193	0.031
-324.114	-200.000	-0.065	-0.405
-323.099	66.961	0.088	-0.089
-322.085	-51.025	0.145	0.067
-321.070	155.615	-0.154	-0.211
-320.056	-130.896	0.171	-0.023
-319.041	-7.345	0.164	-0.111
-318.026	-128.987	-0.205	0.029
-317.012	-76.207	-0.305	-0.107
-315.997	800.000	-0.061	0.245
-314.983	-91.908	0.017	0.005
-313.968	275.079	0.155	-0.272
-312.953	-200.000	-0.017	-0.318
-311.939	800.000	-0.016	0.056
-310.924	207.606	0.072	0.112
-309.910	101.205	0.156	0.180
-308.895	596.646	-0.050	0.122
-307.880	-200.000	0.059	0.401
-306.866	-55.194	0.124	0.055
-305.851	-200.000	-0.034	0.306
-304.837	467.558	0.122	0.270
-303.822	-60.085	-0.301	-0.128
-302.807	54.814	-0.202	0.193
-301.793	55.556	0.062	0.059
-300.778	-200.000	-0.013	-0.303
-299.764	-200.000	-0.013	0.335
-298.749	282.056	-0.131	-0.233
-297.735	-200.000	-0.012	-0.153
-296.720	-127.921	0.250	0.036
-295.705	-140.726	0.244	-0.025
-294.691	-68.978	0.245	-0.094
-293.676	4.243	-0.243	0.176
-292.662	597.776	0.062	-0.152
-291.647	-53.388	-0.226	0.102
-290.632	291.575	0.083	-0.149
-289.618	650.378	0.243	-0.617
-288.603	-42.768	0.038	0.019
-287.589	126.621	-0.163	-0.204
-286.574	22.237	-0.052	0.042
-285.559	-53.501	0.264	-0.120
-284.545	-200.000	-0.068	0.318
-283.530	-10.895	0.206	0.135
-282.516	-200.000	0.004	-0.057
-281.501	-199.852	-0.248	-0.001
-280.486	39.377	0.045	0.040
-279.472	101.484	-0.029	-0.034
-278.457	800.000	-0.022	-0.081
-277.443	47.014	-0.042	0.039
-276.428	317.900	-0.111	0.208
-275.413	-200.000	0.038	0.366
-274.399	29.489	-0.113	-0.095
-273.384	-84.928	0.082	0.025
-272.370	1.983	-0.052	0.037
-271.355	28.769	0.067	-0.056
-270.340	219.413	0.086	0.136
-269.326	800.000	-0.020	-0.074
-268.311	-200.000	-0.013	0.159
-267.297	50.196	0.171	0.160
-266.282	-70.523	0.104	0.039
-265.267	-25.532	0.124	0.073
-264.253	9.952	-0.199	-0.150
-263.238	-99.023	-0.140	0.035
-262.224	-77.420	-0.102	-0.035
-261.209	800.000	-0.026	-0.082
-260.195	800.000	0.078	-0.295
-259.180	35.864	-0.019	0.016
-258.165	539.790	-0.075	-0.177
-257.151	73.788	0.028	-0.029
-256.136	-14.548	-0.183	0.117
-255.122	-200.000	-0.015	-0.096
-254.107	-19.255	0.418	-0.257
-253.092	-4.939	0.250	-0.170
-252.078	26.061	-0.222	0.183
-251.063	325.817	-0.068	0.129
-250.049	416.246	-0.073	-0.153
-249.034	-38.713	0.045	-0.023
-248.019	-65.674	0.224	0.089
-247.005	687.271	-0.093	0.241
-245.990	-200.000	-0.000	0.489
-244.976	-3.423	0.257	0.177
-243.961	-93.000	0.193	-0.053
-242.946	28.988	0.388	-0.326
-241.932	81.751	0.279	-0.299
-240.917	-200.000	0.045	-0.197
-239.903	-65.545	0.178	0.071
-238.888	-139.772	0.027	-0.003
-237.873	-200.000	0.028	0.207
-236.859	-16.900	-0.232	0.145
-235.844	243.816	-0.060	-0.100
-234.830	266.760	0.184	-0.318
-233.815	-86.535	0.270	-0.082
-232.800	-100.919	0.098	0.024
-231.786	167.434	0.165	-0.231
-230.771	-200.000	0.034	0.297
-229.757	-103.188	-0.240	0.056
-228.742	102.033	-0.053	-0.062
-227.727	-130.216	0.555	-0.075
-226.713	800.000	-0.022	-0.091
-225.698	-90.871	0.159	0.045
-224.684	64.466	-0.243	0.242
-223.669	-129.237	-0.161	-0.022
-222.655	800.000	0.032	0.092
-221.640	229.144	-0.040	0.065
-220.625	-83.999	-0.419	-0.132
-219.611	-21.788	0.148	0.089
-218.596	800.000	0.056	-0.164
-217.582	-130.950	0.221	0.029
-216.567	674.915	0.077	0.197
-215.552	131.695	-0.148	-0.189
-214.538	-57.260	0.206	-0.090
-213.523	-55.134	0.133	0.059
-212.509	-62.870	0.163	0.067
-211.494	-39.989	-0.153	0.079
-210.479	232.902	0.093	-0.151
-209.465	-37.837	0.163	0.085
-208.450	-200.000	-0.010	-0.185
-207.436	361.489	-0.143	0.282
-206.421	-19.937	-0.041	0.025
-205.406	172.107	0.046	0.066
-204.392	-200.000	0.057	0.415
-203.377	47.844	0.175	-0.161
-202.363	800.000	0.053	-0.229
-201.348	800.000	-0.039	0.153
-200.333	304.800	0.107	-0.197
-199.319	800.000	0.074	-0.226
-198.304	-44.113	-0.150	0.074
-197.290	-20.073	0.194	-0.118
-196.275	363.410	-0.146	-0.290
-195.260	47.001	-0.292	0.268
-194.246	-63.443	0.140	-0.057
-193.231	-155.382	0.098	0.006
-192.217	426.243	0.034	0.072
-191.202	-200.000	-0.014	-0.070
-190.187	203.199	-0.076	-0.117
-189.173	-178.966	0.083	0.002
-188.158	322.498	-0.016	-0.031
-187.144	-22.595	-0.210	-0.125
-186.129	227.185	0.153	0.246
-185.114	-200.000	-0.014	0.098
-184.100	-65.232	0.140	0.056
-183.085	60.487	0.082	0.080
-182.071	-200.000	0.005	0.141
-181.056	252.969	-0.096	-0.161
-180.042	512.974	0.255	-0.587
-179.027	-132.736	-0.061	0.008
-178.012	177.074	0.098	0.141
-176.998	183.579	-0.078	0.113
-175.983	-71.888	-0.308	0.113
-174.969	-82.290	-0.294	-0.095
-173.954	800.000	0.064	0.201
-172.939	-117.301	-0.243	-0.044
-171.925	-87.967	0.090	-0.027
-170.910	-88.201	-0.205	-0.060
-169.896	144.757	0.076	0.100
-168.881	76.995	0.293	-0.307
-167.866	-200.000	-0.002	0.290
-166.852	90.267	-0.217	0.240
-165.837	759.776	0.054	0.146
-164.823	-200.000	-0.050	0.250
-163.808	101.770	-0.130	0.150
-162.793	95.343	0.161	-0.181
-161.779	236.482	-0.071	-0.117
-160.764	29.420	0.244	-0.205
-159.750	-155.206	0.072	-0.005
-158.735	-200.000	-0.024	-0.176
-157.720	800.000	-0.074	0.207
-156.706	-63.048	-0.315	0.128
-155.691	38.564	0.243	0.213
-154.677	-70.891	-0.199	0.074
-153.662	-200.000	-0.056	0.312
-152.647	-40.527	0.095	-0.049
-151.633	111.067	-0.145	-0.172
-150.618	-133.275	0.295	-0.037
-149.604	-115.880	0.165	-0.030
-148.589	209.038	-0.120	-0.185
-147.574	20.116	-0.226	0.180
-146.560	800.000	-0.054	0.222
-145.545	-86.041	-0.238	-0.072
-144.531	-200.000	-0.038	-0.332
-143.516	352.150	0.150	0.293
-142.502	48.212	0.267	0.246
-141.487	8.100	-0.201	-0.148
-140.472	-129.701	-0.197	-0.027
-139.458	-174.237	-0.143	0.004
-138.443	-96.575	0.169	-0.044
-137.429	580.004	0.080	0.193
-136.414	-55.150	-0.293	0.130
-135.399	-86.286	0.066	-0.020
-134.385	675.069	0.064	-0.164
-133.370	-67.546	-0.254	-0.098
-132.356	343.168	-0.050	-0.096
-131.341	800.000	-0.018	-0.055
-130.326	-117.109	-0.423	-0.076
-129.312	157.981	0.158	-0.216
-128.297	59.525	0.187	-0.182
-127.283	59.616	0.050	0.048
-126.268	-200.000	-0.014	0.095
-125.253	767.563	0.096	0.257
-124.239	183.603	0.082	0.120
-123.224	-119.826	0.319	0.054
-122.210	-8.509	0.063	-0.042
-121.195	176.806	0.033	0.047
-120.180	290.715	0.152	0.273
-119.166	191.209	-0.133	-0.198
-118.151	-36.989	-0.284	-0.150
-117.137	62.864	0.039	-0.038
-116.122	429.873	-0.035	0.074
-115.107	-24.868	0.186	-0.109
-114.093	351.322	-0.215	0.418
-113.078	13.509	0.039	-0.030
-112.064	-72.440	0.232	-0.084
-111.049	-45.589	-0.206	0.100
-110.034	-200.000	0.016	0.229
-109.020	800.000	0.104	-0.431
-108.005	-114.288	0.261	-0.050
-106.991	-200.000	-0.009	-0.203
-105.976	20.975	-0.037	-0.030
-104.962	55.954	0.119	0.114
-103.947	49.605	-0.191	0.177
-102.932	-200.000	-0.061	-0.323
-101.918	274.746	0.197	-0.343
-100.903	800.000	-0.038	-0.157
-99.889	-200.000	0.013	0.207
-98.874	-200.000	-0.006	-0.051
-97.859	202.402	0.174	0.265
-96.845	88.644	-0.049	0.053
-95.830	-13.516	0.057	-0.036
-94.816	320.666	-0.353	-0.660
-93.801	-57.706	0.135	-0.058
-92.786	365.414	0.070	0.138
-91.772	-35.836	0.123	-0.066
-90.757	-79.584	0.184	-0.061
-89.743	29.290	0.267	-0.223
-88.728	40.691	-0.073	0.065
-87.713	110.507	0.095	-0.112
-86.699	-0.665	-0.225	-0.157
-85.684	800.000	-0.080	0.277
-84.670	148.347	-0.043	-0.057
-83.655	407.136	0.061	0.126
-82.640	298.878	-0.049	-0.089
-81.626	-200.000	-0.028	0.259
-80.611	-127.886	-0.422	-0.060
-79.597	92.293	0.079	0.088
-78.582	56.137	-0.063	-0.060
-77.567	800.000	0.005	0.015
-76.553	-68.127	-0.061	0.023
-75.538	91.965	0.130	-0.144
-74.524	-144.359	-0.186	0.017
-73.509	-16.793	-0.097	-0.060
-72.494	9.123	0.469	-0.348
-71.480	40.629	0.099	0.088
-70.465	-38.491	0.096	-0.050
-69.451	18.771	0.077	0.060
-68.436	-76.270	0.286	0.099
-67.422	-67.012	0.455	-0.176
-66.407	800.000	-0.118	-0.381
-65.392	-66.741	-0.206	-0.080
-64.378	74.518	-0.175	0.180
-63.363	683.676	-0.132	0.339
-62.349	-107.217	0.131	0.028
-61.334	115.559	-1.074	-1.290
-60.319	222.041	0.487	0.770
-59.305	391.563	-0.408	-0.832
-58.290	235.412	0.505	0.819
-57.276	785.947	0.567	1.527
-56.261	-200.000	103.922	574.221
-55.246	511.333	1468.148	3356.330
-54.232	178.063	2681.917	3842.549
-53.217	105.629	2307.641	2679.115
-52.203	38.739	1916.037	1679.531
-51.188	32.854	1702.527	1447.352
-50.173	30.301	1658.880	1391.083
-49.159	48.546	1710.285	1573.495
-48.144	48.992	1726.472	1591.725
-47.130	32.562	1684.512	1429.592
-46.115	29.819	1670.225	1396.735
-45.100	29.623	1665.675	1391.392
-44.086	29.609	1662.856	1388.879
-43.071	29.621	1660.416	1386.878
-42.057	29.593	1657.359	1384.061
-41.042	29.667	1655.141	1382.704
-40.027	29.674	1653.210	1381.092
-39.013	29.663	1651.455	1379.491
-37.998	29.560	1650.313	1377.713
-36.984	29.642	1648.677	1376.903
-35.969	29.716	1647.180	1376.146
-34.954	29.843	1645.310	1375.473
-33.940	29.734	1643.726	1373.283
-32.925	29.831	1642.221	1372.696
-31.911	29.832	1640.256	1371.004
-30.896	29.763	1638.764	1369.193
-29.881	29.691	1637.433	1367.493
-28.867	29.741	1635.512	1366.206
-27.852	29.782	1633.648	1364.892
-26.838	29.736	1632.415	1363.473
-25.823	29.791	1631.191	1362.797
-24.809	29.842	1629.762	1361.930
-23.794	29.784	1628.749	1360.600
-22.779	29.762	1627.217	1359.105
-21.765	29.730	1625.727	1357.573
-20.750	29.756	1623.731	1356.044
-19.736	29.846	1621.925	1355.137
-18.721	29.797	1621.402	1354.292
-17.706	29.743	1619.629	1352.361
-16.692	29.832	1617.617	1351.273
-15.677	29.783	1616.505	1349.933
-14.663	29.760	1615.626	1348.984
-13.648	29.856	1613.893	1348.179
-12.633	29.792	1611.961	1346.048
-11.619	29.756	1610.966	1344.903
-10.604	29.799	1609.036	1343.546
-9.590	29.842	1608.367	1343.252
-8.575	29.801	1606.922	1341.694
-7.560	29.790	1606.107	1340.876
-6.546	29.903	1604.657	1340.436
-5.531	29.777	1603.534	1338.530
-4.517	29.741	1602.799	1337.605
-3.502	29.724	1601.998	1336.759
-2.487	29.900	1599.216	1335.652
-1.473	29.668	1587.800	1324.407
-0.458	26.960	1568.650	1289.173
0.556	25.483	1570.078	1257.799
1.571	23.346	1594.362	1261.939
2.586	22.614	1606.078	1265.840
3.600	20.024	1551.616	1204.820
4.615	12.380	1443.086	1070.812
5.629	5.624	1381.045	982.425
6.644	4.427	1372.778	968.988
7.659	4.375	1371.732	967.843
8.673	4.473	1371.223	968.008
9.688	4.434	1369.420	966.408
10.702	4.376	1366.568	963.949
11.717	7.476	1372.260	987.181
12.731	15.281	1386.780	1046.432
13.746	21.218	1396.199	1090.639
14.761	22.326	1396.980	1098.075
15.775	21.914	1394.700	1093.614
16.790	20.865	1392.444	1085.222
17.804	20.095	1390.087	1078.496
18.819	19.756	1388.651	1075.183
19.834	19.664	1388.062	1074.055
20.848	19.534	1387.100	1072.409
21.863	19.378	1385.868	1070.394
22.877	19.231	1384.933	1068.663
23.892	19.144	1383.768	1067.136
24.907	19.143	1383.050	1066.478
25.921	19.142	1382.135	1065.670
26.936	19.319	1380.897	1065.718
27.950	19.280	1379.997	1064.691
28.965	19.361	1379.313	1064.567
29.980	19.453	1378.143	1064.138
30.994	19.658	1376.929	1064.371
32.009	19.611	1376.053	1063.307
33.023	19.525	1374.984	1061.861
34.038	19.575	1373.814	1061.166
35.053	19.397	1372.358	1058.859
36.067	19.366	1371.418	1057.845
37.082	19.411	1370.438	1057.276
38.096	19.522	1369.320	1056.999
39.111	19.555	1368.708	1056.633
40.126	19.460	1367.690	1055.175
41.140	19.167	1366.621	1052.464
42.155	18.945	1365.837	1050.410
43.169	18.910	1365.836	1050.104
44.184	18.957	1365.492	1050.034
45.199	18.984	1365.040	1049.757
46.213	19.104	1365.101	1050.445
47.228	19.269	1364.598	1050.974
48.242	19.344	1363.265	1050.308
49.257	19.401	1361.481	1049.185
50.271	19.316	1360.622	1047.914
51.286	19.352	1358.879	1046.701
52.301	19.361	1357.274	1045.427
53.315	19.193	1356.225	1043.506
54.330	19.046	1355.463	1041.938
55.344	19.006	1354.259	1040.676
56.359	19.098	1352.983	1040.162
57.374	19.060	1352.065	1039.135
58.388	18.874	1351.348	1037.370
59.403	18.885	1350.741	1036.875
60.417	18.840	1350.580	1036.390
61.432	18.745	1349.562	1034.944
62.447	18.672	1348.728	1033.776
63.461	18.716	1347.138	1032.731
64.476	18.664	1346.174	1031.586
65.490	18.597	1345.350	1030.462
66.505	18.769	1343.206	1029.758
67.520	18.719	1342.096	1028.517
68.534	18.780	1341.163	1028.077
69.549	18.684	1340.398	1026.827
70.563	18.643	1339.107	1025.498
71.578	18.511	1337.756	1023.586
72.593	18.431	1336.936	1022.391
73.607	18.412	1336.550	1021.891
74.622	18.425	1335.883	1021.372
75.636	18.541	1335.191	1021.440
76.651	18.546	1333.983	1020.455
77.666	18.589	1334.030	1020.659
78.680	18.627	1333.327	1020.258
79.695	18.697	1332.742	1020.136
80.709	18.767	1332.116	1019.983
81.724	18.954	1331.302	1020.378
82.739	19.051	1330.920	1020.569
83.753	19.174	1330.160	1020.622
84.768	19.325	1329.430	1020.866
85.782	19.447	1328.506	1020.789
86.797	19.510	1326.972	1019.895
87.812	19.432	1326.020	1018.609
88.826	19.352	1324.216	1016.662
89.841	19.423	1323.428	1016.387
90.855	19.391	1323.132	1015.879
91.870	19.486	1321.844	1015.360
92.884	19.654	1320.907	1015.542
93.899	19.661	1320.267	1014.999
94.914	19.661	1319.706	1014.481
95.928	19.628	1318.691	1013.414
96.943	19.618	1317.476	1012.331
97.957	19.458	1316.940	1010.896
98.972	19.423	1316.081	1009.940
99.987	19.463	1315.231	1009.432
101.001	19.563	1313.834	1008.856
102.016	19.506	1312.906	1007.722
103.030	19.506	1312.290	1007.159
104.045	19.441	1311.594	1006.157
105.060	19.331	1310.063	1004.251
106.074	19.053	1308.272	1001.173
107.089	18.797	1306.669	998.370
108.103	18.692	1305.550	996.818
109.118	18.669	1304.353	995.682
110.133	18.795	1302.853	995.177
111.147	18.749	1302.099	994.248
112.162	18.728	1300.362	992.713
113.176	18.963	1299.383	993.236
114.191	18.993	1298.117	992.350
115.206	19.069	1296.871	991.750
116.220	18.813	1296.196	989.673
117.235	18.914	1294.823	989.116
118.249	18.777	1294.466	987.966
119.264	18.769	1292.598	986.410
120.279	18.756	1291.333	985.284
121.293	18.657	1290.411	983.925
122.308	18.499	1289.727	982.411
123.322	18.511	1288.369	981.359
124.337	18.491	1287.389	980.412
125.352	18.500	1285.933	979.268
126.366	18.473	1285.135	978.414
127.381	18.460	1284.191	977.537
128.395	18.457	1283.354	976.799
129.410	18.547	1282.157	976.314
130.424	18.642	1281.497	976.265
131.439	18.657	1280.919	975.824
132.454	18.733	1279.664	975.214
133.468	18.850	1278.886	975.195
134.483	18.847	1278.678	974.932
135.497	18.930	1277.360	974.315
136.512	18.928	1276.149	973.292
137.527	19.064	1274.377	972.625
138.541	18.951	1273.820	971.472
139.556	19.120	1272.496	971.332
140.570	19.155	1271.454	970.649
141.585	19.260	1270.195	970.194
142.600	19.279	1269.465	969.655
143.614	19.459	1268.378	969.752
144.629	19.610	1267.889	970.141
145.643	19.404	1266.691	967.980
146.658	19.286	1265.554	966.366
147.673	19.149	1263.927	964.273
148.687	19.105	1262.492	962.845
149.702	18.888	1261.021	960.424
150.716	18.941	1259.439	959.427
151.731	19.075	1258.056	959.037
152.746	18.931	1257.416	957.665
153.760	19.159	1256.103	957.850
154.775	19.147	1255.100	956.931
155.789	19.223	1254.501	956.810
156.804	19.267	1253.209	955.984
157.819	19.343	1252.569	955.833
158.833	19.524	1251.665	956.061
159.848	19.589	1251.282	956.047
160.862	19.460	1250.425	954.595
161.877	19.155	1248.597	951.429
162.892	18.967	1247.098	949.165
163.906	19.028	1246.444	948.916
164.921	18.997	1245.369	947.845
165.935	18.993	1245.063	947.505
166.950	19.063	1244.342	947.257
167.964	19.195	1243.126	946.976
168.979	19.137	1242.413	946.029
169.994	19.100	1241.736	945.229
171.008	19.134	1241.291	944.990
172.023	19.254	1240.332	944.836
173.037	19.338	1239.816	944.820
174.052	19.366	1238.867	944.164
175.067	19.160	1236.891	941.451
176.081	18.971	1236.329	939.906
177.096	18.927	1235.650	939.068
178.110	18.988	1234.558	938.485
179.125	19.135	1232.908	937.952
180.140	19.148	1232.173	937.378
181.154	19.302	1231.206	937.397
182.169	19.408	1230.171	937.103
183.183	19.410	1229.374	936.423
184.198	19.520	1228.146	936.001
185.213	19.387	1227.177	934.460
186.227	19.599	1225.902	934.554
187.242	19.644	1225.148	934.142
188.256	19.700	1223.960	933.453
189.271	19.740	1222.872	932.758
190.286	19.475	1221.908	930.513
191.300	19.052	1220.971	927.434
192.315	18.957	1220.251	926.296
193.329	19.092	1219.292	926.214
194.344	19.200	1218.605	926.187
195.359	19.223	1218.115	925.856
196.373	19.362	1217.822	926.299
197.388	19.433	1217.703	926.507
198.402	19.719	1217.707	927.965
199.417	19.705	1217.213	927.432
200.432	19.856	1216.440	927.570
201.446	19.945	1215.619	927.340
202.461	20.056	1214.984	927.370
203.475	20.034	1213.930	926.365
204.490	19.753	1212.456	923.655
205.504	19.578	1211.053	921.572
206.519	19.549	1209.639	920.260
207.534	19.578	1208.312	919.322
208.548	19.660	1207.377	918.967
209.563	19.449	1207.189	917.618
210.577	19.460	1206.019	916.705
211.592	19.744	1205.472	917.716
212.607	19.872	1204.360	917.469
213.621	19.836	1203.647	916.653
214.636	19.822	1202.464	915.598
215.650	19.659	1202.152	914.416
216.665	19.930	1201.209	915.050
217.680	20.040	1200.585	915.077
218.694	20.121	1199.333	914.468
219.709	20.013	1198.594	913.256
220.723	20.031	1197.647	912.548
221.738	20.014	1197.084	911.949
222.753	19.987	1196.301	911.126
223.767	20.062	1195.103	910.527
224.782	20.185	1195.136	911.119
225.796	20.283	1194.312	910.926
226.811	20.239	1193.762	910.196
227.826	19.895	1193.264	907.932
228.840	19.907	1192.185	907.089
229.855	19.944	1191.477	906.669
230.869	19.924	1190.343	905.619
231.884	19.941	1189.246	904.794
232.899	19.716	1188.900	903.275
233.913	19.604	1187.970	901.903
234.928	19.619	1187.326	901.413
235.942	19.533	1186.548	900.292
236.957	19.630	1184.979	899.526
237.972	19.511	1185.373	899.130
238.986	19.692	1184.160	899.069
240.001	19.745	1183.330	898.635
241.015	19.681	1182.969	897.950
242.030	19.652	1182.662	897.488
243.045	19.925	1181.239	897.744
244.059	19.949	1180.544	897.261
245.074	19.964	1179.739	896.647
246.088	20.097	1179.095	896.764
247.103	20.119	1178.363	896.242
248.117	20.291	1177.948	896.740
249.132	20.457	1177.214	896.958
250.147	20.740	1176.703	897.948
251.161	20.800	1176.510	898.030
252.176	20.885	1175.517	897.629
253.190	20.944	1174.828	897.328
254.205	20.950	1174.626	897.126
255.220	20.955	1173.911	896.527
256.234	20.881	1173.518	895.767
257.249	20.908	1172.230	894.843
258.263	20.948	1171.705	894.570
259.278	20.842	1170.922	893.348
260.293	20.925	1170.689	893.516
261.307	21.030	1170.362	893.726
262.322	21.084	1169.179	893.018
263.336	21.099	1168.562	892.544
264.351	21.014	1168.339	891.860
265.366	20.955	1168.050	891.263
266.380	20.936	1166.983	890.269
267.395	21.031	1166.163	890.054
268.409	20.847	1165.373	888.430
269.424	20.824	1164.636	887.675
270.439	20.775	1164.130	886.960
271.453	20.788	1162.957	886.056
272.468	20.646	1161.882	884.435
273.482	20.651	1160.927	883.653
274.497	20.573	1160.591	882.925
275.512	20.709	1160.205	883.243
276.526	20.681	1159.159	882.225
277.541	20.625	1158.063	881.033
278.555	20.812	1157.474	881.449
279.570	21.077	1156.880	882.263
280.585	21.034	1156.537	881.704
281.599	21.096	1155.629	881.250
282.614	20.881	1154.150	878.958
283.628	20.778	1152.801	877.331
284.643	20.729	1152.232	876.574
285.657	20.824	1151.172	876.169
286.672	20.883	1150.453	875.841
287.687	20.838	1149.628	874.910
288.701	20.932	1148.919	874.767
289.716	20.856	1148.345	873.868
290.730	20.807	1147.418	872.838
291.745	20.896	1146.928	872.835
292.760	21.024	1145.976	872.677
293.774	21.050	1145.386	872.277
294.789	21.166	1145.351	872.755
295.803	21.133	1144.621	871.958
296.818	20.950	1143.855	870.380
297.833	20.948	1142.459	869.232
298.847	20.779	1142.188	868.109
299.862	20.778	1141.456	867.471
300.876	20.968	1140.859	867.887
301.891	21.103	1140.036	867.855
302.906	21.182	1139.639	867.866
303.920	21.326	1139.038	868.048
304.935	21.424	1138.417	867.985
305.949	21.644	1137.694	868.446
306.964	21.493	1137.137	867.198
307.979	21.444	1136.020	866.023
308.993	21.339	1135.468	865.007
310.008	21.353	1134.457	864.232
311.022	21.385	1133.864	863.861
312.037	21.489	1132.617	863.349
313.052	21.271	1132.047	861.762
314.066	21.088	1131.163	860.111
315.081	20.964	1129.772	858.365
316.095	20.874	1129.406	857.568
317.110	20.953	1128.330	857.066
318.125	20.985	1128.031	856.918
319.139	20.898	1127.404	855.941
320.154	20.994	1126.322	855.513
321.168	21.067	1125.559	855.214
322.183	21.107	1124.988	854.904
323.197	21.120	1124.663	854.645
324.212	21.090	1124.171	854.045
325.227	21.131	1123.461	853.634
326.241	21.097	1123.092	853.111
327.256	21.063	1122.122	852.134
328.270	21.157	1120.696	851.431
329.285	20.946	1120.304	850.030
330.300	21.026	1119.428	849.680
331.314	21.007	1118.358	848.699
332.329	21.130	1117.339	848.448
333.343	21.121	1116.650	847.807
334.358	21.286	1115.754	847.854
335.373	21.356	1115.231	847.722
336.387	21.446	1114.267	847.348
337.402	21.313	1114.063	846.473
338.416	21.497	1113.342	846.742
339.431	21.508	1112.765	846.284
340.446	21.679	1112.186	846.594
341.460	21.884	1111.308	846.840
342.475	21.811	1110.782	846.013
343.489	21.873	1109.841	845.519
344.504	21.902	1108.747	844.752
345.519	21.923	1108.036	844.237
346.533	22.076	1107.442	844.442
347.548	22.075	1106.793	843.870
348.562	22.113	1105.645	843.102
349.577	21.787	1105.164	841.097
350.592	21.729	1103.614	839.563
351.606	21.416	1102.983	837.513
352.621	21.395	1102.378	836.877
353.635	21.376	1101.957	836.391
354.650	21.487	1100.913	836.055
355.665	21.382	1100.512	835.175
356.679	21.539	1100.070	835.519
357.694	21.636	1099.240	835.276
358.708	21.731	1098.893	835.388
359.723	21.888	1097.697	835.153
360.738	21.745	1097.471	834.228
361.752	21.682	1097.035	833.525
362.767	21.815	1096.166	833.423
363.781	21.836	1095.458	832.908
364.796	21.983	1094.846	833.066
365.810	22.061	1094.734	833.278
366.825	22.275	1094.382	833.952
367.840	22.458	1093.708	834.232
368.854	22.410	1093.344	833.655
369.869	22.405	1092.332	832.784
370.883	22.229	1091.314	831.100
371.898	22.166	1090.518	830.124
372.913	22.160	1089.749	829.439
373.927	22.272	1089.385	829.615
374.942	22.295	1089.457	829.706
375.956	22.255	1088.761	828.914
376.971	22.292	1087.515	828.067
377.986	22.286	1087.168	827.699
379.000	22.486	1087.116	828.530
380.015	22.566	1086.480	828.348
381.029	22.514	1085.978	827.644
382.044	22.498	1085.153	826.868
383.059	22.554	1084.061	826.224
384.073	22.511	1083.317	825.387
385.088	22.441	1082.817	824.603
386.102	22.461	1081.551	823.660
387.117	22.276	1080.377	821.830
388.132	22.174	1078.791	820.074
389.146	22.093	1078.449	819.364
390.161	22.098	1077.584	818.655
391.175	22.132	1077.200	818.451
392.190	22.178	1076.944	818.399
393.205	22.465	1075.743	818.746
394.219	22.487	1075.257	818.408
395.234	22.380	1074.000	816.881
396.248	22.303	1072.803	815.540
397.263	22.183	1072.076	814.361
398.278	22.086	1071.209	813.183
399.292	21.997	1070.217	811.943
400.307	22.118	1069.355	811.777
401.321	21.974	1069.153	810.886
402.336	22.057	1068.332	810.574
403.350	22.020	1067.864	809.979
404.365	22.106	1066.958	809.618
405.380	22.279	1066.538	810.024
406.394	22.231	1065.800	809.170
407.409	22.341	1065.311	809.231
408.423	22.486	1064.931	809.539
409.438	22.588	1064.121	809.320
410.453	22.680	1063.386	809.110
411.467	22.731	1062.909	808.911
412.482	22.631	1062.754	808.263
413.496	22.889	1061.565	808.470
414.511	22.840	1060.921	807.681
415.526	23.020	1060.741	808.297
416.540	23.154	1059.823	808.136
417.555	22.904	1059.965	807.030
418.569	22.898	1059.053	806.240
419.584	22.946	1058.057	805.629
420.599	22.855	1058.154	805.214
421.613	156.068	1402.672	1795.722
422.628	143.451	1452.847	1795.803
