DTS Sentinel unit serial number:	SN413079Multiplexer serial number:	ORYXHardware model number:	OX4-SRSoftware version number:	ORYX F/W v4.00 Oryx Data Collector v3.7.2.0data status	okinstallation	princeton_trtdifferential loss correction	single-endedforward channel	channel 2reverse channel	N/Adate	2019/09/18time	07:43:34forward acquisition time	60.00reverse acquisition time	0.00gamma	496.2192k internal	0.2349k external	0.2349temperature offset calibration	0.9980default loss term (dB/km)	0.3790temperature slope calibration	1.0000multiplexer offset coefficient	1.0000multiplexer slope coefficient	1.0000fibre end	0.00T internal ref (°C)	23.28T ext. ref 1 (°C)	0.20T ext. ref 2 (°C)	18.19length (m)	temperature (°C)	Stokes	anti-Stokes-747.200	-69.058	0.357	0.137
-746.185	-70.493	-0.188	-0.071
-745.171	-200.000	-0.017	0.187
-744.156	-107.054	0.116	-0.026
-743.142	800.000	0.015	0.052
-742.127	220.765	-0.123	0.197
-741.112	-200.000	0.025	-0.161
-740.098	-0.943	0.150	0.106
-739.083	-51.441	-0.135	-0.063
-738.069	446.880	-0.128	0.281
-737.054	-162.379	0.434	-0.022
-736.039	-94.383	-0.278	-0.076
-735.025	-63.242	0.376	-0.155
-734.010	-200.000	0.026	-0.435
-732.996	-200.000	-0.009	0.154
-731.981	-200.000	-0.019	-0.240
-730.966	240.683	0.171	-0.284
-729.952	800.000	-0.087	0.342
-728.937	95.250	-0.235	0.267
-727.923	-68.079	-0.100	-0.039
-726.908	-36.187	-0.247	-0.133
-725.894	-138.595	-0.128	-0.014
-724.879	12.905	0.177	-0.136
-723.864	-14.285	-0.111	0.071
-722.850	128.843	-0.041	0.053
-721.835	-156.234	-0.235	-0.015
-720.821	130.121	0.216	-0.276
-719.806	-50.696	0.050	0.023
-718.791	105.137	-0.143	-0.169
-717.777	-39.070	0.364	-0.191
-716.762	-51.958	-0.225	-0.104
-715.748	-92.724	-0.014	0.004
-714.733	740.370	0.051	0.137
-713.718	-98.533	-0.157	-0.040
-712.704	-200.000	0.022	0.149
-711.689	-105.147	-0.319	0.073
-710.675	-174.349	0.300	-0.009
-709.660	-42.737	-0.394	-0.200
-708.645	113.693	-0.140	0.170
-707.631	800.000	0.003	0.013
-706.616	-41.772	-0.215	-0.110
-705.602	528.585	0.087	0.205
-704.587	86.621	0.212	0.234
-703.572	-85.350	-0.149	0.046
-702.558	-102.585	-0.214	-0.051
-701.543	800.000	-0.054	-0.183
-700.529	-40.886	0.108	0.056
-699.514	800.000	0.109	0.456
-698.499	54.108	-0.075	0.072
-697.485	25.147	-0.206	-0.170
-696.470	-22.882	0.152	0.091
-695.456	-145.195	-0.187	-0.017
-694.441	-31.732	-0.305	0.171
-693.426	-46.909	-0.345	0.168
-692.412	-200.000	0.040	0.365
-691.397	-105.091	0.249	-0.057
-690.383	163.283	-0.098	0.137
-689.368	248.595	-0.121	-0.205
-688.354	-108.594	0.321	-0.069
-687.339	-158.036	0.331	0.019
-686.324	-83.141	0.029	-0.009
-685.310	-131.679	0.238	-0.031
-684.295	137.916	0.185	0.241
-683.281	-200.000	-0.007	-0.169
-682.266	-161.074	0.157	-0.008
-681.251	128.946	0.132	-0.168
-680.237	-36.149	0.343	-0.184
-679.222	-119.984	0.284	0.049
-678.208	-61.823	-0.154	0.064
-677.193	-96.945	0.213	0.056
-676.178	413.544	0.105	-0.223
-675.164	307.056	-0.118	-0.219
-674.149	111.981	-0.161	0.194
-673.135	800.000	0.064	0.233
-672.120	-147.784	0.129	0.011
-671.105	-181.965	-0.065	-0.001
-670.091	800.000	0.055	-0.177
-669.076	67.288	-0.062	0.063
-668.062	61.490	0.273	0.270
-667.047	197.347	-0.049	-0.074
-666.032	38.542	0.083	0.074
-665.018	769.710	0.059	0.161
-664.003	-200.000	-0.002	-0.097
-662.989	800.000	-0.092	-0.357
-661.974	-39.585	-0.279	0.146
-660.959	-49.092	0.126	-0.060
-659.945	800.000	0.066	0.207
-658.930	23.051	0.288	-0.235
-657.916	-200.000	-0.036	0.219
-656.901	-55.418	-0.332	-0.148
-655.886	-64.807	-0.383	0.154
-654.872	529.916	-0.106	-0.249
-653.857	218.956	0.136	-0.216
-652.843	-66.688	-0.211	-0.083
-651.828	-200.000	0.011	0.069
-650.814	-125.957	0.199	-0.030
-649.799	-200.000	0.021	-0.185
-648.784	-109.563	0.034	-0.007
-647.770	-200.000	0.019	-0.102
-646.755	-128.209	-0.291	-0.041
-645.741	-94.181	-0.065	-0.018
-644.726	103.042	-0.151	-0.177
-643.711	319.089	0.127	0.240
-642.697	-200.000	0.011	-0.062
-641.682	-200.000	0.069	-0.432
-640.668	-59.261	-0.189	0.081
-639.653	-16.991	-0.034	-0.021
-638.638	86.715	-0.077	0.084
-637.624	-57.377	-0.199	-0.087
-636.609	54.662	-0.242	-0.233
-635.595	-200.000	0.065	-0.308
-634.580	-66.100	0.425	-0.168
-633.565	-87.494	0.194	0.058
-632.551	22.501	0.064	0.052
-631.536	34.868	-0.334	-0.291
-630.522	-63.342	-0.037	0.015
-629.507	-44.016	-0.349	-0.174
-628.492	574.902	0.057	0.138
-627.478	-45.150	-0.153	-0.076
-626.463	292.109	0.101	-0.182
-625.449	81.440	0.010	0.011
-624.434	-200.000	0.047	-0.376
-623.419	203.972	0.091	0.139
-622.405	157.287	0.181	0.249
-621.390	42.725	-0.157	-0.142
-620.376	34.450	-0.036	0.032
-619.361	-46.239	-0.195	0.095
-618.346	200.448	-0.084	0.129
-617.332	-138.915	0.127	-0.014
-616.317	-51.991	-0.192	0.088
-615.303	137.825	-0.119	-0.155
-614.288	114.166	-0.149	0.180
-613.273	194.101	0.101	-0.152
-612.259	-200.000	-0.048	-0.300
-611.244	137.813	0.135	-0.175
-610.230	-56.822	-0.235	-0.103
-609.215	84.175	0.194	-0.210
-608.201	-132.491	0.315	0.040
-607.186	-72.873	-0.248	0.091
-606.171	-200.000	0.023	-0.246
-605.157	800.000	0.067	0.258
-604.142	800.000	-0.079	0.218
-603.128	-125.433	0.243	0.037
-602.113	103.598	0.126	0.147
-601.098	800.000	0.060	0.224
-600.084	126.622	-0.126	-0.159
-599.069	-139.694	-0.049	0.005
-598.055	-195.002	-0.405	0.003
-597.040	800.000	-0.054	-0.214
-596.025	636.260	-0.097	0.244
-595.011	110.667	0.037	-0.044
-593.996	338.499	-0.038	-0.073
-592.982	800.000	-0.041	0.115
-591.967	189.546	0.108	0.161
-590.952	40.147	0.073	-0.065
-589.938	-200.000	0.012	-0.243
-588.923	14.508	-0.171	0.133
-587.909	-114.856	0.035	-0.007
-586.894	748.829	-0.039	0.105
-585.879	-61.883	-0.510	0.212
-584.865	-200.000	0.018	0.221
-583.850	186.987	0.113	0.168
-582.836	203.249	-0.030	-0.046
-581.821	-184.158	0.232	0.004
-580.806	222.104	-0.142	0.227
-579.792	-146.962	-0.151	0.013
-578.777	-200.000	-0.026	-0.166
-577.763	512.145	0.087	-0.200
-576.748	-67.179	-0.259	0.101
-575.733	-120.654	0.215	-0.036
-574.719	-200.000	0.015	-0.371
-573.704	-149.757	-0.307	-0.024
-572.690	133.999	0.176	0.226
-571.675	-28.795	0.161	-0.092
-570.661	-87.879	0.091	0.027
-569.646	73.047	-0.142	-0.147
-568.631	-70.751	-0.134	-0.050
-567.617	-200.000	0.037	-0.356
-566.602	800.000	-0.057	-0.243
-565.588	-45.795	-0.153	-0.075
-564.573	800.000	0.039	0.114
-563.558	535.049	-0.127	0.299
-562.544	116.406	-0.120	-0.146
-561.529	117.191	0.143	0.174
-560.515	111.105	0.079	0.094
-559.500	-153.242	-0.196	0.014
-558.485	-200.000	-0.037	0.286
-557.471	115.688	-0.041	-0.049
-556.456	-200.000	0.041	0.294
-555.442	-108.076	0.391	-0.084
-554.427	-200.000	-0.032	-0.260
-553.412	-200.000	-0.009	0.114
-552.398	-60.239	-0.212	-0.089
-551.383	-63.212	0.101	0.041
-550.369	-107.296	0.099	0.022
-549.354	70.975	0.138	0.141
-548.339	800.000	-0.067	0.223
-547.325	800.000	-0.140	-0.476
-546.310	-0.087	0.169	-0.119
-545.296	224.218	-0.232	0.371
-544.281	113.232	-0.204	0.245
-543.266	-200.000	0.466	0.002
-542.252	-101.070	-0.293	0.071
-541.237	390.928	0.083	-0.171
-540.223	71.884	0.186	0.192
-539.208	-71.224	0.202	-0.075
-538.193	-36.459	0.392	0.209
-537.179	-36.596	-0.268	0.143
-536.164	-22.958	0.130	-0.077
-535.150	93.947	0.256	-0.287
-534.135	-200.000	0.001	0.011
-533.121	-19.503	-0.078	-0.048
-532.106	413.001	-0.095	0.200
-531.091	-97.541	-0.128	0.033
-530.077	108.169	0.036	0.043
-529.062	800.000	-0.002	-0.008
-528.048	800.000	0.063	0.233
-527.033	-95.384	-0.131	-0.035
-526.018	-118.480	0.093	0.016
-525.004	232.934	0.033	-0.054
-523.989	-142.080	0.251	-0.025
-522.975	-200.000	0.018	0.156
-521.960	-133.382	-0.126	0.016
-520.945	440.359	0.154	0.333
-519.931	-141.422	0.125	-0.013
-518.916	-200.000	0.068	0.305
-517.902	-113.910	0.077	-0.015
-516.887	-200.000	-0.005	-0.097
-515.872	-200.000	0.037	0.326
-514.858	-96.417	-0.307	0.080
-513.843	80.597	-0.028	-0.030
-512.829	-111.368	-0.327	0.066
-511.814	800.000	-0.057	0.233
-510.799	37.748	-0.055	-0.048
-509.785	-96.613	-0.262	-0.068
-508.770	800.000	-0.024	0.085
-507.756	-110.419	-0.309	0.063
-506.741	134.094	0.226	-0.290
-505.726	253.143	0.105	0.178
-504.712	800.000	-0.084	0.273
-503.697	653.751	-0.052	0.132
-502.683	30.725	0.129	-0.109
-501.668	-69.579	0.144	-0.055
-500.653	-200.000	0.029	0.305
-499.639	-52.679	-0.338	0.154
-498.624	-200.000	-0.019	0.188
-497.610	-142.675	-0.365	0.035
-496.595	45.612	0.037	-0.034
-495.581	800.000	0.037	-0.121
-494.566	50.789	0.096	0.090
-493.551	-127.548	0.199	-0.029
-492.537	-85.880	0.096	0.029
-491.522	-23.454	-0.181	-0.107
-490.508	-159.583	0.098	-0.005
-489.493	-186.364	-0.149	-0.002
-488.478	-66.483	0.174	-0.068
-487.464	800.000	0.031	0.094
-486.449	-200.000	-0.020	-0.395
-485.435	119.973	-0.242	-0.297
-484.420	-55.429	0.429	-0.190
-483.405	-200.000	-0.082	-0.384
-482.391	-48.196	0.105	0.050
-481.376	118.370	0.178	0.217
-480.362	-31.165	-0.168	0.093
-479.347	-37.107	-0.104	-0.055
-478.332	110.518	0.084	-0.100
-477.318	-102.269	0.251	0.060
-476.303	8.276	-0.028	0.021
-475.289	800.000	-0.072	0.238
-474.274	-200.000	0.065	-0.373
-473.259	-66.579	-0.245	0.096
-472.245	18.255	0.109	0.086
-471.230	-200.000	-0.048	-0.322
-470.216	-51.218	-0.125	0.058
-469.201	684.174	0.071	-0.182
-468.186	383.340	0.028	0.056
-467.172	-200.000	-0.048	-0.212
-466.157	67.734	0.123	0.124
-465.143	-146.370	-0.205	0.018
-464.128	405.580	0.110	0.230
-463.113	800.000	-0.145	0.439
-462.099	-200.000	-0.002	0.265
-461.084	-49.259	-0.116	0.055
-460.070	-31.299	0.136	0.075
-459.055	-43.484	-0.177	-0.088
-458.040	-17.103	0.127	-0.079
-457.026	-130.638	0.353	0.047
-456.011	800.000	-0.059	0.208
-454.997	-188.625	-0.076	-0.001
-453.982	283.280	0.163	-0.288
-452.968	201.000	0.182	0.276
-451.953	-73.722	-0.351	-0.126
-450.938	800.000	-0.045	0.164
-449.924	-33.934	0.276	-0.150
-448.909	-200.000	0.019	0.238
-447.895	170.337	0.175	0.248
-446.880	-200.000	0.022	-0.385
-445.865	-53.619	-0.089	-0.040
-444.851	-63.826	0.252	-0.102
-443.836	-200.000	0.056	0.299
-442.822	64.100	0.143	0.142
-441.807	-200.000	0.095	0.420
-440.792	294.503	-0.103	0.186
-439.778	-200.000	-0.001	0.053
-438.763	-23.901	0.160	0.094
-437.749	101.665	0.253	0.291
-436.734	729.626	0.057	-0.151
-435.719	-200.000	-0.021	0.242
-434.705	246.531	-0.119	0.199
-433.690	282.477	0.042	0.074
-432.676	98.045	0.181	-0.206
-431.661	354.800	0.044	-0.086
-430.646	167.932	-0.156	-0.219
-429.632	-13.701	0.037	0.024
-428.617	113.981	0.239	0.286
-427.603	154.668	0.250	0.339
-426.588	800.000	-0.088	0.275
-425.573	-3.620	-0.076	-0.052
-424.559	100.608	-0.164	-0.187
-423.544	-46.190	-0.024	-0.012
-422.530	-102.521	-0.078	0.018
-421.515	-130.592	-0.238	-0.032
-420.500	153.250	0.041	0.055
-419.486	-65.331	-0.126	0.050
-418.471	-102.215	0.233	0.055
-417.457	-51.911	-0.068	0.031
-416.442	-99.058	0.332	0.083
-415.428	-200.000	-0.002	-0.294
-414.413	-108.222	-0.204	0.044
-413.398	-200.000	0.005	-0.050
-412.384	-26.242	-0.237	0.137
-411.369	-70.494	-0.060	-0.022
-410.355	147.097	-0.237	-0.314
-409.340	-37.775	0.105	-0.055
-408.325	-200.000	-0.000	0.371
-407.311	-25.788	0.112	-0.065
-406.296	-41.709	0.184	0.093
-405.282	800.000	-0.024	-0.100
-404.267	-74.843	-0.302	-0.107
-403.252	-200.000	-0.006	0.107
-402.238	-51.732	-0.103	-0.047
-401.223	-130.223	0.125	0.017
-400.209	-4.885	0.217	0.147
-399.194	77.220	0.195	-0.204
-398.179	210.313	0.105	-0.162
-397.165	5.423	0.049	-0.036
-396.150	800.000	-0.036	-0.118
-395.136	290.951	-0.146	0.261
-394.121	800.000	0.063	-0.215
-393.106	195.052	-0.154	0.231
-392.092	474.324	0.106	-0.236
-391.077	-200.000	0.064	-0.369
-390.063	800.000	-0.028	-0.087
-389.048	7.361	0.069	0.051
-388.033	-111.317	-0.246	0.049
-387.019	-85.267	0.170	0.052
-386.004	-159.836	-0.314	0.017
-384.990	313.063	0.158	-0.293
-383.975	-9.907	0.174	0.114
-382.960	-30.868	0.091	-0.051
-381.946	-73.307	-0.135	0.049
-380.931	82.229	0.186	0.198
-379.917	-11.367	0.050	0.032
-378.902	92.318	-0.094	0.104
-377.888	95.573	0.240	-0.269
-376.873	-159.862	-0.160	-0.009
-375.858	800.000	0.048	-0.146
-374.844	251.107	0.070	0.117
-373.829	132.139	0.168	0.213
-372.815	97.157	0.103	0.117
-371.800	800.000	0.095	-0.259
-370.785	371.510	-0.197	0.394
-369.771	218.999	-0.031	0.049
-368.756	262.884	0.034	-0.058
-367.742	-200.000	-0.005	-0.034
-366.727	-173.430	-0.255	-0.008
-365.712	91.333	-0.114	-0.126
-364.698	800.000	0.071	-0.304
-363.683	274.002	0.049	0.086
-362.669	9.770	-0.320	0.239
-361.654	-73.878	-0.204	-0.073
-360.639	15.409	-0.062	-0.048
-359.625	46.762	0.149	0.137
-358.610	800.000	0.068	0.226
-357.596	-200.000	0.028	-0.136
-356.581	-196.706	-0.164	-0.001
-355.566	54.136	0.235	-0.222
-354.552	-136.583	0.348	-0.040
-353.537	-153.003	0.266	-0.018
-352.523	-200.000	0.009	-0.277
-351.508	-200.000	-0.032	-0.296
-350.493	-73.948	-0.110	-0.039
-349.479	42.631	0.120	-0.108
-348.464	-17.243	0.085	-0.053
-347.450	236.718	0.095	-0.155
-346.435	-182.506	0.097	0.002
-345.420	-122.431	0.337	0.054
-344.406	378.979	-0.183	-0.368
-343.391	686.184	0.052	-0.132
-342.377	-200.000	-0.020	0.131
-341.362	160.660	-0.322	0.442
-340.348	-139.762	0.274	0.029
-339.333	-37.000	-0.382	-0.201
-338.318	-169.218	0.280	0.010
-337.304	-113.365	0.357	0.069
-336.289	78.343	-0.081	-0.085
-335.275	-200.000	-0.010	-0.061
-334.260	701.978	-0.107	-0.278
-333.245	-200.000	-0.048	-0.316
-332.231	-97.688	0.115	0.029
-331.216	-124.661	0.057	0.009
-330.202	-21.872	-0.164	-0.098
-329.187	800.000	-0.047	-0.176
-328.172	-200.000	0.025	-0.293
-327.158	-49.101	0.442	-0.208
-326.143	48.860	-0.376	-0.347
-325.129	143.071	0.104	-0.136
-324.114	541.834	0.091	-0.212
-323.099	237.816	-0.197	-0.322
-322.085	-122.175	-0.246	0.040
-321.070	-74.674	0.518	0.183
-320.056	-125.886	-0.313	0.046
-319.041	-107.499	-0.082	0.018
-318.026	-86.740	0.073	0.022
-317.012	-30.688	-0.318	0.177
-315.997	-25.477	0.122	-0.071
-314.983	800.000	0.050	-0.147
-313.968	296.671	0.160	0.287
-312.953	296.366	0.054	0.096
-311.939	749.732	0.162	-0.430
-310.924	13.534	0.297	-0.227
-309.910	-33.961	0.143	0.077
-308.895	-106.052	-0.308	0.068
-307.880	728.101	0.087	-0.228
-306.866	-33.229	0.187	-0.101
-305.851	-200.000	0.081	0.364
-304.837	140.533	-0.028	-0.037
-303.822	12.354	-0.054	-0.041
-302.807	-200.000	-0.041	0.177
-301.793	-20.047	0.180	0.109
-300.778	25.893	-0.210	-0.172
-299.764	-200.000	0.024	-0.124
-298.749	-127.609	-0.168	-0.024
-297.735	151.362	-0.125	-0.167
-296.720	444.901	0.137	0.295
-295.705	-189.001	0.066	-0.001
-294.691	-84.619	-0.133	-0.041
-293.676	-200.000	0.005	-0.067
-292.662	-200.000	0.029	-0.133
-291.647	23.186	-0.178	0.144
-290.632	202.864	-0.060	0.091
-289.618	19.472	0.099	-0.078
-288.603	-61.534	0.147	-0.060
-287.589	250.408	0.111	-0.185
-286.574	239.879	-0.140	0.229
-285.559	499.095	0.048	-0.109
-284.545	8.545	0.103	0.076
-283.530	354.900	-0.260	-0.508
-282.516	31.163	-0.282	0.238
-281.501	59.002	0.080	0.077
-280.486	800.000	-0.055	-0.189
-279.472	-133.181	-0.288	0.036
-278.457	86.136	0.131	0.141
-277.443	126.787	-0.188	-0.233
-276.428	20.218	-0.291	-0.230
-275.413	-13.441	-0.180	-0.115
-274.399	-200.000	0.003	0.285
-273.384	800.000	0.036	0.109
-272.370	-66.310	0.166	-0.065
-271.355	800.000	-0.034	0.143
-270.340	-53.501	-0.178	0.080
-269.326	-200.000	0.052	0.421
-268.311	39.543	-0.013	-0.011
-267.297	-58.939	-0.072	-0.030
-266.282	-200.000	0.008	-0.047
-265.267	-39.331	0.066	-0.034
-264.253	615.533	0.089	0.220
-263.238	-37.864	-0.064	-0.033
-262.224	-60.161	0.134	-0.056
-261.209	-200.000	-0.050	-0.321
-260.195	-200.000	-0.005	0.059
-259.180	-85.719	0.144	-0.044
-258.165	-53.516	0.353	0.158
-257.151	-43.376	0.164	-0.081
-256.136	-200.000	-0.023	-0.257
-255.122	-99.823	-0.131	-0.032
-254.107	-200.000	-0.000	0.505
-253.092	144.155	0.188	0.246
-252.078	-68.997	0.253	0.095
-251.063	-21.498	-0.175	0.105
-250.049	800.000	-0.038	0.138
-249.034	-200.000	-0.027	-0.157
-248.019	101.264	0.144	0.164
-247.005	135.519	0.033	0.043
-245.990	-179.131	0.259	-0.006
-244.976	-193.936	-0.259	-0.002
-243.961	-67.733	0.215	0.082
-242.946	800.000	-0.081	0.275
-241.932	800.000	0.065	-0.261
-240.917	-141.437	0.219	-0.022
-239.903	-175.334	-0.151	-0.004
-238.888	-77.056	-0.402	0.137
-237.873	-2.040	0.226	0.155
-236.859	-200.000	0.008	0.144
-235.844	124.248	0.037	-0.045
-234.830	-127.318	-0.127	-0.018
-233.815	229.317	0.079	0.126
-232.800	-67.439	-0.109	0.042
-231.786	-86.229	-0.105	0.032
-230.771	381.060	-0.099	-0.198
-229.757	800.000	-0.195	0.622
-228.742	77.373	0.252	0.263
-227.727	12.170	-0.091	0.068
-226.713	62.188	-0.128	0.125
-225.698	-186.198	0.236	0.003
-224.684	-142.241	-0.238	-0.023
-223.669	-147.080	0.579	0.048
-222.655	-0.507	-0.077	0.054
-221.640	-20.590	-0.135	-0.081
-220.625	370.373	-0.088	-0.174
-219.611	115.317	-0.035	0.042
-218.596	800.000	0.092	0.277
-217.582	243.566	0.084	0.138
-216.567	-110.743	0.084	-0.017
-215.552	-16.829	-0.126	-0.078
-214.538	665.172	0.067	0.170
-213.523	-47.383	0.203	0.097
-212.509	-69.430	-0.063	0.024
-211.494	-27.557	0.238	0.135
-210.479	259.653	0.061	0.104
-209.465	-153.992	-0.152	-0.010
-208.450	28.710	0.147	-0.122
-207.436	-106.156	0.379	-0.083
-206.421	800.000	-0.115	-0.327
-205.406	-200.000	0.453	-0.002
-204.392	-97.318	-0.098	-0.025
-203.377	-200.000	-0.022	-0.167
-202.363	-88.061	0.224	0.066
-201.348	14.298	0.119	0.091
-200.333	585.452	0.061	0.147
-199.319	157.096	-0.141	0.191
-198.304	-200.000	-0.009	-0.074
-197.290	107.548	-0.334	-0.388
-196.275	-200.000	-0.020	0.219
-195.260	-200.000	-0.001	0.062
-194.246	-92.238	0.156	0.043
-193.231	-41.324	-0.079	0.040
-192.217	30.073	0.035	-0.029
-191.202	-121.420	0.126	0.020
-190.187	-165.616	-0.310	0.013
-189.173	800.000	0.040	-0.146
-188.158	-200.000	-0.068	-0.387
-187.144	357.878	-0.116	-0.226
-186.129	218.724	-0.056	0.087
-185.114	-200.000	-0.221	0.000
-184.100	86.618	0.173	0.187
-183.085	-22.072	-0.097	0.057
-182.071	800.000	0.071	-0.214
-181.056	353.864	-0.115	0.223
-180.042	-160.394	-0.242	0.013
-179.027	-153.723	-0.206	-0.014
-178.012	182.639	-0.045	0.065
-176.998	250.287	0.069	-0.114
-175.983	-107.261	-0.241	0.052
-174.969	-200.000	0.009	0.119
-173.954	87.656	0.270	0.293
-172.939	-45.118	-0.103	-0.050
-171.925	-43.169	0.143	-0.071
-170.910	352.211	-0.056	0.108
-169.896	-200.000	0.014	0.331
-168.881	309.026	0.139	-0.254
-167.866	-167.059	0.083	-0.003
-166.852	213.075	-0.115	0.177
-165.837	-172.480	-0.210	0.006
-164.823	64.785	-0.403	-0.397
-163.808	800.000	0.134	-0.369
-162.793	-14.693	-0.368	0.231
-161.779	-72.891	-0.271	-0.097
-160.764	-200.000	0.007	-0.308
-159.750	-86.491	0.282	0.085
-158.735	49.253	-0.151	0.139
-157.720	116.875	-0.209	-0.250
-156.706	-200.000	0.047	-0.376
-155.691	-111.619	0.411	0.081
-154.677	354.337	0.072	-0.140
-153.662	36.038	0.180	0.155
-152.647	-200.000	0.023	-0.334
-151.633	-67.817	-0.373	-0.142
-150.618	-24.436	0.108	-0.063
-149.604	-200.000	-0.032	-0.232
-148.589	91.542	-0.086	0.095
-147.574	-132.502	0.255	-0.032
-146.560	115.586	0.103	0.122
-145.545	-7.106	-0.060	-0.040
-144.531	-112.627	0.248	-0.048
-143.516	20.072	-0.167	0.132
-142.502	167.269	0.182	0.252
-141.487	-46.289	0.238	-0.114
-140.472	800.000	0.080	-0.306
-139.458	549.557	0.028	0.065
-138.443	-128.443	0.257	0.036
-137.429	241.907	0.157	-0.256
-136.414	99.626	0.148	0.167
-135.399	489.531	-0.037	0.083
-134.385	100.680	0.117	0.133
-133.370	-200.000	0.001	0.208
-132.356	-200.000	0.049	-0.330
-131.341	85.969	0.118	0.126
-130.326	-71.534	-0.023	0.008
-129.312	51.814	0.123	0.114
-128.297	61.812	0.149	-0.145
-127.283	-200.000	0.055	-0.365
-126.268	160.764	0.096	-0.131
-125.253	-32.181	-0.252	-0.137
-124.239	277.932	0.049	-0.085
-123.224	79.053	-0.166	-0.173
-122.210	468.874	0.046	-0.101
-121.195	-45.545	-0.264	0.127
-120.180	-41.479	0.300	0.150
-119.166	-200.000	0.012	0.205
-118.151	-4.389	-0.233	0.157
-117.137	800.000	-0.086	-0.262
-116.122	33.867	0.105	0.089
-115.107	117.024	-0.142	-0.170
-114.093	-130.387	0.327	-0.043
-113.078	2.565	-0.192	-0.136
-112.064	77.569	0.153	0.158
-111.049	-174.376	-0.207	-0.006
-110.034	19.379	0.084	0.066
-109.020	-145.439	-0.156	-0.014
-108.005	-75.702	0.118	0.041
-106.991	-42.472	0.204	0.101
-105.976	77.524	-0.076	-0.078
-104.962	800.000	0.097	0.286
-103.947	3.453	0.052	-0.037
-102.932	166.197	-0.146	0.201
-101.918	-94.322	-0.314	0.083
-100.903	-200.000	0.021	0.220
-99.889	81.409	0.149	-0.156
-98.874	-185.772	-0.338	-0.005
-97.859	19.456	-0.227	-0.178
-96.845	329.374	0.072	0.135
-95.830	-123.189	-0.201	0.031
-94.816	122.285	0.056	0.068
-93.801	-36.120	-0.373	0.196
-92.786	800.000	0.036	0.101
-91.772	91.037	0.246	-0.269
-90.757	800.000	-0.077	0.257
-89.743	-147.774	0.133	-0.011
-88.728	-135.532	0.199	-0.023
-87.713	-42.702	-0.138	-0.068
-86.699	647.620	-0.145	0.361
-85.684	-200.000	-0.025	0.537
-84.670	41.207	0.303	-0.266
-83.655	800.000	-0.028	-0.112
-82.640	233.162	0.037	0.059
-81.626	-171.697	0.094	-0.003
-80.611	-143.639	-0.356	0.033
-79.597	161.183	0.192	0.261
-78.582	-81.632	-0.145	-0.046
-77.567	-115.478	0.309	0.057
-76.553	31.288	-0.168	-0.141
-75.538	800.000	-0.172	0.479
-74.524	392.601	-0.018	-0.037
-73.509	-147.716	-0.156	0.013
-72.494	217.263	0.058	-0.090
-71.480	226.622	-0.152	0.241
-70.465	-80.244	0.479	0.156
-69.451	-13.024	0.196	0.124
-68.436	483.050	0.008	0.017
-67.422	800.000	0.033	0.132
-66.407	738.077	0.073	-0.191
-65.392	281.713	-0.169	-0.295
-64.378	-130.330	0.268	-0.035
-63.363	-68.750	0.207	-0.078
-62.349	-31.497	0.351	0.192
-61.334	136.402	-1.088	-1.380
-60.319	-24.262	0.823	0.478
-59.305	800.000	-0.346	-1.232
-58.290	513.073	0.682	1.546
-57.276	744.495	0.693	1.812
-56.261	-200.000	123.914	634.742
-55.246	401.470	1570.540	3206.032
-54.232	141.986	2742.378	3534.730
-53.217	88.586	2311.078	2496.853
-52.203	32.407	1918.089	1610.261
-51.188	26.349	1713.073	1391.618
-50.173	24.194	1674.698	1344.154
-49.159	44.904	1743.647	1560.075
-48.144	42.924	1755.629	1555.462
-47.130	25.879	1706.780	1382.677
-46.115	23.434	1691.217	1351.407
-45.100	23.253	1685.874	1345.704
-44.086	23.188	1684.047	1343.702
-43.071	23.208	1681.413	1341.700
-42.057	23.177	1679.457	1339.845
-41.042	23.171	1677.185	1337.938
-40.027	23.174	1675.492	1336.553
-39.013	23.164	1673.296	1334.679
-37.998	23.125	1672.056	1333.340
-36.984	23.240	1670.671	1333.051
-35.969	23.291	1668.893	1331.960
-34.954	23.355	1667.323	1331.137
-33.940	23.191	1665.983	1328.779
-32.925	23.283	1663.913	1327.768
-31.911	23.363	1661.928	1326.728
-30.896	23.239	1660.937	1324.956
-29.881	23.291	1659.153	1323.870
-28.867	23.200	1657.826	1322.084
-27.852	23.193	1656.441	1320.872
-26.838	23.213	1654.864	1319.710
-25.823	23.345	1653.066	1319.210
-24.809	23.349	1651.737	1318.125
-23.794	23.286	1651.063	1317.068
-22.779	23.331	1649.118	1315.795
-21.765	23.231	1647.827	1313.973
-20.750	23.275	1645.315	1312.245
-19.736	23.348	1644.274	1311.898
-18.721	23.360	1642.985	1310.909
-17.706	23.278	1641.650	1309.182
-16.692	23.258	1639.967	1307.641
-15.677	23.314	1638.441	1306.789
-14.663	23.422	1636.898	1306.299
-13.648	23.314	1635.686	1304.488
-12.633	23.358	1634.531	1303.837
-11.619	23.387	1632.664	1302.512
-10.604	23.275	1631.718	1300.881
-9.590	23.259	1630.653	1299.864
-8.575	23.380	1628.707	1299.144
-7.560	23.239	1628.359	1297.787
-6.546	23.334	1626.777	1297.169
-5.531	23.300	1626.115	1296.338
-4.517	23.421	1624.052	1295.524
-3.502	23.350	1623.216	1294.292
-2.487	23.330	1621.529	1292.746
-1.473	23.024	1609.315	1280.744
-0.458	20.223	1589.749	1245.045
0.556	15.451	1591.282	1216.147
1.571	13.379	1615.295	1219.137
2.586	13.202	1627.753	1227.114
3.600	12.246	1572.563	1178.543
4.615	6.639	1464.749	1060.055
5.629	1.192	1405.775	982.088
6.644	0.320	1398.139	971.052
7.659	0.214	1397.120	969.574
8.673	0.129	1396.627	968.599
9.688	0.138	1393.646	966.503
10.702	-0.001	1390.728	963.508
11.717	2.749	1394.622	983.771
12.731	9.571	1404.824	1034.831
13.746	15.067	1412.848	1076.065
14.761	16.662	1414.437	1087.435
15.775	16.215	1412.511	1082.995
16.790	15.092	1410.606	1074.233
17.804	14.431	1407.997	1067.922
18.819	14.048	1406.649	1064.351
19.834	13.840	1405.294	1061.898
20.848	13.587	1404.037	1059.241
21.863	13.344	1402.797	1056.659
22.877	13.150	1401.606	1054.429
23.892	13.063	1400.288	1052.787
24.907	13.062	1399.898	1052.399
25.921	13.223	1398.610	1052.360
26.936	13.164	1397.928	1051.379
27.950	13.217	1397.279	1051.134
28.965	13.265	1395.812	1050.246
29.980	13.263	1395.075	1049.585
30.994	13.303	1393.875	1048.840
32.009	13.360	1392.863	1048.351
33.023	13.384	1391.934	1047.708
34.038	13.313	1390.735	1046.265
35.053	13.318	1389.298	1045.120
36.067	13.341	1388.103	1044.275
37.082	13.311	1387.148	1043.274
38.096	13.317	1386.241	1042.538
39.111	13.260	1385.887	1041.822
40.126	13.233	1384.683	1040.656
41.140	13.218	1383.832	1039.828
42.155	13.205	1383.030	1039.052
43.169	13.088	1383.551	1038.613
44.184	13.116	1383.025	1038.305
45.199	13.120	1382.710	1037.998
46.213	13.190	1381.829	1037.690
47.228	13.264	1380.497	1037.061
48.242	13.284	1379.476	1036.324
49.257	13.362	1377.570	1035.293
50.271	13.290	1376.502	1033.944
51.286	13.263	1375.630	1033.028
52.301	13.191	1373.964	1031.236
53.315	13.199	1373.510	1030.855
54.330	13.210	1371.895	1029.622
55.344	13.112	1370.621	1027.967
56.359	13.090	1369.720	1027.059
57.374	13.219	1368.646	1026.968
58.388	13.077	1368.459	1025.854
59.403	13.139	1367.648	1025.540
60.417	13.067	1366.457	1024.109
61.432	12.967	1365.714	1022.844
62.447	12.990	1364.962	1022.330
63.461	13.026	1363.770	1021.572
64.476	12.990	1362.536	1020.334
65.490	13.076	1360.914	1019.556
66.505	13.146	1359.440	1018.799
67.520	13.057	1358.573	1017.508
68.534	13.009	1357.622	1016.407
69.549	13.130	1355.805	1015.702
70.563	13.127	1354.960	1014.964
71.578	12.935	1354.135	1013.075
72.593	12.947	1353.211	1012.370
73.607	13.010	1352.359	1012.028
74.622	12.951	1351.834	1011.184
75.636	12.925	1350.461	1009.907
76.651	13.018	1349.779	1009.875
77.666	12.967	1349.582	1009.330
78.680	12.928	1348.945	1008.527
79.695	12.969	1347.924	1007.923
80.709	13.086	1346.984	1007.843
81.724	13.041	1346.194	1006.892
82.739	13.148	1345.025	1006.577
83.753	13.119	1344.038	1005.576
84.768	13.211	1343.180	1005.400
85.782	13.343	1341.657	1004.977
86.797	13.171	1340.663	1003.100
87.812	13.092	1339.518	1001.671
88.826	13.144	1338.511	1001.146
89.841	13.198	1336.723	1000.047
90.855	13.314	1335.838	1000.002
91.870	13.237	1335.173	998.946
92.884	13.164	1334.641	998.022
93.899	13.378	1333.348	998.257
94.914	13.289	1333.035	997.394
95.928	13.304	1331.838	996.504
96.943	13.353	1330.740	995.888
97.957	13.330	1329.694	994.878
98.972	13.272	1328.527	993.570
99.987	13.302	1327.486	992.886
101.001	13.304	1326.660	992.191
102.016	13.201	1326.050	991.030
103.030	13.272	1324.828	990.454
104.045	13.234	1324.160	989.638
105.060	13.255	1322.224	988.227
106.074	13.193	1321.362	987.126
107.089	13.106	1320.206	985.659
108.103	13.059	1318.891	984.305
109.118	13.166	1317.413	983.756
110.133	13.168	1316.031	982.649
111.147	13.119	1314.781	981.338
112.162	13.087	1313.601	980.178
113.176	13.188	1312.408	979.802
114.191	13.185	1311.301	978.868
115.206	13.229	1310.371	978.349
116.220	13.226	1308.921	977.163
117.235	13.182	1307.914	976.066
118.249	13.223	1306.652	975.277
119.264	13.115	1305.756	973.884
120.279	13.078	1304.648	972.759
121.293	13.109	1303.953	972.336
122.308	13.116	1302.190	970.976
123.322	13.088	1302.105	970.659
124.337	13.164	1299.977	969.435
125.352	13.078	1299.066	968.166
126.366	13.174	1297.478	967.461
127.381	13.144	1296.702	966.619
128.395	13.168	1295.745	965.958
129.410	13.028	1294.937	964.456
130.424	13.177	1293.891	964.457
131.439	13.243	1292.695	963.869
132.454	13.219	1291.575	962.805
133.468	13.219	1290.940	962.248
134.483	13.207	1290.206	961.546
135.497	13.197	1288.746	960.316
136.512	13.166	1287.550	959.157
137.527	13.134	1286.483	958.093
138.541	13.139	1284.912	956.871
139.556	13.232	1283.321	956.138
140.570	13.308	1282.252	955.695
141.585	13.373	1280.662	954.798
142.600	13.244	1279.872	953.383
143.614	13.421	1278.736	953.474
144.629	13.258	1278.013	951.912
145.643	13.320	1277.018	951.444
146.658	13.320	1275.403	950.154
147.673	13.333	1273.862	948.999
148.687	13.362	1273.090	948.504
149.702	13.279	1271.405	946.688
150.716	13.239	1270.429	945.651
151.731	13.250	1269.304	944.792
152.746	13.363	1268.182	944.516
153.760	13.314	1266.933	943.226
154.775	13.383	1265.706	942.621
155.789	13.540	1264.454	942.499
156.804	13.344	1264.225	941.128
157.819	13.561	1262.428	940.939
158.833	13.602	1261.333	940.274
159.848	13.604	1260.071	939.265
160.862	13.556	1259.797	938.705
161.877	13.457	1258.428	937.037
162.892	13.394	1257.161	935.658
163.906	13.445	1256.696	935.518
164.921	13.388	1255.645	934.328
165.935	13.455	1254.860	934.039
166.950	13.641	1253.471	933.970
167.964	13.490	1253.044	932.720
168.979	13.539	1252.484	932.497
169.994	13.584	1251.557	931.978
171.008	13.466	1250.801	930.668
172.023	13.531	1250.448	930.689
173.037	13.666	1248.968	930.262
174.052	13.625	1248.205	929.384
175.067	13.650	1247.104	928.622
176.081	13.542	1246.111	927.192
177.096	13.548	1245.678	926.821
178.110	13.575	1244.293	925.862
179.125	13.571	1243.026	924.812
180.140	13.702	1241.681	924.464
181.154	13.710	1240.271	923.375
182.169	13.656	1239.306	922.275
183.183	13.716	1238.270	921.755
184.198	13.676	1236.951	920.472
185.213	13.874	1235.343	920.290
186.227	13.741	1234.752	919.031
187.242	13.809	1234.130	918.867
188.256	13.874	1232.660	918.046
189.271	13.815	1231.351	916.664
190.286	13.709	1230.484	915.353
191.300	13.580	1229.813	914.063
192.315	13.634	1229.183	913.813
193.329	13.704	1228.612	913.691
194.344	13.819	1228.027	913.812
195.359	13.773	1227.252	912.899
196.373	13.760	1226.913	912.496
197.388	13.813	1226.302	912.248
198.402	13.977	1225.732	912.649
199.417	13.995	1224.852	912.007
200.432	14.025	1224.333	911.704
201.446	14.026	1223.535	911.035
202.461	14.044	1222.421	910.227
203.475	14.095	1221.206	909.519
204.490	14.037	1220.349	908.486
205.504	14.119	1218.882	907.757
206.519	13.970	1217.870	906.111
207.534	13.993	1217.099	905.582
208.548	13.952	1215.860	904.357
209.563	14.013	1214.675	903.727
210.577	14.083	1214.090	903.592
211.592	14.059	1213.323	902.812
212.607	14.050	1212.499	902.072
213.621	14.179	1211.305	901.804
214.636	14.112	1210.428	900.706
215.650	14.116	1209.727	900.129
216.665	14.130	1208.581	899.268
217.680	14.197	1207.663	898.868
218.694	14.217	1206.711	898.191
219.709	14.275	1205.973	897.871
220.723	14.179	1204.996	896.548
221.738	14.258	1204.380	896.436
222.753	14.252	1203.762	895.864
223.767	14.226	1202.974	895.061
224.782	14.397	1201.869	895.076
225.796	14.330	1201.926	894.682
226.811	14.393	1201.011	894.258
227.826	14.428	1200.490	893.978
228.840	14.335	1199.532	892.689
229.855	14.245	1199.189	891.874
230.869	14.401	1197.783	891.580
231.884	14.322	1197.397	890.793
232.899	14.365	1196.319	890.140
233.913	14.347	1195.930	889.677
234.928	14.309	1195.089	888.769
235.942	14.348	1194.154	888.207
236.957	14.423	1193.011	887.676
237.972	14.261	1192.583	886.415
238.986	14.249	1192.339	886.091
240.001	14.355	1191.331	885.826
241.015	14.394	1190.569	885.390
242.030	14.301	1189.468	884.000
243.045	14.475	1188.332	884.003
244.059	14.422	1188.152	883.507
245.074	14.519	1186.904	883.013
246.088	14.573	1186.111	882.633
247.103	14.640	1185.238	882.257
248.117	14.571	1184.648	881.377
249.132	14.540	1184.108	880.731
250.147	14.568	1183.278	880.185
251.161	14.660	1182.504	880.019
252.176	14.681	1181.702	879.454
253.190	14.788	1180.976	879.400
254.205	14.795	1180.536	879.032
255.220	14.699	1180.537	878.449
256.234	14.831	1179.295	878.137
257.249	14.936	1178.406	877.948
258.263	14.795	1178.041	876.860
259.278	14.861	1177.179	876.490
260.293	14.917	1176.843	876.454
261.307	15.003	1176.070	876.249
262.322	14.958	1175.286	875.354
263.336	15.037	1174.451	875.069
264.351	15.054	1173.963	874.714
265.366	15.048	1173.338	874.143
266.380	15.087	1172.638	873.745
267.395	14.978	1171.626	872.348
268.409	14.970	1171.359	872.026
269.424	14.948	1170.513	871.206
270.439	14.963	1170.269	871.027
271.453	15.120	1168.539	870.480
272.468	15.100	1167.969	869.871
273.482	15.127	1167.083	869.276
274.497	15.060	1166.732	868.590
275.512	15.007	1166.719	868.229
276.526	15.040	1165.158	867.162
277.541	15.094	1164.310	866.733
278.555	15.102	1163.655	866.211
279.570	15.149	1163.019	865.903
280.585	15.169	1162.354	865.433
281.599	15.231	1161.381	864.955
282.614	15.233	1160.335	864.108
283.628	15.192	1159.322	863.063
284.643	15.147	1158.113	861.858
285.657	15.231	1157.469	861.733
286.672	15.319	1156.419	861.329
287.687	15.198	1155.727	860.114
288.701	15.135	1155.183	859.313
289.716	15.243	1154.458	859.250
290.730	15.357	1153.424	858.985
291.745	15.302	1152.864	858.211
292.760	15.359	1151.869	857.686
293.774	15.418	1151.310	857.495
294.789	15.387	1151.292	857.247
295.803	15.497	1150.076	856.830
296.818	15.333	1149.766	855.688
297.833	15.394	1148.825	855.223
298.847	15.476	1147.878	854.858
299.862	15.418	1147.137	853.935
300.876	15.541	1146.179	853.772
301.891	15.487	1145.678	853.048
302.906	15.489	1144.994	852.474
303.920	15.486	1144.218	851.805
304.935	15.650	1143.605	852.104
305.949	15.504	1143.456	851.177
306.964	15.556	1142.279	850.494
307.979	15.502	1141.691	849.703
308.993	15.660	1140.859	849.809
310.008	15.726	1140.043	849.458
311.022	15.730	1139.406	848.932
312.037	15.782	1138.117	848.155
313.052	15.672	1137.249	846.878
314.066	15.720	1136.031	846.142
315.081	15.612	1136.040	845.529
316.095	15.724	1134.786	845.085
317.110	15.673	1134.207	844.319
318.125	15.679	1133.644	843.857
319.139	15.702	1132.997	843.417
320.154	15.657	1132.149	842.484
321.168	15.755	1131.558	842.463
322.183	15.692	1130.860	841.550
323.197	15.748	1130.479	841.475
324.212	15.729	1129.539	840.605
325.227	15.748	1129.363	840.493
326.241	15.758	1128.504	839.832
327.256	15.887	1127.555	839.694
328.270	15.816	1126.559	838.522
329.285	15.664	1125.786	837.119
330.300	15.865	1124.432	837.034
331.314	15.870	1123.654	836.406
332.329	15.749	1122.933	835.197
333.343	15.847	1121.657	834.660
334.358	15.968	1121.021	834.712
335.373	15.936	1119.926	833.663
336.387	15.966	1119.668	833.545
337.402	15.978	1119.138	833.136
338.416	15.927	1118.211	832.122
339.431	16.000	1117.510	831.889
340.446	15.949	1116.973	831.161
341.460	15.955	1116.484	830.755
342.475	16.058	1115.653	830.568
343.489	16.044	1114.812	829.799
344.504	16.223	1113.280	829.470
345.519	16.146	1113.012	828.816
346.533	16.174	1111.949	828.087
347.548	16.228	1111.265	827.771
348.562	16.236	1110.644	827.275
349.577	16.142	1110.020	826.276
350.592	16.086	1109.037	825.198
351.606	16.103	1108.369	824.710
352.621	16.150	1107.701	824.371
353.635	16.006	1107.279	823.278
354.650	16.148	1106.125	823.043
355.665	16.286	1105.684	823.314
356.679	16.267	1104.591	822.336
357.694	16.329	1104.118	822.209
358.708	16.317	1103.519	821.634
359.723	16.334	1102.843	821.143
360.738	16.397	1102.062	820.795
361.752	16.353	1101.579	820.146
362.767	16.257	1101.267	819.376
363.781	16.304	1100.822	819.201
364.796	16.370	1100.230	819.008
365.810	16.364	1099.683	818.497
366.825	16.475	1098.593	818.150
367.840	16.466	1098.158	817.713
368.854	16.563	1097.512	817.627
369.869	16.509	1096.611	816.623
370.883	16.464	1096.219	816.044
371.898	16.528	1095.344	815.628
372.913	16.560	1094.597	815.154
373.927	16.562	1094.258	814.840
374.942	16.615	1093.550	814.493
375.956	16.570	1093.134	813.896
376.971	16.616	1092.374	813.476
377.986	16.590	1091.821	812.871
379.000	16.734	1091.404	813.180
380.015	16.731	1090.863	812.690
381.029	16.721	1090.019	811.943
382.044	16.806	1088.872	811.419
383.059	16.834	1088.388	811.125
384.073	16.845	1087.765	810.639
385.088	16.871	1086.649	809.860
386.102	16.724	1085.871	808.509
387.117	16.785	1084.885	807.994
388.132	16.628	1084.268	806.713
389.146	16.767	1083.406	806.662
390.161	16.720	1083.059	806.107
391.175	16.883	1081.721	805.818
392.190	16.917	1081.111	805.454
393.205	16.942	1080.429	804.990
394.219	16.917	1079.676	804.242
395.234	16.837	1078.872	803.192
396.248	16.801	1077.906	802.232
397.263	16.873	1076.497	801.453
398.278	16.821	1076.139	800.868
399.292	16.845	1075.535	800.463
400.307	16.812	1074.520	799.480
401.321	16.864	1074.087	799.332
402.336	16.930	1073.351	799.024
403.350	16.839	1072.594	797.960
404.365	16.821	1071.901	797.291
405.380	16.959	1071.428	797.518
406.394	16.903	1070.607	796.573
407.409	16.958	1069.575	795.993
408.423	17.018	1069.008	795.781
409.438	17.125	1068.150	795.577
410.453	17.203	1067.287	795.225
411.467	17.105	1067.133	794.584
412.482	17.196	1066.516	794.480
413.496	17.187	1065.840	793.862
414.511	17.174	1065.159	793.225
415.526	17.282	1064.634	793.268
416.540	17.259	1064.309	792.846
417.555	17.335	1063.409	792.461
418.569	17.301	1062.929	791.873
419.584	17.200	1062.721	791.179
420.599	17.370	1062.100	791.439
421.613	107.717	1331.499	1487.705
422.628	99.461	1370.684	1487.779
