DTS Sentinel unit serial number:	SN413079Multiplexer serial number:	ORYXHardware model number:	OX4-SRSoftware version number:	ORYX F/W v4.00 Oryx Data Collector v3.7.2.0data status	okinstallation	princeton_trtdifferential loss correction	single-endedforward channel	channel 2reverse channel	N/Adate	2019/09/18time	09:03:35forward acquisition time	60.00reverse acquisition time	0.00gamma	496.2192k internal	0.2339k external	0.2339temperature offset calibration	0.9979default loss term (dB/km)	0.3790temperature slope calibration	1.0000multiplexer offset coefficient	1.0000multiplexer slope coefficient	1.0000fibre end	0.00T internal ref (°C)	25.19T ext. ref 1 (°C)	0.23T ext. ref 2 (°C)	22.15length (m)	temperature (°C)	Stokes	anti-Stokes-747.200	800.000	0.061	0.202
-746.185	44.233	0.123	0.113
-745.171	-147.832	-0.362	-0.030
-744.156	-200.000	-0.069	0.316
-743.142	-200.000	0.020	0.220
-742.127	163.945	0.299	0.423
-741.112	42.388	0.263	-0.240
-740.098	85.117	-0.098	-0.108
-739.083	-200.000	0.014	0.271
-738.069	1.786	0.214	-0.155
-737.054	-76.374	-0.106	-0.037
-736.039	-200.000	0.037	-0.177
-735.025	266.766	0.173	0.303
-734.010	-71.487	-0.445	-0.167
-732.996	-200.000	-0.006	-0.243
-731.981	32.722	-0.202	0.175
-730.966	-31.768	-0.298	-0.168
-729.952	235.773	-0.132	-0.218
-728.937	138.607	-0.140	-0.184
-727.923	-53.614	-0.204	-0.093
-726.908	-106.964	0.131	-0.029
-725.894	-200.000	-0.077	0.425
-724.879	800.000	-0.037	0.133
-723.864	-61.622	0.169	-0.071
-722.850	10.384	0.218	-0.166
-721.835	-164.012	-0.415	-0.019
-720.821	18.775	0.251	0.202
-719.806	-36.284	0.056	0.030
-718.791	26.057	-0.111	-0.093
-717.777	506.588	-0.064	-0.149
-716.762	-200.000	0.024	-0.159
-715.748	34.391	0.148	0.129
-714.733	-161.269	0.159	0.008
-713.718	-111.778	0.273	0.055
-712.704	53.709	-0.084	-0.080
-711.689	-32.660	0.196	-0.109
-710.675	24.121	0.164	0.136
-709.660	653.656	-0.092	-0.237
-708.645	323.786	0.157	-0.300
-707.631	-200.000	-0.029	-0.158
-706.616	-54.872	-0.060	-0.027
-705.602	255.790	0.080	0.138
-704.587	203.727	0.024	0.038
-703.572	264.222	-0.154	-0.268
-702.558	54.624	0.113	-0.109
-701.543	-59.341	-0.287	-0.124
-700.529	327.366	0.093	0.179
-699.514	157.188	0.018	0.026
-698.499	-200.000	0.032	-0.170
-697.485	-20.017	-0.343	0.212
-696.470	-200.000	-0.072	0.555
-695.456	-200.000	-0.060	0.317
-694.441	141.112	0.231	-0.305
-693.426	-20.856	0.315	-0.193
-692.412	39.929	0.232	0.208
-691.397	90.700	-0.157	0.176
-690.383	-200.000	0.187	0.001
-689.368	800.000	0.050	0.168
-688.354	-44.384	-0.349	0.175
-687.339	-200.000	0.008	0.178
-686.324	395.118	0.124	-0.258
-685.310	-2.795	0.101	-0.071
-684.295	-172.951	0.255	-0.008
-683.281	-69.050	-0.106	0.041
-682.266	-183.695	-0.145	0.002
-681.251	7.716	-0.345	0.259
-680.237	26.605	-0.101	-0.084
-679.222	-82.550	-0.165	0.054
-678.208	-144.201	-0.198	0.019
-677.193	195.313	0.083	0.126
-676.178	-171.839	-0.153	0.005
-675.164	800.000	-0.017	0.051
-674.149	13.745	-0.173	-0.134
-673.135	-55.579	-0.453	-0.203
-672.120	40.552	-0.312	0.281
-671.105	140.809	-0.135	-0.179
-670.091	-115.200	-0.210	0.040
-669.076	-3.594	0.235	-0.163
-668.062	84.939	-0.245	0.269
-667.047	-46.001	0.119	-0.059
-666.032	67.398	0.039	0.040
-665.018	272.336	-0.018	-0.032
-664.003	-200.000	0.154	-0.000
-662.989	-94.254	-0.054	0.015
-661.974	12.022	-0.150	0.116
-660.959	218.345	-0.168	0.268
-659.945	-55.644	-0.181	-0.081
-658.930	-200.000	0.016	0.195
-657.916	24.441	0.189	0.156
-656.901	-130.855	-0.140	0.019
-655.886	79.646	-0.129	-0.138
-654.872	81.115	0.305	0.329
-653.857	-49.730	-0.186	0.089
-652.843	-200.000	0.007	0.216
-651.828	-200.000	0.001	-0.012
-650.814	800.000	0.107	-0.323
-649.799	8.013	-0.185	-0.138
-648.784	469.403	0.068	-0.152
-647.770	481.107	-0.030	-0.069
-646.755	115.381	0.209	-0.256
-645.741	96.256	0.220	-0.252
-644.726	84.615	0.195	-0.214
-643.711	-109.820	-0.089	-0.019
-642.697	-102.564	0.146	-0.035
-641.682	161.882	-0.084	0.117
-640.668	516.967	-0.061	0.143
-639.653	-200.000	-0.043	-0.251
-638.638	148.374	-0.050	-0.067
-637.624	-31.021	0.118	0.066
-636.609	163.881	0.050	0.071
-635.595	800.000	0.042	-0.122
-634.580	-84.330	0.088	-0.028
-633.565	800.000	-0.003	0.009
-632.551	-123.288	0.554	0.088
-631.536	-40.759	-0.175	-0.090
-630.522	358.703	0.191	-0.380
-629.507	-172.238	-0.217	0.007
-628.492	800.000	-0.068	0.212
-627.478	-79.698	-0.140	-0.047
-626.463	-187.014	0.276	0.004
-625.449	71.895	0.117	0.122
-624.434	61.837	-0.249	-0.247
-623.419	166.163	-0.204	-0.288
-622.405	-187.113	-0.296	-0.004
-621.390	-68.314	0.185	0.072
-620.376	-200.000	0.028	0.138
-619.361	355.597	-0.141	0.281
-618.346	-200.000	-0.022	0.134
-617.332	-200.000	0.001	0.406
-616.317	-159.548	-0.087	-0.005
-615.303	232.944	-0.039	-0.064
-614.288	-42.071	-0.276	0.141
-613.273	-200.000	-0.051	-0.232
-612.259	800.000	0.075	-0.276
-611.244	176.608	0.075	0.108
-610.230	800.000	0.094	-0.299
-609.215	161.048	0.066	0.093
-608.201	-200.000	-0.054	0.326
-607.186	596.093	-0.078	-0.192
-606.171	39.100	0.149	0.133
-605.157	-200.000	-0.009	-0.041
-604.142	-33.282	-0.044	-0.025
-603.128	800.000	-0.013	0.049
-602.113	-112.717	-0.281	0.056
-601.098	-93.357	0.223	0.062
-600.084	96.759	-0.292	-0.334
-599.069	-29.514	-0.247	0.141
-598.055	-64.025	0.174	-0.071
-597.040	800.000	-0.099	0.313
-596.025	139.619	0.267	-0.351
-595.011	217.667	-0.169	0.269
-593.996	81.534	0.203	-0.219
-592.982	-200.000	0.014	-0.169
-591.967	54.964	-0.233	-0.224
-590.952	-128.131	0.185	-0.026
-589.938	800.000	0.119	0.359
-588.923	-200.000	-0.002	-0.068
-587.909	-17.286	-0.110	-0.069
-586.894	-200.000	-0.047	-0.365
-585.879	-200.000	0.072	0.358
-584.865	-65.798	0.132	-0.053
-583.850	-200.000	0.029	-0.446
-582.836	402.757	0.134	0.282
-581.821	-110.060	-0.274	-0.057
-580.806	4.876	-0.216	-0.159
-579.792	-200.000	-0.001	-0.101
-578.777	-57.190	0.026	-0.012
-577.763	-148.999	0.206	0.017
-576.748	197.458	0.092	0.140
-575.733	-200.000	-0.008	0.181
-574.719	-200.000	-0.042	0.217
-573.704	71.051	-0.151	0.156
-572.690	-200.000	-0.019	-0.333
-571.675	318.964	-0.088	-0.167
-570.661	-90.937	-0.177	0.051
-569.646	39.316	-0.197	0.176
-568.631	-17.279	0.150	0.094
-567.617	257.436	0.152	-0.261
-566.602	-46.787	-0.191	-0.093
-565.588	-200.000	0.008	-0.076
-564.573	126.743	-0.079	-0.100
-563.558	-200.000	0.014	-0.189
-562.544	-200.000	-0.086	-0.384
-561.529	-27.071	0.055	-0.032
-560.515	-184.556	-0.306	-0.005
-559.500	-131.128	-0.103	0.014
-558.485	-15.198	-0.161	0.102
-557.471	26.682	-0.010	0.009
-556.456	5.861	0.378	-0.279
-555.442	165.171	-0.151	-0.212
-554.427	-200.000	-0.022	0.331
-553.412	-52.119	-0.101	-0.047
-552.398	-62.528	0.184	0.076
-551.383	-173.087	-0.350	-0.011
-550.369	7.865	-0.108	0.080
-549.354	-35.245	-0.353	0.191
-548.339	213.567	-0.105	-0.165
-547.325	508.103	-0.133	0.306
-546.310	19.934	0.216	-0.173
-545.296	-30.800	-0.136	0.076
-544.281	800.000	-0.086	-0.247
-543.266	-55.289	0.157	-0.070
-542.252	800.000	0.071	-0.258
-541.237	-73.447	0.061	-0.022
-540.223	157.606	0.065	-0.089
-539.208	78.724	-0.058	0.062
-538.193	-200.000	-0.004	-0.163
-537.179	-96.311	-0.219	-0.058
-536.164	-164.084	0.184	-0.008
-535.150	580.529	-0.083	-0.201
-534.135	18.122	-0.170	0.135
-533.121	-85.095	0.269	-0.084
-532.106	-200.000	-0.059	0.000
-531.091	-169.623	-0.211	-0.008
-530.077	251.027	0.207	0.350
-529.062	-46.533	-0.173	0.084
-528.048	800.000	0.032	-0.114
-527.033	-200.000	-0.060	0.405
-526.018	292.427	0.159	0.288
-525.004	-200.000	0.008	0.090
-523.989	173.409	-0.207	0.296
-522.975	87.456	-0.203	-0.224
-521.960	234.297	0.206	-0.338
-520.945	-43.110	0.199	0.100
-519.931	551.854	-0.081	0.194
-518.916	-200.000	0.013	0.079
-517.902	-11.330	0.205	0.134
-516.887	55.031	-0.210	-0.202
-515.872	-157.159	-0.391	-0.024
-514.858	88.834	0.116	-0.128
-513.843	387.207	0.153	-0.315
-512.829	112.191	0.178	-0.214
-511.814	-66.468	-0.181	0.071
-510.799	-107.899	-0.393	-0.085
-509.785	-200.000	0.063	0.397
-508.770	-200.000	-0.031	-0.293
-507.756	-98.018	0.457	0.117
-506.741	-7.183	0.338	0.228
-505.726	-200.000	-0.063	0.322
-504.712	800.000	-0.086	0.357
-503.697	470.558	-0.077	-0.171
-502.683	681.080	0.029	0.076
-501.668	-200.000	-0.007	0.085
-500.653	148.248	0.148	0.198
-499.639	108.125	-0.086	-0.101
-498.624	-58.572	0.322	0.139
-497.610	-173.646	-0.226	-0.007
-496.595	548.870	-0.038	-0.092
-495.581	-61.842	0.279	0.116
-494.566	-200.000	-0.029	0.189
-493.551	78.836	-0.113	0.120
-492.537	128.521	-0.134	-0.170
-491.522	-200.000	0.022	-0.111
-490.508	800.000	0.076	0.277
-489.493	800.000	-0.021	-0.085
-488.478	-141.685	0.340	0.034
-487.464	424.518	-0.081	0.172
-486.449	-116.908	-0.424	-0.077
-485.435	-127.726	0.300	-0.043
-484.420	-85.510	0.259	0.080
-483.405	-41.566	-0.323	-0.165
-482.391	79.780	-0.183	-0.195
-481.376	-140.352	0.161	0.017
-480.362	-30.962	0.276	0.155
-479.347	783.297	-0.117	0.319
-478.332	800.000	-0.047	-0.128
-477.318	-138.210	-0.149	0.016
-476.303	-200.000	0.068	0.303
-475.289	-171.699	0.246	-0.008
-474.274	-200.000	-0.025	-0.379
-473.259	-200.000	0.063	-0.341
-472.245	378.183	0.143	-0.290
-471.230	-14.941	-0.152	-0.096
-470.216	-147.845	0.189	0.016
-469.201	797.863	0.046	-0.127
-468.186	258.644	0.012	0.021
-467.172	-22.439	-0.062	0.037
-466.157	179.974	0.157	0.229
-465.143	-200.000	0.057	-0.277
-464.128	-200.000	-0.031	0.138
-463.113	-76.760	0.238	0.083
-462.099	-200.000	0.007	-0.184
-461.084	-33.093	0.073	0.040
-460.070	78.708	-0.083	-0.088
-459.055	-135.730	-0.258	-0.030
-458.040	56.279	-0.167	0.161
-457.026	6.738	0.216	-0.160
-456.011	414.568	-0.062	-0.130
-454.997	167.622	-0.185	-0.261
-453.982	22.895	0.265	-0.216
-452.968	800.000	-0.080	-0.336
-451.953	-80.428	0.098	-0.033
-450.938	110.444	-0.129	0.154
-449.924	18.618	-0.038	-0.030
-448.909	23.812	0.217	0.177
-447.895	95.003	0.070	0.079
-446.880	-84.270	-0.224	0.070
-445.865	-47.772	0.206	-0.099
-444.851	-113.635	-0.290	-0.056
-443.836	-32.700	-0.163	-0.090
-442.822	-200.000	0.015	0.214
-441.807	2.631	-0.063	-0.045
-440.792	14.316	-0.203	-0.157
-439.778	-88.101	0.372	-0.111
-438.763	800.000	-0.061	0.220
-437.749	-97.291	-0.237	-0.061
-436.734	-32.466	0.113	-0.062
-435.719	-200.000	0.065	0.286
-434.705	-200.000	-0.021	0.232
-433.690	184.102	-0.035	0.052
-432.676	25.992	-0.162	-0.134
-431.661	-93.357	-0.174	0.048
-430.646	-200.000	0.019	-0.258
-429.632	800.000	-0.113	-0.366
-428.617	71.539	0.240	-0.247
-427.603	800.000	0.059	0.193
-426.588	-46.174	-0.116	0.056
-425.573	800.000	0.050	0.180
-424.559	-200.000	-0.024	0.183
-423.544	149.074	-0.170	0.228
-422.530	19.879	0.346	-0.276
-421.515	66.310	0.136	-0.137
-420.500	155.951	0.188	-0.257
-419.486	404.807	0.148	-0.308
-418.471	336.986	0.161	-0.311
-417.457	180.090	-0.114	-0.165
-416.442	-200.000	0.003	-0.181
-415.428	-41.020	-0.114	0.058
-414.413	-10.246	0.190	0.125
-413.398	606.581	-0.094	-0.233
-412.384	-92.916	0.277	0.077
-411.369	147.286	-0.150	0.200
-410.355	-123.569	0.268	0.042
-409.340	277.324	-0.145	0.255
-408.325	-197.472	-0.223	-0.001
-407.311	800.000	-0.016	0.048
-406.296	673.373	0.005	-0.014
-405.282	150.953	-0.091	0.122
-404.267	800.000	-0.066	0.180
-403.252	-146.175	0.488	-0.042
-402.238	-200.000	-0.106	0.779
-401.223	800.000	0.118	-0.338
-400.209	-189.698	-0.075	0.001
-399.194	-9.816	0.179	0.118
-398.179	188.121	0.072	-0.106
-397.165	354.378	-0.102	0.201
-396.150	800.000	0.037	0.130
-395.136	-200.000	-0.046	-0.319
-394.121	-2.831	0.033	0.023
-393.106	-198.632	-0.223	-0.001
-392.092	-183.667	0.322	0.005
-391.077	275.083	-0.134	-0.235
-390.063	220.811	0.027	-0.042
-389.048	63.918	0.164	0.163
-388.033	111.104	0.152	0.181
-387.019	800.000	0.072	-0.293
-386.004	374.436	-0.060	-0.122
-384.990	800.000	-0.082	0.262
-383.975	-200.000	0.021	0.159
-382.960	201.229	-0.191	0.291
-381.946	233.539	0.071	0.116
-380.931	78.764	0.036	0.038
-379.917	35.420	-0.183	0.159
-378.902	-87.124	0.028	0.009
-377.888	-200.000	-0.058	-0.384
-376.873	97.148	0.075	0.085
-375.858	-32.763	-0.037	0.020
-374.844	-200.000	0.011	0.108
-373.829	36.813	0.376	0.329
-372.815	-104.772	0.199	0.045
-371.800	-2.723	-0.173	0.120
-370.785	-47.107	-0.439	0.212
-369.771	800.000	0.163	0.464
-368.756	44.205	-0.185	-0.168
-367.742	800.000	0.051	0.199
-366.727	103.540	-0.077	-0.089
-365.712	-117.759	-0.114	-0.020
-364.698	-200.000	0.033	-0.212
-363.683	128.213	0.215	0.271
-362.669	-152.622	-0.268	0.019
-361.654	800.000	0.025	-0.073
-360.639	113.684	0.234	-0.281
-359.625	108.378	-0.134	0.158
-358.610	168.308	0.051	-0.072
-357.596	-111.548	0.049	0.010
-356.581	-0.126	-0.146	-0.103
-355.566	-39.730	0.287	-0.148
-354.552	786.272	-0.081	-0.220
-353.537	-95.476	-0.241	0.064
-352.523	-112.164	-0.176	0.035
-351.508	-131.724	0.258	-0.033
-350.493	-80.274	0.045	0.015
-349.479	-118.021	-0.356	-0.063
-348.464	-200.000	-0.027	0.244
-347.450	800.000	-0.054	-0.198
-346.435	-144.383	-0.189	0.017
-345.420	42.069	-0.201	0.180
-344.406	-68.630	0.096	0.037
-343.391	800.000	0.041	-0.147
-342.377	674.165	-0.060	0.153
-341.362	354.240	0.038	0.075
-340.348	-200.000	0.031	0.235
-339.333	52.682	0.223	-0.211
-338.318	166.535	-0.137	0.192
-337.304	745.453	0.041	0.109
-336.289	-55.554	-0.200	-0.088
-335.275	91.007	-0.188	0.208
-334.260	-200.000	0.044	0.226
-333.245	-120.430	-0.351	0.059
-332.231	800.000	-0.032	0.129
-331.216	-200.000	-0.060	-0.299
-330.202	66.636	-0.258	-0.259
-329.187	-200.000	0.002	0.283
-328.172	-200.000	-0.006	0.062
-327.158	181.618	-0.049	-0.071
-326.143	25.174	-0.154	-0.127
-325.129	34.002	0.166	-0.143
-324.114	66.220	0.149	0.150
-323.099	-74.321	0.077	0.027
-322.085	-75.323	0.195	-0.069
-321.070	61.313	-0.087	-0.086
-320.056	-68.931	-0.269	0.102
-319.041	-200.000	-0.021	-0.283
-318.026	-200.000	0.026	-0.445
-317.012	-75.293	0.147	-0.052
-315.997	4.237	-0.199	0.144
-314.983	231.852	0.098	-0.159
-313.968	-200.000	0.042	-0.382
-312.953	159.393	0.066	0.090
-311.939	-8.530	0.225	0.149
-310.924	240.892	0.103	0.170
-309.910	406.299	0.082	0.171
-308.895	323.326	-0.028	0.053
-307.880	-46.107	-0.196	-0.095
-306.866	-200.000	0.038	0.212
-305.851	-130.608	-0.412	0.055
-304.837	-200.000	-0.015	-0.217
-303.822	159.648	-0.092	-0.127
-302.807	800.000	0.113	0.346
-301.793	65.333	0.328	0.327
-300.778	800.000	0.042	0.144
-299.764	14.319	-0.176	-0.136
-298.749	800.000	0.025	-0.091
-297.735	-73.430	0.284	-0.102
-296.720	85.636	-0.134	0.145
-295.705	646.175	0.082	-0.206
-294.691	-142.756	-0.312	0.030
-293.676	-35.773	-0.149	-0.080
-292.662	87.371	-0.408	-0.445
-291.647	-200.000	0.001	-0.022
-290.632	800.000	-0.018	0.064
-289.618	-0.081	0.157	0.110
-288.603	57.980	-0.175	-0.169
-287.589	620.712	-0.141	-0.349
-286.574	19.720	-0.020	-0.016
-285.559	338.306	0.133	-0.256
-284.545	-200.000	-0.001	-0.232
-283.530	339.001	-0.112	0.215
-282.516	-99.579	-0.218	-0.054
-281.501	-120.976	0.196	0.032
-280.486	58.082	-0.125	-0.120
-279.472	-71.155	-0.165	-0.061
-278.457	-102.546	0.399	0.094
-277.443	140.239	0.090	-0.117
-276.428	-62.052	0.252	0.104
-275.413	78.589	0.050	-0.052
-274.399	-25.091	-0.213	0.124
-273.384	-173.479	-0.167	-0.005
-272.370	-200.000	-0.079	-0.000
-271.355	-94.824	0.131	0.035
-270.340	114.327	0.086	0.103
-269.326	72.031	-0.102	-0.104
-268.311	-29.716	-0.033	-0.019
-267.297	-200.000	-0.000	0.045
-266.282	-200.000	-0.004	0.185
-265.267	-200.000	0.027	0.369
-264.253	-200.000	-0.028	0.167
-263.238	-200.000	0.026	0.344
-262.224	10.323	-0.141	-0.106
-261.209	-200.000	-0.018	0.156
-260.195	-200.000	0.035	-0.373
-259.180	186.759	-0.159	-0.233
-258.165	-106.376	0.049	-0.011
-257.151	204.056	-0.162	-0.247
-256.136	104.483	-0.116	0.134
-255.122	-145.877	-0.096	0.008
-254.107	-89.485	-0.186	-0.054
-253.092	-9.863	0.077	-0.050
-252.078	-54.990	0.025	0.011
-251.063	166.584	0.025	0.035
-250.049	653.769	0.092	0.232
-249.034	-38.893	0.246	-0.128
-248.019	-66.217	-0.085	-0.033
-247.005	405.182	0.079	0.163
-245.990	259.077	-0.038	-0.065
-244.976	-200.000	0.014	0.273
-243.961	-200.000	-0.069	0.304
-242.946	-118.808	0.241	0.042
-241.932	-126.668	-0.153	-0.022
-240.917	-93.076	0.247	-0.068
-239.903	-29.948	0.191	-0.107
-238.888	-200.000	0.040	0.322
-237.873	-98.923	0.481	0.120
-236.859	-53.405	-0.236	-0.106
-235.844	-200.000	-0.026	-0.277
-234.830	-98.925	-0.247	-0.062
-233.815	-200.000	0.013	-0.539
-232.800	-28.101	0.203	0.115
-231.786	-147.688	0.159	-0.013
-230.771	-200.000	0.056	0.305
-229.757	538.621	-0.111	-0.260
-228.742	38.905	0.224	-0.196
-227.727	5.930	0.275	0.200
-226.713	34.349	-0.303	0.260
-225.698	-74.846	-0.128	-0.045
-224.684	223.224	0.055	0.088
-223.669	800.000	-0.134	-0.526
-222.655	59.222	0.218	-0.211
-221.640	14.127	-0.169	-0.130
-220.625	296.940	-0.157	0.283
-219.611	29.620	-0.069	0.058
-218.596	800.000	-0.105	0.383
-217.582	46.445	-0.152	0.139
-216.567	-200.000	-0.007	-0.102
-215.552	-75.295	-0.159	0.056
-214.538	271.720	0.019	-0.033
-213.523	151.103	-0.242	0.323
-212.509	665.034	0.107	0.272
-211.494	332.698	-0.058	-0.111
-210.479	-83.139	0.214	-0.068
-209.465	493.583	-0.040	-0.091
-208.450	-200.000	-0.008	0.059
-207.436	-145.804	0.072	-0.006
-206.421	-18.731	-0.025	0.015
-205.406	105.747	0.058	0.068
-204.392	11.509	0.167	-0.126
-203.377	43.144	0.360	0.323
-202.363	-50.707	-0.114	-0.053
-201.348	-88.540	0.265	0.078
-200.333	665.805	0.057	0.144
-199.319	-18.776	0.307	-0.188
-198.304	800.000	0.034	0.112
-197.290	-1.289	-0.239	-0.166
-196.275	-66.096	0.382	-0.150
-195.260	21.923	0.284	0.227
-194.246	-101.610	-0.230	0.055
-193.231	-181.904	0.061	0.001
-192.217	-66.132	0.187	0.073
-191.202	-200.000	0.034	-0.381
-190.187	-24.342	0.033	-0.019
-189.173	149.009	-0.185	-0.245
-188.158	-52.282	0.285	0.129
-187.144	9.682	0.099	-0.074
-186.129	-51.227	0.334	0.153
-185.114	765.063	0.083	0.222
-184.100	-200.000	0.011	-0.161
-183.085	-123.643	0.237	-0.037
-182.071	31.013	-0.134	0.113
-181.056	45.013	0.137	0.124
-180.042	84.170	0.127	0.136
-179.027	83.657	0.107	0.114
-178.012	40.597	-0.145	-0.128
-176.998	-200.000	0.009	-0.077
-175.983	760.420	-0.092	-0.246
-174.969	800.000	-0.068	0.267
-173.954	-200.000	-0.036	-0.176
-172.939	-30.678	-0.174	0.097
-171.925	-63.997	0.074	0.030
-170.910	320.881	-0.052	0.097
-169.896	93.160	0.219	0.243
-168.881	779.421	0.047	0.125
-167.866	201.311	0.144	-0.218
-166.852	41.004	0.187	0.166
-165.837	471.795	-0.129	0.284
-164.823	-32.063	-0.139	-0.076
-163.808	-200.000	0.095	0.494
-162.793	-15.202	-0.162	-0.101
-161.779	-27.706	-0.128	0.073
-160.764	270.592	0.027	0.046
-159.750	-128.185	-0.222	0.031
-158.735	-117.729	0.135	0.024
-157.720	188.065	0.079	0.116
-156.706	135.803	-0.146	-0.186
-155.691	-122.634	0.198	0.031
-154.677	800.000	-0.025	0.085
-153.662	800.000	0.103	-0.327
-152.647	-147.122	-0.158	-0.013
-151.633	216.729	0.019	0.030
-150.618	-180.843	0.185	0.004
-149.604	168.671	0.144	0.201
-148.589	800.000	-0.038	-0.131
-147.574	-68.842	-0.210	-0.079
-146.560	-34.345	0.202	-0.108
-145.545	-78.751	-0.214	0.071
-144.531	221.218	-0.050	-0.078
-143.516	21.622	-0.231	-0.185
-142.502	-200.000	-0.068	0.423
-141.487	474.190	0.018	0.040
-140.472	-200.000	0.014	0.299
-139.458	111.541	-0.096	0.113
-138.443	-74.953	0.220	0.077
-137.429	47.766	-0.213	-0.195
-136.414	-200.000	-0.042	0.382
-135.399	80.583	0.211	0.223
-134.385	74.221	-0.083	0.086
-133.370	96.197	-0.374	0.419
-132.356	50.670	0.257	0.239
-131.341	-158.967	0.410	0.023
-130.326	-46.489	-0.135	-0.065
-129.312	-191.030	-0.111	0.001
-128.297	-61.455	-0.241	-0.099
-127.283	800.000	-0.083	0.313
-126.268	800.000	0.050	-0.201
-125.253	-200.000	-0.026	-0.145
-124.239	-90.533	0.104	0.029
-123.224	-200.000	-0.024	0.205
-122.210	-118.406	0.120	0.021
-121.195	-57.387	-0.139	-0.060
-120.180	-200.000	0.031	0.259
-119.166	800.000	-0.102	0.385
-118.151	800.000	-0.090	-0.352
-117.137	78.348	0.199	-0.208
-116.122	258.597	0.086	-0.146
-115.107	800.000	-0.130	-0.486
-114.093	-200.000	-0.045	0.220
-113.078	-200.000	-0.003	0.184
-112.064	366.276	0.190	0.375
-111.049	-31.199	-0.256	0.141
-110.034	-82.427	-0.327	-0.104
-109.020	-83.657	-0.103	0.032
-108.005	39.215	-0.136	-0.119
-106.991	158.996	-0.172	0.235
-105.976	800.000	0.020	0.064
-104.962	-72.656	0.150	0.054
-103.947	-76.708	0.145	0.050
-102.932	579.758	-0.024	-0.058
-101.918	212.698	-0.040	0.062
-100.903	172.042	0.271	0.382
-99.889	800.000	0.080	0.258
-98.874	29.435	-0.168	0.140
-97.859	-162.051	0.197	-0.010
-96.845	41.378	0.155	0.137
-95.830	-100.010	-0.121	0.029
-94.816	156.972	0.163	-0.221
-93.801	268.828	-0.084	0.144
-92.786	225.722	-0.133	0.211
-91.772	-200.000	-0.003	-0.040
-90.757	-56.278	0.391	0.170
-89.743	800.000	-0.108	0.321
-88.728	-200.000	-0.016	0.213
-87.713	606.730	0.043	0.104
-86.699	528.205	0.125	-0.289
-85.684	190.961	0.062	0.091
-84.670	-200.000	0.065	-0.337
-83.655	-80.674	0.244	0.079
-82.640	-150.839	-0.101	-0.007
-81.626	-200.000	0.001	0.410
-80.611	800.000	0.029	0.110
-79.597	-200.000	-0.033	-0.174
-78.582	-160.290	0.386	-0.020
-77.567	44.133	-0.120	0.108
-76.553	-188.162	0.159	-0.002
-75.538	-170.256	0.438	0.015
-74.524	25.962	-0.190	0.155
-73.509	-63.612	0.063	0.025
-72.494	112.662	-0.247	0.293
-71.480	129.256	-0.096	0.120
-70.465	534.721	0.127	0.295
-69.451	-12.709	-0.107	0.068
-68.436	-94.537	-0.249	-0.066
-67.422	13.768	-0.175	-0.133
-66.407	-77.867	-0.273	0.092
-65.392	-200.000	0.005	-0.023
-64.378	-79.406	-0.284	0.094
-63.363	-10.043	-0.091	0.059
-62.349	357.543	0.117	0.229
-61.334	4.981	-1.212	-0.871
-60.319	191.044	0.498	0.732
-59.305	377.665	-0.540	-1.078
-58.290	205.257	0.739	1.121
-57.276	800.000	0.577	1.632
-56.261	-200.000	118.661	631.518
-55.246	410.669	1559.418	3229.403
-54.232	139.854	2744.609	3531.615
-53.217	90.638	2317.970	2535.069
-52.203	33.947	1919.014	1631.496
-51.188	28.191	1710.817	1410.229
-50.173	25.958	1669.237	1359.089
-49.159	46.353	1729.805	1565.674
-48.144	44.690	1743.024	1564.812
-47.130	27.840	1698.791	1397.408
-46.115	25.248	1684.056	1365.535
-45.100	25.144	1678.714	1360.360
-44.086	25.096	1676.350	1358.024
-43.071	25.085	1673.675	1355.724
-42.057	25.062	1671.331	1353.595
-41.042	25.023	1669.322	1351.623
-40.027	25.020	1667.495	1350.066
-39.013	25.061	1665.018	1348.317
-37.998	24.984	1664.711	1347.437
-36.984	25.054	1662.633	1346.228
-35.969	25.175	1661.412	1346.092
-34.954	25.173	1659.721	1344.655
-33.940	25.182	1657.730	1343.051
-32.925	25.246	1656.056	1342.126
-31.911	25.143	1654.563	1340.091
-30.896	25.218	1652.558	1338.972
-29.881	25.144	1651.535	1337.542
-28.867	25.156	1649.736	1336.119
-27.852	25.116	1648.770	1334.984
-26.838	25.164	1647.115	1333.947
-25.823	25.265	1645.089	1333.003
-24.809	25.195	1644.369	1331.847
-23.794	25.115	1643.432	1330.441
-22.779	25.311	1641.139	1329.985
-21.765	25.207	1639.577	1327.900
-20.750	25.211	1637.803	1326.440
-19.736	25.309	1637.005	1326.465
-18.721	25.204	1635.502	1324.422
-17.706	25.250	1633.527	1323.109
-16.692	25.165	1631.996	1321.191
-15.677	25.264	1630.846	1320.931
-14.663	25.243	1629.831	1319.907
-13.648	25.186	1628.485	1318.338
-12.633	25.239	1626.660	1317.202
-11.619	25.244	1625.216	1316.018
-10.604	25.239	1623.790	1314.774
-9.590	25.223	1622.660	1313.687
-8.575	25.234	1620.940	1312.327
-7.560	25.266	1619.422	1311.281
-6.546	25.234	1618.277	1310.067
-5.531	25.180	1617.418	1308.926
-4.517	25.215	1616.265	1308.195
-3.502	25.146	1615.379	1306.920
-2.487	25.330	1613.153	1306.405
-1.473	25.131	1602.474	1296.270
-0.458	22.829	1584.056	1264.845
0.556	18.259	1586.473	1238.329
1.571	16.224	1610.723	1242.186
2.586	15.710	1623.460	1248.083
3.600	14.417	1568.455	1196.412
4.615	7.898	1458.464	1068.764
5.629	1.599	1396.733	982.837
6.644	0.305	1389.611	969.422
7.659	0.232	1388.499	968.089
8.673	0.158	1387.481	966.815
9.688	0.225	1385.393	965.705
10.702	0.061	1381.627	961.946
11.717	3.039	1386.434	984.295
12.731	10.388	1397.777	1039.562
13.746	15.614	1405.007	1078.468
14.761	16.780	1405.575	1086.295
15.775	16.190	1403.631	1080.913
16.790	15.204	1401.293	1072.708
17.804	14.390	1398.973	1065.636
18.819	14.216	1397.012	1062.938
19.834	13.919	1395.957	1060.146
20.848	13.557	1395.120	1057.105
21.863	13.263	1393.700	1054.063
22.877	13.251	1392.096	1052.676
23.892	13.067	1391.543	1050.998
24.907	13.063	1390.889	1050.380
25.921	13.076	1390.155	1049.816
26.936	13.168	1388.685	1049.197
27.950	13.220	1387.915	1048.854
28.965	13.212	1386.999	1048.017
29.980	13.262	1385.960	1047.457
30.994	13.299	1385.096	1046.947
32.009	13.269	1384.137	1045.942
33.023	13.433	1382.590	1045.714
34.038	13.415	1381.515	1044.692
35.053	13.261	1380.511	1042.873
36.067	13.318	1379.145	1042.106
37.082	13.283	1378.532	1041.330
38.096	13.279	1377.683	1040.572
39.111	13.309	1376.837	1040.027
40.126	13.187	1375.881	1038.447
41.140	13.151	1374.933	1037.417
42.155	13.064	1374.914	1036.766
43.169	13.224	1374.199	1037.135
44.184	13.123	1373.941	1036.214
45.199	13.153	1373.707	1036.138
46.213	13.227	1372.982	1035.964
47.228	13.290	1371.789	1035.365
48.242	13.278	1370.313	1034.083
49.257	13.144	1369.342	1032.424
50.271	13.252	1367.734	1031.793
51.286	13.218	1366.345	1030.443
52.301	13.248	1364.919	1029.461
53.315	13.108	1364.344	1028.065
54.330	13.068	1363.468	1027.063
55.344	13.100	1362.140	1026.173
56.359	13.132	1361.375	1025.707
57.374	13.255	1360.031	1025.364
58.388	13.213	1358.945	1024.193
59.403	13.133	1358.739	1023.450
60.417	13.123	1357.868	1022.644
61.432	13.035	1357.021	1021.374
62.447	13.020	1356.223	1020.588
63.461	12.978	1355.024	1019.337
64.476	13.039	1353.923	1018.796
65.490	13.073	1352.682	1017.979
66.505	12.926	1351.148	1015.828
67.520	13.080	1349.824	1015.694
68.534	13.066	1348.699	1014.667
69.549	13.071	1347.796	1013.933
70.563	13.093	1346.950	1013.338
71.578	13.091	1345.426	1012.089
72.593	12.944	1345.090	1010.848
73.607	13.040	1343.584	1010.212
74.622	12.994	1343.272	1009.610
75.636	13.034	1342.255	1008.999
76.651	13.020	1341.462	1008.227
77.666	12.928	1341.222	1007.397
78.680	13.043	1340.519	1007.482
79.695	13.083	1339.611	1006.953
80.709	12.988	1339.072	1005.879
81.724	13.092	1337.971	1005.599
82.739	13.077	1336.893	1004.608
83.753	13.156	1336.327	1004.576
84.768	13.218	1334.885	1003.776
85.782	13.269	1333.372	1002.862
86.797	13.277	1332.470	1002.143
87.812	13.111	1331.538	1000.345
88.826	13.196	1330.375	999.897
89.841	13.152	1329.332	998.759
90.855	13.159	1328.666	998.216
91.870	13.218	1327.601	997.679
92.884	13.203	1326.606	996.759
93.899	13.307	1325.417	996.399
94.914	13.359	1324.820	996.179
95.928	13.265	1324.426	995.225
96.943	13.322	1323.103	994.488
97.957	13.235	1322.300	993.272
98.972	13.233	1320.961	992.170
99.987	13.324	1319.741	991.706
101.001	13.207	1319.402	990.667
102.016	13.303	1318.135	990.200
103.030	13.314	1316.953	989.293
104.045	13.334	1316.233	988.782
105.060	13.279	1315.173	987.571
106.074	13.165	1313.595	985.620
107.089	13.115	1312.265	984.236
108.103	13.142	1311.174	983.489
109.118	13.187	1309.634	982.514
110.133	13.145	1308.086	981.020
111.147	13.031	1307.327	979.685
112.162	13.157	1305.625	979.070
113.176	13.098	1305.169	978.289
114.191	13.148	1304.011	977.635
115.206	13.185	1303.130	977.108
116.220	13.232	1300.958	975.667
117.235	13.268	1299.648	974.811
118.249	13.182	1298.711	973.518
119.264	13.212	1297.566	972.749
120.279	13.230	1296.184	971.732
121.293	13.134	1295.770	970.773
122.308	13.102	1294.775	969.750
123.322	13.135	1293.781	969.113
124.337	13.190	1292.517	968.403
125.352	13.185	1291.329	967.400
126.366	13.065	1290.672	966.118
127.381	13.113	1289.532	965.461
128.395	13.223	1288.069	964.925
129.410	13.141	1287.829	964.177
130.424	13.105	1286.448	962.848
131.439	13.260	1285.280	962.795
132.454	13.207	1284.540	961.843
133.468	13.214	1283.375	960.930
134.483	13.191	1282.593	960.124
135.497	13.196	1281.779	959.458
136.512	13.166	1280.689	958.383
137.527	13.176	1279.110	957.175
138.541	13.313	1277.067	956.355
139.556	13.269	1276.285	955.428
140.570	13.209	1275.727	954.578
141.585	13.335	1274.144	954.042
142.600	13.397	1272.727	953.253
143.614	13.262	1272.124	951.939
144.629	13.346	1271.111	951.576
145.643	13.428	1269.562	950.808
146.658	13.300	1268.582	949.255
147.673	13.239	1267.327	947.882
148.687	13.363	1266.178	947.646
149.702	13.254	1264.923	946.000
150.716	13.341	1263.348	945.236
151.731	13.239	1262.369	943.835
152.746	13.354	1260.609	943.091
153.760	13.376	1259.340	942.186
154.775	13.326	1258.758	941.384
155.789	13.394	1257.469	940.722
156.804	13.392	1256.461	939.871
157.819	13.435	1255.440	939.270
158.833	13.395	1254.502	938.260
159.848	13.458	1253.519	937.800
160.862	13.526	1252.116	937.048
161.877	13.503	1251.179	936.134
162.892	13.432	1250.076	934.826
163.906	13.482	1249.171	934.349
164.921	13.432	1248.106	933.188
165.935	13.488	1247.332	932.844
166.950	13.526	1246.750	932.541
167.964	13.528	1245.968	931.882
168.979	13.471	1245.104	930.836
169.994	13.504	1244.419	930.424
171.008	13.527	1243.379	929.692
172.023	13.574	1242.281	929.054
173.037	13.532	1241.818	928.391
174.052	13.546	1240.984	927.763
175.067	13.494	1239.923	926.599
176.081	13.527	1239.212	926.166
177.096	13.535	1238.345	925.480
178.110	13.511	1236.582	923.950
179.125	13.574	1235.597	923.483
180.140	13.560	1234.341	922.383
181.154	13.624	1232.739	921.461
182.169	13.645	1231.781	920.780
183.183	13.665	1231.042	920.259
184.198	13.762	1229.639	919.664
185.213	13.796	1228.491	918.915
186.227	13.735	1227.536	917.783
187.242	13.746	1226.308	916.845
188.256	13.723	1225.609	916.111
189.271	13.892	1224.211	915.915
190.286	13.830	1223.148	914.702
191.300	13.609	1223.078	913.348
192.315	13.615	1221.921	912.435
193.329	13.659	1221.634	912.385
194.344	13.761	1220.442	911.975
195.359	13.708	1219.989	911.262
196.373	13.740	1219.703	911.143
197.388	13.840	1219.091	911.156
198.402	13.876	1218.605	910.909
199.417	13.947	1217.746	910.575
200.432	14.023	1216.716	910.143
201.446	14.002	1216.297	909.631
202.461	14.101	1215.033	909.146
203.475	13.981	1214.281	907.847
204.490	14.056	1212.917	907.158
205.504	14.098	1211.396	906.169
206.519	14.006	1210.248	904.731
207.534	14.014	1209.512	904.143
208.548	14.030	1208.164	903.143
209.563	14.007	1207.493	902.435
210.577	14.038	1206.607	901.862
211.592	14.045	1205.806	901.222
212.607	14.121	1205.110	901.035
213.621	14.144	1204.180	900.383
214.636	14.131	1203.096	899.425
215.650	14.087	1202.366	898.559
216.665	14.124	1201.379	897.942
217.680	14.287	1200.280	897.922
218.694	14.235	1199.516	896.991
219.709	14.229	1198.650	896.230
220.723	14.241	1198.121	895.820
221.738	14.246	1197.547	895.338
222.753	14.189	1196.939	894.499
223.767	14.242	1195.685	893.763
224.782	14.425	1194.633	893.884
225.796	14.293	1194.504	892.997
226.811	14.294	1193.570	892.228
227.826	14.399	1193.021	892.299
228.840	14.328	1192.268	891.278
229.855	14.248	1191.627	890.290
230.869	14.338	1190.514	889.862
231.884	14.264	1190.017	889.019
232.899	14.365	1188.922	888.657
233.913	14.298	1188.297	887.756
234.928	14.253	1187.946	887.176
235.942	14.362	1186.620	886.685
236.957	14.332	1186.068	886.034
237.972	14.395	1185.348	885.754
238.986	14.376	1184.713	885.103
240.001	14.277	1184.239	884.145
241.015	14.390	1182.552	883.405
242.030	14.498	1182.054	883.529
243.045	14.459	1181.335	882.704
244.059	14.530	1180.740	882.559
245.074	14.488	1179.913	881.638
246.088	14.598	1178.460	881.055
247.103	14.560	1177.935	880.383
248.117	14.580	1177.213	879.875
249.132	14.652	1176.297	879.491
250.147	14.716	1175.560	879.196
251.161	14.606	1174.946	878.080
252.176	14.685	1174.456	878.053
253.190	14.725	1173.893	877.767
254.205	14.733	1173.573	877.488
255.220	14.754	1172.795	876.940
256.234	14.776	1172.035	876.410
257.249	14.792	1171.078	875.700
258.263	14.929	1170.316	875.772
259.278	14.852	1170.090	875.123
260.293	14.869	1169.455	874.658
261.307	15.029	1168.482	874.689
262.322	15.011	1167.815	874.020
263.336	14.978	1167.003	873.164
264.351	14.916	1166.765	872.581
265.366	14.893	1166.207	871.970
266.380	15.053	1165.310	872.055
267.395	14.953	1164.440	870.804
268.409	14.951	1163.747	870.200
269.424	14.929	1163.406	869.754
270.439	14.966	1162.150	868.930
271.453	15.025	1161.777	868.882
272.468	14.950	1161.137	867.936
273.482	14.990	1160.227	867.384
274.497	15.022	1159.631	867.028
275.512	15.066	1158.330	866.206
276.526	14.959	1158.186	865.469
277.541	15.064	1157.263	865.244
278.555	15.091	1156.388	864.655
279.570	15.131	1156.135	864.597
280.585	15.169	1155.286	864.082
281.599	15.257	1154.029	863.517
282.614	15.179	1153.635	862.742
283.628	15.060	1152.489	861.197
284.643	15.251	1150.825	860.861
285.657	15.195	1150.122	859.973
286.672	15.193	1149.492	859.413
287.687	15.203	1148.835	858.897
288.701	15.219	1148.222	858.444
289.716	15.183	1147.523	857.661
290.730	15.365	1146.308	857.607
291.745	15.334	1145.551	856.807
292.760	15.388	1145.051	856.632
293.774	15.328	1144.708	855.994
294.789	15.443	1143.788	855.816
295.803	15.421	1143.095	855.115
296.818	15.390	1142.357	854.324
297.833	15.415	1141.273	853.565
298.847	15.440	1140.621	853.131
299.862	15.453	1139.830	852.529
300.876	15.471	1139.466	852.275
301.891	15.405	1138.924	851.457
302.906	15.523	1137.908	851.220
303.920	15.638	1137.149	851.163
304.935	15.708	1136.305	850.810
305.949	15.616	1135.707	849.818
306.964	15.589	1134.997	849.076
307.979	15.661	1134.195	848.766
308.993	15.592	1133.591	847.891
310.008	15.569	1132.879	847.166
311.022	15.700	1132.144	847.199
312.037	15.655	1131.438	846.373
313.052	15.648	1130.418	845.501
314.066	15.588	1129.368	844.337
315.081	15.668	1128.572	844.068
316.095	15.662	1127.827	843.409
317.110	15.617	1126.855	842.381
318.125	15.709	1126.317	842.365
319.139	15.701	1125.341	841.518
320.154	15.706	1124.802	841.066
321.168	15.695	1124.399	840.636
322.183	15.628	1123.879	839.840
323.197	15.601	1123.295	839.193
324.212	15.742	1122.369	839.127
325.227	15.660	1122.456	838.711
326.241	15.706	1121.454	838.118
327.256	15.773	1120.420	837.607
328.270	15.790	1119.593	836.994
329.285	15.732	1118.525	835.837
330.300	15.751	1117.798	835.314
331.314	15.834	1116.814	834.919
332.329	15.897	1115.561	834.220
333.343	15.839	1114.766	833.264
334.358	15.883	1114.200	832.985
335.373	15.869	1113.229	832.112
336.387	15.846	1113.026	831.776
337.402	15.968	1111.930	831.484
338.416	16.032	1111.083	831.092
339.431	15.973	1110.525	830.310
340.446	16.046	1109.998	830.203
341.460	16.036	1109.222	829.501
342.475	16.130	1108.158	829.092
343.489	16.087	1107.425	828.261
344.504	16.059	1106.460	827.331
345.519	16.156	1105.360	826.908
346.533	16.254	1104.269	826.498
347.548	16.185	1104.222	826.055
348.562	16.181	1103.339	825.299
349.577	16.168	1102.678	824.670
350.592	16.189	1102.354	824.457
351.606	16.190	1101.401	823.675
352.621	16.186	1100.743	823.092
353.635	16.157	1100.144	822.428
354.650	16.151	1099.083	821.534
355.665	16.212	1098.014	820.960
356.679	16.296	1097.667	821.037
357.694	16.337	1096.926	820.609
358.708	16.327	1096.426	820.113
359.723	16.357	1095.878	819.773
360.738	16.277	1095.285	818.869
361.752	16.220	1094.834	818.187
362.767	16.392	1094.293	818.540
363.781	16.318	1093.585	817.584
364.796	16.410	1092.836	817.392
365.810	16.524	1092.183	817.385
366.825	16.359	1091.610	816.086
367.840	16.555	1091.323	816.747
368.854	16.426	1090.885	815.722
369.869	16.584	1089.845	815.635
370.883	16.558	1088.704	814.584
371.898	16.497	1087.940	813.648
372.913	16.534	1087.440	813.378
373.927	16.555	1087.072	813.134
374.942	16.661	1086.384	813.054
375.956	16.522	1086.327	812.274
376.971	16.634	1085.366	812.022
377.986	16.667	1084.560	811.504
379.000	16.621	1084.332	811.039
380.015	16.659	1083.873	810.810
381.029	16.875	1082.716	810.902
382.044	16.818	1082.108	810.102
383.059	16.655	1081.744	808.981
384.073	16.871	1080.454	808.975
385.088	16.888	1079.740	808.450
386.102	16.926	1078.846	807.888
387.117	16.714	1078.226	806.347
388.132	16.675	1077.381	805.454
389.146	16.796	1076.115	805.012
390.161	16.835	1075.602	804.743
391.175	16.828	1074.789	804.029
392.190	16.783	1074.003	803.159
393.205	16.851	1073.524	803.052
394.219	16.839	1073.146	802.642
395.234	16.801	1072.081	801.595
396.248	16.921	1070.794	801.127
397.263	16.889	1069.898	800.236
398.278	16.697	1069.292	798.805
399.292	16.843	1068.337	798.708
400.307	16.912	1067.367	798.238
401.321	16.877	1066.977	797.710
402.336	16.821	1066.402	796.949
403.350	16.911	1065.970	796.978
404.365	16.952	1064.959	796.341
405.380	17.005	1064.008	795.809
406.394	16.986	1063.536	795.295
407.409	17.071	1062.442	794.809
408.423	17.102	1061.718	794.341
409.438	17.089	1061.156	793.791
410.453	17.175	1060.536	793.656
411.467	17.162	1059.797	792.972
412.482	17.160	1058.987	792.286
413.496	17.368	1058.097	792.518
414.511	17.184	1057.945	791.480
415.526	17.180	1057.633	791.155
416.540	17.329	1056.858	791.200
417.555	17.309	1056.397	790.690
418.569	17.338	1055.873	790.364
419.584	17.324	1055.415	789.888
420.599	17.204	1055.160	789.068
421.613	106.161	1329.468	1484.234
422.628	97.813	1369.380	1484.309
