DTS Sentinel unit serial number:	SN413079Multiplexer serial number:	ORYXHardware model number:	OX4-SRSoftware version number:	ORYX F/W v4.00 Oryx Data Collector v3.7.2.0data status	okinstallation	princeton_trtdifferential loss correction	single-endedforward channel	channel 2reverse channel	N/Adate	2019/09/15time	23:27:35forward acquisition time	60.00reverse acquisition time	0.00gamma	496.2192k internal	0.2335k external	0.2335temperature offset calibration	0.9958default loss term (dB/km)	0.3790temperature slope calibration	1.0000multiplexer offset coefficient	1.0000multiplexer slope coefficient	1.0000fibre end	0.00T internal ref (°C)	28.19T ext. ref 1 (°C)	9.16T ext. ref 2 (°C)	22.11length (m)	temperature (°C)	Stokes	anti-Stokes-747.200	-175.399	0.073	-0.002
-746.185	32.527	0.286	0.248
-745.171	-79.781	0.440	0.149
-744.156	28.458	0.119	0.101
-743.142	155.140	0.105	-0.145
-742.127	5.618	-0.159	0.118
-741.112	-200.000	-0.018	-0.252
-740.098	310.422	0.185	0.347
-739.083	-77.079	-0.267	0.093
-738.069	-200.000	0.010	0.158
-737.054	25.023	-0.056	-0.047
-736.039	800.000	0.048	-0.145
-735.025	17.969	0.175	0.140
-734.010	-24.163	-0.216	-0.130
-732.996	-151.883	-0.175	-0.013
-731.981	-37.729	0.067	-0.036
-730.966	112.922	-0.123	0.150
-729.952	32.356	-0.189	0.164
-728.937	417.320	-0.101	-0.217
-727.923	-93.013	0.238	0.067
-726.908	-53.200	0.227	0.105
-725.894	123.233	0.082	0.103
-724.879	268.242	-0.236	0.414
-723.864	8.924	-0.185	0.140
-722.850	172.800	0.054	-0.078
-721.835	101.887	-0.329	0.385
-720.821	-174.608	-0.044	-0.001
-719.806	-176.673	-0.285	-0.007
-718.791	589.689	0.016	-0.040
-717.777	-104.807	-0.279	0.064
-716.762	55.000	0.174	-0.169
-715.748	549.336	0.047	0.112
-714.733	46.823	-0.121	-0.113
-713.718	-31.715	0.154	-0.087
-712.704	800.000	0.041	0.158
-711.689	-200.000	0.030	0.229
-710.675	-107.103	0.174	0.038
-709.660	-200.000	-0.066	-0.333
-708.645	31.058	-0.211	-0.182
-707.631	439.693	0.014	0.030
-706.616	58.564	0.246	0.243
-705.602	9.250	0.131	0.100
-704.587	316.230	0.061	0.116
-703.572	-200.000	0.009	-0.333
-702.558	-45.525	-0.109	0.054
-701.543	800.000	0.043	-0.186
-700.529	25.505	-0.164	-0.137
-699.514	-64.989	-0.373	0.151
-698.499	-6.006	-0.197	0.135
-697.485	27.951	0.226	-0.191
-696.470	9.491	0.096	0.073
-695.456	-110.647	-0.088	0.018
-694.441	45.184	-0.151	0.140
-693.426	800.000	0.058	0.202
-692.412	-119.227	0.126	-0.022
-691.397	154.020	0.077	0.106
-690.383	-20.515	-0.275	0.170
-689.368	-193.788	-0.011	0.000
-688.354	12.252	-0.099	-0.076
-687.339	-63.390	-0.261	0.108
-686.324	-82.625	0.202	-0.065
-685.310	288.214	-0.201	-0.365
-684.295	158.954	0.088	-0.123
-683.281	-140.389	-0.383	-0.040
-682.266	186.050	0.060	0.090
-681.251	80.955	0.225	-0.244
-680.237	154.019	-0.117	0.161
-679.222	-168.513	-0.061	0.002
-678.208	-69.905	0.168	0.064
-677.193	12.731	-0.280	0.217
-676.178	-97.308	0.361	0.094
-675.164	272.058	0.190	-0.336
-674.149	-90.070	-0.344	0.100
-673.135	192.996	-0.054	-0.082
-672.120	163.081	0.116	0.163
-671.105	412.925	0.183	0.391
-670.091	-26.158	0.144	-0.085
-669.076	-182.529	-0.296	0.005
-668.062	-92.920	0.166	-0.046
-667.047	-200.000	-0.013	-0.116
-666.032	-82.163	0.072	-0.024
-665.018	277.838	0.318	0.567
-664.003	129.483	0.108	0.138
-662.989	84.410	-0.084	0.092
-661.974	-144.774	-0.498	-0.046
-660.959	-200.000	0.009	0.149
-659.945	-111.532	-0.101	-0.021
-658.930	161.175	-0.145	0.203
-657.916	-135.568	-0.034	-0.004
-656.901	345.773	0.091	-0.180
-655.886	-8.833	-0.221	0.148
-654.872	-189.582	0.111	0.001
-653.857	-79.879	-0.154	-0.052
-652.843	-64.847	0.035	0.014
-651.828	358.221	-0.053	-0.107
-650.814	-67.783	-0.265	0.104
-649.799	70.496	0.228	-0.236
-648.784	-86.015	0.191	0.059
-647.770	-42.618	0.242	0.123
-646.755	192.945	0.054	-0.082
-645.741	-56.582	0.241	0.107
-644.726	301.464	-0.122	-0.226
-643.711	-19.948	-0.442	0.273
-642.697	67.744	0.274	0.280
-641.682	-132.011	0.229	-0.030
-640.668	85.040	0.221	0.243
-639.653	282.632	-0.133	-0.239
-638.638	11.368	-0.251	-0.192
-637.624	-200.000	-0.028	-0.227
-636.609	-3.963	0.103	0.072
-635.595	-95.679	-0.231	-0.062
-634.580	-87.431	0.083	0.025
-633.565	411.504	0.093	-0.198
-632.551	749.780	-0.097	-0.262
-631.536	800.000	0.010	-0.030
-630.522	4.978	0.149	0.110
-629.507	-156.465	-0.215	-0.013
-628.492	-200.000	-0.016	-0.112
-627.478	-200.000	-0.038	0.368
-626.463	231.005	-0.147	0.242
-625.449	-91.432	-0.161	0.046
-624.434	-54.235	-0.086	0.039
-623.419	-200.000	-0.027	0.150
-622.405	-200.000	0.041	0.269
-621.390	537.487	0.082	-0.195
-620.376	-103.173	-0.301	0.071
-619.361	800.000	-0.064	-0.256
-618.346	-161.619	0.210	0.011
-617.332	-43.523	0.135	-0.068
-616.317	-22.927	-0.307	-0.185
-615.303	77.637	-0.191	-0.203
-614.288	-31.968	-0.300	0.168
-613.273	-170.495	0.100	0.003
-612.259	-166.926	0.020	0.001
-611.244	171.770	-0.010	0.014
-610.230	202.316	-0.162	-0.250
-609.215	311.455	-0.104	-0.195
-608.201	800.000	0.070	-0.294
-607.186	59.759	-0.129	-0.128
-606.171	542.518	0.117	-0.280
-605.157	-200.000	-0.025	0.461
-604.142	-71.574	0.125	0.047
-603.128	-1.740	-0.085	-0.060
-602.113	-144.250	-0.133	-0.012
-601.098	295.741	-0.116	0.212
-600.084	800.000	-0.057	-0.162
-599.069	-200.000	-0.027	-0.148
-598.055	-108.321	-0.490	0.106
-597.040	800.000	-0.065	0.242
-596.025	-200.000	-0.004	-0.101
-595.011	-200.000	-0.072	-0.349
-593.996	21.647	0.129	-0.105
-592.982	-200.000	-0.025	-0.207
-591.967	800.000	-0.029	-0.089
-590.952	11.590	-0.155	-0.118
-589.938	-54.259	-0.278	-0.126
-588.923	54.916	0.087	-0.084
-587.909	138.615	-0.067	0.088
-586.894	21.101	0.293	-0.238
-585.879	-200.000	-0.011	-0.128
-584.865	179.553	0.232	0.339
-583.850	-28.039	-0.152	0.088
-582.836	-200.000	0.000	0.183
-581.821	115.951	0.117	0.143
-580.806	2.646	-0.185	-0.134
-579.792	163.417	-0.049	0.068
-578.777	-142.002	-0.134	-0.013
-577.763	-189.077	0.107	0.001
-576.748	366.238	-0.110	0.221
-575.733	88.282	-0.158	0.175
-574.719	800.000	0.098	0.403
-573.704	83.412	-0.126	0.137
-572.690	111.768	0.066	-0.079
-571.675	800.000	0.049	-0.139
-570.661	-200.000	0.002	-0.154
-569.646	174.816	0.220	-0.317
-568.631	17.486	0.173	-0.137
-567.617	397.749	0.041	-0.087
-566.602	777.055	-0.249	-0.678
-565.588	-130.669	-0.087	0.012
-564.573	39.094	-0.314	0.280
-563.558	-106.209	0.095	0.021
-562.544	-200.000	0.001	-0.223
-561.529	4.357	0.085	-0.062
-560.515	-175.996	0.205	-0.005
-559.500	124.819	-0.098	0.123
-558.485	-35.363	-0.234	-0.127
-557.471	188.304	0.075	-0.111
-556.456	596.861	0.065	0.161
-555.442	800.000	0.068	0.215
-554.427	-200.000	0.051	0.250
-553.412	-151.074	0.288	0.022
-552.398	55.601	-0.139	-0.134
-551.383	-66.081	0.175	0.070
-550.369	-76.713	-0.038	-0.013
-549.354	266.891	0.132	-0.230
-548.339	547.345	0.113	0.269
-547.325	-56.124	-0.143	0.064
-546.310	217.969	-0.145	0.231
-545.296	-64.428	0.115	-0.047
-544.281	800.000	-0.043	0.128
-543.266	86.316	-0.032	-0.035
-542.252	-78.211	0.282	0.097
-541.237	141.458	-0.242	-0.319
-540.223	106.495	0.139	0.165
-539.208	-59.670	-0.097	-0.041
-538.193	69.084	0.175	0.180
-537.179	70.609	-0.200	-0.206
-536.164	-115.526	0.262	-0.049
-535.150	-121.652	-0.236	-0.039
-534.135	-123.570	0.192	-0.030
-533.121	-28.645	0.012	-0.007
-532.106	-42.785	0.234	-0.119
-531.091	-12.653	0.300	0.195
-530.077	18.366	-0.153	0.122
-529.062	-83.480	0.168	-0.053
-528.048	244.729	-0.050	0.084
-527.033	-42.014	-0.157	-0.080
-526.018	256.555	-0.223	0.381
-525.004	-200.000	-0.045	0.237
-523.989	-110.366	0.039	-0.008
-522.975	130.944	-0.142	0.181
-521.960	-200.000	-0.017	0.110
-520.945	36.569	-0.189	0.166
-519.931	770.305	-0.103	-0.278
-518.916	229.152	0.068	-0.111
-517.902	584.451	0.003	-0.009
-516.887	800.000	-0.057	0.203
-515.872	800.000	-0.066	-0.260
-514.858	7.594	-0.141	-0.105
-513.843	-81.708	0.199	-0.065
-512.829	-0.189	-0.114	0.081
-511.814	-68.641	0.269	0.104
-510.799	-72.752	-0.415	0.152
-509.785	-20.772	-0.180	0.110
-508.770	86.534	0.115	0.127
-507.756	800.000	-0.079	0.306
-506.741	-200.000	0.005	0.321
-505.726	43.913	-0.148	0.135
-504.712	48.636	-0.071	-0.066
-503.697	-14.917	-0.308	-0.197
-502.683	-200.000	0.004	-0.284
-501.668	-128.176	0.229	0.033
-500.653	87.568	0.164	-0.181
-499.639	-200.000	-0.039	-0.355
-498.624	-200.000	0.039	-0.226
-497.610	-154.497	0.193	0.013
-496.595	177.170	0.009	-0.012
-495.581	-158.528	-0.649	-0.037
-494.566	-200.000	-0.021	0.107
-493.551	-63.785	-0.041	0.017
-492.537	60.912	-0.058	-0.057
-491.522	-88.975	0.166	-0.049
-490.508	116.656	0.051	0.062
-489.493	-5.930	-0.059	-0.040
-488.478	-102.651	-0.548	0.130
-487.464	130.693	0.049	0.063
-486.449	-172.733	0.197	-0.006
-485.435	-7.765	-0.257	-0.172
-484.420	800.000	0.074	-0.220
-483.405	-185.767	0.344	-0.005
-482.391	800.000	0.017	0.067
-481.376	33.890	-0.194	0.168
-480.362	362.664	-0.181	0.362
-479.347	-194.207	0.339	-0.003
-478.332	-73.570	-0.111	0.040
-477.318	-98.755	-0.137	-0.035
-476.303	118.166	0.102	-0.125
-475.289	47.758	-0.149	0.138
-474.274	800.000	-0.149	0.587
-473.259	-138.998	-0.038	0.004
-472.245	-115.637	0.282	0.053
-471.230	-107.540	-0.256	-0.056
-470.216	-29.661	-0.250	0.142
-469.201	-200.000	0.003	-0.033
-468.186	-99.675	0.264	0.066
-467.172	455.758	-0.081	-0.178
-466.157	-171.123	-0.240	-0.008
-465.143	-79.462	0.108	0.036
-464.128	46.714	-0.158	0.145
-463.113	-121.700	-0.211	-0.035
-462.099	-200.000	-0.048	0.302
-461.084	87.265	-0.074	-0.081
-460.070	-200.000	-0.007	0.281
-459.055	767.259	0.054	0.147
-458.040	-148.969	0.177	0.014
-457.026	-131.093	0.405	-0.054
-456.011	189.950	0.199	0.296
-454.997	-23.285	-0.169	-0.101
-453.982	64.686	-0.014	0.014
-452.968	800.000	0.071	-0.262
-451.953	-90.525	-0.252	-0.072
-450.938	128.580	0.222	0.281
-449.924	-128.608	0.091	0.013
-448.909	341.953	0.099	-0.192
-447.895	-14.589	0.181	-0.116
-446.880	-82.667	0.075	-0.024
-445.865	240.012	0.141	-0.233
-444.851	0.850	0.033	0.024
-443.836	-200.000	0.009	0.046
-442.822	-167.804	0.217	0.009
-441.807	9.593	0.243	-0.183
-440.792	-103.116	-0.148	0.035
-439.778	-39.523	-0.401	0.209
-438.763	-200.000	-0.009	0.225
-437.749	-41.385	0.275	0.140
-436.734	-139.587	0.170	0.018
-435.719	-28.191	0.383	-0.220
-434.705	-200.000	-0.018	-0.404
-433.690	-147.733	-0.072	0.006
-432.676	239.942	0.161	-0.266
-431.661	43.634	-0.310	-0.281
-430.646	184.112	0.055	0.080
-429.632	-200.000	0.024	0.374
-428.617	240.468	-0.105	0.173
-427.603	-24.482	-0.433	-0.256
-426.588	-55.279	-0.170	-0.076
-425.573	-50.321	0.328	0.154
-424.559	29.161	0.081	0.068
-423.544	-181.784	0.324	0.006
-422.530	194.748	-0.034	0.051
-421.515	-132.361	-0.338	-0.043
-420.500	169.718	0.057	-0.081
-419.486	800.000	0.065	-0.233
-418.471	-23.235	0.107	0.064
-417.457	-42.727	-0.259	0.131
-416.442	151.408	-0.121	0.164
-415.428	-60.450	0.351	-0.148
-414.413	-42.166	-0.267	-0.136
-413.398	30.440	0.225	-0.191
-412.384	800.000	-0.011	-0.041
-411.369	-90.484	0.185	-0.053
-410.355	-99.268	0.157	-0.039
-409.340	216.237	0.058	0.091
-408.325	-200.000	-0.013	-0.146
-407.311	-31.863	-0.132	-0.073
-406.296	-200.000	0.033	0.185
-405.282	-156.242	0.213	0.013
-404.267	-200.000	0.001	0.018
-403.252	-40.768	0.257	0.132
-402.238	721.934	-0.086	0.227
-401.223	-126.800	0.365	0.053
-400.209	84.520	0.152	0.165
-399.194	173.749	0.072	0.103
-398.179	-200.000	-0.005	0.470
-397.165	256.885	0.055	0.093
-396.150	503.038	0.056	0.129
-395.136	-90.695	0.342	0.098
-394.121	-123.040	-0.440	0.070
-393.106	-13.792	-0.215	-0.138
-392.092	-43.559	0.228	0.114
-391.077	232.131	-0.135	0.220
-390.063	-18.213	0.118	-0.073
-389.048	-200.000	-0.051	-0.274
-388.033	-180.768	0.195	-0.004
-387.019	-32.198	0.203	-0.113
-386.004	83.002	0.082	-0.088
-384.990	-117.437	-0.306	0.055
-383.975	-83.503	0.071	0.022
-382.960	1.724	0.087	-0.062
-381.946	-200.000	0.060	0.303
-380.931	800.000	0.124	0.397
-379.917	-67.060	0.287	-0.112
-378.902	585.700	0.032	0.077
-377.888	-53.572	-0.146	0.066
-376.873	-200.000	0.020	-0.187
-375.858	7.680	0.193	0.143
-374.844	414.664	0.105	0.222
-373.829	-146.532	0.166	-0.014
-372.815	116.150	0.197	-0.239
-371.800	-200.000	0.036	0.268
-370.785	553.232	0.036	0.086
-369.771	-139.498	0.394	0.042
-368.756	-200.000	0.026	-0.189
-367.742	-110.713	-0.264	0.054
-366.727	-200.000	-0.003	-0.131
-365.712	-162.369	-0.016	0.001
-364.698	75.312	0.181	0.189
-363.683	-85.280	-0.221	0.068
-362.669	221.004	0.042	-0.066
-361.654	-105.085	-0.087	-0.020
-360.639	-200.000	0.064	0.285
-359.625	-200.000	-0.037	-0.272
-358.610	-120.682	-0.338	-0.057
-357.596	777.261	-0.111	-0.299
-356.581	312.990	0.177	-0.330
-355.566	204.179	0.313	-0.481
-354.552	268.544	-0.143	-0.248
-353.537	-53.304	0.090	-0.041
-352.523	591.562	-0.124	0.302
-351.508	204.178	-0.190	-0.292
-350.493	-68.254	0.061	-0.023
-349.479	29.866	0.164	-0.138
-348.464	-96.528	-0.107	0.028
-347.450	-38.024	-0.360	-0.189
-346.435	-1.458	0.309	0.216
-345.420	800.000	-0.028	0.114
-344.406	-3.472	-0.215	-0.148
-343.391	-72.823	0.253	-0.092
-342.377	260.173	0.071	0.122
-341.362	-27.582	-0.216	-0.124
-340.348	-200.000	0.009	-0.119
-339.333	66.941	0.164	-0.165
-338.318	-184.757	-0.212	0.003
-337.304	-149.421	-0.186	0.015
-336.289	392.007	-0.059	0.121
-335.275	-74.308	-0.206	0.074
-334.260	-78.874	0.259	-0.087
-333.245	-95.675	0.227	-0.060
-332.231	-3.133	0.149	0.102
-331.216	121.131	-0.172	-0.211
-330.202	91.299	-0.122	0.135
-329.187	-200.000	0.040	-0.231
-328.172	544.944	-0.117	-0.276
-327.158	-200.000	0.032	-0.269
-326.143	25.702	0.201	-0.165
-325.129	1.556	0.229	-0.163
-324.114	110.943	0.165	-0.196
-323.099	-112.891	-0.322	-0.063
-322.085	-110.993	0.006	0.001
-321.070	-24.143	-0.081	-0.048
-320.056	-38.796	0.254	-0.132
-319.041	181.425	-0.064	-0.093
-318.026	34.605	-0.454	0.392
-317.012	-23.250	-0.167	-0.099
-315.997	-139.477	-0.212	-0.022
-314.983	496.691	0.146	0.332
-313.968	18.058	-0.195	-0.154
-312.953	-200.000	-0.011	-0.158
-311.939	800.000	-0.071	0.219
-310.924	-122.943	0.420	0.067
-309.910	-200.000	-0.020	-0.101
-308.895	5.238	-0.224	-0.163
-307.880	2.975	0.137	-0.098
-306.866	230.992	0.119	-0.193
-305.851	-144.937	-0.029	0.003
-304.837	54.918	0.131	0.125
-303.822	-188.944	0.107	0.001
-302.807	-200.000	-0.100	0.622
-301.793	-91.637	0.248	-0.070
-300.778	716.708	0.061	0.161
-299.764	-200.000	0.004	0.157
-298.749	34.551	-0.080	-0.069
-297.735	-64.963	0.360	-0.143
-296.720	-34.329	-0.369	0.200
-295.705	190.809	-0.123	-0.182
-294.691	217.742	-0.238	0.375
-293.676	-143.826	-0.118	-0.011
-292.662	-30.420	0.295	-0.165
-291.647	-66.786	-0.235	0.092
-290.632	184.105	0.205	0.300
-289.618	-155.746	0.287	-0.018
-288.603	-81.485	0.071	0.023
-287.589	-68.904	0.272	0.103
-286.574	-9.933	0.262	-0.172
-285.559	-200.000	-0.010	0.120
-284.545	229.654	0.137	0.221
-283.530	86.257	0.265	-0.288
-282.516	-156.737	0.235	-0.014
-281.501	800.000	-0.076	-0.281
-280.486	477.504	0.027	0.060
-279.472	-33.675	0.264	-0.144
-278.457	-2.636	-0.323	0.223
-277.443	11.313	0.109	0.082
-276.428	6.755	-0.093	0.068
-275.413	-200.000	0.022	-0.169
-274.399	-119.554	-0.188	-0.032
-273.384	241.623	0.118	-0.194
-272.370	282.116	0.088	-0.156
-271.355	-94.734	0.225	0.060
-270.340	-6.107	-0.195	-0.131
-269.326	-200.000	0.017	0.155
-268.311	800.000	-0.050	-0.180
-267.297	51.089	0.075	0.071
-266.282	-200.000	0.033	0.377
-265.267	-20.294	-0.191	0.116
-264.253	800.000	0.054	-0.219
-263.238	-169.063	-0.304	-0.011
-262.224	357.578	-0.102	0.200
-261.209	-10.887	-0.266	-0.173
-260.195	131.200	-0.074	0.094
-259.180	-53.179	0.239	-0.108
-258.165	49.270	0.203	0.188
-257.151	-200.000	0.012	0.416
-256.136	-176.684	0.168	-0.004
-255.122	478.337	0.033	0.074
-254.107	800.000	0.103	-0.319
-253.092	-8.548	-0.385	-0.255
-252.078	-88.743	-0.021	0.006
-251.063	135.655	0.090	-0.116
-250.049	-200.000	-0.018	-0.218
-249.034	151.162	0.163	-0.219
-248.019	-200.000	0.009	0.458
-247.005	183.554	-0.085	-0.124
-245.990	-200.000	0.010	-0.071
-244.976	-27.354	-0.472	-0.271
-243.961	-171.725	0.071	0.002
-242.946	-200.000	-0.046	0.307
-241.932	177.769	-0.036	-0.052
-240.917	76.972	-0.187	0.195
-239.903	-31.531	-0.197	-0.109
-238.888	-200.000	0.003	0.265
-237.873	-186.273	0.181	0.003
-236.859	-92.916	0.061	0.017
-235.844	77.285	0.094	0.098
-234.830	101.154	0.099	0.114
-233.815	154.495	-0.166	-0.224
-232.800	-39.329	0.190	-0.098
-231.786	-200.000	0.013	0.079
-230.771	273.797	0.055	-0.096
-229.757	800.000	0.080	0.244
-228.742	88.802	0.246	0.269
-227.727	-31.641	-0.051	0.028
-226.713	27.649	-0.260	0.215
-225.698	-200.000	0.017	-0.190
-224.684	-140.103	-0.348	0.036
-223.669	-104.204	-0.298	-0.068
-222.655	-51.828	-0.144	0.066
-221.640	12.797	0.357	0.271
-220.625	-200.000	-0.019	0.110
-219.611	220.009	0.126	0.198
-218.596	800.000	-0.089	-0.241
-217.582	283.619	-0.126	-0.223
-216.567	800.000	0.038	-0.142
-215.552	42.216	0.088	0.079
-214.538	-85.057	0.163	-0.050
-213.523	428.772	-0.107	0.228
-212.509	800.000	-0.013	-0.054
-211.494	-200.000	-0.006	-0.369
-210.479	-89.559	0.391	-0.113
-209.465	298.013	0.162	-0.293
-208.450	-200.000	-0.023	0.191
-207.436	-54.277	-0.240	0.107
-206.421	721.506	-0.086	-0.225
-205.406	-73.837	0.176	-0.063
-204.392	-68.080	0.209	0.080
-203.377	555.348	-0.116	-0.274
-202.363	-151.106	-0.421	0.031
-201.348	-43.640	-0.179	0.089
-200.333	-200.000	0.016	0.204
-199.319	-200.000	0.010	-0.203
-198.304	31.000	0.059	0.049
-197.290	-50.903	-0.179	0.083
-196.275	133.914	0.083	-0.106
-195.260	-125.645	-0.230	-0.034
-194.246	-93.524	-0.352	0.096
-193.231	-105.660	0.291	0.065
-192.217	111.188	-0.142	0.169
-191.202	-55.525	-0.287	0.126
-190.187	-170.754	0.107	-0.004
-189.173	241.739	-0.143	-0.235
-188.158	-106.787	-0.091	0.020
-187.144	451.237	0.135	-0.292
-186.129	787.784	-0.099	-0.268
-185.114	800.000	-0.032	0.115
-184.100	-158.072	-0.027	-0.002
-183.085	-37.428	0.335	-0.176
-182.071	-113.582	0.099	0.019
-181.056	278.785	-0.144	-0.252
-180.042	-200.000	0.057	-0.366
-179.027	-200.000	0.060	0.259
-178.012	-45.593	-0.269	0.131
-176.998	-98.017	0.271	-0.069
-175.983	87.978	0.167	-0.182
-174.969	-57.853	-0.491	0.211
-173.954	-200.000	0.015	-0.256
-172.939	56.435	0.345	0.330
-171.925	-59.187	0.145	0.061
-170.910	-140.504	-0.397	0.041
-169.896	-76.053	-0.373	0.130
-168.881	-21.569	0.036	0.022
-167.866	-200.000	-0.019	0.152
-166.852	32.100	0.113	-0.096
-165.837	800.000	0.055	-0.219
-164.823	-45.162	0.111	0.054
-163.808	800.000	0.093	0.323
-162.793	199.561	-0.146	0.219
-161.779	-70.040	-0.230	-0.086
-160.764	-53.218	0.409	0.184
-159.750	20.580	0.182	0.145
-158.735	-65.486	-0.225	-0.089
-157.720	318.293	-0.054	0.100
-156.706	63.679	-0.149	0.147
-155.691	-33.476	0.093	0.051
-154.677	-2.326	0.238	0.164
-153.662	22.295	0.346	-0.277
-152.647	-15.740	-0.073	-0.046
-151.633	85.677	-0.114	-0.123
-150.618	244.138	0.045	-0.075
-149.604	208.392	-0.093	0.143
-148.589	341.474	0.077	0.149
-147.574	-112.253	0.026	-0.005
-146.560	-114.877	0.233	-0.044
-145.545	-191.537	0.473	-0.005
-144.531	800.000	0.018	0.073
-143.516	-200.000	-0.033	0.194
-142.502	350.108	0.085	-0.164
-141.487	564.281	-0.079	0.188
-140.472	800.000	0.038	-0.146
-139.458	-200.000	0.001	0.016
-138.443	277.008	-0.144	-0.251
-137.429	-7.468	0.330	-0.219
-136.414	-200.000	0.023	-0.112
-135.399	33.642	0.029	0.025
-134.385	78.717	0.177	0.186
-133.370	-127.981	0.021	-0.003
-132.356	0.086	0.252	-0.176
-131.341	-39.089	0.307	0.158
-130.326	-156.109	0.241	-0.015
-129.312	-200.000	-0.039	0.259
-128.297	67.196	0.067	-0.067
-127.283	339.545	0.110	0.211
-126.268	-200.000	-0.001	-0.064
-125.253	29.968	0.212	0.178
-124.239	85.623	0.034	0.037
-123.224	263.297	0.091	-0.155
-122.210	322.927	0.056	0.105
-121.195	767.844	0.100	0.268
-120.180	133.249	-0.239	0.303
-119.166	-164.672	0.173	0.008
-118.151	-73.651	-0.220	0.079
-117.137	-19.721	0.328	0.199
-116.122	3.879	0.306	0.219
-115.107	38.096	0.244	-0.213
-114.093	-200.000	-0.007	0.213
-113.078	-67.249	0.099	-0.038
-112.064	-200.000	0.071	0.345
-111.049	-92.965	-0.174	-0.048
-110.034	800.000	0.083	-0.316
-109.020	-200.000	-0.021	-0.381
-108.005	14.014	-0.305	0.232
-106.991	-9.372	0.126	0.083
-105.976	-64.771	-0.387	0.153
-104.962	-200.000	0.063	-0.354
-103.947	483.114	0.058	0.130
-102.932	-111.481	-0.276	0.055
-101.918	49.680	-0.270	-0.249
-100.903	-54.788	-0.381	-0.169
-99.889	17.245	-0.059	0.046
-98.874	418.183	0.081	-0.169
-97.859	-200.000	-0.023	-0.101
-96.845	-91.098	0.258	0.073
-95.830	46.216	-0.205	0.186
-94.816	-149.006	0.067	-0.005
-93.801	-157.823	0.142	0.008
-92.786	220.983	-0.158	0.249
-91.772	355.162	0.099	0.193
-90.757	-107.952	0.101	0.021
-89.743	-73.888	0.107	-0.038
-88.728	-200.000	-0.122	0.000
-87.713	-32.454	0.186	0.101
-86.699	-200.000	-0.006	0.174
-85.684	-200.000	-0.004	-0.022
-84.670	800.000	-0.116	0.321
-83.655	62.425	-0.161	0.157
-82.640	-200.000	0.034	0.310
-81.626	75.708	0.228	0.236
-80.611	-83.215	-0.233	-0.073
-79.597	-4.572	0.197	-0.133
-78.582	800.000	-0.067	0.228
-77.567	-200.000	0.064	0.280
-76.553	714.520	-0.010	0.026
-75.538	-64.109	-0.335	0.134
-74.524	23.373	0.096	-0.077
-73.509	-200.000	-0.007	-0.502
-72.494	415.391	-0.055	0.114
-71.480	395.699	0.044	0.089
-70.465	-200.000	0.048	-0.505
-69.451	-11.658	0.230	0.148
-68.436	-35.760	0.388	0.206
-67.422	43.504	-0.177	-0.158
-66.407	693.629	-0.180	-0.462
-65.392	48.143	-0.298	-0.273
-64.378	-200.000	-0.061	0.287
-63.363	800.000	-0.166	0.509
-62.349	800.000	0.042	0.122
-61.334	22.158	-1.503	-1.200
-60.319	174.880	0.565	0.801
-59.305	-200.000	-0.013	-0.885
-58.290	800.000	0.532	1.461
-57.276	800.000	0.553	1.618
-56.261	-200.000	111.072	647.080
-55.246	494.002	1484.313	3331.178
-54.232	150.538	2652.966	3524.213
-53.217	100.231	2269.603	2574.731
-52.203	37.281	1887.297	1635.175
-51.188	31.367	1680.344	1411.309
-50.173	28.834	1638.401	1357.346
-49.159	50.908	1692.858	1568.502
-48.144	50.293	1707.847	1577.727
-47.130	31.061	1666.320	1397.014
-46.115	28.340	1652.293	1364.961
-45.100	28.106	1647.571	1359.262
-44.086	28.082	1644.936	1356.860
-43.071	28.033	1642.367	1354.322
-42.057	28.049	1640.175	1352.585
-41.042	28.010	1637.381	1349.935
-40.027	28.023	1635.938	1348.784
-39.013	28.055	1633.856	1347.257
-37.998	27.984	1632.629	1345.666
-36.984	28.055	1631.237	1344.990
-35.969	28.129	1629.926	1344.398
-34.954	28.272	1627.719	1343.575
-33.940	28.131	1626.414	1341.409
-32.925	28.133	1624.635	1339.904
-31.911	28.195	1622.773	1338.770
-30.896	28.154	1621.201	1337.118
-29.881	28.085	1619.651	1335.283
-28.867	28.221	1617.340	1334.318
-27.852	28.155	1616.510	1333.093
-26.838	28.283	1614.679	1332.468
-25.823	28.163	1614.101	1331.061
-24.809	28.257	1612.540	1330.407
-23.794	28.152	1611.425	1328.670
-22.779	28.235	1609.491	1327.628
-21.765	28.181	1608.036	1325.983
-20.750	28.154	1606.720	1324.651
-19.736	28.192	1605.184	1323.607
-18.721	28.249	1603.866	1322.874
-17.706	28.287	1601.912	1321.484
-16.692	28.199	1600.941	1319.998
-15.677	28.245	1599.716	1319.269
-14.663	28.358	1598.307	1318.864
-13.648	28.399	1596.085	1317.275
-12.633	28.269	1595.000	1315.397
-11.619	28.148	1593.778	1313.468
-10.604	28.184	1592.692	1312.774
-9.590	28.205	1591.134	1311.591
-8.575	28.194	1590.265	1310.742
-7.560	28.258	1588.924	1310.047
-6.546	28.225	1587.685	1308.735
-5.531	28.198	1586.504	1307.519
-4.517	28.231	1585.486	1306.864
-3.502	28.188	1584.394	1305.600
-2.487	28.310	1582.650	1304.980
-1.473	27.933	1570.786	1292.486
-0.458	24.896	1552.239	1255.898
0.556	19.388	1552.997	1224.727
1.571	17.029	1576.398	1226.045
2.586	16.608	1588.592	1232.351
3.600	15.799	1538.700	1187.832
4.615	12.819	1440.773	1092.416
5.629	9.879	1385.856	1031.910
6.644	9.192	1379.223	1022.515
7.659	9.100	1377.765	1020.754
8.673	9.120	1376.722	1020.019
9.688	9.238	1374.216	1018.820
10.702	8.967	1371.434	1014.952
11.717	10.424	1373.695	1025.767
12.731	13.943	1379.315	1052.200
13.746	16.924	1383.866	1074.496
14.761	17.311	1383.279	1076.395
15.775	16.356	1380.714	1068.267
16.790	15.261	1378.332	1059.412
17.804	14.486	1375.534	1052.276
18.819	13.944	1374.774	1048.187
19.834	13.807	1372.854	1045.762
20.848	13.575	1371.479	1043.161
21.863	13.295	1370.397	1040.484
22.877	13.221	1369.073	1038.925
23.892	12.970	1368.835	1037.076
24.907	13.078	1367.585	1036.715
25.921	13.160	1366.624	1036.408
26.936	13.017	1366.337	1035.203
27.950	13.193	1365.053	1035.241
28.965	13.311	1363.554	1034.749
29.980	13.313	1362.427	1033.814
30.994	13.435	1361.141	1033.509
32.009	13.425	1359.912	1032.422
33.023	13.295	1359.173	1030.963
34.038	13.304	1357.684	1029.796
35.053	13.296	1356.062	1028.427
36.067	13.242	1355.406	1027.498
37.082	13.291	1353.809	1026.506
38.096	13.263	1353.276	1025.837
39.111	13.239	1352.693	1025.154
40.126	13.265	1351.487	1024.311
41.140	13.071	1350.696	1022.418
42.155	13.016	1350.169	1021.586
43.169	13.035	1350.094	1021.560
44.184	12.916	1350.057	1020.706
45.199	13.123	1349.039	1021.125
46.213	13.148	1348.059	1020.444
47.228	13.310	1347.171	1020.684
48.242	13.263	1346.012	1019.422
49.257	13.145	1345.142	1017.951
50.271	13.194	1343.433	1016.869
51.286	13.277	1341.728	1015.999
52.301	13.230	1340.331	1014.560
53.315	13.116	1339.957	1013.486
54.330	13.102	1338.988	1012.578
55.344	13.118	1337.513	1011.472
56.359	13.142	1336.490	1010.759
57.374	13.096	1335.589	1009.705
58.388	12.995	1335.080	1008.611
59.403	13.050	1334.248	1008.230
60.417	12.893	1333.864	1006.893
61.432	12.947	1332.834	1006.357
62.447	12.952	1331.994	1005.663
63.461	12.956	1330.849	1004.733
64.476	12.948	1329.472	1003.554
65.490	12.952	1328.209	1002.540
66.505	12.920	1326.910	1001.277
67.520	13.023	1325.564	1000.795
68.534	12.998	1324.757	999.947
69.549	13.006	1323.779	999.165
70.563	12.989	1322.762	998.209
71.578	12.931	1321.809	997.053
72.593	12.863	1320.706	995.723
73.607	12.981	1320.128	995.910
74.622	12.833	1319.382	994.367
75.636	12.851	1318.623	993.813
76.651	12.811	1317.970	992.992
77.666	12.888	1317.324	992.881
78.680	12.837	1317.416	992.558
79.695	13.033	1315.907	992.507
80.709	12.935	1315.534	991.551
81.724	13.025	1314.692	991.368
82.739	13.081	1313.686	990.861
83.753	13.127	1312.910	990.463
84.768	13.079	1311.927	989.344
85.782	13.139	1310.980	988.904
86.797	13.229	1309.409	988.171
87.812	13.077	1308.346	986.374
88.826	13.063	1307.243	985.366
89.841	13.190	1306.013	985.114
90.855	13.198	1305.155	984.426
91.870	13.246	1304.135	983.856
92.884	13.347	1302.947	983.473
93.899	13.318	1302.378	982.781
94.914	13.345	1302.039	982.602
95.928	13.258	1301.336	981.468
96.943	13.267	1299.856	980.315
97.957	13.302	1298.694	979.561
98.972	13.245	1298.003	978.616
99.987	13.332	1296.764	978.111
101.001	13.297	1295.651	976.977
102.016	13.293	1294.758	976.195
103.030	13.299	1294.072	975.622
104.045	13.313	1293.185	974.954
105.060	13.241	1291.740	973.355
106.074	13.147	1290.603	971.858
107.089	13.138	1289.009	970.515
108.103	13.063	1287.787	969.073
109.118	12.924	1287.058	967.623
110.133	13.034	1285.623	967.101
111.147	13.155	1283.897	966.423
112.162	13.037	1282.586	964.661
113.176	13.012	1282.125	964.088
114.191	13.151	1280.705	963.746
115.206	13.150	1279.305	962.602
116.220	13.104	1278.198	961.414
117.235	13.099	1277.117	960.487
118.249	13.085	1276.080	959.539
119.264	13.017	1275.095	958.321
120.279	13.019	1273.901	957.348
121.293	12.982	1273.080	956.431
122.308	13.018	1271.818	955.607
123.322	13.030	1269.789	954.067
124.337	12.954	1269.768	953.528
125.352	12.950	1268.788	952.687
126.366	13.018	1267.299	951.874
127.381	12.999	1266.368	950.983
128.395	13.088	1265.274	950.591
129.410	13.024	1264.447	949.516
130.424	13.067	1263.521	948.983
131.439	13.078	1262.912	948.506
132.454	13.201	1261.435	948.020
133.468	13.044	1261.082	946.768
134.483	13.101	1260.295	946.421
135.497	13.134	1259.142	945.659
136.512	13.077	1258.282	944.606
137.527	13.153	1256.450	943.581
138.541	13.135	1254.921	942.244
139.556	13.097	1254.045	941.285
140.570	13.233	1252.865	941.095
141.585	13.358	1251.639	940.799
142.600	13.305	1250.756	939.750
143.614	13.215	1249.978	938.570
144.629	13.339	1248.472	938.064
145.643	13.404	1247.356	937.511
146.658	13.257	1246.222	935.739
147.673	13.356	1244.522	934.941
148.687	13.110	1244.485	933.440
149.702	13.145	1242.612	932.152
150.716	13.162	1241.226	931.122
151.731	13.098	1240.372	930.044
152.746	13.215	1238.944	929.545
153.760	13.328	1237.195	928.784
154.775	13.436	1236.217	928.574
155.789	13.381	1235.272	927.478
156.804	13.330	1234.298	926.376
157.819	13.296	1233.603	925.581
158.833	13.418	1232.500	925.353
159.848	13.429	1231.674	924.718
160.862	13.511	1230.434	924.162
161.877	13.338	1229.074	922.090
162.892	13.327	1228.168	921.273
163.906	13.277	1227.506	920.416
164.921	13.302	1226.382	919.626
165.935	13.301	1225.532	918.905
166.950	13.367	1225.003	918.794
167.964	13.330	1224.450	918.092
168.979	13.439	1223.629	917.997
169.994	13.437	1222.730	917.234
171.008	13.434	1221.949	916.546
172.023	13.499	1221.322	916.358
173.037	13.585	1220.225	915.928
174.052	13.422	1219.903	914.705
175.067	13.459	1218.511	913.786
176.081	13.329	1217.499	912.228
177.096	13.380	1216.640	911.787
178.110	13.449	1215.136	910.954
179.125	13.313	1214.601	909.726
180.140	13.403	1213.089	909.009
181.154	13.482	1212.047	908.583
182.169	13.478	1210.864	907.590
183.183	13.586	1209.476	907.061
184.198	13.602	1208.574	906.393
185.213	13.623	1207.182	905.380
186.227	13.607	1206.200	904.479
187.242	13.633	1205.144	903.750
188.256	13.674	1204.253	903.225
189.271	13.671	1203.753	902.756
190.286	13.553	1202.372	900.996
191.300	13.471	1201.429	899.764
192.315	13.436	1200.554	898.841
193.329	13.470	1199.922	898.473
194.344	13.429	1199.729	898.025
195.359	13.524	1198.869	897.816
196.373	13.549	1198.588	897.660
197.388	13.704	1198.192	898.128
198.402	13.805	1197.453	898.040
199.417	13.836	1196.777	897.620
200.432	13.980	1195.901	897.661
201.446	13.929	1195.222	896.798
202.461	13.939	1194.198	896.003
203.475	13.991	1192.977	895.288
204.490	13.869	1191.823	893.684
205.504	13.786	1191.155	892.661
206.519	13.901	1189.595	892.028
207.534	13.756	1188.282	890.188
208.548	13.822	1187.170	889.632
209.563	13.922	1186.508	889.592
210.577	13.873	1185.994	888.864
211.592	13.904	1185.095	888.278
212.607	14.008	1184.032	887.957
213.621	14.041	1183.072	887.335
214.636	14.025	1182.487	886.736
215.650	13.988	1181.689	885.858
216.665	14.046	1180.550	885.237
217.680	14.199	1179.161	884.932
218.694	14.160	1178.545	884.183
219.709	14.105	1178.382	883.688
220.723	14.162	1176.661	882.621
221.738	14.122	1176.451	882.178
222.753	14.209	1175.348	881.731
223.767	14.123	1175.481	881.298
224.782	14.190	1174.537	880.864
225.796	14.231	1173.838	880.480
226.811	14.243	1173.181	879.975
227.826	14.196	1172.204	878.915
228.840	14.206	1171.460	878.330
229.855	14.123	1170.829	877.345
230.869	14.305	1170.025	877.624
231.884	14.157	1169.297	876.221
232.899	14.185	1168.198	875.463
233.913	14.062	1168.010	874.600
234.928	14.149	1166.769	874.050
235.942	14.089	1165.912	873.016
236.957	14.110	1165.658	872.859
237.972	14.205	1164.762	872.606
238.986	14.117	1163.825	871.370
240.001	14.156	1163.329	871.125
241.015	14.210	1162.029	870.355
242.030	14.203	1161.612	869.932
243.045	14.295	1160.491	869.493
244.059	14.367	1159.686	869.189
245.074	14.311	1159.636	868.781
246.088	14.422	1158.392	868.355
247.103	14.420	1157.323	867.465
248.117	14.387	1157.294	867.196
249.132	14.513	1156.400	867.103
250.147	14.539	1155.861	866.758
251.161	14.654	1154.954	866.596
252.176	14.707	1154.305	866.308
253.190	14.758	1153.538	865.919
254.205	14.846	1152.938	865.851
255.220	14.741	1152.692	865.042
256.234	14.642	1152.239	864.117
257.249	14.816	1150.955	863.977
258.263	14.618	1150.823	862.777
259.278	14.709	1149.786	862.394
260.293	14.801	1148.990	862.192
261.307	14.931	1148.525	862.438
262.322	14.981	1147.630	861.947
263.336	14.934	1147.593	861.600
264.351	15.039	1146.402	861.174
265.366	14.956	1146.162	860.487
266.380	14.967	1145.356	859.862
267.395	14.996	1144.793	859.514
268.409	14.910	1143.724	858.192
269.424	14.855	1143.363	857.566
270.439	14.887	1142.762	857.204
271.453	14.906	1141.857	856.544
272.468	14.949	1140.990	856.039
273.482	14.907	1140.049	855.044
274.497	14.879	1139.537	854.442
275.512	14.868	1139.100	853.982
276.526	14.997	1137.928	853.685
277.541	14.930	1137.264	852.771
278.555	14.890	1136.839	852.173
279.570	14.991	1136.242	852.159
280.585	15.067	1134.999	851.541
281.599	15.143	1134.204	851.255
282.614	15.082	1133.226	850.137
283.628	15.111	1131.728	849.083
284.643	15.114	1131.409	848.783
285.657	15.125	1130.811	848.319
286.672	15.189	1129.730	847.753
287.687	15.110	1129.047	846.768
288.701	15.143	1128.073	846.131
289.716	15.112	1126.834	844.969
290.730	15.237	1126.461	845.247
291.745	15.197	1126.053	844.662
292.760	15.222	1124.940	843.880
293.774	15.254	1124.681	843.770
294.789	15.267	1124.078	843.308
295.803	15.241	1123.263	842.493
296.818	15.190	1122.946	841.922
297.833	15.142	1122.103	840.976
298.847	15.204	1121.278	840.597
299.862	15.244	1120.200	839.913
300.876	15.300	1119.763	839.793
301.891	15.343	1119.197	839.508
302.906	15.338	1118.332	838.757
303.920	15.430	1117.890	838.815
304.935	15.487	1117.354	838.624
305.949	15.543	1116.346	838.070
306.964	15.518	1115.725	837.406
307.979	15.499	1114.823	836.562
308.993	15.495	1114.329	836.094
310.008	15.482	1113.762	835.531
311.022	15.499	1112.719	834.757
312.037	15.583	1111.722	834.353
313.052	15.414	1110.574	832.580
314.066	15.437	1109.919	832.131
315.081	15.532	1109.124	831.931
316.095	15.442	1108.856	831.211
317.110	15.413	1108.076	830.407
318.125	15.504	1107.281	830.192
319.139	15.493	1106.502	829.476
320.154	15.411	1105.910	828.557
321.168	15.406	1105.234	827.952
322.183	15.409	1104.882	827.626
323.197	15.630	1103.626	827.705
324.212	15.598	1102.942	826.958
325.227	15.529	1102.897	826.512
326.241	15.563	1101.980	825.919
327.256	15.559	1101.128	825.189
328.270	15.521	1100.525	824.479
329.285	15.571	1099.206	823.659
330.300	15.593	1097.998	822.791
331.314	15.592	1097.362	822.236
332.329	15.571	1096.550	821.453
333.343	15.671	1095.502	821.085
334.358	15.729	1094.822	820.786
335.373	15.670	1094.155	819.925
336.387	15.687	1093.426	819.388
337.402	15.806	1092.284	819.038
338.416	15.738	1091.954	818.386
339.431	15.909	1091.346	818.690
340.446	15.823	1090.920	817.882
341.460	15.756	1090.418	817.110
342.475	16.021	1089.138	817.360
343.489	15.949	1088.049	816.124
344.504	15.985	1087.490	815.806
345.519	15.912	1086.646	814.748
346.533	16.089	1085.732	814.844
347.548	16.122	1085.282	814.594
348.562	15.986	1084.878	813.561
349.577	16.014	1083.860	812.863
350.592	15.944	1082.850	811.694
351.606	15.923	1082.128	810.984
352.621	15.998	1081.361	810.696
353.635	16.023	1080.599	810.173
354.650	16.021	1079.946	809.603
355.665	16.105	1079.365	809.500
356.679	15.990	1078.765	808.426
357.694	15.925	1078.515	807.854
358.708	16.133	1077.472	807.996
359.723	16.059	1077.067	807.270
360.738	16.127	1076.050	806.759
361.752	16.114	1075.562	806.259
362.767	16.087	1075.064	805.685
363.781	16.199	1074.608	805.807
364.796	16.260	1073.949	805.535
365.810	16.337	1073.522	805.510
366.825	16.358	1073.101	805.223
367.840	16.385	1072.625	804.925
368.854	16.424	1071.672	804.325
369.869	16.241	1071.508	803.260
370.883	16.340	1070.197	802.675
371.898	16.351	1069.156	801.876
372.913	16.436	1068.570	801.766
373.927	16.429	1068.424	801.554
374.942	16.365	1068.015	800.872
375.956	16.448	1067.185	800.572
376.971	16.348	1066.894	799.811
377.986	16.521	1066.096	799.959
379.000	16.550	1065.406	799.507
380.015	16.579	1065.170	799.396
381.029	16.562	1064.415	798.678
382.044	16.587	1063.708	798.197
383.059	16.678	1062.422	797.589
384.073	16.651	1062.321	797.316
385.088	16.651	1061.263	796.454
386.102	16.681	1060.360	795.845
387.117	16.658	1059.162	794.769
388.132	16.647	1058.262	793.969
389.146	16.567	1058.032	793.353
390.161	16.529	1057.003	792.332
391.175	16.675	1056.025	792.210
392.190	16.637	1055.404	791.499
393.205	16.661	1054.887	791.152
394.219	16.856	1054.079	791.386
395.234	16.730	1053.372	790.201
396.248	16.735	1051.822	788.987
397.263	16.676	1051.141	788.133
398.278	16.567	1050.847	787.335
399.292	16.592	1049.863	786.647
400.307	16.638	1048.957	786.109
401.321	16.584	1048.662	785.571
402.336	16.526	1048.082	784.799
403.350	16.715	1046.887	784.707
404.365	16.704	1046.485	784.288
405.380	16.673	1045.688	783.475
406.394	16.919	1044.830	783.901
407.409	16.871	1044.065	783.035
408.423	16.875	1043.550	782.598
409.438	16.897	1042.986	782.209
410.453	17.004	1042.462	782.238
411.467	16.970	1041.767	781.492
412.482	16.978	1041.126	780.982
413.496	17.088	1040.089	780.638
414.511	17.072	1039.911	780.362
415.526	17.015	1039.612	779.807
416.540	17.205	1038.728	779.945
417.555	17.085	1038.251	778.967
418.569	17.165	1037.666	778.829
419.584	17.123	1037.420	778.384
420.599	17.044	1036.713	777.419
421.613	104.552	1324.857	1476.329
422.628	95.839	1366.816	1476.430
