DTS Sentinel unit serial number:	SN413079Multiplexer serial number:	ORYXHardware model number:	OX4-SRSoftware version number:	ORYX F/W v4.00 Oryx Data Collector v3.7.2.0data status	okinstallation	princeton_trtdifferential loss correction	single-endedforward channel	channel 2reverse channel	N/Adate	2019/09/15time	09:23:34forward acquisition time	60.00reverse acquisition time	0.00gamma	496.2192k internal	0.2317k external	0.2317temperature offset calibration	1.0018default loss term (dB/km)	0.3790temperature slope calibration	1.0000multiplexer offset coefficient	1.0000multiplexer slope coefficient	1.0000fibre end	0.00T internal ref (°C)	33.56T ext. ref 1 (°C)	4.96T ext. ref 2 (°C)	30.34length (m)	temperature (°C)	Stokes	anti-Stokes-747.200	-4.663	-0.009	-0.006
-746.185	800.000	0.061	0.188
-745.171	-42.803	-0.301	0.155
-744.156	421.674	-0.139	-0.301
-743.142	800.000	-0.059	-0.208
-742.127	800.000	-0.090	0.390
-741.112	-200.000	0.005	0.142
-740.098	686.263	0.074	0.195
-739.083	-200.000	0.022	0.161
-738.069	-35.180	-0.295	0.163
-737.054	59.888	0.331	0.330
-736.039	800.000	-0.044	0.195
-735.025	-200.000	0.029	0.156
-734.010	-74.418	0.257	0.094
-732.996	-18.275	-0.129	0.081
-731.981	-48.585	0.342	0.166
-730.966	-200.000	0.059	-0.384
-729.952	-121.904	-0.451	0.075
-728.937	29.293	-0.165	-0.142
-727.923	334.723	0.052	0.102
-726.908	800.000	-0.056	0.217
-725.894	-167.607	-0.140	-0.006
-724.879	246.835	0.074	-0.127
-723.864	-152.327	-0.429	-0.031
-722.850	140.325	-0.159	0.212
-721.835	-142.808	-0.065	0.006
-720.821	-42.557	0.267	0.137
-719.806	-45.313	-0.256	0.129
-718.791	-9.136	-0.174	0.118
-717.777	372.579	-0.139	-0.286
-716.762	-7.691	0.230	0.157
-715.748	-82.114	-0.264	0.087
-714.733	480.400	-0.104	-0.239
-713.718	-200.000	0.002	0.126
-712.704	-200.000	0.013	0.229
-711.689	-84.849	0.254	-0.081
-710.675	394.156	-0.090	-0.189
-709.660	-61.669	-0.380	0.161
-708.645	187.503	-0.109	0.164
-707.631	-200.000	0.033	-0.158
-706.616	800.000	-0.072	0.252
-705.602	-13.568	-0.162	0.106
-704.587	52.871	-0.199	0.192
-703.572	146.264	0.205	0.279
-702.558	-110.682	0.383	-0.080
-701.543	604.244	0.120	-0.303
-700.529	236.542	0.135	0.226
-699.514	25.894	-0.245	0.206
-698.499	-175.243	0.175	0.005
-697.485	-200.000	-0.052	-0.486
-696.470	-51.742	-0.393	0.185
-695.456	538.730	-0.089	-0.213
-694.441	-31.813	-0.235	-0.133
-693.426	-200.000	-0.049	0.271
-692.412	-50.871	-0.534	-0.253
-691.397	-28.548	0.062	0.036
-690.383	-22.707	0.271	0.166
-689.368	-177.000	-0.373	0.009
-688.354	692.941	0.063	0.166
-687.339	-200.000	0.044	0.209
-686.324	68.716	0.155	-0.160
-685.310	524.024	0.095	-0.225
-684.295	-138.123	-0.511	0.057
-683.281	-31.676	0.329	-0.186
-682.266	800.000	-0.040	-0.116
-681.251	-95.081	-0.049	0.013
-680.237	184.782	-0.055	-0.082
-679.222	800.000	-0.035	0.124
-678.208	46.339	-0.075	-0.070
-677.193	-200.000	-0.043	0.267
-676.178	-79.479	0.152	-0.052
-675.164	491.915	0.068	-0.157
-674.149	123.711	0.183	-0.232
-673.135	-158.217	-0.286	0.017
-672.120	-48.045	0.122	-0.059
-671.105	-38.629	0.319	-0.170
-670.091	-200.000	0.016	-0.144
-669.076	-200.000	-0.016	-0.083
-668.062	-200.000	0.029	-0.245
-667.047	-142.402	-0.297	-0.030
-666.032	127.058	0.181	-0.231
-665.018	47.540	0.190	-0.179
-664.003	-200.000	0.014	-0.198
-662.989	33.982	0.326	0.286
-661.974	240.448	-0.058	0.098
-660.959	16.861	-0.173	-0.138
-659.945	-185.590	-0.195	-0.003
-658.930	650.705	-0.011	0.029
-657.916	59.273	-0.178	0.176
-656.901	-200.000	0.011	-0.093
-655.886	-200.000	-0.002	0.202
-654.872	800.000	-0.056	0.176
-653.857	-124.979	-0.060	0.009
-652.843	166.284	-0.201	-0.287
-651.828	68.208	-0.066	-0.068
-650.814	-200.000	-0.009	-0.244
-649.799	800.000	0.072	-0.265
-648.784	-59.914	-0.012	0.005
-647.770	-200.000	0.012	0.233
-646.755	105.173	0.048	0.057
-645.741	-104.540	-0.235	-0.055
-644.726	327.230	-0.144	0.279
-643.711	27.978	0.134	-0.114
-642.697	-151.455	-0.012	-0.001
-641.682	-56.117	0.239	0.107
-640.668	-59.068	0.223	-0.097
-639.653	602.123	0.108	0.270
-638.638	-109.582	0.290	-0.062
-637.624	-61.000	-0.279	-0.119
-636.609	-99.163	-0.427	0.109
-635.595	-56.378	0.191	0.086
-634.580	-165.971	0.358	-0.015
-633.565	-154.891	-0.145	-0.010
-632.551	-96.122	-0.325	-0.087
-631.536	-200.000	-0.027	0.128
-630.522	-196.480	0.215	0.001
-629.507	337.336	-0.039	0.077
-628.492	286.720	-0.056	0.101
-627.478	320.350	0.075	0.144
-626.463	670.478	-0.116	-0.303
-625.449	-116.385	-0.219	0.041
-624.434	-18.812	-0.126	-0.079
-623.419	157.977	0.060	-0.084
-622.405	7.064	-0.192	-0.145
-621.390	-86.894	0.318	0.098
-620.376	9.581	0.250	0.191
-619.361	-96.448	0.276	0.073
-618.346	-118.539	-0.083	-0.015
-617.332	602.630	0.082	-0.206
-616.317	-5.150	0.162	-0.112
-615.303	800.000	-0.024	0.068
-614.288	392.898	-0.160	-0.335
-613.273	-59.117	-0.221	-0.096
-612.259	11.236	-0.039	0.030
-611.244	-200.000	0.053	-0.495
-610.230	74.096	0.102	0.108
-609.215	-96.663	0.402	-0.107
-608.201	22.152	0.314	-0.258
-607.186	800.000	0.047	0.133
-606.171	-140.324	-0.401	0.042
-605.157	260.542	-0.030	-0.053
-604.142	-76.226	-0.140	-0.050
-603.128	-200.000	0.004	-0.114
-602.113	-117.434	0.426	0.078
-601.098	-31.103	-0.306	0.174
-600.084	-111.194	-0.058	0.012
-599.069	88.635	0.050	-0.056
-598.055	607.044	0.093	-0.234
-597.040	314.260	-0.181	0.343
-596.025	622.178	0.115	-0.291
-595.011	-156.842	-0.264	-0.016
-593.996	180.894	0.151	0.224
-592.982	-200.000	-0.058	-0.293
-591.967	-200.000	-0.025	-0.240
-590.952	-200.000	-0.023	-0.254
-589.938	-10.006	-0.175	0.117
-588.923	-200.000	0.001	-0.108
-587.909	50.284	0.104	0.099
-586.894	-200.000	0.024	0.147
-585.879	216.932	-0.168	0.269
-584.865	-41.829	-0.156	-0.080
-583.850	406.742	-0.051	-0.108
-582.836	-200.000	-0.017	-0.346
-581.821	-117.675	-0.164	0.030
-580.806	-137.676	-0.174	-0.020
-579.792	-84.342	0.259	0.083
-578.777	800.000	0.089	0.356
-577.763	-200.000	-0.029	-0.277
-576.748	302.265	0.155	-0.288
-575.733	-62.462	0.287	0.120
-574.719	800.000	0.113	0.430
-573.704	-117.146	-0.438	0.080
-572.690	-200.000	-0.063	-0.417
-571.675	-200.000	-0.019	-0.127
-570.661	-39.774	-0.282	0.148
-569.646	-134.264	-0.382	0.047
-568.631	-77.336	-0.227	0.079
-567.617	-9.559	0.354	-0.238
-566.602	-139.283	-0.337	-0.036
-565.588	-75.363	0.419	0.150
-564.573	800.000	-0.089	0.292
-563.558	-117.432	0.151	0.028
-562.544	35.517	-0.141	0.124
-561.529	245.190	-0.138	-0.233
-560.515	164.207	-0.174	0.246
-559.500	-49.554	0.168	-0.081
-558.485	-129.365	-0.158	0.022
-557.471	-32.187	0.223	-0.125
-556.456	-177.003	-0.188	-0.005
-555.442	296.226	0.160	-0.294
-554.427	-12.455	0.210	0.138
-553.412	306.903	-0.021	0.040
-552.398	172.691	0.072	-0.105
-551.383	-49.106	-0.236	-0.113
-550.369	-147.967	-0.355	0.030
-549.354	800.000	0.111	-0.330
-548.339	74.296	0.113	0.119
-547.325	61.583	0.215	-0.215
-546.310	-200.000	-0.005	-0.039
-545.296	458.765	0.062	-0.139
-544.281	-99.162	0.180	0.046
-543.266	800.000	0.098	-0.315
-542.252	319.473	-0.106	-0.202
-541.237	140.323	-0.083	-0.110
-540.223	-146.628	0.102	0.009
-539.208	18.906	-0.354	-0.285
-538.193	-144.940	-0.456	0.042
-537.179	147.450	-0.052	0.071
-536.164	76.677	0.112	-0.119
-535.150	207.087	-0.094	-0.147
-534.135	122.885	-0.146	-0.184
-533.121	-60.806	0.060	-0.025
-532.106	-104.799	-0.221	-0.051
-531.091	404.720	-0.167	0.354
-530.077	93.035	-0.079	-0.090
-529.062	-200.000	0.061	0.454
-528.048	270.062	0.159	0.281
-527.033	-68.988	-0.201	0.078
-526.018	-58.429	-0.262	0.114
-525.004	267.915	0.140	-0.245
-523.989	381.193	0.048	-0.100
-522.975	-184.430	0.171	0.003
-521.960	466.830	-0.092	-0.207
-520.945	-200.000	0.020	0.156
-519.931	-21.437	0.381	-0.233
-518.916	-200.000	0.014	-0.247
-517.902	163.952	0.062	-0.088
-516.887	38.690	-0.224	-0.200
-515.872	-200.000	-0.002	0.085
-514.858	-200.000	-0.028	0.274
-513.843	-88.054	0.349	0.105
-512.829	113.391	0.265	-0.323
-511.814	-25.755	0.256	-0.152
-510.799	631.740	0.091	-0.232
-509.785	168.049	0.078	-0.111
-508.770	-109.611	-0.069	0.015
-507.756	-40.235	-0.217	-0.113
-506.741	507.380	0.091	0.211
-505.726	199.203	-0.095	0.146
-504.712	-3.288	-0.123	0.086
-503.697	277.096	0.074	-0.132
-502.683	-200.000	0.045	0.319
-501.668	89.650	-0.166	-0.186
-500.653	40.264	0.075	-0.067
-499.639	-200.000	0.025	-0.150
-498.624	-87.453	-0.050	-0.015
-497.610	-200.000	0.008	-0.112
-496.595	-200.000	-0.004	-0.255
-495.581	620.405	0.109	-0.276
-494.566	-53.859	0.348	-0.159
-493.551	-47.504	-0.152	-0.074
-492.537	55.778	0.034	0.033
-491.522	8.279	0.052	0.039
-490.508	45.240	-0.088	0.081
-489.493	12.632	-0.232	-0.180
-488.478	800.000	0.015	0.067
-487.464	108.458	-0.171	0.204
-486.449	-104.285	0.079	-0.018
-485.435	-133.782	-0.100	0.012
-484.420	294.978	-0.074	0.136
-483.405	-25.070	-0.131	-0.078
-482.391	-25.566	-0.113	0.067
-481.376	800.000	0.023	0.085
-480.362	98.182	-0.172	0.198
-479.347	-107.173	-0.357	-0.079
-478.332	-200.000	-0.039	-0.284
-477.318	-54.185	0.220	0.100
-476.303	-200.000	-0.010	0.120
-475.289	-81.983	-0.263	-0.086
-474.274	355.500	0.118	0.235
-473.259	-200.000	0.271	0.000
-472.245	430.043	0.084	-0.183
-471.230	-199.939	-0.146	0.001
-470.216	112.338	-0.049	0.059
-469.201	-11.490	-0.211	-0.139
-468.186	-200.000	-0.029	-0.193
-467.172	-136.106	-0.245	0.029
-466.157	-200.000	0.029	0.210
-465.143	-29.035	0.288	0.165
-464.128	-28.492	-0.246	0.142
-463.113	96.305	0.204	0.234
-462.099	-200.000	-0.021	0.200
-461.084	3.582	0.129	0.094
-460.070	800.000	-0.031	-0.099
-459.055	75.399	-0.143	0.151
-458.040	550.150	-0.062	-0.149
-457.026	-21.549	0.144	0.088
-456.011	-110.790	-0.206	0.043
-454.997	-83.344	-0.216	-0.069
-453.982	-77.353	-0.437	-0.152
-452.968	-200.000	0.009	0.234
-451.953	-200.000	0.077	0.374
-450.938	69.224	0.041	0.043
-449.924	-33.026	-0.265	-0.147
-448.909	-67.780	-0.105	-0.041
-447.895	39.537	0.170	-0.153
-446.880	267.258	-0.049	-0.086
-445.865	-200.000	0.003	0.157
-444.851	-16.607	0.300	0.190
-443.836	800.000	-0.030	0.103
-442.822	-17.477	0.321	0.202
-441.807	-108.200	0.227	0.049
-440.792	-11.817	-0.234	0.153
-439.778	-200.000	0.003	-0.081
-438.763	800.000	0.052	0.189
-437.749	-200.000	-0.052	0.249
-436.734	-114.540	0.297	0.057
-435.719	20.902	0.240	-0.195
-434.705	-72.716	0.223	-0.082
-433.690	152.318	0.152	0.208
-432.676	-200.000	-0.041	-0.217
-431.661	171.092	-0.211	-0.302
-430.646	93.700	0.187	0.212
-429.632	231.336	0.133	-0.218
-428.617	-92.570	0.340	-0.095
-427.603	-200.000	-0.032	-0.162
-426.588	-200.000	-0.042	-0.236
-425.573	352.473	-0.042	-0.084
-424.559	114.617	-0.243	-0.296
-423.544	-166.186	0.126	0.005
-422.530	-19.518	-0.232	-0.144
-421.515	33.660	-0.222	-0.193
-420.500	208.712	0.036	-0.056
-419.486	-109.480	-0.187	-0.039
-418.471	-10.492	0.103	-0.069
-417.457	474.094	-0.080	0.181
-416.442	31.263	0.094	-0.080
-415.428	64.027	-0.147	0.147
-414.413	-200.000	-0.047	-0.237
-413.398	123.386	0.248	0.310
-412.384	122.617	0.153	-0.192
-411.369	102.704	-0.079	0.092
-410.355	-120.838	0.247	0.042
-409.340	4.804	-0.174	0.128
-408.325	38.993	0.050	0.044
-407.311	110.515	0.233	0.280
-406.296	-105.718	0.384	-0.087
-405.282	-200.000	-0.002	-0.153
-404.267	208.009	0.128	-0.199
-403.252	146.343	0.090	-0.121
-402.238	29.771	0.109	-0.093
-401.223	277.235	-0.065	-0.116
-400.209	-200.000	-0.032	-0.319
-399.194	69.112	0.069	0.070
-398.179	800.000	-0.052	-0.168
-397.165	449.959	-0.124	0.272
-396.150	-200.000	-0.019	0.091
-395.136	-54.239	0.245	-0.111
-394.121	800.000	-0.110	-0.475
-393.106	45.954	0.202	-0.187
-392.092	293.359	-0.076	-0.138
-391.077	-200.000	0.011	0.250
-390.063	800.000	0.156	0.625
-389.048	-28.725	-0.377	0.217
-388.033	45.793	-0.062	-0.058
-387.019	136.472	-0.172	-0.224
-386.004	251.941	-0.311	-0.529
-384.990	800.000	0.011	0.032
-383.975	-199.359	0.252	0.001
-382.960	-126.184	0.184	-0.027
-381.946	-77.968	-0.134	0.046
-380.931	71.012	-0.113	0.117
-379.917	-46.028	0.306	0.151
-378.902	14.501	-0.057	0.044
-377.888	340.966	-0.131	-0.255
-376.873	-84.122	0.352	0.111
-375.858	-200.000	0.008	0.281
-374.844	283.405	0.166	0.298
-373.829	206.752	-0.080	0.124
-372.815	800.000	0.031	-0.124
-371.800	112.760	-0.277	0.335
-370.785	-140.561	0.168	-0.017
-369.771	-54.223	0.069	-0.031
-368.756	-200.000	-0.022	-0.288
-367.742	36.268	-0.284	-0.250
-366.727	-177.019	0.279	-0.007
-365.712	-76.607	0.276	-0.097
-364.698	475.613	0.090	0.202
-363.683	185.505	0.093	0.138
-362.669	344.792	-0.184	-0.361
-361.654	-200.000	-0.017	0.123
-360.639	-180.105	-0.161	0.003
-359.625	3.746	0.227	-0.166
-358.610	-200.000	-0.007	-0.117
-357.596	364.627	0.053	0.106
-356.581	-59.987	0.298	0.127
-355.566	-179.827	-0.089	0.002
-354.552	19.746	0.304	-0.244
-353.537	-11.150	0.202	0.133
-352.523	-25.565	0.100	-0.059
-351.508	-110.000	0.072	0.015
-350.493	-118.215	-0.174	0.031
-349.479	159.221	-0.259	0.359
-348.464	-75.634	0.176	0.062
-347.450	-200.000	0.011	0.107
-346.435	-38.619	0.241	0.127
-345.420	800.000	-0.079	0.332
-344.406	-123.446	-0.129	0.020
-343.391	76.197	0.033	0.035
-342.377	57.142	-0.221	-0.215
-341.362	136.466	-0.203	-0.264
-340.348	-141.497	-0.182	0.018
-339.333	-113.665	-0.527	0.102
-338.318	71.328	0.199	-0.205
-337.304	-140.146	-0.092	0.010
-336.289	800.000	-0.116	0.391
-335.275	-200.000	0.004	-0.144
-334.260	43.776	-0.197	0.180
-333.245	24.284	0.235	0.193
-332.231	360.006	0.139	-0.277
-331.216	788.196	0.105	0.287
-330.202	-125.181	-0.182	0.028
-329.187	-156.816	0.215	-0.013
-328.172	-98.243	0.122	-0.031
-327.158	800.000	-0.049	-0.158
-326.143	-107.598	-0.061	-0.013
-325.129	23.190	-0.087	0.071
-324.114	71.253	0.181	0.187
-323.099	87.436	0.205	-0.226
-322.085	257.823	-0.181	-0.310
-321.070	-41.094	-0.377	0.194
-320.056	-147.213	-0.066	0.006
-319.041	18.111	-0.105	0.084
-318.026	-24.326	-0.045	0.027
-317.012	-200.000	-0.013	-0.085
-315.997	589.694	-0.078	-0.192
-314.983	14.059	0.376	0.291
-313.968	-107.201	-0.471	-0.103
-312.953	635.191	0.084	-0.212
-311.939	-200.000	0.001	-0.028
-310.924	800.000	-0.050	0.159
-309.910	-28.620	-0.101	0.058
-308.895	340.452	0.105	-0.203
-307.880	370.165	-0.051	0.102
-306.866	9.940	-0.167	0.126
-305.851	-200.000	0.007	-0.207
-304.837	-51.723	-0.226	-0.105
-303.822	-200.000	0.032	-0.168
-302.807	649.426	0.104	0.265
-301.793	-200.000	-0.010	0.165
-300.778	-200.000	-0.003	-0.066
-299.764	-37.435	0.128	-0.068
-298.749	-103.312	0.074	-0.017
-297.735	800.000	-0.111	0.378
-296.720	-200.000	-0.005	0.116
-295.705	800.000	-0.040	-0.129
-294.691	-200.000	-0.024	-0.115
-293.676	152.559	0.052	-0.070
-292.662	1.344	-0.273	-0.195
-291.647	-200.000	-0.020	0.148
-290.632	-121.195	-0.176	-0.029
-289.618	-102.631	-0.180	0.043
-288.603	684.759	0.122	-0.318
-287.589	-3.459	-0.144	0.100
-286.574	225.361	0.072	-0.117
-285.559	35.116	-0.147	-0.128
-284.545	164.876	-0.204	-0.286
-283.530	-125.629	0.266	0.040
-282.516	-33.460	0.255	0.140
-281.501	-54.387	-0.065	-0.030
-280.486	-200.000	-0.020	0.311
-279.472	436.647	-0.145	0.314
-278.457	-48.530	-0.197	0.094
-277.443	-200.000	0.045	-0.303
-276.428	51.950	-0.285	-0.269
-275.413	-85.742	0.133	-0.041
-274.399	-83.796	-0.231	0.073
-273.384	408.040	0.213	-0.449
-272.370	-42.025	-0.263	0.134
-271.355	-66.557	-0.229	-0.090
-270.340	431.615	0.029	0.063
-269.326	481.217	0.106	0.238
-268.311	283.214	-0.154	0.275
-267.297	800.000	-0.064	0.278
-266.282	124.602	-0.096	-0.120
-265.267	-74.561	-0.123	0.044
-264.253	-200.000	-0.036	-0.330
-263.238	315.442	-0.081	-0.152
-262.224	77.339	0.084	0.089
-261.209	182.753	-0.218	0.320
-260.195	-20.453	0.244	-0.149
-259.180	-0.330	0.150	-0.106
-258.165	-122.895	-0.167	-0.027
-257.151	-185.258	0.339	-0.005
-256.136	26.827	-0.198	0.165
-255.122	-114.830	0.437	0.083
-254.107	371.153	0.037	-0.074
-253.092	-82.801	-0.069	-0.022
-252.078	-42.040	0.143	0.073
-251.063	-200.000	0.002	-0.076
-250.049	-126.030	-0.347	0.052
-249.034	-200.000	0.012	-0.118
-248.019	159.047	-0.213	-0.294
-247.005	-117.976	-0.187	0.033
-245.990	-30.565	-0.279	0.157
-244.976	6.407	0.328	0.242
-243.961	-107.515	0.230	-0.050
-242.946	163.671	0.172	-0.240
-241.932	733.015	0.046	-0.122
-240.917	-200.000	0.024	0.240
-239.903	-162.807	-0.061	0.003
-238.888	-157.622	0.067	0.004
-237.873	-191.013	0.257	0.003
-236.859	-165.018	0.312	-0.014
-235.844	208.136	-0.127	0.198
-234.830	72.450	-0.164	0.169
-233.815	-87.395	0.128	-0.039
-232.800	-32.006	-0.308	0.171
-231.786	22.713	0.227	-0.184
-230.771	-200.000	0.043	-0.292
-229.757	-61.836	0.387	0.161
-228.742	90.778	0.114	0.127
-227.727	52.017	0.156	-0.147
-226.713	47.912	-0.070	0.065
-225.698	304.718	0.205	-0.378
-224.684	-34.761	0.118	0.064
-223.669	-78.570	0.230	0.078
-222.655	-200.000	-0.005	0.099
-221.640	444.848	-0.149	0.324
-220.625	212.735	-0.149	0.233
-219.611	-93.719	0.323	-0.088
-218.596	-200.000	0.095	0.477
-217.582	52.329	0.413	0.391
-216.567	99.825	-0.072	0.083
-215.552	-16.570	0.186	0.117
-214.538	16.081	0.192	-0.150
-213.523	174.097	-0.255	-0.365
-212.509	800.000	0.076	0.299
-211.494	-109.577	0.336	0.070
-210.479	-45.922	0.344	0.168
-209.465	595.114	0.067	-0.165
-208.450	240.936	-0.181	0.299
-207.436	-31.680	0.070	0.039
-206.421	499.864	-0.037	0.085
-205.406	5.291	-0.092	0.067
-204.392	191.725	-0.132	0.198
-203.377	83.959	-0.409	0.443
-202.363	-200.000	0.015	0.201
-201.348	-200.000	0.222	-0.000
-200.333	-33.532	-0.144	-0.079
-199.319	-114.030	0.258	0.050
-198.304	-200.000	0.013	0.319
-197.290	-157.480	-0.085	-0.005
-196.275	-79.459	-0.231	0.078
-195.260	-200.000	0.013	-0.168
-194.246	-58.194	0.047	0.020
-193.231	560.627	0.107	0.255
-192.217	800.000	-0.032	-0.092
-191.202	800.000	-0.046	0.153
-190.187	254.614	0.134	0.228
-189.173	-67.307	-0.198	0.077
-188.158	8.947	-0.268	-0.200
-187.144	-3.165	0.143	-0.099
-186.129	6.713	0.137	0.101
-185.114	193.028	0.024	-0.036
-184.100	6.531	-0.076	0.056
-183.085	467.455	0.117	-0.260
-182.071	-197.873	-0.147	0.001
-181.056	-45.109	0.165	-0.081
-180.042	229.635	0.115	0.186
-179.027	308.836	0.098	0.182
-178.012	120.863	-0.069	0.085
-176.998	26.856	-0.335	0.278
-175.983	-200.000	0.001	-0.058
-174.969	800.000	-0.031	-0.109
-173.954	-200.000	-0.020	-0.128
-172.939	300.805	0.124	0.227
-171.925	-200.000	-0.042	0.268
-170.910	-48.336	0.162	0.077
-169.896	-200.000	-0.033	-0.206
-168.881	-131.877	-0.209	0.027
-167.866	-200.000	0.005	-0.538
-166.852	-80.915	0.150	-0.049
-165.837	8.243	-0.078	-0.058
-164.823	-60.499	0.196	-0.083
-163.808	-130.077	0.291	0.039
-162.793	30.997	0.133	0.113
-161.779	-9.369	0.100	-0.066
-160.764	-200.000	-0.031	-0.192
-159.750	-100.892	-0.500	0.122
-158.735	-200.000	0.002	0.492
-157.720	-120.330	-0.263	0.044
-156.706	800.000	0.044	0.175
-155.691	-200.000	0.075	-0.333
-154.677	-200.000	0.010	0.045
-153.662	-108.491	-0.227	-0.048
-152.647	-200.000	-0.009	0.052
-151.633	-93.687	0.195	-0.053
-150.618	-59.796	0.259	0.110
-149.604	184.187	0.173	0.254
-148.589	8.034	0.099	-0.073
-147.574	402.940	0.076	-0.158
-146.560	131.801	-0.141	0.179
-145.545	-67.885	-0.154	-0.059
-144.531	800.000	0.053	0.177
-143.516	-12.407	0.028	-0.018
-142.502	260.882	0.276	-0.473
-141.487	800.000	0.018	0.066
-140.472	-134.154	0.094	-0.011
-139.458	800.000	0.108	0.366
-138.443	-126.205	0.239	0.035
-137.429	-89.143	0.535	-0.156
-136.414	-49.150	0.149	0.071
-135.399	-115.798	0.172	-0.032
-134.385	-136.685	-0.164	-0.019
-133.370	-200.000	-0.003	0.074
-132.356	-31.668	-0.136	0.075
-131.341	234.777	0.130	0.211
-130.326	-200.000	-0.027	-0.137
-129.312	-116.685	0.184	0.033
-128.297	-200.000	0.026	-0.152
-127.283	800.000	0.064	-0.242
-126.268	-200.000	0.009	-0.271
-125.253	-165.784	0.160	0.007
-124.239	-57.603	0.138	-0.060
-123.224	192.151	-0.157	0.234
-122.210	-115.017	-0.476	-0.089
-121.195	-6.819	0.193	-0.130
-120.180	-200.000	0.102	0.511
-119.166	47.068	0.256	0.236
-118.151	-33.234	0.126	-0.069
-117.137	-200.000	0.065	-0.402
-116.122	-145.645	-0.106	0.009
-115.107	35.108	-0.119	0.103
-114.093	-95.437	0.409	-0.109
-113.078	-78.881	-0.218	0.073
-112.064	453.857	0.057	0.126
-111.049	-104.481	-0.432	-0.099
-110.034	654.261	0.040	-0.102
-109.020	85.984	-0.144	-0.157
-108.005	-7.348	-0.114	-0.076
-106.991	-150.832	0.285	-0.021
-105.976	303.536	-0.040	0.073
-104.962	800.000	0.027	0.102
-103.947	-198.597	-0.158	0.001
-102.932	22.647	0.085	-0.068
-101.918	8.370	0.177	0.132
-100.903	-114.079	0.388	-0.074
-99.889	42.726	-0.195	-0.175
-98.874	74.977	0.020	0.021
-97.859	40.134	0.183	0.162
-96.845	-200.000	-0.002	-0.051
-95.830	4.087	-0.127	-0.092
-94.816	800.000	0.067	0.209
-93.801	408.337	0.015	-0.031
-92.786	-114.399	-0.329	0.062
-91.772	-86.260	-0.158	0.048
-90.757	-81.511	-0.147	0.048
-89.743	-200.000	0.028	0.205
-88.728	170.935	0.173	0.245
-87.713	-57.136	0.169	-0.073
-86.699	-67.365	0.338	0.131
-85.684	183.809	0.067	0.097
-84.670	-177.842	-0.157	-0.004
-83.655	800.000	-0.055	0.189
-82.640	800.000	-0.014	0.048
-81.626	-200.000	-0.020	-0.095
-80.611	-200.000	0.065	-0.290
-79.597	357.943	-0.018	0.035
-78.582	58.242	-0.093	0.090
-77.567	-125.805	-0.187	-0.028
-76.553	-200.000	-0.028	-0.176
-75.538	-200.000	0.004	-0.024
-74.524	12.844	0.154	-0.117
-73.509	-143.604	0.130	0.012
-72.494	-67.886	-0.225	0.087
-71.480	-200.000	0.043	0.201
-70.465	-200.000	-0.030	0.340
-69.451	-113.466	0.323	0.062
-68.436	-115.045	-0.269	-0.050
-67.422	800.000	-0.052	-0.171
-66.407	628.052	-0.031	-0.077
-65.392	188.107	0.156	0.230
-64.378	59.544	0.119	-0.116
-63.363	-34.004	-0.333	0.181
-62.349	-136.881	0.453	-0.051
-61.334	88.263	-0.856	-0.937
-60.319	724.260	0.278	0.729
-59.305	800.000	-0.249	-0.701
-58.290	-200.000	0.195	1.288
-57.276	369.883	0.842	1.681
-56.261	-200.000	98.004	582.122
-55.246	623.733	1417.493	3520.394
-54.232	183.709	2633.434	3838.369
-53.217	113.072	2315.300	2766.575
-52.203	42.913	1924.550	1728.973
-51.188	36.803	1711.853	1490.958
-50.173	34.039	1667.549	1431.549
-49.159	51.573	1716.488	1607.800
-48.144	54.518	1732.759	1645.416
-47.130	36.480	1689.833	1469.091
-46.115	33.596	1674.661	1434.072
-45.100	33.436	1669.867	1428.708
-44.086	33.527	1666.719	1426.642
-43.071	33.473	1664.498	1424.275
-42.057	33.470	1661.843	1421.925
-41.042	33.390	1660.100	1419.776
-40.027	33.415	1657.955	1418.077
-39.013	33.393	1656.127	1416.287
-37.998	33.387	1654.541	1414.835
-36.984	33.421	1653.306	1413.973
-35.969	33.562	1651.837	1413.715
-34.954	33.691	1649.828	1412.902
-33.940	33.588	1647.677	1410.232
-32.925	33.625	1645.370	1408.482
-31.911	33.588	1644.468	1407.379
-30.896	33.539	1643.177	1405.855
-29.881	33.524	1641.133	1403.937
-28.867	33.589	1638.980	1402.518
-27.852	33.544	1638.397	1401.634
-26.838	33.513	1636.095	1399.378
-25.823	33.564	1635.060	1398.811
-24.809	33.721	1633.629	1398.695
-23.794	33.555	1632.004	1396.020
-22.779	33.607	1630.685	1395.219
-21.765	33.610	1628.652	1393.446
-20.750	33.562	1627.251	1391.842
-19.736	33.552	1625.335	1390.075
-18.721	33.547	1624.295	1389.090
-17.706	33.637	1622.472	1388.137
-16.692	33.479	1621.511	1386.104
-15.677	33.624	1619.839	1385.684
-14.663	33.586	1618.317	1384.043
-13.648	33.556	1617.318	1382.916
-12.633	33.613	1615.286	1381.540
-11.619	33.556	1614.057	1380.023
-10.604	33.640	1612.504	1379.249
-9.590	33.600	1611.044	1377.656
-8.575	33.556	1609.480	1375.943
-7.560	33.674	1608.387	1375.810
-6.546	33.561	1607.773	1374.412
-5.531	33.600	1606.383	1373.449
-4.517	33.661	1604.829	1372.506
-3.502	33.585	1603.944	1371.147
-2.487	33.696	1602.386	1370.560
-1.473	33.541	1591.035	1359.691
-0.458	31.174	1572.350	1326.864
0.556	26.787	1572.472	1295.329
1.571	24.432	1596.991	1298.294
2.586	23.777	1610.312	1304.202
3.600	20.976	1556.016	1240.220
4.615	12.927	1445.977	1098.986
5.629	6.150	1381.949	1006.949
6.644	5.036	1374.145	994.072
7.659	5.000	1372.273	992.405
8.673	4.930	1371.118	991.034
9.688	4.885	1369.726	989.654
10.702	4.810	1366.783	986.964
11.717	8.014	1372.827	1011.615
12.731	15.529	1386.588	1069.699
13.746	19.494	1392.255	1099.279
14.761	18.681	1389.548	1091.881
15.775	17.637	1386.608	1082.837
16.790	16.497	1383.972	1073.455
17.804	15.708	1381.707	1066.598
18.819	15.229	1380.324	1062.399
19.834	14.976	1378.610	1059.386
20.848	14.686	1378.125	1057.084
21.863	14.467	1376.829	1054.607
22.877	14.413	1375.537	1053.185
23.892	14.414	1374.367	1052.204
24.907	14.355	1373.520	1051.089
25.921	14.306	1373.573	1050.728
26.936	14.450	1371.829	1050.210
27.950	14.515	1370.940	1049.841
28.965	14.534	1369.821	1049.015
29.980	14.614	1368.622	1048.504
30.994	14.588	1367.720	1047.559
32.009	14.715	1366.399	1047.253
33.023	14.665	1365.020	1045.784
34.038	14.591	1363.796	1044.291
35.053	14.512	1362.660	1042.840
36.067	14.523	1361.421	1041.863
37.082	14.538	1360.481	1041.145
38.096	14.570	1359.341	1040.382
39.111	14.615	1358.563	1039.978
40.126	14.555	1357.870	1038.977
41.140	14.421	1356.619	1037.099
42.155	14.331	1356.714	1036.519
43.169	14.330	1356.353	1036.145
44.184	14.256	1356.139	1035.427
45.199	14.342	1355.210	1035.162
46.213	14.492	1354.792	1035.685
47.228	14.508	1353.762	1034.905
48.242	14.499	1352.809	1034.024
49.257	14.427	1351.149	1032.222
50.271	14.511	1349.664	1031.516
51.286	14.572	1348.515	1030.923
52.301	14.482	1347.048	1029.152
53.315	14.413	1346.094	1027.906
54.330	14.387	1344.846	1026.707
55.344	14.290	1344.082	1025.435
56.359	14.299	1342.879	1024.479
57.374	14.365	1341.463	1023.715
58.388	14.240	1341.070	1022.558
59.403	14.309	1340.469	1022.433
60.417	14.206	1340.142	1021.456
61.432	14.101	1339.592	1020.305
62.447	14.197	1337.614	1019.295
63.461	14.197	1336.936	1018.687
64.476	14.166	1335.351	1017.203
65.490	14.179	1334.404	1016.471
66.505	14.251	1332.666	1015.497
67.520	14.138	1331.973	1014.186
68.534	14.204	1330.876	1013.666
69.549	14.116	1330.237	1012.552
70.563	14.158	1329.007	1011.783
71.578	14.136	1327.647	1010.526
72.593	14.076	1326.754	1009.388
73.607	14.061	1325.876	1008.541
74.622	14.092	1324.942	1007.929
75.636	14.041	1324.435	1007.146
76.651	14.063	1323.998	1006.857
77.666	14.069	1323.694	1006.573
78.680	14.070	1323.182	1006.104
79.695	14.157	1322.083	1005.701
80.709	14.207	1321.373	1005.379
81.724	14.287	1320.528	1005.127
82.739	14.406	1319.364	1004.872
83.753	14.278	1318.887	1003.647
84.768	14.536	1317.449	1004.015
85.782	14.487	1316.708	1003.070
86.797	14.510	1315.117	1001.903
87.812	14.446	1313.974	1000.560
88.826	14.393	1312.794	999.256
89.841	14.449	1311.818	998.759
90.855	14.483	1310.746	998.059
91.870	14.481	1310.443	997.731
92.884	14.538	1309.025	996.905
93.899	14.568	1308.458	996.559
94.914	14.611	1307.323	995.867
95.928	14.643	1306.964	995.694
96.943	14.483	1306.131	994.017
97.957	14.508	1304.955	993.187
98.972	14.515	1304.354	992.680
99.987	14.492	1303.259	991.624
101.001	14.579	1301.759	990.911
102.016	14.420	1301.002	989.304
103.030	14.500	1300.334	989.185
104.045	14.547	1299.241	988.543
105.060	14.505	1297.732	987.060
106.074	14.428	1296.468	985.556
107.089	14.328	1294.984	983.747
108.103	14.168	1294.650	982.460
109.118	14.225	1292.730	981.251
110.133	14.180	1291.428	979.915
111.147	14.250	1290.120	979.249
112.162	14.309	1288.671	978.409
113.176	14.278	1287.562	977.298
114.191	14.374	1286.903	977.271
115.206	14.341	1285.555	975.971
116.220	14.306	1284.344	974.757
117.235	14.351	1283.464	974.266
118.249	14.341	1282.340	973.268
119.264	14.329	1281.271	972.303
120.279	14.368	1280.042	971.512
121.293	14.309	1279.059	970.338
122.308	14.229	1278.399	969.280
123.322	14.153	1277.355	967.964
124.337	14.131	1276.019	966.736
125.352	14.192	1275.024	966.251
126.366	14.209	1274.013	965.501
127.381	14.311	1272.653	964.977
128.395	14.161	1272.359	963.797
129.410	14.286	1270.745	963.215
130.424	14.276	1270.263	962.703
131.439	14.295	1269.733	962.328
132.454	14.308	1268.540	961.412
133.468	14.449	1267.320	961.214
134.483	14.312	1266.918	960.035
135.497	14.344	1266.237	959.621
136.512	14.341	1264.996	958.580
137.527	14.476	1262.833	957.629
138.541	14.400	1261.777	956.307
139.556	14.381	1260.969	955.499
140.570	14.484	1259.895	955.196
141.585	14.517	1258.551	954.280
142.600	14.561	1257.179	953.408
143.614	14.604	1256.150	952.789
144.629	14.638	1255.132	952.125
145.643	14.504	1254.422	950.735
146.658	14.576	1252.850	949.871
147.673	14.529	1251.171	948.247
148.687	14.409	1250.228	946.765
149.702	14.352	1249.316	945.669
150.716	14.391	1247.867	944.707
151.731	14.353	1246.919	943.695
152.746	14.418	1245.164	942.648
153.760	14.460	1243.983	941.911
154.775	14.611	1243.247	942.119
155.789	14.559	1241.671	940.548
156.804	14.444	1241.440	939.644
157.819	14.632	1239.554	939.192
158.833	14.553	1239.499	938.623
159.848	14.632	1238.359	938.118
160.862	14.673	1237.625	937.711
161.877	14.612	1236.354	936.325
162.892	14.456	1235.191	934.485
163.906	14.471	1234.307	933.819
164.921	14.612	1233.189	933.679
165.935	14.672	1232.112	933.115
166.950	14.623	1231.877	932.578
167.964	14.530	1231.309	931.550
168.979	14.608	1230.629	931.386
169.994	14.684	1229.092	930.566
171.008	14.599	1228.929	929.885
172.023	14.753	1227.888	929.875
173.037	14.721	1227.377	929.225
174.052	14.668	1226.556	928.226
175.067	14.591	1225.370	926.819
176.081	14.690	1223.957	926.219
177.096	14.579	1223.497	925.175
178.110	14.606	1222.509	924.493
179.125	14.595	1221.258	923.406
180.140	14.754	1220.094	923.320
181.154	14.665	1218.963	921.896
182.169	14.636	1217.629	920.643
183.183	14.705	1216.713	920.250
184.198	14.868	1215.149	919.880
185.213	14.826	1214.312	918.937
186.227	14.834	1213.443	918.243
187.242	14.914	1212.136	917.609
188.256	14.992	1211.151	917.209
189.271	15.011	1209.899	916.287
190.286	14.910	1208.861	914.865
191.300	14.706	1208.290	913.237
192.315	14.659	1207.608	912.385
193.329	14.638	1207.011	911.736
194.344	14.637	1206.551	911.304
195.359	14.723	1205.982	911.263
196.373	14.878	1205.264	911.482
197.388	14.994	1204.333	911.333
198.402	14.966	1204.434	911.174
199.417	15.115	1203.672	911.326
200.432	15.208	1202.888	911.157
201.446	15.158	1201.904	910.060
202.461	15.200	1201.119	909.615
203.475	15.252	1200.248	909.156
204.490	15.115	1198.525	907.032
205.504	15.173	1197.205	906.264
206.519	15.056	1196.600	905.092
207.534	15.046	1195.623	904.222
208.548	15.007	1194.724	903.252
209.563	15.030	1193.941	902.704
210.577	15.196	1192.192	902.196
211.592	15.136	1191.801	901.497
212.607	15.208	1190.960	901.165
213.621	15.301	1190.157	900.981
214.636	15.168	1189.361	899.582
215.650	15.245	1188.326	899.134
216.665	15.298	1187.249	898.521
217.680	15.466	1186.346	898.659
218.694	15.414	1185.823	897.906
219.709	15.349	1185.073	896.911
220.723	15.438	1183.974	896.476
221.738	15.396	1183.355	895.703
222.753	15.310	1183.010	894.903
223.767	15.280	1181.880	893.811
224.782	15.511	1181.026	894.315
225.796	15.489	1180.917	894.038
226.811	15.468	1180.130	893.252
227.826	15.473	1179.013	892.350
228.840	15.398	1178.597	891.560
229.855	15.508	1177.810	891.468
230.869	15.525	1176.842	890.747
231.884	15.356	1176.198	889.285
232.899	15.369	1175.447	888.708
233.913	15.328	1174.817	887.936
234.928	15.380	1173.785	887.355
235.942	15.345	1172.796	886.340
236.957	15.321	1172.199	885.685
237.972	15.385	1171.498	885.412
238.986	15.271	1171.320	884.602
240.001	15.361	1170.443	884.334
241.015	15.391	1169.148	883.434
242.030	15.401	1168.924	883.241
243.045	15.566	1167.293	882.798
244.059	15.639	1166.771	882.707
245.074	15.566	1165.952	881.628
246.088	15.571	1165.600	881.311
247.103	15.588	1164.712	880.651
248.117	15.635	1163.880	880.188
249.132	15.852	1163.326	880.824
250.147	15.892	1162.606	880.411
251.161	15.951	1161.632	879.905
252.176	15.881	1161.246	879.171
253.190	15.912	1160.934	879.018
254.205	16.069	1160.087	879.116
255.220	15.978	1159.665	878.247
256.234	15.990	1159.147	877.840
257.249	16.003	1158.475	877.319
258.263	16.070	1157.343	876.731
259.278	16.054	1156.759	876.128
260.293	16.041	1156.289	875.628
261.307	16.013	1155.778	875.017
262.322	16.138	1155.016	875.011
263.336	16.374	1154.218	875.555
264.351	16.182	1153.774	874.143
265.366	16.143	1153.350	873.543
266.380	16.248	1152.222	873.157
267.395	16.183	1151.416	872.133
268.409	16.107	1151.366	871.626
269.424	16.012	1150.398	870.325
270.439	16.106	1149.831	870.304
271.453	16.140	1148.862	869.670
272.468	16.059	1147.904	868.447
273.482	16.118	1146.753	867.804
274.497	16.086	1146.207	867.150
275.512	16.097	1145.884	866.884
276.526	16.068	1145.127	866.089
277.541	16.168	1144.309	865.906
278.555	16.181	1143.754	865.473
279.570	16.237	1143.314	865.354
280.585	16.312	1142.205	864.822
281.599	16.305	1141.420	864.116
282.614	16.277	1140.501	863.198
283.628	16.273	1139.206	862.120
284.643	16.217	1138.392	861.142
285.657	16.319	1137.317	860.772
286.672	16.313	1136.713	860.211
287.687	16.358	1136.130	859.923
288.701	16.357	1134.765	858.808
289.716	16.421	1134.256	858.671
290.730	16.320	1133.839	857.766
291.745	16.372	1133.105	857.400
292.760	16.385	1132.337	856.808
293.774	16.520	1132.215	857.323
294.789	16.465	1131.500	856.430
295.803	16.543	1130.561	856.037
296.818	16.522	1129.418	854.991
297.833	16.446	1128.891	854.130
298.847	16.432	1128.572	853.743
299.862	16.576	1127.520	853.598
300.876	16.402	1126.886	852.165
301.891	16.574	1126.458	852.636
302.906	16.710	1125.322	852.384
303.920	16.710	1125.106	852.146
304.935	16.725	1124.486	851.675
305.949	16.755	1123.972	851.361
306.964	16.748	1123.109	850.597
307.979	16.719	1122.251	849.726
308.993	16.713	1121.303	848.903
310.008	16.715	1120.603	848.307
311.022	16.842	1119.918	848.351
312.037	16.791	1119.041	847.357
313.052	16.779	1118.045	846.465
314.066	16.674	1117.313	845.314
315.081	16.707	1116.242	844.593
316.095	16.747	1115.041	843.811
317.110	16.638	1114.611	842.863
318.125	16.706	1114.006	842.672
319.139	16.691	1113.114	841.849
320.154	16.679	1112.687	841.390
321.168	16.660	1112.201	840.853
322.183	16.768	1111.745	840.974
323.197	16.700	1111.174	840.131
324.212	16.744	1110.148	839.495
325.227	16.691	1110.051	839.087
326.241	16.828	1108.928	838.842
327.256	16.782	1107.716	837.625
328.270	16.775	1107.452	837.317
329.285	16.816	1106.225	836.517
330.300	16.781	1105.477	835.701
331.314	16.809	1104.414	834.962
332.329	16.835	1103.386	834.241
333.343	16.888	1102.871	834.037
334.358	16.936	1102.044	833.574
335.373	16.920	1101.340	832.890
336.387	16.952	1100.162	832.082
337.402	16.985	1099.555	831.711
338.416	17.065	1098.994	831.605
339.431	16.946	1098.652	830.692
340.446	17.027	1098.061	830.566
341.460	17.202	1096.825	830.411
342.475	17.156	1096.408	829.798
343.489	17.236	1095.263	829.248
344.504	17.304	1094.399	828.852
345.519	17.274	1093.627	828.048
346.533	17.287	1093.113	827.648
347.548	17.403	1092.610	827.760
348.562	17.294	1091.711	826.475
349.577	17.286	1090.658	825.568
350.592	17.258	1089.562	824.529
351.606	17.174	1088.691	823.392
352.621	17.097	1088.206	822.579
353.635	17.141	1087.551	822.222
354.650	17.140	1086.690	821.492
355.665	17.167	1086.223	821.198
356.679	17.192	1085.838	820.955
357.694	17.249	1085.112	820.607
358.708	17.322	1084.560	820.473
359.723	17.298	1083.836	819.737
360.738	17.358	1082.810	819.175
361.752	17.382	1082.707	819.140
362.767	17.379	1082.045	818.553
363.781	17.431	1081.413	818.252
364.796	17.485	1080.908	818.059
365.810	17.463	1080.644	817.678
366.825	17.489	1080.223	817.415
367.840	17.584	1079.507	817.256
368.854	17.729	1078.448	817.076
369.869	17.593	1077.552	815.674
370.883	17.684	1076.982	815.608
371.898	17.596	1076.228	814.539
372.913	17.584	1075.469	813.837
373.927	17.684	1075.211	814.049
374.942	17.700	1074.507	813.521
375.956	17.632	1074.077	812.798
376.971	17.682	1073.532	812.553
377.986	17.668	1073.135	812.112
379.000	17.781	1072.585	812.160
380.015	17.945	1071.682	812.186
381.029	17.764	1071.258	810.931
382.044	17.822	1070.459	810.532
383.059	17.842	1069.401	809.757
384.073	18.026	1068.849	810.136
385.088	17.885	1067.794	808.596
386.102	17.819	1067.169	807.742
387.117	17.827	1066.301	807.049
388.132	17.826	1065.194	806.135
389.146	17.714	1064.617	805.098
390.161	17.835	1063.449	804.714
391.175	17.723	1063.137	803.880
392.190	17.872	1062.139	803.755
393.205	17.881	1061.657	803.361
394.219	18.083	1060.455	803.331
395.234	17.966	1059.676	802.123
396.248	17.883	1058.896	801.071
397.263	17.779	1057.826	799.704
398.278	17.893	1057.120	799.632
399.292	17.916	1056.364	799.096
400.307	17.767	1056.077	798.112
401.321	17.894	1055.466	798.172
402.336	17.847	1054.584	797.217
403.350	17.897	1053.891	796.853
404.365	17.900	1053.305	796.354
405.380	18.010	1052.415	796.127
406.394	17.996	1051.358	795.191
407.409	18.060	1051.018	795.162
408.423	18.071	1050.174	794.503
409.438	18.178	1049.651	794.534
410.453	18.131	1049.383	794.043
411.467	18.394	1048.192	794.289
412.482	18.277	1047.773	793.358
413.496	18.218	1047.107	792.511
414.511	18.353	1046.532	792.633
415.526	18.372	1046.343	792.505
416.540	18.414	1045.322	791.855
417.555	18.408	1044.532	791.160
418.569	18.297	1044.666	790.678
419.584	18.405	1043.986	790.593
420.599	18.439	1043.226	790.103
421.613	148.030	1400.967	1791.009
422.628	135.411	1453.098	1791.112
