DTS Sentinel unit serial number:	SN413079Multiplexer serial number:	ORYXHardware model number:	OX4-SRSoftware version number:	ORYX F/W v4.00 Oryx Data Collector v3.7.2.0data status	okinstallation	princeton_trtdifferential loss correction	single-endedforward channel	channel 2reverse channel	N/Adate	2019/09/14time	23:31:34forward acquisition time	60.00reverse acquisition time	0.00gamma	496.2192k internal	0.2324k external	0.2324temperature offset calibration	1.0052default loss term (dB/km)	0.3790temperature slope calibration	1.0000multiplexer offset coefficient	1.0000multiplexer slope coefficient	1.0000fibre end	0.00T internal ref (°C)	32.31T ext. ref 1 (°C)	4.64T ext. ref 2 (°C)	27.36length (m)	temperature (°C)	Stokes	anti-Stokes-747.200	-81.334	-0.169	-0.056
-746.185	42.501	0.249	0.229
-745.171	800.000	0.056	0.215
-744.156	-65.498	-0.148	-0.060
-743.142	133.108	-0.135	-0.177
-742.127	-2.360	-0.329	0.233
-741.112	97.520	-0.086	-0.100
-740.098	-94.214	-0.159	-0.044
-739.083	59.395	-0.231	-0.230
-738.069	-84.842	-0.302	0.096
-737.054	-161.505	-0.336	0.017
-736.039	-5.495	-0.174	0.120
-735.025	-200.000	-0.023	0.146
-734.010	35.100	0.082	0.072
-732.996	58.713	-0.212	0.210
-731.981	800.000	0.058	0.245
-730.966	800.000	-0.062	0.244
-729.952	-124.925	-0.357	-0.055
-728.937	406.400	-0.123	-0.262
-727.923	-200.000	-0.059	0.392
-726.908	-115.407	0.066	-0.013
-725.894	87.605	-0.147	-0.164
-724.879	-26.291	-0.092	0.054
-723.864	-200.000	-0.178	-0.000
-722.850	-140.275	0.327	-0.034
-721.835	-62.334	-0.291	-0.122
-720.821	-79.872	-0.183	-0.062
-719.806	242.387	-0.086	0.145
-718.791	585.595	-0.071	0.176
-717.777	-200.000	-0.006	-0.102
-716.762	-200.000	0.006	0.114
-715.748	-173.854	0.159	-0.005
-714.733	10.138	-0.171	-0.131
-713.718	-100.262	0.208	-0.052
-712.704	-200.000	-0.022	0.224
-711.689	398.237	0.144	-0.305
-710.675	103.739	-0.244	-0.289
-709.660	-114.874	-0.172	0.033
-708.645	-111.398	-0.159	0.033
-707.631	-85.850	0.200	-0.063
-706.616	46.204	-0.383	-0.357
-705.602	187.504	-0.135	-0.203
-704.587	42.112	-0.113	-0.103
-703.572	-107.553	0.117	0.026
-702.558	-23.777	-0.264	-0.159
-701.543	495.766	-0.092	-0.213
-700.529	184.803	-0.075	0.111
-699.514	-70.513	-0.152	0.058
-698.499	20.462	0.185	-0.150
-697.485	112.392	0.196	-0.238
-696.470	-66.969	0.206	0.082
-695.456	140.568	0.213	0.284
-694.441	-200.000	0.016	-0.368
-693.426	-73.670	0.160	-0.059
-692.412	146.999	0.150	0.203
-691.397	-54.003	-0.292	0.134
-690.383	435.412	-0.122	0.268
-689.368	800.000	-0.097	0.274
-688.354	67.309	0.136	0.140
-687.339	179.996	0.165	-0.243
-686.324	-119.443	-0.178	-0.031
-685.310	331.086	0.226	-0.438
-684.295	-38.409	-0.164	-0.088
-683.281	800.000	0.043	0.129
-682.266	147.862	-0.199	-0.270
-681.251	126.889	-0.098	0.125
-680.237	-200.000	0.020	0.156
-679.222	-63.215	0.219	0.091
-678.208	15.760	-0.190	0.150
-677.193	-129.707	-0.561	0.078
-676.178	348.242	-0.083	-0.166
-675.164	-106.918	0.247	0.055
-674.149	-152.251	-0.188	0.014
-673.135	-77.968	-0.065	0.023
-672.120	431.660	-0.147	-0.320
-671.105	557.914	-0.108	0.262
-670.091	314.027	0.204	-0.386
-669.076	320.363	-0.114	-0.219
-668.062	-47.521	-0.196	-0.096
-667.047	90.456	0.030	-0.034
-666.032	94.771	-0.137	0.157
-665.018	-43.363	0.462	0.235
-664.003	-120.942	-0.277	0.047
-662.989	-200.000	0.040	-0.244
-661.974	-200.000	0.018	-0.159
-660.959	195.808	0.117	-0.178
-659.945	-200.000	0.008	0.204
-658.930	800.000	0.042	-0.118
-657.916	800.000	-0.100	-0.300
-656.901	178.213	-0.076	-0.112
-655.886	-200.000	-0.048	-0.262
-654.872	65.716	-0.306	-0.312
-653.857	-200.000	-0.003	-0.103
-652.843	-39.509	0.242	0.127
-651.828	-200.000	-0.008	0.352
-650.814	-11.534	-0.298	0.197
-649.799	-63.648	0.102	0.042
-648.784	-174.459	0.211	0.006
-647.770	83.823	0.108	-0.119
-646.755	459.518	0.118	-0.264
-645.741	312.171	0.177	-0.333
-644.726	800.000	0.105	-0.399
-643.711	-200.000	-0.013	0.364
-642.697	416.376	0.129	-0.278
-641.682	800.000	-0.069	0.282
-640.668	281.361	0.059	-0.106
-639.653	4.397	0.180	0.133
-638.638	34.784	-0.192	-0.169
-637.624	31.383	-0.253	0.218
-636.609	-23.355	0.060	-0.036
-635.595	-95.349	-0.349	0.094
-634.580	-137.763	0.508	0.057
-633.565	311.495	0.145	-0.274
-632.551	-100.032	-0.439	-0.110
-631.536	-4.768	0.064	-0.044
-630.522	-50.140	-0.184	0.088
-629.507	-200.000	0.000	-0.021
-628.492	473.898	-0.119	0.270
-627.478	433.096	0.058	0.126
-626.463	-6.594	0.281	-0.192
-625.449	-57.038	-0.222	0.098
-624.434	800.000	-0.069	0.207
-623.419	-14.471	-0.181	-0.117
-622.405	469.652	0.165	0.374
-621.390	143.052	0.115	-0.154
-620.376	-90.587	0.072	-0.021
-619.361	680.007	0.066	-0.173
-618.346	221.982	-0.183	-0.296
-617.332	-56.738	-0.064	0.028
-616.317	-130.777	0.213	0.029
-615.303	268.975	0.121	-0.213
-614.288	-151.334	-0.283	-0.021
-613.273	-200.000	0.066	0.327
-612.259	622.720	-0.038	0.096
-611.244	-121.250	-0.091	0.015
-610.230	393.724	-0.220	0.460
-609.215	-200.000	-0.000	0.080
-608.201	311.173	-0.067	0.126
-607.186	194.536	0.238	-0.363
-606.171	800.000	0.068	0.209
-605.157	-8.482	-0.101	-0.068
-604.142	702.877	-0.083	-0.221
-603.128	800.000	0.094	-0.291
-602.113	702.226	0.049	0.129
-601.098	515.637	0.079	-0.185
-600.084	22.958	0.136	0.112
-599.069	0.902	-0.175	0.126
-598.055	192.070	0.134	-0.203
-597.040	91.139	0.216	0.244
-596.025	-137.918	0.308	0.035
-595.011	800.000	-0.034	0.148
-593.996	-93.633	-0.205	-0.057
-592.982	800.000	0.022	0.072
-591.967	135.367	-0.058	0.075
-590.952	99.071	0.223	-0.258
-589.938	-69.886	-0.239	-0.091
-588.923	-38.519	0.428	-0.227
-587.909	-166.721	-0.293	0.012
-586.894	-200.000	0.037	-0.179
-585.879	800.000	0.075	-0.302
-584.865	-102.743	-0.175	-0.042
-583.850	180.803	-0.071	-0.104
-582.836	368.472	-0.108	0.219
-581.821	800.000	-0.069	-0.248
-580.806	531.948	0.119	-0.281
-579.792	-132.161	-0.329	0.043
-578.777	113.505	-0.024	0.029
-577.763	286.896	0.118	-0.214
-576.748	-62.633	0.232	-0.096
-575.733	356.381	-0.165	-0.330
-574.719	-35.677	0.018	-0.010
-573.704	-66.939	-0.058	0.023
-572.690	-76.622	0.196	-0.069
-571.675	55.327	0.035	-0.034
-570.661	618.739	-0.085	-0.213
-569.646	-56.990	-0.321	-0.142
-568.631	-200.000	0.003	-0.040
-567.617	26.162	0.161	-0.135
-566.602	-110.609	-0.142	0.029
-565.588	54.551	-0.199	-0.192
-564.573	-144.785	0.357	0.033
-563.558	-200.000	0.019	0.268
-562.544	-21.418	-0.052	0.032
-561.529	800.000	-0.125	-0.463
-560.515	386.673	0.165	-0.341
-559.500	244.527	-0.162	0.273
-558.485	-200.000	0.022	0.499
-557.471	-200.000	-0.011	-0.219
-556.456	41.063	-0.105	-0.095
-555.442	800.000	0.120	0.399
-554.427	-77.264	0.156	-0.054
-553.412	600.837	-0.079	0.197
-552.398	-131.318	-0.177	0.024
-551.383	800.000	-0.016	0.065
-550.369	5.557	0.247	0.183
-549.354	551.841	-0.030	0.072
-548.339	-143.743	-0.124	-0.012
-547.325	-38.561	-0.214	-0.113
-546.310	190.178	0.171	0.257
-545.296	-79.847	-0.291	0.098
-544.281	145.241	0.081	-0.109
-543.266	-42.833	-0.114	-0.058
-542.252	800.000	-0.070	0.240
-541.237	110.790	-0.151	-0.182
-540.223	800.000	-0.084	-0.306
-539.208	-200.000	-0.017	0.310
-538.193	-96.700	-0.191	-0.050
-537.179	-132.888	-0.191	0.024
-536.164	-200.000	0.033	0.256
-535.150	15.094	0.167	0.131
-534.135	75.991	0.081	0.086
-533.121	800.000	0.092	-0.282
-532.106	-1.014	-0.335	0.237
-531.091	800.000	0.030	0.095
-530.077	-143.496	-0.352	0.034
-529.062	-102.212	0.383	-0.092
-528.048	121.464	-0.049	-0.061
-527.033	106.732	-0.170	-0.201
-526.018	-125.646	-0.238	0.036
-525.004	-38.218	-0.112	0.059
-523.989	-170.155	-0.115	0.004
-522.975	179.078	0.135	0.197
-521.960	47.843	-0.076	-0.071
-520.945	10.228	0.115	-0.087
-519.931	-39.749	0.361	-0.189
-518.916	-200.000	0.023	0.179
-517.902	-132.095	-0.279	-0.036
-516.887	-39.946	0.272	0.142
-515.872	36.264	-0.201	0.178
-514.858	-200.000	0.004	-0.172
-513.843	-47.729	0.075	0.037
-512.829	66.487	0.234	-0.238
-511.814	98.943	0.168	-0.195
-510.799	-120.886	-0.490	0.083
-509.785	-16.690	-0.275	0.174
-508.770	-35.441	-0.126	0.069
-507.756	-118.237	0.097	-0.017
-506.741	427.420	-0.094	0.202
-505.726	105.383	-0.150	0.177
-504.712	153.368	-0.162	0.221
-503.697	331.543	0.108	-0.208
-502.683	-200.000	-0.008	-0.189
-501.668	689.428	-0.042	0.111
-500.653	-146.628	0.169	-0.015
-499.639	114.413	-0.158	-0.193
-498.624	-93.764	0.213	-0.059
-497.610	133.311	0.150	-0.194
-496.595	-94.518	-0.233	-0.063
-495.581	22.540	0.183	-0.150
-494.566	118.119	0.121	-0.149
-493.551	-84.823	0.224	-0.070
-492.537	800.000	0.052	0.156
-491.522	800.000	0.046	-0.140
-490.508	-111.848	0.385	0.078
-489.493	618.585	0.121	-0.303
-488.478	-104.709	-0.270	-0.062
-487.464	-200.000	-0.001	0.172
-486.449	440.881	0.025	-0.054
-485.435	-23.437	0.196	-0.118
-484.420	-22.373	0.086	0.052
-483.405	111.872	-0.184	0.222
-482.391	77.796	0.158	-0.168
-481.376	196.784	0.085	0.130
-480.362	800.000	-0.106	0.329
-479.347	-200.000	-0.025	0.138
-478.332	77.784	-0.074	0.078
-477.318	-81.827	-0.133	-0.044
-476.303	240.308	0.179	0.298
-475.289	314.656	-0.126	0.237
-474.274	323.694	0.062	-0.117
-473.259	-200.000	0.025	0.122
-472.245	-42.276	-0.202	-0.103
-471.230	430.522	0.092	-0.198
-470.216	-61.289	-0.222	-0.093
-469.201	51.522	-0.211	-0.201
-468.186	294.416	0.051	-0.093
-467.172	-114.272	0.139	-0.027
-466.157	449.649	0.059	0.131
-465.143	69.764	0.032	0.033
-464.128	-200.000	0.014	0.156
-463.113	-83.638	-0.257	0.082
-462.099	-74.627	-0.494	-0.178
-461.084	-19.351	-0.220	0.136
-460.070	800.000	0.102	-0.287
-459.055	-200.000	-0.012	-0.056
-458.040	-162.120	0.119	0.006
-457.026	-34.967	-0.266	0.145
-456.011	-61.064	-0.164	-0.069
-454.997	-44.998	0.125	-0.062
-453.982	-35.995	-0.300	-0.162
-452.968	255.686	0.207	0.354
-451.953	65.962	-0.118	-0.120
-450.938	-38.245	-0.059	0.031
-449.924	-152.065	0.253	0.018
-448.909	53.405	-0.060	-0.057
-447.895	128.954	0.099	0.127
-446.880	-87.008	-0.183	0.056
-445.865	14.919	0.237	-0.185
-444.851	800.000	-0.059	-0.206
-443.836	-138.423	-0.137	-0.015
-442.822	-44.272	-0.068	0.034
-441.807	800.000	0.086	0.331
-440.792	-109.338	0.181	-0.038
-439.778	74.905	0.293	0.308
-438.763	-88.642	-0.333	-0.099
-437.749	50.101	0.074	-0.070
-436.734	46.468	-0.215	0.199
-435.719	161.323	0.117	0.163
-434.705	34.199	-0.154	-0.134
-433.690	653.111	0.078	-0.201
-432.676	-101.260	0.252	-0.061
-431.661	-77.804	0.245	-0.085
-430.646	761.624	-0.080	-0.217
-429.632	800.000	-0.024	-0.074
-428.617	114.992	-0.106	-0.130
-427.603	-105.221	-0.065	-0.015
-426.588	800.000	-0.128	-0.357
-425.573	800.000	-0.068	0.279
-424.559	65.301	0.025	0.025
-423.544	-111.491	0.355	-0.072
-422.530	68.712	-0.222	0.227
-421.515	-51.697	0.237	0.110
-420.500	-152.920	-0.140	-0.010
-419.486	-28.339	0.159	0.091
-418.471	-200.000	0.005	0.304
-417.457	-78.114	0.022	0.008
-416.442	154.898	-0.212	-0.291
-415.428	-97.470	0.129	-0.033
-414.413	52.376	0.198	0.189
-413.398	800.000	-0.083	0.330
-412.384	-164.618	0.189	0.009
-411.369	-80.173	0.222	-0.074
-410.355	-6.724	0.188	-0.128
-409.340	514.347	0.074	0.173
-408.325	-200.000	0.062	0.277
-407.311	517.862	-0.132	0.309
-406.296	-158.883	0.430	0.024
-405.282	23.135	-0.223	0.182
-404.267	-200.000	-0.012	-0.120
-403.252	-200.000	-0.011	-0.307
-402.238	289.056	0.033	0.060
-401.223	-200.000	-0.011	-0.111
-400.209	-66.421	-0.235	0.093
-399.194	-88.497	0.459	0.136
-398.179	5.018	-0.199	0.146
-397.165	-200.000	-0.037	-0.578
-396.150	489.595	-0.064	0.145
-395.136	-200.000	0.009	-0.256
-394.121	-162.434	0.362	-0.018
-393.106	800.000	0.035	-0.114
-392.092	-200.000	-0.009	-0.300
-391.077	-61.900	0.075	-0.031
-390.063	-200.000	0.019	-0.163
-389.048	-77.886	0.325	-0.112
-388.033	-200.000	0.022	0.106
-387.019	-31.703	0.364	0.203
-386.004	429.975	-0.103	-0.222
-384.990	111.409	-0.113	0.135
-383.975	338.306	0.092	-0.178
-382.960	-109.042	0.201	-0.043
-381.946	-200.000	0.001	-0.029
-380.931	312.816	-0.059	0.111
-379.917	-168.719	-0.403	-0.015
-378.902	88.509	-0.183	-0.203
-377.888	-73.030	-0.176	0.064
-376.873	117.490	0.188	0.230
-375.858	174.981	-0.079	0.113
-374.844	-121.377	-0.103	-0.017
-373.829	-87.077	-0.256	-0.077
-372.815	5.841	0.266	0.196
-371.800	-200.000	-0.080	-0.406
-370.785	68.940	0.228	-0.233
-369.771	-200.000	0.062	0.338
-368.756	75.051	0.197	0.206
-367.742	229.830	-0.094	0.153
-366.727	-200.000	0.021	-0.390
-365.712	112.346	0.251	-0.302
-364.698	90.070	-0.273	0.304
-363.683	-200.000	-0.028	0.127
-362.669	-76.567	-0.074	-0.026
-361.654	-64.142	0.137	0.056
-360.639	-98.831	0.236	-0.060
-359.625	258.637	-0.145	0.249
-358.610	203.891	-0.212	0.327
-357.596	143.567	-0.068	-0.090
-356.581	-153.765	-0.048	-0.003
-355.566	433.304	0.083	-0.178
-354.552	70.875	0.195	0.201
-353.537	772.633	-0.054	0.147
-352.523	800.000	-0.035	-0.102
-351.508	5.303	-0.208	-0.153
-350.493	-17.716	0.057	0.035
-349.479	-200.000	-0.001	0.062
-348.464	18.236	-0.272	0.216
-347.450	-111.612	0.186	0.038
-346.435	76.759	0.055	0.058
-345.420	800.000	0.074	0.308
-344.406	58.877	0.155	0.151
-343.391	447.931	-0.112	0.246
-342.377	-20.469	-0.352	0.215
-341.362	-75.680	-0.237	-0.084
-340.348	-53.563	-0.055	0.025
-339.333	800.000	0.082	0.258
-338.318	-132.446	0.066	0.008
-337.304	-93.504	0.334	0.092
-336.289	31.006	-0.121	0.103
-335.275	-94.593	-0.131	-0.036
-334.260	-168.405	-0.191	0.007
-333.245	-37.299	0.232	0.123
-332.231	-200.000	-0.013	-0.278
-331.216	208.801	-0.068	-0.106
-330.202	800.000	-0.033	0.093
-329.187	636.813	-0.050	0.127
-328.172	5.201	-0.016	0.012
-327.158	-12.131	0.071	-0.046
-326.143	-17.748	-0.243	0.152
-325.129	44.764	0.159	-0.145
-324.114	208.138	0.074	-0.115
-323.099	-123.544	0.101	-0.016
-322.085	154.257	0.077	0.104
-321.070	110.601	-0.039	0.046
-320.056	-23.690	-0.384	-0.229
-319.041	23.307	-0.250	-0.204
-318.026	-143.728	0.227	-0.021
-317.012	238.554	0.076	-0.125
-315.997	-28.177	-0.187	0.107
-314.983	100.162	-0.091	0.104
-313.968	-65.879	0.179	-0.071
-312.953	-156.233	-0.272	0.017
-311.939	800.000	0.107	0.324
-310.924	800.000	0.099	0.404
-309.910	94.309	-0.090	-0.101
-308.895	800.000	-0.074	0.272
-307.880	126.466	0.221	0.278
-306.866	5.608	0.163	-0.119
-305.851	148.566	0.199	0.266
-304.837	-200.000	-0.066	-0.407
-303.822	19.822	-0.160	-0.128
-302.807	234.140	0.112	-0.183
-301.793	62.411	-0.179	0.178
-300.778	94.467	0.218	-0.246
-299.764	-155.493	-0.104	-0.007
-298.749	-89.975	0.333	-0.096
-297.735	180.752	-0.129	0.188
-296.720	655.856	-0.169	0.431
-295.705	17.008	-0.240	0.188
-294.691	169.569	-0.067	-0.095
-293.676	-134.762	0.156	0.019
-292.662	76.737	0.100	0.105
-291.647	-27.311	0.162	0.094
-290.632	-41.044	-0.079	0.040
-289.618	-50.649	-0.209	-0.097
-288.603	155.455	-0.072	-0.099
-287.589	-157.162	0.155	0.009
-286.574	-200.000	0.010	0.101
-285.559	-55.536	-0.048	0.021
-284.545	603.858	-0.145	-0.357
-283.530	-157.078	-0.246	0.015
-282.516	122.264	-0.158	-0.195
-281.501	53.115	0.339	-0.322
-280.486	800.000	0.052	0.152
-279.472	-55.113	-0.086	-0.038
-278.457	-105.622	-0.142	0.032
-277.443	35.721	-0.077	0.067
-276.428	-102.955	-0.297	0.070
-275.413	-34.894	-0.089	0.048
-274.399	-8.611	0.160	0.107
-273.384	-150.412	-0.527	-0.040
-272.370	-92.995	-0.039	-0.011
-271.355	84.704	0.264	-0.287
-270.340	575.321	0.129	0.311
-269.326	-102.635	0.197	0.047
-268.311	-161.513	-0.237	-0.012
-267.297	442.707	0.083	0.179
-266.282	-1.256	0.188	0.131
-265.267	-200.000	-0.069	0.343
-264.253	-109.688	0.212	-0.044
-263.238	56.536	0.253	0.244
-262.224	-200.000	0.041	-0.274
-261.209	800.000	-0.049	-0.146
-260.195	800.000	0.103	-0.427
-259.180	-75.318	-0.046	-0.016
-258.165	258.461	-0.089	0.152
-257.151	800.000	0.084	-0.308
-256.136	800.000	0.014	0.042
-255.122	-56.815	0.106	-0.047
-254.107	11.425	-0.114	-0.087
-253.092	-175.005	-0.230	-0.006
-252.078	71.026	-0.077	0.079
-251.063	-200.000	0.024	-0.165
-250.049	286.113	0.055	0.098
-249.034	-200.000	0.016	-0.068
-248.019	266.413	-0.233	-0.403
-247.005	800.000	0.195	-0.540
-245.990	297.820	-0.038	0.069
-244.976	-42.244	0.270	0.137
-243.961	-24.613	0.155	0.091
-242.946	800.000	0.074	-0.217
-241.932	-200.000	-0.027	0.176
-240.917	-58.638	0.275	-0.118
-239.903	68.572	-0.094	0.095
-238.888	-200.000	0.038	0.246
-237.873	68.174	-0.194	0.197
-236.859	198.637	0.045	-0.068
-235.844	800.000	-0.030	-0.098
-234.830	800.000	-0.022	0.071
-233.815	-30.138	0.314	0.177
-232.800	800.000	-0.066	0.230
-231.786	-200.000	0.027	-0.219
-230.771	-30.414	0.401	-0.225
-229.757	-200.000	0.395	-0.001
-228.742	-8.905	-0.178	-0.118
-227.727	-200.000	0.006	0.392
-226.713	68.037	0.155	-0.157
-225.698	-200.000	0.038	0.216
-224.684	90.660	-0.114	-0.126
-223.669	108.055	-0.139	-0.163
-222.655	41.702	-0.150	-0.135
-221.640	-59.261	0.103	0.044
-220.625	462.840	-0.018	-0.039
-219.611	405.554	-0.099	-0.207
-218.596	153.099	0.179	-0.242
-217.582	668.174	0.159	-0.407
-216.567	-106.597	-0.300	-0.066
-215.552	59.310	-0.036	0.036
-214.538	281.535	0.076	0.135
-213.523	386.286	0.172	-0.351
-212.509	-14.064	-0.136	-0.087
-211.494	205.215	0.056	0.086
-210.479	144.127	-0.112	-0.148
-209.465	69.064	-0.125	0.127
-208.450	-86.116	0.247	-0.075
-207.436	-39.409	0.281	0.146
-206.421	109.153	0.319	-0.378
-205.406	-154.299	-0.032	0.002
-204.392	-186.820	-0.237	0.003
-203.377	354.896	0.085	0.166
-202.363	17.702	-0.082	-0.064
-201.348	198.911	0.101	0.153
-200.333	100.731	-0.071	-0.081
-199.319	-0.902	0.314	-0.220
-198.304	128.709	-0.220	0.277
-197.290	-52.426	0.335	-0.153
-196.275	181.578	-0.090	0.131
-195.260	-22.550	0.208	-0.124
-194.246	3.797	-0.120	0.086
-193.231	77.417	0.233	-0.245
-192.217	-112.276	-0.254	-0.050
-191.202	-65.464	-0.324	-0.129
-190.187	154.523	-0.059	0.081
-189.173	-75.873	0.082	-0.029
-188.158	-200.000	-0.022	0.119
-187.144	-200.000	0.002	-0.186
-186.129	215.745	-0.142	-0.223
-185.114	-148.559	-0.220	0.018
-184.100	-200.000	0.016	0.111
-183.085	-32.891	-0.445	-0.244
-182.071	42.314	0.192	0.173
-181.056	-200.000	0.007	-0.070
-180.042	-200.000	0.021	-0.290
-179.027	-200.000	-0.032	0.368
-178.012	-200.000	-0.032	-0.377
-176.998	800.000	-0.082	-0.255
-175.983	-39.006	0.095	0.049
-174.969	-117.731	0.083	-0.015
-173.954	-200.000	0.027	0.173
-172.939	-162.550	0.498	0.024
-171.925	800.000	-0.028	0.106
-170.910	-26.822	-0.145	0.083
-169.896	-114.831	-0.027	0.005
-168.881	-35.770	-0.120	-0.064
-167.866	-200.000	0.001	-0.097
-166.852	800.000	-0.099	0.424
-165.837	-87.201	0.190	0.057
-164.823	-58.994	-0.264	-0.113
-163.808	-12.503	-0.434	0.279
-162.793	800.000	-0.069	0.220
-161.779	547.388	0.134	0.318
-160.764	800.000	-0.043	0.168
-159.750	-186.016	0.172	-0.003
-158.735	-59.998	-0.219	0.092
-157.720	-78.166	-0.358	0.122
-156.706	-41.168	0.624	0.318
-155.691	141.581	0.133	0.173
-154.677	-200.000	-0.005	0.171
-153.662	186.159	0.112	-0.164
-152.647	-200.000	-0.009	0.132
-151.633	-13.930	-0.262	0.167
-150.618	26.188	-0.222	-0.182
-149.604	-200.000	-0.089	0.443
-148.589	34.225	0.306	0.263
-147.574	297.628	0.025	0.045
-146.560	-120.333	-0.111	0.019
-145.545	800.000	0.083	-0.345
-144.531	657.647	-0.108	0.273
-143.516	-76.186	-0.148	-0.052
-142.502	-200.000	-0.009	0.107
-141.487	-200.000	-0.020	0.089
-140.472	-34.400	0.279	0.151
-139.458	-124.565	-0.065	0.010
-138.443	416.970	-0.090	0.190
-137.429	-44.280	0.061	0.030
-136.414	-165.855	-0.271	0.011
-135.399	290.194	0.070	0.125
-134.385	-200.000	0.060	0.407
-133.370	-114.803	0.306	0.058
-132.356	-42.397	-0.158	0.079
-131.341	-200.000	-0.018	-0.329
-130.326	-60.739	-0.240	0.100
-129.312	-200.000	-0.004	-0.108
-128.297	-96.352	0.119	-0.031
-127.283	-165.477	-0.031	-0.001
-126.268	-46.102	-0.137	0.066
-125.253	19.822	-0.222	0.176
-124.239	235.356	0.053	-0.086
-123.224	-118.615	0.095	-0.017
-122.210	-78.133	0.292	-0.099
-121.195	-177.244	0.163	-0.004
-120.180	156.501	-0.109	0.148
-119.166	-118.461	0.280	0.049
-118.151	-57.610	0.118	-0.051
-117.137	-46.459	-0.289	0.140
-116.122	-200.000	-0.013	0.067
-115.107	126.758	-0.090	0.113
-114.093	335.711	0.049	-0.094
-113.078	169.233	-0.221	0.311
-112.064	800.000	-0.045	-0.123
-111.049	237.939	0.127	-0.208
-110.034	800.000	-0.086	-0.302
-109.020	256.178	-0.043	0.072
-108.005	212.062	0.118	0.184
-106.991	209.785	0.171	0.265
-105.976	-34.326	-0.382	0.206
-104.962	462.502	0.107	0.234
-103.947	57.782	-0.207	0.199
-102.932	485.987	-0.135	0.303
-101.918	519.934	-0.068	-0.158
-100.903	-200.000	-0.009	0.055
-99.889	10.569	0.064	-0.048
-98.874	-86.361	0.152	-0.046
-97.859	708.809	0.081	0.210
-96.845	-200.000	0.081	0.412
-95.830	-17.496	-0.173	0.107
-94.816	283.939	0.159	0.281
-93.801	336.385	0.044	0.085
-92.786	-160.789	-0.091	0.005
-91.772	800.000	-0.025	-0.079
-90.757	430.580	-0.027	0.058
-89.743	50.507	-0.136	0.126
-88.728	-200.000	0.043	0.226
-87.713	-53.489	0.142	-0.064
-86.699	535.744	0.129	-0.300
-85.684	-94.085	-0.331	0.089
-84.670	-175.444	0.231	-0.006
-83.655	-14.706	0.152	-0.096
-82.640	-200.000	0.122	0.000
-81.626	352.059	0.095	0.186
-80.611	-135.516	-0.201	0.024
-79.597	135.729	0.032	-0.041
-78.582	-51.204	-0.274	0.126
-77.567	90.924	-0.129	-0.142
-76.553	-25.036	-0.083	-0.048
-75.538	-129.909	-0.280	-0.038
-74.524	464.905	0.023	0.051
-73.509	-131.695	0.253	0.033
-72.494	-200.000	0.007	0.116
-71.480	-45.244	-0.102	-0.050
-70.465	148.136	-0.079	-0.105
-69.451	40.073	0.163	0.144
-68.436	800.000	-0.086	-0.312
-67.422	92.613	-0.101	-0.112
-66.407	-53.940	-0.043	-0.019
-65.392	12.056	-0.146	0.110
-64.378	195.252	-0.155	0.231
-63.363	-70.227	-0.244	0.091
-62.349	163.994	0.063	0.087
-61.334	156.055	-0.798	-1.082
-60.319	-30.033	0.874	0.489
-59.305	-200.000	-0.259	-1.254
-58.290	59.663	0.737	0.714
-57.276	345.163	0.674	1.301
-56.261	-200.000	94.804	583.902
-55.246	667.785	1365.969	3471.277
-54.232	199.197	2550.244	3840.627
-53.217	114.644	2269.490	2718.034
-52.203	41.854	1897.021	1690.312
-51.188	35.573	1686.486	1455.261
-50.173	32.890	1642.077	1397.061
-49.159	50.072	1688.180	1565.511
-48.144	51.820	1704.700	1593.875
-47.130	35.160	1665.998	1434.266
-46.115	32.484	1651.499	1401.831
-45.100	32.321	1646.470	1396.295
-44.086	32.123	1644.122	1392.784
-43.071	32.134	1641.007	1390.168
-42.057	32.237	1639.034	1389.201
-41.042	32.201	1637.127	1387.267
-40.027	32.218	1635.191	1385.693
-39.013	32.215	1633.247	1383.972
-37.998	32.205	1631.597	1382.443
-36.984	32.282	1630.284	1381.846
-35.969	32.250	1629.010	1380.477
-34.954	32.432	1626.473	1379.605
-33.940	32.352	1625.386	1378.041
-32.925	32.227	1623.916	1375.829
-31.911	32.319	1621.764	1374.621
-30.896	32.354	1619.645	1373.025
-29.881	32.285	1618.621	1371.601
-28.867	32.322	1616.639	1370.134
-27.852	32.288	1615.492	1368.862
-26.838	32.307	1613.848	1367.548
-25.823	32.274	1612.905	1366.456
-24.809	32.283	1611.180	1365.008
-23.794	32.232	1609.392	1363.070
-22.779	32.280	1608.367	1362.491
-21.765	32.358	1606.455	1361.386
-20.750	32.377	1604.737	1360.010
-19.736	32.331	1603.600	1358.667
-18.721	32.351	1602.722	1358.008
-17.706	32.327	1600.926	1356.264
-16.692	32.289	1599.234	1354.497
-15.677	32.290	1598.040	1353.442
-14.663	32.414	1596.593	1353.057
-13.648	32.399	1595.174	1351.690
-12.633	32.392	1592.947	1349.698
-11.619	32.347	1592.110	1348.612
-10.604	32.298	1590.564	1346.899
-9.590	32.392	1589.132	1346.306
-8.575	32.416	1587.878	1345.361
-7.560	32.341	1587.173	1344.178
-6.546	32.314	1585.648	1342.638
-5.531	32.319	1584.593	1341.727
-4.517	32.332	1583.092	1340.493
-3.502	32.386	1582.619	1340.423
-2.487	32.398	1580.830	1338.943
-1.473	32.097	1569.299	1326.994
-0.458	29.453	1549.621	1291.827
0.556	25.576	1549.518	1259.895
1.571	23.141	1573.115	1261.626
2.586	22.593	1586.114	1267.999
3.600	20.074	1532.903	1207.814
4.615	12.223	1424.864	1071.518
5.629	5.592	1362.219	982.809
6.644	4.784	1354.200	971.895
7.659	4.593	1352.778	969.602
8.673	4.556	1351.850	968.617
9.688	4.628	1350.108	967.730
10.702	4.458	1347.393	964.648
11.717	7.434	1352.781	986.950
12.731	14.846	1366.380	1043.205
13.746	19.439	1373.196	1077.056
14.761	19.096	1372.041	1073.916
15.775	18.071	1368.879	1064.962
16.790	17.085	1365.770	1056.318
17.804	16.293	1363.543	1049.581
18.819	15.859	1362.933	1046.321
19.834	15.623	1361.241	1043.461
20.848	15.398	1359.948	1040.983
21.863	15.202	1358.622	1038.662
22.877	14.976	1357.635	1036.414
23.892	14.989	1356.655	1035.658
24.907	14.994	1356.183	1035.236
25.921	15.003	1355.023	1034.312
26.936	15.055	1354.064	1033.810
27.950	15.050	1353.180	1033.010
28.965	15.171	1352.156	1032.888
29.980	15.319	1351.036	1032.850
30.994	15.316	1350.071	1032.000
32.009	15.411	1348.766	1031.497
33.023	15.268	1347.447	1029.523
34.038	15.228	1346.467	1028.436
35.053	15.134	1345.357	1026.920
36.067	15.087	1343.908	1025.434
37.082	15.178	1342.931	1025.156
38.096	15.286	1341.896	1024.935
39.111	15.226	1341.281	1024.008
40.126	15.147	1340.376	1022.742
41.140	14.991	1339.530	1021.057
42.155	14.871	1339.250	1020.019
43.169	14.910	1338.952	1019.944
44.184	14.876	1338.514	1019.307
45.199	14.913	1337.803	1018.904
46.213	14.986	1337.219	1018.812
47.228	15.081	1336.738	1018.935
48.242	15.084	1335.797	1018.147
49.257	14.977	1334.504	1016.418
50.271	15.109	1332.476	1015.583
51.286	15.148	1331.327	1014.856
52.301	15.162	1330.075	1013.900
53.315	15.006	1328.887	1011.961
54.330	14.912	1328.086	1010.689
55.344	14.868	1326.682	1009.268
56.359	14.971	1325.513	1008.908
57.374	14.993	1324.837	1008.440
58.388	14.946	1323.944	1007.384
59.403	14.779	1324.136	1006.438
60.417	14.807	1323.037	1005.679
61.432	14.809	1322.045	1004.850
62.447	14.780	1320.997	1003.793
63.461	14.777	1320.097	1002.998
64.476	14.632	1319.159	1001.331
65.490	14.694	1317.930	1000.682
66.505	14.710	1316.251	999.413
67.520	14.778	1314.794	998.622
68.534	14.818	1313.989	998.163
69.549	14.850	1312.467	997.110
70.563	14.853	1311.563	996.351
71.578	14.662	1310.896	994.622
72.593	14.613	1309.892	993.476
73.607	14.677	1308.800	992.941
74.622	14.673	1308.354	992.493
75.636	14.607	1307.671	991.492
76.651	14.783	1306.809	991.796
77.666	14.653	1306.693	990.850
78.680	14.783	1306.011	991.017
79.695	14.789	1305.128	990.296
80.709	14.838	1304.360	989.913
81.724	14.886	1303.880	989.745
82.739	15.081	1302.532	989.790
83.753	14.961	1302.393	988.885
84.768	15.104	1300.974	988.564
85.782	15.351	1299.317	988.676
86.797	15.136	1298.807	986.934
87.812	15.014	1297.810	985.371
88.826	15.029	1296.515	984.390
89.841	15.131	1295.501	984.132
90.855	15.077	1294.294	982.812
91.870	15.190	1293.569	982.836
92.884	15.242	1292.484	982.226
93.899	15.137	1292.156	981.274
94.914	15.316	1291.182	981.500
95.928	15.193	1290.782	980.387
96.943	15.196	1289.553	979.383
97.957	15.154	1288.382	978.165
98.972	15.099	1287.385	976.999
99.987	15.226	1286.245	976.787
101.001	15.284	1284.822	975.956
102.016	15.111	1284.537	974.649
103.030	15.223	1283.537	974.453
104.045	15.178	1282.242	973.125
105.060	15.207	1281.036	972.292
106.074	15.059	1279.681	970.321
107.089	14.867	1278.651	968.341
108.103	14.862	1277.301	967.203
109.118	14.818	1276.007	965.885
110.133	14.872	1274.340	964.850
111.147	14.871	1273.122	963.835
112.162	14.879	1272.099	963.023
113.176	14.887	1270.918	962.085
114.191	14.979	1269.907	961.764
115.206	15.063	1268.544	961.130
116.220	14.927	1267.913	959.788
117.235	14.950	1266.047	958.422
118.249	14.967	1265.516	958.030
119.264	14.974	1264.421	957.161
120.279	14.880	1263.275	955.668
121.293	14.838	1262.351	954.644
122.308	14.827	1261.469	953.831
123.322	14.788	1260.186	952.554
124.337	14.789	1259.311	951.817
125.352	14.759	1258.237	950.746
126.366	14.730	1257.298	949.788
127.381	14.714	1256.267	948.836
128.395	14.740	1255.249	948.133
129.410	14.813	1254.038	947.548
130.424	14.855	1253.811	947.529
131.439	14.967	1252.394	947.010
132.454	14.875	1251.336	945.606
133.468	15.033	1250.738	945.959
134.483	14.933	1250.409	945.063
135.497	14.862	1249.212	943.673
136.512	15.010	1247.595	943.203
137.527	14.979	1246.425	942.061
138.541	14.948	1244.927	940.670
139.556	15.060	1243.610	940.220
140.570	15.018	1243.208	939.599
141.585	15.214	1241.909	939.637
142.600	15.137	1240.649	938.165
143.614	15.197	1239.863	937.826
144.629	15.322	1238.556	937.453
145.643	15.120	1237.590	935.508
146.658	15.176	1236.059	934.581
147.673	15.088	1234.932	933.156
148.687	15.002	1233.962	931.860
149.702	14.978	1232.802	930.773
150.716	15.024	1230.998	929.579
151.731	14.958	1230.405	928.682
152.746	15.078	1228.700	927.982
153.760	15.200	1227.303	927.521
154.775	15.151	1226.512	926.570
155.789	15.174	1225.809	926.082
156.804	15.059	1224.952	924.718
157.819	15.170	1223.913	924.464
158.833	15.312	1222.687	924.241
159.848	15.405	1221.707	923.929
160.862	15.336	1220.873	922.837
161.877	15.254	1219.440	921.220
162.892	15.122	1218.430	919.653
163.906	15.075	1217.663	918.736
164.921	15.195	1216.800	918.660
165.935	15.075	1216.387	917.610
166.950	15.163	1215.489	917.331
167.964	15.267	1214.336	916.948
168.979	15.268	1213.836	916.497
169.994	15.265	1213.322	916.012
171.008	15.297	1212.379	915.390
172.023	15.398	1211.677	915.334
173.037	15.327	1211.169	914.478
174.052	15.361	1209.862	913.596
175.067	15.333	1208.805	912.569
176.081	15.169	1207.802	910.839
177.096	15.222	1207.026	910.459
178.110	15.327	1205.701	909.948
179.125	15.367	1204.773	909.386
180.140	15.247	1203.447	907.656
181.154	15.251	1202.678	907.016
182.169	15.395	1201.171	906.577
183.183	15.431	1200.203	905.957
184.198	15.473	1199.121	905.291
185.213	15.511	1197.754	904.383
186.227	15.515	1196.882	903.667
187.242	15.513	1196.047	902.944
188.256	15.678	1194.866	902.859
189.271	15.706	1193.706	902.052
190.286	15.419	1193.229	900.071
191.300	15.190	1192.343	898.096
192.315	15.148	1191.681	897.293
193.329	15.333	1190.717	897.479
194.344	15.357	1189.803	896.842
195.359	15.433	1189.124	896.654
196.373	15.375	1189.414	896.481
197.388	15.553	1188.684	896.804
198.402	15.693	1188.193	897.102
199.417	15.743	1188.041	897.174
200.432	15.740	1187.091	896.360
201.446	15.950	1185.935	896.525
202.461	15.838	1185.099	895.222
203.475	15.770	1184.432	894.274
204.490	15.739	1183.065	892.999
205.504	15.792	1181.559	892.063
206.519	15.866	1180.099	891.274
207.534	15.716	1178.959	889.544
208.548	15.657	1178.561	888.854
209.563	15.740	1177.669	888.539
210.577	15.777	1176.689	887.914
211.592	15.874	1175.904	887.754
212.607	15.882	1175.148	887.151
213.621	15.812	1174.543	886.245
214.636	15.897	1173.214	885.611
215.650	15.802	1173.209	885.028
216.665	15.955	1171.817	884.704
217.680	15.904	1171.039	883.769
218.694	16.024	1169.832	883.412
219.709	16.097	1169.085	883.150
220.723	15.991	1168.559	882.124
221.738	16.005	1167.662	881.439
222.753	15.974	1167.445	881.037
223.767	16.009	1166.250	880.236
224.782	16.072	1166.009	880.308
225.796	16.129	1165.406	880.072
226.811	16.265	1164.121	879.735
227.826	16.120	1163.660	878.549
228.840	16.088	1162.813	877.669
229.855	16.072	1162.329	877.143
230.869	16.052	1161.431	876.280
231.884	16.000	1160.662	875.352
232.899	16.144	1159.120	874.862
233.913	15.919	1159.158	873.643
234.928	15.952	1158.566	873.290
235.942	15.918	1157.693	872.383
236.957	15.962	1156.962	871.980
237.972	15.910	1155.893	870.827
238.986	15.937	1155.414	870.531
240.001	16.011	1154.450	870.107
241.015	16.030	1153.794	869.635
242.030	16.040	1153.256	869.206
243.045	16.034	1152.678	868.660
244.059	16.121	1151.651	868.260
245.074	16.171	1150.860	867.843
246.088	16.147	1150.193	867.138
247.103	16.352	1149.052	867.255
248.117	16.410	1148.523	867.078
249.132	16.458	1147.958	866.821
250.147	16.509	1147.714	866.821
251.161	16.718	1146.335	866.773
252.176	16.669	1145.975	866.172
253.190	16.655	1145.296	865.511
254.205	16.724	1144.916	865.499
255.220	16.665	1144.670	864.937
256.234	16.687	1143.613	864.171
257.249	16.714	1142.947	863.728
258.263	16.598	1142.677	862.858
259.278	16.680	1141.999	862.687
260.293	16.705	1141.262	862.181
261.307	16.766	1140.602	861.917
262.322	16.903	1139.591	861.775
263.336	16.844	1138.747	860.762
264.351	16.779	1138.746	860.351
265.366	16.913	1137.824	860.261
266.380	16.772	1137.437	859.179
267.395	16.906	1135.899	858.617
268.409	16.803	1135.728	857.891
269.424	16.925	1134.453	857.466
270.439	16.866	1134.094	856.825
271.453	16.842	1133.328	856.046
272.468	16.697	1132.187	854.378
273.482	16.753	1131.885	854.357
274.497	16.705	1131.404	853.674
275.512	16.787	1130.493	853.324
276.526	16.691	1130.218	852.558
277.541	16.820	1128.617	851.928
278.555	16.816	1128.514	851.755
279.570	16.890	1127.578	851.342
280.585	16.890	1127.286	851.048
281.599	16.972	1126.176	850.545
282.614	16.874	1125.248	849.276
283.628	16.988	1123.786	848.671
284.643	16.850	1122.888	847.225
285.657	16.990	1121.762	846.999
286.672	16.991	1121.006	846.358
287.687	16.900	1120.471	845.425
288.701	16.950	1119.587	844.932
289.716	16.863	1119.069	844.033
290.730	16.944	1117.935	843.508
291.745	17.049	1117.325	843.495
292.760	17.071	1116.652	843.024
293.774	17.123	1116.269	842.916
294.789	17.231	1115.846	843.060
295.803	17.246	1115.139	842.523
296.818	17.127	1114.275	841.208
297.833	17.062	1113.578	840.283
298.847	16.969	1113.282	839.524
299.862	17.175	1111.777	839.336
300.876	17.152	1111.080	838.622
301.891	17.120	1110.817	838.193
302.906	17.276	1110.254	838.459
303.920	17.250	1109.671	837.819
304.935	17.288	1109.251	837.613
305.949	17.281	1108.492	836.935
306.964	17.477	1107.630	837.172
307.979	17.403	1106.946	836.216
308.993	17.257	1106.444	835.049
310.008	17.238	1105.500	834.166
311.022	17.387	1104.797	834.295
312.037	17.357	1104.374	833.755
313.052	17.313	1102.711	832.209
314.066	17.233	1102.013	831.216
315.081	17.257	1100.885	830.409
316.095	17.226	1100.337	829.770
317.110	17.162	1100.049	829.169
318.125	17.308	1098.503	828.645
319.139	17.420	1097.890	828.649
320.154	17.386	1097.422	828.059
321.168	17.221	1096.973	826.847
322.183	17.330	1096.309	826.800
323.197	17.292	1095.774	826.140
324.212	17.295	1094.836	825.373
325.227	17.361	1094.654	825.482
326.241	17.327	1094.021	824.770
327.256	17.383	1093.234	824.372
328.270	17.269	1092.526	823.214
329.285	17.352	1091.344	822.653
330.300	17.445	1090.063	822.064
331.314	17.349	1089.382	821.016
332.329	17.338	1088.884	820.514
333.343	17.429	1087.695	819.984
334.358	17.495	1086.792	819.547
335.373	17.602	1085.979	819.379
336.387	17.558	1085.422	818.675
337.402	17.630	1084.733	818.426
338.416	17.605	1084.158	817.802
339.431	17.603	1083.758	817.417
340.446	17.859	1082.500	817.621
341.460	17.809	1082.353	817.199
342.475	17.852	1081.397	816.611
343.489	17.779	1080.763	815.711
344.504	17.870	1079.656	815.236
345.519	17.890	1079.010	814.771
346.533	17.963	1078.032	814.311
347.548	18.037	1077.775	814.395
348.562	17.996	1076.532	813.188
349.577	17.919	1075.573	812.029
350.592	17.740	1075.282	810.886
351.606	17.765	1074.356	810.235
352.621	17.784	1073.600	809.682
353.635	17.718	1073.034	808.870
354.650	17.821	1072.141	808.612
355.665	17.822	1071.196	807.833
356.679	17.850	1070.976	807.731
357.694	17.943	1070.549	807.778
358.708	18.011	1069.497	807.232
359.723	17.898	1068.866	806.152
360.738	18.019	1068.481	806.362
361.752	17.932	1068.152	805.630
362.767	17.965	1067.737	805.401
363.781	17.978	1066.675	804.589
364.796	18.136	1065.901	804.680
365.810	18.169	1065.799	804.687
366.825	18.178	1065.226	804.223
367.840	18.242	1065.172	804.416
368.854	18.433	1063.927	804.300
369.869	18.295	1063.573	803.314
370.883	18.290	1062.287	802.245
371.898	18.181	1061.520	801.085
372.913	18.326	1060.583	800.985
373.927	18.246	1060.609	800.559
374.942	18.433	1060.159	801.023
375.956	18.365	1059.797	800.364
376.971	18.398	1059.008	799.849
377.986	18.451	1058.529	799.667
379.000	18.514	1057.839	799.367
380.015	18.453	1057.401	798.680
381.029	18.618	1056.703	798.850
382.044	18.579	1055.774	797.895
383.059	18.473	1055.404	797.054
384.073	18.538	1054.512	796.611
385.088	18.638	1053.560	796.285
386.102	18.602	1052.896	795.547
387.117	18.380	1052.316	794.007
388.132	18.493	1050.496	793.088
389.146	18.385	1049.786	791.982
390.161	18.335	1049.332	791.339
391.175	18.457	1048.633	791.305
392.190	18.463	1048.050	790.822
393.205	18.588	1047.334	790.790
394.219	18.562	1046.600	790.046
395.234	18.609	1045.130	789.084
396.248	18.606	1044.404	788.449
397.263	18.422	1043.800	787.080
398.278	18.281	1043.501	786.138
399.292	18.521	1042.142	786.143
400.307	18.470	1041.782	785.567
401.321	18.494	1041.043	785.051
402.336	18.459	1040.373	784.316
403.350	18.500	1039.624	783.870
404.365	18.489	1038.965	783.255
405.380	18.558	1038.415	783.085
406.394	18.606	1037.382	782.457
407.409	18.735	1036.473	782.287
408.423	18.747	1036.183	782.054
409.438	18.811	1035.662	781.883
410.453	18.821	1035.386	781.654
411.467	18.834	1034.367	780.872
412.482	18.916	1033.370	780.423
413.496	19.005	1032.919	780.418
414.511	18.929	1032.639	779.793
415.526	19.040	1031.803	779.597
416.540	18.977	1031.485	779.002
417.555	18.986	1030.995	778.604
418.569	19.062	1030.409	778.435
419.584	19.005	1029.873	777.702
420.599	18.925	1029.776	777.199
421.613	151.021	1399.964	1793.279
422.628	137.790	1453.912	1793.383
