DTS Sentinel unit serial number:	SN413079Multiplexer serial number:	ORYXHardware model number:	OX4-SRSoftware version number:	ORYX F/W v4.00 Oryx Data Collector v3.7.2.0data status	okinstallation	princeton_trtdifferential loss correction	single-endedforward channel	channel 2reverse channel	N/Adate	2019/09/14time	23:39:35forward acquisition time	60.00reverse acquisition time	0.00gamma	496.2192k internal	0.2324k external	0.2324temperature offset calibration	1.0056default loss term (dB/km)	0.3790temperature slope calibration	1.0000multiplexer offset coefficient	1.0000multiplexer slope coefficient	1.0000fibre end	0.00T internal ref (°C)	32.31T ext. ref 1 (°C)	4.65T ext. ref 2 (°C)	27.31length (m)	temperature (°C)	Stokes	anti-Stokes-747.200	173.089	-0.177	0.258
-746.185	617.051	-0.143	0.362
-745.171	-90.618	0.471	-0.137
-744.156	386.367	-0.059	-0.122
-743.142	194.456	0.080	-0.122
-742.127	-7.721	0.081	-0.056
-741.112	38.222	0.180	0.162
-740.098	55.300	0.074	0.073
-739.083	624.889	0.068	0.172
-738.069	785.515	0.042	0.117
-737.054	-200.000	-0.030	-0.248
-736.039	-52.295	-0.190	0.089
-735.025	-35.822	0.163	0.089
-734.010	-118.870	0.273	-0.048
-732.996	-12.329	-0.422	-0.278
-731.981	800.000	0.043	-0.186
-730.966	67.474	-0.067	0.069
-729.952	800.000	-0.067	-0.227
-728.937	336.487	0.049	0.096
-727.923	114.631	-0.348	-0.428
-726.908	259.699	-0.030	0.053
-725.894	-142.116	-0.422	0.042
-724.879	-200.000	0.026	0.152
-723.864	-27.399	-0.120	-0.070
-722.850	-20.581	-0.411	0.255
-721.835	-40.154	0.114	0.060
-720.821	-26.715	-0.217	-0.128
-719.806	-99.784	-0.081	-0.020
-718.791	28.234	0.216	0.184
-717.777	80.130	-0.240	-0.260
-716.762	-135.962	-0.125	-0.015
-715.748	37.839	-0.069	-0.062
-714.733	297.840	-0.074	0.138
-713.718	-13.461	0.165	0.108
-712.704	733.626	0.077	0.207
-711.689	-200.000	0.035	-0.371
-710.675	-177.488	-0.288	0.007
-709.660	194.777	0.148	0.227
-708.645	-133.159	-0.076	-0.010
-707.631	57.778	0.095	0.094
-706.616	-16.090	-0.145	-0.093
-705.602	-171.672	0.278	-0.009
-704.587	442.961	-0.097	-0.214
-703.572	-107.200	0.248	-0.055
-702.558	-83.885	-0.268	-0.086
-701.543	551.011	-0.041	-0.098
-700.529	494.111	0.042	0.097
-699.514	-95.516	0.280	-0.076
-698.499	379.335	-0.010	-0.022
-697.485	-148.148	-0.095	-0.008
-696.470	800.000	0.031	-0.129
-695.456	-120.901	-0.471	0.080
-694.441	-56.565	-0.430	-0.192
-693.426	30.312	-0.288	-0.248
-692.412	-100.294	0.184	-0.046
-691.397	-200.000	-0.035	-0.250
-690.383	-160.087	-0.078	0.004
-689.368	212.122	-0.176	-0.280
-688.354	218.246	-0.108	0.173
-687.339	2.334	0.137	0.100
-686.324	275.724	-0.182	0.325
-685.310	174.198	0.066	-0.096
-684.295	-113.542	0.223	-0.044
-683.281	800.000	-0.053	0.183
-682.266	-200.000	-0.020	0.130
-681.251	-188.747	-0.142	0.002
-680.237	546.933	-0.084	0.203
-679.222	-104.646	0.174	-0.040
-678.208	-100.548	-0.271	0.068
-677.193	-95.452	0.183	-0.049
-676.178	-19.051	0.125	-0.078
-675.164	-200.000	-0.000	0.295
-674.149	-94.942	-0.105	0.028
-673.135	120.729	-0.053	0.067
-672.120	226.976	-0.162	0.265
-671.105	69.813	-0.089	-0.093
-670.091	165.430	-0.038	-0.054
-669.076	800.000	-0.035	-0.099
-668.062	-72.484	0.120	-0.045
-667.047	-78.585	0.436	-0.150
-666.032	183.788	-0.190	-0.283
-665.018	-40.476	0.215	-0.113
-664.003	-97.539	-0.199	-0.052
-662.989	452.760	0.156	0.347
-661.974	454.306	0.042	0.095
-660.959	33.899	-0.279	0.244
-659.945	134.417	0.053	-0.070
-658.930	800.000	0.071	-0.204
-657.916	-55.537	0.086	0.039
-656.901	-79.101	0.329	-0.112
-655.886	-200.000	0.041	-0.257
-654.872	-164.424	0.161	0.007
-653.857	128.587	-0.231	0.296
-652.843	-183.370	0.273	-0.005
-651.828	48.125	0.090	0.084
-650.814	173.035	-0.108	-0.157
-649.799	307.153	-0.114	-0.214
-648.784	800.000	0.044	0.145
-647.770	-96.978	0.183	0.048
-646.755	187.612	0.108	0.162
-645.741	398.836	-0.030	0.063
-644.726	-200.000	0.009	0.315
-643.711	-200.000	-0.005	0.156
-642.697	174.418	0.041	-0.060
-641.682	-200.000	-0.032	-0.166
-640.668	-22.747	0.175	0.106
-639.653	-97.812	-0.250	-0.065
-638.638	-200.000	-0.003	0.019
-637.624	-97.219	0.095	-0.025
-636.609	-56.774	-0.413	-0.184
-635.595	-86.757	0.114	-0.035
-634.580	34.766	-0.277	0.244
-633.565	77.072	0.258	0.276
-632.551	-139.115	0.294	0.032
-631.536	108.531	0.036	0.044
-630.522	79.473	-0.285	0.308
-629.507	-105.594	-0.305	-0.070
-628.492	153.936	0.259	0.357
-627.478	-16.793	-0.171	-0.109
-626.463	95.980	0.144	-0.165
-625.449	512.396	0.078	-0.182
-624.434	-200.000	0.040	-0.234
-623.419	800.000	0.031	-0.128
-622.405	-5.210	0.138	-0.095
-621.390	21.349	0.145	0.119
-620.376	-46.926	0.297	0.146
-619.361	712.706	0.021	-0.056
-618.346	-123.306	0.240	0.039
-617.332	-92.939	-0.239	-0.067
-616.317	734.085	-0.077	-0.208
-615.303	47.358	0.150	0.140
-614.288	-91.427	-0.178	0.051
-613.273	182.236	-0.273	-0.404
-612.259	60.989	-0.165	0.165
-611.244	32.481	0.273	0.237
-610.230	79.864	0.022	-0.023
-609.215	-79.274	0.124	-0.042
-608.201	-181.682	-0.266	0.005
-607.186	524.980	-0.076	0.180
-606.171	-58.426	-0.310	-0.135
-605.157	-200.000	0.005	0.138
-604.142	-200.000	0.020	-0.290
-603.128	-177.202	-0.239	-0.006
-602.113	305.031	-0.182	0.340
-601.098	-107.347	-0.129	-0.028
-600.084	389.898	-0.076	-0.158
-599.069	438.957	0.100	0.219
-598.055	-200.000	0.030	0.408
-597.040	-37.718	0.300	-0.161
-596.025	15.627	-0.137	-0.108
-595.011	-152.299	-0.365	-0.026
-593.996	68.026	-0.139	0.143
-592.982	187.323	0.047	-0.070
-591.967	800.000	-0.067	0.239
-590.952	-116.045	-0.302	0.056
-589.938	-140.179	-0.220	-0.023
-588.923	-34.793	-0.252	-0.138
-587.909	7.873	-0.101	-0.076
-586.894	179.476	-0.148	0.218
-585.879	-200.000	-0.060	0.432
-584.865	-6.764	-0.216	0.148
-583.850	238.779	0.111	0.186
-582.836	75.137	0.207	0.219
-581.821	-9.032	-0.423	-0.284
-580.806	31.547	-0.291	-0.251
-579.792	83.730	-0.154	-0.169
-578.777	-93.783	-0.134	-0.037
-577.763	18.093	-0.133	0.107
-576.748	-44.746	-0.071	0.035
-575.733	-60.544	-0.274	0.117
-574.719	-88.125	-0.285	-0.086
-573.704	-200.000	0.001	0.143
-572.690	238.561	0.138	-0.231
-571.675	275.591	0.092	-0.164
-570.661	161.516	-0.084	-0.118
-569.646	95.120	0.270	0.308
-568.631	-200.000	0.031	-0.398
-567.617	-13.073	-0.313	0.204
-566.602	83.575	0.264	-0.288
-565.588	170.914	0.187	-0.268
-564.573	12.733	-0.253	0.196
-563.558	-179.958	0.526	0.011
-562.544	-70.923	0.253	-0.096
-561.529	-184.871	-0.213	0.003
-560.515	-162.687	-0.039	0.002
-559.500	-86.111	0.085	-0.026
-558.485	-42.598	0.358	0.183
-557.471	800.000	0.129	0.427
-556.456	-200.000	-0.001	-0.350
-555.442	130.158	-0.270	-0.346
-554.427	219.240	0.019	0.031
-553.412	141.091	-0.143	0.189
-552.398	-200.000	-0.055	-0.264
-551.383	233.029	-0.159	-0.262
-550.369	-149.332	0.147	0.012
-549.354	96.354	0.130	0.149
-548.339	96.394	-0.141	0.161
-547.325	384.973	-0.052	0.108
-546.310	800.000	-0.127	0.471
-545.296	16.754	-0.179	0.142
-544.281	26.850	0.350	0.294
-543.266	105.749	0.165	0.195
-542.252	260.506	0.120	-0.208
-541.237	-200.000	0.006	-0.133
-540.223	53.978	-0.189	0.182
-539.208	-51.320	-0.170	-0.080
-538.193	-102.771	-0.199	-0.048
-537.179	-58.624	-0.054	-0.023
-536.164	42.362	0.268	0.244
-535.150	12.449	-0.016	-0.013
-534.135	83.726	0.100	-0.110
-533.121	318.951	-0.228	0.433
-532.106	-137.754	0.086	0.010
-531.091	-200.000	-0.029	-0.207
-530.077	389.931	-0.095	-0.198
-529.062	-125.888	0.216	-0.033
-528.048	-136.423	-0.233	0.027
-527.033	47.849	0.295	-0.276
-526.018	497.378	0.148	0.342
-525.004	-7.315	0.261	0.177
-523.989	30.092	0.154	0.132
-522.975	-114.021	0.422	-0.082
-521.960	132.242	-0.174	-0.224
-520.945	-48.674	0.326	-0.157
-519.931	-142.335	-0.183	0.018
-518.916	548.146	-0.114	0.274
-517.902	800.000	0.026	0.099
-516.887	54.072	-0.249	-0.240
-515.872	634.466	0.121	-0.307
-514.858	-200.000	-0.037	0.197
-513.843	-200.000	-0.009	0.118
-512.829	73.887	-0.170	0.178
-511.814	78.675	-0.231	-0.248
-510.799	176.054	0.116	-0.169
-509.785	-56.331	0.079	0.035
-508.770	-50.133	-0.152	-0.072
-507.756	422.831	0.046	-0.098
-506.741	-200.000	-0.035	-0.229
-505.726	-90.823	-0.260	-0.075
-504.712	55.237	-0.165	0.160
-503.697	-166.214	-0.147	0.006
-502.683	356.964	-0.085	-0.169
-501.668	-71.243	0.299	0.112
-500.653	-200.000	-0.026	0.179
-499.639	-104.946	0.050	0.012
-498.624	173.921	0.221	-0.319
-497.610	71.116	0.139	0.144
-496.595	-77.528	0.222	-0.077
-495.581	-54.010	-0.319	0.145
-494.566	-182.664	0.108	-0.002
-493.551	60.109	0.071	-0.070
-492.537	800.000	-0.047	-0.165
-491.522	-106.883	-0.057	0.013
-490.508	-111.335	0.188	-0.038
-489.493	667.813	0.119	0.308
-488.478	-126.736	0.077	0.011
-487.464	-157.441	0.319	-0.019
-486.449	-200.000	-0.028	-0.393
-485.435	15.599	0.090	0.071
-484.420	58.521	0.014	0.014
-483.405	-85.086	-0.260	-0.081
-482.391	-60.814	-0.354	0.150
-481.376	-59.228	-0.144	-0.062
-480.362	-84.443	0.174	-0.055
-479.347	38.928	-0.236	0.211
-478.332	-105.332	0.113	0.026
-477.318	76.627	0.245	0.259
-476.303	-200.000	-0.043	0.352
-475.289	-163.616	0.041	-0.002
-474.274	-25.889	-0.370	-0.218
-473.259	78.756	0.085	0.091
-472.245	189.280	0.098	0.147
-471.230	-87.281	-0.238	-0.072
-470.216	800.000	-0.097	-0.301
-469.201	35.999	0.440	-0.387
-468.186	800.000	-0.112	-0.342
-467.172	-16.176	0.244	-0.155
-466.157	33.033	-0.152	0.131
-465.143	545.897	-0.081	-0.193
-464.128	-93.066	-0.142	-0.039
-463.113	83.237	0.138	0.150
-462.099	-200.000	0.019	-0.105
-461.084	735.282	-0.153	-0.409
-460.070	-200.000	0.010	0.151
-459.055	-25.878	-0.282	0.166
-458.040	322.824	-0.033	0.064
-457.026	-22.115	-0.028	-0.017
-456.011	-71.128	-0.108	-0.041
-454.997	-84.331	-0.442	0.140
-453.982	79.958	0.084	0.090
-452.968	-18.095	-0.282	0.176
-451.953	342.151	-0.167	-0.327
-450.938	728.880	0.033	0.089
-449.924	82.541	0.167	0.181
-448.909	800.000	-0.083	-0.249
-447.895	62.856	0.148	-0.148
-446.880	-200.000	0.010	-0.129
-445.865	99.202	-0.131	-0.151
-444.851	-200.000	0.009	-0.393
-443.836	79.346	0.156	-0.167
-442.822	-200.000	0.011	-0.060
-441.807	-180.102	-0.255	-0.005
-440.792	-24.792	-0.196	-0.116
-439.778	800.000	0.159	0.452
-438.763	392.585	-0.156	0.324
-437.749	-200.000	0.020	0.117
-436.734	-200.000	0.068	-0.372
-435.719	800.000	0.029	0.111
-434.705	-200.000	-0.044	-0.205
-433.690	-46.266	-0.101	-0.050
-432.676	126.628	-0.175	-0.222
-431.661	-56.614	-0.217	0.096
-430.646	61.400	-0.235	0.233
-429.632	800.000	-0.017	-0.048
-428.617	-62.334	0.204	-0.085
-427.603	-177.529	-0.044	-0.001
-426.588	-37.737	0.104	0.055
-425.573	800.000	0.031	-0.129
-424.559	83.071	-0.320	-0.347
-423.544	-51.497	0.359	-0.167
-422.530	-200.000	-0.016	0.170
-421.515	33.335	0.265	-0.229
-420.500	419.904	0.084	0.180
-419.486	-61.032	0.229	-0.096
-418.471	5.825	-0.277	0.205
-417.457	5.811	0.244	0.180
-416.442	-125.889	-0.277	-0.042
-415.428	97.099	-0.223	0.255
-414.413	-200.000	-0.081	-0.402
-413.398	-137.553	-0.095	-0.011
-412.384	405.965	-0.227	0.477
-411.369	-72.987	-0.125	-0.046
-410.355	27.710	0.300	-0.251
-409.340	-38.744	0.205	-0.108
-408.325	-62.453	0.096	0.040
-407.311	519.303	0.017	-0.040
-406.296	800.000	-0.097	0.290
-405.282	116.751	-0.135	-0.165
-404.267	800.000	-0.033	-0.101
-403.252	446.261	0.110	0.241
-402.238	-21.548	-0.168	0.102
-401.223	-58.407	-0.079	0.034
-400.209	-200.000	-0.006	-0.024
-399.194	-38.940	0.138	-0.073
-398.179	-99.776	-0.119	-0.030
-397.165	-120.108	0.284	0.048
-396.150	-200.000	0.008	0.147
-395.136	48.831	-0.009	-0.009
-394.121	-200.000	-0.021	0.231
-393.106	721.966	-0.047	0.124
-392.092	96.631	-0.117	0.133
-391.077	130.763	0.157	-0.200
-390.063	-200.000	-0.021	-0.144
-389.048	-200.000	-0.046	0.239
-388.033	17.997	-0.117	0.093
-387.019	195.491	0.235	-0.356
-386.004	-23.356	0.250	0.150
-384.990	52.714	0.143	0.136
-383.975	-127.018	0.686	-0.100
-382.960	-107.568	-0.199	0.043
-381.946	-56.411	0.232	0.103
-380.931	-45.160	0.073	-0.036
-379.917	184.319	0.197	-0.291
-378.902	-38.050	0.183	-0.097
-377.888	-128.252	0.208	0.030
-376.873	-172.357	-0.083	0.003
-375.858	-65.137	0.113	-0.045
-374.844	-137.754	0.103	-0.011
-373.829	34.559	0.036	-0.031
-372.815	197.981	-0.133	-0.203
-371.800	741.912	-0.077	0.205
-370.785	448.590	-0.027	0.059
-369.771	-72.749	-0.150	0.055
-368.756	98.018	-0.304	-0.348
-367.742	470.235	0.128	0.286
-366.727	75.911	0.192	0.202
-365.712	495.325	-0.046	-0.105
-364.698	-118.271	-0.265	0.047
-363.683	-83.663	0.171	0.054
-362.669	-200.000	-0.022	-0.154
-361.654	119.060	0.217	0.266
-360.639	46.084	0.061	-0.056
-359.625	-200.000	0.004	-0.165
-358.610	277.416	0.122	-0.215
-357.596	25.986	-0.122	0.101
-356.581	-135.031	-0.138	-0.017
-355.566	-200.000	-0.028	-0.438
-354.552	-144.220	0.055	-0.005
-353.537	-200.000	-0.034	0.177
-352.523	-12.766	0.153	0.099
-351.508	-121.204	0.319	-0.053
-350.493	613.440	0.079	-0.197
-349.479	338.312	0.119	-0.231
-348.464	-63.805	0.227	-0.092
-347.450	-52.075	-0.239	0.110
-346.435	-200.000	0.008	-0.287
-345.420	0.015	0.095	-0.068
-344.406	-200.000	0.046	0.404
-343.391	30.172	0.033	0.028
-342.377	172.372	-0.013	0.019
-341.362	92.607	0.169	0.190
-340.348	683.951	0.116	0.302
-339.333	-200.000	-0.007	-0.088
-338.318	95.963	-0.153	-0.173
-337.304	45.230	0.193	0.177
-336.289	-200.000	0.016	0.117
-335.275	800.000	0.056	0.192
-334.260	800.000	-0.045	-0.155
-333.245	282.019	0.223	0.398
-332.231	-3.242	-0.099	0.069
-331.216	-200.000	-0.022	0.127
-330.202	-200.000	-0.002	-0.200
-329.187	-102.081	-0.107	-0.026
-328.172	800.000	-0.025	-0.076
-327.158	-94.430	0.189	-0.051
-326.143	-75.065	-0.178	-0.063
-325.129	263.791	0.112	0.194
-324.114	198.907	0.168	0.256
-323.099	-39.868	0.320	0.166
-322.085	-200.000	0.009	0.078
-321.070	800.000	0.032	-0.105
-320.056	-50.663	0.095	-0.044
-319.041	46.708	-0.195	-0.180
-318.026	-200.000	0.027	0.118
-317.012	-165.830	0.184	0.008
-315.997	236.171	0.224	-0.369
-314.983	-117.090	-0.232	0.042
-313.968	-143.184	0.217	0.021
-312.953	-106.074	-0.254	-0.057
-311.939	-114.445	-0.252	-0.048
-310.924	256.143	-0.146	0.249
-309.910	270.479	-0.093	0.162
-308.895	23.737	0.138	0.113
-307.880	-102.655	0.288	0.068
-306.866	-30.175	-0.259	-0.146
-305.851	-200.000	-0.000	0.246
-304.837	-143.928	0.324	0.030
-303.822	-160.854	0.121	0.006
-302.807	458.054	0.076	-0.167
-301.793	-81.750	-0.097	-0.032
-300.778	76.684	-0.172	-0.181
-299.764	-58.992	-0.180	-0.077
-298.749	329.949	0.150	-0.286
-297.735	-40.344	-0.174	-0.090
-296.720	-66.188	-0.145	-0.057
-295.705	39.875	-0.168	0.149
-294.691	-31.104	0.319	-0.178
-293.676	-52.587	0.112	0.051
-292.662	130.827	0.046	-0.059
-291.647	-200.000	-0.012	-0.115
-290.632	353.435	0.196	0.386
-289.618	-200.000	-0.006	-0.049
-288.603	-163.949	0.074	0.003
-287.589	-200.000	-0.008	0.166
-286.574	67.554	0.201	0.203
-285.559	8.519	0.100	-0.074
-284.545	5.805	0.205	-0.150
-283.530	29.706	0.327	-0.276
-282.516	62.901	0.109	-0.108
-281.501	244.734	-0.159	0.265
-280.486	800.000	0.054	-0.163
-279.472	11.007	0.169	-0.128
-278.457	123.822	-0.177	-0.221
-277.443	-119.721	0.294	-0.050
-276.428	-62.031	-0.141	0.058
-275.413	272.163	0.080	-0.139
-274.399	-43.983	-0.380	-0.189
-273.384	113.002	-0.095	0.114
-272.370	3.068	-0.236	-0.170
-271.355	-27.430	0.230	0.133
-270.340	14.022	-0.174	0.135
-269.326	-75.534	0.309	0.109
-268.311	772.652	0.043	-0.117
-267.297	69.248	-0.107	-0.109
-266.282	127.281	0.064	-0.081
-265.267	23.533	0.138	-0.112
-264.253	-73.872	0.213	-0.077
-263.238	800.000	0.027	-0.081
-262.224	-65.878	0.108	0.043
-261.209	-55.600	0.185	-0.082
-260.195	120.741	0.177	-0.218
-259.180	800.000	0.056	-0.241
-258.165	-200.000	-0.001	-0.014
-257.151	-106.265	-0.305	-0.068
-256.136	386.953	0.076	-0.155
-255.122	119.553	0.121	0.148
-254.107	-49.306	-0.247	0.117
-253.092	-141.636	0.205	0.020
-252.078	800.000	0.038	0.110
-251.063	309.958	-0.041	-0.076
-250.049	-5.519	-0.215	-0.146
-249.034	15.192	-0.282	0.219
-248.019	53.528	-0.049	0.046
-247.005	4.016	0.203	0.147
-245.990	-6.444	-0.137	0.093
-244.976	-102.231	-0.235	0.056
-243.961	-152.652	0.208	0.015
-242.946	-62.000	-0.113	0.047
-241.932	-200.000	0.035	0.229
-240.917	-200.000	-0.000	0.078
-239.903	170.599	0.077	-0.109
-238.888	-101.920	0.070	0.017
-237.873	-200.000	-0.017	-0.229
-236.859	229.926	0.204	-0.330
-235.844	800.000	0.047	0.181
-234.830	190.740	0.094	0.140
-233.815	278.982	0.074	-0.131
-232.800	-117.934	0.190	-0.034
-231.786	27.031	0.244	0.202
-230.771	-151.951	-0.097	-0.007
-229.757	-27.185	-0.115	0.066
-228.742	-200.000	-0.011	-0.158
-227.727	207.163	-0.107	0.165
-226.713	-24.051	0.117	0.069
-225.698	-200.000	-0.016	-0.229
-224.684	-23.588	0.155	-0.092
-223.669	225.314	-0.101	0.161
-222.655	-173.073	-0.152	-0.005
-221.640	-200.000	0.021	0.257
-220.625	156.583	0.169	-0.231
-219.611	168.186	0.107	-0.151
-218.596	171.041	-0.178	-0.253
-217.582	255.374	-0.096	0.162
-216.567	-3.028	0.206	-0.142
-215.552	-200.000	0.027	-0.309
-214.538	23.031	-0.172	-0.140
-213.523	-54.963	-0.269	0.120
-212.509	11.821	-0.429	-0.326
-211.494	-200.000	-0.014	0.177
-210.479	-11.343	0.189	0.123
-209.465	157.789	-0.198	-0.271
-208.450	5.477	-0.258	-0.189
-207.436	-123.256	0.440	0.070
-206.421	-126.783	-0.293	-0.043
-205.406	53.354	-0.120	0.114
-204.392	116.492	-0.262	-0.318
-203.377	242.205	0.022	0.037
-202.363	-200.000	0.054	-0.296
-201.348	-16.889	0.111	0.070
-200.333	257.905	-0.057	0.096
-199.319	-52.670	0.257	0.117
-198.304	-128.101	-0.233	-0.033
-197.290	86.490	0.108	-0.118
-196.275	-200.000	0.061	0.371
-195.260	-7.414	-0.267	0.178
-194.246	4.654	-0.198	0.144
-193.231	-81.688	-0.226	0.073
-192.217	-12.867	-0.187	-0.120
-191.202	-59.443	0.120	-0.051
-190.187	-97.693	0.360	0.092
-189.173	-10.806	0.097	0.063
-188.158	-200.000	-0.009	-0.192
-187.144	-32.519	0.141	0.078
-186.129	22.980	0.122	-0.098
-185.114	22.137	0.070	0.056
-184.100	-96.577	0.164	-0.043
-183.085	75.889	0.044	0.046
-182.071	-38.841	-0.260	0.136
-181.056	-4.011	0.141	0.096
-180.042	-66.554	0.117	0.046
-179.027	-200.000	0.012	-0.095
-178.012	-95.756	-0.115	0.030
-176.998	-96.767	-0.240	0.062
-175.983	800.000	-0.134	0.480
-174.969	-200.000	-0.010	0.159
-173.954	-80.348	0.219	0.072
-172.939	-87.112	-0.080	-0.024
-171.925	411.074	0.175	0.367
-170.910	184.293	-0.256	0.374
-169.896	4.802	-0.353	-0.256
-168.881	-125.471	0.366	-0.055
-167.866	104.960	0.202	0.235
-166.852	32.478	-0.118	-0.101
-165.837	63.299	0.111	0.110
-164.823	-200.000	0.022	0.193
-163.808	-80.142	-0.179	-0.059
-162.793	21.746	0.076	0.061
-161.779	87.413	-0.130	0.142
-160.764	108.509	0.091	0.107
-159.750	87.423	-0.149	0.163
-158.735	-12.824	0.139	-0.089
-157.720	-8.217	-0.009	0.006
-156.706	22.802	0.197	-0.159
-155.691	-200.000	-0.002	-0.032
-154.677	90.697	-0.156	-0.173
-153.662	107.208	0.144	-0.169
-152.647	489.589	-0.216	-0.487
-151.633	-200.000	-0.024	0.236
-150.618	724.706	-0.116	0.304
-149.604	-146.477	0.107	-0.009
-148.589	800.000	0.056	0.157
-147.574	-22.121	0.148	-0.089
-146.560	4.395	-0.213	0.154
-145.545	-200.000	-0.034	-0.154
-144.531	250.108	0.055	0.093
-143.516	224.889	0.124	0.198
-142.502	800.000	-0.117	0.343
-141.487	-86.734	0.116	0.035
-140.472	-160.361	0.129	-0.007
-139.458	-24.475	-0.258	-0.152
-138.443	-44.235	-0.086	0.043
-137.429	-122.888	0.251	-0.040
-136.414	800.000	0.017	-0.052
-135.399	-200.000	-0.044	-0.291
-134.385	800.000	-0.083	0.260
-133.370	-184.223	-0.116	0.002
-132.356	-85.792	-0.162	0.049
-131.341	243.516	-0.139	0.231
-130.326	0.492	-0.263	-0.185
-129.312	-85.874	-0.025	0.008
-128.297	800.000	0.108	-0.342
-127.283	167.876	-0.056	0.079
-126.268	-200.000	-0.030	-0.195
-125.253	800.000	-0.057	0.160
-124.239	800.000	0.069	0.213
-123.224	-125.578	-0.155	0.023
-122.210	-200.000	0.007	-0.074
-121.195	-85.908	0.326	-0.100
-120.180	252.011	0.160	0.269
-119.166	14.658	-0.176	-0.135
-118.151	-200.000	0.029	-0.269
-117.137	-200.000	-0.067	-0.310
-116.122	-89.203	0.280	0.082
-115.107	155.006	-0.215	0.291
-114.093	-200.000	0.053	0.362
-113.078	35.553	0.100	-0.087
-112.064	800.000	-0.022	-0.068
-111.049	434.010	-0.062	0.132
-110.034	800.000	-0.036	-0.114
-109.020	-82.009	-0.414	-0.133
-108.005	328.839	0.024	-0.045
-106.991	293.398	-0.026	0.046
-105.976	-56.669	0.379	0.165
-104.962	-6.460	-0.028	0.019
-103.947	-35.994	0.195	0.104
-102.932	800.000	0.060	0.235
-101.918	800.000	-0.030	0.102
-100.903	121.592	-0.247	0.303
-99.889	-69.817	0.445	-0.167
-98.874	-17.005	0.088	-0.055
-97.859	15.773	-0.067	0.052
-96.845	-65.156	0.231	-0.092
-95.830	-113.120	-0.202	0.039
-94.816	-150.909	0.057	0.004
-93.801	-52.591	0.099	-0.045
-92.786	-30.987	-0.192	0.107
-91.772	96.406	0.156	0.175
-90.757	187.069	0.017	-0.025
-89.743	20.321	0.255	0.203
-88.728	-3.632	-0.190	0.130
-87.713	-111.348	-0.121	0.024
-86.699	545.239	0.067	-0.158
-85.684	-200.000	-0.028	0.377
-84.670	-102.595	-0.480	0.113
-83.655	190.976	-0.043	-0.064
-82.640	-118.925	0.112	0.019
-81.626	-117.667	-0.210	-0.037
-80.611	-106.685	-0.212	-0.046
-79.597	-101.907	0.149	-0.035
-78.582	423.592	-0.060	-0.128
-77.567	-19.231	-0.322	-0.196
-76.553	800.000	-0.071	-0.272
-75.538	800.000	0.028	-0.086
-74.524	-200.000	0.018	0.113
-73.509	800.000	-0.037	-0.132
-72.494	-153.500	0.319	-0.022
-71.480	-133.523	0.292	-0.036
-70.465	-200.000	0.028	-0.251
-69.451	800.000	-0.032	-0.108
-68.436	-104.300	-0.097	-0.022
-67.422	-126.055	0.044	-0.007
-66.407	-11.732	0.105	0.068
-65.392	-81.021	0.167	-0.055
-64.378	-0.135	0.184	-0.128
-63.363	800.000	0.068	0.254
-62.349	-43.254	0.125	-0.062
-61.334	195.285	-0.580	-0.867
-60.319	-1.778	0.540	0.373
-59.305	-200.000	-0.029	-0.993
-58.290	203.679	0.921	1.400
-57.276	593.547	0.492	1.195
-56.261	-200.000	94.992	586.571
-55.246	666.475	1367.562	3472.806
-54.232	199.306	2550.304	3841.689
-53.217	114.711	2267.462	2716.232
-52.203	41.926	1895.799	1689.847
-51.188	35.651	1686.006	1455.452
-50.173	32.860	1642.084	1396.859
-49.159	50.199	1687.861	1566.172
-48.144	51.856	1704.078	1593.582
-47.130	35.260	1665.391	1434.504
-46.115	32.393	1651.308	1401.007
-45.100	32.209	1646.185	1395.235
-44.086	32.229	1643.520	1393.068
-43.071	32.226	1640.872	1390.749
-42.057	32.118	1638.753	1388.099
-41.042	32.229	1636.400	1386.868
-40.027	32.264	1634.381	1385.362
-39.013	32.201	1632.578	1383.316
-37.998	32.177	1631.337	1382.029
-36.984	32.256	1629.983	1381.409
-35.969	32.292	1628.603	1380.450
-34.954	32.320	1626.935	1379.187
-33.940	32.246	1625.074	1377.017
-32.925	32.302	1623.383	1375.934
-31.911	32.251	1621.952	1374.295
-30.896	32.273	1619.976	1372.725
-29.881	32.320	1618.467	1371.735
-28.867	32.339	1616.649	1370.280
-27.852	32.314	1615.127	1368.752
-26.838	32.295	1613.261	1366.984
-25.823	32.265	1612.653	1366.194
-24.809	32.360	1610.851	1365.298
-23.794	32.378	1609.547	1364.274
-22.779	32.353	1608.291	1362.975
-21.765	32.289	1606.269	1360.739
-20.750	32.338	1604.679	1359.697
-19.736	32.372	1603.569	1358.948
-18.721	32.448	1601.952	1358.068
-17.706	32.318	1600.656	1355.979
-16.692	32.343	1599.124	1354.810
-15.677	32.240	1598.334	1353.343
-14.663	32.450	1596.147	1352.948
-13.648	32.367	1594.766	1351.128
-12.633	32.358	1593.214	1349.693
-11.619	32.263	1592.183	1348.086
-10.604	32.280	1590.357	1346.609
-9.590	32.371	1589.079	1346.122
-8.575	32.387	1588.043	1345.307
-7.560	32.419	1586.506	1344.184
-6.546	32.352	1585.530	1342.824
-5.531	32.329	1584.361	1341.615
-4.517	32.307	1582.836	1340.116
-3.502	32.370	1581.959	1339.764
-2.487	32.432	1580.152	1338.622
-1.473	32.028	1568.758	1326.063
-0.458	29.406	1549.668	1291.551
0.556	25.591	1549.868	1259.787
1.571	23.259	1572.617	1261.569
2.586	22.676	1585.910	1267.927
3.600	20.149	1532.861	1207.823
4.615	12.287	1424.311	1071.102
5.629	5.775	1361.623	983.140
6.644	4.831	1354.360	971.919
7.659	4.575	1352.946	969.224
8.673	4.581	1352.084	968.560
9.688	4.624	1349.909	967.181
10.702	4.561	1347.453	964.948
11.717	7.480	1353.273	987.208
12.731	14.954	1366.220	1043.345
13.746	19.514	1373.226	1077.124
14.761	19.231	1371.763	1074.112
15.775	18.263	1368.562	1065.489
16.790	17.071	1366.437	1056.327
17.804	16.331	1364.032	1049.776
18.819	15.952	1362.589	1046.217
19.834	15.747	1361.353	1043.906
20.848	15.508	1360.145	1041.402
21.863	15.223	1358.722	1038.459
22.877	15.086	1357.763	1036.786
23.892	15.177	1356.654	1036.409
24.907	15.048	1355.900	1034.940
25.921	15.087	1355.001	1034.403
26.936	15.160	1354.114	1034.089
27.950	15.144	1353.076	1033.102
28.965	15.100	1352.536	1032.330
29.980	15.359	1350.824	1032.524
30.994	15.390	1349.961	1031.964
32.009	15.377	1348.814	1030.917
33.023	15.408	1347.266	1029.834
34.038	15.234	1346.445	1028.050
35.053	15.192	1344.859	1026.491
36.067	15.312	1343.403	1026.020
37.082	15.298	1342.765	1025.356
38.096	15.268	1341.920	1024.440
39.111	15.345	1341.109	1024.201
40.126	15.161	1340.638	1022.625
41.140	15.024	1339.640	1020.936
42.155	15.012	1338.760	1020.103
43.169	14.933	1338.923	1019.653
44.184	14.985	1338.337	1019.434
45.199	14.991	1337.979	1019.113
46.213	15.098	1337.388	1019.222
47.228	15.063	1337.240	1018.806
48.242	15.279	1335.453	1018.664
49.257	15.144	1334.013	1016.660
50.271	15.086	1332.706	1015.219
51.286	15.156	1331.349	1014.521
52.301	15.233	1329.560	1013.532
53.315	15.097	1328.837	1012.068
54.330	15.078	1327.590	1010.914
55.344	15.002	1326.570	1009.590
56.359	15.039	1325.823	1009.159
57.374	14.981	1324.906	1008.019
58.388	14.989	1323.888	1007.202
59.403	14.901	1323.526	1006.309
60.417	14.875	1322.805	1005.518
61.432	14.897	1321.751	1004.762
62.447	14.841	1321.060	1003.811
63.461	14.801	1319.542	1002.324
64.476	14.841	1318.618	1001.774
65.490	14.845	1317.415	1000.798
66.505	14.887	1315.800	999.730
67.520	14.851	1314.724	998.610
68.534	14.981	1313.489	998.362
69.549	14.819	1313.476	997.296
70.563	14.844	1311.811	996.095
71.578	14.772	1310.938	994.915
72.593	14.780	1309.681	993.922
73.607	14.721	1308.820	992.826
74.622	14.657	1308.415	992.050
75.636	14.844	1307.476	992.364
76.651	14.774	1306.769	991.324
77.666	14.769	1306.646	991.114
78.680	14.890	1305.933	991.199
79.695	14.850	1304.873	990.072
80.709	14.973	1304.320	990.290
81.724	14.978	1303.619	989.701
82.739	14.996	1302.781	989.083
83.753	15.050	1301.951	988.684
84.768	15.257	1300.623	988.812
85.782	15.275	1299.801	988.206
86.797	15.226	1298.554	986.879
87.812	15.190	1297.489	985.773
88.826	15.208	1296.052	984.698
89.841	15.151	1295.609	983.938
90.855	15.247	1294.455	983.543
91.870	15.239	1293.774	982.889
92.884	15.271	1292.572	982.077
93.899	15.220	1291.979	981.242
94.914	15.350	1291.094	981.241
95.928	15.374	1290.450	980.807
96.943	15.325	1289.184	979.470
97.957	15.203	1288.426	978.098
98.972	15.218	1287.468	977.369
99.987	15.243	1286.126	976.408
101.001	15.341	1285.305	976.268
102.016	15.277	1284.270	975.024
103.030	15.310	1283.880	974.834
104.045	15.216	1282.474	973.136
105.060	15.258	1281.392	972.475
106.074	15.051	1280.166	970.258
107.089	14.965	1278.825	968.657
108.103	14.931	1277.045	967.024
109.118	14.898	1276.237	966.137
110.133	15.010	1274.129	965.101
111.147	15.000	1273.020	964.121
112.162	14.949	1271.881	962.877
113.176	14.929	1271.257	962.205
114.191	15.168	1269.625	962.257
115.206	15.085	1268.743	961.029
116.220	15.034	1267.658	959.831
117.235	15.004	1266.252	958.506
118.249	15.042	1265.489	958.065
119.264	14.950	1264.416	956.639
120.279	14.963	1263.437	955.888
121.293	14.925	1262.172	954.631
122.308	14.850	1261.409	953.538
123.322	14.857	1260.181	952.565
124.337	14.847	1259.192	951.676
125.352	14.876	1257.845	950.744
126.366	14.820	1256.981	949.684
127.381	14.901	1256.457	949.664
128.395	14.958	1255.053	948.844
129.410	14.899	1254.020	947.643
130.424	14.889	1253.551	947.148
131.439	15.019	1252.287	946.849
132.454	15.045	1251.216	946.098
133.468	15.048	1250.495	945.490
134.483	14.982	1249.800	944.509
135.497	14.973	1249.016	943.780
136.512	15.067	1247.725	943.253
137.527	15.199	1245.941	942.559
138.541	15.065	1244.798	940.857
139.556	15.119	1243.599	940.175
140.570	15.190	1242.651	939.769
141.585	15.271	1241.523	939.287
142.600	15.301	1240.028	938.245
143.614	15.262	1239.783	937.756
144.629	15.353	1238.570	937.264
145.643	15.388	1237.434	936.520
146.658	15.304	1236.172	935.013
147.673	15.196	1234.755	933.258
148.687	15.045	1234.128	931.860
149.702	15.105	1232.614	930.966
150.716	15.092	1231.391	929.887
151.731	15.213	1230.191	929.572
152.746	15.080	1228.887	927.768
153.760	15.066	1227.956	926.902
154.775	15.258	1226.640	926.891
155.789	15.251	1225.492	925.905
156.804	15.261	1224.279	924.960
157.819	15.369	1223.431	924.834
158.833	15.404	1222.695	924.387
159.848	15.436	1222.007	923.959
160.862	15.436	1221.161	923.238
161.877	15.372	1219.502	921.552
162.892	15.288	1218.040	919.906
163.906	15.215	1217.648	919.126
164.921	15.206	1216.768	918.333
165.935	15.307	1215.618	917.935
166.950	15.280	1215.391	917.534
167.964	15.297	1214.690	917.020
168.979	15.272	1213.898	916.203
169.994	15.352	1212.885	915.793
171.008	15.306	1212.303	915.021
172.023	15.412	1211.595	914.984
173.037	15.512	1210.715	914.782
174.052	15.481	1210.076	914.053
175.067	15.263	1209.267	912.173
176.081	15.251	1207.891	910.988
177.096	15.358	1206.832	910.693
178.110	15.344	1205.682	909.669
179.125	15.361	1204.294	908.631
180.140	15.259	1203.755	907.592
181.154	15.472	1202.051	907.376
182.169	15.517	1201.253	906.939
183.183	15.476	1200.293	905.911
184.198	15.562	1198.576	904.998
185.213	15.566	1197.658	904.249
186.227	15.579	1196.681	903.502
187.242	15.677	1195.636	903.157
188.256	15.605	1194.953	902.173
189.271	15.713	1193.727	901.749
190.286	15.574	1192.695	900.143
191.300	15.298	1192.023	898.080
192.315	15.259	1191.365	897.298
193.329	15.244	1190.620	896.574
194.344	15.294	1190.025	896.315
195.359	15.514	1189.328	896.888
196.373	15.491	1189.545	896.846
197.388	15.737	1188.629	897.390
198.402	15.596	1189.053	896.881
199.417	15.819	1187.400	896.743
200.432	16.005	1186.522	896.987
201.446	15.861	1186.196	895.894
202.461	15.986	1185.167	895.702
203.475	16.053	1183.911	895.033
204.490	15.878	1182.975	893.316
205.504	15.712	1181.849	891.509
206.519	15.829	1180.271	890.858
207.534	15.718	1179.665	889.735
208.548	15.839	1177.977	889.023
209.563	15.685	1177.869	888.046
210.577	15.828	1177.018	888.080
211.592	15.814	1176.365	887.436
212.607	15.952	1175.360	887.326
213.621	15.914	1174.931	886.724
214.636	16.002	1173.512	886.037
215.650	15.925	1172.741	884.972
216.665	15.996	1171.598	884.404
217.680	16.140	1170.610	884.336
218.694	16.143	1169.598	883.510
219.709	16.143	1168.541	882.633
220.723	16.073	1168.532	882.183
221.738	16.019	1167.652	881.155
222.753	16.065	1167.080	880.887
223.767	16.105	1166.249	880.392
224.782	16.132	1165.697	880.035
225.796	16.209	1165.478	880.198
226.811	16.236	1164.106	879.223
227.826	16.165	1163.393	878.239
228.840	16.071	1162.829	877.243
229.855	16.184	1162.004	877.131
230.869	16.112	1161.493	876.294
231.884	16.168	1160.193	875.526
232.899	16.102	1159.475	874.564
233.913	15.959	1159.146	873.496
234.928	16.057	1158.140	873.170
235.942	15.925	1157.836	872.181
236.957	15.970	1156.839	871.586
237.972	15.987	1156.151	871.076
238.986	16.062	1155.149	870.633
240.001	16.051	1154.936	870.338
241.015	16.116	1153.796	869.735
242.030	16.102	1153.331	869.238
243.045	16.123	1152.549	868.677
244.059	16.147	1151.699	868.087
245.074	16.196	1150.944	867.691
246.088	16.284	1150.117	867.443
247.103	16.220	1149.514	866.583
248.117	16.375	1148.501	866.538
249.132	16.526	1147.639	866.583
250.147	16.566	1147.442	866.565
251.161	16.620	1146.465	866.028
252.176	16.709	1146.013	866.066
253.190	16.672	1145.492	865.402
254.205	16.722	1144.787	865.051
255.220	16.752	1144.337	864.786
256.234	16.755	1143.379	864.003
257.249	16.675	1143.132	863.328
258.263	16.692	1142.272	862.691
259.278	16.798	1141.363	862.467
260.293	16.909	1140.979	862.665
261.307	16.977	1140.468	862.551
262.322	16.949	1139.380	861.509
263.336	16.923	1138.535	860.661
264.351	16.905	1138.281	860.302
265.366	17.021	1137.634	860.323
266.380	17.025	1136.850	859.675
267.395	16.962	1136.147	858.752
268.409	16.866	1135.365	857.599
269.424	16.876	1135.036	857.323
270.439	16.891	1134.434	856.868
271.453	16.879	1133.379	855.932
272.468	16.831	1132.307	854.808
273.482	16.788	1131.892	854.199
274.497	16.832	1131.172	853.806
275.512	16.930	1130.266	853.537
276.526	16.890	1129.664	852.809
277.541	16.830	1128.808	851.784
278.555	16.870	1128.099	851.373
279.570	17.148	1127.457	852.210
280.585	17.043	1126.816	851.122
281.599	17.062	1125.773	850.355
282.614	16.925	1124.914	848.945
283.628	16.868	1123.576	847.575
284.643	16.959	1123.128	847.617
285.657	17.027	1121.966	847.002
286.672	17.090	1120.750	846.324
287.687	17.086	1119.860	845.559
288.701	17.084	1119.420	845.141
289.716	17.055	1118.904	844.533
290.730	16.978	1118.145	843.503
291.745	17.182	1117.434	843.904
292.760	17.149	1116.633	843.062
293.774	17.112	1116.789	842.920
294.789	17.193	1115.892	842.569
295.803	17.232	1114.861	841.913
296.818	17.138	1114.560	841.142
297.833	17.144	1113.612	840.383
298.847	17.191	1112.711	839.863
299.862	17.160	1112.235	839.277
300.876	17.187	1111.300	838.627
301.891	17.273	1110.756	838.569
302.906	17.359	1109.939	838.303
303.920	17.354	1109.771	838.075
304.935	17.467	1108.621	837.691
305.949	17.456	1108.456	837.438
306.964	17.404	1107.696	836.531
307.979	17.447	1106.862	836.042
308.993	17.397	1106.044	835.104
310.008	17.464	1105.335	834.822
311.022	17.606	1104.395	834.734
312.037	17.576	1103.341	833.716
313.052	17.410	1102.890	832.490
314.066	17.471	1101.776	831.872
315.081	17.203	1101.057	829.948
316.095	17.340	1100.053	829.787
317.110	17.409	1099.197	829.403
318.125	17.317	1099.053	828.776
319.139	17.323	1098.187	828.074
320.154	17.509	1096.993	828.005
321.168	17.411	1096.685	827.224
322.183	17.435	1096.176	826.886
323.197	17.535	1095.096	826.481
324.212	17.532	1094.742	826.126
325.227	17.391	1094.469	825.164
326.241	17.479	1093.492	824.781
327.256	17.481	1093.021	824.360
328.270	17.439	1092.100	823.393
329.285	17.389	1091.174	822.377
330.300	17.537	1090.320	822.378
331.314	17.407	1089.237	820.860
332.329	17.454	1088.476	820.443
333.343	17.576	1087.390	820.137
334.358	17.632	1086.667	819.791
335.373	17.658	1086.322	819.579
336.387	17.729	1085.405	819.156
337.402	17.770	1084.821	818.841
338.416	17.716	1084.266	818.091
339.431	17.792	1083.568	817.855
340.446	17.977	1082.527	817.883
341.460	17.839	1082.774	817.338
342.475	17.911	1081.479	816.634
343.489	17.943	1080.379	815.884
344.504	18.080	1079.772	816.006
345.519	18.061	1078.366	814.782
346.533	18.135	1077.967	814.760
347.548	18.090	1077.177	813.878
348.562	18.179	1076.651	813.831
349.577	18.007	1075.810	812.306
350.592	17.993	1074.577	811.236
351.606	17.773	1074.315	809.919
352.621	17.908	1073.517	809.889
353.635	17.814	1072.934	808.931
354.650	17.866	1072.092	808.469
355.665	17.922	1071.757	808.414
356.679	17.971	1070.826	807.871
357.694	17.920	1070.650	807.425
358.708	17.996	1069.604	806.923
359.723	18.085	1068.945	806.775
360.738	18.066	1068.326	806.144
361.752	18.041	1068.076	805.769
362.767	18.087	1067.687	805.622
363.781	18.193	1066.571	805.207
364.796	18.225	1066.017	804.866
365.810	18.289	1065.518	804.719
366.825	18.321	1064.959	804.376
367.840	18.243	1065.280	804.183
368.854	18.494	1064.032	804.346
369.869	18.362	1063.261	803.073
370.883	18.382	1062.484	802.509
371.898	18.234	1061.815	801.238
372.913	18.272	1061.173	800.863
373.927	18.292	1060.946	800.714
374.942	18.333	1060.207	800.279
375.956	18.518	1059.438	800.488
376.971	18.495	1058.737	799.781
377.986	18.427	1058.398	799.139
379.000	18.528	1057.854	799.129
380.015	18.590	1057.151	798.813
381.029	18.715	1056.304	798.685
382.044	18.656	1055.627	797.829
383.059	18.551	1055.226	796.968
384.073	18.467	1054.864	796.230
385.088	18.623	1053.683	795.995
386.102	18.552	1052.588	794.769
387.117	18.554	1051.908	794.194
388.132	18.529	1050.432	792.892
389.146	18.463	1050.262	792.391
390.161	18.419	1049.785	791.757
391.175	18.564	1048.709	791.544
392.190	18.562	1047.856	790.821
393.205	18.675	1047.286	790.839
394.219	18.645	1046.692	790.183
395.234	18.598	1045.443	788.955
396.248	18.620	1044.286	788.111
397.263	18.504	1043.584	786.984
398.278	18.510	1042.816	786.360
399.292	18.594	1041.991	786.051
400.307	18.449	1041.866	785.225
401.321	18.498	1040.968	784.706
402.336	18.607	1039.978	784.385
403.350	18.566	1039.487	783.757
404.365	18.591	1039.066	783.489
405.380	18.699	1037.929	783.052
406.394	18.712	1037.428	782.665
407.409	18.771	1036.813	782.399
408.423	18.736	1036.207	781.714
409.438	18.827	1035.778	781.735
410.453	18.886	1034.909	781.279
411.467	19.017	1034.344	781.376
412.482	18.890	1033.768	780.296
413.496	19.019	1032.946	780.192
414.511	18.982	1032.343	779.503
415.526	19.097	1031.755	779.510
416.540	19.091	1031.554	779.262
417.555	19.120	1031.038	778.934
418.569	19.057	1030.309	778.029
419.584	19.076	1029.968	777.788
420.599	19.102	1029.371	777.386
421.613	151.317	1400.218	1794.360
422.628	138.047	1454.240	1794.431
