DTS Sentinel unit serial number:	SN413079Multiplexer serial number:	ORYXHardware model number:	OX4-SRSoftware version number:	ORYX F/W v4.00 Oryx Data Collector v3.7.2.0data status	okinstallation	princeton_trtdifferential loss correction	single-endedforward channel	channel 2reverse channel	N/Adate	2019/09/17time	03:55:34forward acquisition time	60.00reverse acquisition time	0.00gamma	496.2192k internal	0.2327k external	0.2327temperature offset calibration	0.9973default loss term (dB/km)	0.3790temperature slope calibration	1.0000multiplexer offset coefficient	1.0000multiplexer slope coefficient	1.0000fibre end	0.00T internal ref (°C)	29.94T ext. ref 1 (°C)	0.13T ext. ref 2 (°C)	24.42length (m)	temperature (°C)	Stokes	anti-Stokes-747.200	-51.134	-0.174	0.082
-746.185	-200.000	-0.029	0.212
-745.171	160.765	-0.129	0.182
-744.156	800.000	-0.092	0.367
-743.142	285.749	0.102	0.186
-742.127	1.074	0.019	-0.014
-741.112	800.000	-0.037	-0.110
-740.098	-179.254	0.153	0.003
-739.083	188.041	0.062	-0.094
-738.069	-200.000	-0.095	0.423
-737.054	194.573	-0.117	0.179
-736.039	-88.885	0.220	-0.066
-735.025	-81.507	-0.131	0.043
-734.010	550.736	-0.052	-0.125
-732.996	-200.000	-0.031	-0.141
-731.981	800.000	-0.061	-0.197
-730.966	64.474	0.169	-0.172
-729.952	62.008	0.128	-0.128
-728.937	32.452	-0.023	-0.020
-727.923	29.146	0.203	-0.173
-726.908	128.624	0.059	-0.076
-725.894	193.012	0.091	0.139
-724.879	364.902	-0.143	-0.289
-723.864	800.000	-0.061	-0.195
-722.850	-3.786	-0.265	-0.185
-721.835	95.944	0.127	0.146
-720.821	800.000	-0.129	-0.404
-719.806	-8.806	-0.152	0.102
-718.791	2.856	-0.092	-0.067
-717.777	800.000	-0.038	0.164
-716.762	-1.703	0.238	-0.169
-715.748	6.552	-0.205	0.153
-714.733	800.000	-0.135	-0.475
-713.718	-200.000	0.059	0.322
-712.704	800.000	0.058	-0.243
-711.689	-53.384	0.359	-0.165
-710.675	-132.439	-0.199	0.026
-709.660	595.328	-0.079	-0.196
-708.645	-128.834	-0.240	0.034
-707.631	-200.000	-0.040	0.224
-706.616	-159.391	0.081	-0.005
-705.602	800.000	0.068	-0.202
-704.587	-117.950	0.300	0.054
-703.572	7.779	-0.060	-0.045
-702.558	-133.172	-0.156	-0.020
-701.543	-17.878	-0.228	0.144
-700.529	233.405	-0.118	-0.196
-699.514	1.348	0.393	-0.285
-698.499	-79.269	-0.109	-0.037
-697.485	-55.839	0.181	0.081
-696.470	376.433	0.099	0.204
-695.456	88.163	0.130	0.145
-694.441	800.000	0.078	0.280
-693.426	81.943	-0.035	0.038
-692.412	-74.389	-0.195	0.071
-691.397	259.961	-0.091	-0.159
-690.383	40.836	0.139	0.126
-689.368	64.281	-0.048	-0.048
-688.354	28.475	0.075	-0.064
-687.339	-200.000	0.018	0.140
-686.324	-2.792	0.280	-0.197
-685.310	5.128	0.092	-0.068
-684.295	476.240	-0.148	-0.336
-683.281	-87.374	-0.437	0.133
-682.266	267.141	-0.023	-0.041
-681.251	800.000	0.057	-0.239
-680.237	44.642	0.070	-0.064
-679.222	-169.880	0.304	0.011
-678.208	26.166	0.041	-0.035
-677.193	549.229	0.094	-0.227
-676.178	-138.819	-0.170	0.019
-675.164	-93.285	-0.172	0.048
-674.149	514.763	0.089	0.210
-673.135	40.780	-0.345	0.312
-672.120	128.369	0.164	-0.211
-671.105	800.000	0.098	-0.390
-670.091	-58.341	-0.323	-0.141
-669.076	286.017	-0.130	-0.236
-668.062	185.556	0.053	-0.080
-667.047	250.469	0.109	0.186
-666.032	-21.270	0.024	0.015
-665.018	-86.956	-0.399	0.122
-664.003	-107.501	0.190	-0.042
-662.989	800.000	0.055	-0.181
-661.974	-27.839	0.250	-0.146
-660.959	74.136	0.045	-0.048
-659.945	57.536	-0.099	-0.098
-658.930	559.921	0.091	-0.221
-657.916	-200.000	-0.011	-0.088
-656.901	-200.000	0.011	-0.102
-655.886	49.686	-0.114	-0.108
-654.872	-8.738	-0.125	-0.084
-653.857	9.329	0.095	-0.072
-652.843	-41.776	-0.198	0.102
-651.828	-0.264	0.216	0.154
-650.814	-107.752	-0.417	0.091
-649.799	-200.000	-0.003	-0.342
-648.784	60.340	-0.188	0.187
-647.770	-55.078	-0.102	-0.046
-646.755	800.000	-0.050	-0.193
-645.741	-154.619	0.081	-0.005
-644.726	-64.117	-0.113	-0.046
-643.711	-63.083	0.425	0.176
-642.697	-84.563	0.081	0.026
-641.682	-31.945	-0.095	-0.053
-640.668	-200.000	0.044	-0.342
-639.653	195.037	-0.100	-0.152
-638.638	800.000	0.078	-0.268
-637.624	-10.344	-0.094	0.063
-636.609	-200.000	0.012	0.086
-635.595	126.014	0.110	-0.140
-634.580	-140.215	-0.093	-0.010
-633.565	-108.028	-0.420	0.092
-632.551	275.879	0.198	-0.352
-631.536	-147.539	0.377	0.032
-630.522	699.514	0.057	-0.151
-629.507	295.203	0.056	-0.103
-628.492	-200.000	0.015	-0.151
-627.478	63.441	-0.209	0.210
-626.463	25.746	0.222	-0.186
-625.449	-184.827	-0.303	-0.005
-624.434	-17.275	-0.250	-0.158
-623.419	94.642	-0.111	0.127
-622.405	800.000	0.041	0.179
-621.390	151.266	0.139	-0.190
-620.376	127.846	0.125	0.159
-619.361	444.422	0.067	0.148
-618.346	69.657	0.101	0.104
-617.332	159.892	0.131	0.184
-616.317	111.113	-0.076	0.092
-615.303	-59.387	-0.154	-0.066
-614.288	26.105	0.155	-0.130
-613.273	-200.000	-0.007	-0.041
-612.259	777.755	-0.088	-0.241
-611.244	-200.000	-0.014	-0.074
-610.230	800.000	-0.014	0.044
-609.215	-18.733	-0.164	-0.103
-608.201	-41.863	0.157	0.081
-607.186	48.121	-0.168	0.157
-606.171	116.123	0.218	0.268
-605.157	-200.000	-0.008	-0.159
-604.142	-57.377	-0.344	0.152
-603.128	25.375	-0.269	0.224
-602.113	-200.000	-0.012	0.213
-601.098	219.711	0.159	0.255
-600.084	-119.599	-0.163	-0.028
-599.069	-65.832	0.485	-0.194
-598.055	365.388	-0.127	0.256
-597.040	-65.901	0.275	0.110
-596.025	410.895	-0.185	0.393
-595.011	-8.130	-0.134	0.091
-593.996	-200.000	-0.026	-0.410
-592.982	800.000	0.088	-0.295
-591.967	137.836	0.117	-0.154
-590.952	-143.543	0.021	-0.002
-589.938	302.140	0.140	0.259
-588.923	-57.182	0.151	-0.067
-587.909	-56.061	-0.081	0.036
-586.894	-45.842	-0.272	0.135
-585.879	-150.432	-0.366	-0.028
-584.865	600.110	0.059	-0.146
-583.850	-121.383	-0.148	0.025
-582.836	5.397	-0.181	-0.134
-581.821	57.369	-0.269	0.263
-580.806	22.804	0.217	-0.178
-579.792	129.598	-0.014	-0.018
-578.777	11.469	0.353	-0.271
-577.763	-176.221	0.198	0.005
-576.748	29.338	-0.445	0.379
-575.733	-61.586	0.055	0.023
-574.719	-164.163	-0.161	0.007
-573.704	368.877	-0.117	-0.237
-572.690	800.000	-0.026	-0.075
-571.675	-160.523	-0.330	0.018
-570.661	800.000	-0.053	-0.221
-569.646	231.515	-0.099	0.163
-568.631	105.822	-0.178	0.211
-567.617	132.748	-0.196	0.253
-566.602	469.474	-0.121	-0.272
-565.588	800.000	-0.048	-0.154
-564.573	164.631	-0.255	-0.361
-563.558	122.971	-0.133	-0.167
-562.544	450.514	-0.146	0.323
-561.529	-200.000	0.007	0.150
-560.515	-80.204	0.198	0.066
-559.500	-156.688	-0.307	-0.019
-558.485	-56.692	-0.040	-0.018
-557.471	800.000	-0.052	-0.202
-556.456	789.201	0.046	-0.128
-555.442	-41.733	-0.104	0.054
-554.427	-139.075	-0.157	-0.017
-553.412	-200.000	0.005	-0.053
-552.398	133.092	-0.141	0.182
-551.383	-147.658	0.143	-0.012
-550.369	800.000	0.053	-0.158
-549.354	28.179	-0.093	-0.079
-548.339	302.994	-0.035	-0.065
-547.325	32.478	0.270	-0.234
-546.310	-200.000	0.051	-0.381
-545.296	-6.120	-0.140	0.095
-544.281	544.887	0.056	0.135
-543.266	230.904	0.005	0.008
-542.252	412.033	0.092	-0.196
-541.237	-0.708	0.179	-0.127
-540.223	-200.000	0.000	0.257
-539.208	-31.363	-0.091	0.051
-538.193	800.000	-0.062	-0.202
-537.179	22.176	0.039	0.032
-536.164	101.418	0.108	-0.126
-535.150	-175.004	0.287	-0.008
-534.135	-59.750	0.142	0.061
-533.121	22.218	0.120	0.098
-532.106	-3.320	0.222	0.155
-531.091	-155.985	0.154	-0.010
-530.077	-27.467	-0.205	0.119
-529.062	-102.531	-0.144	0.034
-528.048	1.171	-0.077	0.055
-527.033	-56.686	-0.256	-0.113
-526.018	789.360	0.132	0.362
-525.004	-200.000	0.004	0.179
-523.989	-200.000	0.072	0.401
-522.975	-134.927	0.087	-0.011
-521.960	800.000	0.074	-0.222
-520.945	-164.007	-0.227	0.011
-519.931	261.695	0.159	0.275
-518.916	283.212	-0.200	0.360
-517.902	-34.501	-0.369	0.202
-516.887	283.624	-0.091	0.164
-515.872	-118.890	-0.141	0.025
-514.858	-27.563	-0.167	0.097
-513.843	-200.000	-0.002	0.247
-512.829	-148.566	-0.078	-0.006
-511.814	-103.820	0.212	0.050
-510.799	172.890	0.157	0.226
-509.785	111.071	0.201	-0.241
-508.770	398.466	0.101	-0.211
-507.756	-75.406	-0.123	0.044
-506.741	58.919	-0.148	-0.145
-505.726	-200.000	-0.030	-0.212
-504.712	-142.909	0.086	0.008
-503.697	-200.000	-0.046	-0.340
-502.683	-60.533	-0.195	0.083
-501.668	-90.907	0.113	0.033
-500.653	230.028	-0.070	0.114
-499.639	-45.796	-0.238	-0.118
-498.624	242.754	-0.080	-0.134
-497.610	66.157	0.182	-0.184
-496.595	300.716	-0.127	0.234
-495.581	304.915	-0.032	-0.059
-494.566	-28.579	0.285	0.164
-493.551	-200.000	-0.015	0.099
-492.537	523.319	-0.140	0.327
-491.522	-154.195	-0.340	-0.023
-490.508	-66.262	0.208	-0.083
-489.493	-200.000	-0.010	-0.281
-488.478	-183.786	0.350	-0.006
-487.464	76.182	0.122	-0.129
-486.449	-200.000	0.018	-0.369
-485.435	412.935	0.101	-0.213
-484.420	800.000	-0.060	-0.184
-483.405	158.653	-0.129	-0.179
-482.391	245.829	-0.075	0.125
-481.376	-200.000	0.008	-0.328
-480.362	110.512	0.184	0.221
-479.347	800.000	0.128	0.457
-478.332	78.244	0.077	0.082
-477.318	201.382	-0.040	-0.062
-476.303	41.923	-0.061	-0.055
-475.289	-142.932	-0.484	-0.047
-474.274	-88.650	0.150	0.045
-473.259	-122.433	-0.314	0.051
-472.245	-13.562	0.432	0.279
-471.230	-19.933	-0.231	0.142
-470.216	-200.000	-0.019	0.190
-469.201	800.000	0.088	-0.308
-468.186	-123.167	-0.069	-0.011
-467.172	-11.232	0.167	-0.110
-466.157	133.890	0.110	-0.142
-465.143	-1.694	0.198	-0.139
-464.128	-200.000	0.034	0.344
-463.113	-200.000	0.026	-0.282
-462.099	28.819	0.233	-0.197
-461.084	-135.556	-0.297	-0.035
-460.070	265.953	0.168	0.293
-459.055	-42.080	0.185	-0.094
-458.040	-200.000	0.043	-0.447
-457.026	-23.467	0.231	0.138
-456.011	243.825	0.185	0.310
-454.997	-107.833	0.377	-0.082
-453.982	4.093	-0.374	-0.272
-452.968	411.276	0.200	-0.423
-451.953	684.510	0.131	-0.340
-450.938	-200.000	-0.004	-0.143
-449.924	-23.744	-0.360	-0.215
-448.909	-94.640	0.213	-0.058
-447.895	800.000	-0.121	0.378
-446.880	-200.000	0.062	-0.356
-445.865	160.186	-0.103	0.144
-444.851	542.396	0.026	0.061
-443.836	-124.762	0.258	-0.040
-442.822	65.646	0.020	0.020
-441.807	468.460	-0.215	-0.480
-440.792	601.081	-0.009	-0.022
-439.778	-9.554	0.178	0.118
-438.763	-31.935	-0.231	-0.129
-437.749	-65.669	-0.305	0.122
-436.734	800.000	-0.004	0.018
-435.719	800.000	0.044	-0.120
-434.705	1.242	-0.376	-0.269
-433.690	-128.701	0.364	0.051
-432.676	-53.364	0.125	0.057
-431.661	-200.000	-0.024	0.239
-430.646	-65.522	-0.074	-0.030
-429.632	26.531	0.204	-0.170
-428.617	11.992	0.214	0.164
-427.603	-180.478	0.086	-0.002
-426.588	-200.000	-0.027	-0.170
-425.573	-151.107	-0.244	-0.018
-424.559	351.555	0.170	0.335
-423.544	-54.182	0.109	0.049
-422.530	800.000	-0.109	0.302
-421.515	-157.068	-0.320	0.019
-420.500	-200.000	0.044	-0.275
-419.486	-200.000	0.005	0.082
-418.471	-34.765	-0.156	-0.085
-417.457	-76.286	-0.203	-0.071
-416.442	-200.000	-0.027	0.225
-415.428	241.628	0.125	-0.207
-414.413	-11.895	0.191	-0.125
-413.398	800.000	0.046	0.168
-412.384	106.010	0.035	0.041
-411.369	431.976	0.088	0.189
-410.355	1.714	-0.363	0.260
-409.340	237.995	-0.039	0.064
-408.325	-65.218	-0.086	-0.035
-407.311	86.690	0.153	0.168
-406.296	800.000	0.062	0.171
-405.282	800.000	-0.052	-0.209
-404.267	-95.036	-0.192	0.052
-403.252	102.756	0.031	0.036
-402.238	51.619	0.024	0.023
-401.223	-68.930	-0.196	0.075
-400.209	200.138	0.156	-0.239
-399.194	96.847	-0.118	-0.134
-398.179	33.966	-0.277	0.240
-397.165	-69.234	0.215	0.082
-396.150	800.000	-0.060	-0.246
-395.136	-200.000	-0.009	0.058
-394.121	79.801	-0.241	0.257
-393.106	-17.994	0.174	0.108
-392.092	384.016	-0.111	0.227
-391.077	244.311	-0.150	-0.251
-390.063	500.683	-0.133	0.305
-389.048	-121.308	0.159	0.026
-388.033	-162.207	0.408	-0.020
-387.019	99.034	-0.047	-0.054
-386.004	-200.000	-0.016	0.427
-384.990	21.155	0.152	-0.123
-383.975	128.507	-0.106	-0.135
-382.960	-114.886	0.138	-0.026
-381.946	12.919	0.175	-0.134
-380.931	-54.729	0.309	-0.139
-379.917	0.491	-0.163	0.115
-378.902	-105.962	0.112	0.025
-377.888	-200.000	0.020	-0.107
-376.873	-25.489	0.170	-0.100
-375.858	124.576	-0.126	-0.158
-374.844	-28.113	-0.188	-0.108
-373.829	-81.650	0.195	0.064
-372.815	-200.000	0.092	0.527
-371.800	442.851	0.122	0.265
-370.785	-131.998	-0.388	-0.050
-369.771	119.885	0.097	0.120
-368.756	800.000	0.021	0.092
-367.742	73.907	0.055	-0.057
-366.727	150.494	0.261	-0.352
-365.712	40.941	0.107	-0.096
-364.698	67.037	-0.358	-0.362
-363.683	-135.798	-0.432	0.051
-362.669	367.680	0.160	0.322
-361.654	-81.314	0.232	-0.076
-360.639	70.701	-0.103	0.105
-359.625	-52.279	-0.131	0.060
-358.610	311.141	0.205	0.382
-357.596	357.393	0.198	0.393
-356.581	800.000	-0.070	0.194
-355.566	25.402	-0.136	0.113
-354.552	800.000	-0.057	-0.197
-353.537	-1.552	0.362	-0.254
-352.523	-128.004	-0.087	0.012
-351.508	121.000	-0.221	-0.273
-350.493	81.494	-0.166	-0.178
-349.479	136.849	0.199	-0.258
-348.464	-200.000	0.003	0.040
-347.450	800.000	0.041	0.169
-346.435	532.349	-0.058	0.137
-345.420	-62.409	0.266	-0.110
-344.406	-147.333	0.305	0.026
-343.391	-49.401	-0.148	0.070
-342.377	31.369	-0.230	0.196
-341.362	-200.000	-0.019	-0.123
-340.348	113.984	0.062	0.075
-339.333	-126.975	-0.301	-0.044
-338.318	800.000	-0.038	0.148
-337.304	-69.702	0.153	0.058
-336.289	-157.497	0.451	-0.027
-335.275	101.646	-0.099	0.114
-334.260	-200.000	-0.035	-0.235
-333.245	-103.409	0.160	-0.037
-332.231	-125.974	0.304	-0.045
-331.216	800.000	0.042	-0.151
-330.202	38.339	0.140	0.124
-329.187	-200.000	-0.048	0.508
-328.172	-43.600	0.386	-0.193
-327.158	-200.000	0.037	0.212
-326.143	366.420	-0.158	-0.316
-325.129	-116.095	0.591	-0.109
-324.114	293.981	0.063	-0.114
-323.099	277.776	0.188	-0.332
-322.085	-84.874	0.330	0.103
-321.070	153.345	-0.111	0.150
-320.056	110.447	0.093	-0.110
-319.041	-101.003	0.140	-0.034
-318.026	309.505	-0.212	0.394
-317.012	-161.824	-0.441	-0.022
-315.997	25.436	-0.187	0.154
-314.983	192.849	0.208	0.311
-313.968	22.864	0.294	0.238
-312.953	93.383	0.177	-0.199
-311.939	-200.000	0.041	-0.239
-310.924	-200.000	-0.022	0.235
-309.910	-200.000	-0.000	-0.274
-308.895	197.018	-0.052	0.079
-307.880	145.181	0.079	0.105
-306.866	-41.100	-0.170	0.087
-305.851	72.010	0.180	-0.185
-304.837	-200.000	0.017	0.097
-303.822	-200.000	0.012	-0.225
-302.807	-89.095	-0.126	-0.037
-301.793	-72.980	0.216	0.079
-300.778	800.000	-0.042	0.131
-299.764	-200.000	0.001	-0.048
-298.749	-26.621	-0.081	0.047
-297.735	36.529	-0.041	0.036
-296.720	115.545	-0.280	-0.340
-295.705	-136.483	-0.122	-0.014
-294.691	-200.000	-0.055	-0.273
-293.676	-200.000	0.007	-0.038
-292.662	26.572	0.086	0.071
-291.647	-200.000	-0.019	0.253
-290.632	101.595	0.050	-0.058
-289.618	142.447	-0.244	0.321
-288.603	800.000	0.092	-0.331
-287.589	180.578	0.001	-0.001
-286.574	-200.000	-0.030	-0.179
-285.559	-200.000	0.048	-0.322
-284.545	-200.000	0.021	0.093
-283.530	42.585	-0.165	-0.148
-282.516	-137.889	-0.069	0.008
-281.501	-162.653	-0.305	0.015
-280.486	-130.021	0.075	-0.010
-279.472	-200.000	-0.052	0.284
-278.457	-200.000	-0.007	-0.057
-277.443	800.000	-0.112	0.377
-276.428	-43.066	-0.154	0.077
-275.413	-87.568	0.385	0.115
-274.399	-63.647	-0.292	0.119
-273.384	-39.754	0.102	0.053
-272.370	8.394	-0.223	-0.166
-271.355	-108.767	0.620	-0.131
-270.340	666.917	-0.078	0.198
-269.326	-109.968	-0.174	0.036
-268.311	498.687	0.187	-0.427
-267.297	-200.000	-0.052	-0.520
-266.282	-200.000	0.029	0.303
-265.267	-200.000	0.000	0.468
-264.253	-200.000	0.032	-0.256
-263.238	34.619	0.053	0.046
-262.224	21.532	-0.196	0.158
-261.209	-200.000	0.056	-0.313
-260.195	-136.597	0.390	0.045
-259.180	123.763	0.148	-0.184
-258.165	-200.000	-0.035	0.345
-257.151	-200.000	0.248	0.001
-256.136	-39.392	0.113	0.059
-255.122	53.948	0.268	0.254
-254.107	39.877	-0.133	-0.118
-253.092	-200.000	-0.013	-0.084
-252.078	800.000	0.068	0.205
-251.063	-17.295	-0.311	0.194
-250.049	143.653	0.085	-0.112
-249.034	-200.000	0.016	-0.301
-248.019	13.281	-0.218	-0.167
-247.005	-200.000	0.004	-0.379
-245.990	-23.887	0.233	-0.138
-244.976	-200.000	-0.043	-0.207
-243.961	-200.000	-0.033	0.187
-242.946	-77.882	-0.265	-0.090
-241.932	-200.000	-0.047	0.306
-240.917	-115.459	-0.157	-0.029
-239.903	761.795	-0.145	0.390
-238.888	-200.000	0.032	0.303
-237.873	-24.111	-0.227	0.134
-236.859	107.514	0.205	0.241
-235.844	-72.002	-0.126	0.046
-234.830	174.289	-0.134	0.191
-233.815	85.785	0.122	0.132
-232.800	-2.191	-0.017	0.012
-231.786	-40.021	-0.052	0.027
-230.771	-61.457	-0.194	-0.080
-229.757	-110.693	-0.184	-0.037
-228.742	-200.000	-0.013	-0.095
-227.727	15.205	-0.145	-0.113
-226.713	390.163	0.011	0.023
-225.698	-68.781	-0.182	-0.069
-224.684	99.635	0.101	0.116
-223.669	298.790	0.083	-0.150
-222.655	119.546	-0.108	-0.133
-221.640	-69.564	0.498	-0.188
-220.625	-180.189	0.342	-0.007
-219.611	-122.587	0.183	0.029
-218.596	-200.000	-0.034	0.446
-217.582	-30.551	0.213	-0.119
-216.567	-200.000	-0.003	0.198
-215.552	-15.002	0.295	0.187
-214.538	-100.546	-0.256	0.063
-213.523	74.481	0.146	-0.152
-212.509	-68.729	0.438	0.167
-211.494	70.030	-0.216	0.220
-210.479	107.555	-0.175	0.205
-209.465	30.554	-0.180	0.152
-208.450	736.714	0.117	0.310
-207.436	-103.204	0.233	0.054
-206.421	328.926	-0.110	-0.210
-205.406	-200.000	-0.091	0.465
-204.392	123.549	0.055	0.068
-203.377	-114.987	0.117	-0.022
-202.363	-48.426	-0.287	0.137
-201.348	86.425	0.239	-0.260
-200.333	-152.744	0.273	-0.019
-199.319	20.209	0.127	-0.101
-198.304	309.097	0.105	-0.193
-197.290	18.693	-0.168	0.133
-196.275	-118.016	-0.334	0.059
-195.260	800.000	0.114	-0.370
-194.246	-130.928	-0.368	-0.049
-193.231	230.621	0.036	-0.057
-192.217	-163.132	-0.125	-0.006
-191.202	-75.913	-0.140	0.049
-190.187	-200.000	-0.013	-0.418
-189.173	215.982	-0.121	0.190
-188.158	800.000	-0.045	-0.167
-187.144	777.660	0.093	-0.251
-186.129	-40.040	-0.219	-0.113
-185.114	80.845	0.177	0.188
-184.100	-200.000	0.042	-0.406
-183.085	-110.828	-0.124	-0.025
-182.071	54.151	-0.179	-0.170
-181.056	459.759	0.071	0.157
-180.042	16.401	0.267	-0.208
-179.027	-187.909	0.413	-0.005
-178.012	800.000	-0.148	-0.407
-176.998	-81.625	0.167	-0.054
-175.983	50.362	-0.222	0.206
-174.969	-53.845	-0.175	0.079
-173.954	-150.895	0.282	-0.021
-172.939	3.292	0.236	0.169
-171.925	20.072	0.202	-0.161
-170.910	-59.662	-0.339	0.143
-169.896	425.505	-0.087	0.185
-168.881	261.889	-0.183	0.313
-167.866	274.237	-0.098	0.171
-166.852	800.000	0.063	0.177
-165.837	-10.913	0.114	-0.074
-164.823	800.000	-0.088	-0.245
-163.808	-102.792	-0.192	-0.045
-162.793	-74.551	-0.161	0.057
-161.779	-89.550	0.141	-0.041
-160.764	268.711	0.046	0.080
-159.750	320.462	-0.098	-0.183
-158.735	253.634	0.073	-0.123
-157.720	614.210	0.111	-0.273
-156.706	86.361	-0.179	0.194
-155.691	-94.924	-0.303	0.081
-154.677	-72.799	0.182	-0.066
-153.662	-200.000	-0.021	-0.173
-152.647	-134.914	0.239	0.029
-151.633	-145.838	-0.279	-0.024
-150.618	-9.619	0.325	-0.214
-149.604	-175.126	0.249	-0.007
-148.589	-200.000	-0.002	-0.048
-147.574	173.316	0.075	-0.106
-146.560	60.559	0.277	0.270
-145.545	509.756	0.033	0.075
-144.531	-200.000	0.046	0.416
-143.516	198.534	-0.192	0.289
-142.502	304.975	-0.154	-0.282
-141.487	-7.257	-0.093	0.062
-140.472	-11.817	0.226	0.146
-139.458	-55.568	-0.114	0.050
-138.443	118.030	0.120	-0.146
-137.429	388.078	0.120	0.245
-136.414	800.000	0.090	0.331
-135.399	-157.961	-0.095	0.005
-134.385	-200.000	-0.020	-0.167
-133.370	-8.666	0.116	0.077
-132.356	-139.169	-0.240	-0.025
-131.341	-80.963	0.112	-0.036
-130.326	800.000	-0.070	-0.263
-129.312	-130.008	0.252	0.034
-128.297	-9.769	0.023	-0.015
-127.283	-200.000	-0.021	0.135
-126.268	-5.166	-0.069	-0.047
-125.253	210.519	-0.094	0.145
-124.239	-200.000	-0.004	0.070
-123.224	-166.606	0.283	0.012
-122.210	85.846	0.058	0.063
-121.195	-200.000	0.040	-0.242
-120.180	-117.773	0.104	0.018
-119.166	800.000	0.091	-0.305
-118.151	239.753	0.131	-0.215
-117.137	-200.000	0.005	-0.434
-116.122	-200.000	-0.073	0.415
-115.107	536.004	0.109	-0.254
-114.093	-153.849	0.309	0.021
-113.078	-78.220	-0.174	0.059
-112.064	412.318	0.085	-0.178
-111.049	-147.726	-0.352	-0.029
-110.034	41.602	-0.125	0.112
-109.020	-200.000	-0.091	0.416
-108.005	-130.848	-0.211	-0.028
-106.991	52.247	-0.214	0.200
-105.976	-26.627	-0.182	0.105
-104.962	178.135	-0.169	-0.242
-103.947	-37.721	0.112	0.059
-102.932	32.422	0.127	0.108
-101.918	800.000	-0.042	-0.120
-100.903	34.197	-0.462	0.396
-99.889	262.857	0.125	0.214
-98.874	27.743	0.220	0.182
-97.859	672.056	-0.023	-0.059
-96.845	-76.687	-0.058	-0.020
-95.830	2.895	0.188	0.134
-94.816	-200.000	0.021	0.141
-93.801	108.133	0.304	0.356
-92.786	23.146	0.150	-0.121
-91.772	62.712	0.073	-0.071
-90.757	-16.267	0.466	0.291
-89.743	-44.060	0.285	-0.141
-88.728	137.358	0.082	0.105
-87.713	-35.987	-0.310	0.165
-86.699	-200.000	0.001	0.474
-85.684	171.135	-0.157	-0.221
-84.670	-38.285	0.159	0.083
-83.655	-61.187	0.128	0.053
-82.640	-200.000	-0.030	0.229
-81.626	141.590	-0.077	0.100
-80.611	800.000	0.076	0.221
-79.597	374.879	0.129	0.257
-78.582	707.015	-0.038	0.098
-77.567	69.929	-0.084	0.085
-76.553	800.000	0.046	0.139
-75.538	-200.000	-0.071	0.517
-74.524	-200.000	-0.010	-0.069
-73.509	31.079	0.282	0.237
-72.494	324.547	0.030	-0.057
-71.480	800.000	-0.046	-0.149
-70.465	800.000	-0.025	0.077
-69.451	-31.197	0.316	0.175
-68.436	-183.013	-0.288	-0.005
-67.422	-91.593	0.192	-0.054
-66.407	295.500	0.131	0.235
-65.392	6.099	0.274	-0.199
-64.378	-200.000	-0.054	0.297
-63.363	-35.869	0.269	0.143
-62.349	-168.544	0.186	0.007
-61.334	34.566	-1.095	-0.939
-60.319	11.187	0.581	0.436
-59.305	493.799	-0.488	-1.100
-58.290	498.153	0.385	0.870
-57.276	382.762	0.776	1.566
-56.261	-200.000	106.715	581.398
-55.246	457.244	1463.492	3189.891
-54.232	148.090	2655.922	3515.923
-53.217	100.830	2291.584	2613.918
-52.203	39.036	1904.929	1670.915
-51.188	33.179	1693.132	1440.626
-50.173	30.545	1649.807	1384.121
-49.159	48.773	1701.634	1565.925
-48.144	49.429	1717.214	1585.156
-47.130	32.633	1675.992	1421.698
-46.115	30.005	1661.210	1389.422
-45.100	29.879	1656.116	1384.158
-44.086	29.832	1654.182	1382.135
-43.071	29.835	1651.489	1379.853
-42.057	29.861	1648.538	1377.532
-41.042	29.838	1647.050	1376.058
-40.027	29.833	1644.802	1374.090
-39.013	29.819	1642.682	1372.159
-37.998	29.697	1641.649	1370.343
-36.984	29.893	1639.996	1370.355
-35.969	29.960	1638.494	1369.546
-34.954	29.937	1637.034	1368.094
-33.940	30.009	1634.799	1366.704
-32.925	30.012	1633.285	1365.412
-31.911	29.962	1631.849	1363.789
-30.896	29.913	1630.338	1362.105
-29.881	29.956	1628.289	1360.657
-28.867	29.914	1626.785	1359.039
-27.852	29.925	1624.975	1357.553
-26.838	29.863	1623.862	1356.119
-25.823	29.930	1622.309	1355.254
-24.809	29.980	1621.386	1354.796
-23.794	29.870	1620.082	1352.848
-22.779	29.971	1617.979	1351.780
-21.765	29.923	1616.443	1350.089
-20.750	29.924	1614.857	1348.720
-19.736	29.974	1613.505	1347.904
-18.721	30.030	1611.972	1346.975
-17.706	29.953	1610.899	1345.461
-16.692	29.963	1609.266	1344.119
-15.677	30.024	1607.511	1343.042
-14.663	29.987	1606.587	1341.952
-13.648	29.979	1605.393	1340.842
-12.633	29.963	1603.351	1338.969
-11.619	29.932	1601.876	1337.456
-10.604	29.973	1600.372	1336.444
-9.590	29.994	1599.490	1335.810
-8.575	29.975	1598.215	1334.553
-7.560	30.008	1596.618	1333.406
-6.546	29.961	1595.450	1332.034
-5.531	29.933	1594.641	1331.103
-4.517	29.988	1593.718	1330.680
-3.502	29.963	1592.653	1329.555
-2.487	30.018	1590.515	1328.111
-1.473	29.733	1578.800	1316.250
-0.458	26.840	1559.887	1280.047
0.556	21.513	1560.208	1247.801
1.571	19.236	1584.452	1250.569
2.586	18.831	1597.661	1257.912
3.600	17.332	1545.103	1205.808
4.615	9.697	1435.549	1069.730
5.629	1.922	1370.693	971.897
6.644	0.231	1362.241	955.101
7.659	0.200	1360.846	953.842
8.673	0.020	1359.822	951.901
9.688	0.070	1358.056	950.899
10.702	-0.033	1354.484	947.664
11.717	3.567	1360.848	974.803
12.731	12.137	1374.462	1038.955
13.746	17.287	1381.349	1076.772
14.761	17.237	1379.487	1074.909
15.775	16.318	1377.086	1067.140
16.790	15.205	1374.777	1058.231
17.804	14.525	1372.153	1051.825
18.819	14.039	1370.795	1047.634
19.834	13.824	1369.451	1045.159
20.848	13.601	1368.327	1042.804
21.863	13.411	1366.899	1040.428
22.877	13.201	1365.655	1038.070
23.892	13.138	1364.846	1036.968
24.907	13.109	1364.107	1036.131
25.921	13.200	1362.729	1035.567
26.936	13.173	1362.245	1034.940
27.950	13.235	1361.689	1034.814
28.965	13.318	1360.393	1034.252
29.980	13.376	1359.590	1033.917
30.994	13.304	1359.029	1032.945
32.009	13.416	1357.658	1032.509
33.023	13.409	1356.231	1031.291
34.038	13.373	1355.213	1030.201
35.053	13.339	1353.972	1028.957
36.067	13.270	1353.092	1027.766
37.082	13.283	1352.173	1027.059
38.096	13.404	1351.488	1027.196
39.111	13.315	1350.702	1025.957
40.126	13.328	1349.735	1025.216
41.140	13.154	1349.174	1023.620
42.155	13.152	1348.349	1022.887
43.169	13.214	1348.423	1023.240
44.184	13.206	1347.782	1022.614
45.199	13.129	1347.735	1022.012
46.213	13.199	1347.076	1021.852
47.228	13.314	1345.861	1021.554
48.242	13.259	1345.163	1020.590
49.257	13.296	1343.404	1019.397
50.271	13.316	1341.605	1018.065
51.286	13.317	1340.220	1016.930
52.301	13.255	1340.062	1016.339
53.315	13.284	1338.553	1015.279
54.330	13.177	1337.664	1013.860
55.344	13.144	1336.345	1012.568
56.359	13.288	1335.023	1012.362
57.374	13.141	1334.815	1011.215
58.388	13.083	1333.589	1009.840
59.403	13.067	1333.331	1009.457
60.417	13.078	1332.219	1008.595
61.432	13.048	1331.426	1007.720
62.447	13.111	1330.641	1007.423
63.461	13.083	1329.129	1006.016
64.476	13.157	1328.084	1005.588
65.490	13.104	1326.624	1004.072
66.505	13.140	1325.033	1002.996
67.520	13.115	1324.129	1002.073
68.534	13.042	1323.403	1000.987
69.549	13.113	1321.623	999.988
70.563	13.149	1321.216	999.805
71.578	13.048	1319.849	998.072
72.593	12.987	1319.101	997.054
73.607	12.968	1318.363	996.291
74.622	13.057	1316.946	995.667
75.636	13.036	1316.864	995.388
76.651	13.011	1316.196	994.647
77.666	13.050	1315.438	994.223
78.680	13.052	1314.653	993.550
79.695	13.116	1313.884	993.270
80.709	13.057	1313.342	992.418
81.724	13.178	1311.919	991.979
82.739	13.182	1311.508	991.603
83.753	13.210	1310.253	990.734
84.768	13.362	1309.084	990.675
85.782	13.250	1308.390	989.392
86.797	13.242	1307.512	988.590
87.812	13.347	1305.681	987.746
88.826	13.151	1304.746	985.781
89.841	13.250	1303.574	985.400
90.855	13.301	1302.550	984.842
91.870	13.289	1301.920	984.208
92.884	13.294	1300.889	983.370
93.899	13.320	1300.538	983.175
94.914	13.473	1299.497	983.210
95.928	13.531	1298.495	982.710
96.943	13.435	1297.811	981.532
97.957	13.416	1296.673	980.474
98.972	13.360	1295.684	979.309
99.987	13.316	1294.722	978.233
101.001	13.285	1293.832	977.288
102.016	13.339	1293.053	976.935
103.030	13.448	1291.570	976.373
104.045	13.401	1290.941	975.534
105.060	13.361	1289.808	974.352
106.074	13.327	1287.954	972.668
107.089	13.197	1287.092	971.164
108.103	13.076	1286.361	969.818
109.118	13.179	1285.056	969.352
110.133	13.107	1283.884	967.960
111.147	13.159	1282.332	967.009
112.162	13.105	1281.514	965.989
113.176	13.291	1279.852	965.741
114.191	13.226	1279.577	965.067
115.206	13.173	1278.122	963.574
116.220	13.321	1276.650	963.243
117.235	13.152	1275.870	961.584
118.249	13.227	1274.705	961.058
119.264	13.270	1273.962	960.661
120.279	13.213	1272.714	959.304
121.293	13.064	1271.932	957.766
122.308	13.226	1270.848	957.808
123.322	13.184	1269.726	956.630
124.337	13.202	1268.421	955.666
125.352	13.115	1267.549	954.425
126.366	13.237	1266.333	954.126
127.381	13.290	1265.102	953.422
128.395	13.204	1264.193	952.157
129.410	13.301	1263.384	952.023
130.424	13.286	1262.425	951.127
131.439	13.307	1261.481	950.454
132.454	13.327	1260.514	949.754
133.468	13.264	1259.836	948.798
134.483	13.331	1258.773	948.301
135.497	13.269	1257.926	947.221
136.512	13.255	1256.633	946.083
137.527	13.196	1255.722	944.980
138.541	13.416	1253.967	944.832
139.556	13.238	1252.834	942.874
140.570	13.315	1251.743	942.411
141.585	13.394	1250.369	941.741
142.600	13.360	1249.582	940.874
143.614	13.363	1248.572	940.046
144.629	13.411	1247.258	939.246
145.643	13.452	1246.462	938.796
146.658	13.431	1244.580	937.177
147.673	13.244	1243.989	935.590
148.687	13.287	1242.707	934.790
149.702	13.260	1241.450	933.607
150.716	13.303	1240.220	932.840
151.731	13.317	1238.927	931.866
152.746	13.293	1238.197	931.097
153.760	13.424	1235.833	929.973
154.775	13.490	1235.079	929.698
155.789	13.467	1234.255	928.865
156.804	13.506	1232.961	928.025
157.819	13.520	1232.220	927.467
158.833	13.507	1231.374	926.672
159.848	13.651	1230.314	926.599
160.862	13.533	1229.644	925.353
161.877	13.492	1228.074	923.862
162.892	13.565	1227.062	923.427
163.906	13.408	1226.331	921.920
164.921	13.529	1225.295	921.729
165.935	13.532	1224.341	920.952
166.950	13.556	1223.831	920.620
167.964	13.624	1222.782	920.126
168.979	13.606	1222.392	919.652
169.994	13.553	1221.474	918.585
171.008	13.540	1220.712	917.855
172.023	13.580	1220.194	917.610
173.037	13.716	1219.436	917.707
174.052	13.590	1218.482	916.215
175.067	13.692	1217.208	915.736
176.081	13.610	1216.164	914.422
177.096	13.655	1215.214	913.870
178.110	13.623	1214.229	912.874
179.125	13.675	1212.996	912.151
180.140	13.751	1211.516	911.375
181.154	13.684	1211.258	910.736
182.169	13.642	1210.095	909.548
183.183	13.862	1207.979	909.084
184.198	13.815	1207.020	908.021
185.213	13.823	1206.015	907.232
186.227	13.907	1205.124	906.938
187.242	13.900	1204.355	906.239
188.256	13.882	1203.503	905.420
189.271	13.916	1202.542	904.806
190.286	13.818	1201.455	903.374
191.300	13.724	1200.205	901.844
192.315	13.667	1199.827	901.166
193.329	13.635	1199.092	900.365
194.344	13.769	1198.504	900.568
195.359	13.789	1197.947	900.180
196.373	13.775	1197.373	899.590
197.388	13.813	1197.320	899.678
198.402	14.074	1196.120	900.112
199.417	14.064	1195.458	899.478
200.432	13.969	1195.653	899.034
201.446	14.161	1194.150	898.862
202.461	14.101	1193.188	897.734
203.475	14.197	1191.965	897.253
204.490	14.154	1190.894	896.132
205.504	14.078	1189.920	894.913
206.519	14.087	1188.721	893.978
207.534	13.995	1187.763	892.685
208.548	14.159	1186.546	892.574
209.563	13.963	1186.206	891.186
210.577	14.011	1184.978	890.442
211.592	14.071	1184.051	889.987
212.607	14.160	1183.029	889.616
213.621	14.174	1182.131	888.940
214.636	14.157	1181.408	888.222
215.650	14.170	1180.885	887.823
216.665	14.035	1180.233	886.532
217.680	14.178	1179.184	886.428
218.694	14.199	1178.470	885.923
219.709	14.247	1177.410	885.305
220.723	14.359	1176.489	885.130
221.738	14.297	1176.033	884.380
222.753	14.373	1174.905	883.857
223.767	14.358	1174.409	883.325
224.782	14.394	1174.077	883.186
225.796	14.483	1173.007	882.777
226.811	14.396	1172.707	882.011
227.826	14.508	1171.768	881.819
228.840	14.507	1170.800	881.007
229.855	14.331	1169.942	879.357
230.869	14.505	1169.349	879.750
231.884	14.445	1168.464	878.691
232.899	14.341	1168.036	877.739
233.913	14.342	1167.273	877.096
234.928	14.464	1166.077	876.762
235.942	14.417	1165.537	876.033
236.957	14.371	1164.695	875.077
237.972	14.346	1164.083	874.411
238.986	14.375	1163.682	874.185
240.001	14.426	1162.694	873.633
241.015	14.502	1161.718	873.222
242.030	14.421	1161.315	872.414
243.045	14.552	1160.579	872.472
244.059	14.543	1159.875	871.814
245.074	14.585	1158.604	871.005
246.088	14.578	1157.888	870.353
247.103	14.541	1157.326	869.661
248.117	14.645	1156.593	869.574
249.132	14.693	1155.722	869.090
250.147	14.760	1154.908	868.753
251.161	14.770	1154.005	868.045
252.176	14.810	1153.749	867.985
253.190	14.787	1153.076	867.281
254.205	14.875	1152.799	867.456
255.220	15.035	1151.496	867.225
256.234	14.940	1151.314	866.523
257.249	14.887	1150.744	865.739
258.263	14.920	1149.573	864.952
259.278	14.958	1149.099	864.718
260.293	15.091	1148.079	864.557
261.307	15.025	1148.187	864.221
262.322	15.037	1147.627	863.790
263.336	15.049	1146.717	863.090
264.351	15.193	1145.803	863.063
265.366	15.154	1145.444	862.517
266.380	15.159	1144.575	861.814
267.395	15.139	1143.633	860.926
268.409	15.054	1143.126	860.030
269.424	15.191	1142.421	860.124
270.439	15.122	1141.883	859.290
271.453	15.147	1141.259	858.874
272.468	15.036	1140.444	857.615
273.482	15.003	1139.947	856.997
274.497	15.020	1139.394	856.592
275.512	15.212	1138.238	856.628
276.526	15.137	1137.248	855.426
277.541	15.157	1136.916	855.201
278.555	15.250	1136.266	855.110
279.570	15.268	1135.453	854.518
280.585	15.290	1134.635	853.938
281.599	15.244	1133.879	853.060
282.614	15.218	1133.147	852.298
283.628	15.326	1132.017	851.923
284.643	15.345	1130.951	851.143
285.657	15.225	1130.015	849.754
286.672	15.206	1129.195	848.965
287.687	15.304	1128.481	848.851
288.701	15.376	1127.557	848.443
289.716	15.391	1126.404	847.575
290.730	15.488	1125.839	847.570
291.745	15.417	1124.936	846.452
292.760	15.422	1124.470	846.053
293.774	15.452	1124.310	846.011
294.789	15.413	1123.980	845.491
295.803	15.447	1123.046	844.886
296.818	15.459	1122.317	844.323
297.833	15.644	1120.795	844.031
298.847	15.523	1120.323	842.995
299.862	15.467	1120.017	842.408
300.876	15.453	1119.204	841.649
301.891	15.477	1118.936	841.494
302.906	15.528	1118.046	841.007
303.920	15.570	1117.316	840.591
304.935	15.685	1116.827	840.725
305.949	15.677	1115.978	839.971
306.964	15.719	1115.334	839.625
307.979	15.653	1114.508	838.597
308.993	15.788	1113.518	838.453
310.008	15.720	1113.032	837.673
311.022	15.687	1112.084	836.723
312.037	15.768	1111.364	836.509
313.052	15.609	1110.761	835.190
314.066	15.596	1109.775	834.312
315.081	15.672	1108.620	833.745
316.095	15.691	1107.712	833.085
317.110	15.712	1107.136	832.679
318.125	15.702	1107.078	832.513
319.139	15.628	1106.274	831.470
320.154	15.678	1105.763	831.255
321.168	15.682	1105.103	830.708
322.183	15.763	1103.951	830.170
323.197	15.735	1103.683	829.757
324.212	15.741	1102.993	829.192
325.227	15.745	1102.509	828.777
326.241	15.830	1102.212	828.898
327.256	15.842	1101.242	828.152
328.270	15.746	1100.000	826.672
329.285	15.811	1099.304	826.396
330.300	15.861	1098.356	825.858
331.314	15.742	1097.377	824.462
332.329	15.858	1096.425	824.243
333.343	15.871	1095.732	823.712
334.358	15.775	1094.984	822.610
335.373	15.980	1094.340	823.052
336.387	15.954	1093.190	821.990
337.402	16.049	1092.462	821.835
338.416	15.952	1092.300	821.165
339.431	15.997	1091.658	820.831
340.446	15.984	1090.882	820.110
341.460	16.084	1090.078	819.920
342.475	16.196	1088.934	819.533
343.489	16.249	1088.310	819.247
344.504	16.231	1087.368	818.376
345.519	16.245	1086.371	817.620
346.533	16.359	1085.679	817.580
347.548	16.205	1085.235	816.428
348.562	16.300	1084.362	816.161
349.577	16.192	1083.725	815.084
350.592	16.158	1082.966	814.280
351.606	16.183	1082.230	813.775
352.621	16.187	1081.405	813.103
353.635	16.165	1080.810	812.477
354.650	16.141	1080.186	811.821
355.665	16.286	1079.316	811.790
356.679	16.249	1078.955	811.267
357.694	16.277	1078.309	810.846
358.708	16.317	1077.680	810.495
359.723	16.258	1077.132	809.725
360.738	16.434	1076.162	809.771
361.752	16.454	1075.720	809.462
362.767	16.349	1075.376	808.626
363.781	16.333	1074.512	807.828
364.796	16.428	1074.162	807.951
365.810	16.564	1073.011	807.662
366.825	16.499	1072.597	806.970
367.840	16.622	1071.967	807.011
368.854	16.723	1071.334	806.945
369.869	16.534	1070.798	805.565
370.883	16.708	1069.612	805.432
371.898	16.529	1069.115	804.137
372.913	16.535	1068.666	803.752
373.927	16.536	1068.450	803.526
374.942	16.652	1067.755	803.485
375.956	16.696	1067.186	803.194
376.971	16.661	1066.479	802.422
377.986	16.640	1065.987	801.882
379.000	16.721	1065.721	801.995
380.015	16.748	1064.911	801.440
381.029	16.848	1064.215	801.322
382.044	16.784	1063.831	800.656
383.059	16.922	1062.697	800.384
384.073	16.889	1061.641	799.361
385.088	16.946	1061.033	799.103
386.102	16.954	1059.915	798.230
387.117	16.895	1058.752	797.003
388.132	16.705	1058.566	795.901
389.146	16.768	1057.777	795.533
390.161	16.804	1056.909	794.981
391.175	16.874	1056.378	794.839
392.190	16.885	1055.456	794.126
393.205	16.903	1055.225	793.964
394.219	16.930	1054.171	793.226
395.234	16.933	1052.998	792.289
396.248	17.002	1051.822	791.657
397.263	16.938	1051.240	790.852
398.278	16.905	1050.227	789.863
399.292	16.917	1049.641	789.408
400.307	16.890	1049.264	788.933
401.321	16.862	1048.521	788.173
402.336	16.951	1047.867	788.025
403.350	16.997	1047.023	787.535
404.365	16.882	1046.632	786.634
405.380	16.986	1045.761	786.391
406.394	16.917	1045.054	785.473
407.409	16.889	1044.513	784.866
408.423	17.140	1043.458	785.165
409.438	17.160	1042.980	784.831
410.453	17.075	1042.457	783.973
411.467	17.189	1041.619	783.801
412.482	17.324	1040.888	783.801
413.496	17.207	1039.913	782.461
414.511	17.378	1039.248	782.679
415.526	17.398	1038.897	782.436
416.540	17.279	1038.839	781.774
417.555	17.455	1038.249	782.071
418.569	17.405	1037.620	781.298
419.584	17.396	1037.266	780.919
420.599	17.448	1036.710	780.671
421.613	102.939	1322.451	1468.006
422.628	94.357	1364.040	1468.102
