DTS Sentinel unit serial number:	SN413079Multiplexer serial number:	ORYXHardware model number:	OX4-SRSoftware version number:	ORYX F/W v4.00 Oryx Data Collector v3.7.2.0data status	okinstallation	princeton_trtdifferential loss correction	single-endedforward channel	channel 2reverse channel	N/Adate	2019/09/18time	16:27:34forward acquisition time	60.00reverse acquisition time	0.00gamma	496.2192k internal	0.2301k external	0.2301temperature offset calibration	1.0007default loss term (dB/km)	0.3790temperature slope calibration	1.0000multiplexer offset coefficient	1.0000multiplexer slope coefficient	1.0000fibre end	0.00T internal ref (°C)	39.06T ext. ref 1 (°C)	0.85T ext. ref 2 (°C)	36.26length (m)	temperature (°C)	Stokes	anti-Stokes-747.200	-20.150	0.193	-0.122
-746.185	-193.999	0.091	0.001
-745.171	800.000	-0.059	0.210
-744.156	-200.000	0.043	-0.392
-743.142	-84.853	-0.010	0.003
-742.127	-200.000	-0.018	-0.093
-741.112	93.431	0.133	-0.153
-740.098	-200.000	-0.014	0.288
-739.083	-200.000	0.020	0.319
-738.069	-200.000	-0.038	0.233
-737.054	-31.304	0.153	0.088
-736.039	703.538	-0.050	-0.134
-735.025	210.357	0.050	0.080
-734.010	-103.002	-0.304	0.074
-732.996	324.934	-0.113	-0.221
-731.981	3.677	0.156	-0.116
-730.966	33.052	-0.094	0.083
-729.952	-150.484	0.165	0.013
-728.937	-126.154	-0.287	0.044
-727.923	676.373	0.036	0.097
-726.908	192.643	-0.132	0.203
-725.894	367.515	-0.177	-0.365
-724.879	410.527	0.058	0.126
-723.864	-51.029	0.417	-0.199
-722.850	187.749	-0.097	0.147
-721.835	-164.540	0.464	-0.021
-720.821	-86.704	0.044	-0.014
-719.806	-155.101	-0.132	0.009
-718.791	156.304	-0.103	-0.144
-717.777	-200.000	0.018	0.098
-716.762	75.972	-0.105	0.113
-715.748	351.342	-0.082	-0.166
-714.733	-6.505	-0.106	-0.073
-713.718	-17.685	0.236	0.151
-712.704	-12.216	0.252	-0.168
-711.689	-160.126	-0.330	0.018
-710.675	445.928	0.066	-0.147
-709.660	-84.008	0.262	0.085
-708.645	187.617	0.135	-0.206
-707.631	161.205	0.132	-0.187
-706.616	800.000	0.055	0.212
-705.602	124.261	-0.121	0.155
-704.587	17.889	-0.102	-0.083
-703.572	44.064	-0.163	-0.152
-702.558	-41.211	0.131	-0.069
-701.543	-158.112	0.187	0.011
-700.529	265.166	0.192	0.340
-699.514	796.730	0.046	-0.130
-698.499	-90.624	-0.258	0.076
-697.485	-125.576	-0.143	-0.022
-696.470	800.000	0.062	-0.254
-695.456	76.680	0.033	-0.036
-694.441	236.572	-0.152	0.256
-693.426	135.204	-0.072	-0.095
-692.412	800.000	-0.068	0.279
-691.397	-66.620	0.008	-0.003
-690.383	-153.948	-0.133	0.009
-689.368	-200.000	0.058	-0.335
-688.354	241.159	-0.129	0.219
-687.339	476.504	0.016	0.038
-686.324	8.548	-0.275	-0.211
-685.310	-88.322	0.380	-0.116
-684.295	56.279	-0.153	-0.151
-683.281	174.176	-0.092	0.135
-682.266	62.871	-0.191	-0.194
-681.251	800.000	0.056	-0.216
-680.237	-0.145	0.134	-0.097
-679.222	-156.270	-0.169	-0.011
-678.208	-200.000	0.026	-0.275
-677.193	-200.000	0.016	0.279
-676.178	140.375	-0.085	0.114
-675.164	218.456	0.220	0.357
-674.149	-106.985	0.218	0.049
-673.135	109.240	0.114	-0.139
-672.120	83.455	-0.022	-0.024
-671.105	99.519	-0.106	0.125
-670.091	-125.156	0.257	0.040
-669.076	800.000	0.099	-0.412
-668.062	-186.511	-0.180	-0.003
-667.047	-200.000	-0.012	0.176
-666.032	-95.338	0.224	0.061
-665.018	-200.000	-0.031	-0.309
-664.003	-67.867	0.340	0.135
-662.989	-71.336	0.205	-0.078
-661.974	-200.000	-0.023	-0.128
-660.959	-158.291	0.052	-0.003
-659.945	-200.000	0.015	0.113
-658.930	86.714	-0.281	-0.315
-657.916	800.000	-0.095	-0.340
-656.901	54.758	0.122	-0.119
-655.886	364.366	-0.242	0.494
-654.872	-138.955	-0.102	-0.011
-653.857	-60.238	-0.110	-0.048
-652.843	-88.896	0.187	0.056
-651.828	-200.000	0.005	0.060
-650.814	-60.222	-0.047	-0.020
-649.799	60.362	-0.280	-0.281
-648.784	-200.000	-0.013	-0.136
-647.770	-200.000	0.004	-0.093
-646.755	461.437	0.056	-0.127
-645.741	172.983	-0.275	0.403
-644.726	-99.187	-0.049	0.012
-643.711	187.055	0.260	0.394
-642.697	-200.000	0.000	0.177
-641.682	6.862	-0.196	0.148
-640.668	-99.766	-0.096	-0.024
-639.653	-200.000	0.006	0.037
-638.638	245.576	-0.105	0.180
-637.624	560.932	-0.111	0.273
-636.609	484.458	-0.133	-0.306
-635.595	109.215	0.071	-0.087
-634.580	-40.697	-0.183	0.096
-633.565	127.943	-0.151	0.195
-632.551	-97.680	0.009	-0.002
-631.536	800.000	0.045	-0.144
-630.522	-200.000	-0.013	-0.111
-629.507	503.768	-0.022	0.051
-628.492	800.000	0.083	-0.248
-627.478	-200.000	-0.005	0.228
-626.463	123.680	0.171	0.218
-625.449	60.998	0.045	0.046
-624.434	-73.136	0.212	0.079
-623.419	-200.000	0.001	0.317
-622.405	185.151	0.216	-0.325
-621.390	152.692	0.118	-0.163
-620.376	311.174	-0.055	-0.104
-619.361	-58.327	-0.178	0.079
-618.346	291.705	-0.023	0.042
-617.332	238.989	0.056	-0.095
-616.317	23.124	-0.198	-0.165
-615.303	130.418	-0.052	-0.067
-614.288	48.497	-0.167	-0.159
-613.273	-186.031	0.282	0.004
-612.259	322.516	-0.146	-0.283
-611.244	305.640	0.071	-0.134
-610.230	-16.019	-0.127	0.082
-609.215	-149.816	0.307	0.024
-608.201	565.729	0.074	0.182
-607.186	-130.127	-0.404	-0.056
-606.171	-200.000	0.006	-0.225
-605.157	-200.000	0.054	-0.277
-604.142	98.633	0.029	0.034
-603.128	-72.521	-0.246	-0.092
-602.113	103.250	-0.050	-0.060
-601.098	-119.677	0.209	-0.037
-600.084	-200.000	-0.022	-0.199
-599.069	160.187	-0.097	-0.137
-598.055	-200.000	-0.005	-0.234
-597.040	-200.000	-0.025	-0.262
-596.025	-72.371	0.123	0.046
-595.011	-91.345	0.073	0.021
-593.996	-74.816	-0.098	0.036
-592.982	-200.000	0.015	-0.276
-591.967	-111.389	0.161	-0.033
-590.952	-200.000	0.050	-0.396
-589.938	-200.000	-0.054	-0.356
-588.923	-22.377	0.124	-0.076
-587.909	248.858	-0.124	-0.213
-586.894	-84.951	-0.130	0.041
-585.879	-6.243	0.288	0.199
-584.865	-123.873	-0.393	0.063
-583.850	-31.113	0.219	-0.125
-582.836	9.164	-0.220	0.169
-581.821	240.234	-0.250	-0.422
-580.806	-24.395	-0.145	-0.088
-579.792	492.470	-0.064	0.148
-578.777	189.731	-0.099	-0.151
-577.763	-27.594	-0.159	0.094
-576.748	-0.826	-0.075	0.054
-575.733	-200.000	-0.006	0.098
-574.719	81.739	-0.092	0.101
-573.704	800.000	0.082	0.344
-572.690	-200.000	-0.012	-0.230
-571.675	-200.000	0.021	-0.094
-570.661	-126.573	0.095	-0.014
-569.646	-200.000	-0.002	0.272
-568.631	-118.103	-0.379	0.069
-567.617	184.009	0.067	-0.100
-566.602	-185.517	-0.430	-0.007
-565.588	-8.143	0.291	-0.199
-564.573	-155.938	0.087	-0.006
-563.558	-51.793	-0.312	-0.147
-562.544	267.496	-0.115	-0.205
-561.529	28.057	-0.326	-0.279
-560.515	-112.103	0.372	-0.076
-559.500	46.397	-0.004	0.004
-558.485	-129.475	-0.198	0.028
-557.471	299.497	-0.037	0.069
-556.456	-8.972	0.221	0.150
-555.442	173.095	0.147	-0.215
-554.427	-160.470	-0.138	-0.008
-553.412	-200.000	0.012	0.270
-552.398	-158.944	-0.146	-0.008
-551.383	-200.000	-0.021	0.321
-550.369	228.834	0.041	0.067
-549.354	-54.421	-0.134	0.061
-548.339	-200.000	0.045	0.279
-547.325	-98.817	-0.015	0.004
-546.310	-154.033	0.245	-0.017
-545.296	206.574	0.179	0.282
-544.281	-27.930	0.184	0.108
-543.266	235.293	0.094	0.157
-542.252	-32.572	-0.252	0.142
-541.237	-200.000	0.037	0.481
-540.223	-138.528	-0.122	-0.014
-539.208	800.000	-0.045	0.163
-538.193	316.310	0.149	-0.284
-537.179	-113.697	-0.301	-0.059
-536.164	800.000	0.025	-0.086
-535.150	419.930	-0.104	-0.225
-534.135	-43.195	-0.058	-0.030
-533.121	-111.189	-0.431	-0.089
-532.106	-200.000	-0.001	0.076
-531.091	-200.000	-0.048	-0.292
-530.077	-200.000	0.037	-0.289
-529.062	-200.000	-0.013	-0.268
-528.048	-16.731	-0.301	-0.192
-527.033	-63.039	-0.372	-0.156
-526.018	-60.244	-0.093	0.040
-525.004	483.649	-0.150	0.346
-523.989	-77.041	-0.126	0.044
-522.975	143.596	-0.039	-0.053
-521.960	78.822	-0.027	0.029
-520.945	800.000	0.030	0.107
-519.931	620.119	-0.114	0.290
-518.916	-200.000	0.011	-0.286
-517.902	29.930	-0.194	0.167
-516.887	800.000	-0.055	-0.161
-515.872	201.785	-0.213	-0.332
-514.858	-200.000	-0.046	-0.262
-513.843	132.313	0.022	-0.028
-512.829	-31.603	0.087	-0.050
-511.814	-32.543	-0.328	-0.185
-510.799	-172.266	0.214	-0.007
-509.785	-81.124	-0.091	0.030
-508.770	-154.097	0.179	-0.012
-507.756	-200.000	-0.004	-0.362
-506.741	786.860	0.059	0.163
-505.726	800.000	0.029	-0.119
-504.712	-200.000	-0.081	0.000
-503.697	153.226	0.088	-0.121
-502.683	-131.749	0.300	0.040
-501.668	-67.343	-0.073	-0.029
-500.653	265.025	0.186	0.327
-499.639	-134.139	-0.096	0.012
-498.624	800.000	-0.041	-0.119
-497.610	-80.239	0.317	0.107
-496.595	-200.000	0.031	-0.297
-495.581	800.000	0.083	-0.242
-494.566	-61.091	0.325	-0.138
-493.551	-125.951	-0.062	-0.009
-492.537	323.180	-0.159	0.306
-491.522	-121.312	0.149	-0.025
-490.508	759.517	0.067	0.182
-489.493	-82.200	0.104	-0.034
-488.478	122.904	-0.193	-0.244
-487.464	-74.971	0.104	-0.038
-486.449	17.115	-0.153	0.123
-485.435	800.000	0.013	-0.047
-484.420	32.182	0.146	-0.127
-483.405	800.000	0.188	-0.571
-482.391	310.784	0.179	0.339
-481.376	-124.253	0.197	-0.031
-480.362	-200.000	0.041	-0.212
-479.347	250.133	-0.114	-0.194
-478.332	-47.501	-0.142	0.070
-477.318	72.333	-0.071	0.075
-476.303	-200.000	-0.030	-0.174
-475.289	205.774	0.127	0.199
-474.274	235.822	-0.118	0.198
-473.259	23.816	0.227	-0.189
-472.245	362.513	0.166	-0.336
-471.230	-14.567	-0.108	0.070
-470.216	123.236	-0.177	-0.224
-469.201	373.466	-0.054	0.111
-468.186	135.896	0.075	-0.098
-467.172	-111.655	-0.439	0.090
-466.157	-45.153	-0.140	0.070
-465.143	-200.000	-0.001	-0.248
-464.128	41.219	-0.120	0.110
-463.113	-200.000	0.022	-0.178
-462.099	-78.456	0.214	-0.074
-461.084	121.009	-0.184	0.231
-460.070	-149.493	0.223	0.018
-459.055	504.071	0.054	-0.125
-458.040	413.783	0.052	-0.111
-457.026	-45.326	-0.235	0.117
-456.011	541.951	0.011	0.027
-454.997	138.571	0.078	0.103
-453.982	280.927	0.212	0.382
-452.968	162.440	0.077	0.109
-451.953	-200.000	-0.155	-0.000
-450.938	-27.333	-0.060	-0.035
-449.924	-200.000	-0.002	-0.203
-448.909	800.000	-0.071	-0.226
-447.895	800.000	-0.015	-0.049
-446.880	800.000	0.038	0.130
-445.865	-114.885	0.114	0.022
-444.851	-57.579	-0.066	-0.029
-443.836	-200.000	0.027	-0.339
-442.822	-10.540	-0.114	-0.076
-441.807	188.774	-0.214	-0.322
-440.792	-200.000	0.023	-0.249
-439.778	-200.000	0.090	-0.447
-438.763	79.905	-0.043	-0.046
-437.749	491.808	-0.051	-0.117
-436.734	206.901	-0.119	0.187
-435.719	-200.000	-0.002	0.049
-434.705	35.182	0.275	-0.243
-433.690	-131.356	-0.279	-0.037
-432.676	-135.874	-0.212	-0.025
-431.661	-81.900	0.203	-0.067
-430.646	800.000	0.079	-0.298
-429.632	-29.935	-0.287	-0.164
-428.617	656.808	0.108	-0.278
-427.603	800.000	0.055	-0.211
-426.588	-200.000	-0.092	-0.414
-425.573	300.025	0.058	-0.108
-424.559	172.082	0.110	-0.159
-423.544	103.528	0.348	-0.411
-422.530	-200.000	0.001	-0.218
-421.515	-113.431	-0.168	0.033
-420.500	136.563	0.194	0.255
-419.486	286.965	-0.122	-0.222
-418.471	104.753	-0.072	0.085
-417.457	111.022	0.066	-0.080
-416.442	800.000	0.059	0.258
-415.428	42.384	0.137	-0.125
-414.413	90.532	0.095	-0.107
-413.398	-200.000	0.006	0.025
-412.384	-45.182	-0.341	-0.171
-411.369	251.793	0.166	0.284
-410.355	119.896	-0.009	0.012
-409.340	-96.798	-0.396	-0.105
-408.325	-63.253	-0.256	-0.106
-407.311	24.537	0.308	0.256
-406.296	259.830	0.068	0.119
-405.282	800.000	-0.104	0.349
-404.267	64.102	0.173	0.175
-403.252	800.000	-0.110	0.412
-402.238	-200.000	-0.047	-0.529
-401.223	-117.314	0.124	0.023
-400.209	-65.515	0.125	0.050
-399.194	-12.672	-0.209	-0.137
-398.179	146.223	0.040	0.054
-397.165	-90.941	-0.208	0.060
-396.150	27.491	-0.171	-0.145
-395.136	-42.037	0.208	0.107
-394.121	-200.000	-0.015	-0.129
-393.106	-58.799	0.223	0.097
-392.092	31.758	0.115	-0.100
-391.077	-65.825	0.231	0.093
-390.063	-200.000	0.056	0.291
-389.048	-64.973	0.080	-0.033
-388.033	97.139	0.136	0.157
-387.019	-200.000	0.020	0.126
-386.004	183.932	0.148	0.219
-384.990	-11.353	0.095	0.063
-383.975	86.909	0.182	0.202
-382.960	-80.575	-0.287	0.096
-381.946	48.500	-0.178	-0.168
-380.931	800.000	0.079	0.308
-379.917	-115.164	0.056	-0.011
-378.902	71.219	0.186	0.194
-377.888	69.663	0.165	-0.170
-376.873	71.953	0.035	-0.037
-375.858	-72.949	-0.136	-0.050
-374.844	203.067	-0.124	-0.192
-373.829	-155.437	-0.353	-0.023
-372.815	223.897	-0.072	0.116
-371.800	-29.774	-0.093	0.053
-370.785	-66.847	0.120	-0.048
-369.771	-108.183	0.231	0.050
-368.756	-59.088	-0.400	0.174
-367.742	477.989	-0.126	0.285
-366.727	-3.503	0.148	-0.103
-365.712	128.607	0.217	0.278
-364.698	192.447	0.108	0.164
-363.683	800.000	-0.014	0.059
-362.669	-29.464	0.083	0.048
-361.654	11.208	0.188	-0.145
-360.639	-34.532	0.306	0.168
-359.625	-107.449	-0.104	0.023
-358.610	-132.169	-0.364	0.047
-357.596	44.628	0.129	0.119
-356.581	119.884	-0.195	-0.243
-355.566	-135.812	0.274	-0.033
-354.552	-20.633	0.385	0.237
-353.537	38.630	-0.267	0.239
-352.523	5.718	-0.227	0.169
-351.508	800.000	0.004	0.015
-350.493	168.079	0.191	-0.272
-349.479	-67.424	-0.080	-0.031
-348.464	334.194	0.210	0.408
-347.450	-200.000	0.044	0.337
-346.435	-200.000	0.076	0.499
-345.420	57.441	-0.031	-0.031
-344.406	-116.962	0.358	-0.066
-343.391	-152.455	-0.322	-0.023
-342.377	579.224	0.033	-0.082
-341.362	19.793	0.080	0.064
-340.348	-80.136	-0.074	-0.025
-339.333	-122.784	-0.170	-0.028
-338.318	-19.935	-0.172	-0.106
-337.304	0.140	0.086	0.061
-336.289	24.951	-0.212	0.176
-335.275	294.479	0.090	-0.165
-334.260	800.000	-0.038	0.110
-333.245	-25.214	-0.209	0.124
-332.231	-3.647	-0.190	-0.132
-331.216	121.978	0.216	-0.270
-330.202	-52.079	0.135	-0.063
-329.187	347.089	-0.149	0.293
-328.172	239.205	0.087	-0.146
-327.158	352.236	-0.072	-0.143
-326.143	471.448	-0.050	-0.112
-325.129	-16.812	0.492	0.312
-324.114	18.200	-0.280	0.224
-323.099	-120.751	0.089	-0.015
-322.085	800.000	-0.070	0.216
-321.070	75.573	-0.064	0.068
-320.056	-200.000	0.011	0.228
-319.041	33.329	0.263	0.229
-318.026	714.780	0.124	0.330
-317.012	-200.000	0.006	-0.106
-315.997	800.000	0.086	-0.351
-314.983	-66.928	0.042	0.017
-313.968	107.222	0.068	-0.081
-312.953	142.217	0.041	0.054
-311.939	210.341	-0.120	0.189
-310.924	-137.572	0.247	-0.028
-309.910	-200.000	0.043	0.260
-308.895	-71.209	-0.337	0.127
-307.880	-20.451	0.063	-0.039
-306.866	-131.352	-0.030	-0.004
-305.851	-83.703	-0.101	0.032
-304.837	23.839	-0.157	-0.130
-303.822	-79.414	-0.108	-0.037
-302.807	63.355	0.036	0.036
-301.793	800.000	-0.067	0.271
-300.778	10.495	-0.209	-0.159
-299.764	-43.934	0.105	0.053
-298.749	102.727	0.244	0.286
-297.735	-200.000	-0.011	-0.134
-296.720	95.078	-0.029	-0.033
-295.705	-0.370	0.116	-0.083
-294.691	800.000	-0.216	-0.620
-293.676	-147.670	0.446	0.038
-292.662	109.818	0.312	-0.375
-291.647	-200.000	-0.014	0.300
-290.632	800.000	0.048	0.177
-289.618	423.056	0.072	0.154
-288.603	27.398	-0.353	-0.297
-287.589	-107.169	0.167	-0.037
-286.574	-31.122	0.244	-0.138
-285.559	489.437	0.062	-0.142
-284.545	-89.402	0.165	0.049
-283.530	-200.000	0.025	-0.219
-282.516	-200.000	0.022	0.133
-281.501	344.819	0.086	-0.170
-280.486	120.195	0.135	0.167
-279.472	97.676	0.251	0.289
-278.457	-137.569	0.052	-0.006
-277.443	23.779	0.125	-0.103
-276.428	-73.749	0.280	-0.102
-275.413	800.000	-0.087	-0.303
-274.399	317.843	-0.027	0.051
-273.384	210.286	0.059	0.092
-272.370	-70.003	0.213	0.081
-271.355	620.572	0.073	-0.183
-270.340	1.575	0.293	0.211
-269.326	-59.588	-0.345	-0.148
-268.311	-200.000	0.005	0.173
-267.297	279.949	-0.156	0.279
-266.282	-41.172	0.180	0.093
-265.267	-180.737	-0.158	-0.003
-264.253	188.128	-0.087	0.130
-263.238	222.110	-0.071	-0.114
-262.224	-81.023	-0.045	-0.015
-261.209	38.909	-0.196	-0.175
-260.195	210.299	0.082	-0.128
-259.180	-92.350	0.125	-0.035
-258.165	-23.249	-0.143	0.086
-257.151	-200.000	0.002	-0.115
-256.136	147.106	-0.231	-0.311
-255.122	67.676	0.073	-0.075
-254.107	-200.000	0.022	-0.233
-253.092	133.238	0.081	0.105
-252.078	-1.229	0.050	0.036
-251.063	-200.000	-0.033	-0.363
-250.049	134.225	-0.123	0.160
-249.034	-200.000	-0.001	0.525
-248.019	800.000	-0.117	0.391
-247.005	-90.063	-0.388	0.113
-245.990	-200.000	0.044	-0.331
-244.976	797.618	0.173	-0.478
-243.961	-103.906	0.127	-0.030
-242.946	-200.000	0.010	0.289
-241.932	360.764	0.191	0.382
-240.917	800.000	0.137	0.441
-239.903	-133.214	0.282	-0.036
-238.888	-142.795	-0.228	-0.022
-237.873	-200.000	-0.043	-0.296
-236.859	-200.000	0.049	0.390
-235.844	481.597	0.093	0.210
-234.830	-43.022	0.102	0.051
-233.815	-71.532	0.283	-0.106
-232.800	98.054	-0.220	0.253
-231.786	25.092	-0.204	0.169
-230.771	-159.886	0.148	-0.008
-229.757	-80.527	0.210	-0.070
-228.742	-122.318	-0.454	-0.074
-227.727	226.022	-0.193	0.312
-226.713	-34.745	0.272	0.149
-225.698	800.000	0.066	0.194
-224.684	-200.000	0.024	-0.173
-223.669	-74.996	0.250	-0.090
-222.655	581.547	0.069	0.170
-221.640	786.638	0.124	-0.341
-220.625	-122.946	-0.138	0.022
-219.611	36.240	-0.156	-0.137
-218.596	238.348	-0.158	0.261
-217.582	284.694	0.097	0.174
-216.567	-200.000	0.020	-0.188
-215.552	-200.000	-0.035	0.234
-214.538	49.906	-0.129	0.122
-213.523	634.529	0.124	0.314
-212.509	-200.000	-0.079	-0.354
-211.494	254.601	-0.097	0.165
-210.479	800.000	-0.064	0.251
-209.465	-115.753	-0.106	-0.020
-208.450	800.000	0.016	0.056
-207.436	107.888	-0.084	0.100
-206.421	285.696	0.072	-0.130
-205.406	-39.029	0.214	-0.113
-204.392	-200.000	0.227	0.000
-203.377	166.136	-0.079	-0.111
-202.363	159.579	0.095	-0.132
-201.348	-9.020	-0.075	-0.050
-200.333	-91.036	-0.054	0.016
-199.319	34.651	-0.059	0.051
-198.304	-64.141	0.130	-0.053
-197.290	206.065	0.126	0.195
-196.275	-139.277	-0.221	0.024
-195.260	90.363	-0.215	0.240
-194.246	-19.660	0.197	0.121
-193.231	-74.273	0.107	0.038
-192.217	61.882	-0.194	0.193
-191.202	800.000	0.050	0.170
-190.187	-200.000	0.051	-0.489
-189.173	560.866	-0.094	0.228
-188.158	65.395	0.035	0.036
-187.144	-200.000	-0.011	-0.072
-186.129	-115.903	-0.310	-0.058
-185.114	800.000	-0.055	0.219
-184.100	-26.824	-0.400	0.233
-183.085	-200.000	-0.064	0.339
-182.071	43.695	0.277	-0.253
-181.056	-200.000	-0.005	-0.221
-180.042	-200.000	0.024	0.148
-179.027	36.702	0.135	-0.119
-178.012	185.788	0.154	0.229
-176.998	-200.000	-0.057	0.322
-175.983	-65.957	0.109	-0.043
-174.969	-127.155	-0.155	0.023
-173.954	-26.268	-0.235	0.137
-172.939	11.134	-0.018	0.014
-171.925	-21.580	0.274	-0.167
-170.910	73.275	0.070	0.073
-169.896	336.098	0.106	0.205
-168.881	800.000	0.074	0.221
-167.866	-86.876	-0.283	0.086
-166.852	640.125	-0.134	-0.341
-165.837	-200.000	0.027	-0.142
-164.823	-10.111	0.250	0.165
-163.808	800.000	0.050	0.194
-162.793	-19.690	0.293	0.180
-161.779	39.531	0.043	0.038
-160.764	800.000	0.064	0.197
-159.750	-147.521	0.143	0.012
-158.735	205.631	0.074	-0.115
-157.720	-42.583	0.165	-0.084
-156.706	-52.342	0.274	-0.127
-155.691	-167.260	0.196	0.008
-154.677	-200.000	-0.024	0.265
-153.662	-200.000	-0.054	0.235
-152.647	93.283	-0.059	-0.067
-151.633	-200.000	-0.037	-0.417
-150.618	287.684	0.106	0.191
-149.604	-41.001	0.254	-0.131
-148.589	800.000	0.071	0.273
-147.574	-171.512	-0.144	0.005
-146.560	-117.949	-0.284	0.051
-145.545	-120.345	0.139	-0.024
-144.531	-66.571	-0.047	0.018
-143.516	-9.815	-0.206	-0.136
-142.502	31.387	-0.159	0.136
-141.487	-5.151	-0.231	-0.158
-140.472	-95.579	0.153	0.041
-139.458	-180.455	0.174	0.004
-138.443	80.849	0.143	0.153
-137.429	-142.940	0.140	0.014
-136.414	-89.909	-0.381	-0.111
-135.399	-117.677	-0.504	0.090
-134.385	-200.000	-0.043	0.256
-133.370	-63.153	-0.162	-0.067
-132.356	-18.031	0.064	-0.040
-131.341	-126.470	0.268	0.040
-130.326	-115.080	-0.259	0.049
-129.312	50.469	0.304	0.286
-128.297	68.627	-0.096	0.098
-127.283	-186.326	0.142	-0.002
-126.268	-48.915	-0.052	0.025
-125.253	46.941	0.272	-0.252
-124.239	112.731	-0.005	0.007
-123.224	-200.000	0.003	-0.025
-122.210	14.519	0.129	-0.100
-121.195	43.733	0.193	-0.176
-120.180	-200.000	-0.022	0.135
-119.166	121.483	-0.125	-0.156
-118.151	-200.000	-0.034	0.207
-117.137	-181.808	-0.154	-0.003
-116.122	-151.821	0.198	0.014
-115.107	163.264	-0.289	0.404
-114.093	145.107	0.069	0.091
-113.078	-92.650	-0.162	-0.045
-112.064	-1.732	0.257	0.180
-111.049	-20.725	0.049	-0.030
-110.034	-15.450	0.325	0.207
-109.020	-126.225	0.200	0.030
-108.005	148.878	0.137	-0.185
-106.991	151.037	-0.074	0.100
-105.976	-200.000	0.016	0.084
-104.962	-31.887	-0.107	0.060
-103.947	28.337	-0.314	0.264
-102.932	-149.891	0.094	0.007
-101.918	800.000	0.036	0.100
-100.903	-200.000	-0.003	0.137
-99.889	138.815	0.125	-0.163
-98.874	-119.828	0.495	-0.085
-97.859	-99.069	-0.482	0.121
-96.845	-125.895	-0.218	0.033
-95.830	-159.958	-0.219	0.012
-94.816	135.754	0.151	-0.195
-93.801	-200.000	-0.075	0.540
-92.786	-56.206	-0.130	-0.057
-91.772	129.194	0.083	-0.105
-90.757	-68.966	0.134	0.051
-89.743	-132.681	0.008	-0.001
-88.728	-187.830	0.123	-0.002
-87.713	-180.241	-0.372	0.008
-86.699	-5.847	-0.200	0.136
-85.684	800.000	-0.005	-0.020
-84.670	-129.436	-0.099	-0.014
-83.655	153.339	-0.173	0.235
-82.640	-132.684	0.331	0.042
-81.626	182.574	-0.048	0.071
-80.611	-91.038	0.090	-0.026
-79.597	386.516	0.029	0.059
-78.582	87.157	-0.117	0.128
-77.567	-200.000	-0.052	0.365
-76.553	-200.000	0.004	-0.071
-75.538	-87.836	-0.281	-0.084
-74.524	-57.926	-0.110	0.048
-73.509	133.973	0.135	-0.174
-72.494	73.172	-0.185	-0.192
-71.480	-181.345	0.225	-0.004
-70.465	800.000	0.103	-0.360
-69.451	-200.000	0.074	-0.364
-68.436	134.082	0.301	0.387
-67.422	800.000	-0.077	0.240
-66.407	-63.199	0.147	0.060
-65.392	-13.058	-0.153	0.099
-64.378	-200.000	-0.035	0.240
-63.363	15.310	-0.146	-0.114
-62.349	-56.667	-0.100	-0.044
-61.334	43.847	-0.680	-0.618
-60.319	-113.856	0.376	0.073
-59.305	800.000	0.232	-0.972
-58.290	285.394	0.448	0.802
-57.276	487.494	0.755	1.709
-56.261	-200.000	77.874	502.677
-55.246	484.359	1361.898	3075.892
-54.232	141.563	2619.755	3442.811
-53.217	105.871	2390.868	2807.089
-52.203	47.933	1996.378	1850.659
-51.188	42.265	1777.135	1602.233
-50.173	39.546	1730.578	1538.999
-49.159	53.484	1766.299	1680.749
-48.144	57.829	1785.378	1733.056
-47.130	42.194	1747.966	1575.126
-46.115	39.096	1734.029	1538.299
-45.100	38.982	1729.054	1532.938
-44.086	38.965	1726.140	1530.162
-43.071	39.033	1723.465	1528.260
-42.057	38.959	1721.131	1525.549
-41.042	38.880	1719.487	1523.423
-40.027	38.926	1717.187	1521.679
-39.013	38.926	1715.385	1520.020
-37.998	38.922	1713.516	1518.278
-36.984	38.920	1712.216	1517.046
-35.969	39.088	1710.273	1516.561
-34.954	39.182	1708.362	1515.536
-33.940	39.024	1706.441	1512.553
-32.925	39.110	1704.648	1511.561
-31.911	39.093	1703.067	1509.975
-30.896	39.061	1701.155	1507.974
-29.881	39.122	1699.335	1506.767
-28.867	39.053	1697.898	1504.905
-27.852	39.089	1696.255	1503.666
-26.838	39.037	1694.902	1502.004
-25.823	39.072	1693.672	1501.122
-24.809	39.061	1692.140	1499.625
-23.794	39.135	1690.730	1498.881
-22.779	39.184	1688.948	1497.612
-21.765	39.136	1687.055	1495.513
-20.750	39.052	1685.617	1493.532
-19.736	39.054	1684.156	1492.199
-18.721	39.126	1682.624	1491.324
-17.706	39.030	1681.645	1489.671
-16.692	39.089	1679.548	1488.204
-15.677	39.078	1678.187	1486.855
-14.663	39.084	1676.596	1485.429
-13.648	39.133	1675.312	1484.608
-12.633	39.047	1673.450	1482.243
-11.619	39.040	1671.898	1480.757
-10.604	39.091	1669.972	1479.379
-9.590	39.121	1668.689	1478.407
-8.575	39.047	1667.777	1476.985
-7.560	39.047	1666.474	1475.775
-6.546	39.113	1665.147	1475.034
-5.531	39.004	1663.969	1473.113
-4.517	38.977	1662.751	1471.779
-3.502	39.046	1661.843	1471.436
-2.487	39.190	1660.302	1471.084
-1.473	39.323	1649.647	1462.579
-0.458	37.391	1630.359	1431.205
0.556	31.958	1627.744	1389.942
1.571	27.961	1649.594	1378.395
2.586	26.078	1661.261	1373.703
3.600	22.288	1605.917	1299.873
4.615	12.367	1486.728	1135.071
5.629	3.102	1413.898	1018.256
6.644	0.969	1404.458	997.332
7.659	0.890	1402.637	995.429
8.673	0.745	1401.444	993.543
9.688	0.786	1399.855	992.598
10.702	0.482	1397.151	988.599
11.717	4.053	1403.116	1016.201
12.731	12.585	1416.886	1082.415
13.746	17.531	1423.528	1120.005
14.761	17.462	1421.953	1118.217
15.775	16.645	1419.544	1110.863
16.790	15.634	1417.004	1102.148
17.804	14.904	1414.110	1095.021
18.819	14.443	1413.064	1091.098
19.834	14.215	1411.405	1088.227
20.848	13.929	1410.037	1085.210
21.863	13.620	1409.275	1082.510
22.877	13.493	1407.328	1080.089
23.892	13.389	1406.970	1079.039
24.907	13.452	1406.279	1078.829
25.921	13.404	1405.139	1077.545
26.936	13.443	1404.276	1077.042
27.950	13.537	1403.506	1076.964
28.965	13.680	1401.584	1076.326
29.980	13.659	1400.558	1075.306
30.994	13.601	1400.353	1074.675
32.009	13.738	1398.946	1074.389
33.023	13.605	1398.465	1073.062
34.038	13.710	1396.618	1072.231
35.053	13.625	1395.751	1070.923
36.067	13.631	1394.728	1070.082
37.082	13.571	1394.046	1069.076
38.096	13.606	1392.914	1068.336
39.111	13.590	1392.102	1067.519
40.126	13.650	1391.244	1067.150
41.140	13.517	1390.441	1065.583
42.155	13.587	1389.725	1065.392
43.169	13.452	1389.653	1064.372
44.184	13.474	1389.429	1064.251
45.199	13.439	1388.702	1063.376
46.213	13.531	1388.157	1063.453
47.228	13.566	1386.887	1062.614
48.242	13.579	1385.806	1061.773
49.257	13.572	1384.556	1060.679
50.271	13.598	1382.882	1059.463
51.286	13.643	1381.450	1058.562
52.301	13.581	1380.099	1057.039
53.315	13.519	1379.542	1056.122
54.330	13.501	1378.411	1055.047
55.344	13.460	1377.287	1053.835
56.359	13.473	1376.051	1052.875
57.374	13.559	1375.181	1052.663
58.388	13.530	1374.267	1051.686
59.403	13.402	1373.821	1050.441
60.417	13.481	1372.926	1050.165
61.432	13.512	1371.674	1049.314
62.447	13.322	1371.186	1047.640
63.461	13.366	1369.489	1046.534
64.476	13.409	1368.528	1045.976
65.490	13.365	1367.618	1044.907
66.505	13.396	1365.938	1043.730
67.520	13.436	1364.513	1042.801
68.534	13.551	1362.874	1042.178
69.549	13.541	1361.720	1041.139
70.563	13.356	1361.297	1039.565
71.578	13.433	1360.056	1039.008
72.593	13.398	1359.048	1037.923
73.607	13.301	1358.253	1036.618
74.622	13.365	1357.819	1036.595
75.636	13.364	1356.756	1035.684
76.651	13.283	1355.845	1034.392
77.666	13.252	1355.416	1033.783
78.680	13.489	1354.751	1034.665
79.695	13.282	1353.972	1032.686
80.709	13.379	1353.067	1032.506
81.724	13.449	1351.902	1031.962
82.739	13.416	1351.467	1031.335
83.753	13.513	1350.417	1031.048
84.768	13.519	1349.065	1029.957
85.782	13.527	1347.971	1029.084
86.797	13.544	1346.734	1028.151
87.812	13.407	1345.218	1026.056
88.826	13.407	1344.235	1025.215
89.841	13.524	1343.018	1024.919
90.855	13.608	1341.880	1024.483
91.870	13.560	1341.278	1023.631
92.884	13.621	1340.307	1023.180
93.899	13.671	1339.141	1022.505
94.914	13.587	1338.982	1021.773
95.928	13.616	1337.817	1020.975
96.943	13.700	1336.983	1020.765
97.957	13.616	1335.945	1019.368
98.972	13.575	1335.289	1018.525
99.987	13.592	1333.782	1017.390
101.001	13.534	1332.802	1016.197
102.016	13.544	1331.888	1015.469
103.030	13.602	1331.220	1015.229
104.045	13.633	1330.213	1014.560
105.060	13.651	1328.898	1013.576
106.074	13.538	1327.821	1011.976
107.089	13.462	1326.350	1010.300
108.103	13.413	1325.077	1008.940
109.118	13.438	1323.574	1007.859
110.133	13.443	1322.555	1007.026
111.147	13.430	1320.962	1005.648
112.162	13.534	1319.512	1005.083
113.176	13.505	1318.677	1004.183
114.191	13.502	1318.072	1003.616
115.206	13.527	1316.584	1002.546
116.220	13.451	1315.407	1001.097
117.235	13.499	1314.074	1000.286
118.249	13.540	1313.213	999.787
119.264	13.502	1311.620	998.260
120.279	13.505	1310.810	997.575
121.293	13.353	1310.130	996.052
122.308	13.471	1308.350	995.321
123.322	13.449	1307.658	994.571
124.337	13.501	1306.537	993.945
125.352	13.439	1305.538	992.724
126.366	13.426	1304.334	991.644
127.381	13.452	1303.425	991.023
128.395	13.495	1302.375	990.392
129.410	13.492	1301.451	989.584
130.424	13.512	1300.561	988.937
131.439	13.555	1299.229	988.093
132.454	13.550	1298.662	987.545
133.468	13.605	1297.590	986.971
134.483	13.639	1296.723	986.426
135.497	13.661	1295.792	985.763
136.512	13.556	1294.688	984.211
137.527	13.653	1293.170	983.549
138.541	13.545	1292.028	981.950
139.556	13.666	1290.232	981.215
140.570	13.609	1289.384	980.143
141.585	13.709	1287.901	979.524
142.600	13.741	1287.052	978.978
143.614	13.748	1285.939	978.086
144.629	13.754	1284.668	977.066
145.643	13.713	1283.853	976.123
146.658	13.753	1282.118	974.952
147.673	13.674	1280.967	973.524
148.687	13.651	1279.802	972.422
149.702	13.654	1278.761	971.560
150.716	13.589	1277.220	969.920
151.731	13.513	1276.007	968.470
152.746	13.709	1273.981	967.992
153.760	13.611	1273.491	966.964
154.775	13.709	1272.193	966.465
155.789	13.729	1271.067	965.636
156.804	13.706	1270.090	964.676
157.819	13.736	1269.200	964.091
158.833	13.757	1268.146	963.326
159.848	13.852	1267.027	962.939
160.862	13.784	1266.388	961.979
161.877	13.784	1264.832	960.710
162.892	13.763	1263.807	959.727
163.906	13.773	1262.987	959.076
164.921	13.761	1262.015	958.182
165.935	13.786	1260.867	957.373
166.950	13.731	1260.571	956.744
167.964	13.819	1259.784	956.567
168.979	13.753	1258.933	955.458
169.994	13.738	1258.682	955.098
171.008	13.785	1257.597	954.459
172.023	13.883	1256.431	954.052
173.037	13.938	1255.696	953.724
174.052	13.986	1254.367	952.907
175.067	13.911	1253.235	951.534
176.081	13.897	1252.724	950.984
177.096	13.871	1251.536	949.847
178.110	13.860	1250.857	949.183
179.125	13.868	1249.256	947.934
180.140	14.015	1247.691	947.498
181.154	13.958	1246.543	946.216
182.169	13.917	1245.703	945.265
183.183	14.031	1243.979	944.518
184.198	14.116	1242.821	944.036
185.213	13.966	1242.232	942.660
186.227	14.086	1240.677	942.072
187.242	14.142	1239.745	941.599
188.256	14.173	1238.602	940.826
189.271	14.150	1237.479	939.755
190.286	14.097	1236.062	938.299
191.300	14.009	1235.584	937.358
192.315	13.981	1235.379	936.962
193.329	13.938	1234.595	936.043
194.344	14.103	1233.399	935.977
195.359	14.051	1233.466	935.655
196.373	14.155	1232.404	935.351
197.388	14.205	1232.242	935.427
198.402	14.229	1231.573	934.972
199.417	14.200	1230.923	934.232
200.432	14.362	1229.317	933.839
201.446	14.285	1229.122	933.178
202.461	14.301	1227.956	932.297
203.475	14.278	1227.164	931.487
204.490	14.205	1226.028	930.132
205.504	14.390	1224.301	929.773
206.519	14.356	1223.287	928.732
207.534	14.199	1222.282	927.012
208.548	14.288	1221.170	926.579
209.563	14.262	1220.655	925.962
210.577	14.297	1219.583	925.264
211.592	14.324	1218.753	924.702
212.607	14.431	1217.834	924.513
213.621	14.380	1217.089	923.586
214.636	14.426	1216.077	922.989
215.650	14.336	1215.318	921.838
216.665	14.436	1213.796	921.154
217.680	14.544	1212.869	920.961
218.694	14.476	1212.144	919.954
219.709	14.465	1211.491	919.316
220.723	14.553	1210.800	919.199
221.738	14.575	1209.957	918.595
222.753	14.512	1209.338	917.697
223.767	14.585	1208.719	917.549
224.782	14.617	1208.102	917.174
225.796	14.660	1207.389	916.790
226.811	14.567	1206.656	915.639
227.826	14.617	1206.245	915.524
228.840	14.722	1205.043	915.105
229.855	14.748	1203.805	914.226
230.869	14.653	1203.532	913.420
231.884	14.641	1202.734	912.669
232.899	14.552	1201.813	911.400
233.913	14.555	1201.490	911.093
234.928	14.562	1200.915	910.613
235.942	14.617	1199.826	910.006
236.957	14.568	1199.155	909.151
237.972	14.598	1198.329	908.605
238.986	14.708	1197.505	908.500
240.001	14.600	1196.807	907.304
241.015	14.751	1195.812	907.286
242.030	14.609	1195.262	906.018
243.045	14.766	1194.018	905.849
244.059	14.713	1193.884	905.378
245.074	14.762	1192.429	904.463
246.088	14.693	1191.763	903.500
247.103	14.788	1191.306	903.588
248.117	14.801	1190.614	903.057
249.132	14.852	1189.873	902.691
250.147	14.895	1188.988	902.169
251.161	15.012	1188.070	902.026
252.176	14.993	1187.417	901.345
253.190	15.009	1186.880	900.946
254.205	15.027	1186.361	900.567
255.220	15.119	1185.764	900.529
256.234	15.130	1184.887	899.845
257.249	15.064	1183.911	898.669
258.263	15.153	1183.315	898.613
259.278	15.098	1183.097	898.071
260.293	15.079	1182.574	897.496
261.307	15.161	1182.163	897.541
262.322	15.101	1181.345	896.519
263.336	15.298	1180.224	896.645
264.351	15.222	1179.657	895.726
265.366	15.314	1179.079	895.700
266.380	15.237	1178.163	894.514
267.395	15.283	1177.630	894.275
268.409	15.190	1176.496	892.842
269.424	15.310	1175.718	892.813
270.439	15.273	1175.363	892.266
271.453	15.260	1174.446	891.424
272.468	15.261	1173.698	890.781
273.482	15.205	1172.740	889.679
274.497	15.316	1172.357	889.899
275.512	15.334	1171.702	889.414
276.526	15.367	1170.476	888.582
277.541	15.309	1169.978	887.818
278.555	15.326	1169.730	887.642
279.570	15.349	1168.568	886.804
280.585	15.434	1167.670	886.491
281.599	15.468	1167.053	886.122
282.614	15.473	1165.809	885.126
283.628	15.412	1164.535	883.763
284.643	15.535	1163.779	883.757
285.657	15.562	1162.775	883.059
286.672	15.557	1161.545	882.019
287.687	15.648	1160.877	881.912
288.701	15.532	1160.321	880.802
289.716	15.608	1159.261	880.318
290.730	15.598	1158.628	879.706
291.745	15.643	1158.289	879.607
292.760	15.552	1157.659	878.572
293.774	15.548	1157.150	878.092
294.789	15.614	1156.204	877.639
295.803	15.651	1155.507	877.228
296.818	15.582	1154.988	876.396
297.833	15.690	1153.760	875.945
298.847	15.681	1153.224	875.414
299.862	15.639	1152.445	874.530
300.876	15.649	1151.634	873.887
301.891	15.772	1150.982	873.953
302.906	15.803	1149.760	873.113
303.920	15.843	1149.435	872.994
304.935	15.745	1149.243	872.263
305.949	15.737	1148.608	871.662
306.964	15.866	1147.543	871.442
307.979	15.857	1146.715	870.693
308.993	15.911	1146.082	870.412
310.008	15.806	1145.204	869.128
311.022	15.919	1144.561	869.145
312.037	15.903	1143.364	868.079
313.052	15.943	1142.290	867.390
314.066	15.845	1141.587	866.276
315.081	15.906	1140.391	865.607
316.095	15.929	1140.119	865.440
317.110	15.853	1138.965	864.097
318.125	15.969	1138.513	864.275
319.139	15.819	1138.337	863.295
320.154	15.901	1137.041	862.654
321.168	15.960	1136.441	862.429
322.183	15.925	1135.948	861.798
323.197	15.947	1135.251	861.304
324.212	15.985	1134.812	861.091
325.227	15.949	1134.301	860.440
326.241	16.093	1133.158	860.231
327.256	16.119	1132.280	859.625
328.270	16.029	1131.312	858.354
329.285	15.975	1130.345	857.268
330.300	15.983	1129.673	856.723
331.314	16.122	1128.319	856.327
332.329	16.147	1127.419	855.694
333.343	16.115	1126.666	854.885
334.358	16.175	1125.750	854.420
335.373	16.133	1125.143	853.668
336.387	16.217	1124.224	853.322
337.402	16.148	1123.584	852.415
338.416	16.202	1123.090	852.236
339.431	16.265	1122.215	851.815
340.446	16.394	1121.287	851.684
341.460	16.362	1120.965	851.203
342.475	16.381	1119.930	850.436
343.489	16.482	1118.864	850.060
344.504	16.323	1118.357	848.802
345.519	16.520	1117.201	848.839
346.533	16.413	1116.258	847.511
347.548	16.486	1115.647	847.336
348.562	16.500	1114.862	846.733
349.577	16.469	1114.444	846.187
350.592	16.432	1113.493	845.205
351.606	16.379	1112.439	844.067
352.621	16.501	1111.570	843.942
353.635	16.379	1111.240	843.009
354.650	16.505	1110.786	843.215
355.665	16.431	1110.169	842.304
356.679	16.544	1109.273	842.111
357.694	16.580	1108.884	841.924
358.708	16.585	1107.814	841.061
359.723	16.569	1107.412	840.599
360.738	16.655	1106.417	840.198
361.752	16.693	1105.882	839.904
362.767	16.494	1105.544	838.590
363.781	16.642	1104.936	838.785
364.796	16.670	1104.456	838.488
365.810	16.661	1103.564	837.692
366.825	16.739	1103.309	837.807
367.840	16.691	1103.032	837.289
368.854	16.745	1102.088	836.763
369.869	16.803	1101.143	836.256
370.883	16.905	1100.093	835.889
371.898	16.664	1099.555	834.217
372.913	16.904	1098.938	834.857
373.927	16.882	1098.349	834.231
374.942	16.825	1097.778	833.443
375.956	16.820	1097.412	833.064
376.971	16.808	1096.936	832.572
377.986	16.880	1095.880	832.047
379.000	16.902	1095.495	831.790
380.015	17.005	1094.924	831.789
381.029	17.033	1094.387	831.445
382.044	17.099	1093.381	830.932
383.059	17.103	1092.839	830.464
384.073	16.956	1092.341	829.292
385.088	17.008	1091.379	828.745
386.102	17.056	1090.136	827.963
387.117	17.002	1089.570	827.192
388.132	17.054	1088.451	826.523
389.146	17.200	1087.789	826.662
390.161	16.961	1087.576	825.263
391.175	17.002	1086.300	824.419
392.190	17.114	1085.696	824.434
393.205	17.098	1085.008	823.762
394.219	17.087	1083.969	822.844
395.234	17.154	1083.493	822.734
396.248	17.126	1081.798	821.238
397.263	17.180	1080.815	820.682
398.278	17.054	1080.654	819.877
399.292	17.171	1079.771	819.701
400.307	17.012	1079.544	818.687
401.321	17.118	1078.680	818.470
402.336	17.162	1077.888	818.010
403.350	17.182	1077.345	817.623
404.365	17.237	1076.384	817.086
405.380	17.194	1075.775	816.341
406.394	17.134	1075.069	815.445
407.409	17.386	1073.906	815.700
408.423	17.338	1073.400	815.016
409.438	17.462	1072.528	814.874
410.453	17.418	1071.901	814.117
411.467	17.401	1071.337	813.531
412.482	17.430	1070.623	813.057
413.496	17.494	1070.042	812.851
414.511	17.503	1069.420	812.349
415.526	17.522	1068.846	811.931
416.540	17.440	1068.549	811.242
417.555	17.621	1067.811	811.475
418.569	17.593	1067.342	810.912
419.584	17.567	1067.024	810.475
420.599	17.523	1066.420	809.737
421.613	90.582	1303.827	1394.807
422.628	83.765	1338.444	1394.889
