DTS Sentinel unit serial number:	SN413079Multiplexer serial number:	ORYXHardware model number:	OX4-SRSoftware version number:	ORYX F/W v4.00 Oryx Data Collector v3.7.2.0data status	okinstallation	princeton_trtdifferential loss correction	single-endedforward channel	channel 2reverse channel	N/Adate	2019/09/11time	14:53:11forward acquisition time	60.00reverse acquisition time	0.00gamma	496.2192k internal	0.2288k external	0.2288temperature offset calibration	1.0012default loss term (dB/km)	0.3790temperature slope calibration	1.0000multiplexer offset coefficient	1.0000multiplexer slope coefficient	1.0000fibre end	0.00T internal ref (°C)	42.62T ext. ref 1 (°C)	0.91T ext. ref 2 (°C)	39.33length (m)	temperature (°C)	Stokes	anti-Stokes-747.200	228.144	0.168	-0.281
-746.185	201.701	-0.134	-0.212
-745.171	222.160	-0.117	0.193
-744.156	-63.727	0.344	0.145
-743.142	-172.102	0.383	0.013
-742.127	273.472	-0.171	0.310
-741.112	-200.000	0.037	-0.444
-740.098	-103.252	0.117	-0.028
-739.083	800.000	0.067	-0.246
-738.069	167.118	0.280	0.408
-737.054	295.884	0.193	-0.363
-736.039	-166.745	-0.358	-0.015
-735.025	-48.600	0.175	0.086
-734.010	-128.657	0.141	-0.020
-732.996	105.570	-0.130	0.157
-731.981	-99.770	-0.527	-0.135
-730.966	-200.000	-0.016	0.224
-729.952	-37.876	-0.173	-0.094
-728.937	-98.415	0.205	-0.054
-727.923	-200.000	0.036	-0.234
-726.908	0.058	-0.266	0.194
-725.894	6.863	-0.264	0.201
-724.879	756.271	0.209	-0.580
-723.864	-200.000	-0.006	-0.153
-722.850	19.698	-0.296	-0.244
-721.835	-200.000	-0.014	-0.180
-720.821	-107.089	-0.392	0.089
-719.806	-93.027	0.245	0.070
-718.791	82.994	-0.112	-0.124
-717.777	268.085	-0.168	-0.301
-716.762	-22.472	-0.464	-0.288
-715.748	-200.000	-0.051	-0.313
-714.733	45.983	0.099	-0.094
-713.718	-200.000	0.008	0.061
-712.704	183.585	0.088	-0.133
-711.689	-76.970	0.152	-0.054
-710.675	-200.000	-0.051	0.344
-709.660	-111.305	0.259	-0.054
-708.645	-54.152	0.213	-0.099
-707.631	174.739	-0.205	-0.304
-706.616	-95.047	0.270	0.075
-705.602	43.387	-0.161	-0.150
-704.587	-86.924	-0.208	0.065
-703.572	-200.000	-0.019	0.122
-702.558	-200.000	-0.044	0.253
-701.543	30.099	-0.126	0.110
-700.529	-74.824	0.042	-0.015
-699.514	88.414	-0.186	0.211
-698.499	-200.000	-0.024	0.193
-697.485	214.582	0.252	0.408
-696.470	62.165	-0.021	-0.021
-695.456	-88.449	0.223	-0.068
-694.441	153.619	-0.123	-0.173
-693.426	-200.000	0.032	-0.199
-692.412	16.038	0.044	-0.036
-691.397	75.422	0.171	-0.184
-690.383	-146.692	-0.243	-0.022
-689.368	-70.548	-0.200	-0.077
-688.354	-101.064	-0.216	-0.054
-687.339	274.742	0.105	0.191
-686.324	-51.437	0.356	-0.170
-685.310	-83.898	0.151	0.049
-684.295	-127.243	0.150	0.022
-683.281	800.000	0.072	0.284
-682.266	-200.000	-0.003	-0.201
-681.251	111.126	0.115	-0.142
-680.237	-128.762	0.174	0.025
-679.222	-129.175	0.166	-0.024
-678.208	-200.000	0.046	-0.274
-677.193	-118.043	-0.386	0.070
-676.178	-200.000	-0.051	-0.632
-675.164	-87.529	0.270	0.083
-674.149	355.578	0.079	-0.160
-673.135	11.469	0.456	-0.357
-672.120	-160.207	-0.084	-0.005
-671.105	800.000	-0.079	-0.328
-670.091	306.161	0.123	0.234
-669.076	11.549	-0.203	-0.159
-668.062	1.952	-0.176	0.129
-667.047	62.047	-0.139	-0.142
-666.032	52.167	-0.334	-0.325
-665.018	-57.025	0.335	0.151
-664.003	800.000	-0.062	-0.212
-662.989	-152.597	0.269	0.020
-661.974	-52.886	-0.153	-0.072
-660.959	-200.000	0.032	-0.343
-659.945	-40.931	-0.179	0.095
-658.930	63.616	0.092	0.095
-657.916	11.572	0.105	0.082
-656.901	76.970	0.136	0.148
-655.886	-128.110	-0.246	-0.036
-654.872	-200.000	0.001	-0.191
-653.857	-113.631	-0.326	0.065
-652.843	-200.000	-0.023	0.314
-651.828	-89.587	-0.047	0.014
-650.814	-24.235	0.388	-0.237
-649.799	113.771	-0.139	-0.172
-648.784	-200.000	0.017	0.109
-647.770	-200.000	0.045	-0.233
-646.755	800.000	0.074	-0.247
-645.741	241.832	0.106	-0.180
-644.726	556.012	-0.022	0.054
-643.711	-101.887	-0.057	-0.014
-642.697	101.272	0.184	0.219
-641.682	800.000	0.044	-0.144
-640.668	-43.069	-0.281	0.145
-639.653	297.210	0.172	-0.321
-638.638	136.573	0.241	-0.321
-637.624	3.530	0.380	-0.283
-636.609	-0.161	-0.226	-0.164
-635.595	35.381	0.136	0.122
-634.580	51.419	0.253	0.245
-633.565	1.164	0.028	0.021
-632.551	3.689	0.103	-0.077
-631.536	-135.637	0.126	-0.015
-630.522	6.463	-0.146	0.110
-629.507	114.567	0.068	-0.085
-628.492	-98.246	-0.275	0.072
-627.478	-200.000	-0.017	-0.141
-626.463	-200.000	-0.107	-0.515
-625.449	195.369	-0.145	-0.224
-624.434	-71.930	-0.435	-0.165
-623.419	160.139	-0.136	0.193
-622.405	170.311	0.168	0.245
-621.390	-91.788	-0.051	-0.015
-620.376	800.000	0.089	0.315
-619.361	103.291	-0.087	-0.104
-618.346	-147.395	0.209	0.018
-617.332	-22.366	-0.082	-0.051
-616.317	78.264	-0.285	0.311
-615.303	-130.971	0.286	-0.039
-614.288	800.000	0.053	-0.208
-613.273	800.000	-0.048	0.208
-612.259	-200.000	-0.022	-0.315
-611.244	-119.190	-0.037	-0.007
-610.230	-150.535	0.354	-0.028
-609.215	23.974	0.022	0.019
-608.201	114.879	-0.189	-0.235
-607.186	-194.471	0.065	0.001
-606.171	800.000	0.027	0.086
-605.157	-37.166	0.165	0.090
-604.142	-80.105	0.267	-0.091
-603.128	264.559	0.022	-0.039
-602.113	399.839	-0.055	-0.117
-601.098	800.000	0.004	0.015
-600.084	267.019	-0.198	0.352
-599.069	228.857	0.009	0.014
-598.055	21.476	-0.023	-0.019
-597.040	11.557	-0.160	-0.125
-596.025	-200.000	-0.003	-0.070
-595.011	380.749	0.109	0.227
-593.996	279.230	-0.155	0.281
-592.982	-75.319	0.289	-0.105
-591.967	370.828	0.081	-0.167
-590.952	800.000	-0.077	-0.264
-589.938	-200.000	-0.026	-0.203
-588.923	-149.105	0.152	0.012
-587.909	-200.000	-0.005	-0.139
-586.894	696.039	-0.058	-0.154
-585.879	354.710	-0.061	-0.124
-584.865	48.285	-0.121	0.115
-583.850	136.160	-0.064	0.085
-582.836	-23.733	-0.035	0.022
-581.821	-78.146	-0.109	0.038
-580.806	-200.000	0.006	0.039
-579.792	-69.698	0.299	0.116
-578.777	800.000	-0.078	0.283
-577.763	-48.588	-0.188	0.092
-576.748	-45.537	-0.056	-0.028
-575.733	334.012	0.043	0.085
-574.719	-4.345	0.079	-0.055
-573.704	-200.000	-0.034	-0.326
-572.690	520.722	0.123	0.293
-571.675	800.000	0.134	0.444
-570.661	-112.896	-0.166	-0.034
-569.646	25.667	-0.208	0.176
-568.631	114.115	0.276	0.342
-567.617	-33.565	-0.324	-0.182
-566.602	118.675	0.173	0.218
-565.588	800.000	-0.027	0.096
-564.573	128.734	0.202	-0.262
-563.558	-120.954	-0.031	-0.005
-562.544	415.430	-0.060	-0.130
-561.529	65.481	0.097	-0.100
-560.515	-0.663	-0.140	0.101
-559.500	-200.000	0.004	0.047
-558.485	-50.934	-0.218	-0.104
-557.471	156.366	-0.097	-0.136
-556.456	800.000	-0.049	0.169
-555.442	-138.814	0.194	-0.022
-554.427	-51.110	-0.326	-0.156
-553.412	-99.368	-0.132	0.034
-552.398	222.750	0.111	0.181
-551.383	-70.348	-0.345	0.133
-550.369	-200.000	-0.005	-0.099
-549.354	63.306	0.252	0.257
-548.339	104.928	-0.139	0.166
-547.325	-118.281	-0.277	0.050
-546.310	133.949	0.112	0.148
-545.296	-99.215	0.141	-0.036
-544.281	-200.000	0.009	0.125
-543.266	-200.000	0.007	0.074
-542.252	442.418	-0.081	0.181
-541.237	-36.243	-0.401	0.220
-540.223	137.106	0.061	-0.081
-539.208	280.902	-0.074	-0.134
-538.193	-10.491	-0.174	0.117
-537.179	-78.171	0.207	-0.073
-536.164	-146.969	0.216	-0.019
-535.150	-78.364	-0.082	-0.029
-534.135	-88.383	0.053	0.016
-533.121	-57.744	0.396	-0.176
-532.106	221.357	-0.145	-0.237
-531.091	282.617	0.045	-0.083
-530.077	-79.793	-0.406	-0.139
-529.062	21.955	0.289	-0.239
-528.048	325.306	0.070	0.136
-527.033	-79.730	-0.395	-0.135
-526.018	226.327	0.094	-0.155
-525.004	372.855	0.073	0.151
-523.989	-14.928	0.247	0.161
-522.975	-168.197	-0.062	-0.002
-521.960	-141.516	0.344	0.035
-520.945	-40.442	0.046	-0.024
-519.931	192.537	0.070	-0.108
-518.916	800.000	-0.019	0.072
-517.902	152.160	0.106	0.147
-516.887	191.612	0.172	-0.263
-515.872	-77.784	-0.120	0.042
-514.858	-108.510	-0.115	-0.025
-513.843	-83.728	0.364	-0.118
-512.829	130.066	-0.043	-0.056
-511.814	-32.058	0.193	-0.110
-510.799	748.982	-0.032	0.088
-509.785	-61.498	-0.222	0.095
-508.770	800.000	0.043	-0.140
-507.756	352.949	0.125	-0.252
-506.741	169.520	-0.268	-0.389
-505.726	-52.429	0.526	-0.247
-504.712	-200.000	-0.013	0.518
-503.697	717.715	0.092	-0.248
-502.683	432.071	-0.053	-0.116
-501.668	-127.731	-0.287	0.042
-500.653	-61.453	-0.035	-0.015
-499.639	-34.232	0.256	0.143
-498.624	-133.987	-0.196	-0.025
-497.610	-21.520	-0.134	-0.083
-496.595	129.166	0.153	-0.198
-495.581	800.000	0.097	-0.328
-494.566	45.607	-0.215	-0.201
-493.551	-200.000	0.143	-0.000
-492.537	-12.417	0.184	-0.122
-491.522	-102.585	-0.147	-0.036
-490.508	227.214	0.184	0.303
-489.493	-65.875	0.161	0.065
-488.478	-138.080	-0.349	0.039
-487.464	800.000	-0.027	-0.105
-486.449	250.802	0.080	-0.138
-485.435	117.567	-0.209	0.261
-484.420	-134.628	0.104	0.013
-483.405	-0.246	0.162	-0.117
-482.391	55.348	-0.049	-0.048
-481.376	5.275	0.119	0.089
-480.362	-121.164	-0.104	0.018
-479.347	61.097	0.240	-0.241
-478.332	-200.000	0.004	0.096
-477.318	-200.000	0.004	-0.167
-476.303	-200.000	0.054	-0.304
-475.289	404.706	0.093	-0.199
-474.274	-80.098	0.032	0.011
-473.259	-200.000	-0.005	-0.268
-472.245	216.575	-0.089	0.144
-471.230	104.697	0.093	0.112
-470.216	34.459	0.284	-0.251
-469.201	-200.000	-0.018	0.190
-468.186	11.461	-0.102	0.080
-467.172	344.359	-0.104	0.207
-466.157	800.000	0.157	0.479
-465.143	416.629	0.066	0.144
-464.128	70.495	0.177	-0.185
-463.113	10.317	-0.236	0.182
-462.099	-57.402	-0.236	0.105
-461.084	-200.000	-0.058	0.290
-460.070	-73.756	0.161	-0.059
-459.055	-200.000	-0.019	0.121
-458.040	-200.000	-0.094	0.524
-457.026	-89.824	0.108	-0.032
-456.011	119.611	0.078	-0.097
-454.997	800.000	-0.090	-0.290
-453.982	60.957	-0.134	0.135
-452.968	800.000	-0.015	0.044
-451.953	577.208	0.033	-0.082
-450.938	46.762	0.111	0.105
-449.924	28.044	0.055	-0.047
-448.909	272.169	-0.053	-0.094
-447.895	219.383	0.031	-0.051
-446.880	-98.046	-0.401	-0.105
-445.865	223.596	-0.133	0.218
-444.851	800.000	0.137	0.404
-443.836	-200.000	0.002	0.151
-442.822	72.018	-0.098	-0.103
-441.807	-49.540	-0.238	0.115
-440.792	-200.000	0.060	0.000
-439.778	0.461	-0.014	0.010
-438.763	29.245	0.230	-0.198
-437.749	-71.693	0.384	-0.145
-436.734	-105.025	-0.128	0.030
-435.719	320.922	-0.027	-0.051
-434.705	-105.392	-0.212	-0.049
-433.690	158.115	0.235	-0.330
-432.676	-18.686	0.181	-0.114
-431.661	-200.000	0.007	-0.083
-430.646	-98.666	-0.301	0.078
-429.632	-148.921	0.168	0.014
-428.617	-115.483	-0.068	-0.013
-427.603	-200.000	-0.003	0.110
-426.588	-200.000	0.020	-0.314
-425.573	-18.539	-0.164	-0.104
-424.559	81.168	0.051	0.056
-423.544	-166.848	-0.095	0.004
-422.530	-16.442	-0.202	0.130
-421.515	-200.000	-0.054	-0.379
-420.500	514.162	0.118	-0.279
-419.486	-200.000	-0.044	-0.358
-418.471	-85.622	-0.368	0.116
-417.457	-30.283	-0.129	-0.074
-416.442	5.168	0.190	0.142
-415.428	56.722	-0.071	-0.070
-414.413	101.113	-0.067	-0.079
-413.398	-200.000	0.073	0.326
-412.384	-84.439	0.303	-0.097
-411.369	-165.493	-0.179	-0.008
-410.355	-73.585	-0.369	0.136
-409.340	185.953	0.079	0.119
-408.325	-126.392	-0.154	-0.023
-407.311	-43.985	0.280	-0.142
-406.296	-200.000	0.009	0.108
-405.282	371.857	-0.123	0.253
-404.267	-82.582	-0.140	-0.046
-403.252	-200.000	-0.048	-0.326
-402.238	-200.000	-0.148	0.000
-401.223	453.417	-0.120	0.268
-400.209	800.000	0.031	-0.092
-399.194	-200.000	-0.007	0.237
-398.179	-99.661	0.227	0.058
-397.165	-200.000	0.043	0.238
-396.150	-200.000	0.001	-0.096
-395.136	-53.053	0.091	0.042
-394.121	24.511	-0.238	-0.200
-393.106	-98.233	0.283	0.074
-392.092	-200.000	-0.014	0.084
-391.077	-128.747	-0.225	0.032
-390.063	43.471	-0.258	0.238
-389.048	-77.749	0.093	-0.033
-388.033	-200.000	0.010	0.452
-387.019	-141.144	0.265	0.027
-386.004	-156.630	-0.335	0.021
-384.990	41.152	-0.164	0.150
-383.975	-117.504	0.131	-0.024
-382.960	-55.486	0.102	0.046
-381.946	718.248	0.028	-0.075
-380.931	-200.000	0.039	-0.407
-379.917	329.872	-0.138	0.268
-378.902	-200.000	0.044	0.224
-377.888	94.416	-0.092	-0.106
-376.873	-145.965	-0.241	0.022
-375.858	-95.444	-0.371	-0.101
-374.844	650.383	0.054	-0.139
-373.829	436.232	0.203	0.447
-372.815	-64.554	-0.072	-0.030
-371.800	-200.000	0.045	0.331
-370.785	-89.764	0.207	0.061
-369.771	800.000	0.079	-0.230
-368.756	98.538	0.168	-0.196
-367.742	55.176	-0.220	0.215
-366.727	128.154	-0.080	0.103
-365.712	-94.117	-0.146	-0.041
-364.698	35.087	0.137	-0.121
-363.683	159.440	0.284	-0.399
-362.669	-134.219	-0.229	-0.029
-361.654	-200.000	0.044	0.340
-360.639	-86.315	-0.121	-0.038
-359.625	-160.050	0.168	-0.009
-358.610	-144.648	0.227	-0.021
-357.596	-200.000	-0.049	-0.326
-356.581	-114.356	-0.346	0.067
-355.566	274.788	-0.142	-0.254
-354.552	800.000	0.062	0.227
-353.537	251.651	-0.095	-0.163
-352.523	-63.490	-0.381	-0.158
-351.508	40.904	-0.167	-0.152
-350.493	800.000	0.061	-0.230
-349.479	2.292	0.160	0.117
-348.464	-107.548	0.051	-0.011
-347.450	-9.134	-0.080	0.054
-346.435	1.732	0.238	-0.173
-345.420	257.788	0.081	-0.141
-344.406	31.110	0.125	-0.108
-343.391	-200.000	-0.002	0.193
-342.377	-56.121	0.107	-0.048
-341.362	168.463	-0.156	0.224
-340.348	-200.000	-0.049	-0.292
-339.333	800.000	0.063	-0.263
-338.318	127.482	0.148	-0.190
-337.304	-28.484	0.263	-0.153
-336.289	230.111	-0.165	0.273
-335.275	16.985	-0.165	-0.132
-334.260	800.000	-0.059	-0.237
-333.245	344.028	-0.037	0.073
-332.231	104.824	0.210	0.250
-331.216	-200.000	0.007	0.224
-330.202	-74.360	0.044	-0.016
-329.187	-107.953	0.228	0.050
-328.172	306.015	0.126	0.237
-327.158	720.020	-0.016	0.044
-326.143	436.176	-0.120	0.264
-325.129	-200.000	-0.023	0.110
-324.114	-158.092	0.061	-0.004
-323.099	180.243	0.228	-0.337
-322.085	-114.235	-0.331	0.064
-321.070	-7.301	-0.293	0.200
-320.056	91.613	0.196	-0.222
-319.041	-17.419	0.054	0.034
-318.026	-90.418	-0.169	-0.049
-317.012	-4.903	-0.082	0.057
-315.997	119.686	-0.214	0.267
-314.983	121.982	-0.099	0.125
-313.968	307.394	-0.044	0.083
-312.953	25.013	0.272	0.228
-311.939	800.000	0.060	-0.178
-310.924	191.185	-0.098	-0.149
-309.910	148.847	-0.101	0.138
-308.895	317.288	0.024	0.046
-307.880	-45.730	-0.337	0.168
-306.866	-106.449	0.137	0.031
-305.851	-52.821	-0.223	0.104
-304.837	63.335	0.030	0.030
-303.822	-120.907	0.146	0.025
-302.807	-115.977	-0.164	-0.031
-301.793	519.411	-0.102	-0.240
-300.778	166.131	-0.099	-0.141
-299.764	-49.422	-0.349	0.168
-298.749	-200.000	0.019	-0.139
-297.735	-96.987	0.130	-0.034
-296.720	-78.571	-0.201	-0.069
-295.705	-107.976	0.169	-0.037
-294.691	495.123	0.023	-0.054
-293.676	-48.170	0.385	0.187
-292.662	-143.302	0.405	-0.039
-291.647	-195.508	0.273	0.002
-290.632	-200.000	0.074	0.464
-289.618	-106.686	0.267	0.060
-288.603	-104.655	-0.172	0.040
-287.589	-200.000	0.031	0.152
-286.574	-78.517	0.247	-0.085
-285.559	-39.078	0.209	0.111
-284.545	-141.412	-0.245	-0.025
-283.530	61.459	-0.138	0.139
-282.516	-200.000	-0.030	0.178
-281.501	163.087	0.295	-0.417
-280.486	10.895	-0.112	-0.086
-279.472	-200.000	0.022	0.164
-278.457	-44.956	-0.205	0.103
-277.443	-200.000	-0.018	0.248
-276.428	-74.383	-0.101	0.037
-275.413	-86.801	0.130	0.040
-274.399	-51.825	-0.055	0.026
-273.384	-116.331	-0.304	-0.057
-272.370	-43.294	0.135	0.069
-271.355	-7.735	-0.093	0.064
-270.340	-34.781	-0.288	-0.159
-269.326	-29.479	-0.170	0.098
-268.311	204.419	0.124	-0.194
-267.297	-88.845	0.156	-0.046
-266.282	-97.262	-0.333	-0.087
-265.267	0.645	-0.179	0.129
-264.253	-200.000	0.059	-0.392
-263.238	800.000	0.050	-0.157
-262.224	96.624	0.202	-0.232
-261.209	-51.677	-0.201	0.094
-260.195	268.181	-0.116	0.205
-259.180	-46.634	0.114	-0.056
-258.165	198.279	0.245	0.377
-257.151	48.923	0.215	0.203
-256.136	-122.550	0.239	0.039
-255.122	201.716	-0.162	-0.252
-254.107	-69.795	-0.041	-0.016
-253.092	-58.325	-0.306	0.134
-252.078	-200.000	-0.009	0.133
-251.063	-21.513	-0.141	0.086
-250.049	-8.552	-0.063	-0.043
-249.034	-87.560	0.242	0.073
-248.019	4.613	-0.078	-0.057
-247.005	800.000	0.012	0.034
-245.990	123.118	-0.049	-0.061
-244.976	-200.000	-0.054	0.245
-243.961	18.186	-0.201	-0.161
-242.946	63.627	0.077	-0.078
-241.932	800.000	-0.046	0.140
-240.917	-200.000	-0.072	-0.334
-239.903	-52.861	0.239	0.111
-238.888	-171.835	-0.186	-0.006
-237.873	-200.000	-0.003	0.182
-236.859	-0.633	0.395	0.282
-235.844	-200.000	-0.009	0.339
-234.830	800.000	-0.089	0.386
-233.815	800.000	-0.103	-0.305
-232.800	-67.454	0.347	-0.137
-231.786	43.336	-0.237	-0.217
-230.771	-200.000	0.048	-0.289
-229.757	448.585	-0.182	0.403
-228.742	401.497	0.159	0.335
-227.727	49.983	-0.039	0.037
-226.713	-29.976	0.150	0.086
-225.698	1.967	0.067	0.048
-224.684	17.227	0.196	0.156
-223.669	-128.552	0.328	-0.047
-222.655	-78.012	-0.161	-0.056
-221.640	-175.068	-0.225	-0.006
-220.625	-11.197	0.127	-0.084
-219.611	106.549	0.157	-0.186
-218.596	-200.000	-0.013	-0.126
-217.582	442.607	-0.078	-0.172
-216.567	80.027	0.046	-0.050
-215.552	-137.865	-0.165	-0.019
-214.538	-52.842	-0.095	-0.044
-213.523	65.639	-0.174	-0.177
-212.509	481.760	0.068	0.154
-211.494	-105.010	0.156	0.036
-210.479	800.000	0.085	-0.255
-209.465	323.167	0.111	0.213
-208.450	106.526	-0.120	0.143
-207.436	262.573	0.175	-0.305
-206.421	-44.913	-0.165	-0.082
-205.406	-70.973	-0.105	0.040
-204.392	-168.252	0.250	-0.010
-203.377	20.201	-0.269	0.218
-202.363	-91.601	0.297	0.085
-201.348	-41.455	0.039	0.020
-200.333	-6.607	0.337	-0.230
-199.319	-200.000	-0.038	0.205
-198.304	357.204	-0.228	0.457
-197.290	-59.174	0.222	-0.096
-196.275	256.940	-0.045	0.078
-195.260	-124.165	0.242	-0.038
-194.246	101.026	0.189	0.220
-193.231	103.252	-0.177	0.208
-192.217	93.535	-0.219	0.249
-191.202	-3.780	0.267	0.186
-190.187	-136.300	-0.289	-0.034
-189.173	18.745	-0.041	-0.033
-188.158	144.411	-0.034	0.046
-187.144	-87.339	0.305	0.093
-186.129	-118.193	-0.087	0.016
-185.114	-69.798	-0.202	-0.077
-184.100	3.896	0.107	-0.078
-183.085	-200.000	-0.003	-0.047
-182.071	-113.816	0.167	0.033
-181.056	-78.025	-0.270	0.093
-180.042	-22.272	-0.325	0.198
-179.027	-177.062	0.150	-0.004
-178.012	800.000	-0.018	-0.066
-176.998	331.734	0.110	-0.212
-175.983	383.698	0.130	-0.269
-174.969	800.000	0.099	-0.312
-173.954	248.308	-0.189	-0.321
-172.939	-150.332	0.124	-0.010
-171.925	800.000	-0.069	0.196
-170.910	800.000	-0.092	0.359
-169.896	-59.206	-0.205	-0.089
-168.881	-200.000	0.049	0.248
-167.866	-200.000	0.076	-0.373
-166.852	74.134	-0.113	-0.119
-165.837	-200.000	0.087	-0.645
-164.823	800.000	-0.039	0.113
-163.808	-66.826	0.177	0.070
-162.793	124.958	0.035	0.044
-161.779	385.217	-0.069	0.142
-160.764	19.499	0.042	0.034
-159.750	-200.000	-0.068	-0.316
-158.735	143.364	-0.143	-0.191
-157.720	4.712	0.064	-0.047
-156.706	20.779	-0.272	0.221
-155.691	-200.000	-0.003	-0.050
-154.677	33.755	0.134	0.116
-153.662	-24.778	0.263	-0.157
-152.647	84.769	0.139	-0.152
-151.633	199.249	0.115	0.176
-150.618	6.613	0.179	0.133
-149.604	-57.469	-0.208	0.091
-148.589	555.866	-0.060	0.145
-147.574	800.000	0.067	-0.244
-146.560	-161.805	-0.133	0.007
-145.545	243.466	0.087	0.146
-144.531	103.254	-0.146	-0.172
-143.516	-200.000	-0.019	-0.540
-142.502	-200.000	0.037	0.301
-141.487	-200.000	0.022	0.437
-140.472	-173.858	0.347	-0.010
-139.458	-82.420	-0.487	-0.158
-138.443	800.000	-0.128	-0.393
-137.429	44.639	-0.127	-0.117
-136.414	800.000	-0.052	0.153
-135.399	800.000	-0.174	-0.482
-134.385	-4.386	0.203	0.140
-133.370	534.834	0.098	-0.233
-132.356	-56.938	0.182	-0.080
-131.341	232.022	-0.081	-0.133
-130.326	-110.253	0.250	0.052
-129.312	-117.217	0.300	-0.055
-128.297	-25.046	0.321	-0.191
-127.283	-200.000	0.054	-0.256
-126.268	228.161	-0.091	-0.148
-125.253	-200.000	-0.001	0.170
-124.239	61.235	-0.102	-0.101
-123.224	-145.039	0.025	-0.002
-122.210	251.521	0.109	0.185
-121.195	-200.000	0.017	-0.082
-120.180	331.239	0.101	-0.195
-119.166	-19.975	-0.209	0.129
-118.151	130.724	-0.033	0.042
-117.137	-200.000	-0.055	0.320
-116.122	800.000	0.120	-0.359
-115.107	41.091	-0.127	0.115
-114.093	-48.490	-0.197	-0.095
-113.078	-200.000	-0.002	0.074
-112.064	115.284	-0.082	-0.100
-111.049	-200.000	0.011	-0.140
-110.034	-112.435	-0.098	-0.020
-109.020	-60.980	0.195	-0.082
-108.005	-200.000	0.035	0.206
-106.991	800.000	0.051	0.191
-105.976	-200.000	0.006	-0.037
-104.962	-51.676	0.193	0.090
-103.947	-91.950	-0.097	-0.027
-102.932	155.202	0.047	0.064
-101.918	26.838	0.172	0.144
-100.903	38.814	-0.040	0.036
-99.889	136.315	-0.188	-0.245
-98.874	348.250	0.156	-0.308
-97.859	-200.000	0.002	0.365
-96.845	-200.000	-0.004	0.379
-95.830	189.363	-0.023	-0.034
-94.816	32.653	0.278	-0.240
-93.801	-28.805	-0.085	-0.049
-92.786	325.841	-0.132	0.253
-91.772	338.568	0.151	0.294
-90.757	800.000	0.045	0.162
-89.743	56.063	-0.201	0.195
-88.728	161.068	0.142	0.199
-87.713	45.833	-0.178	-0.164
-86.699	58.980	-0.109	0.108
-85.684	-200.000	-0.009	0.305
-84.670	-45.573	0.149	-0.074
-83.655	616.250	-0.072	-0.180
-82.640	49.083	-0.125	0.117
-81.626	-76.806	-0.118	-0.041
-80.611	-79.718	0.006	0.002
-79.597	162.142	-0.063	0.088
-78.582	-103.185	0.204	-0.048
-77.567	-100.472	0.428	0.106
-76.553	136.075	-0.130	-0.169
-75.538	157.619	0.188	0.260
-74.524	21.541	-0.121	0.098
-73.509	-200.000	-0.045	0.240
-72.494	317.255	-0.081	-0.154
-71.480	800.000	0.064	-0.242
-70.465	-96.587	0.318	-0.084
-69.451	-75.063	0.150	-0.054
-68.436	224.186	0.037	-0.060
-67.422	57.781	0.146	-0.143
-66.407	138.945	-0.183	0.241
-65.392	-200.000	0.054	0.243
-64.378	149.392	-0.089	0.121
-63.363	15.119	0.292	-0.228
-62.349	-44.535	0.398	-0.198
-61.334	189.807	-0.582	-0.871
-60.319	-200.000	-0.002	0.094
-59.305	-200.000	-0.126	-1.007
-58.290	597.942	0.285	0.705
-57.276	800.000	0.450	1.747
-56.261	-200.000	74.128	523.417
-55.246	568.102	1297.731	3145.836
-54.232	145.847	2529.840	3384.259
-53.217	113.868	2346.972	2846.833
-52.203	52.341	1961.793	1867.375
-51.188	46.166	1748.373	1615.814
-50.173	43.146	1700.978	1548.798
-49.159	56.962	1733.902	1685.851
-48.144	63.158	1752.229	1751.442
-47.130	46.024	1716.203	1584.740
-46.115	42.628	1702.548	1546.001
-45.100	42.482	1698.158	1540.831
-44.086	42.387	1695.612	1537.732
-43.071	42.448	1692.754	1535.546
-42.057	42.335	1690.444	1532.525
-41.042	42.551	1688.031	1531.927
-40.027	42.427	1686.629	1529.645
-39.013	42.410	1684.392	1527.430
-37.998	42.506	1682.546	1526.422
-36.984	42.478	1681.174	1524.906
-35.969	42.640	1679.574	1524.620
-34.954	42.648	1678.004	1523.202
-33.940	42.667	1675.998	1521.463
-32.925	42.707	1673.729	1519.640
-31.911	42.672	1672.586	1518.284
-30.896	42.632	1670.846	1516.342
-29.881	42.600	1668.941	1514.306
-28.867	42.587	1667.376	1512.728
-27.852	42.539	1666.193	1511.233
-26.838	42.608	1664.664	1510.306
-25.823	42.603	1662.993	1508.697
-24.809	42.663	1661.481	1507.710
-23.794	42.796	1659.910	1507.226
-22.779	42.692	1658.531	1505.134
-21.765	42.520	1657.621	1502.960
-20.750	42.652	1655.059	1501.566
-19.736	42.629	1653.951	1500.329
-18.721	42.703	1652.386	1499.399
-17.706	42.676	1651.082	1497.955
-16.692	42.631	1649.170	1495.826
-15.677	42.685	1647.445	1494.610
-14.663	42.681	1646.053	1493.253
-13.648	42.637	1645.127	1492.028
-12.633	42.646	1643.817	1490.845
-11.619	42.555	1642.085	1488.543
-10.604	42.673	1639.650	1487.152
-9.590	42.677	1638.347	1485.940
-8.575	42.661	1637.713	1485.190
-7.560	42.687	1636.481	1484.205
-6.546	42.742	1634.945	1483.159
-5.531	42.620	1634.601	1481.883
-4.517	42.688	1632.959	1480.837
-3.502	42.638	1631.419	1479.012
-2.487	42.612	1630.480	1477.918
-1.473	42.731	1620.314	1469.510
-0.458	40.870	1600.655	1438.172
0.556	36.105	1599.621	1403.125
1.571	33.250	1623.156	1402.511
2.586	32.290	1637.519	1407.618
3.600	28.157	1582.619	1330.323
4.615	15.277	1460.692	1140.673
5.629	3.396	1383.805	1003.550
6.644	1.091	1373.252	980.903
7.659	0.886	1371.383	978.160
8.673	0.854	1370.046	976.910
9.688	0.809	1368.854	975.687
10.702	0.698	1365.555	972.530
11.717	4.601	1373.978	1003.681
12.731	15.809	1395.910	1092.768
13.746	23.623	1408.630	1153.629
14.761	24.423	1409.100	1159.113
15.775	24.637	1408.458	1159.868
16.790	24.718	1408.362	1160.211
17.804	24.661	1407.510	1159.042
18.819	24.994	1406.907	1160.601
19.834	24.974	1406.099	1159.703
20.848	24.960	1405.495	1159.009
21.863	24.994	1404.293	1158.133
22.877	24.910	1404.078	1157.312
23.892	24.992	1402.861	1156.737
24.907	24.928	1402.295	1155.753
25.921	25.126	1401.030	1155.887
26.936	24.961	1400.132	1153.981
27.950	24.990	1398.945	1153.089
28.965	24.924	1398.046	1151.818
29.980	25.004	1396.601	1151.038
30.994	24.949	1394.926	1149.206
32.009	24.907	1394.125	1148.173
33.023	24.990	1392.847	1147.554
34.038	24.992	1391.616	1146.451
35.053	24.978	1390.693	1145.499
36.067	24.939	1389.721	1144.347
37.082	24.888	1389.159	1143.455
38.096	24.948	1387.984	1142.771
39.111	24.925	1387.270	1141.934
40.126	24.933	1386.375	1141.145
41.140	25.025	1385.207	1140.673
42.155	24.936	1385.671	1140.387
43.169	24.938	1385.516	1140.169
44.184	24.951	1385.188	1139.885
45.199	24.936	1384.426	1139.059
46.213	24.880	1384.310	1138.503
47.228	24.990	1383.017	1138.039
48.242	24.997	1381.796	1136.983
49.257	24.944	1380.676	1135.623
50.271	24.971	1379.455	1134.687
51.286	24.981	1377.756	1133.253
52.301	24.975	1376.593	1132.160
53.315	24.937	1375.665	1131.054
54.330	24.950	1375.182	1130.639
55.344	24.904	1373.934	1129.221
56.359	24.933	1372.584	1128.197
57.374	25.011	1371.966	1128.078
58.388	24.956	1371.730	1127.438
59.403	24.907	1371.265	1126.648
60.417	24.855	1370.582	1125.665
61.432	24.934	1369.506	1125.177
62.447	24.904	1369.059	1124.518
63.461	24.924	1367.233	1123.044
64.476	25.021	1366.240	1122.738
65.490	24.983	1364.923	1121.317
66.505	25.111	1363.301	1120.688
67.520	24.970	1362.163	1118.773
68.534	24.962	1361.642	1118.196
69.549	24.980	1360.736	1117.465
70.563	25.043	1359.855	1117.035
71.578	24.999	1358.631	1115.655
72.593	24.952	1358.072	1114.808
73.607	24.941	1357.113	1113.855
74.622	24.940	1356.538	1113.278
75.636	24.960	1355.607	1112.535
76.651	24.982	1355.107	1112.168
77.666	25.005	1354.437	1111.658
78.680	24.918	1353.895	1110.576
79.695	24.903	1353.370	1109.955
80.709	25.004	1352.142	1109.474
81.724	24.938	1351.581	1108.506
82.739	24.947	1350.775	1107.807
83.753	24.988	1349.602	1107.001
84.768	24.953	1348.564	1105.831
85.782	24.910	1347.453	1104.557
86.797	24.963	1346.183	1103.744
87.812	24.928	1345.586	1102.943
88.826	24.943	1344.321	1101.902
89.841	24.944	1342.973	1100.704
90.855	24.925	1342.111	1099.784
91.870	25.092	1341.207	1099.974
92.884	25.094	1339.879	1098.800
93.899	25.034	1339.593	1098.100
94.914	24.992	1338.678	1096.995
95.928	25.009	1338.250	1096.651
96.943	25.043	1337.204	1095.907
97.957	25.041	1336.530	1095.241
98.972	25.110	1335.475	1094.704
99.987	25.014	1334.907	1093.555
101.001	25.045	1333.933	1092.847
102.016	24.938	1333.118	1091.429
103.030	25.018	1332.002	1090.911
104.045	25.018	1331.034	1090.020
105.060	24.962	1329.882	1088.636
106.074	25.050	1329.472	1088.742
107.089	24.984	1328.311	1087.297
108.103	25.079	1327.048	1086.740
109.118	25.019	1326.085	1085.491
110.133	25.123	1324.518	1084.743
111.147	24.988	1323.902	1083.325
112.162	25.073	1322.591	1082.670
113.176	25.143	1321.227	1081.882
114.191	24.951	1320.893	1080.351
115.206	24.990	1319.848	1079.636
116.220	25.116	1318.392	1079.108
117.235	25.136	1317.262	1078.210
118.249	25.041	1316.593	1076.995
119.264	25.028	1315.757	1076.136
120.279	25.049	1315.023	1075.571
121.293	25.076	1314.171	1074.937
122.308	25.160	1313.411	1074.727
123.322	25.164	1312.522	1073.924
124.337	25.020	1312.121	1072.642
125.352	25.116	1310.875	1072.101
126.366	25.266	1309.530	1071.803
127.381	25.100	1309.032	1070.310
128.395	25.146	1308.225	1069.828
129.410	25.103	1307.704	1069.051
130.424	25.214	1306.816	1068.896
131.439	25.062	1305.863	1067.112
132.454	24.988	1305.445	1066.239
133.468	25.079	1304.554	1065.959
134.483	25.165	1304.253	1066.129
135.497	25.172	1303.299	1065.293
136.512	25.220	1301.692	1064.174
137.527	25.219	1300.432	1063.039
138.541	25.224	1298.997	1061.802
139.556	25.218	1298.053	1060.902
140.570	25.159	1297.399	1059.930
141.585	25.226	1296.215	1059.260
142.600	25.158	1295.054	1057.818
143.614	25.245	1294.093	1057.452
144.629	25.157	1293.518	1056.367
145.643	25.136	1292.230	1055.100
146.658	25.057	1290.969	1053.511
147.673	25.084	1290.104	1052.871
148.687	25.059	1289.175	1051.875
149.702	25.102	1287.902	1050.993
150.716	25.077	1286.852	1049.899
151.731	25.141	1285.896	1049.403
152.746	25.034	1284.952	1047.910
153.760	25.088	1283.917	1047.289
154.775	25.044	1282.905	1046.114
155.789	25.152	1281.630	1045.611
156.804	25.135	1280.636	1044.612
157.819	25.062	1280.046	1043.610
158.833	25.075	1279.356	1043.031
159.848	25.133	1278.829	1042.845
160.862	25.128	1277.800	1041.886
161.877	25.241	1276.574	1041.450
162.892	25.223	1275.904	1040.707
163.906	25.170	1275.598	1040.058
164.921	25.125	1274.781	1039.042
165.935	25.287	1273.728	1039.031
166.950	25.182	1273.557	1038.190
167.964	25.265	1272.806	1037.966
168.979	25.152	1272.145	1036.680
169.994	25.217	1271.543	1036.474
171.008	25.266	1270.666	1035.953
172.023	25.275	1270.109	1035.459
173.037	25.308	1269.439	1035.007
174.052	25.277	1268.778	1034.199
175.067	25.247	1268.018	1033.313
176.081	25.227	1267.376	1032.585
177.096	25.249	1266.430	1031.849
178.110	25.285	1265.505	1031.212
179.125	25.270	1264.041	1029.841
180.140	25.405	1262.986	1029.667
181.154	25.393	1261.625	1028.396
182.169	25.239	1261.337	1027.189
183.183	25.303	1260.473	1026.761
184.198	25.306	1258.815	1025.338
185.213	25.304	1258.334	1024.841
186.227	25.280	1257.370	1023.832
187.242	25.387	1256.375	1023.538
188.256	25.340	1255.521	1022.488
189.271	25.245	1254.783	1021.255
190.286	25.307	1253.918	1020.811
191.300	25.360	1253.433	1020.625
192.315	25.245	1252.935	1019.475
193.329	25.173	1252.784	1018.856
194.344	25.219	1252.217	1018.569
195.359	25.375	1251.601	1018.860
196.373	25.262	1251.170	1017.778
197.388	25.216	1250.907	1017.210
198.402	25.221	1250.062	1016.463
199.417	25.405	1249.326	1016.819
200.432	25.402	1248.924	1016.385
201.446	25.323	1248.457	1015.468
202.461	25.288	1247.776	1014.625
203.475	25.332	1247.084	1014.219
204.490	25.308	1246.074	1013.172
205.504	25.295	1245.383	1012.447
206.519	25.437	1244.127	1012.138
207.534	25.533	1243.013	1011.683
208.548	25.429	1242.021	1010.203
209.563	25.271	1241.498	1008.797
210.577	25.309	1240.555	1008.157
211.592	25.356	1239.971	1007.856
212.607	25.497	1238.650	1007.483
213.621	25.514	1238.156	1007.090
214.636	25.364	1237.689	1005.778
215.650	25.410	1236.681	1005.129
216.665	25.404	1235.884	1004.358
217.680	25.388	1234.675	1003.198
218.694	25.408	1233.924	1002.608
219.709	25.405	1233.208	1001.926
220.723	25.504	1232.752	1002.016
221.738	25.502	1232.140	1001.420
222.753	25.455	1231.080	1000.209
223.767	25.430	1230.424	999.445
224.782	25.510	1229.729	999.237
225.796	25.512	1229.393	998.890
226.811	25.537	1228.547	998.251
227.826	25.523	1228.090	997.711
228.840	25.508	1227.953	997.432
229.855	25.569	1226.779	996.726
230.869	25.559	1226.024	995.972
231.884	25.527	1225.439	995.231
232.899	25.532	1224.599	994.488
233.913	25.536	1224.182	994.080
234.928	25.693	1223.373	994.205
235.942	25.614	1222.486	992.959
236.957	25.574	1222.271	992.475
237.972	25.651	1221.387	992.094
238.986	25.675	1220.603	991.501
240.001	25.708	1220.036	991.138
241.015	25.719	1219.477	990.653
242.030	25.662	1218.871	989.761
243.045	25.690	1217.875	989.019
244.059	25.748	1216.999	988.539
245.074	25.679	1216.272	987.484
246.088	25.722	1215.765	987.218
247.103	25.686	1215.166	986.449
248.117	25.690	1213.897	985.354
249.132	25.747	1213.373	985.150
250.147	25.813	1212.609	984.805
251.161	25.858	1211.557	984.110
252.176	25.821	1211.257	983.578
253.190	25.840	1210.472	982.959
254.205	25.830	1209.967	982.405
255.220	25.776	1209.515	981.657
256.234	25.860	1208.926	981.550
257.249	25.814	1207.955	980.421
258.263	25.782	1207.907	980.124
259.278	25.820	1207.220	979.686
260.293	25.836	1206.307	978.947
261.307	25.729	1206.285	978.260
262.322	25.862	1205.651	978.380
263.336	25.938	1204.451	977.735
264.351	25.918	1204.129	977.275
265.366	25.906	1203.536	976.646
266.380	25.838	1202.862	975.645
267.395	25.920	1202.415	975.639
268.409	25.728	1201.800	974.012
269.424	25.795	1201.244	973.837
270.439	25.974	1200.392	974.031
271.453	25.863	1200.026	973.045
272.468	25.939	1198.801	972.378
273.482	25.765	1198.609	971.195
274.497	25.905	1197.652	971.091
275.512	25.835	1197.631	970.610
276.526	25.929	1196.938	970.469
277.541	26.026	1195.688	969.891
278.555	26.009	1194.975	969.136
279.570	25.920	1195.009	968.601
280.585	25.936	1193.816	967.630
281.599	26.050	1192.530	967.115
282.614	26.034	1192.084	966.582
283.628	25.953	1191.187	965.335
284.643	26.054	1190.059	964.874
285.657	26.050	1189.158	964.040
286.672	25.995	1188.467	963.099
287.687	26.004	1187.837	962.550
288.701	26.000	1187.262	961.980
289.716	26.141	1186.132	961.731
290.730	26.048	1185.862	960.932
291.745	26.026	1185.528	960.459
292.760	26.073	1184.848	960.073
293.774	26.197	1183.828	959.817
294.789	26.167	1183.513	959.319
295.803	26.178	1182.750	958.673
296.818	26.086	1182.292	957.732
297.833	26.117	1181.640	957.280
298.847	26.235	1180.777	957.125
299.862	26.257	1179.829	956.384
300.876	26.166	1179.440	955.506
301.891	26.198	1178.828	955.096
302.906	26.330	1178.228	955.223
303.920	26.315	1177.630	954.571
304.935	26.214	1176.882	953.350
305.949	26.244	1176.009	952.714
306.964	26.257	1175.773	952.508
307.979	26.243	1174.923	951.659
308.993	26.256	1174.311	951.148
310.008	26.309	1173.412	950.615
311.022	26.269	1173.144	950.103
312.037	26.324	1172.009	949.389
313.052	26.271	1171.100	948.292
314.066	26.275	1170.316	947.596
315.081	26.285	1169.371	946.797
316.095	26.339	1169.021	946.714
317.110	26.435	1168.366	946.601
318.125	26.414	1168.119	946.209
319.139	26.400	1167.415	945.481
320.154	26.383	1166.631	944.671
321.168	26.409	1166.084	944.281
322.183	26.330	1165.353	943.196
323.197	26.393	1164.732	942.937
324.212	26.388	1164.413	942.567
325.227	26.435	1164.014	942.408
326.241	26.471	1162.979	941.672
327.256	26.391	1162.781	941.012
328.270	26.461	1161.359	940.144
329.285	26.431	1160.563	939.259
330.300	26.557	1159.970	939.351
331.314	26.451	1159.065	937.986
332.329	26.388	1158.644	937.233
333.343	26.561	1158.032	937.552
334.358	26.558	1156.973	936.598
335.373	26.534	1156.163	935.737
336.387	26.639	1155.287	935.487
337.402	26.602	1154.655	934.698
338.416	26.539	1154.331	934.032
339.431	26.620	1153.595	933.767
340.446	26.547	1153.195	932.985
341.460	26.547	1152.630	932.445
342.475	26.586	1151.947	932.013
343.489	26.579	1150.600	930.804
344.504	26.646	1149.660	930.308
345.519	26.588	1148.728	929.170
346.533	26.634	1148.025	928.754
347.548	26.656	1147.561	928.411
348.562	26.656	1146.825	927.734
349.577	26.680	1146.390	927.423
350.592	26.657	1145.486	926.490
351.606	26.667	1144.344	925.536
352.621	26.690	1144.182	925.442
353.635	26.638	1143.635	924.650
354.650	26.639	1143.225	924.243
355.665	26.677	1142.519	923.785
356.679	26.754	1141.827	923.536
357.694	26.619	1141.335	922.371
358.708	26.749	1140.383	922.182
359.723	26.759	1139.492	921.426
360.738	26.737	1139.115	920.928
361.752	26.845	1138.254	920.702
362.767	26.853	1137.597	920.128
363.781	26.723	1137.458	919.276
364.796	26.938	1136.828	919.777
365.810	26.973	1136.133	919.310
366.825	26.880	1135.629	918.351
367.840	26.928	1135.237	918.195
368.854	26.995	1134.647	917.975
369.869	26.952	1133.960	917.118
370.883	27.000	1132.815	916.354
371.898	26.997	1132.020	915.615
372.913	27.018	1131.782	915.444
373.927	27.074	1131.009	915.024
374.942	26.954	1130.575	913.988
375.956	27.065	1129.919	913.934
376.971	27.001	1129.781	913.417
377.986	27.089	1129.064	913.203
379.000	27.043	1128.396	912.350
380.015	27.063	1128.098	912.127
381.029	27.210	1126.777	911.717
382.044	27.115	1126.645	911.052
383.059	27.113	1126.091	910.515
384.073	27.160	1125.372	910.087
385.088	27.270	1124.223	909.626
386.102	27.084	1123.487	908.025
387.117	27.085	1122.395	907.066
388.132	26.987	1121.999	906.175
389.146	26.994	1121.531	905.752
390.161	27.141	1121.003	905.979
391.175	27.124	1119.937	904.952
392.190	27.179	1118.689	904.135
393.205	27.206	1118.503	904.042
394.219	27.059	1118.132	902.930
395.234	27.231	1116.813	902.642
396.248	27.310	1115.977	902.275
397.263	27.308	1115.196	901.552
398.278	27.287	1114.943	901.167
399.292	27.288	1114.423	900.669
400.307	27.411	1113.579	900.516
401.321	27.291	1113.054	899.418
402.336	27.239	1112.276	898.456
403.350	27.310	1111.671	898.236
404.365	27.400	1110.924	897.997
405.380	27.302	1110.197	896.848
406.394	27.330	1109.645	896.461
407.409	27.507	1108.700	896.487
408.423	27.404	1108.161	895.466
409.438	27.417	1107.342	894.792
410.453	27.384	1106.951	894.234
411.467	27.410	1105.879	893.415
412.482	27.507	1105.322	893.360
413.496	27.520	1104.442	892.634
414.511	27.496	1104.180	892.225
415.526	27.483	1103.724	891.718
416.540	27.507	1103.514	891.584
417.555	27.540	1102.820	891.107
418.569	27.453	1102.283	890.167
419.584	27.459	1102.247	890.092
420.599	27.511	1101.350	889.538
421.613	81.410	1287.359	1336.172
422.628	76.249	1314.492	1336.301
