DTS Sentinel unit serial number:	SN413079Multiplexer serial number:	ORYXHardware model number:	OX4-SRSoftware version number:	ORYX F/W v4.00 Oryx Data Collector v3.7.2.0data status	okinstallation	princeton_trtdifferential loss correction	single-endedforward channel	channel 2reverse channel	N/Adate	2019/09/18time	00:39:35forward acquisition time	60.00reverse acquisition time	0.00gamma	496.2192k internal	0.2349k external	0.2349temperature offset calibration	0.9984default loss term (dB/km)	0.3790temperature slope calibration	1.0000multiplexer offset coefficient	1.0000multiplexer slope coefficient	1.0000fibre end	0.00T internal ref (°C)	23.44T ext. ref 1 (°C)	0.16T ext. ref 2 (°C)	17.14length (m)	temperature (°C)	Stokes	anti-Stokes-747.200	371.842	0.156	0.317
-746.185	-145.840	-0.182	-0.016
-745.171	800.000	0.036	-0.157
-744.156	323.377	-0.122	0.232
-743.142	229.248	-0.027	0.043
-742.127	-52.745	-0.076	-0.035
-741.112	-44.755	-0.186	0.093
-740.098	-68.724	-0.441	0.170
-739.083	759.418	-0.110	0.298
-738.069	15.029	0.239	0.187
-737.054	800.000	-0.018	0.051
-736.039	73.380	-0.214	0.223
-735.025	408.570	0.187	-0.395
-734.010	-200.000	0.015	-0.074
-732.996	800.000	-0.080	-0.335
-731.981	337.394	-0.082	-0.160
-730.966	109.581	-0.110	-0.132
-729.952	-58.515	-0.116	-0.050
-728.937	-17.638	-0.105	0.066
-727.923	203.940	0.084	-0.129
-726.908	-200.000	0.006	0.181
-725.894	-167.377	-0.399	0.016
-724.879	-200.000	-0.004	-0.027
-723.864	800.000	-0.061	-0.192
-722.850	-106.370	-0.211	-0.047
-721.835	-200.000	0.021	0.294
-720.821	-200.000	0.011	-0.422
-719.806	-200.000	0.007	-0.133
-718.791	-200.000	-0.129	-0.638
-717.777	4.655	-0.260	0.190
-716.762	-200.000	0.030	0.198
-715.748	533.920	0.116	-0.274
-714.733	469.968	-0.087	-0.196
-713.718	31.349	0.124	0.106
-712.704	-2.315	-0.134	-0.094
-711.689	-200.000	-0.064	-0.443
-710.675	-73.482	0.157	0.057
-709.660	-145.863	-0.243	-0.022
-708.645	-38.098	0.213	0.113
-707.631	-200.000	0.027	0.128
-706.616	53.978	-0.108	0.104
-705.602	-52.001	0.181	0.084
-704.587	800.000	0.103	0.379
-703.572	-121.217	0.352	0.059
-702.558	-121.254	-0.114	0.019
-701.543	-102.022	-0.073	0.018
-700.529	-200.000	-0.037	-0.178
-699.514	800.000	0.072	-0.282
-698.499	45.671	0.140	0.129
-697.485	133.214	0.237	-0.305
-696.470	231.658	-0.110	-0.180
-695.456	-200.000	0.002	-0.132
-694.441	800.000	0.049	0.169
-693.426	225.798	-0.074	-0.120
-692.412	-39.490	0.193	-0.101
-691.397	-40.084	-0.169	0.088
-690.383	349.502	-0.119	-0.235
-689.368	-7.144	0.078	-0.052
-688.354	8.392	0.136	-0.102
-687.339	-135.437	0.306	-0.036
-686.324	-33.729	-0.439	-0.241
-685.310	-39.267	-0.316	-0.166
-684.295	20.791	-0.219	-0.177
-683.281	800.000	0.054	-0.154
-682.266	-29.395	-0.166	-0.095
-681.251	-26.801	-0.320	-0.186
-680.237	272.644	-0.066	-0.116
-679.222	-200.000	-0.014	-0.187
-678.208	-149.979	-0.225	0.017
-677.193	-154.660	0.213	-0.014
-676.178	10.528	0.076	0.058
-675.164	-116.714	-0.412	-0.075
-674.149	-51.892	-0.183	0.085
-673.135	800.000	-0.081	-0.227
-672.120	-21.451	-0.093	0.056
-671.105	-1.102	0.139	0.098
-670.091	170.561	0.105	-0.150
-669.076	-200.000	-0.002	0.252
-668.062	-50.516	-0.241	-0.113
-667.047	-13.852	0.092	0.059
-666.032	-45.141	-0.110	-0.054
-665.018	-36.958	0.339	-0.181
-664.003	73.486	-0.120	-0.125
-662.989	-129.025	-0.589	-0.082
-661.974	-200.000	0.013	0.070
-660.959	115.924	0.139	0.169
-659.945	89.421	-0.106	-0.117
-658.930	-141.770	-0.164	-0.016
-657.916	-45.940	0.217	-0.107
-656.901	83.402	0.056	0.060
-655.886	-200.000	-0.026	0.132
-654.872	-200.000	0.003	0.055
-653.857	-123.346	-0.235	-0.037
-652.843	-200.000	-0.051	-0.263
-651.828	-111.484	0.295	0.060
-650.814	-150.056	0.140	0.011
-649.799	-54.087	0.180	-0.082
-648.784	746.992	0.047	-0.125
-647.770	-106.545	0.248	0.055
-646.755	-92.737	0.109	-0.030
-645.741	83.930	-0.209	-0.227
-644.726	800.000	0.093	0.300
-643.711	696.457	0.012	-0.031
-642.697	800.000	-0.037	-0.143
-641.682	345.071	0.131	-0.256
-640.668	584.638	0.085	0.208
-639.653	50.889	-0.077	-0.072
-638.638	-90.015	-0.040	0.012
-637.624	-106.908	-0.081	-0.018
-636.609	-35.879	-0.026	0.014
-635.595	-119.157	-0.246	-0.043
-634.580	-32.232	0.168	0.093
-633.565	217.516	-0.168	-0.266
-632.551	-200.000	0.031	-0.372
-631.536	-150.204	0.260	0.020
-630.522	-25.236	0.141	0.083
-629.507	237.346	0.042	-0.069
-628.492	32.899	-0.236	0.203
-627.478	-200.000	0.019	0.211
-626.463	-141.324	0.120	0.012
-625.449	-56.173	0.075	-0.033
-624.434	-30.631	-0.143	0.081
-623.419	130.638	-0.041	0.052
-622.405	-164.365	-0.134	0.006
-621.390	365.242	0.036	-0.072
-620.376	-200.000	-0.011	0.269
-619.361	-81.229	0.455	-0.149
-618.346	110.486	0.164	0.196
-617.332	800.000	-0.025	0.107
-616.317	-200.000	-0.031	-0.223
-615.303	263.068	-0.208	-0.359
-614.288	-200.000	0.022	0.108
-613.273	7.140	-0.152	-0.113
-612.259	136.524	-0.216	-0.280
-611.244	655.480	0.049	0.126
-610.230	-76.981	-0.207	-0.072
-609.215	-39.956	0.177	-0.092
-608.201	-21.727	-0.167	0.101
-607.186	106.817	0.235	0.276
-606.171	-200.000	0.061	0.359
-605.157	-98.033	-0.088	-0.023
-604.142	-27.344	-0.259	0.150
-603.128	-96.453	-0.099	-0.026
-602.113	85.835	-0.112	0.122
-601.098	-200.000	0.063	-0.319
-600.084	-151.393	0.020	-0.001
-599.069	786.512	-0.103	-0.279
-598.055	236.546	-0.237	-0.390
-597.040	-83.841	0.287	0.091
-596.025	159.583	-0.051	0.070
-595.011	-155.463	-0.167	-0.011
-593.996	-95.291	-0.224	-0.060
-592.982	131.422	-0.047	0.060
-591.967	5.318	-0.078	-0.057
-590.952	-1.413	-0.239	-0.167
-589.938	-113.636	-0.337	-0.065
-588.923	135.902	0.113	0.146
-587.909	-86.878	0.056	0.017
-586.894	4.121	-0.169	-0.123
-585.879	-166.439	-0.546	0.023
-584.865	-42.517	-0.175	0.089
-583.850	-147.571	0.131	0.011
-582.836	446.682	-0.045	0.097
-581.821	0.916	0.094	0.067
-580.806	-168.644	-0.186	-0.007
-579.792	444.122	0.041	-0.089
-578.777	-40.952	0.232	-0.119
-577.763	-131.271	0.271	-0.036
-576.748	32.624	-0.199	0.170
-575.733	-200.000	-0.002	0.114
-574.719	17.917	0.192	-0.152
-573.704	-28.652	0.047	-0.027
-572.690	-111.297	-0.261	0.053
-571.675	-124.441	-0.260	0.040
-570.661	-137.507	0.079	-0.009
-569.646	-21.132	0.221	-0.134
-568.631	-13.031	-0.197	-0.127
-567.617	435.520	-0.117	0.252
-566.602	37.538	-0.171	-0.151
-565.588	800.000	0.074	-0.215
-564.573	483.048	0.086	0.193
-563.558	-122.113	0.388	-0.063
-562.544	800.000	-0.057	0.241
-561.529	369.651	0.125	0.251
-560.515	800.000	-0.085	0.285
-559.500	-200.000	-0.032	0.174
-558.485	204.856	-0.111	-0.171
-557.471	-200.000	0.016	-0.076
-556.456	-200.000	-0.007	-0.060
-555.442	-5.968	0.276	0.187
-554.427	155.176	-0.215	0.293
-553.412	-20.863	-0.176	0.107
-552.398	65.065	0.205	0.206
-551.383	-200.000	0.028	-0.195
-550.369	-200.000	0.040	-0.282
-549.354	-131.508	0.383	-0.050
-548.339	240.398	0.094	0.154
-547.325	800.000	0.046	0.191
-546.310	-38.325	-0.064	0.034
-545.296	-107.896	0.413	-0.089
-544.281	-41.918	-0.312	-0.158
-543.266	575.226	-0.066	0.160
-542.252	-59.832	0.214	0.091
-541.237	-52.121	-0.091	-0.042
-540.223	-108.407	-0.118	0.025
-539.208	30.193	0.171	0.145
-538.193	-157.187	0.329	-0.020
-537.179	198.480	-0.119	0.180
-536.164	-200.000	0.008	0.183
-535.150	-46.340	-0.182	-0.089
-534.135	800.000	-0.077	0.238
-533.121	800.000	-0.035	0.149
-532.106	203.557	-0.086	-0.132
-531.091	-99.887	-0.148	0.037
-530.077	-52.429	0.109	-0.050
-529.062	800.000	-0.038	-0.106
-528.048	-94.746	0.198	-0.053
-527.033	-200.000	0.053	-0.443
-526.018	-7.803	0.298	0.199
-525.004	800.000	-0.098	-0.276
-523.989	800.000	-0.015	-0.050
-522.975	-200.000	-0.004	0.153
-521.960	472.462	0.034	0.075
-520.945	-78.905	-0.152	-0.051
-519.931	-200.000	0.000	0.056
-518.916	-84.170	-0.081	0.026
-517.902	-200.000	-0.025	0.148
-516.887	800.000	-0.093	-0.273
-515.872	-172.470	-0.219	-0.007
-514.858	68.693	-0.012	0.012
-513.843	-134.748	-0.323	-0.039
-512.829	-1.990	-0.296	-0.206
-511.814	186.621	0.113	0.166
-510.799	8.398	-0.021	0.015
-509.785	-200.000	-0.027	-0.275
-508.770	-147.874	-0.153	0.013
-507.756	67.339	0.218	0.220
-506.741	-189.538	0.323	0.004
-505.726	184.698	-0.096	-0.141
-504.712	78.451	0.137	0.145
-503.697	-200.000	-0.005	-0.136
-502.683	69.713	0.043	0.044
-501.668	212.911	0.032	0.050
-500.653	4.421	0.312	0.226
-499.639	548.688	0.089	0.210
-498.624	-23.459	0.418	0.248
-497.610	800.000	0.036	-0.112
-496.595	-76.333	-0.122	-0.042
-495.581	104.395	-0.216	-0.252
-494.566	-1.928	-0.124	-0.086
-493.551	-131.643	0.513	0.067
-492.537	13.188	-0.069	-0.053
-491.522	25.371	0.363	-0.298
-490.508	-119.292	0.153	-0.026
-489.493	800.000	0.040	-0.162
-488.478	-200.000	-0.029	-0.370
-487.464	433.678	0.136	0.291
-486.449	174.435	-0.074	-0.106
-485.435	-141.846	-0.133	0.013
-484.420	234.835	0.097	-0.158
-483.405	-200.000	0.001	0.070
-482.391	126.721	0.175	-0.220
-481.376	43.394	-0.154	0.139
-480.362	-200.000	0.026	0.403
-479.347	-160.398	-0.296	0.016
-478.332	-35.909	0.140	0.075
-477.318	283.154	-0.107	0.190
-476.303	800.000	-0.077	0.259
-475.289	800.000	-0.039	-0.124
-474.274	-71.331	-0.149	-0.055
-473.259	-60.301	0.231	-0.097
-472.245	168.632	-0.145	-0.204
-471.230	7.399	-0.023	-0.017
-470.216	-200.000	-0.037	0.477
-469.201	627.671	-0.073	0.182
-468.186	537.302	0.083	-0.194
-467.172	125.727	0.156	-0.194
-466.157	14.348	-0.225	-0.173
-465.143	-73.292	-0.228	0.082
-464.128	-200.000	-0.018	0.260
-463.113	-200.000	-0.058	-0.414
-462.099	135.176	0.267	0.343
-461.084	-60.727	0.070	-0.029
-460.070	-32.819	0.212	-0.117
-459.055	-200.000	-0.008	-0.293
-458.040	171.325	0.102	0.144
-457.026	178.003	0.153	0.221
-456.011	-197.959	-0.124	0.001
-454.997	-119.781	-0.220	0.038
-453.982	-200.000	0.056	0.362
-452.968	59.349	-0.340	-0.330
-451.953	-187.489	0.440	-0.006
-450.938	403.340	0.065	0.135
-449.924	-32.905	0.348	0.191
-448.909	-161.120	-0.109	0.006
-447.895	-8.814	-0.243	-0.161
-446.880	94.452	-0.077	0.086
-445.865	-48.024	-0.077	0.037
-444.851	800.000	0.043	0.168
-443.836	800.000	-0.063	-0.219
-442.822	-28.675	-0.028	-0.016
-441.807	-113.487	-0.397	-0.077
-440.792	68.537	-0.090	-0.091
-439.778	-167.851	0.298	-0.012
-438.763	-88.544	-0.147	-0.043
-437.749	151.249	0.123	0.165
-436.734	-200.000	0.032	0.192
-435.719	-37.496	0.111	0.059
-434.705	-150.977	0.118	-0.009
-433.690	-26.995	0.236	-0.136
-432.676	582.929	-0.104	0.252
-431.661	-27.484	0.013	-0.007
-430.646	109.741	0.195	-0.231
-429.632	-14.259	-0.198	-0.126
-428.617	-200.000	0.016	-0.414
-427.603	-138.145	0.138	-0.015
-426.588	-89.281	0.390	-0.113
-425.573	-74.145	0.280	-0.100
-424.559	269.981	0.150	0.259
-423.544	-106.982	0.089	0.019
-422.530	800.000	-0.140	0.595
-421.515	3.339	0.429	-0.308
-420.500	78.695	0.096	-0.102
-419.486	800.000	-0.072	0.287
-418.471	-88.546	0.469	0.138
-417.457	800.000	0.060	-0.211
-416.442	95.551	0.086	0.096
-415.428	72.642	-0.179	0.184
-414.413	-192.012	-0.160	-0.002
-413.398	-200.000	-0.018	0.086
-412.384	800.000	-0.026	-0.078
-411.369	-59.926	0.351	-0.148
-410.355	-200.000	0.005	0.115
-409.340	-95.937	-0.115	0.030
-408.325	-68.479	-0.053	-0.020
-407.311	-200.000	-0.008	-0.072
-406.296	-200.000	-0.015	0.138
-405.282	800.000	-0.097	0.277
-404.267	-200.000	-0.019	-0.370
-403.252	800.000	0.039	-0.165
-402.238	242.544	0.100	-0.165
-401.223	800.000	-0.079	-0.217
-400.209	-136.692	-0.102	-0.012
-399.194	-53.162	-0.280	-0.127
-398.179	-63.741	-0.391	-0.158
-397.165	-68.126	-0.328	-0.126
-396.150	338.262	-0.033	0.063
-395.136	455.537	-0.116	0.252
-394.121	-141.259	0.207	0.021
-393.106	198.968	-0.303	-0.457
-392.092	-200.000	0.018	0.260
-391.077	125.376	0.354	0.440
-390.063	-39.825	0.116	0.059
-389.048	-57.958	0.209	-0.090
-388.033	260.376	-0.168	0.286
-387.019	128.857	-0.200	0.251
-386.004	-140.980	0.095	0.010
-384.990	-164.578	0.306	-0.014
-383.975	800.000	-0.059	0.251
-382.960	1.807	-0.157	-0.112
-381.946	-92.354	0.144	0.040
-380.931	392.267	-0.066	-0.136
-379.917	162.815	-0.076	-0.105
-378.902	-0.109	-0.187	0.131
-377.888	262.603	0.042	0.072
-376.873	-62.503	-0.160	0.065
-375.858	68.584	0.059	0.060
-374.844	86.829	0.140	0.152
-373.829	-28.044	0.104	0.059
-372.815	66.746	-0.039	-0.039
-371.800	-76.823	0.370	0.127
-370.785	28.711	0.330	0.275
-369.771	90.551	-0.270	-0.298
-368.756	-200.000	-0.029	-0.126
-367.742	-151.417	0.315	-0.023
-366.727	-200.000	0.048	-0.321
-365.712	-89.012	-0.199	-0.058
-364.698	-74.302	-0.594	-0.211
-363.683	-65.251	0.131	-0.052
-362.669	-200.000	0.036	0.343
-361.654	-200.000	-0.007	0.175
-360.639	800.000	-0.041	-0.124
-359.625	232.339	0.096	0.155
-358.610	387.066	0.093	0.188
-357.596	-39.713	-0.220	-0.113
-356.581	785.891	0.077	-0.208
-355.566	-200.000	0.024	-0.165
-354.552	453.101	0.129	-0.280
-353.537	109.519	-0.123	0.145
-352.523	-51.970	0.139	-0.063
-351.508	134.812	0.177	0.226
-350.493	-200.000	-0.018	-0.154
-349.479	12.306	-0.149	0.113
-348.464	800.000	0.072	0.226
-347.450	-40.688	0.175	-0.089
-346.435	-200.000	0.035	0.303
-345.420	-200.000	0.030	0.147
-344.406	-70.873	0.355	0.131
-343.391	21.951	0.106	-0.085
-342.377	84.922	-0.112	-0.121
-341.362	72.876	-0.393	-0.404
-340.348	286.383	-0.096	-0.171
-339.333	343.240	-0.110	0.212
-338.318	116.769	-0.040	-0.048
-337.304	-138.465	-0.110	-0.012
-336.289	13.709	0.208	0.159
-335.275	-200.000	-0.024	0.207
-334.260	36.289	0.145	0.125
-333.245	-200.000	0.005	-0.081
-332.231	176.808	0.215	-0.308
-331.216	143.459	0.126	0.164
-330.202	-82.702	-0.177	0.056
-329.187	545.342	0.220	-0.515
-328.172	167.673	0.040	0.056
-327.158	800.000	0.011	0.037
-326.143	800.000	-0.057	0.190
-325.129	68.770	0.192	0.194
-324.114	-200.000	0.029	-0.244
-323.099	60.850	0.179	0.175
-322.085	-36.029	0.208	0.110
-321.070	-200.000	-0.029	0.192
-320.056	-92.528	0.235	0.065
-319.041	-200.000	-0.014	-0.219
-318.026	-61.699	-0.228	-0.094
-317.012	501.392	-0.117	0.265
-315.997	-34.292	-0.354	-0.191
-314.983	165.662	0.089	0.123
-313.968	-105.094	0.223	0.050
-312.953	82.229	0.116	0.124
-311.939	-200.000	-0.017	-0.170
-310.924	-89.397	0.329	0.095
-309.910	-92.353	0.372	0.103
-308.895	-200.000	0.045	0.322
-307.880	-0.546	-0.151	0.105
-306.866	370.236	0.062	-0.124
-305.851	172.559	0.061	-0.086
-304.837	293.551	0.194	-0.347
-303.822	-200.000	0.019	-0.126
-302.807	-54.954	-0.167	0.074
-301.793	25.643	0.219	0.179
-300.778	-200.000	-0.087	-0.375
-299.764	68.470	-0.227	0.228
-298.749	61.206	0.248	0.242
-297.735	-70.271	-0.291	-0.108
-296.720	235.824	-0.118	-0.192
-295.705	-200.000	0.042	0.302
-294.691	-200.000	-0.032	0.231
-293.676	-200.000	0.055	0.257
-292.662	-99.914	0.143	0.035
-291.647	-72.673	-0.164	0.059
-290.632	163.861	0.039	-0.055
-289.618	93.772	-0.088	0.098
-288.603	800.000	0.050	-0.179
-287.589	-22.494	-0.151	-0.090
-286.574	-27.238	-0.083	-0.047
-285.559	-173.681	-0.284	-0.008
-284.545	-115.498	-0.163	-0.030
-283.530	-23.594	-0.134	-0.079
-282.516	42.658	0.112	-0.100
-281.501	6.430	-0.268	0.195
-280.486	-200.000	-0.027	-0.206
-279.472	-145.745	-0.158	-0.014
-278.457	-126.300	0.244	-0.036
-277.443	-38.708	0.083	0.043
-276.428	167.139	-0.121	-0.168
-275.413	-129.749	-0.264	0.036
-274.399	-68.710	-0.193	-0.073
-273.384	-200.000	-0.061	-0.286
-272.370	-200.000	-0.004	-0.246
-271.355	114.984	0.293	0.350
-270.340	-200.000	0.014	0.134
-269.326	414.497	-0.165	-0.344
-268.311	98.257	0.157	-0.177
-267.297	26.503	0.205	-0.168
-266.282	236.668	-0.085	0.138
-265.267	-87.739	0.225	-0.067
-264.253	-200.000	0.008	0.171
-263.238	224.244	0.105	-0.167
-262.224	106.638	-0.129	0.149
-261.209	-200.000	-0.045	0.197
-260.195	10.703	0.099	-0.074
-259.180	123.773	-0.215	-0.264
-258.165	-36.489	-0.183	-0.096
-257.151	-200.000	-0.044	-0.250
-256.136	-200.000	-0.012	-0.069
-255.122	-99.918	-0.400	0.098
-254.107	345.262	0.150	-0.288
-253.092	33.536	-0.110	-0.094
-252.078	468.310	-0.120	0.263
-251.063	-37.971	-0.254	-0.132
-250.049	52.050	0.101	-0.095
-249.034	-23.980	0.122	-0.071
-248.019	800.000	-0.023	-0.082
-247.005	-88.050	-0.178	-0.052
-245.990	-176.889	-0.217	-0.005
-244.976	-200.000	0.007	0.090
-243.961	-144.428	-0.178	0.016
-242.946	380.638	0.078	-0.156
-241.932	772.071	-0.110	-0.294
-240.917	-30.075	0.120	0.067
-239.903	-82.681	0.280	0.089
-238.888	195.572	-0.189	0.281
-237.873	2.570	0.019	0.013
-236.859	-111.558	0.395	-0.079
-235.844	-171.589	0.354	-0.011
-234.830	-47.963	0.222	-0.105
-233.815	-56.891	-0.212	-0.092
-232.800	-200.000	-0.006	-0.046
-231.786	800.000	-0.040	0.148
-230.771	710.789	-0.122	0.316
-229.757	-73.143	0.338	0.121
-228.742	-89.309	0.093	0.027
-227.727	-64.873	-0.363	-0.144
-226.713	-79.588	0.098	-0.032
-225.698	-200.000	0.002	-0.117
-224.684	288.383	0.076	0.134
-223.669	424.884	-0.110	0.232
-222.655	-94.065	0.050	-0.014
-221.640	313.399	-0.127	0.234
-220.625	-134.846	-0.066	-0.008
-219.611	172.758	-0.087	0.123
-218.596	81.042	0.193	0.203
-217.582	-200.000	0.012	0.275
-216.567	74.386	-0.183	-0.188
-215.552	800.000	0.086	0.244
-214.538	-193.236	0.208	-0.002
-213.523	527.709	-0.191	-0.440
-212.509	-200.000	-0.018	-0.080
-211.494	380.436	-0.112	-0.224
-210.479	410.058	0.148	0.307
-209.465	78.777	-0.379	0.397
-208.450	149.900	-0.125	0.166
-207.436	350.074	-0.023	0.044
-206.421	-74.583	-0.334	0.118
-205.406	-200.000	-0.010	-0.162
-204.392	-94.234	-0.644	-0.172
-203.377	-6.194	0.169	0.113
-202.363	677.146	-0.090	-0.228
-201.348	125.689	-0.255	-0.314
-200.333	800.000	0.084	0.357
-199.319	38.715	0.091	0.079
-198.304	800.000	0.049	-0.168
-197.290	146.438	0.118	0.154
-196.275	800.000	0.080	-0.239
-195.260	800.000	-0.012	0.035
-194.246	29.475	-0.160	0.133
-193.231	7.173	0.266	0.194
-192.217	-71.217	-0.408	-0.149
-191.202	-80.628	-0.250	0.081
-190.187	13.250	0.196	-0.149
-189.173	-168.099	-0.167	0.006
-188.158	491.836	0.030	-0.066
-187.144	-119.052	-0.264	-0.045
-186.129	234.028	0.042	0.068
-185.114	548.483	-0.048	-0.112
-184.100	-142.125	0.350	0.034
-183.085	-76.161	0.092	0.032
-182.071	134.639	0.181	-0.229
-181.056	-200.000	0.011	-0.376
-180.042	-185.118	-0.165	0.003
-179.027	-200.000	-0.030	-0.417
-178.012	104.965	0.053	0.061
-176.998	-142.961	0.037	0.004
-175.983	800.000	0.099	0.318
-174.969	16.401	0.230	-0.177
-173.954	8.062	-0.217	-0.159
-172.939	-163.809	0.035	0.002
-171.925	800.000	0.048	-0.134
-170.910	73.681	0.089	0.091
-169.896	26.032	0.232	-0.189
-168.881	-200.000	-0.042	-0.202
-167.866	-29.510	0.269	-0.150
-166.852	522.524	-0.020	0.045
-165.837	255.085	0.110	-0.184
-164.823	800.000	-0.020	0.081
-163.808	-71.576	0.242	-0.088
-162.793	-85.621	-0.268	-0.081
-161.779	-93.600	0.298	-0.080
-160.764	-5.524	0.047	-0.032
-159.750	-49.087	-0.289	0.135
-158.735	800.000	0.111	0.335
-157.720	130.522	-0.093	-0.117
-156.706	-200.000	0.075	0.334
-155.691	105.582	-0.111	-0.128
-154.677	247.769	-0.133	0.220
-153.662	2.555	-0.273	0.193
-152.647	-94.827	-0.153	-0.041
-151.633	68.797	-0.128	-0.128
-150.618	154.656	-0.090	-0.121
-149.604	-200.000	0.006	0.202
-148.589	-5.976	0.119	0.079
-147.574	-200.000	0.074	0.350
-146.560	-94.378	-0.173	-0.046
-145.545	-200.000	0.005	0.133
-144.531	69.792	-0.285	0.287
-143.516	-200.000	0.059	0.333
-142.502	-145.455	-0.220	0.019
-141.487	4.923	0.176	0.126
-140.472	800.000	0.013	-0.039
-139.458	370.437	-0.178	-0.352
-138.443	-60.662	0.141	-0.058
-137.429	-64.195	-0.271	0.108
-136.414	28.323	-0.208	0.171
-135.399	53.260	0.156	0.146
-134.385	-200.000	-0.082	0.428
-133.370	64.297	-0.128	0.126
-132.356	800.000	0.014	0.057
-131.341	-157.960	0.313	-0.018
-130.326	-60.900	-0.015	-0.006
-129.312	74.215	-0.190	0.194
-128.297	-200.000	0.020	-0.150
-127.283	249.972	-0.020	-0.034
-126.268	359.520	-0.081	-0.159
-125.253	-77.047	0.279	-0.095
-124.239	770.003	-0.064	-0.171
-123.224	-200.000	-0.067	-0.337
-122.210	15.379	0.058	0.044
-121.195	-137.188	0.167	0.019
-120.180	8.005	0.269	0.196
-119.166	19.538	-0.166	0.130
-118.151	800.000	0.054	0.171
-117.137	-200.000	0.015	-0.109
-116.122	440.722	-0.147	0.312
-115.107	-200.000	0.039	0.281
-114.093	74.961	0.260	0.266
-113.078	450.876	-0.074	0.160
-112.064	-118.245	0.303	-0.053
-111.049	800.000	0.064	0.259
-110.034	-161.682	-0.220	0.011
-109.020	699.495	-0.039	-0.100
-108.005	-35.369	-0.167	-0.089
-106.991	118.513	-0.215	-0.259
-105.976	43.273	0.070	0.062
-104.962	29.132	-0.082	0.068
-103.947	800.000	0.093	0.257
-102.932	-103.150	0.087	-0.020
-101.918	-90.929	0.223	-0.062
-100.903	15.066	-0.159	-0.121
-99.889	79.068	0.121	0.126
-98.874	-200.000	-0.027	0.269
-97.859	28.064	-0.107	0.088
-96.845	302.484	0.137	0.246
-95.830	167.004	0.185	0.256
-94.816	652.223	-0.019	-0.046
-93.801	-83.080	-0.219	-0.069
-92.786	-44.781	0.100	0.049
-91.772	40.734	-0.101	0.089
-90.757	-54.650	-0.144	0.063
-89.743	288.805	-0.021	0.037
-88.728	233.828	-0.012	-0.019
-87.713	-200.000	0.178	-0.000
-86.699	-40.867	0.156	0.079
-85.684	331.778	0.097	0.182
-84.670	-76.640	-0.293	0.100
-83.655	-49.349	0.130	0.060
-82.640	-79.296	0.183	0.060
-81.626	-93.752	0.179	-0.048
-80.611	-200.000	-0.030	0.416
-79.597	-49.456	0.153	0.071
-78.582	-87.889	0.269	-0.079
-77.567	-70.157	0.234	-0.087
-76.553	-99.377	-0.262	0.064
-75.538	5.247	-0.077	0.055
-74.524	-6.678	0.459	0.304
-73.509	800.000	0.104	0.342
-72.494	118.234	0.079	-0.094
-71.480	-97.199	0.178	-0.045
-70.465	-62.628	-0.143	-0.058
-69.451	800.000	0.171	0.488
-68.436	106.271	-0.114	-0.131
-67.422	58.154	0.094	-0.089
-66.407	265.388	0.212	0.360
-65.392	124.175	0.177	-0.217
-64.378	239.545	0.059	0.096
-63.363	-102.892	-0.264	-0.061
-62.349	-200.000	0.016	0.330
-61.334	182.552	-0.795	-1.139
-60.319	18.384	1.063	0.826
-59.305	471.387	-0.559	-1.222
-58.290	207.725	0.891	1.352
-57.276	738.054	0.561	1.462
-56.261	-200.000	124.153	665.032
-55.246	437.962	1557.021	3300.170
-54.232	145.374	2716.372	3534.681
-53.217	91.126	2284.472	2491.431
-52.203	32.545	1897.193	1593.633
-51.188	26.393	1694.469	1376.619
-50.173	24.297	1655.810	1329.543
-49.159	45.957	1724.951	1551.066
-48.144	43.506	1736.692	1542.879
-47.130	25.982	1688.731	1368.622
-46.115	23.498	1672.921	1337.054
-45.100	23.474	1667.418	1332.423
-44.086	23.384	1665.025	1329.777
-43.071	23.304	1663.206	1327.671
-42.057	23.316	1660.707	1325.718
-41.042	23.292	1658.677	1323.863
-40.027	23.410	1656.354	1322.837
-39.013	23.274	1655.054	1320.735
-37.998	23.328	1653.803	1320.088
-36.984	23.317	1652.727	1319.088
-35.969	23.455	1650.648	1318.406
-34.954	23.517	1648.788	1317.325
-33.940	23.421	1647.477	1315.515
-32.925	23.437	1645.664	1314.133
-31.911	23.410	1644.202	1312.717
-30.896	23.369	1642.776	1311.218
-29.881	23.408	1641.323	1310.295
-28.867	23.397	1640.083	1309.177
-27.852	23.410	1638.217	1307.729
-26.838	23.386	1637.274	1306.745
-25.823	23.418	1635.486	1305.504
-24.809	23.454	1634.069	1304.585
-23.794	23.500	1632.679	1303.767
-22.779	23.462	1631.336	1302.358
-21.765	23.571	1629.410	1301.572
-20.750	23.465	1628.455	1299.977
-19.736	23.508	1626.874	1298.980
-18.721	23.509	1625.399	1297.755
-17.706	23.379	1624.016	1295.650
-16.692	23.342	1622.474	1294.098
-15.677	23.508	1620.523	1293.705
-14.663	23.570	1619.249	1293.084
-13.648	23.480	1618.719	1291.954
-12.633	23.487	1616.887	1290.496
-11.619	23.538	1615.113	1289.397
-10.604	23.487	1614.263	1288.301
-9.590	23.446	1612.592	1286.618
-8.575	23.491	1611.314	1285.873
-7.560	23.430	1610.395	1284.642
-6.546	23.447	1609.122	1283.704
-5.531	23.481	1608.089	1283.072
-4.517	23.466	1607.028	1282.064
-3.502	23.533	1605.358	1281.167
-2.487	23.538	1603.693	1279.821
-1.473	23.184	1591.626	1267.606
-0.458	20.191	1572.247	1230.912
0.556	15.100	1573.793	1199.545
1.571	12.795	1597.531	1200.752
2.586	12.450	1609.935	1207.437
3.600	11.497	1555.425	1159.684
4.615	6.267	1449.087	1045.625
5.629	1.182	1390.888	971.044
6.644	0.194	1383.945	959.816
7.659	0.161	1382.911	958.803
8.673	0.133	1381.997	957.908
9.688	0.141	1379.387	956.065
10.702	-0.111	1376.592	952.444
11.717	2.588	1379.169	971.265
12.731	9.302	1390.193	1021.732
13.746	15.181	1398.525	1065.245
14.761	16.752	1400.281	1076.483
15.775	16.151	1398.101	1070.895
16.790	15.252	1395.420	1063.046
17.804	14.466	1393.232	1056.307
18.819	14.128	1391.731	1052.938
19.834	13.790	1390.989	1050.144
20.848	13.550	1389.673	1047.537
21.863	13.385	1388.462	1045.495
22.877	13.207	1387.392	1043.470
23.892	13.064	1386.439	1041.758
24.907	13.093	1385.677	1041.275
25.921	13.168	1384.686	1040.912
26.936	13.288	1383.292	1040.529
27.950	13.161	1382.782	1039.256
28.965	13.247	1382.046	1039.147
29.980	13.360	1380.662	1038.728
30.994	13.316	1379.971	1037.840
32.009	13.429	1378.949	1037.688
33.023	13.432	1377.470	1036.499
34.038	13.359	1376.331	1035.093
35.053	13.355	1375.137	1034.078
36.067	13.250	1374.384	1032.764
37.082	13.311	1373.325	1032.261
38.096	13.404	1371.899	1031.680
39.111	13.346	1371.486	1030.913
40.126	13.305	1370.327	1029.697
41.140	13.250	1369.692	1028.787
42.155	13.190	1369.333	1028.054
43.169	13.076	1369.349	1027.264
44.184	13.135	1369.050	1027.317
45.199	13.142	1368.901	1027.154
46.213	13.174	1368.095	1026.660
47.228	13.230	1366.987	1026.082
48.242	13.246	1365.526	1024.998
49.257	13.270	1364.170	1024.039
50.271	13.247	1362.941	1022.880
51.286	13.260	1361.251	1021.601
52.301	13.323	1360.455	1021.303
53.315	13.267	1359.121	1019.867
54.330	13.235	1358.016	1018.748
55.344	13.277	1356.773	1017.987
56.359	13.229	1355.757	1016.839
57.374	13.196	1354.499	1015.603
58.388	13.117	1354.276	1014.860
59.403	13.007	1354.056	1013.926
60.417	13.175	1352.718	1013.871
61.432	13.235	1351.733	1013.405
62.447	13.082	1350.922	1011.773
63.461	13.047	1349.291	1010.244
64.476	13.111	1348.469	1009.933
65.490	13.184	1347.139	1009.294
66.505	13.120	1345.343	1007.472
67.520	12.987	1344.765	1006.134
68.534	13.139	1343.415	1005.960
69.549	13.143	1342.333	1005.091
70.563	13.102	1341.622	1004.220
71.578	13.055	1339.744	1002.436
72.593	13.063	1338.765	1001.665
73.607	12.978	1338.390	1000.778
74.622	13.115	1337.494	1000.853
75.636	13.028	1336.777	999.700
76.651	13.056	1336.053	999.242
77.666	13.109	1335.397	998.979
78.680	13.106	1334.988	998.569
79.695	13.164	1334.146	998.199
80.709	13.099	1333.206	997.015
81.724	13.094	1332.107	996.078
82.739	13.091	1331.636	995.620
83.753	13.224	1330.138	995.209
84.768	13.294	1329.022	994.707
85.782	13.254	1328.186	993.753
86.797	13.305	1326.706	992.863
87.812	13.263	1325.857	991.893
88.826	13.269	1324.480	990.807
89.841	13.304	1323.432	990.148
90.855	13.330	1322.205	989.296
91.870	13.314	1321.350	988.477
92.884	13.249	1321.231	987.911
93.899	13.436	1320.137	988.118
94.914	13.439	1318.889	987.118
95.928	13.380	1318.133	986.113
96.943	13.342	1317.273	985.157
97.957	13.336	1316.619	984.539
98.972	13.258	1315.241	982.963
99.987	13.319	1313.970	982.289
101.001	13.390	1313.013	981.906
102.016	13.383	1312.860	981.665
103.030	13.380	1311.671	980.672
104.045	13.364	1310.340	979.493
105.060	13.277	1309.683	978.401
106.074	13.373	1307.802	977.473
107.089	13.293	1306.766	976.141
108.103	13.110	1305.595	974.103
109.118	13.188	1304.059	973.329
110.133	13.172	1302.516	971.999
111.147	13.193	1301.100	970.977
112.162	13.180	1299.961	969.966
113.176	13.200	1299.325	969.522
114.191	13.237	1297.910	968.600
115.206	13.256	1296.640	967.677
116.220	13.232	1295.687	966.742
117.235	13.214	1294.409	965.591
118.249	13.178	1293.749	964.805
119.264	13.273	1292.266	964.170
120.279	13.163	1291.248	962.682
121.293	13.250	1290.118	962.262
122.308	13.108	1289.643	960.999
123.322	13.131	1288.468	960.169
124.337	13.125	1286.907	958.889
125.352	13.178	1285.487	958.051
126.366	13.209	1284.742	957.590
127.381	13.242	1283.953	957.108
128.395	13.166	1282.606	955.582
129.410	13.222	1281.474	954.976
130.424	13.185	1280.795	954.171
131.439	13.188	1280.152	953.624
132.454	13.214	1279.049	952.870
133.468	13.197	1278.227	952.075
134.483	13.218	1277.285	951.411
135.497	13.227	1275.995	950.417
136.512	13.200	1274.769	949.264
137.527	13.229	1273.160	948.150
138.541	13.329	1271.885	947.687
139.556	13.333	1270.447	946.556
140.570	13.259	1269.828	945.586
141.585	13.311	1268.340	944.696
142.600	13.318	1267.541	944.056
143.614	13.425	1266.271	943.635
144.629	13.411	1265.333	942.772
145.643	13.404	1264.484	942.014
146.658	13.430	1262.422	940.548
147.673	13.431	1261.094	939.478
148.687	13.378	1260.085	938.340
149.702	13.236	1259.225	936.813
150.716	13.372	1257.530	936.242
151.731	13.328	1256.512	935.150
152.746	13.350	1255.727	934.610
153.760	13.440	1253.757	933.567
154.775	13.452	1253.002	932.990
155.789	13.573	1252.022	932.858
156.804	13.495	1250.808	931.435
157.819	13.540	1249.928	930.952
158.833	13.615	1248.827	930.466
159.848	13.519	1248.139	929.334
160.862	13.626	1246.957	928.972
161.877	13.553	1245.757	927.586
162.892	13.532	1245.062	926.870
163.906	13.521	1244.007	925.938
164.921	13.394	1243.310	924.631
165.935	13.473	1242.977	924.739
166.950	13.558	1241.448	923.996
167.964	13.563	1240.552	923.279
168.979	13.552	1240.151	922.837
169.994	13.644	1238.814	922.270
171.008	13.529	1238.623	921.405
172.023	13.701	1237.404	921.373
173.037	13.799	1236.575	921.218
174.052	13.688	1235.753	919.912
175.067	13.634	1234.586	918.662
176.081	13.658	1233.474	917.883
177.096	13.650	1232.811	917.266
178.110	13.586	1232.047	916.262
179.125	13.655	1230.522	915.430
180.140	13.678	1229.463	914.684
181.154	13.666	1228.312	913.681
182.169	13.836	1226.757	913.382
183.183	13.834	1226.262	912.920
184.198	13.798	1224.709	911.486
185.213	13.824	1223.489	910.637
186.227	13.830	1222.713	910.017
187.242	13.975	1221.084	909.516
188.256	13.800	1220.690	908.181
189.271	13.889	1219.462	907.675
190.286	13.681	1218.359	905.637
191.300	13.788	1217.349	905.391
192.315	13.661	1217.276	904.564
193.329	13.691	1216.496	904.069
194.344	13.706	1215.784	903.539
195.359	13.821	1215.041	903.535
196.373	13.859	1214.409	903.193
197.388	13.915	1214.472	903.463
198.402	13.906	1213.820	902.848
199.417	13.955	1212.886	902.342
200.432	14.072	1211.906	902.165
201.446	14.103	1211.171	901.709
202.461	14.102	1210.157	900.866
203.475	14.213	1208.904	900.459
204.490	14.123	1207.952	899.179
205.504	14.151	1206.666	898.296
206.519	14.141	1205.198	897.069
207.534	14.182	1203.968	896.296
208.548	14.028	1203.688	895.176
209.563	14.066	1202.632	894.519
210.577	14.129	1201.896	894.231
211.592	14.169	1200.898	893.623
212.607	14.207	1200.043	893.113
213.621	14.233	1199.365	892.667
214.636	14.209	1198.284	891.655
215.650	14.222	1197.182	890.827
216.665	14.216	1196.522	890.223
217.680	14.286	1195.609	889.839
218.694	14.184	1194.541	888.421
219.709	14.304	1193.981	888.570
220.723	14.270	1193.231	887.749
221.738	14.256	1192.500	887.054
222.753	14.256	1191.717	886.390
223.767	14.361	1190.849	886.228
224.782	14.513	1190.204	886.476
225.796	14.442	1189.502	885.499
226.811	14.361	1189.278	884.821
227.826	14.362	1188.363	884.071
228.840	14.298	1187.915	883.319
229.855	14.321	1187.182	882.816
230.869	14.364	1186.290	882.303
231.884	14.366	1185.408	881.576
232.899	14.330	1184.251	880.448
233.913	14.283	1183.694	879.711
234.928	14.322	1183.269	879.522
235.942	14.393	1181.976	878.856
236.957	14.374	1181.294	878.173
237.972	14.437	1180.438	877.791
238.986	14.403	1180.032	877.234
240.001	14.418	1179.366	876.736
241.015	14.509	1178.278	876.332
242.030	14.508	1177.325	875.538
243.045	14.541	1176.813	875.253
244.059	14.574	1176.342	874.997
245.074	14.465	1175.593	873.792
246.088	14.485	1174.738	873.183
247.103	14.554	1173.984	872.906
248.117	14.680	1173.016	872.772
249.132	14.811	1172.450	872.955
250.147	14.734	1171.465	871.744
251.161	14.732	1171.025	871.326
252.176	14.882	1170.253	871.456
253.190	14.858	1169.189	870.463
254.205	14.848	1169.192	870.335
255.220	14.874	1168.453	869.848
256.234	14.913	1167.560	869.305
257.249	14.868	1167.039	868.609
258.263	14.919	1166.205	868.174
259.278	14.900	1165.615	867.561
260.293	14.944	1165.173	867.385
261.307	15.027	1164.176	866.996
262.322	15.050	1163.670	866.658
263.336	15.091	1163.009	866.304
264.351	15.114	1161.976	865.577
265.366	15.082	1161.880	865.263
266.380	15.107	1160.926	864.603
267.395	15.126	1159.946	863.897
268.409	15.125	1159.597	863.554
269.424	15.075	1158.737	862.579
270.439	15.102	1157.701	861.870
271.453	15.106	1157.258	861.486
272.468	15.024	1157.251	860.980
273.482	15.031	1156.031	860.034
274.497	15.172	1155.187	860.053
275.512	15.138	1154.794	859.512
276.526	15.060	1154.087	858.511
277.541	15.077	1152.992	857.708
278.555	15.170	1152.060	857.415
279.570	15.226	1151.342	857.087
280.585	15.225	1151.065	856.803
281.599	15.257	1149.947	856.056
282.614	15.348	1148.359	855.264
283.628	15.283	1147.784	854.427
284.643	15.219	1146.660	853.190
285.657	15.345	1145.836	853.140
286.672	15.349	1144.956	852.431
287.687	15.336	1144.223	851.743
288.701	15.222	1143.871	850.827
289.716	15.364	1142.916	850.761
290.730	15.315	1142.064	849.806
291.745	15.371	1141.225	849.390
292.760	15.442	1140.466	849.110
293.774	15.496	1140.018	848.974
294.789	15.462	1139.710	848.493
295.803	15.444	1138.948	847.764
296.818	15.457	1138.098	847.123
297.833	15.461	1137.543	846.651
298.847	15.364	1136.938	845.640
299.862	15.463	1135.583	845.055
300.876	15.502	1135.277	844.950
301.891	15.490	1134.584	844.300
302.906	15.535	1133.438	843.594
303.920	15.560	1132.917	843.257
304.935	15.679	1132.296	843.320
305.949	15.857	1131.114	843.256
306.964	15.759	1130.972	842.583
307.979	15.644	1130.188	841.349
308.993	15.689	1129.611	841.074
310.008	15.644	1128.991	840.313
311.022	15.779	1127.846	840.059
312.037	15.762	1127.253	839.458
313.052	15.837	1126.122	838.916
314.066	15.800	1125.330	838.068
315.081	15.727	1124.629	837.105
316.095	15.753	1123.806	836.552
317.110	15.595	1123.397	835.385
318.125	15.656	1122.408	834.879
319.139	15.744	1121.381	834.480
320.154	15.747	1121.143	834.243
321.168	15.688	1120.513	833.407
322.183	15.738	1119.577	832.886
323.197	15.814	1119.017	832.768
324.212	15.776	1118.831	832.372
325.227	15.870	1118.045	832.176
326.241	15.718	1117.670	831.074
327.256	15.751	1116.872	830.568
328.270	15.800	1115.771	829.919
329.285	15.943	1114.261	829.426
330.300	15.870	1113.618	828.512
331.314	15.806	1112.867	827.568
332.329	15.864	1111.658	826.881
333.343	15.812	1111.248	826.244
334.358	15.871	1110.188	825.676
335.373	15.858	1109.554	825.068
336.387	15.974	1108.573	824.834
337.402	15.918	1108.095	824.131
338.416	16.022	1107.669	824.249
339.431	16.112	1106.752	823.931
340.446	16.041	1105.948	822.916
341.460	16.220	1105.321	823.250
342.475	16.096	1104.683	822.095
343.489	16.214	1103.591	821.784
344.504	16.219	1102.817	821.159
345.519	16.166	1102.037	820.248
346.533	16.275	1100.781	819.772
347.548	16.331	1100.061	819.433
348.562	16.263	1099.427	818.561
349.577	16.309	1098.587	818.083
350.592	16.224	1098.210	817.322
351.606	16.304	1097.254	816.923
352.621	16.154	1096.894	815.858
353.635	16.235	1095.814	815.372
354.650	16.323	1095.088	815.188
355.665	16.145	1095.109	814.269
356.679	16.239	1093.795	813.673
357.694	16.340	1093.130	813.592
358.708	16.350	1092.689	813.243
359.723	16.341	1092.051	812.651
360.738	16.312	1091.537	812.058
361.752	16.323	1090.730	811.437
362.767	16.442	1090.071	811.450
363.781	16.327	1090.034	810.799
364.796	16.475	1089.132	810.762
365.810	16.445	1088.690	810.220
366.825	16.496	1087.969	809.854
367.840	16.531	1087.646	809.710
368.854	16.608	1086.602	809.228
369.869	16.559	1086.119	808.565
370.883	16.556	1085.364	807.917
371.898	16.571	1084.577	807.332
372.913	16.612	1083.815	806.890
373.927	16.689	1083.243	806.756
374.942	16.677	1083.283	806.660
375.956	16.575	1082.791	805.737
376.971	16.704	1081.679	805.449
377.986	16.737	1081.084	805.092
379.000	16.822	1080.550	805.028
380.015	16.802	1080.143	804.557
381.029	16.725	1079.538	803.670
382.044	16.847	1078.731	803.578
383.059	16.871	1077.874	802.980
384.073	16.760	1077.186	801.872
385.088	16.919	1076.204	801.822
386.102	16.988	1075.133	801.281
387.117	16.980	1073.928	800.272
388.132	16.850	1073.272	799.102
389.146	16.846	1072.658	798.553
390.161	16.835	1071.753	797.760
391.175	16.913	1071.139	797.598
392.190	16.849	1070.695	796.895
393.205	16.904	1069.746	796.376
394.219	16.908	1069.285	795.980
395.234	16.906	1068.416	795.257
396.248	17.087	1066.938	794.930
397.263	16.938	1066.212	793.622
398.278	17.026	1065.589	793.504
399.292	16.946	1064.786	792.458
400.307	16.894	1064.290	791.779
401.321	16.931	1063.696	791.436
402.336	16.986	1062.461	790.706
403.350	17.043	1062.139	790.664
404.365	17.027	1061.491	790.036
405.380	17.108	1060.831	789.850
406.394	17.017	1059.634	788.466
407.409	17.265	1058.741	788.883
408.423	17.153	1058.661	788.235
409.438	17.203	1057.894	787.823
410.453	17.278	1057.085	787.502
411.467	17.226	1056.468	786.729
412.482	17.256	1056.049	786.487
413.496	17.273	1054.980	785.702
414.511	17.276	1054.590	785.353
415.526	17.389	1054.189	785.506
416.540	17.359	1053.801	785.011
417.555	17.365	1052.880	784.284
418.569	17.412	1052.291	783.994
419.584	17.313	1052.455	783.588
420.599	17.371	1051.850	783.337
421.613	107.984	1330.755	1487.340
422.628	99.431	1371.335	1487.435
