DTS Sentinel unit serial number:	SN413079Multiplexer serial number:	ORYXHardware model number:	OX4-SRSoftware version number:	ORYX F/W v4.00 Oryx Data Collector v3.7.2.0data status	okinstallation	princeton_trtdifferential loss correction	single-endedforward channel	channel 2reverse channel	N/Adate	2019/09/18time	08:19:35forward acquisition time	60.00reverse acquisition time	0.00gamma	496.2192k internal	0.2343k external	0.2343temperature offset calibration	0.9983default loss term (dB/km)	0.3790temperature slope calibration	1.0000multiplexer offset coefficient	1.0000multiplexer slope coefficient	1.0000fibre end	0.00T internal ref (°C)	24.03T ext. ref 1 (°C)	0.21T ext. ref 2 (°C)	19.65length (m)	temperature (°C)	Stokes	anti-Stokes-747.200	800.000	0.022	0.093
-746.185	-96.749	-0.331	0.087
-745.171	-63.301	0.201	0.083
-744.156	-200.000	-0.028	0.141
-743.142	-141.042	-0.276	-0.028
-742.127	-8.164	-0.134	0.090
-741.112	-1.827	0.342	-0.241
-740.098	-22.470	0.182	-0.110
-739.083	202.391	-0.202	0.312
-738.069	-200.000	-0.030	-0.210
-737.054	-144.467	-0.128	-0.012
-736.039	134.497	-0.201	0.261
-735.025	-200.000	0.028	-0.145
-734.010	75.807	-0.272	-0.288
-732.996	300.654	-0.069	-0.128
-731.981	-200.000	0.015	-0.215
-730.966	-103.343	-0.236	-0.056
-729.952	800.000	-0.101	-0.313
-728.937	-164.144	0.118	0.005
-727.923	61.008	-0.033	-0.033
-726.908	-200.000	-0.034	-0.166
-725.894	85.782	0.229	-0.252
-724.879	24.775	-0.081	0.067
-723.864	111.997	-0.198	-0.239
-722.850	-73.577	0.090	0.033
-721.835	361.918	-0.146	-0.294
-720.821	-4.043	-0.274	-0.190
-719.806	-200.000	0.047	-0.329
-718.791	-55.052	-0.250	-0.112
-717.777	800.000	-0.023	0.072
-716.762	-101.962	0.173	0.042
-715.748	-69.556	0.293	0.112
-714.733	-31.195	0.059	-0.034
-713.718	256.409	-0.101	-0.174
-712.704	-87.478	-0.256	-0.077
-711.689	-200.000	0.043	-0.249
-710.675	-22.514	-0.348	-0.211
-709.660	-144.193	0.104	0.010
-708.645	-29.763	0.141	0.080
-707.631	-155.344	0.310	0.020
-706.616	-61.970	-0.250	0.105
-705.602	-87.308	0.361	0.110
-704.587	-8.461	0.085	0.057
-703.572	-60.906	0.090	0.038
-702.558	-72.934	-0.136	-0.050
-701.543	-200.000	0.003	0.149
-700.529	-44.403	-0.067	-0.034
-699.514	165.381	0.325	-0.459
-698.499	800.000	-0.086	-0.245
-697.485	-139.372	0.211	0.023
-696.470	6.093	0.088	-0.065
-695.456	184.474	-0.168	0.249
-694.441	130.458	-0.160	-0.205
-693.426	-200.000	0.100	0.528
-692.412	-200.000	0.036	0.291
-691.397	22.127	-0.199	0.163
-690.383	145.624	-0.128	0.171
-689.368	222.498	-0.012	0.019
-688.354	-86.516	0.233	-0.071
-687.339	-102.323	0.062	0.015
-686.324	-15.685	-0.044	0.028
-685.310	-63.245	-0.177	-0.073
-684.295	177.530	-0.051	-0.074
-683.281	-101.779	0.115	0.028
-682.266	-200.000	-0.044	-0.260
-681.251	-110.928	0.275	-0.057
-680.237	-200.000	-0.608	-0.000
-679.222	402.133	0.068	0.142
-678.208	84.194	0.074	-0.081
-677.193	258.855	-0.234	-0.403
-676.178	-172.603	-0.236	-0.007
-675.164	-131.977	-0.218	-0.028
-674.149	-200.000	0.041	-0.220
-673.135	137.368	0.115	0.151
-672.120	-200.000	0.055	-0.257
-671.105	-146.185	-0.103	-0.009
-670.091	-150.691	0.203	-0.015
-669.076	-154.653	0.493	0.033
-668.062	101.564	-0.158	-0.184
-667.047	29.214	0.132	0.112
-666.032	-200.000	-0.044	-0.211
-665.018	172.082	-0.041	-0.058
-664.003	800.000	0.123	0.382
-662.989	-80.914	-0.513	0.170
-661.974	800.000	-0.044	0.129
-660.959	686.474	0.011	-0.028
-659.945	178.964	-0.073	-0.107
-658.930	112.409	0.140	0.170
-657.916	-86.018	0.265	-0.082
-656.901	-200.000	0.031	0.282
-655.886	-57.210	-0.167	-0.073
-654.872	-117.076	-0.184	-0.033
-653.857	54.918	0.151	0.146
-652.843	-111.366	-0.079	0.016
-651.828	-200.000	0.054	0.397
-650.814	274.597	-0.161	0.284
-649.799	-85.562	0.171	0.053
-648.784	-110.815	-0.286	0.059
-647.770	99.210	0.170	-0.195
-646.755	-101.125	-0.261	0.064
-645.741	-200.000	0.025	0.236
-644.726	-99.525	0.362	0.091
-643.711	101.891	0.110	-0.128
-642.697	-48.343	-0.146	0.070
-641.682	58.402	0.165	-0.161
-640.668	-200.000	-0.014	-0.203
-639.653	-75.936	-0.244	0.086
-638.638	36.319	-0.109	0.096
-637.624	-40.930	0.248	0.128
-636.609	228.170	0.074	-0.120
-635.595	-200.000	0.011	0.169
-634.580	-200.000	0.010	0.176
-633.565	-200.000	-0.017	0.243
-632.551	218.671	-0.205	0.326
-631.536	-99.576	-0.203	0.051
-630.522	-156.558	0.105	0.006
-629.507	800.000	-0.106	0.291
-628.492	-28.005	0.311	-0.179
-627.478	-40.165	-0.178	0.092
-626.463	-200.000	-0.003	-0.249
-625.449	-200.000	-0.062	-0.290
-624.434	-34.140	-0.226	-0.124
-623.419	-120.440	-0.501	-0.085
-622.405	252.955	0.089	-0.152
-621.390	53.808	-0.146	0.140
-620.376	53.852	0.103	0.098
-619.361	624.894	0.133	0.334
-618.346	22.264	-0.064	-0.052
-617.332	275.856	0.157	-0.277
-616.317	-150.315	-0.191	-0.015
-615.303	-193.905	0.287	-0.002
-614.288	-200.000	-0.002	-0.040
-613.273	-200.000	-0.015	-0.158
-612.259	-8.330	0.454	0.305
-611.244	101.478	-0.096	-0.112
-610.230	-68.766	-0.124	0.048
-609.215	220.335	-0.051	0.081
-608.201	800.000	-0.018	0.059
-607.186	245.441	-0.037	-0.062
-606.171	41.096	0.113	-0.101
-605.157	-200.000	0.108	-0.578
-604.142	-200.000	-0.024	-0.182
-603.128	257.206	-0.067	-0.114
-602.113	35.610	-0.148	0.129
-601.098	-27.777	0.131	0.075
-600.084	-25.025	0.173	-0.102
-599.069	157.182	-0.253	-0.348
-598.055	45.157	0.262	0.241
-597.040	-75.470	-0.036	-0.013
-596.025	-90.002	-0.324	0.094
-595.011	-105.072	0.247	0.056
-593.996	-54.442	-0.137	-0.062
-592.982	550.722	-0.124	-0.295
-591.967	-200.000	-0.031	-0.186
-590.952	83.788	0.182	0.198
-589.938	-200.000	-0.008	-0.174
-588.923	244.589	-0.214	-0.357
-587.909	66.871	-0.050	-0.050
-586.894	-200.000	-0.031	0.503
-585.879	72.535	-0.130	0.135
-584.865	-109.181	0.242	-0.051
-583.850	54.947	-0.207	-0.199
-582.836	-80.461	0.311	0.103
-581.821	-200.000	-0.002	0.236
-580.806	196.805	0.088	-0.133
-579.792	800.000	-0.020	0.068
-578.777	581.766	-0.139	0.338
-577.763	800.000	0.088	0.275
-576.748	-43.217	-0.170	-0.086
-575.733	800.000	0.095	-0.395
-574.719	800.000	-0.059	-0.214
-573.704	800.000	0.076	0.255
-572.690	134.242	0.265	0.342
-571.675	148.265	-0.133	-0.179
-570.661	-200.000	0.043	-0.217
-569.646	192.723	-0.294	-0.442
-568.631	365.882	0.146	0.293
-567.617	245.595	-0.034	-0.057
-566.602	-164.313	-0.247	0.011
-565.588	-200.000	0.013	-0.172
-564.573	-95.144	0.147	-0.039
-563.558	-200.000	0.008	-0.392
-562.544	87.753	0.252	-0.278
-561.529	7.071	0.075	-0.055
-560.515	120.025	0.170	-0.209
-559.500	30.162	-0.045	-0.039
-558.485	-100.489	-0.152	0.037
-557.471	332.065	-0.110	-0.210
-556.456	-123.963	-0.314	-0.049
-555.442	462.008	0.115	-0.255
-554.427	-200.000	-0.005	-0.109
-553.412	-200.000	0.004	-0.150
-552.398	-47.537	-0.249	-0.120
-551.383	-57.270	0.177	-0.077
-550.369	-164.494	-0.250	-0.011
-549.354	188.236	-0.075	-0.111
-548.339	-200.000	-0.023	-0.248
-547.325	-97.418	0.242	0.063
-546.310	119.308	-0.036	-0.044
-545.296	69.942	-0.119	0.122
-544.281	282.364	0.074	0.133
-543.266	82.742	-0.222	-0.240
-542.252	130.868	-0.072	0.092
-541.237	-88.053	-0.289	0.086
-540.223	29.264	-0.115	0.097
-539.208	-200.000	-0.015	0.168
-538.193	-28.236	0.106	-0.061
-537.179	-3.899	-0.068	-0.047
-536.164	163.984	0.041	0.057
-535.150	-47.197	0.130	-0.063
-534.135	-121.664	0.370	0.061
-533.121	-29.300	-0.238	-0.135
-532.106	654.647	-0.167	0.426
-531.091	-120.510	-0.227	-0.038
-530.077	120.713	-0.068	0.084
-529.062	-143.149	-0.181	0.017
-528.048	-25.249	0.155	-0.091
-527.033	-19.903	-0.088	0.054
-526.018	-111.922	-0.439	-0.088
-525.004	-155.769	0.149	0.009
-523.989	-29.325	-0.380	0.216
-522.975	0.634	-0.071	0.050
-521.960	8.394	0.158	-0.118
-520.945	193.025	0.116	-0.174
-519.931	-200.000	0.010	0.050
-518.916	-57.084	-0.299	0.131
-517.902	-138.337	-0.188	0.021
-516.887	800.000	0.134	-0.486
-515.872	201.844	-0.027	-0.041
-514.858	-137.552	0.300	-0.034
-513.843	-156.305	-0.086	-0.005
-512.829	25.111	-0.312	-0.257
-511.814	116.992	-0.138	-0.169
-510.799	122.686	0.166	0.206
-509.785	-200.000	-0.221	0.001
-508.770	37.236	-0.065	-0.058
-507.756	785.503	-0.101	0.274
-506.741	241.225	-0.029	-0.048
-505.726	175.725	-0.212	-0.305
-504.712	675.191	0.070	0.181
-503.697	82.917	0.143	0.154
-502.683	-102.160	-0.080	0.019
-501.668	-178.325	0.122	-0.003
-500.653	800.000	-0.095	0.338
-499.639	11.993	0.209	-0.159
-498.624	-200.000	0.015	-0.295
-497.610	-84.206	-0.251	0.079
-496.595	-152.611	-0.041	0.003
-495.581	800.000	-0.081	-0.326
-494.566	100.069	-0.046	-0.053
-493.551	242.008	-0.045	0.075
-492.537	187.739	0.029	-0.042
-491.522	-130.223	0.065	0.009
-490.508	-18.789	-0.202	-0.125
-489.493	-59.475	-0.190	-0.081
-488.478	-59.400	-0.348	-0.148
-487.464	-143.955	-0.180	-0.017
-486.449	-28.728	0.244	-0.139
-485.435	-137.855	-0.217	-0.024
-484.420	-142.774	-0.077	-0.007
-483.405	-74.345	0.268	-0.096
-482.391	66.032	-0.162	0.163
-481.376	800.000	-0.044	-0.186
-480.362	-200.000	0.058	0.559
-479.347	-27.653	-0.340	0.196
-478.332	-200.000	0.065	0.308
-477.318	-200.000	0.002	-0.016
-476.303	-74.707	0.262	-0.093
-475.289	-109.771	-0.656	-0.137
-474.274	800.000	0.045	-0.173
-473.259	-200.000	-0.017	-0.258
-472.245	-200.000	0.028	-0.174
-471.230	-200.000	0.030	-0.340
-470.216	-189.692	0.264	-0.003
-469.201	-96.595	-0.678	-0.177
-468.186	-16.344	-0.134	0.084
-467.172	-200.000	0.022	0.215
-466.157	-200.000	0.008	0.083
-465.143	249.309	-0.139	0.233
-464.128	800.000	-0.108	0.374
-463.113	-102.160	-0.093	-0.022
-462.099	800.000	-0.069	-0.217
-461.084	-29.696	-0.183	0.103
-460.070	800.000	-0.125	0.372
-459.055	-2.225	0.119	0.083
-458.040	-60.160	-0.135	0.057
-457.026	527.388	0.112	-0.261
-456.011	-200.000	-0.047	-0.278
-454.997	-51.886	-0.379	0.175
-453.982	-200.000	0.030	0.273
-452.968	501.166	0.157	-0.358
-451.953	-200.000	0.018	0.430
-450.938	95.121	0.157	0.177
-449.924	-200.000	-0.021	-0.306
-448.909	127.419	-0.212	-0.267
-447.895	28.291	-0.041	-0.034
-446.880	49.696	-0.128	0.119
-445.865	-200.000	0.009	0.183
-444.851	368.562	-0.125	0.250
-443.836	-85.120	0.255	-0.079
-442.822	-121.420	0.493	-0.081
-441.807	-93.289	0.101	-0.028
-440.792	15.278	-0.321	-0.249
-439.778	150.301	0.146	-0.197
-438.763	752.430	-0.057	0.153
-437.749	800.000	0.103	0.441
-436.734	105.860	0.174	0.204
-435.719	-32.236	0.206	-0.114
-434.705	140.242	0.086	-0.113
-433.690	-80.573	0.244	-0.081
-432.676	-140.740	-0.161	0.016
-431.661	-200.000	-0.061	0.308
-430.646	206.460	0.217	-0.334
-429.632	-54.215	-0.211	0.095
-428.617	-126.444	0.365	0.054
-427.603	-61.703	0.299	0.124
-426.588	-96.436	-0.067	0.017
-425.573	-75.009	0.096	-0.034
-424.559	-16.142	-0.239	-0.150
-423.544	157.356	-0.048	-0.065
-422.530	9.527	0.133	0.100
-421.515	10.777	-0.269	-0.203
-420.500	-65.039	0.176	-0.070
-419.486	-130.689	0.222	0.029
-418.471	-200.000	-0.089	-0.393
-417.457	275.806	-0.118	-0.208
-416.442	130.018	-0.204	-0.258
-415.428	-200.000	0.005	-0.310
-414.413	-121.016	0.074	0.012
-413.398	-200.000	0.027	0.124
-412.384	-150.183	0.033	0.002
-411.369	263.257	-0.089	0.153
-410.355	552.988	-0.056	0.133
-409.340	-200.000	-0.010	0.137
-408.325	-15.525	0.369	-0.233
-407.311	-200.000	0.012	-0.107
-406.296	800.000	0.063	-0.207
-405.282	800.000	-0.078	-0.260
-404.267	-200.000	-0.026	-0.257
-403.252	-79.471	-0.054	0.018
-402.238	800.000	-0.032	0.125
-401.223	-77.236	-0.078	0.027
-400.209	87.723	0.203	0.223
-399.194	64.469	0.084	0.084
-398.179	372.813	0.090	-0.181
-397.165	4.933	0.190	-0.138
-396.150	118.572	0.143	-0.174
-395.136	-200.000	0.012	0.114
-394.121	-133.451	-0.099	0.012
-393.106	-127.855	-0.386	0.055
-392.092	443.298	-0.062	-0.135
-391.077	-200.000	0.012	-0.289
-390.063	800.000	0.030	0.098
-389.048	215.590	0.138	-0.217
-388.033	-113.365	0.272	-0.053
-387.019	-128.999	0.405	-0.056
-386.004	-4.564	0.026	-0.018
-384.990	-69.287	0.152	-0.058
-383.975	-200.000	0.040	0.214
-382.960	-200.000	0.017	0.200
-381.946	-200.000	-0.014	-0.175
-380.931	-0.463	-0.290	0.203
-379.917	179.409	0.171	0.247
-378.902	83.936	-0.079	-0.085
-377.888	1.877	-0.129	-0.092
-376.873	720.080	0.163	0.427
-375.858	-200.000	-0.021	0.112
-374.844	-200.000	-0.057	0.322
-373.829	-79.386	-0.202	0.067
-372.815	348.344	-0.098	0.191
-371.800	172.747	0.016	0.022
-370.785	260.700	0.168	0.287
-369.771	-105.799	0.295	0.066
-368.756	-200.000	-0.054	0.581
-367.742	381.402	-0.156	0.316
-366.727	20.417	-0.117	-0.093
-365.712	231.997	-0.048	0.078
-364.698	-74.730	0.271	-0.096
-363.683	39.938	-0.012	0.010
-362.669	-28.168	-0.173	-0.098
-361.654	-89.649	0.158	-0.046
-360.639	-163.284	0.150	0.007
-359.625	74.461	0.245	-0.254
-358.610	-84.592	-0.140	-0.043
-357.596	109.146	-0.216	0.254
-356.581	172.735	0.088	-0.125
-355.566	-153.099	-0.122	0.008
-354.552	-168.922	0.148	0.005
-353.537	504.355	-0.058	-0.132
-352.523	800.000	-0.069	0.222
-351.508	-200.000	-0.015	0.347
-350.493	800.000	-0.048	0.173
-349.479	-38.240	-0.218	-0.114
-348.464	-200.000	-0.018	-0.191
-347.450	-146.462	-0.023	-0.002
-346.435	-61.315	0.166	0.069
-345.420	-8.361	-0.255	-0.169
-344.406	26.595	0.098	0.081
-343.391	-200.000	0.059	0.351
-342.377	-25.915	-0.126	-0.073
-341.362	-71.321	-0.126	-0.047
-340.348	-31.766	-0.219	0.121
-339.333	-200.000	0.018	-0.226
-338.318	89.266	0.083	-0.091
-337.304	-98.286	0.198	-0.050
-336.289	-14.228	-0.090	0.057
-335.275	179.034	-0.078	-0.113
-334.260	-200.000	-0.020	0.126
-333.245	-37.669	0.046	0.024
-332.231	-45.082	-0.249	0.122
-331.216	86.341	-0.126	0.137
-330.202	-200.000	0.025	-0.304
-329.187	-9.713	0.335	0.220
-328.172	-200.000	-0.043	0.211
-327.158	-75.442	-0.377	-0.132
-326.143	-8.471	0.272	-0.180
-325.129	106.105	0.214	-0.249
-324.114	71.565	-0.093	-0.095
-323.099	-184.312	-0.230	-0.004
-322.085	-32.439	0.170	-0.093
-321.070	99.050	-0.028	0.032
-320.056	-26.267	-0.083	0.048
-319.041	-84.908	-0.167	-0.051
-318.026	-23.634	0.259	-0.153
-317.012	145.769	0.085	0.112
-315.997	-200.000	-0.024	-0.163
-314.983	-96.245	0.206	-0.054
-313.968	429.624	-0.093	0.199
-312.953	-168.158	0.059	-0.002
-311.939	-200.000	-0.011	0.192
-310.924	800.000	-0.036	0.111
-309.910	-200.000	0.035	-0.163
-308.895	217.555	-0.116	0.182
-307.880	185.748	0.071	0.103
-306.866	800.000	0.046	-0.189
-305.851	280.133	0.207	0.365
-304.837	-147.901	-0.269	0.022
-303.822	464.566	0.042	0.093
-302.807	-4.765	-0.300	0.203
-301.793	-75.359	-0.050	-0.018
-300.778	-52.554	0.292	-0.133
-299.764	800.000	-0.099	-0.335
-298.749	-200.000	0.071	-0.364
-297.735	134.317	0.277	0.354
-296.720	-200.000	-0.013	0.239
-295.705	122.080	-0.116	0.142
-294.691	-35.940	0.284	0.151
-293.676	-200.000	0.029	-0.436
-292.662	168.307	-0.046	0.065
-291.647	399.268	0.038	-0.078
-290.632	-200.000	-0.037	-0.267
-289.618	-75.703	0.443	-0.155
-288.603	-200.000	0.028	0.127
-287.589	800.000	0.076	0.273
-286.574	-120.113	-0.246	-0.041
-285.559	634.593	-0.170	0.424
-284.545	800.000	-0.060	0.166
-283.530	-200.000	0.018	-0.138
-282.516	32.688	0.170	0.145
-281.501	-75.864	0.227	0.079
-280.486	6.340	-0.129	-0.094
-279.472	35.186	-0.245	-0.211
-278.457	-128.656	0.197	-0.027
-277.443	473.120	0.128	-0.284
-276.428	368.898	-0.120	0.238
-275.413	-128.749	0.140	-0.019
-274.399	-60.284	0.369	0.154
-273.384	800.000	0.126	0.415
-272.370	-56.642	0.154	0.067
-271.355	-200.000	0.012	0.150
-270.340	-200.000	-0.020	-0.110
-269.326	-200.000	0.018	-0.088
-268.311	112.019	-0.135	0.161
-267.297	800.000	0.072	-0.271
-266.282	-146.818	-0.110	-0.009
-265.267	-200.000	-0.009	0.070
-264.253	167.407	0.121	0.169
-263.238	800.000	0.031	-0.092
-262.224	206.215	0.201	0.307
-261.209	-84.710	-0.208	-0.064
-260.195	556.259	0.099	-0.234
-259.180	109.155	0.100	0.118
-258.165	-131.214	-0.178	0.023
-257.151	-200.000	-0.041	-0.185
-256.136	-200.000	0.020	0.326
-255.122	800.000	0.058	0.210
-254.107	-39.693	-0.139	0.071
-253.092	70.440	0.257	-0.261
-252.078	276.910	0.095	0.166
-251.063	319.209	-0.051	-0.095
-250.049	-89.196	0.168	0.049
-249.034	-200.000	0.000	-0.194
-248.019	-163.457	-0.142	0.007
-247.005	213.757	-0.093	-0.144
-245.990	614.887	0.064	-0.157
-244.976	203.651	0.118	-0.179
-243.961	23.827	0.044	0.035
-242.946	39.640	-0.176	0.155
-241.932	-200.000	-0.009	0.179
-240.917	149.293	0.103	0.137
-239.903	800.000	0.134	0.382
-238.888	-101.628	-0.310	0.074
-237.873	198.515	0.159	-0.239
-236.859	-111.941	-0.226	-0.045
-235.844	-200.000	0.045	0.243
-234.830	-69.990	-0.241	-0.090
-233.815	-57.897	0.313	-0.134
-232.800	475.025	-0.090	0.199
-231.786	215.631	-0.049	0.076
-230.771	-131.171	0.135	0.018
-229.757	316.705	-0.071	0.132
-228.742	-57.217	-0.153	0.066
-227.727	-20.431	0.168	-0.102
-226.713	-200.000	-0.004	0.091
-225.698	800.000	0.024	-0.066
-224.684	-200.000	0.039	-0.317
-223.669	-116.135	0.080	0.015
-222.655	62.482	0.131	0.128
-221.640	800.000	-0.035	0.119
-220.625	-83.885	-0.223	0.070
-219.611	98.878	0.138	0.157
-218.596	-200.000	-0.012	0.067
-217.582	-103.307	-0.213	0.049
-216.567	-200.000	-0.030	-0.305
-215.552	226.040	0.154	0.245
-214.538	-200.000	-0.043	0.195
-213.523	379.645	-0.085	-0.170
-212.509	-128.725	0.189	-0.026
-211.494	-38.754	0.257	-0.133
-210.479	-66.665	0.295	-0.115
-209.465	355.902	0.097	-0.190
-208.450	44.312	-0.110	0.099
-207.436	173.204	0.121	0.171
-206.421	50.048	0.127	-0.118
-205.406	221.911	-0.113	0.178
-204.392	-74.551	0.103	-0.036
-203.377	30.231	0.172	0.144
-202.363	402.575	0.080	0.166
-201.348	-12.338	0.231	-0.148
-200.333	-74.465	-0.193	0.068
-199.319	329.590	0.139	0.263
-198.304	67.995	-0.077	-0.077
-197.290	50.747	-0.138	-0.128
-196.275	-95.179	0.210	0.056
-195.260	182.905	0.203	0.293
-194.246	-71.591	-0.222	0.081
-193.231	61.997	0.097	-0.094
-192.217	-27.723	0.126	-0.071
-191.202	-150.766	-0.175	0.013
-190.187	-5.733	-0.074	0.050
-189.173	-31.890	0.070	0.039
-188.158	-26.027	0.167	0.096
-187.144	-41.091	0.443	0.224
-186.129	-4.497	-0.168	-0.114
-185.114	800.000	0.063	0.188
-184.100	82.707	-0.266	-0.283
-183.085	15.067	0.312	0.239
-182.071	209.529	0.048	0.073
-181.056	134.269	0.117	0.149
-180.042	511.409	0.086	0.197
-179.027	-74.320	-0.115	0.041
-178.012	277.556	-0.130	0.227
-176.998	90.902	0.119	0.131
-175.983	800.000	0.091	0.355
-174.969	-200.000	-0.004	0.057
-173.954	-12.092	-0.245	-0.157
-172.939	103.283	-0.075	-0.086
-171.925	-200.000	-0.051	-0.300
-170.910	87.279	0.068	-0.074
-169.896	800.000	-0.041	0.121
-168.881	-200.000	0.104	-0.666
-167.866	129.638	0.092	0.115
-166.852	678.770	-0.115	-0.293
-165.837	800.000	-0.017	0.049
-164.823	-200.000	0.009	0.151
-163.808	-200.000	-0.024	-0.110
-162.793	-116.046	0.264	0.048
-161.779	65.033	0.126	0.124
-160.764	317.755	-0.224	-0.415
-159.750	-200.000	-0.030	-0.275
-158.735	46.737	0.121	-0.110
-157.720	-103.499	0.334	0.077
-156.706	-155.914	-0.160	-0.010
-155.691	-47.872	0.234	0.111
-154.677	51.841	0.152	0.141
-153.662	800.000	0.056	-0.206
-152.647	185.862	-0.114	-0.166
-151.633	-162.134	0.042	0.002
-150.618	-200.000	-0.013	0.126
-149.604	-200.000	0.014	0.239
-148.589	-153.726	-0.280	0.019
-147.574	83.283	0.106	-0.113
-146.560	-87.664	0.311	0.092
-145.545	219.030	-0.046	-0.071
-144.531	277.265	-0.089	-0.155
-143.516	386.893	-0.198	-0.400
-142.502	204.137	0.256	-0.388
-141.487	-48.728	0.083	-0.039
-140.472	-39.297	0.103	0.053
-139.458	-200.000	-0.004	-0.110
-138.443	137.749	0.234	0.300
-137.429	-200.000	-0.017	0.154
-136.414	-200.000	0.060	-0.419
-135.399	-200.000	0.004	0.238
-134.385	96.460	0.128	0.143
-133.370	-82.735	0.226	-0.071
-132.356	598.774	-0.150	0.365
-131.341	-200.000	-0.008	0.092
-130.326	-6.578	0.475	0.316
-129.312	800.000	-0.054	0.171
-128.297	-115.786	-0.287	-0.053
-127.283	-200.000	0.021	0.114
-126.268	-37.090	0.243	0.127
-125.253	101.591	0.175	-0.200
-124.239	-200.000	0.019	-0.206
-123.224	-81.839	-0.436	-0.140
-122.210	23.765	0.102	0.082
-121.195	195.268	0.031	-0.047
-120.180	-128.594	0.210	0.029
-119.166	142.967	0.116	0.151
-118.151	-77.583	-0.384	0.130
-117.137	45.515	-0.086	0.078
-116.122	526.273	0.145	0.333
-115.107	-69.683	-0.178	0.066
-114.093	36.586	0.300	-0.259
-113.078	188.633	-0.057	-0.084
-112.064	-72.583	-0.226	0.082
-111.049	-10.080	-0.166	0.107
-110.034	23.933	-0.107	0.087
-109.020	-200.000	-0.011	-0.330
-108.005	20.850	0.218	-0.173
-106.991	-51.016	0.071	0.032
-105.976	-200.000	0.073	0.410
-104.962	113.223	0.124	0.147
-103.947	14.201	0.020	0.015
-102.932	-43.104	-0.313	-0.155
-101.918	800.000	-0.029	0.105
-100.903	-100.337	-0.203	0.049
-99.889	248.602	-0.028	-0.046
-98.874	-103.620	0.443	0.101
-97.859	592.523	0.007	-0.017
-96.845	199.166	-0.047	0.070
-95.830	-19.944	0.422	0.254
-94.816	-124.846	-0.238	0.036
-93.801	109.551	0.090	0.105
-92.786	46.760	0.132	-0.120
-91.772	110.453	-0.266	0.312
-90.757	-73.433	-0.309	0.110
-89.743	24.708	-0.209	0.169
-88.728	-110.110	0.229	0.047
-87.713	800.000	0.030	0.085
-86.699	-108.561	-0.265	-0.056
-85.684	78.432	0.129	-0.134
-84.670	6.660	-0.063	0.045
-83.655	29.495	-0.189	-0.157
-82.640	4.176	0.197	-0.141
-81.626	-45.974	-0.131	0.063
-80.611	2.794	0.278	-0.197
-79.597	-37.074	0.539	0.282
-78.582	-200.000	0.006	-0.244
-77.567	104.432	-0.223	0.256
-76.553	7.971	-0.187	-0.136
-75.538	-95.399	-0.115	-0.030
-74.524	-81.527	-0.080	0.026
-73.509	5.105	0.156	-0.112
-72.494	-63.630	0.064	0.026
-71.480	26.210	-0.075	0.061
-70.465	464.515	0.124	0.270
-69.451	54.310	0.076	0.071
-68.436	800.000	-0.069	0.270
-67.422	-200.000	0.000	0.009
-66.407	800.000	-0.059	0.165
-65.392	-200.000	-0.023	-0.214
-64.378	301.296	0.056	-0.101
-63.363	180.915	0.074	0.106
-62.349	-122.984	-0.219	0.034
-61.334	56.159	-1.076	-1.019
-60.319	18.727	0.715	0.558
-59.305	800.000	-0.364	-0.982
-58.290	195.913	0.819	1.215
-57.276	800.000	0.335	1.413
-56.261	-200.000	121.903	612.531
-55.246	392.341	1560.160	3161.389
-54.232	142.104	2733.182	3533.601
-53.217	88.779	2311.840	2506.263
-52.203	32.833	1917.255	1617.564
-51.188	26.999	1710.010	1397.888
-50.173	24.822	1669.561	1348.385
-49.159	44.756	1736.461	1556.719
-48.144	42.923	1748.937	1553.709
-47.130	26.530	1700.873	1386.607
-46.115	24.085	1685.472	1355.414
-45.100	23.922	1680.678	1350.267
-44.086	23.916	1678.423	1348.352
-43.071	23.866	1675.116	1345.264
-42.057	23.897	1672.737	1343.538
-41.042	23.921	1670.851	1342.145
-40.027	23.937	1668.877	1340.629
-39.013	23.946	1666.913	1339.066
-37.998	23.897	1665.500	1337.513
-36.984	23.932	1664.484	1336.905
-35.969	24.039	1662.517	1336.074
-34.954	23.991	1661.259	1334.655
-33.940	23.962	1659.983	1333.356
-32.925	24.009	1657.796	1331.895
-31.911	23.945	1656.344	1330.202
-30.896	23.998	1654.707	1329.226
-29.881	23.953	1653.781	1328.099
-28.867	23.993	1651.646	1326.624
-27.852	24.035	1650.262	1325.776
-26.838	24.124	1648.696	1325.126
-25.823	24.068	1647.439	1323.647
-24.809	24.161	1645.412	1322.654
-23.794	24.125	1644.312	1321.454
-22.779	24.100	1643.206	1320.324
-21.765	24.017	1641.682	1318.435
-20.750	24.024	1640.069	1317.136
-19.736	24.100	1638.186	1316.137
-18.721	24.029	1637.170	1314.743
-17.706	24.055	1635.518	1313.560
-16.692	24.017	1634.530	1312.434
-15.677	24.064	1632.592	1311.165
-14.663	24.124	1631.093	1310.355
-13.648	24.107	1629.533	1308.922
-12.633	24.009	1628.455	1307.286
-11.619	24.089	1626.969	1306.628
-10.604	24.081	1625.208	1305.101
-9.590	24.026	1623.771	1303.498
-8.575	24.023	1622.842	1302.677
-7.560	24.049	1621.309	1301.580
-6.546	24.125	1620.167	1301.170
-5.531	24.080	1619.523	1300.272
-4.517	24.073	1617.987	1298.936
-3.502	24.081	1616.974	1298.134
-2.487	24.109	1615.685	1297.252
-1.473	23.798	1603.884	1285.474
-0.458	21.299	1584.274	1251.826
0.556	16.521	1587.053	1223.537
1.571	14.552	1611.325	1227.659
2.586	14.277	1623.014	1234.418
3.600	12.971	1568.527	1183.507
4.615	7.118	1459.731	1062.147
5.629	1.512	1398.890	981.665
6.644	0.308	1392.659	969.463
7.659	0.247	1391.064	967.873
8.673	0.163	1390.459	966.829
9.688	0.122	1388.182	964.895
10.702	0.059	1384.801	962.058
11.717	2.907	1388.938	983.097
12.731	9.916	1399.702	1035.714
13.746	15.347	1407.584	1076.395
14.761	16.771	1408.713	1086.306
15.775	16.209	1406.849	1081.168
16.790	15.219	1404.535	1072.964
17.804	14.574	1401.915	1066.744
18.819	14.038	1400.708	1062.304
19.834	13.954	1399.048	1060.417
20.848	13.611	1398.286	1057.554
21.863	13.338	1396.716	1054.535
22.877	13.329	1395.007	1053.092
23.892	13.249	1394.378	1052.018
24.907	13.159	1393.455	1050.655
25.921	13.168	1392.870	1050.177
26.936	13.202	1392.191	1049.789
27.950	13.315	1390.564	1049.184
28.965	13.322	1389.898	1048.637
29.980	13.272	1389.118	1047.637
30.994	13.407	1388.013	1047.567
32.009	13.370	1387.228	1046.644
33.023	13.411	1386.015	1045.895
34.038	13.332	1384.504	1044.163
35.053	13.329	1383.744	1043.483
36.067	13.363	1382.280	1042.498
37.082	13.324	1381.614	1041.660
38.096	13.353	1380.208	1040.687
39.111	13.379	1379.405	1040.157
40.126	13.336	1379.000	1039.490
41.140	13.190	1378.054	1037.764
42.155	13.208	1377.613	1037.451
43.169	13.117	1377.436	1036.658
44.184	13.136	1377.208	1036.514
45.199	13.184	1376.611	1036.275
46.213	13.174	1376.174	1035.788
47.228	13.275	1375.208	1035.604
48.242	13.168	1373.697	1033.702
49.257	13.289	1372.225	1033.261
50.271	13.190	1371.091	1031.697
51.286	13.393	1369.219	1031.466
52.301	13.226	1367.969	1029.392
53.315	13.246	1367.013	1028.703
54.330	13.209	1365.822	1027.486
55.344	13.213	1364.327	1026.296
56.359	13.232	1363.187	1025.466
57.374	13.194	1362.482	1024.610
58.388	13.172	1361.569	1023.695
59.403	13.099	1361.504	1023.108
60.417	13.063	1360.597	1022.110
61.432	13.067	1359.515	1021.230
62.447	12.961	1358.711	1019.883
63.461	13.127	1356.918	1019.472
64.476	13.100	1356.374	1018.808
65.490	13.116	1354.817	1017.645
66.505	13.131	1353.378	1016.565
67.520	13.190	1351.957	1015.771
68.534	13.117	1350.959	1014.481
69.549	13.164	1349.808	1013.814
70.563	13.128	1349.150	1013.010
71.578	13.027	1347.729	1011.235
72.593	13.053	1346.733	1010.558
73.607	12.897	1346.509	1009.350
74.622	13.093	1345.266	1009.525
75.636	13.060	1344.459	1008.628
76.651	13.016	1343.559	1007.594
77.666	12.998	1343.237	1007.153
78.680	13.058	1342.524	1006.895
79.695	13.108	1341.536	1006.372
80.709	12.978	1341.182	1005.223
81.724	13.157	1340.104	1005.416
82.739	13.195	1338.899	1004.656
83.753	13.162	1338.399	1003.990
84.768	13.170	1337.311	1003.134
85.782	13.327	1335.439	1002.592
86.797	13.257	1334.501	1001.378
87.812	13.156	1333.282	999.763
88.826	13.188	1332.071	998.959
89.841	13.289	1330.795	998.522
90.855	13.200	1330.081	997.365
91.870	13.302	1329.326	997.324
92.884	13.351	1328.389	996.829
93.899	13.328	1327.770	996.136
94.914	13.408	1326.556	995.621
95.928	13.440	1325.395	994.849
96.943	13.353	1324.457	993.536
97.957	13.242	1324.395	992.736
98.972	13.213	1323.224	991.596
99.987	13.400	1320.913	990.893
101.001	13.340	1320.513	990.152
102.016	13.255	1319.703	988.946
103.030	13.338	1318.722	988.619
104.045	13.358	1317.642	987.842
105.060	13.231	1316.758	986.335
106.074	13.210	1315.106	984.887
107.089	13.259	1313.678	984.019
108.103	13.123	1312.410	982.171
109.118	13.274	1310.956	981.896
110.133	13.116	1310.033	980.177
111.147	13.146	1308.691	979.264
112.162	13.138	1307.488	978.232
113.176	13.237	1306.147	977.727
114.191	13.245	1305.239	977.009
115.206	13.338	1304.061	976.591
116.220	13.336	1302.420	975.266
117.235	13.300	1301.178	974.035
118.249	13.161	1301.070	973.051
119.264	13.259	1299.212	972.150
120.279	13.215	1298.613	971.358
121.293	13.233	1297.169	970.298
122.308	13.125	1296.330	968.949
123.322	13.212	1295.194	968.522
124.337	13.206	1294.029	967.536
125.352	13.301	1292.795	967.078
126.366	13.163	1291.781	965.429
127.381	13.270	1290.311	964.871
128.395	13.150	1289.816	963.713
129.410	13.198	1288.689	963.067
130.424	13.384	1287.512	963.186
131.439	13.255	1286.634	961.691
132.454	13.262	1286.040	961.205
133.468	13.207	1285.056	960.064
134.483	13.311	1284.110	959.876
135.497	13.175	1283.448	958.507
136.512	13.214	1282.025	957.586
137.527	13.285	1280.330	956.646
138.541	13.280	1278.681	955.301
139.556	13.356	1277.547	954.807
140.570	13.293	1276.881	953.861
141.585	13.360	1275.503	953.134
142.600	13.324	1274.675	952.221
143.614	13.361	1273.357	951.368
144.629	13.314	1272.324	950.239
145.643	13.459	1271.251	950.190
146.658	13.360	1269.988	948.593
147.673	13.387	1268.819	947.791
148.687	13.436	1266.973	946.606
149.702	13.360	1266.364	945.634
150.716	13.324	1265.171	944.454
151.731	13.301	1264.074	943.418
152.746	13.343	1262.817	942.641
153.760	13.550	1261.283	942.589
154.775	13.529	1260.057	941.469
155.789	13.526	1258.826	940.448
156.804	13.442	1258.144	939.377
157.819	13.519	1257.084	938.941
158.833	13.439	1256.416	937.909
159.848	13.543	1255.199	937.506
160.862	13.598	1254.202	936.990
161.877	13.524	1252.963	935.562
162.892	13.445	1251.949	934.278
163.906	13.455	1251.212	933.696
164.921	13.539	1250.012	933.193
165.935	13.533	1249.552	932.734
166.950	13.505	1248.674	931.838
167.964	13.513	1247.929	931.247
168.979	13.588	1246.796	930.737
169.994	13.566	1246.311	930.172
171.008	13.588	1245.803	929.835
172.023	13.704	1244.337	929.305
173.037	13.630	1244.044	928.592
174.052	13.693	1242.551	927.744
175.067	13.654	1242.115	927.121
176.081	13.623	1240.760	925.855
177.096	13.698	1239.740	925.428
178.110	13.587	1239.172	924.303
179.125	13.610	1237.754	923.293
180.140	13.688	1236.345	922.593
181.154	13.692	1234.895	921.451
182.169	13.744	1234.081	921.055
183.183	13.838	1232.542	920.347
184.198	13.697	1231.901	919.004
185.213	13.705	1230.696	918.069
186.227	13.782	1229.425	917.464
187.242	13.724	1228.478	916.358
188.256	13.828	1227.266	915.943
189.271	13.813	1226.391	915.127
190.286	13.789	1225.297	914.100
191.300	13.673	1224.828	913.030
192.315	13.726	1223.575	912.304
193.329	13.618	1223.499	911.571
194.344	13.908	1222.184	912.107
195.359	13.879	1221.715	911.516
196.373	13.804	1221.807	911.094
197.388	13.844	1221.245	910.813
198.402	13.953	1220.520	910.787
199.417	13.908	1220.192	910.217
200.432	14.042	1219.048	910.014
201.446	14.135	1218.114	909.745
202.461	14.121	1217.316	908.995
203.475	14.133	1216.163	908.121
204.490	14.047	1214.881	906.610
205.504	14.085	1213.780	905.918
206.519	14.101	1212.566	905.016
207.534	14.066	1211.664	904.073
208.548	14.110	1210.561	903.410
209.563	14.066	1209.728	902.470
210.577	14.140	1209.337	902.502
211.592	14.201	1208.035	901.780
212.607	14.157	1207.480	901.048
213.621	14.134	1206.711	900.270
214.636	14.161	1205.678	899.562
215.650	14.083	1204.788	898.400
216.665	14.296	1203.899	898.805
217.680	14.267	1203.060	897.946
218.694	14.265	1202.150	897.177
219.709	14.331	1200.807	896.448
220.723	14.397	1200.415	896.429
221.738	14.395	1199.517	895.672
222.753	14.360	1198.821	894.886
223.767	14.302	1198.636	894.356
224.782	14.448	1197.783	894.424
225.796	14.391	1197.010	893.461
226.811	14.429	1196.190	892.973
227.826	14.383	1195.741	892.313
228.840	14.436	1194.782	891.804
229.855	14.396	1194.218	891.090
230.869	14.392	1193.505	890.453
231.884	14.337	1192.847	889.594
232.899	14.347	1191.728	888.731
233.913	14.461	1190.856	888.611
234.928	14.352	1190.461	887.657
235.942	14.296	1189.747	886.750
236.957	14.451	1188.578	886.625
237.972	14.424	1187.965	885.941
238.986	14.372	1187.468	885.220
240.001	14.388	1186.827	884.749
241.015	14.465	1185.811	884.322
242.030	14.490	1184.577	883.454
243.045	14.546	1183.950	883.204
244.059	14.529	1183.226	882.495
245.074	14.508	1182.269	881.595
246.088	14.692	1181.230	881.712
247.103	14.653	1180.494	880.881
248.117	14.671	1179.773	880.360
249.132	14.710	1179.065	879.960
250.147	14.560	1178.846	878.925
251.161	14.780	1177.647	879.113
252.176	14.792	1176.636	878.345
253.190	14.806	1176.325	878.109
254.205	14.845	1175.775	877.821
255.220	14.849	1175.413	877.495
256.234	14.786	1174.647	876.516
257.249	14.926	1173.796	876.537
258.263	14.919	1173.039	875.859
259.278	14.811	1172.779	875.018
260.293	14.947	1172.327	875.319
261.307	14.954	1171.496	874.656
262.322	15.008	1170.581	874.178
263.336	14.977	1170.240	873.686
264.351	15.047	1169.341	873.298
265.366	15.077	1169.102	873.202
266.380	15.021	1168.092	872.078
267.395	15.031	1167.228	871.406
268.409	15.009	1166.531	870.694
269.424	15.026	1165.572	869.993
270.439	15.052	1165.429	869.941
271.453	15.080	1164.351	869.208
272.468	15.029	1163.789	868.446
273.482	14.992	1163.165	867.710
274.497	15.120	1162.268	867.627
275.512	15.093	1161.679	866.973
276.526	15.128	1160.639	866.301
277.541	15.064	1160.100	865.490
278.555	15.170	1159.468	865.489
279.570	15.228	1158.444	864.950
280.585	15.306	1157.119	864.286
281.599	15.286	1156.443	863.600
282.614	15.250	1155.731	862.807
283.628	15.160	1154.552	861.390
284.643	15.368	1153.458	861.561
285.657	15.256	1153.045	860.605
286.672	15.342	1151.645	859.924
287.687	15.321	1151.035	859.286
288.701	15.321	1150.275	858.641
289.716	15.327	1149.600	858.092
290.730	15.232	1148.915	857.017
291.745	15.423	1147.482	856.850
292.760	15.377	1147.309	856.412
293.774	15.369	1146.978	856.043
294.789	15.429	1146.589	855.987
295.803	15.450	1145.566	855.253
296.818	15.396	1145.127	854.574
297.833	15.475	1143.767	853.889
298.847	15.474	1143.195	853.381
299.862	15.455	1142.230	852.489
300.876	15.504	1141.427	852.060
301.891	15.546	1141.216	852.042
302.906	15.603	1140.084	851.410
303.920	15.594	1139.720	851.017
304.935	15.590	1138.859	850.279
305.949	15.606	1138.485	850.004
306.964	15.706	1137.787	849.914
307.979	15.699	1136.853	849.107
308.993	15.712	1135.759	848.281
310.008	15.688	1134.868	847.418
311.022	15.656	1134.401	846.834
312.037	15.688	1133.779	846.454
313.052	15.702	1132.835	845.746
314.066	15.676	1132.147	845.028
315.081	15.717	1131.128	844.398
316.095	15.657	1130.193	843.324
317.110	15.739	1129.584	843.203
318.125	15.703	1128.994	842.509
319.139	15.695	1128.143	841.760
320.154	15.645	1127.694	841.102
321.168	15.680	1127.119	840.772
322.183	15.755	1126.443	840.566
323.197	15.814	1125.528	840.104
324.212	15.785	1125.317	839.727
325.227	15.745	1124.950	839.179
326.241	15.893	1123.233	838.563
327.256	15.794	1122.981	837.805
328.270	15.815	1122.239	837.284
329.285	15.674	1121.270	835.787
330.300	15.699	1120.322	835.132
331.314	15.815	1119.425	834.964
332.329	15.905	1118.540	834.675
333.343	15.887	1117.805	833.962
334.358	15.892	1116.576	832.996
335.373	15.915	1115.655	832.353
336.387	15.987	1114.875	832.051
337.402	16.080	1114.136	831.884
338.416	16.086	1113.438	831.317
339.431	16.056	1112.944	830.727
340.446	16.076	1112.525	830.439
341.460	16.064	1112.202	830.065
342.475	16.024	1110.660	828.646
343.489	16.169	1109.818	828.657
344.504	16.175	1108.817	827.867
345.519	16.302	1107.554	827.470
346.533	16.227	1107.164	826.740
347.548	16.337	1106.286	826.548
348.562	16.227	1105.843	825.610
349.577	16.138	1105.235	824.643
350.592	16.177	1104.206	823.997
351.606	16.212	1103.336	823.444
352.621	16.131	1103.009	822.731
353.635	16.165	1102.309	822.304
354.650	16.205	1101.325	821.691
355.665	16.409	1100.317	821.858
356.679	16.264	1099.770	820.674
357.694	16.295	1099.269	820.376
358.708	16.292	1098.396	819.640
359.723	16.275	1098.065	819.235
360.738	16.369	1097.023	818.843
361.752	16.329	1096.616	818.271
362.767	16.367	1096.270	818.125
363.781	16.435	1095.613	817.892
364.796	16.331	1095.233	817.030
365.810	16.500	1094.180	816.991
366.825	16.591	1093.563	816.899
367.840	16.495	1093.653	816.427
368.854	16.609	1092.653	816.161
369.869	16.599	1091.935	815.501
370.883	16.634	1090.950	814.863
371.898	16.614	1090.249	814.174
372.913	16.626	1089.632	813.698
373.927	16.644	1089.162	813.358
374.942	16.704	1088.238	812.887
375.956	16.719	1087.623	812.429
376.971	16.707	1087.553	812.246
377.986	16.696	1087.180	811.841
379.000	16.689	1086.459	811.197
380.015	16.668	1086.345	810.939
381.029	16.642	1085.425	810.058
382.044	16.833	1084.464	810.181
383.059	16.800	1083.524	809.250
384.073	16.945	1082.662	809.227
385.088	16.907	1081.999	808.479
386.102	16.825	1080.764	807.095
387.117	16.864	1080.197	806.786
388.132	16.901	1079.198	806.144
389.146	16.856	1078.346	805.222
390.161	16.804	1077.579	804.333
391.175	16.778	1077.007	803.709
392.190	16.773	1076.526	803.254
393.205	16.858	1075.505	802.824
394.219	16.935	1074.649	802.481
395.234	16.933	1073.517	801.555
396.248	16.888	1072.599	800.584
397.263	16.965	1071.807	800.287
398.278	16.820	1071.218	799.091
399.292	16.879	1070.789	798.980
400.307	17.030	1069.602	798.734
401.321	16.770	1069.379	797.274
402.336	16.810	1068.668	796.859
403.350	16.987	1067.413	796.687
404.365	16.935	1066.882	795.973
405.380	16.910	1066.597	795.573
406.394	16.962	1065.512	794.937
407.409	17.095	1064.523	794.754
408.423	17.086	1064.269	794.450
409.438	17.158	1063.599	794.217
410.453	17.156	1062.833	793.564
411.467	17.264	1061.587	793.067
412.482	17.270	1061.149	792.699
413.496	17.230	1060.493	791.955
414.511	17.385	1059.762	792.061
415.526	17.402	1059.344	791.755
416.540	17.297	1058.949	790.902
417.555	17.347	1058.587	790.794
418.569	17.335	1058.170	790.356
419.584	17.469	1057.243	790.214
420.599	17.445	1056.917	789.791
421.613	107.151	1329.861	1486.517
422.628	98.802	1369.574	1486.587
