DTS Sentinel unit serial number:	SN413079Multiplexer serial number:	ORYXHardware model number:	OX4-SRSoftware version number:	ORYX F/W v4.00 Oryx Data Collector v3.7.2.0data status	okinstallation	princeton_trtdifferential loss correction	single-endedforward channel	channel 2reverse channel	N/Adate	2019/09/13time	05:59:35forward acquisition time	60.00reverse acquisition time	0.00gamma	496.2192k internal	0.2338k external	0.2338temperature offset calibration	1.0193default loss term (dB/km)	0.3790temperature slope calibration	1.0000multiplexer offset coefficient	1.0000multiplexer slope coefficient	1.0000fibre end	0.00T internal ref (°C)	26.16T ext. ref 1 (°C)	4.08T ext. ref 2 (°C)	20.97length (m)	temperature (°C)	Stokes	anti-Stokes-747.200	243.506	-0.166	0.279
-746.185	318.614	-0.092	-0.174
-745.171	-137.874	-0.102	0.011
-744.156	-68.511	-0.164	0.064
-743.142	103.913	-0.045	-0.053
-742.127	-84.320	0.180	0.057
-741.112	-200.000	0.082	-0.546
-740.098	-163.311	-0.097	-0.005
-739.083	334.926	0.107	-0.207
-738.069	-200.000	-0.016	-0.201
-737.054	125.569	-0.106	0.134
-736.039	38.218	-0.387	-0.346
-735.025	189.477	0.216	-0.326
-734.010	-41.561	-0.238	-0.123
-732.996	-86.869	0.061	-0.019
-731.981	116.130	-0.236	0.290
-730.966	-37.428	-0.127	-0.068
-729.952	224.320	-0.130	-0.211
-728.937	-84.896	-0.168	-0.053
-727.923	78.425	0.119	-0.128
-726.908	36.906	0.046	0.041
-725.894	280.784	-0.188	0.337
-724.879	-130.720	0.087	-0.012
-723.864	-45.375	-0.171	0.085
-722.850	-200.000	-0.009	-0.316
-721.835	-33.301	-0.133	0.074
-720.821	9.945	-0.186	-0.141
-719.806	46.181	-0.043	0.040
-718.791	-32.076	-0.072	-0.040
-717.777	-7.388	-0.204	-0.139
-716.762	-95.755	-0.167	0.045
-715.748	-26.354	0.316	0.186
-714.733	-15.434	0.259	-0.166
-713.718	800.000	0.054	-0.214
-712.704	-187.177	0.200	0.003
-711.689	-106.469	0.160	-0.036
-710.675	-200.000	0.010	-0.083
-709.660	-170.027	0.292	-0.010
-708.645	182.381	-0.232	0.343
-707.631	-33.802	-0.144	-0.080
-706.616	42.032	0.104	0.095
-705.602	71.205	-0.144	-0.150
-704.587	-63.843	-0.112	-0.046
-703.572	-200.000	-0.031	0.196
-702.558	-200.000	0.022	0.234
-701.543	-200.000	-0.010	0.331
-700.529	-20.624	0.205	0.126
-699.514	-143.579	-0.118	0.011
-698.499	800.000	-0.041	0.172
-697.485	800.000	0.075	-0.270
-696.470	-28.650	0.164	-0.095
-695.456	-80.386	-0.491	0.164
-694.441	39.950	0.055	-0.050
-693.426	-69.658	-0.253	-0.097
-692.412	-200.000	0.031	0.182
-691.397	55.696	-0.038	0.037
-690.383	415.357	-0.211	0.450
-689.368	800.000	0.066	-0.248
-688.354	130.095	-0.091	-0.117
-687.339	37.941	0.102	-0.091
-686.324	52.979	-0.335	-0.321
-685.310	800.000	0.093	-0.337
-684.295	-67.953	-0.260	-0.102
-683.281	-94.122	-0.237	-0.065
-682.266	788.170	-0.093	-0.254
-681.251	8.481	-0.309	0.232
-680.237	685.950	0.074	-0.192
-679.222	-200.000	0.331	-0.001
-678.208	-42.157	-0.337	-0.173
-677.193	-173.519	-0.318	0.010
-676.178	-200.000	-0.025	-0.312
-675.164	-20.590	-0.041	0.025
-674.149	-127.847	-0.106	-0.015
-673.135	-200.000	0.028	-0.217
-672.120	58.633	-0.178	0.175
-671.105	-14.270	-0.206	0.133
-670.091	-8.328	-0.197	-0.133
-669.076	383.659	-0.073	0.150
-668.062	-200.000	0.047	0.226
-667.047	-200.000	-0.003	-0.298
-666.032	-10.747	0.268	0.177
-665.018	-84.422	-0.159	-0.050
-664.003	-10.952	-0.193	-0.127
-662.989	-59.528	0.387	-0.166
-661.974	105.221	-0.154	-0.181
-660.959	-105.455	0.246	0.056
-659.945	-200.000	-0.017	-0.219
-658.930	-200.000	-0.008	0.210
-657.916	-200.000	-0.021	0.197
-656.901	800.000	0.058	0.179
-655.886	-33.219	0.411	-0.228
-654.872	415.825	-0.100	0.213
-653.857	-200.000	0.021	-0.245
-652.843	639.627	-0.075	0.190
-651.828	-152.806	0.225	-0.016
-650.814	-200.000	0.007	0.098
-649.799	-114.524	-0.131	0.025
-648.784	-80.750	-0.154	0.051
-647.770	55.523	0.187	0.181
-646.755	12.710	-0.123	-0.095
-645.741	-24.767	-0.209	0.124
-644.726	54.735	-0.190	0.183
-643.711	42.774	-0.454	0.414
-642.697	87.643	0.038	0.043
-641.682	190.318	0.235	0.353
-640.668	-69.059	0.119	-0.046
-639.653	318.497	-0.144	0.273
-638.638	-128.845	0.317	0.045
-637.624	-200.000	-0.009	0.267
-636.609	-200.000	0.003	-0.106
-635.595	111.114	0.067	-0.081
-634.580	35.417	0.351	-0.308
-633.565	62.292	0.138	0.138
-632.551	-200.000	-0.043	-0.213
-631.536	8.893	-0.044	0.033
-630.522	646.652	-0.052	0.132
-629.507	-114.950	0.043	-0.008
-628.492	-200.000	0.004	-0.164
-627.478	21.463	-0.154	-0.125
-626.463	334.536	0.073	-0.142
-625.449	6.015	-0.116	-0.086
-624.434	-35.067	-0.149	-0.081
-623.419	36.435	-0.220	-0.194
-622.405	-86.119	0.072	-0.022
-621.390	4.041	-0.326	0.238
-620.376	52.561	0.309	0.295
-619.361	-172.649	-0.201	-0.006
-618.346	800.000	-0.113	-0.414
-617.332	-22.919	0.023	0.014
-616.317	800.000	-0.054	0.165
-615.303	-100.979	-0.023	-0.006
-614.288	189.829	0.226	-0.339
-613.273	16.905	0.070	0.056
-612.259	800.000	0.078	-0.327
-611.244	97.598	-0.180	0.207
-610.230	97.406	-0.119	0.136
-609.215	-67.335	0.199	0.078
-608.201	207.649	0.081	-0.127
-607.186	-132.011	0.064	-0.008
-606.171	-200.000	0.000	-0.085
-605.157	-36.256	-0.063	-0.034
-604.142	90.283	0.112	0.125
-603.128	-69.432	-0.342	-0.131
-602.113	800.000	-0.092	-0.337
-601.098	158.606	0.131	0.182
-600.084	295.484	-0.108	-0.197
-599.069	800.000	-0.078	0.291
-598.055	-34.153	0.327	0.180
-597.040	-18.039	0.315	-0.197
-596.025	-57.491	-0.127	0.055
-595.011	116.036	0.208	0.255
-593.996	655.207	0.030	0.076
-592.982	-200.000	-0.022	0.168
-591.967	-124.545	0.088	0.014
-590.952	277.168	-0.131	0.233
-589.938	793.359	0.031	0.086
-588.923	-14.308	-0.309	0.199
-587.909	344.519	-0.072	-0.142
-586.894	568.265	-0.144	0.349
-585.879	-89.402	0.204	0.060
-584.865	-24.100	0.123	-0.073
-583.850	-200.000	-0.007	0.088
-582.836	95.614	0.072	-0.082
-581.821	68.300	0.168	-0.171
-580.806	-22.117	-0.151	0.091
-579.792	800.000	0.018	0.067
-578.777	134.673	0.180	0.233
-577.763	23.252	0.082	-0.067
-576.748	-148.297	-0.097	-0.008
-575.733	-23.246	-0.344	-0.206
-574.719	72.601	0.129	-0.134
-573.704	0.828	0.165	-0.118
-572.690	518.529	0.136	-0.318
-571.675	35.070	0.132	-0.115
-570.661	78.511	0.267	0.285
-569.646	188.128	-0.054	-0.080
-568.631	-28.631	-0.122	0.070
-567.617	-157.749	0.169	0.010
-566.602	-190.761	-0.344	-0.004
-565.588	-141.087	-0.260	0.026
-564.573	-127.416	0.363	-0.053
-563.558	-62.303	0.313	0.130
-562.544	21.409	0.017	0.014
-561.529	-83.097	-0.273	0.087
-560.515	36.161	-0.112	0.099
-559.500	222.092	-0.141	0.226
-558.485	-12.321	-0.061	0.040
-557.471	800.000	0.076	0.309
-556.456	-200.000	-0.052	-0.292
-555.442	-181.727	0.221	0.004
-554.427	-200.000	-0.062	-0.321
-553.412	196.839	-0.137	-0.209
-552.398	800.000	-0.039	-0.114
-551.383	800.000	0.091	0.293
-550.369	800.000	-0.048	-0.138
-549.354	-46.169	0.135	0.066
-548.339	-174.296	0.245	-0.007
-547.325	800.000	-0.042	-0.129
-546.310	-34.592	0.237	0.129
-545.296	-15.390	-0.138	0.088
-544.281	-200.000	0.008	0.139
-543.266	-200.000	0.008	-0.200
-542.252	10.862	-0.236	-0.180
-541.237	-6.081	-0.203	-0.138
-540.223	-145.628	-0.364	-0.032
-539.208	6.166	0.426	0.314
-538.193	-113.023	0.383	-0.075
-537.179	16.280	0.358	0.281
-536.164	-110.318	0.348	0.072
-535.150	-200.000	-0.022	0.343
-534.135	346.089	0.063	0.124
-533.121	-105.341	-0.305	0.069
-532.106	-55.490	-0.157	0.070
-531.091	97.712	-0.139	-0.159
-530.077	-72.778	0.168	-0.062
-529.062	-43.795	-0.110	-0.055
-528.048	-172.247	-0.504	0.016
-527.033	-200.000	0.007	0.048
-526.018	3.656	-0.188	0.137
-525.004	704.918	-0.062	0.163
-523.989	22.775	-0.276	0.225
-522.975	56.956	-0.223	-0.217
-521.960	-108.111	0.104	-0.022
-520.945	156.270	-0.219	0.301
-519.931	37.060	-0.274	-0.241
-518.916	-81.637	-0.195	0.064
-517.902	-107.146	-0.238	0.052
-516.887	33.186	-0.193	0.166
-515.872	46.041	-0.095	0.087
-514.858	407.880	-0.151	-0.318
-513.843	-174.946	0.083	-0.002
-512.829	160.829	-0.080	0.111
-511.814	155.509	0.282	0.387
-510.799	378.654	-0.089	-0.181
-509.785	145.754	0.207	0.275
-508.770	-200.000	0.011	0.173
-507.756	-80.926	-0.237	-0.078
-506.741	-51.276	0.208	-0.097
-505.726	-109.799	0.306	0.064
-504.712	498.885	0.082	0.188
-503.697	-200.000	-0.023	0.366
-502.683	-42.223	-0.112	0.057
-501.668	-100.078	0.301	-0.075
-500.653	488.130	0.074	-0.168
-499.639	227.118	0.124	0.201
-498.624	800.000	-0.086	-0.252
-497.610	-200.000	-0.001	0.223
-496.595	73.081	-0.256	-0.266
-495.581	466.688	0.035	-0.077
-494.566	800.000	-0.107	0.331
-493.551	-34.897	-0.143	0.077
-492.537	482.099	0.007	0.017
-491.522	-26.079	0.102	-0.060
-490.508	-105.455	-0.279	0.063
-489.493	-200.000	0.016	-0.429
-488.478	-200.000	0.068	-0.376
-487.464	104.848	0.212	-0.249
-486.449	-200.000	-0.020	0.102
-485.435	82.185	0.159	0.171
-484.420	14.747	0.209	0.163
-483.405	-140.591	0.130	0.013
-482.391	-147.806	-0.258	-0.021
-481.376	-113.880	0.322	0.062
-480.362	-63.781	-0.220	-0.089
-479.347	96.240	-0.110	-0.125
-478.332	-200.000	-0.004	0.268
-477.318	-26.451	0.447	0.260
-476.303	800.000	0.101	0.438
-475.289	-168.290	0.203	-0.008
-474.274	-200.000	0.016	0.104
-473.259	800.000	0.054	0.227
-472.245	126.262	-0.187	-0.235
-471.230	-61.678	-0.190	0.079
-470.216	436.483	-0.031	0.068
-469.201	457.045	-0.178	-0.393
-468.186	517.665	0.063	0.146
-467.172	225.655	0.146	0.234
-466.157	-200.000	0.194	0.001
-465.143	-41.214	-0.055	-0.028
-464.128	-156.515	0.179	0.011
-463.113	205.401	-0.063	-0.097
-462.099	-90.966	-0.197	-0.056
-461.084	718.976	-0.142	0.374
-460.070	203.550	0.070	0.107
-459.055	-200.000	0.002	0.272
-458.040	208.916	0.039	-0.061
-457.026	-28.659	-0.192	-0.110
-456.011	388.807	-0.033	-0.068
-454.997	-4.969	0.294	-0.201
-453.982	-67.383	0.290	-0.113
-452.968	-200.000	0.017	-0.188
-451.953	800.000	0.049	0.150
-450.938	-45.216	0.104	0.051
-449.924	196.120	0.164	-0.247
-448.909	-67.724	-0.460	0.179
-447.895	-84.054	-0.148	0.047
-446.880	-200.000	0.313	-0.001
-445.865	36.118	0.179	0.156
-444.851	70.707	-0.080	0.082
-443.836	470.476	-0.140	-0.312
-442.822	-184.445	0.399	-0.006
-441.807	-130.495	0.315	-0.042
-440.792	-200.000	-0.042	0.361
-439.778	-57.274	0.230	0.100
-438.763	358.598	-0.061	-0.120
-437.749	-67.689	0.068	-0.026
-436.734	800.000	-0.065	-0.212
-435.719	97.373	0.227	-0.259
-434.705	-47.501	0.142	-0.068
-433.690	-200.000	-0.000	0.197
-432.676	324.893	-0.032	0.061
-431.661	-103.556	0.146	-0.034
-430.646	-50.854	-0.308	0.144
-429.632	-200.000	0.009	-0.063
-428.617	800.000	0.018	-0.068
-427.603	-64.846	-0.286	-0.115
-426.588	-19.478	0.266	-0.164
-425.573	-200.000	0.034	-0.202
-424.559	709.119	-0.182	-0.476
-423.544	302.652	0.128	-0.236
-422.530	-119.828	-0.333	-0.057
-421.515	-109.472	-0.050	0.010
-420.500	-158.125	0.262	-0.015
-419.486	-200.000	0.016	0.089
-418.471	66.419	0.140	0.141
-417.457	385.110	0.054	-0.110
-416.442	-200.000	0.013	-0.473
-415.428	-149.309	0.230	-0.018
-414.413	-106.091	0.161	-0.036
-413.398	15.118	-0.188	0.146
-412.384	-24.241	-0.074	-0.044
-411.369	-56.584	-0.127	-0.056
-410.355	800.000	-0.049	-0.197
-409.340	237.457	0.147	-0.241
-408.325	-109.060	0.295	-0.062
-407.311	-91.487	-0.205	0.058
-406.296	-200.000	-0.006	-0.125
-405.282	-200.000	-0.024	-0.350
-404.267	153.237	0.115	0.156
-403.252	-109.633	-0.232	0.048
-402.238	108.232	-0.091	0.108
-401.223	800.000	0.112	-0.390
-400.209	389.822	-0.153	0.313
-399.194	800.000	-0.065	0.214
-398.179	800.000	0.119	-0.342
-397.165	-200.000	0.021	0.209
-396.150	561.309	-0.060	-0.145
-395.136	-19.498	0.121	0.074
-394.121	-74.283	0.309	0.110
-393.106	149.992	0.105	-0.140
-392.092	-48.099	-0.409	-0.196
-391.077	762.118	-0.101	0.272
-390.063	22.700	0.280	-0.227
-389.048	-99.471	-0.266	-0.066
-388.033	-150.128	0.374	0.029
-387.019	-48.277	0.100	0.048
-386.004	736.660	0.051	-0.135
-384.990	-200.000	-0.038	-0.231
-383.975	-6.282	0.230	0.156
-382.960	800.000	-0.154	0.449
-381.946	-32.535	-0.156	-0.086
-380.931	-131.569	-0.059	0.008
-379.917	57.066	0.073	-0.070
-378.902	-200.000	0.010	0.317
-377.888	-200.000	-0.056	-0.304
-376.873	-60.326	0.100	0.042
-375.858	-200.000	0.004	-0.171
-374.844	-73.453	-0.308	-0.111
-373.829	-105.347	-0.172	-0.039
-372.815	-200.000	-0.027	0.130
-371.800	305.736	0.091	0.168
-370.785	1.935	-0.149	-0.107
-369.771	228.019	-0.046	-0.073
-368.756	800.000	0.063	0.192
-367.742	-2.986	-0.267	-0.184
-366.727	-81.806	-0.081	0.026
-365.712	-67.053	0.251	-0.098
-364.698	-73.464	0.180	0.065
-363.683	-180.553	0.244	-0.005
-362.669	253.335	-0.047	-0.080
-361.654	-87.134	-0.306	0.092
-360.639	-85.195	0.059	0.018
-359.625	-129.729	0.287	0.039
-358.610	-200.000	-0.006	-0.155
-357.596	2.634	0.115	0.082
-356.581	800.000	0.078	0.216
-355.566	-28.350	0.098	0.056
-354.552	-31.377	-0.275	0.153
-353.537	-30.056	-0.221	-0.124
-352.523	-160.333	0.311	0.017
-351.508	-92.278	-0.188	-0.052
-350.493	-200.000	-0.000	-0.231
-349.479	234.075	-0.078	-0.127
-348.464	-108.665	0.070	0.015
-347.450	71.825	0.122	0.125
-346.435	-56.163	0.139	-0.061
-345.420	-88.570	0.229	0.067
-344.406	274.357	0.111	0.195
-343.391	-68.221	-0.261	0.100
-342.377	-48.474	-0.194	0.092
-341.362	-25.224	-0.275	0.161
-340.348	308.705	-0.155	0.285
-339.333	34.565	0.332	0.286
-338.318	259.430	0.049	-0.083
-337.304	278.451	-0.060	0.106
-336.289	-200.000	-0.009	-0.282
-335.275	147.958	-0.187	-0.249
-334.260	54.360	-0.130	-0.123
-333.245	-60.043	0.156	-0.066
-332.231	-126.746	-0.298	-0.044
-331.216	87.124	0.175	-0.190
-330.202	-200.000	0.030	0.271
-329.187	-200.000	-0.028	-0.236
-328.172	181.593	0.082	-0.119
-327.158	87.529	-0.109	-0.119
-326.143	499.235	-0.158	0.360
-325.129	729.766	-0.016	-0.043
-324.114	5.361	0.062	0.045
-323.099	128.765	-0.335	0.422
-322.085	82.483	-0.284	-0.304
-321.070	-200.000	0.004	-0.027
-320.056	-129.762	-0.219	-0.030
-319.041	-78.934	0.161	-0.054
-318.026	31.958	0.128	-0.109
-317.012	-200.000	-0.016	0.088
-315.997	-200.000	-0.028	-0.394
-314.983	95.233	0.181	0.203
-313.968	499.787	-0.073	-0.167
-312.953	177.384	0.202	-0.290
-311.939	526.395	0.047	0.109
-310.924	71.433	-0.093	0.096
-309.910	-14.899	0.294	-0.186
-308.895	-40.502	-0.271	-0.139
-307.880	-200.000	0.012	-0.147
-306.866	-47.902	0.453	0.216
-305.851	2.657	0.226	-0.161
-304.837	69.443	0.216	-0.220
-303.822	190.669	0.084	0.125
-302.807	-200.000	0.007	0.378
-301.793	-119.248	-0.305	-0.052
-300.778	-9.804	0.060	-0.039
-299.764	-200.000	0.072	0.397
-298.749	146.276	-0.161	-0.214
-297.735	-55.451	-0.244	0.108
-296.720	-83.579	-0.239	0.075
-295.705	-41.815	-0.478	-0.242
-294.691	-200.000	-0.004	-0.160
-293.676	-126.801	-0.269	0.039
-292.662	-60.173	0.116	-0.049
-291.647	-39.698	-0.100	0.051
-290.632	122.943	-0.057	0.070
-289.618	338.890	-0.108	-0.207
-288.603	-200.000	0.062	0.277
-287.589	-157.162	-0.640	0.038
-286.574	374.012	0.132	0.264
-285.559	-49.378	0.136	0.064
-284.545	-110.930	-0.147	-0.030
-283.530	216.998	0.055	0.087
-282.516	-200.000	-0.011	-0.153
-281.501	-86.917	0.107	-0.032
-280.486	-108.119	-0.299	-0.064
-279.472	-72.533	0.190	0.069
-278.457	-52.641	-0.160	-0.073
-277.443	-90.278	-0.393	0.113
-276.428	-200.000	0.026	-0.312
-275.413	-200.000	0.027	0.202
-274.399	718.955	-0.159	-0.416
-273.384	201.376	-0.098	0.149
-272.370	34.508	-0.143	0.123
-271.355	-200.000	-0.016	-0.300
-270.340	-200.000	0.050	-0.425
-269.326	-200.000	0.011	-0.075
-268.311	-200.000	0.018	-0.170
-267.297	27.329	0.012	0.010
-266.282	315.851	0.213	-0.396
-265.267	800.000	-0.066	-0.191
-264.253	13.160	-0.279	-0.213
-263.238	45.593	0.314	0.286
-262.224	444.712	0.139	0.301
-261.209	-148.989	0.201	0.016
-260.195	43.922	0.178	-0.161
-259.180	445.453	0.202	-0.438
-258.165	800.000	-0.058	-0.176
-257.151	800.000	-0.060	0.188
-256.136	-200.000	-0.020	-0.213
-255.122	318.788	0.047	0.087
-254.107	157.648	-0.228	0.311
-253.092	800.000	0.081	-0.298
-252.078	-128.330	-0.175	0.025
-251.063	136.535	0.249	0.320
-250.049	-117.230	-0.337	-0.060
-249.034	-102.835	0.401	0.094
-248.019	-169.444	0.084	0.003
-247.005	85.856	-0.021	0.022
-245.990	-133.379	-0.111	-0.014
-244.976	-119.386	-0.272	0.047
-243.961	336.692	-0.060	0.115
-242.946	35.408	-0.143	-0.124
-241.932	-200.000	0.009	0.111
-240.917	-71.366	-0.250	-0.092
-239.903	149.242	-0.202	0.269
-238.888	-48.804	0.209	0.099
-237.873	387.501	-0.131	0.266
-236.859	685.477	0.131	-0.337
-235.844	-200.000	0.074	-0.332
-234.830	-31.977	0.238	0.131
-233.815	166.939	-0.075	-0.105
-232.800	430.980	0.147	0.312
-231.786	218.585	0.081	-0.127
-230.771	27.333	0.168	0.139
-229.757	-143.976	-0.286	-0.026
-228.742	-200.000	-0.030	0.233
-227.727	-79.518	0.067	0.022
-226.713	800.000	-0.059	-0.237
-225.698	-141.962	-0.176	0.017
-224.684	26.627	-0.185	0.152
-223.669	-156.436	-0.178	0.011
-222.655	223.810	0.040	0.064
-221.640	167.786	0.090	-0.126
-220.625	426.430	0.163	-0.346
-219.611	-33.343	0.031	-0.017
-218.596	62.473	0.185	0.182
-217.582	-81.138	0.269	-0.087
-216.567	29.863	0.138	-0.116
-215.552	15.066	0.192	-0.148
-214.538	-119.847	-0.305	0.052
-213.523	180.411	-0.147	-0.212
-212.509	-76.543	0.054	0.019
-211.494	-30.380	-0.171	-0.095
-210.479	238.397	-0.129	-0.211
-209.465	-200.000	-0.044	0.302
-208.450	-44.199	0.081	0.040
-207.436	41.134	-0.042	-0.037
-206.421	-200.000	-0.061	0.305
-205.406	-167.850	-0.205	-0.008
-204.392	-200.000	-0.012	0.201
-203.377	118.588	-0.072	-0.087
-202.363	-104.110	-0.135	-0.031
-201.348	-147.713	0.258	-0.021
-200.333	109.379	0.101	0.119
-199.319	-22.511	0.184	0.109
-198.304	-6.400	-0.149	-0.100
-197.290	4.049	0.222	0.159
-196.275	149.281	-0.252	0.335
-195.260	-45.080	-0.242	-0.118
-194.246	35.296	-0.251	-0.216
-193.231	-137.425	0.302	0.034
-192.217	-181.943	0.361	-0.007
-191.202	-42.502	0.267	0.134
-190.187	207.764	0.089	-0.136
-189.173	-145.340	0.178	-0.016
-188.158	-200.000	0.004	-0.127
-187.144	53.980	0.125	-0.118
-186.129	-100.037	0.453	-0.111
-185.114	-200.000	-0.050	-0.427
-184.100	800.000	-0.071	-0.268
-183.085	394.960	0.107	-0.219
-182.071	181.049	0.213	0.307
-181.056	-68.533	0.485	-0.185
-180.042	-109.045	0.302	-0.063
-179.027	800.000	0.073	0.251
-178.012	800.000	-0.098	0.317
-176.998	-200.000	0.010	0.139
-175.983	-7.242	-0.177	0.118
-174.969	-200.000	-0.003	0.037
-173.954	504.700	-0.052	-0.119
-172.939	124.366	-0.049	0.060
-171.925	213.607	0.073	0.113
-170.910	-79.558	-0.311	-0.103
-169.896	-200.000	0.016	0.375
-168.881	-200.000	-0.082	-0.498
-167.866	-200.000	-0.008	-0.198
-166.852	800.000	-0.090	0.377
-165.837	-200.000	-0.005	0.232
-164.823	-88.954	0.067	0.019
-163.808	47.920	0.120	0.110
-162.793	-43.152	0.220	0.109
-161.779	-200.000	-0.026	-0.212
-160.764	618.684	0.125	0.307
-159.750	-200.000	-0.032	-0.154
-158.735	800.000	-0.077	-0.287
-157.720	-165.330	0.101	-0.004
-156.706	-144.313	-0.231	0.021
-155.691	-200.000	0.017	0.215
-154.677	-46.615	-0.231	-0.111
-153.662	164.441	-0.209	-0.290
-152.647	-156.296	-0.127	-0.008
-151.633	-124.601	0.262	0.040
-150.618	173.325	0.096	0.136
-149.604	90.911	-0.185	-0.204
-148.589	-81.592	-0.286	-0.092
-147.574	-13.336	-0.311	0.198
-146.560	-200.000	0.015	0.180
-145.545	218.763	-0.087	0.136
-144.531	-106.808	-0.204	-0.044
-143.516	-200.000	0.016	0.175
-142.502	-200.000	-0.003	-0.289
-141.487	-29.713	-0.090	0.050
-140.472	800.000	0.048	-0.149
-139.458	-200.000	-0.002	-0.214
-138.443	-97.932	0.608	0.154
-137.429	-200.000	-0.068	-0.398
-136.414	118.115	-0.084	-0.101
-135.399	-61.229	-0.097	-0.040
-134.385	-65.774	0.275	-0.108
-133.370	-47.202	-0.213	-0.102
-132.356	800.000	-0.104	0.344
-131.341	800.000	-0.019	-0.080
-130.326	-200.000	0.033	-0.290
-129.312	49.438	-0.034	-0.031
-128.297	68.362	0.248	0.249
-127.283	-47.879	-0.186	-0.088
-126.268	56.222	-0.155	-0.147
-125.253	187.310	-0.031	0.045
-124.239	15.116	-0.190	-0.146
-123.224	800.000	-0.060	0.251
-122.210	-52.216	-0.094	0.043
-121.195	800.000	0.103	-0.302
-120.180	28.700	-0.173	0.144
-119.166	-33.833	0.145	0.078
-118.151	0.086	0.307	0.214
-117.137	144.331	0.175	-0.229
-116.122	800.000	0.132	-0.398
-115.107	-200.000	-0.041	-0.318
-114.093	-200.000	0.099	0.430
-113.078	-116.645	-0.391	-0.070
-112.064	-8.729	0.148	0.097
-111.049	-92.500	0.264	-0.073
-110.034	-8.101	-0.140	-0.092
-109.020	-116.547	0.101	-0.018
-108.005	76.862	-0.062	-0.064
-106.991	-200.000	0.020	-0.128
-105.976	326.276	-0.055	-0.103
-104.962	-200.000	-0.024	-0.113
-103.947	436.115	-0.077	0.165
-102.932	-95.006	-0.054	0.014
-101.918	288.296	0.039	-0.069
-100.903	800.000	-0.070	-0.278
-99.889	-34.432	0.273	-0.147
-98.874	21.307	-0.211	-0.168
-97.859	-200.000	-0.000	-0.327
-96.845	-200.000	-0.003	0.108
-95.830	43.197	0.110	-0.098
-94.816	-200.000	0.005	0.188
-93.801	140.649	-0.180	0.232
-92.786	634.726	0.066	0.164
-91.772	-34.973	-0.123	-0.066
-90.757	-17.952	0.189	0.116
-89.743	-89.863	-0.123	-0.035
-88.728	-121.247	0.204	-0.033
-87.713	-200.000	-0.279	0.001
-86.699	35.210	-0.102	-0.087
-85.684	345.609	0.101	0.194
-84.670	98.706	-0.146	0.165
-83.655	-200.000	0.053	0.233
-82.640	-113.316	-0.106	0.020
-81.626	-200.000	-0.074	0.340
-80.611	-200.000	0.374	0.001
-79.597	-120.172	0.401	-0.067
-78.582	534.561	0.151	-0.349
-77.567	-94.969	0.234	-0.062
-76.553	83.214	0.128	-0.136
-75.538	-176.691	-0.151	0.004
-74.524	-200.000	0.025	0.359
-73.509	106.364	-0.199	0.231
-72.494	783.216	-0.097	0.259
-71.480	-155.727	-0.345	0.022
-70.465	202.110	0.078	-0.118
-69.451	664.669	-0.061	0.155
-68.436	-0.374	0.268	0.186
-67.422	633.330	-0.110	0.273
-66.407	79.066	0.094	0.099
-65.392	465.560	0.130	-0.283
-64.378	49.572	0.110	0.101
-63.363	-113.833	0.361	0.069
-62.349	344.450	-0.094	0.181
-61.334	49.369	-1.053	-0.968
-60.319	111.206	0.532	0.626
-59.305	473.200	-0.577	-1.271
-58.290	584.818	0.632	1.517
-57.276	634.536	0.823	2.041
-56.261	-200.000	117.791	643.547
-55.246	483.751	1553.643	3452.520
-54.232	172.789	2730.351	3841.007
-53.217	96.763	2294.542	2567.928
-52.203	35.036	1901.352	1626.473
-51.188	29.291	1694.903	1406.142
-50.173	26.987	1654.553	1355.426
-49.159	46.540	1713.224	1552.775
-48.144	45.450	1725.803	1555.831
-47.130	28.708	1682.690	1391.370
-46.115	26.250	1668.301	1360.924
-45.100	25.985	1663.515	1354.972
-44.086	25.977	1661.204	1352.980
-43.071	26.014	1658.342	1350.870
-42.057	25.921	1656.518	1348.641
-41.042	25.993	1653.648	1346.781
-40.027	25.968	1652.343	1345.483
-39.013	26.089	1649.771	1344.234
-37.998	25.971	1648.440	1342.222
-36.984	26.034	1647.434	1341.818
-35.969	26.177	1645.860	1341.545
-34.954	26.155	1644.300	1340.052
-33.940	26.065	1642.798	1338.108
-32.925	26.082	1640.836	1336.585
-31.911	26.153	1639.487	1335.961
-30.896	26.128	1637.357	1333.983
-29.881	26.076	1636.208	1332.610
-28.867	26.198	1633.959	1331.625
-27.852	26.163	1633.145	1330.655
-26.838	26.139	1631.581	1329.149
-25.823	26.169	1630.195	1328.184
-24.809	26.215	1628.716	1327.267
-23.794	26.155	1627.401	1325.701
-22.779	26.223	1625.957	1324.975
-21.765	26.148	1624.009	1322.782
-20.750	26.185	1622.582	1321.840
-19.736	26.243	1620.958	1320.890
-18.721	26.221	1619.748	1319.689
-17.706	26.193	1618.358	1318.297
-16.692	26.185	1616.992	1317.080
-15.677	26.188	1615.469	1315.807
-14.663	26.273	1614.117	1315.270
-13.648	26.173	1612.656	1313.303
-12.633	26.221	1610.972	1312.229
-11.619	26.230	1608.938	1310.582
-10.604	26.198	1608.091	1309.612
-9.590	26.198	1606.691	1308.418
-8.575	26.257	1605.080	1307.481
-7.560	26.092	1604.178	1305.501
-6.546	26.156	1602.973	1304.930
-5.531	26.195	1601.802	1304.208
-4.517	26.196	1600.824	1303.363
-3.502	26.117	1599.987	1302.063
-2.487	26.249	1598.032	1301.372
-1.473	25.825	1586.035	1288.517
-0.458	23.048	1567.096	1253.422
0.556	21.609	1568.615	1222.667
1.571	19.275	1592.437	1224.561
2.586	18.922	1605.010	1231.590
3.600	17.168	1550.663	1177.636
4.615	10.766	1443.652	1054.820
5.629	5.014	1384.468	975.585
6.644	4.041	1376.845	964.072
7.659	4.039	1376.270	963.568
8.673	4.057	1375.578	963.112
9.688	4.173	1373.025	961.959
10.702	4.139	1370.558	959.935
11.717	6.790	1375.338	979.660
12.731	14.345	1388.724	1036.271
13.746	20.830	1399.533	1084.772
14.761	22.631	1402.041	1097.841
15.775	22.158	1400.306	1093.444
16.790	21.307	1397.155	1085.605
17.804	20.497	1395.207	1078.965
18.819	20.169	1394.547	1076.324
19.834	20.122	1393.605	1075.214
20.848	20.102	1392.370	1074.037
21.863	19.932	1391.478	1072.202
22.877	19.770	1390.449	1070.315
23.892	19.753	1389.508	1069.388
24.907	19.632	1388.338	1067.648
25.921	19.747	1387.199	1067.387
26.936	19.751	1386.094	1066.467
27.950	19.709	1385.663	1065.782
28.965	19.873	1384.610	1065.887
29.980	20.000	1383.830	1065.972
30.994	20.085	1383.225	1065.939
32.009	20.208	1381.724	1065.444
33.023	20.088	1380.848	1063.934
34.038	20.084	1378.829	1062.263
35.053	19.882	1377.893	1060.211
36.067	19.894	1376.953	1059.463
37.082	19.865	1375.683	1058.218
38.096	20.014	1374.729	1058.299
39.111	19.958	1374.392	1057.603
40.126	19.864	1373.082	1055.928
41.140	19.542	1371.834	1052.913
42.155	19.370	1371.092	1051.198
43.169	19.249	1371.506	1050.687
44.184	19.348	1370.896	1050.728
45.199	19.416	1370.668	1050.874
46.213	19.623	1369.991	1051.524
47.228	19.848	1369.730	1052.600
48.242	19.876	1368.567	1051.784
49.257	19.852	1366.777	1050.170
50.271	19.806	1365.583	1048.883
51.286	19.851	1364.294	1048.072
52.301	19.820	1362.770	1046.621
53.315	19.579	1361.872	1044.380
54.330	19.515	1361.095	1043.305
55.344	19.473	1359.091	1041.422
56.359	19.407	1358.350	1040.364
57.374	19.409	1357.537	1039.662
58.388	19.357	1356.795	1038.691
59.403	19.283	1356.570	1037.978
60.417	19.387	1355.182	1037.449
61.432	19.258	1355.116	1036.534
62.447	19.067	1354.077	1034.496
63.461	19.178	1352.233	1033.663
64.476	19.086	1351.027	1032.099
65.490	19.095	1350.099	1031.352
66.505	19.079	1348.534	1029.969
67.520	19.215	1347.060	1029.569
68.534	19.198	1346.612	1029.033
69.549	19.000	1345.363	1026.804
70.563	18.990	1344.575	1026.054
71.578	18.987	1342.665	1024.484
72.593	18.840	1342.404	1023.320
73.607	18.879	1341.479	1022.759
74.622	18.821	1341.108	1022.039
75.636	19.059	1339.986	1022.508
76.651	18.932	1339.742	1021.479
77.666	18.972	1339.420	1021.377
78.680	19.086	1338.764	1021.466
79.695	19.218	1337.887	1021.488
80.709	19.256	1337.397	1021.247
81.724	19.400	1336.918	1021.647
82.739	19.481	1335.565	1021.001
83.753	19.708	1335.020	1021.835
84.768	19.873	1334.212	1022.101
85.782	19.920	1333.302	1021.590
86.797	19.967	1332.081	1020.839
87.812	19.791	1330.944	1018.843
88.826	19.923	1329.293	1018.268
89.841	19.943	1328.775	1017.897
90.855	20.068	1327.419	1017.504
91.870	20.021	1327.277	1017.025
92.884	20.123	1325.778	1016.389
93.899	20.166	1325.354	1016.221
94.914	20.231	1324.743	1016.044
95.928	19.971	1323.825	1013.731
96.943	20.049	1322.896	1013.383
97.957	20.045	1322.057	1012.627
98.972	19.949	1320.846	1011.055
99.987	19.895	1319.900	1009.922
101.001	19.994	1318.962	1009.695
102.016	19.860	1318.226	1008.259
103.030	19.933	1317.314	1007.897
104.045	19.949	1316.005	1006.900
105.060	19.763	1314.488	1004.572
106.074	19.459	1312.740	1001.383
107.089	19.208	1311.159	998.630
108.103	19.076	1310.012	996.905
109.118	19.231	1308.594	996.634
110.133	19.141	1307.538	995.221
111.147	19.207	1306.378	994.634
112.162	19.174	1305.504	993.690
113.176	19.414	1303.759	993.652
114.191	19.413	1303.148	993.096
115.206	19.380	1302.221	992.112
116.220	19.308	1300.738	990.482
117.235	19.314	1299.579	989.544
118.249	19.188	1298.757	988.106
119.264	19.132	1297.514	986.755
120.279	19.030	1296.782	985.527
121.293	18.936	1295.702	984.081
122.308	19.053	1293.969	983.347
123.322	18.786	1293.314	981.233
124.337	18.803	1291.782	980.082
125.352	18.775	1290.928	979.188
126.366	18.818	1289.842	978.525
127.381	18.800	1289.038	977.726
128.395	18.861	1287.567	976.869
129.410	18.859	1286.809	976.196
130.424	19.006	1286.314	976.570
131.439	19.134	1285.914	976.904
132.454	19.311	1284.789	976.970
133.468	19.363	1283.841	976.453
134.483	19.233	1283.760	975.570
135.497	19.317	1281.951	974.582
136.512	19.342	1280.951	973.878
137.527	19.393	1279.732	973.155
138.541	19.313	1278.764	971.881
139.556	19.503	1277.408	971.832
140.570	19.609	1276.427	971.596
141.585	19.818	1275.150	971.712
142.600	19.803	1274.556	971.092
143.614	19.848	1273.751	970.645
144.629	19.878	1272.851	970.044
145.643	19.900	1271.920	969.370
146.658	19.710	1270.435	967.092
147.673	19.603	1268.907	965.241
148.687	19.438	1267.598	963.238
149.702	19.345	1266.033	961.445
150.716	19.312	1264.929	960.341
151.731	19.364	1263.574	959.515
152.746	19.398	1262.192	958.570
153.760	19.442	1261.545	958.240
154.775	19.596	1260.479	958.196
155.789	19.605	1259.449	957.383
156.804	19.711	1258.690	957.306
157.819	19.782	1257.541	956.742
158.833	19.879	1257.044	956.813
159.848	20.023	1256.585	957.176
160.862	19.981	1255.513	956.040
161.877	19.751	1253.688	953.300
162.892	19.272	1252.436	949.627
163.906	19.376	1251.494	949.401
164.921	19.296	1250.843	948.383
165.935	19.384	1250.107	948.225
166.950	19.514	1249.584	948.456
167.964	19.646	1248.134	947.997
168.979	19.497	1247.717	946.778
169.994	19.384	1246.723	945.320
171.008	19.545	1246.460	945.918
172.023	19.577	1245.707	945.440
173.037	19.850	1245.087	946.378
174.052	19.769	1244.334	945.280
175.067	19.486	1242.889	942.554
176.081	19.361	1241.555	940.777
177.096	19.343	1240.489	939.790
178.110	19.372	1239.582	939.175
179.125	19.512	1238.646	939.146
180.140	19.548	1237.598	938.464
181.154	19.707	1236.577	938.468
182.169	19.794	1235.391	937.959
183.183	19.909	1234.599	937.894
184.198	20.062	1233.119	937.517
185.213	19.839	1232.749	935.947
186.227	19.952	1231.593	935.596
187.242	20.063	1230.162	935.027
188.256	20.045	1229.795	934.570
189.271	20.102	1228.846	934.071
190.286	19.965	1227.244	932.033
191.300	19.430	1226.355	928.396
192.315	19.353	1224.789	926.715
193.329	19.460	1224.388	926.904
194.344	19.580	1223.699	926.948
195.359	19.569	1223.555	926.697
196.373	19.662	1223.098	926.764
197.388	19.752	1222.998	927.094
198.402	20.042	1223.120	928.655
199.417	20.156	1222.573	928.769
200.432	20.319	1221.860	929.020
201.446	20.420	1220.957	928.789
202.461	20.415	1220.702	928.489
203.475	20.415	1219.387	927.406
204.490	20.185	1217.569	924.712
205.504	19.982	1216.592	922.808
206.519	19.981	1214.781	921.345
207.534	19.964	1213.419	920.140
208.548	19.971	1212.788	919.622
209.563	19.909	1212.323	918.854
210.577	19.975	1211.410	918.434
211.592	20.029	1210.606	918.027
212.607	20.266	1209.668	918.490
213.621	20.330	1208.936	918.191
214.636	20.127	1208.213	916.489
215.650	20.161	1207.409	915.978
216.665	20.344	1206.174	915.928
217.680	20.442	1205.906	916.159
218.694	20.557	1204.804	915.846
219.709	20.415	1204.067	914.457
220.723	20.531	1202.830	914.044
221.738	20.294	1202.470	912.444
222.753	20.379	1201.440	912.028
223.767	20.370	1200.871	911.470
224.782	20.514	1200.447	911.824
225.796	20.723	1199.960	912.470
226.811	20.562	1198.937	910.766
227.826	20.449	1198.009	909.387
228.840	20.362	1197.709	908.627
229.855	20.306	1196.975	907.697
230.869	20.340	1195.786	906.890
231.884	20.199	1194.864	905.375
232.899	20.133	1193.626	904.014
233.913	20.028	1193.228	903.084
234.928	19.944	1192.452	901.981
235.942	19.873	1191.714	900.973
236.957	19.938	1190.728	900.487
237.972	19.914	1189.711	899.509
238.986	20.034	1189.081	899.581
240.001	19.980	1188.800	899.004
241.015	20.138	1187.699	898.915
242.030	20.278	1187.130	899.131
243.045	20.228	1186.571	898.370
244.059	20.124	1185.833	897.191
245.074	20.339	1184.779	897.427
246.088	20.416	1184.242	897.338
247.103	20.455	1183.587	896.963
248.117	20.686	1182.829	897.501
249.132	20.830	1182.461	897.882
250.147	21.034	1182.252	898.699
251.161	21.279	1181.842	899.569
252.176	21.260	1181.246	898.935
253.190	21.298	1180.475	898.467
254.205	21.350	1179.757	898.109
255.220	21.428	1179.271	898.059
256.234	21.376	1178.491	897.117
257.249	21.342	1177.808	896.343
258.263	21.355	1176.868	895.617
259.278	21.238	1176.592	894.727
260.293	21.392	1175.908	894.915
261.307	21.435	1175.252	894.557
262.322	21.420	1174.731	894.007
263.336	21.489	1173.913	893.657
264.351	21.432	1173.544	893.008
265.366	21.591	1172.340	892.819
266.380	21.405	1172.270	891.739
267.395	21.399	1170.905	890.592
268.409	21.326	1169.966	889.427
269.424	21.157	1169.577	888.194
270.439	21.144	1169.259	887.807
271.453	21.146	1168.398	887.086
272.468	20.964	1167.029	885.042
273.482	21.024	1165.553	884.150
274.497	20.974	1165.707	883.936
275.512	21.083	1164.719	883.658
276.526	21.060	1163.773	882.748
277.541	21.078	1163.525	882.574
278.555	21.253	1162.766	882.805
279.570	21.238	1162.948	882.788
280.585	21.524	1161.553	883.095
281.599	21.481	1160.752	882.192
282.614	21.335	1159.364	880.321
283.628	21.237	1158.054	878.757
284.643	21.175	1156.845	877.448
285.657	21.167	1156.308	876.924
286.672	21.215	1155.271	876.300
287.687	21.178	1154.673	875.586
288.701	21.384	1153.594	875.720
289.716	21.243	1152.920	874.425
290.730	21.184	1152.511	873.745
291.745	21.230	1151.870	873.410
292.760	21.320	1151.441	873.459
293.774	21.352	1151.302	873.435
294.789	21.560	1150.449	873.750
295.803	21.485	1149.734	872.754
296.818	21.232	1148.770	870.684
297.833	21.193	1147.484	869.436
298.847	21.208	1146.930	869.017
299.862	21.211	1146.304	868.479
300.876	21.319	1145.587	868.396
301.891	21.423	1144.762	868.209
302.906	21.537	1144.678	868.634
303.920	21.703	1144.028	868.890
304.935	21.737	1143.791	868.802
305.949	21.871	1143.042	868.821
306.964	21.885	1142.591	868.466
307.979	21.714	1141.520	866.732
308.993	21.636	1140.674	865.628
310.008	21.719	1139.875	865.356
311.022	21.880	1138.995	865.404
312.037	21.800	1137.993	864.172
313.052	21.542	1136.853	861.958
314.066	21.359	1136.052	860.374
315.081	21.276	1134.950	859.056
316.095	21.168	1134.323	857.975
317.110	21.217	1133.692	857.662
318.125	21.299	1132.415	857.024
319.139	21.243	1132.136	856.461
320.154	21.230	1131.286	855.678
321.168	21.272	1130.770	855.417
322.183	21.306	1130.394	855.224
323.197	21.341	1129.764	854.843
324.212	21.436	1129.306	854.886
325.227	21.429	1129.113	854.630
326.241	21.388	1128.614	853.974
327.256	21.313	1127.320	852.553
328.270	21.314	1126.353	851.755
329.285	21.388	1124.880	850.925
330.300	21.386	1124.004	850.174
331.314	21.343	1123.335	849.384
332.329	21.332	1122.426	848.568
333.343	21.546	1121.628	848.932
334.358	21.605	1120.798	848.513
335.373	21.644	1120.377	848.309
336.387	21.846	1119.664	848.669
337.402	21.786	1119.298	848.028
338.416	21.782	1118.468	847.303
339.431	21.929	1118.128	847.681
340.446	22.010	1117.615	847.611
341.460	22.227	1116.791	847.957
342.475	22.366	1115.933	847.898
343.489	22.360	1115.036	847.115
344.504	22.347	1114.265	846.392
345.519	22.411	1113.319	845.906
346.533	22.521	1112.797	845.961
347.548	22.460	1112.407	845.298
348.562	22.513	1111.063	844.455
349.577	22.092	1110.427	841.880
350.592	21.879	1108.932	839.652
351.606	21.703	1108.472	838.386
352.621	21.743	1107.385	837.683
353.635	21.708	1106.974	837.129
354.650	21.723	1106.109	836.475
355.665	21.824	1105.485	836.412
356.679	21.873	1105.199	836.354
357.694	21.893	1104.593	835.917
358.708	22.010	1104.155	836.069
359.723	22.038	1103.236	835.432
360.738	22.082	1102.779	835.220
361.752	22.037	1102.009	834.349
362.767	22.150	1101.673	834.558
363.781	22.202	1100.943	834.179
364.796	22.327	1100.633	834.463
365.810	22.504	1100.226	834.916
366.825	22.567	1099.991	834.963
367.840	22.785	1099.170	835.298
368.854	22.900	1098.577	835.318
369.869	22.716	1097.870	833.837
370.883	22.647	1096.581	832.461
371.898	22.543	1095.744	831.258
372.913	22.492	1095.581	830.821
373.927	22.554	1095.120	830.693
374.942	22.714	1094.466	830.877
375.956	22.564	1094.137	829.845
376.971	22.583	1093.221	829.168
377.986	22.678	1092.970	829.349
379.000	22.887	1092.339	829.777
380.015	22.872	1091.973	829.356
381.029	23.019	1091.054	829.276
382.044	22.929	1090.533	828.386
383.059	22.892	1089.509	827.358
384.073	22.772	1089.086	826.403
385.088	22.947	1088.068	826.377
386.102	22.920	1086.892	825.286
387.117	22.609	1085.774	822.912
388.132	22.466	1084.521	821.222
389.146	22.513	1084.047	821.007
390.161	22.360	1083.484	819.795
391.175	22.476	1082.453	819.483
392.190	22.608	1082.052	819.721
393.205	22.877	1081.529	820.504
394.219	22.758	1080.696	819.247
395.234	22.575	1079.507	817.423
396.248	22.470	1078.473	816.082
397.263	22.617	1077.303	815.804
398.278	22.460	1076.602	814.478
399.292	22.258	1075.986	813.005
400.307	22.168	1074.917	811.709
401.321	22.169	1074.535	811.351
402.336	22.357	1073.525	811.387
403.350	22.355	1072.822	810.774
404.365	22.346	1072.400	810.342
405.380	22.591	1071.700	810.867
406.394	22.571	1071.166	810.300
407.409	22.616	1070.675	810.063
408.423	22.919	1070.285	811.087
409.438	22.985	1069.474	810.703
410.453	23.004	1068.673	810.112
411.467	23.088	1068.204	810.070
412.482	23.146	1067.765	809.933
413.496	23.282	1067.112	809.989
414.511	23.203	1066.935	809.421
415.526	23.322	1066.142	809.289
416.540	23.346	1065.876	809.124
417.555	23.433	1065.032	808.812
418.569	23.143	1064.386	806.924
419.584	23.205	1064.068	806.895
420.599	23.121	1063.755	806.204
421.613	157.688	1404.899	1796.396
422.628	145.119	1454.557	1796.464
