DTS Sentinel unit serial number:	SN413079Multiplexer serial number:	ORYXHardware model number:	OX4-SRSoftware version number:	ORYX F/W v4.00 Oryx Data Collector v3.7.2.0data status	okinstallation	princeton_trtdifferential loss correction	single-endedforward channel	channel 2reverse channel	N/Adate	2019/09/14time	11:47:35forward acquisition time	60.00reverse acquisition time	0.00gamma	496.2192k internal	0.2310k external	0.2310temperature offset calibration	1.0152default loss term (dB/km)	0.3790temperature slope calibration	1.0000multiplexer offset coefficient	1.0000multiplexer slope coefficient	1.0000fibre end	0.00T internal ref (°C)	37.05T ext. ref 1 (°C)	4.62T ext. ref 2 (°C)	33.88length (m)	temperature (°C)	Stokes	anti-Stokes-747.200	800.000	-0.038	0.149
-746.185	800.000	-0.077	0.339
-745.171	-200.000	0.036	0.171
-744.156	104.145	0.193	0.231
-743.142	291.984	0.024	0.044
-742.127	192.502	0.202	0.310
-741.112	358.862	-0.150	0.305
-740.098	-200.000	0.080	0.357
-739.083	577.050	-0.195	-0.484
-738.069	189.868	0.158	0.240
-737.054	-200.000	0.034	0.303
-736.039	78.191	0.076	-0.082
-735.025	-147.076	0.274	0.024
-734.010	753.322	-0.168	-0.462
-732.996	-200.000	-0.001	-0.091
-731.981	103.472	-0.071	-0.085
-730.966	385.731	-0.037	0.078
-729.952	22.595	-0.138	0.115
-728.937	800.000	-0.099	-0.278
-727.923	-124.951	-0.185	-0.029
-726.908	-86.162	0.154	0.048
-725.894	800.000	0.067	-0.241
-724.879	-65.749	-0.364	0.148
-723.864	-146.511	0.034	0.003
-722.850	800.000	0.111	0.368
-721.835	57.234	0.096	-0.095
-720.821	-119.621	0.341	0.060
-719.806	514.083	-0.078	0.184
-718.791	555.741	-0.028	0.068
-717.777	18.800	-0.351	-0.285
-716.762	318.899	0.155	-0.298
-715.748	148.157	0.120	0.164
-714.733	-13.271	-0.238	0.157
-713.718	800.000	-0.055	-0.178
-712.704	134.371	0.174	0.229
-711.689	49.515	-0.124	0.118
-710.675	800.000	-0.087	-0.312
-709.660	-98.403	0.105	0.027
-708.645	-67.488	0.213	0.085
-707.631	-73.237	0.054	0.020
-706.616	541.445	-0.107	0.258
-705.602	-200.000	-0.020	-0.252
-704.587	113.226	-0.188	0.231
-703.572	722.643	0.059	-0.159
-702.558	-34.680	-0.551	-0.306
-701.543	-200.000	0.033	-0.341
-700.529	-200.000	-0.003	-0.053
-699.514	133.033	-0.123	0.162
-698.499	18.951	-0.210	0.171
-697.485	-10.494	-0.168	-0.113
-696.470	709.060	0.118	-0.316
-695.456	-132.200	-0.189	0.025
-694.441	-27.746	0.079	-0.047
-693.426	488.382	0.030	-0.068
-692.412	-31.477	-0.127	-0.073
-691.397	-62.591	0.138	0.058
-690.383	117.443	0.177	0.221
-689.368	100.891	-0.247	0.291
-688.354	86.855	0.104	-0.117
-687.339	-175.744	0.389	0.011
-686.324	138.131	-0.141	-0.187
-685.310	-140.626	0.095	0.010
-684.295	-200.000	-0.024	-0.393
-683.281	-32.870	0.085	0.048
-682.266	800.000	0.039	-0.126
-681.251	188.218	0.046	0.070
-680.237	-200.000	0.015	-0.070
-679.222	239.809	0.222	-0.375
-678.208	-200.000	-0.053	-0.340
-677.193	1.756	0.292	-0.213
-676.178	307.662	0.072	-0.135
-675.164	608.108	-0.043	0.108
-674.149	-103.217	-0.169	-0.040
-673.135	87.972	0.138	0.155
-672.120	800.000	0.035	0.108
-671.105	344.767	-0.079	-0.156
-670.091	-200.000	0.024	0.370
-669.076	1.738	0.309	0.225
-668.062	-97.382	0.162	0.043
-667.047	-87.734	0.017	0.005
-666.032	-200.000	0.008	0.131
-665.018	-57.889	-0.309	-0.137
-664.003	133.756	0.185	-0.243
-662.989	461.768	0.031	0.071
-661.974	120.569	-0.158	0.198
-660.959	169.838	-0.212	0.306
-659.945	59.344	0.092	0.091
-658.930	-200.000	0.025	0.228
-657.916	800.000	-0.125	0.460
-656.901	-200.000	0.035	0.240
-655.886	-200.000	0.005	0.060
-654.872	-67.032	0.298	0.119
-653.857	-95.384	-0.360	-0.098
-652.843	-35.087	-0.151	-0.083
-651.828	-84.493	0.037	0.012
-650.814	-196.933	0.036	-0.000
-649.799	-16.763	-0.187	0.120
-648.784	-158.196	-0.335	-0.020
-647.770	275.172	-0.079	0.141
-646.755	231.973	-0.025	-0.041
-645.741	-102.932	0.196	0.047
-644.726	-98.945	-0.198	-0.051
-643.711	-200.000	-0.022	-0.175
-642.697	74.277	0.110	-0.117
-641.682	41.304	-0.180	-0.164
-640.668	-20.063	0.186	-0.116
-639.653	130.780	0.129	0.167
-638.638	-200.000	0.018	0.101
-637.624	-97.560	-0.152	0.040
-636.609	-23.587	0.220	0.134
-635.595	79.886	-0.226	0.246
-634.580	108.723	-0.121	-0.146
-633.565	42.475	-0.231	0.212
-632.551	-1.780	0.242	-0.172
-631.536	94.779	0.104	0.120
-630.522	444.349	0.047	-0.103
-629.507	-141.331	-0.159	-0.016
-628.492	-66.743	0.120	-0.048
-627.478	55.806	-0.226	-0.221
-626.463	800.000	0.060	-0.186
-625.449	-82.091	0.256	-0.085
-624.434	-153.593	-0.167	-0.012
-623.419	-139.750	-0.256	-0.027
-622.405	-200.000	-0.020	-0.367
-621.390	122.078	-0.173	-0.218
-620.376	-116.823	-0.211	-0.039
-619.361	-63.149	-0.064	0.027
-618.346	-47.740	0.124	-0.061
-617.332	800.000	-0.076	0.227
-616.317	-200.000	0.042	0.210
-615.303	243.975	-0.056	-0.094
-614.288	800.000	-0.155	-0.469
-613.273	-101.243	0.173	0.043
-612.259	-76.559	0.208	0.074
-611.244	-58.594	0.436	-0.191
-610.230	-86.612	0.315	-0.098
-609.215	-54.015	-0.251	0.116
-608.201	133.650	-0.135	0.177
-607.186	800.000	0.035	-0.146
-606.171	-149.052	-0.069	-0.006
-605.157	-111.906	-0.292	-0.060
-604.142	112.745	0.241	0.294
-603.128	-56.053	-0.299	0.134
-602.113	242.970	0.074	-0.125
-601.098	-82.775	0.096	0.031
-600.084	-21.369	-0.061	-0.037
-599.069	9.045	0.290	-0.221
-598.055	-200.000	-0.054	-0.412
-597.040	347.680	-0.182	-0.361
-596.025	-99.844	-0.121	-0.030
-595.011	-2.912	-0.312	0.220
-593.996	-94.192	0.286	0.079
-592.982	-66.021	-0.167	-0.067
-591.967	659.663	-0.077	0.200
-590.952	64.122	-0.138	-0.140
-589.938	101.691	-0.083	0.098
-588.923	79.709	0.129	-0.139
-587.909	12.412	0.332	0.258
-586.894	17.701	-0.213	-0.171
-585.879	223.085	0.064	-0.104
-584.865	-77.499	-0.238	0.083
-583.850	-142.210	-0.047	-0.005
-582.836	91.526	0.105	-0.119
-581.821	-78.890	0.203	-0.070
-580.806	-47.635	0.231	-0.113
-579.792	-113.477	0.266	-0.053
-578.777	800.000	-0.044	-0.147
-577.763	137.530	-0.025	-0.033
-576.748	-200.000	-0.019	-0.205
-575.733	800.000	0.115	-0.348
-574.719	71.656	0.078	0.081
-573.704	-200.000	0.001	0.352
-572.690	800.000	0.053	-0.181
-571.675	-75.768	0.312	0.112
-570.661	1.915	-0.107	-0.078
-569.646	114.515	-0.094	-0.116
-568.631	-89.280	-0.149	0.044
-567.617	800.000	-0.216	-0.634
-566.602	-80.430	0.268	0.090
-565.588	800.000	0.127	0.539
-564.573	-27.255	-0.203	-0.119
-563.558	-81.294	-0.326	-0.108
-562.544	-95.526	0.175	0.047
-561.529	-131.732	-0.336	0.044
-560.515	7.174	-0.247	0.186
-559.500	-200.000	-0.025	-0.140
-558.485	50.915	0.072	0.069
-557.471	-58.454	-0.372	0.163
-556.456	800.000	-0.042	-0.140
-555.442	-200.000	0.024	-0.189
-554.427	-62.968	-0.110	0.046
-553.412	46.092	-0.157	-0.146
-552.398	-74.566	-0.135	-0.049
-551.383	-156.479	0.324	0.020
-550.369	-59.401	0.293	-0.127
-549.354	-75.999	-0.263	-0.094
-548.339	55.621	0.051	-0.050
-547.325	-96.114	-0.134	-0.036
-546.310	-163.541	-0.301	0.014
-545.296	-99.923	0.636	0.160
-544.281	-129.123	-0.160	0.023
-543.266	3.368	0.086	0.063
-542.252	175.554	0.055	-0.080
-541.237	-200.000	0.070	0.340
-540.223	-200.000	-0.041	0.358
-539.208	-151.143	-0.211	-0.016
-538.193	454.940	0.103	-0.229
-537.179	800.000	-0.148	0.429
-536.164	-200.000	-0.007	0.044
-535.150	-200.000	0.003	-0.026
-534.135	800.000	0.046	-0.159
-533.121	-53.752	-0.138	-0.063
-532.106	512.629	0.091	0.212
-531.091	106.855	-0.043	0.051
-530.077	45.931	0.173	0.162
-529.062	800.000	-0.068	0.282
-528.048	147.217	-0.091	-0.124
-527.033	232.475	0.278	0.459
-526.018	-132.351	-0.138	0.018
-525.004	-200.000	-0.004	0.050
-523.989	91.616	-0.254	-0.287
-522.975	-0.495	-0.139	0.099
-521.960	-124.889	0.225	0.035
-520.945	136.405	-0.308	-0.404
-519.931	341.325	-0.042	0.083
-518.916	182.743	-0.138	0.205
-517.902	784.796	-0.086	0.238
-516.887	800.000	-0.125	-0.390
-515.872	800.000	0.136	0.484
-514.858	-200.000	0.042	0.293
-513.843	-148.694	0.233	0.019
-512.829	-35.579	-0.158	-0.086
-511.814	800.000	0.053	-0.176
-510.799	-125.817	-0.221	0.034
-509.785	800.000	-0.034	-0.113
-508.770	-141.905	-0.383	0.038
-507.756	-124.151	-0.108	-0.017
-506.741	96.088	0.048	0.055
-505.726	78.487	0.182	0.196
-504.712	304.831	0.042	0.079
-503.697	2.603	0.169	0.123
-502.683	-200.000	-0.057	0.308
-501.668	347.428	-0.047	-0.092
-500.653	-200.000	-0.006	0.053
-499.639	143.588	0.033	0.044
-498.624	-75.899	0.273	0.097
-497.610	-200.000	0.029	0.285
-496.595	-200.000	-0.054	-0.341
-495.581	23.951	-0.160	-0.133
-494.566	-139.538	0.062	-0.007
-493.551	-27.825	-0.138	-0.081
-492.537	161.009	-0.200	-0.281
-491.522	53.156	0.175	0.169
-490.508	-200.000	-0.023	0.151
-489.493	328.493	-0.038	-0.074
-488.478	252.140	-0.123	-0.211
-487.464	-200.000	0.003	-0.129
-486.449	800.000	-0.015	0.062
-485.435	30.752	-0.286	0.246
-484.420	-58.517	0.419	0.183
-483.405	-106.131	-0.339	0.076
-482.391	66.043	0.219	0.223
-481.376	800.000	-0.068	0.193
-480.362	129.260	-0.246	-0.315
-479.347	4.849	-0.148	0.109
-478.332	-103.273	0.106	0.025
-477.318	354.835	0.104	0.209
-476.303	344.149	-0.085	-0.167
-475.289	250.259	-0.001	0.001
-474.274	-77.093	-0.312	-0.109
-473.259	208.602	-0.012	0.019
-472.245	64.220	-0.108	0.109
-471.230	106.432	-0.179	-0.213
-470.216	-40.532	0.097	-0.051
-469.201	800.000	0.094	-0.266
-468.186	-200.000	-0.065	-0.364
-467.172	96.453	0.068	-0.078
-466.157	-200.000	0.032	-0.150
-465.143	-45.326	-0.002	-0.001
-464.128	-200.000	-0.030	0.229
-463.113	56.528	-0.180	0.175
-462.099	435.622	-0.155	-0.338
-461.084	-48.428	-0.232	-0.112
-460.070	286.412	0.168	-0.305
-459.055	-137.080	0.330	-0.038
-458.040	505.948	-0.081	-0.188
-457.026	-48.763	0.342	0.165
-456.011	520.430	-0.084	0.197
-454.997	-200.000	-0.028	-0.269
-453.982	-125.525	-0.256	-0.039
-452.968	-123.881	0.641	-0.101
-451.953	-200.000	0.011	-0.220
-450.938	-136.353	-0.250	-0.029
-449.924	-200.000	0.016	-0.357
-448.909	-200.000	0.012	-0.256
-447.895	470.923	-0.109	0.247
-446.880	800.000	0.081	-0.279
-445.865	31.501	-0.186	-0.161
-444.851	111.197	-0.261	-0.316
-443.836	-200.000	0.021	0.127
-442.822	-83.969	0.407	0.130
-441.807	-200.000	0.023	0.126
-440.792	800.000	0.104	-0.330
-439.778	-61.788	0.203	-0.085
-438.763	-47.352	0.108	0.053
-437.749	60.222	0.304	-0.301
-436.734	800.000	-0.074	0.211
-435.719	800.000	-0.034	-0.108
-434.705	-200.000	-0.000	0.042
-433.690	361.609	-0.092	0.186
-432.676	51.431	0.152	-0.145
-431.661	438.131	-0.036	0.078
-430.646	-200.000	0.026	-0.246
-429.632	-75.405	0.203	0.073
-428.617	-67.547	-0.305	-0.120
-427.603	-200.000	-0.032	0.409
-426.588	35.415	-0.227	-0.200
-425.573	-34.572	0.083	-0.046
-424.559	-82.175	-0.142	0.046
-423.544	800.000	0.057	0.196
-422.530	-29.467	-0.312	-0.179
-421.515	482.475	0.122	-0.278
-420.500	800.000	0.006	-0.023
-419.486	-109.220	-0.190	0.041
-418.471	6.561	0.027	0.020
-417.457	6.942	-0.127	-0.095
-416.442	-200.000	0.002	0.145
-415.428	-200.000	0.035	0.361
-414.413	-150.825	-0.184	-0.014
-413.398	49.388	-0.150	-0.141
-412.384	-77.355	0.241	-0.084
-411.369	-59.594	0.273	0.117
-410.355	-36.161	0.142	-0.077
-409.340	-200.000	0.013	-0.095
-408.325	-121.198	0.176	0.029
-407.311	800.000	0.150	-0.458
-406.296	-143.353	-0.186	-0.018
-405.282	-114.880	-0.246	0.047
-404.267	-109.742	0.168	-0.035
-403.252	-200.000	0.013	0.064
-402.238	-200.000	0.009	-0.114
-401.223	-200.000	-0.051	0.365
-400.209	800.000	-0.047	-0.166
-399.194	-19.712	0.086	0.053
-398.179	-16.919	0.158	0.100
-397.165	-133.173	-0.370	-0.047
-396.150	413.421	0.097	0.207
-395.136	-200.000	-0.013	0.149
-394.121	-200.000	-0.020	-0.209
-393.106	-0.127	-0.146	-0.104
-392.092	-96.946	-0.251	-0.066
-391.077	-71.851	0.031	-0.012
-390.063	-36.101	-0.090	-0.049
-389.048	159.210	0.078	-0.109
-388.033	-88.034	0.272	-0.082
-387.019	110.391	-0.119	-0.143
-386.004	-121.438	-0.066	0.011
-384.990	107.527	-0.186	-0.222
-383.975	-141.742	0.508	-0.051
-382.960	20.393	-0.054	-0.044
-381.946	-110.238	-0.231	0.048
-380.931	-200.000	0.001	0.079
-379.917	-200.000	0.055	-0.308
-378.902	-67.967	-0.042	0.016
-377.888	-70.283	-0.218	0.083
-376.873	-200.000	0.001	-0.182
-375.858	230.880	0.056	-0.092
-374.844	98.594	0.124	0.143
-373.829	9.591	-0.223	0.169
-372.815	-87.280	-0.352	-0.107
-371.800	-200.000	-0.006	0.039
-370.785	-171.410	-0.180	-0.006
-369.771	79.193	0.183	0.196
-368.756	89.144	0.140	-0.157
-367.742	-200.000	-0.002	0.290
-366.727	27.723	0.151	0.128
-365.712	59.670	-0.288	0.285
-364.698	96.500	0.115	-0.132
-363.683	80.870	-0.078	-0.084
-362.669	408.971	-0.017	0.036
-361.654	800.000	0.054	-0.226
-360.639	800.000	0.089	-0.351
-359.625	550.956	-0.054	0.129
-358.610	-7.331	0.170	0.115
-357.596	102.304	0.077	-0.090
-356.581	-134.006	0.441	0.055
-355.566	800.000	-0.039	0.130
-354.552	-85.065	-0.086	0.027
-353.537	281.891	0.067	-0.120
-352.523	99.977	0.094	0.108
-351.508	332.112	-0.069	0.133
-350.493	-140.351	0.293	-0.031
-349.479	-49.968	-0.067	0.032
-348.464	-7.922	0.075	0.051
-347.450	-95.397	0.217	0.058
-346.435	-55.597	0.062	-0.028
-345.420	-53.114	-0.245	-0.112
-344.406	444.410	-0.097	-0.212
-343.391	59.039	-0.382	-0.376
-342.377	-80.319	0.195	0.065
-341.362	-122.428	-0.296	0.048
-340.348	-180.405	0.197	-0.004
-339.333	-64.607	-0.239	-0.097
-338.318	342.898	-0.061	-0.119
-337.304	372.115	0.240	-0.486
-336.289	-93.951	-0.175	0.048
-335.275	42.581	0.192	0.174
-334.260	-200.000	-0.029	-0.152
-333.245	3.979	-0.334	-0.244
-332.231	800.000	0.105	0.355
-331.216	-24.965	0.418	-0.248
-330.202	-20.616	-0.134	-0.082
-329.187	-33.702	0.547	0.302
-328.172	70.768	0.115	-0.119
-327.158	-119.185	-0.137	-0.024
-326.143	800.000	-0.020	0.061
-325.129	800.000	-0.103	-0.321
-324.114	-97.986	0.266	-0.068
-323.099	60.712	0.147	0.146
-322.085	-149.091	-0.216	-0.017
-321.070	800.000	0.093	0.320
-320.056	381.221	-0.139	0.286
-319.041	-200.000	-0.014	-0.151
-318.026	-92.313	0.294	0.083
-317.012	642.067	0.135	-0.342
-315.997	-145.632	0.211	0.019
-314.983	-97.437	0.271	0.070
-313.968	-54.016	-0.111	0.051
-312.953	-90.109	-0.044	-0.013
-311.939	-135.394	-0.375	-0.045
-310.924	-200.000	0.005	0.136
-309.910	-200.000	0.014	0.179
-308.895	-87.676	0.034	0.010
-307.880	-200.000	-0.015	0.260
-306.866	-9.248	0.216	-0.144
-305.851	106.589	0.223	-0.264
-304.837	-200.000	-0.059	-0.349
-303.822	-200.000	0.002	0.157
-302.807	-53.054	-0.150	0.069
-301.793	-110.506	-0.106	-0.022
-300.778	-58.901	0.402	-0.173
-299.764	-96.250	-0.177	0.047
-298.749	686.974	-0.051	-0.134
-297.735	-114.787	-0.182	-0.035
-296.720	107.742	0.368	-0.438
-295.705	-62.590	0.414	0.172
-294.691	800.000	-0.043	0.184
-293.676	-119.902	-0.259	0.044
-292.662	-200.000	-0.076	0.395
-291.647	800.000	-0.015	0.041
-290.632	-77.378	-0.283	-0.098
-289.618	93.319	-0.209	0.236
-288.603	113.938	-0.095	-0.115
-287.589	-56.616	-0.305	0.135
-286.574	223.320	-0.082	0.131
-285.559	-54.172	-0.222	-0.101
-284.545	19.237	0.363	-0.291
-283.530	149.319	0.084	-0.114
-282.516	249.410	0.085	0.145
-281.501	-200.000	0.043	-0.195
-280.486	-88.957	0.097	-0.029
-279.472	-128.266	0.177	0.025
-278.457	78.426	0.076	0.080
-277.443	800.000	0.064	0.200
-276.428	113.660	-0.319	0.386
-275.413	30.472	-0.112	0.096
-274.399	163.379	0.017	-0.023
-273.384	92.720	0.201	0.227
-272.370	-136.631	0.106	-0.012
-271.355	12.008	-0.093	0.071
-270.340	-26.728	0.081	-0.047
-269.326	-12.282	0.435	0.283
-268.311	-149.088	-0.058	-0.005
-267.297	-130.274	0.092	0.013
-266.282	-200.000	-0.015	0.156
-265.267	551.363	0.182	0.434
-264.253	-200.000	0.004	0.334
-263.238	-91.270	-0.368	-0.105
-262.224	-133.811	0.202	0.025
-261.209	-144.867	-0.214	-0.020
-260.195	-200.000	0.045	0.266
-259.180	193.996	0.160	-0.241
-258.165	-146.162	-0.117	-0.010
-257.151	10.665	-0.319	0.243
-256.136	162.154	-0.091	0.127
-255.122	-200.000	-0.077	-0.386
-254.107	-131.654	0.265	0.035
-253.092	800.000	-0.021	0.081
-252.078	361.087	-0.113	-0.225
-251.063	25.754	-0.048	0.040
-250.049	635.858	0.202	-0.511
-249.034	-200.000	0.048	0.241
-248.019	451.983	-0.051	0.111
-247.005	-24.342	0.236	0.140
-245.990	-67.091	0.375	0.147
-244.976	256.401	-0.132	-0.225
-243.961	-86.006	-0.121	0.037
-242.946	-200.000	0.053	-0.347
-241.932	291.644	0.137	0.248
-240.917	-166.224	0.082	0.003
-239.903	66.049	-0.025	-0.025
-238.888	-200.000	-0.012	0.132
-237.873	543.028	0.068	0.162
-236.859	568.406	-0.103	0.249
-235.844	-200.000	0.028	-0.286
-234.830	-200.000	-0.010	0.445
-233.815	-83.732	0.286	-0.091
-232.800	58.117	0.086	-0.084
-231.786	424.009	0.020	-0.044
-230.771	-111.406	-0.174	-0.035
-229.757	-63.793	0.054	0.022
-228.742	158.368	0.143	0.198
-227.727	800.000	0.010	-0.036
-226.713	199.469	0.140	-0.213
-225.698	-31.908	-0.204	0.114
-224.684	-71.392	-0.113	0.042
-223.669	-200.000	-0.001	-0.097
-222.655	-13.712	0.259	-0.167
-221.640	-32.481	-0.171	0.095
-220.625	-200.000	0.013	0.095
-219.611	-31.105	-0.056	0.031
-218.596	59.064	0.173	0.169
-217.582	-200.000	0.021	0.240
-216.567	-200.000	-0.043	-0.260
-215.552	-84.279	0.247	0.078
-214.538	733.359	-0.130	-0.347
-213.523	-200.000	-0.014	0.118
-212.509	-120.951	0.187	0.031
-211.494	-200.000	-0.026	0.382
-210.479	19.577	0.203	0.162
-209.465	11.325	0.277	0.211
-208.450	-36.351	0.181	0.097
-207.436	397.580	-0.081	0.169
-206.421	-111.488	0.124	-0.025
-205.406	-148.890	0.113	-0.009
-204.392	800.000	-0.047	-0.200
-203.377	56.743	-0.208	0.202
-202.363	68.935	-0.219	-0.224
-201.348	740.389	0.147	-0.393
-200.333	-98.660	-0.100	0.025
-199.319	800.000	0.067	-0.216
-198.304	-81.903	0.011	0.003
-197.290	43.687	-0.282	0.257
-196.275	70.770	-0.155	0.159
-195.260	255.987	-0.121	0.207
-194.246	800.000	-0.051	0.149
-193.231	200.715	0.139	-0.212
-192.217	800.000	0.002	-0.005
-191.202	211.390	0.076	0.118
-190.187	800.000	-0.063	0.216
-189.173	45.826	0.084	0.077
-188.158	-66.339	-0.238	-0.094
-187.144	102.660	-0.132	0.154
-186.129	-200.000	-0.292	0.001
-185.114	-36.426	-0.293	0.157
-184.100	-200.000	0.036	0.318
-183.085	-108.512	-0.213	-0.046
-182.071	12.529	0.315	-0.242
-181.056	-81.278	0.257	-0.084
-180.042	52.797	-0.217	-0.206
-179.027	595.363	0.035	0.087
-178.012	296.894	0.245	0.447
-176.998	-7.759	0.056	-0.037
-175.983	-57.244	-0.333	-0.146
-174.969	-200.000	-0.038	0.259
-173.954	800.000	0.020	-0.077
-172.939	365.825	0.073	0.146
-171.925	37.971	-0.281	-0.248
-170.910	-200.000	-0.012	0.269
-169.896	-40.617	0.159	-0.082
-168.881	15.871	-0.161	0.126
-167.866	20.947	-0.147	0.119
-166.852	-200.000	0.079	0.362
-165.837	87.478	0.197	0.217
-164.823	-54.815	-0.116	0.052
-163.808	-99.050	-0.085	0.021
-162.793	-58.426	0.218	0.094
-161.779	-133.738	0.026	0.003
-160.764	329.540	-0.075	-0.143
-159.750	800.000	0.043	-0.162
-158.735	-137.187	0.299	-0.034
-157.720	-60.631	0.497	0.209
-156.706	-200.000	-0.047	0.238
-155.691	-82.234	0.498	-0.161
-154.677	383.647	-0.085	0.174
-153.662	800.000	-0.060	0.239
-152.647	-50.534	0.283	-0.132
-151.633	66.972	0.159	-0.160
-150.618	-140.712	-0.391	-0.040
-149.604	-200.000	0.018	0.250
-148.589	-152.238	-0.220	-0.016
-147.574	-200.000	0.013	0.139
-146.560	-44.313	-0.104	-0.052
-145.545	-117.367	0.164	0.030
-144.531	273.379	0.142	0.249
-143.516	-60.499	0.127	-0.054
-142.502	-200.000	-0.043	-0.251
-141.487	-56.397	-0.370	-0.163
-140.472	-82.269	-0.215	0.070
-139.458	-200.000	0.037	0.318
-138.443	-200.000	0.005	0.055
-137.429	444.641	-0.141	-0.308
-136.414	-200.000	0.044	-0.224
-135.399	178.877	0.172	-0.249
-134.385	126.321	-0.074	-0.093
-133.370	450.847	0.108	0.237
-132.356	17.764	-0.294	-0.232
-131.341	-200.000	0.022	0.189
-130.326	-200.000	0.009	-0.144
-129.312	-78.077	-0.100	0.034
-128.297	800.000	-0.095	0.269
-127.283	506.596	0.105	0.242
-126.268	15.291	0.111	0.086
-125.253	25.203	-0.144	0.119
-124.239	-200.000	0.012	-0.220
-123.224	-200.000	-0.027	-0.241
-122.210	-50.527	0.264	0.124
-121.195	-122.767	-0.056	0.009
-120.180	784.187	-0.046	0.125
-119.166	233.994	0.181	0.295
-118.151	562.714	-0.182	-0.436
-117.137	-64.831	0.031	0.012
-116.122	122.051	-0.142	-0.176
-115.107	-160.061	-0.260	-0.014
-114.093	226.118	0.112	-0.181
-113.078	-29.310	-0.467	-0.265
-112.064	382.837	-0.026	0.054
-111.049	-33.029	-0.137	-0.076
-110.034	-7.810	0.243	0.162
-109.020	-128.911	-0.338	0.047
-108.005	-67.792	0.152	-0.059
-106.991	800.000	-0.051	0.208
-105.976	576.058	0.139	0.337
-104.962	-200.000	-0.002	-0.066
-103.947	-86.523	-0.276	0.084
-102.932	101.043	0.158	-0.182
-101.918	-136.653	0.085	0.010
-100.903	144.924	-0.010	0.014
-99.889	99.927	-0.047	-0.054
-98.874	-10.282	0.070	0.046
-97.859	4.394	-0.166	0.121
-96.845	112.896	-0.251	0.301
-95.830	-63.662	-0.183	0.074
-94.816	-18.989	-0.032	0.020
-93.801	-83.134	0.427	-0.136
-92.786	201.695	0.142	-0.217
-91.772	-92.515	-0.041	0.012
-90.757	-7.308	0.176	-0.118
-89.743	-200.000	0.029	0.162
-88.728	52.502	-0.093	-0.088
-87.713	123.617	-0.230	0.286
-86.699	55.300	0.064	-0.061
-85.684	72.508	-0.144	0.149
-84.670	-3.234	-0.258	0.178
-83.655	800.000	-0.082	0.320
-82.640	125.951	0.080	-0.100
-81.626	-83.680	-0.162	-0.051
-80.611	88.507	0.090	-0.099
-79.597	800.000	-0.135	0.384
-78.582	81.705	-0.199	0.214
-77.567	93.962	-0.270	0.303
-76.553	44.515	-0.101	0.091
-75.538	-122.245	-0.030	-0.005
-74.524	429.427	-0.131	0.281
-73.509	-55.483	0.205	-0.091
-72.494	26.777	-0.101	0.084
-71.480	115.361	0.063	0.076
-70.465	231.192	0.066	0.107
-69.451	18.579	-0.307	-0.243
-68.436	44.155	-0.135	0.123
-67.422	-12.480	-0.215	-0.139
-66.407	-200.000	0.008	-0.300
-65.392	58.076	0.072	-0.070
-64.378	-200.000	0.010	0.155
-63.363	250.829	-0.049	-0.083
-62.349	-75.747	0.217	-0.076
-61.334	368.549	-0.598	-1.196
-60.319	-18.791	0.557	0.343
-59.305	354.345	-0.562	-1.104
-58.290	420.000	0.392	0.830
-57.276	800.000	0.679	1.868
-56.261	-200.000	87.584	492.185
-55.246	502.877	1411.898	3226.734
-54.232	180.077	2641.958	3828.961
-53.217	111.348	2367.962	2821.748
-52.203	45.821	1972.943	1803.428
-51.188	40.104	1758.872	1562.686
-50.173	37.395	1713.617	1501.526
-49.159	52.269	1757.222	1656.332
-48.144	55.810	1775.072	1700.777
-47.130	40.096	1734.388	1540.627
-46.115	37.005	1720.033	1503.884
-45.100	36.876	1714.834	1498.280
-44.086	36.942	1712.042	1496.288
-43.071	36.844	1709.773	1493.495
-42.057	36.852	1706.494	1490.629
-41.042	36.839	1704.722	1488.924
-40.027	36.918	1702.889	1487.870
-39.013	36.798	1701.198	1485.412
-37.998	36.901	1698.869	1484.113
-36.984	36.967	1697.534	1483.390
-35.969	37.063	1696.226	1482.922
-34.954	37.060	1695.029	1481.797
-33.940	36.980	1692.983	1479.334
-32.925	37.063	1690.839	1478.036
-31.911	37.045	1688.965	1476.203
-30.896	37.047	1687.097	1474.524
-29.881	36.990	1685.850	1472.948
-28.867	37.036	1684.028	1471.647
-27.852	37.071	1682.585	1470.589
-26.838	37.083	1680.833	1469.089
-25.823	37.062	1679.781	1467.954
-24.809	37.137	1678.282	1467.156
-23.794	37.078	1677.062	1465.586
-22.779	37.085	1675.234	1463.981
-21.765	37.038	1673.884	1462.385
-20.750	37.051	1671.594	1460.429
-19.736	37.107	1670.764	1460.064
-18.721	36.998	1669.546	1458.125
-17.706	37.099	1667.783	1457.286
-16.692	37.100	1666.196	1455.851
-15.677	37.107	1664.580	1454.431
-14.663	37.262	1662.805	1453.981
-13.648	37.075	1662.383	1452.155
-12.633	37.128	1659.997	1450.412
-11.619	37.092	1658.940	1449.157
-10.604	37.071	1656.736	1447.019
-9.590	36.941	1656.212	1445.533
-8.575	37.100	1654.350	1445.040
-7.560	37.085	1653.139	1443.810
-6.546	37.074	1652.254	1442.895
-5.531	37.049	1650.912	1441.480
-4.517	37.088	1649.232	1440.251
-3.502	37.060	1648.728	1439.545
-2.487	37.104	1647.585	1438.815
-1.473	37.022	1635.470	1427.578
-0.458	34.590	1615.354	1392.246
0.556	32.380	1614.953	1357.210
1.571	29.694	1639.599	1358.093
2.586	28.616	1652.711	1360.849
3.600	24.689	1596.493	1286.248
4.615	14.626	1478.304	1123.521
5.629	6.083	1409.339	1015.975
6.644	4.641	1400.385	1000.165
7.659	4.603	1399.146	998.946
8.673	4.560	1397.770	997.597
9.688	4.696	1396.337	997.358
10.702	4.581	1393.550	994.543
11.717	8.140	1401.163	1022.748
12.731	17.205	1418.078	1093.606
13.746	22.114	1425.107	1130.602
14.761	21.192	1421.992	1122.112
15.775	20.159	1419.239	1113.209
16.790	19.017	1416.301	1103.488
17.804	18.232	1413.972	1096.541
18.819	17.872	1412.967	1093.360
19.834	17.651	1411.701	1090.870
20.848	17.376	1410.147	1087.818
21.863	17.115	1408.949	1085.130
22.877	16.959	1408.081	1083.368
23.892	16.999	1406.767	1082.516
24.907	16.947	1405.844	1081.374
25.921	17.012	1404.895	1080.963
26.936	17.059	1404.200	1080.634
27.950	17.102	1403.049	1079.929
28.965	17.160	1402.110	1079.477
29.980	17.259	1400.991	1079.148
30.994	17.251	1399.770	1078.064
32.009	17.369	1398.585	1077.802
33.023	17.330	1397.668	1076.752
34.038	17.249	1396.261	1075.062
35.053	17.201	1394.717	1073.475
36.067	17.298	1393.522	1073.072
37.082	17.186	1392.643	1071.596
38.096	17.262	1391.508	1071.102
39.111	17.286	1390.887	1070.685
40.126	17.226	1389.556	1069.187
41.140	16.915	1389.064	1066.759
42.155	16.917	1388.789	1066.461
43.169	16.925	1388.345	1066.076
44.184	16.856	1388.023	1065.303
45.199	16.906	1387.430	1065.065
46.213	16.985	1387.150	1065.257
47.228	17.106	1386.317	1065.279
48.242	17.021	1385.300	1063.872
49.257	17.162	1383.139	1063.001
50.271	17.110	1381.829	1061.576
51.286	17.151	1380.923	1061.040
52.301	17.204	1379.389	1060.101
53.315	17.078	1378.142	1058.260
54.330	16.913	1377.512	1056.658
55.344	16.960	1375.850	1055.576
56.359	16.938	1375.054	1054.740
57.374	17.003	1374.109	1054.327
58.388	16.799	1373.370	1052.397
59.403	16.801	1372.838	1051.910
60.417	16.836	1372.087	1051.455
61.432	16.727	1371.514	1050.247
62.447	16.774	1369.893	1049.203
63.461	16.725	1368.676	1047.878
64.476	16.794	1367.562	1047.360
65.490	16.681	1366.427	1045.698
66.505	16.726	1365.324	1045.042
67.520	16.791	1363.798	1044.179
68.534	16.784	1362.801	1043.278
69.549	16.778	1361.777	1042.366
70.563	16.738	1360.633	1041.152
71.578	16.630	1359.911	1039.844
72.593	16.583	1358.314	1038.244
73.607	16.471	1358.264	1037.424
74.622	16.628	1356.898	1037.251
75.636	16.580	1356.248	1036.370
76.651	16.693	1355.440	1036.356
77.666	16.560	1355.084	1035.176
78.680	16.623	1354.405	1034.951
79.695	16.776	1353.608	1035.185
80.709	16.749	1352.708	1034.239
81.724	16.920	1352.274	1034.860
82.739	16.924	1351.312	1034.056
83.753	16.975	1350.394	1033.572
84.768	17.104	1349.498	1033.582
85.782	17.178	1348.743	1033.362
86.797	17.214	1347.051	1032.193
87.812	17.100	1345.686	1030.363
88.826	17.029	1344.772	1029.143
89.841	17.160	1343.526	1028.892
90.855	17.185	1342.440	1028.121
91.870	17.192	1341.483	1027.341
92.884	17.351	1340.637	1027.561
93.899	17.310	1339.995	1026.733
94.914	17.286	1339.307	1025.968
95.928	17.261	1338.616	1025.200
96.943	17.322	1337.376	1024.525
97.957	17.191	1336.607	1023.055
98.972	17.201	1335.629	1022.275
99.987	17.096	1334.518	1020.705
101.001	17.302	1333.427	1021.016
102.016	17.237	1332.159	1019.564
103.030	17.217	1331.418	1018.792
104.045	17.201	1330.688	1018.045
105.060	17.094	1329.572	1016.462
106.074	16.942	1327.886	1014.171
107.089	16.801	1326.520	1012.194
108.103	16.785	1324.915	1010.787
109.118	16.793	1323.774	1009.875
110.133	16.716	1322.780	1008.570
111.147	16.734	1321.293	1007.450
112.162	16.876	1319.869	1007.121
113.176	16.796	1319.231	1006.070
114.191	16.961	1317.899	1005.947
115.206	16.875	1316.785	1004.495
116.220	16.989	1315.308	1003.957
117.235	16.897	1314.346	1002.585
118.249	16.908	1313.470	1001.899
119.264	16.846	1312.171	1000.449
120.279	16.882	1310.767	999.505
121.293	16.840	1309.828	998.452
122.308	16.788	1308.942	997.381
123.322	16.565	1308.201	995.417
124.337	16.694	1306.899	995.095
125.352	16.838	1305.671	994.918
126.366	16.719	1304.734	993.419
127.381	16.713	1303.910	992.667
128.395	16.792	1302.897	992.271
129.410	16.800	1301.875	991.452
130.424	16.799	1301.442	991.028
131.439	16.805	1300.410	990.193
132.454	16.920	1299.077	989.761
133.468	16.883	1298.447	988.976
134.483	16.931	1297.867	988.724
135.497	16.932	1296.921	987.926
136.512	16.855	1295.683	986.448
137.527	16.992	1294.441	986.210
138.541	17.012	1292.658	984.880
139.556	17.048	1291.502	984.121
140.570	17.119	1290.341	983.559
141.585	17.196	1289.296	983.125
142.600	17.247	1288.326	982.593
143.614	17.351	1287.392	982.395
144.629	17.322	1286.430	981.405
145.643	17.303	1285.255	980.312
146.658	17.135	1284.031	978.324
147.673	17.024	1282.304	976.282
148.687	16.990	1281.502	975.389
149.702	17.008	1279.862	974.159
150.716	17.039	1278.124	972.927
151.731	16.926	1277.337	971.597
152.746	17.112	1275.800	971.401
153.760	17.088	1274.732	970.367
154.775	17.061	1274.088	969.636
155.789	17.185	1272.707	969.209
156.804	17.094	1272.081	968.127
157.819	17.197	1270.797	967.650
158.833	17.339	1269.636	967.490
159.848	17.359	1268.904	966.958
160.862	17.320	1268.187	966.104
161.877	17.193	1266.816	964.256
162.892	17.018	1265.739	962.358
163.906	16.955	1265.050	961.389
164.921	16.980	1263.978	960.635
165.935	17.075	1262.897	960.265
166.950	17.102	1262.121	959.740
167.964	17.222	1261.052	959.524
168.979	17.103	1260.694	958.491
169.994	17.202	1259.720	958.224
171.008	17.258	1258.968	957.885
172.023	17.284	1258.445	957.549
173.037	17.402	1257.563	957.459
174.052	17.356	1256.296	956.148
175.067	17.292	1255.109	954.803
176.081	17.159	1254.268	953.328
177.096	17.112	1253.527	952.416
178.110	17.144	1252.304	951.586
179.125	17.172	1250.962	950.639
180.140	17.159	1249.800	949.596
181.154	17.390	1248.549	949.853
182.169	17.324	1247.307	948.458
183.183	17.496	1246.018	948.351
184.198	17.430	1245.327	947.375
185.213	17.451	1244.082	946.459
186.227	17.560	1242.646	945.888
187.242	17.562	1241.859	945.214
188.256	17.601	1241.129	944.791
189.271	17.609	1239.879	943.802
190.286	17.434	1238.603	941.780
191.300	17.173	1237.584	939.478
192.315	17.042	1237.040	938.260
193.329	17.107	1236.306	937.976
194.344	17.090	1235.784	937.405
195.359	17.198	1235.469	937.678
196.373	17.429	1234.592	938.202
197.388	17.448	1234.410	938.087
198.402	17.691	1233.717	938.816
199.417	17.678	1233.331	938.368
200.432	17.831	1232.175	938.244
201.446	17.727	1232.074	937.514
202.461	17.924	1230.104	937.012
203.475	17.852	1229.495	936.070
204.490	17.771	1228.231	934.582
205.504	17.687	1226.747	932.913
206.519	17.650	1225.519	931.693
207.534	17.642	1224.418	930.733
208.548	17.609	1223.552	929.812
209.563	17.598	1223.049	929.286
210.577	17.731	1221.666	928.874
211.592	17.709	1221.210	928.328
212.607	17.745	1220.461	927.874
213.621	17.800	1219.389	927.273
214.636	17.757	1218.661	926.406
215.650	17.828	1217.272	925.653
216.665	17.831	1216.526	925.019
217.680	17.924	1215.679	924.796
218.694	17.978	1214.597	924.186
219.709	17.926	1214.111	923.454
220.723	17.881	1213.316	922.523
221.738	17.986	1212.449	922.350
222.753	17.893	1211.619	921.131
223.767	17.931	1211.039	920.813
224.782	18.131	1210.050	921.058
225.796	18.081	1209.768	920.492
226.811	18.095	1209.050	919.941
227.826	18.036	1208.073	918.797
228.840	17.940	1207.476	917.746
229.855	18.011	1206.728	917.481
230.869	17.913	1205.993	916.313
231.884	17.889	1205.411	915.660
232.899	17.967	1203.969	914.902
233.913	17.944	1202.943	913.919
234.928	17.793	1202.921	913.016
235.942	17.776	1202.216	912.308
236.957	17.709	1201.339	911.201
237.972	17.859	1200.665	911.411
238.986	17.921	1199.561	910.824
240.001	17.824	1198.981	909.787
241.015	17.951	1197.396	909.181
242.030	17.900	1197.387	908.821
243.045	17.954	1196.690	908.501
244.059	18.055	1195.493	908.044
245.074	18.075	1194.884	907.607
246.088	18.135	1193.876	907.082
247.103	18.135	1193.374	906.617
248.117	18.209	1192.514	906.278
249.132	18.291	1192.239	906.423
250.147	18.398	1191.622	906.438
251.161	18.492	1190.982	906.373
252.176	18.534	1190.082	905.828
253.190	18.668	1189.369	905.912
254.205	18.724	1188.950	905.808
255.220	18.683	1188.312	905.025
256.234	18.719	1187.323	904.381
257.249	18.761	1186.522	903.914
258.263	18.673	1185.970	902.951
259.278	18.551	1185.802	902.098
260.293	18.730	1184.795	902.193
261.307	18.781	1184.022	901.793
262.322	18.776	1183.533	901.315
263.336	18.821	1182.736	900.867
264.351	18.754	1182.391	900.170
265.366	18.738	1181.821	899.573
266.380	18.844	1181.138	899.531
267.395	18.715	1180.069	897.959
268.409	18.753	1178.829	897.136
269.424	18.620	1178.494	896.106
270.439	18.796	1177.727	896.361
271.453	18.717	1177.029	895.340
272.468	18.601	1176.024	893.893
273.482	18.561	1175.370	893.108
274.497	18.621	1174.862	892.957
275.512	18.668	1173.728	892.261
276.526	18.725	1172.640	891.651
277.541	18.668	1172.681	891.306
278.555	18.784	1172.000	891.309
279.570	18.863	1171.198	891.033
280.585	18.876	1170.820	890.733
281.599	18.920	1169.621	889.971
282.614	18.885	1168.330	888.727
283.628	18.772	1167.356	887.321
284.643	18.861	1166.276	886.885
285.657	18.882	1165.404	886.252
286.672	18.822	1164.331	885.046
287.687	18.775	1163.970	884.452
288.701	18.852	1163.114	884.117
289.716	18.882	1162.019	883.363
290.730	18.844	1161.560	882.740
291.745	18.950	1160.725	882.571
292.760	18.939	1160.275	882.097
293.774	19.041	1159.427	881.893
294.789	19.052	1159.307	881.785
295.803	19.062	1158.230	880.937
296.818	19.100	1157.243	880.301
297.833	19.018	1156.660	879.361
298.847	18.963	1156.101	878.580
299.862	19.014	1155.315	878.163
300.876	19.081	1154.510	877.815
301.891	19.155	1153.882	877.639
302.906	19.207	1153.361	877.428
303.920	19.280	1152.230	876.862
304.935	19.385	1152.028	877.166
305.949	19.366	1151.409	876.519
306.964	19.313	1150.697	875.632
307.979	19.310	1149.466	874.603
308.993	19.253	1149.227	874.051
310.008	19.343	1148.224	873.670
311.022	19.363	1147.720	873.307
312.037	19.354	1146.670	872.386
313.052	19.325	1145.334	871.146
314.066	19.282	1144.257	870.034
315.081	19.158	1143.673	868.888
316.095	19.275	1142.554	868.552
317.110	19.166	1141.767	867.324
318.125	19.208	1140.956	866.846
319.139	19.108	1140.457	865.887
320.154	19.164	1139.820	865.606
321.168	19.157	1139.349	865.137
322.183	19.229	1138.362	864.675
323.197	19.302	1137.833	864.559
324.212	19.303	1137.484	864.222
325.227	19.308	1136.706	863.584
326.241	19.271	1136.215	862.948
327.256	19.214	1135.119	861.752
328.270	19.210	1134.156	860.927
329.285	19.297	1133.308	860.641
330.300	19.250	1132.717	859.883
331.314	19.243	1131.473	858.824
332.329	19.379	1130.724	858.856
333.343	19.427	1129.498	858.088
334.358	19.466	1128.862	857.725
335.373	19.534	1127.955	857.299
336.387	19.448	1127.552	856.487
337.402	19.560	1126.826	856.419
338.416	19.452	1126.020	855.194
339.431	19.604	1125.818	855.717
340.446	19.718	1124.950	855.545
341.460	19.794	1124.365	855.403
342.475	19.799	1123.481	854.676
343.489	19.680	1122.925	853.593
344.504	19.879	1121.426	853.360
345.519	19.864	1120.494	852.500
346.533	19.937	1119.825	852.272
347.548	20.025	1119.234	852.179
348.562	19.912	1118.360	850.885
349.577	19.856	1117.298	849.726
350.592	19.736	1116.731	848.629
351.606	19.740	1115.561	847.688
352.621	19.659	1114.969	846.765
353.635	19.624	1114.425	846.105
354.650	19.552	1113.814	845.215
355.665	19.687	1113.311	845.419
356.679	19.671	1112.783	844.866
357.694	19.770	1112.054	844.719
358.708	19.768	1111.064	843.884
359.723	19.870	1110.733	844.053
360.738	19.869	1109.825	843.285
361.752	19.822	1109.203	842.508
362.767	19.999	1108.771	842.970
363.781	19.851	1108.161	841.710
364.796	19.969	1107.287	841.543
365.810	20.034	1106.990	841.563
366.825	20.150	1106.698	841.826
367.840	20.249	1106.127	841.799
368.854	20.219	1105.630	841.201
369.869	20.219	1104.798	840.493
370.883	20.209	1103.625	839.477
371.898	20.173	1102.567	838.426
372.913	20.147	1102.356	838.063
373.927	20.182	1101.926	837.831
374.942	20.303	1101.029	837.660
375.956	20.247	1100.811	837.152
376.971	20.239	1100.302	836.651
377.986	20.304	1099.594	836.351
379.000	20.481	1098.845	836.561
380.015	20.522	1098.592	836.490
381.029	20.525	1097.788	835.818
382.044	20.309	1097.462	834.458
383.059	20.428	1096.161	833.965
384.073	20.422	1095.352	833.251
385.088	20.346	1094.870	832.444
386.102	20.482	1093.443	831.935
387.117	20.335	1092.637	830.545
388.132	20.192	1091.793	829.147
389.146	20.311	1090.761	828.859
390.161	20.337	1089.941	828.287
391.175	20.319	1089.057	827.455
392.190	20.400	1088.628	827.441
393.205	20.497	1087.846	827.234
394.219	20.430	1087.088	826.270
395.234	20.529	1086.053	825.880
396.248	20.505	1084.691	824.656
397.263	20.296	1084.105	823.145
398.278	20.325	1082.815	822.232
399.292	20.341	1082.604	822.074
400.307	20.242	1081.783	820.911
401.321	20.354	1080.750	820.582
402.336	20.220	1080.662	819.811
403.350	20.359	1079.664	819.637
404.365	20.429	1078.901	819.316
405.380	20.548	1078.243	819.304
406.394	20.536	1077.427	818.555
407.409	20.573	1076.665	818.079
408.423	20.604	1076.233	817.824
409.438	20.784	1075.177	817.793
410.453	20.749	1074.803	817.274
411.467	20.703	1074.410	816.685
412.482	20.816	1073.455	816.416
413.496	20.861	1072.752	816.022
414.511	20.923	1072.457	816.013
415.526	20.910	1072.174	815.667
416.540	20.890	1071.532	815.012
417.555	20.999	1071.151	815.158
418.569	20.861	1070.461	813.916
419.584	20.942	1069.704	813.650
420.599	20.929	1068.920	812.919
421.613	149.472	1402.425	1781.692
422.628	137.606	1451.032	1781.812
