DTS Sentinel unit serial number:	SN413079Multiplexer serial number:	ORYXHardware model number:	OX4-SRSoftware version number:	ORYX F/W v4.00 Oryx Data Collector v3.7.2.0data status	okinstallation	princeton_trtdifferential loss correction	single-endedforward channel	channel 2reverse channel	N/Adate	2019/09/12time	10:01:10forward acquisition time	60.00reverse acquisition time	0.00gamma	496.2192k internal	0.2314k external	0.2314temperature offset calibration	1.0065default loss term (dB/km)	0.3790temperature slope calibration	1.0000multiplexer offset coefficient	1.0000multiplexer slope coefficient	1.0000fibre end	0.00T internal ref (°C)	36.20T ext. ref 1 (°C)	1.85T ext. ref 2 (°C)	32.89length (m)	temperature (°C)	Stokes	anti-Stokes-747.200	33.201	-0.178	-0.156
-746.185	87.819	0.109	0.123
-745.171	-200.000	0.011	0.177
-744.156	143.762	-0.040	0.054
-743.142	-200.000	0.016	-0.205
-742.127	-4.451	-0.335	-0.235
-741.112	-200.000	-0.004	-0.069
-740.098	620.304	0.179	0.457
-739.083	229.971	-0.210	-0.347
-738.069	-200.000	-0.032	0.244
-737.054	800.000	-0.105	-0.300
-736.039	-47.827	0.057	0.028
-735.025	-200.000	-0.006	0.344
-734.010	-152.750	-0.318	-0.023
-732.996	-105.682	-0.188	-0.043
-731.981	-200.000	0.031	0.209
-730.966	-19.226	-0.139	0.088
-729.952	47.633	-0.188	-0.178
-728.937	-200.000	-0.044	0.226
-727.923	392.276	0.048	0.100
-726.908	-200.000	0.009	0.149
-725.894	-40.060	-0.231	-0.122
-724.879	-62.288	0.251	0.106
-723.864	-124.948	-0.361	0.056
-722.850	44.958	-0.335	-0.313
-721.835	-65.092	-0.233	-0.095
-720.821	-1.250	0.170	-0.122
-719.806	-56.488	0.111	0.050
-718.791	41.592	-0.156	0.143
-717.777	800.000	0.105	0.385
-716.762	234.280	0.106	0.176
-715.748	460.417	-0.081	0.182
-714.733	430.405	0.239	-0.523
-713.718	49.343	0.203	-0.194
-712.704	-93.100	0.122	0.035
-711.689	-113.161	0.271	-0.054
-710.675	-200.000	0.026	-0.162
-709.660	295.765	-0.033	-0.061
-708.645	-18.619	-0.129	-0.081
-707.631	-200.000	-0.206	0.001
-706.616	-108.615	-0.275	0.060
-705.602	237.538	-0.214	0.359
-704.587	107.581	-0.069	-0.083
-703.572	800.000	-0.040	0.140
-702.558	-167.313	0.268	0.011
-701.543	-169.215	0.118	0.004
-700.529	-200.000	-0.042	-0.200
-699.514	800.000	-0.078	-0.237
-698.499	-75.467	0.119	-0.043
-697.485	-32.425	0.384	0.217
-696.470	138.685	0.077	-0.103
-695.456	-200.000	-0.015	-0.262
-694.441	-105.992	-0.210	-0.048
-693.426	780.647	-0.045	-0.124
-692.412	-5.254	0.136	-0.095
-691.397	-200.000	0.024	-0.178
-690.383	115.056	-0.078	0.096
-689.368	73.860	-0.229	0.243
-688.354	80.681	-0.029	-0.031
-687.339	487.965	-0.100	-0.231
-686.324	15.265	0.140	0.111
-685.310	-40.955	-0.208	0.109
-684.295	800.000	-0.059	-0.233
-683.281	-128.665	-0.118	-0.017
-682.266	-75.458	-0.197	-0.071
-681.251	76.971	0.278	-0.298
-680.237	-95.646	-0.168	0.045
-679.222	800.000	0.109	-0.408
-678.208	-26.502	-0.413	0.245
-677.193	11.221	-0.175	-0.136
-676.178	-35.904	-0.109	0.060
-675.164	-65.688	-0.215	-0.087
-674.149	-75.193	-0.183	0.066
-673.135	-200.000	-0.047	-0.248
-672.120	-54.666	0.453	-0.207
-671.105	-69.275	-0.092	-0.036
-670.091	13.071	0.084	-0.066
-669.076	226.228	-0.183	-0.299
-668.062	-113.298	-0.326	-0.065
-667.047	-174.268	0.143	-0.004
-666.032	-99.993	-0.142	-0.036
-665.018	226.707	0.151	-0.249
-664.003	313.617	0.026	0.050
-662.989	800.000	0.029	-0.084
-661.974	-200.000	-0.178	-0.000
-660.959	295.690	-0.136	-0.252
-659.945	54.657	-0.036	0.035
-658.930	220.959	-0.063	0.103
-657.916	-115.712	-0.454	-0.086
-656.901	26.618	-0.122	-0.103
-655.886	39.029	-0.061	-0.055
-654.872	-20.204	-0.234	-0.145
-653.857	-101.675	0.307	0.075
-652.843	212.755	0.218	-0.348
-651.828	-105.722	0.381	0.087
-650.814	800.000	0.053	-0.159
-649.799	-2.029	-0.390	-0.277
-648.784	-71.627	-0.344	-0.130
-647.770	124.896	-0.134	-0.171
-646.755	60.834	-0.089	0.089
-645.741	-200.000	0.002	-0.194
-644.726	-77.963	-0.078	0.027
-643.711	2.809	0.095	0.069
-642.697	-63.312	0.062	0.026
-641.682	-200.000	0.018	0.228
-640.668	-200.000	-0.000	0.008
-639.653	508.021	-0.063	0.147
-638.638	-140.041	0.062	-0.007
-637.624	-200.000	0.003	-0.310
-636.609	-51.014	0.167	-0.079
-635.595	-200.000	0.016	-0.101
-634.580	-151.243	0.069	-0.005
-633.565	-130.858	-0.027	-0.004
-632.551	66.524	-0.071	-0.073
-631.536	800.000	-0.042	-0.163
-630.522	-8.266	0.098	-0.066
-629.507	-66.687	0.212	0.085
-628.492	-70.962	-0.120	0.046
-627.478	-166.297	-0.149	0.006
-626.463	200.348	0.065	0.101
-625.449	217.640	-0.031	0.050
-624.434	-6.919	-0.100	0.069
-623.419	800.000	-0.096	-0.364
-622.405	-131.467	0.196	-0.026
-621.390	800.000	-0.117	0.349
-620.376	56.676	0.125	-0.123
-619.361	800.000	-0.066	0.267
-618.346	232.422	0.044	-0.073
-617.332	-200.000	-0.010	0.056
-616.317	-111.116	0.176	0.036
-615.303	387.151	-0.071	-0.148
-614.288	-157.679	0.165	0.010
-613.273	117.200	-0.166	0.206
-612.259	-4.076	-0.184	-0.129
-611.244	422.999	-0.083	-0.180
-610.230	-200.000	-0.006	-0.168
-609.215	15.024	-0.177	-0.140
-608.201	568.876	-0.172	-0.422
-607.186	-167.094	-0.089	0.004
-606.171	-108.169	0.148	-0.032
-605.157	-200.000	-0.002	-0.135
-604.142	6.774	-0.296	0.222
-603.128	-9.669	-0.198	-0.133
-602.113	-111.991	-0.236	0.048
-601.098	-50.204	0.176	-0.084
-600.084	36.225	-0.074	0.066
-599.069	487.116	0.079	-0.181
-598.055	607.520	-0.021	-0.054
-597.040	133.802	-0.140	-0.183
-596.025	800.000	0.076	0.303
-595.011	800.000	0.160	-0.524
-593.996	-31.920	0.038	-0.022
-592.982	-81.024	-0.261	-0.087
-591.967	150.106	0.105	0.144
-590.952	-200.000	0.034	0.457
-589.938	-99.416	0.334	-0.085
-588.923	800.000	0.051	-0.181
-587.909	3.065	-0.125	0.092
-586.894	496.341	-0.033	-0.078
-585.879	224.992	-0.069	0.112
-584.865	147.535	-0.110	0.150
-583.850	73.016	0.057	0.060
-582.836	-38.256	-0.175	-0.093
-581.821	-42.360	-0.099	-0.051
-580.806	-200.000	0.014	0.133
-579.792	-49.041	0.233	0.113
-578.777	-45.670	-0.111	0.055
-577.763	80.708	-0.266	0.289
-576.748	-167.301	-0.136	-0.006
-575.733	619.046	0.096	0.243
-574.719	456.313	0.022	0.048
-573.704	-197.426	-0.313	-0.002
-572.690	-200.000	0.016	-0.203
-571.675	-42.106	0.074	-0.038
-570.661	800.000	0.043	-0.161
-569.646	-200.000	-0.059	0.602
-568.631	800.000	-0.068	-0.239
-567.617	-200.000	-0.123	0.000
-566.602	-30.365	-0.302	-0.172
-565.588	796.099	-0.093	-0.258
-564.573	29.772	-0.246	-0.211
-563.558	-200.000	-0.068	-0.353
-562.544	339.345	-0.092	-0.180
-561.529	-125.708	-0.172	0.026
-560.515	127.159	-0.117	0.150
-559.500	-100.793	0.283	0.070
-558.485	127.194	-0.101	0.128
-557.471	73.290	-0.287	-0.302
-556.456	-4.894	-0.270	0.187
-555.442	-16.498	0.108	0.069
-554.427	131.118	-0.227	-0.293
-553.412	-200.000	0.009	0.187
-552.398	7.410	0.075	0.056
-551.383	-200.000	0.000	0.108
-550.369	-103.060	-0.078	0.018
-549.354	28.667	0.126	-0.107
-548.339	-8.278	-0.147	-0.099
-547.325	-95.696	-0.162	-0.044
-546.310	-197.236	0.147	-0.001
-545.296	4.237	0.051	0.038
-544.281	-200.000	0.014	0.080
-543.266	-106.894	-0.189	-0.042
-542.252	-200.000	0.039	-0.179
-541.237	247.137	-0.201	0.342
-540.223	-200.000	0.053	0.238
-539.208	-150.927	-0.190	-0.014
-538.193	187.670	-0.142	0.213
-537.179	-142.666	-0.188	0.018
-536.164	800.000	0.058	0.203
-535.150	-2.070	0.195	0.138
-534.135	-131.881	0.175	-0.023
-533.121	-157.278	-0.248	0.015
-532.106	30.257	-0.121	-0.104
-531.091	-17.855	-0.087	0.055
-530.077	-200.000	0.017	-0.203
-529.062	800.000	-0.083	-0.366
-528.048	-156.618	0.096	-0.006
-527.033	-200.000	0.048	0.331
-526.018	47.343	-0.171	0.160
-525.004	-200.000	0.001	-0.252
-523.989	-200.000	-0.026	0.212
-522.975	126.480	-0.209	-0.266
-521.960	119.416	0.136	0.170
-520.945	-165.977	-0.141	0.006
-519.931	35.487	0.147	-0.130
-518.916	4.800	0.393	0.290
-517.902	800.000	-0.092	0.263
-516.887	-200.000	-0.034	-0.165
-515.872	-93.249	0.238	0.067
-514.858	-200.000	-0.024	0.173
-513.843	-67.001	-0.333	-0.132
-512.829	276.720	0.165	-0.295
-511.814	627.757	-0.086	0.217
-510.799	-115.568	0.366	0.069
-509.785	-73.493	0.093	-0.034
-508.770	-79.811	-0.273	-0.092
-507.756	36.956	0.230	0.204
-506.741	-25.731	0.353	-0.209
-505.726	26.558	0.203	-0.171
-504.712	19.275	0.222	-0.179
-503.697	800.000	0.018	0.071
-502.683	-105.504	0.160	0.036
-501.668	26.888	-0.056	0.048
-500.653	-185.439	0.186	-0.003
-499.639	-85.074	-0.134	0.042
-498.624	-56.200	0.181	-0.081
-497.610	67.522	0.208	0.213
-496.595	80.313	-0.086	-0.092
-495.581	-125.746	0.149	-0.023
-494.566	800.000	0.043	-0.178
-493.551	-149.522	0.372	-0.030
-492.537	-200.000	-0.040	-0.228
-491.522	201.101	-0.230	-0.356
-490.508	-200.000	-0.035	0.229
-489.493	-147.679	-0.131	0.011
-488.478	31.708	0.226	0.195
-487.464	-81.687	-0.162	-0.053
-486.449	-200.000	-0.005	0.031
-485.435	-69.659	0.359	-0.138
-484.420	-173.172	0.074	-0.002
-483.405	800.000	0.044	-0.132
-482.391	800.000	-0.007	-0.031
-481.376	800.000	0.113	0.394
-480.362	-129.121	-0.103	0.014
-479.347	82.717	-0.045	-0.049
-478.332	680.595	-0.028	-0.074
-477.318	213.683	-0.082	-0.131
-476.303	800.000	0.119	0.353
-475.289	-99.169	-0.156	0.040
-474.274	353.759	0.055	0.110
-473.259	-19.301	-0.167	0.104
-472.245	519.172	0.077	0.181
-471.230	419.276	0.036	0.077
-470.216	-161.594	0.342	0.018
-469.201	-200.000	-0.022	0.478
-468.186	800.000	-0.049	-0.141
-467.172	396.544	-0.060	-0.126
-466.157	236.488	0.144	-0.239
-465.143	-20.544	0.107	0.066
-464.128	-41.780	-0.172	-0.089
-463.113	437.354	0.079	0.172
-462.099	-200.000	0.017	-0.167
-461.084	-33.502	-0.106	0.059
-460.070	33.686	-0.097	0.085
-459.055	175.445	-0.123	0.179
-458.040	24.925	-0.321	0.267
-457.026	-200.000	0.183	-0.000
-456.011	-42.563	-0.393	0.201
-454.997	-200.000	-0.034	-0.256
-453.982	79.911	-0.173	0.186
-452.968	-200.000	0.020	-0.261
-451.953	800.000	0.069	-0.194
-450.938	198.714	-0.068	0.105
-449.924	800.000	-0.065	0.240
-448.909	-200.000	0.068	0.315
-447.895	-47.133	0.350	0.171
-446.880	347.282	-0.132	-0.260
-445.865	180.239	-0.129	-0.190
-444.851	-20.971	-0.138	-0.085
-443.836	-200.000	-0.015	0.152
-442.822	-200.000	-0.001	0.236
-441.807	-158.029	-0.081	-0.005
-440.792	-200.000	-0.003	-0.264
-439.778	-90.497	-0.060	-0.018
-438.763	19.656	-0.407	0.328
-437.749	15.710	0.162	-0.128
-436.734	-102.272	-0.095	0.023
-435.719	40.095	-0.109	0.098
-434.705	461.060	0.082	0.182
-433.690	-200.000	-0.007	-0.135
-432.676	800.000	-0.052	0.180
-431.661	-103.515	0.077	-0.018
-430.646	199.092	-0.017	0.025
-429.632	-134.742	0.150	0.018
-428.617	800.000	-0.094	-0.273
-427.603	90.449	-0.040	-0.045
-426.588	-200.000	-0.023	0.263
-425.573	201.198	0.083	0.128
-424.559	-159.492	0.129	0.007
-423.544	-75.652	0.304	-0.108
-422.530	-200.000	-0.028	-0.341
-421.515	30.032	-0.122	0.104
-420.500	456.638	-0.200	-0.444
-419.486	-102.204	-0.251	0.060
-418.471	198.065	0.159	0.243
-417.457	75.154	0.253	0.267
-416.442	-23.969	-0.218	0.131
-415.428	-200.000	0.046	-0.263
-414.413	-200.000	0.013	-0.199
-413.398	113.746	-0.099	-0.121
-412.384	-1.239	0.424	-0.300
-411.369	92.890	0.035	-0.040
-410.355	-200.000	0.072	0.354
-409.340	800.000	0.068	0.191
-408.325	-200.000	-0.027	-0.168
-407.311	-200.000	0.020	-0.129
-406.296	209.147	0.155	0.242
-405.282	193.111	0.097	0.147
-404.267	-200.000	0.025	0.166
-403.252	-155.922	0.336	-0.021
-402.238	-34.749	0.185	0.101
-401.223	-14.472	0.163	0.105
-400.209	-200.000	0.029	0.287
-399.194	-106.660	-0.330	-0.073
-398.179	71.376	0.243	0.252
-397.165	655.841	-0.094	-0.240
-396.150	-200.000	-0.061	-0.486
-395.136	149.711	-0.190	-0.258
-394.121	-30.763	-0.383	0.217
-393.106	-200.000	-0.061	0.372
-392.092	-200.000	0.006	-0.068
-391.077	284.759	-0.092	0.165
-390.063	-162.373	-0.147	-0.007
-389.048	206.815	0.092	0.144
-388.033	19.079	-0.285	0.228
-387.019	-185.219	-0.150	0.002
-386.004	136.764	-0.126	0.165
-384.990	-200.000	-0.012	0.138
-383.975	16.450	0.025	-0.020
-382.960	-73.049	-0.180	-0.066
-381.946	66.823	-0.172	-0.175
-380.931	-200.000	-0.038	-0.299
-379.917	107.671	-0.224	0.266
-378.902	-147.930	-0.197	0.016
-377.888	-24.110	0.095	0.057
-376.873	11.342	-0.108	-0.083
-375.858	-67.233	0.299	-0.118
-374.844	-200.000	-0.051	-0.279
-373.829	800.000	0.066	0.269
-372.815	-82.413	-0.079	-0.026
-371.800	-200.000	-0.007	-0.103
-370.785	-22.304	-0.350	-0.212
-369.771	-200.000	-0.043	0.458
-368.756	297.023	0.053	0.098
-367.742	466.483	0.128	-0.287
-366.727	-127.112	0.171	0.025
-365.712	-136.272	-0.189	-0.022
-364.698	-51.261	0.239	0.112
-363.683	800.000	0.020	-0.068
-362.669	-170.371	-0.251	-0.009
-361.654	575.677	0.152	0.371
-360.639	800.000	-0.048	-0.135
-359.625	270.502	-0.170	-0.299
-358.610	-21.979	0.174	-0.106
-357.596	398.747	-0.138	-0.288
-356.581	124.871	0.157	0.197
-355.566	-163.252	0.246	-0.012
-354.552	64.491	0.208	-0.209
-353.537	-169.944	0.184	-0.007
-352.523	-96.598	0.072	-0.019
-351.508	68.380	0.141	-0.145
-350.493	-132.393	-0.330	-0.042
-349.479	193.189	-0.149	-0.225
-348.464	-4.314	-0.166	0.115
-347.450	74.188	0.099	-0.104
-346.435	-146.149	-0.361	-0.032
-345.420	39.967	0.244	-0.218
-344.406	38.128	0.053	-0.047
-343.391	-7.888	-0.144	0.097
-342.377	321.167	-0.083	-0.157
-341.362	90.992	-0.185	0.207
-340.348	-126.933	-0.255	0.037
-339.333	158.083	0.273	-0.378
-338.318	800.000	-0.071	-0.302
-337.304	-15.078	-0.308	-0.197
-336.289	-144.658	-0.158	0.014
-335.275	105.529	0.075	-0.088
-334.260	800.000	0.051	-0.186
-333.245	374.405	-0.105	-0.214
-332.231	53.963	0.198	0.190
-331.216	-185.705	-0.165	0.002
-330.202	800.000	-0.054	0.201
-329.187	105.249	0.307	0.362
-328.172	-138.365	-0.177	-0.019
-327.158	-155.811	0.341	-0.022
-326.143	-59.731	0.052	0.022
-325.129	-30.233	-0.085	0.048
-324.114	-94.492	0.487	-0.132
-323.099	-71.537	-0.215	0.080
-322.085	-200.000	0.069	0.408
-321.070	-23.609	-0.222	0.133
-320.056	-42.268	0.143	0.073
-319.041	78.146	-0.172	-0.183
-318.026	33.866	-0.296	0.257
-317.012	-55.490	0.197	0.088
-315.997	190.676	0.155	-0.233
-314.983	174.440	0.029	-0.042
-313.968	-200.000	0.005	-0.352
-312.953	297.223	-0.226	-0.413
-311.939	-132.622	0.067	0.009
-310.924	171.530	-0.106	-0.152
-309.910	48.776	0.240	-0.224
-308.895	125.620	0.183	-0.230
-307.880	-74.848	-0.309	-0.111
-306.866	754.469	0.042	0.114
-305.851	-200.000	-0.012	-0.092
-304.837	605.870	-0.084	0.209
-303.822	-89.559	0.111	-0.033
-302.807	89.175	0.124	-0.138
-301.793	703.873	-0.066	0.174
-300.778	-118.763	0.184	-0.032
-299.764	-10.476	0.197	-0.130
-298.749	-200.000	0.086	0.383
-297.735	490.667	-0.092	-0.209
-296.720	86.956	-0.049	-0.054
-295.705	-110.297	0.214	-0.044
-294.691	-127.858	-0.154	-0.022
-293.676	37.636	-0.132	0.117
-292.662	800.000	-0.046	-0.136
-291.647	-200.000	0.051	-0.242
-290.632	800.000	0.013	-0.053
-289.618	-200.000	-0.035	-0.289
-288.603	13.931	0.268	-0.208
-287.589	-200.000	-0.050	-0.370
-286.574	75.025	-0.230	-0.241
-285.559	-142.215	-0.127	-0.012
-284.545	145.064	-0.268	0.357
-283.530	800.000	-0.057	0.238
-282.516	145.529	0.050	0.066
-281.501	-200.000	0.007	0.217
-280.486	800.000	0.146	-0.407
-279.472	-6.275	-0.244	0.166
-278.457	12.880	0.059	0.045
-277.443	-37.670	-0.271	-0.144
-276.428	21.180	-0.138	-0.112
-275.413	93.722	0.214	0.241
-274.399	17.466	0.236	0.187
-273.384	-88.335	0.129	-0.038
-272.370	25.480	-0.359	0.297
-271.355	-64.799	-0.170	-0.068
-270.340	800.000	-0.029	0.110
-269.326	6.331	0.118	-0.087
-268.311	-200.000	0.000	-0.483
-267.297	501.730	0.053	0.121
-266.282	52.667	0.173	0.165
-265.267	410.638	0.151	0.318
-264.253	-3.509	-0.035	0.024
-263.238	-59.736	0.064	-0.027
-262.224	793.560	-0.055	0.152
-261.209	-116.068	-0.192	0.036
-260.195	81.528	-0.036	-0.039
-259.180	-31.972	0.280	0.156
-258.165	583.005	0.065	0.159
-257.151	-200.000	-0.054	-0.308
-256.136	133.861	0.207	0.267
-255.122	-96.275	0.121	0.032
-254.107	-78.370	0.158	-0.054
-253.092	229.366	-0.064	0.105
-252.078	-106.602	-0.262	-0.058
-251.063	-200.000	-0.038	0.174
-250.049	-68.461	0.228	-0.088
-249.034	800.000	0.047	-0.197
-248.019	-200.000	0.045	0.279
-247.005	-13.675	0.169	-0.109
-245.990	-103.012	-0.358	0.084
-244.976	262.854	-0.051	-0.088
-243.961	-200.000	0.001	0.064
-242.946	-90.060	0.137	-0.040
-241.932	-89.608	0.107	0.031
-240.917	186.933	0.046	0.069
-239.903	800.000	0.053	0.201
-238.888	131.894	-0.200	0.255
-237.873	-111.323	0.123	0.025
-236.859	86.751	-0.002	0.002
-235.844	-56.514	0.310	-0.137
-234.830	-34.252	-0.203	-0.111
-233.815	-200.000	0.019	-0.179
-232.800	-200.000	0.011	0.338
-231.786	98.899	0.053	-0.060
-230.771	-82.826	-0.282	-0.091
-229.757	246.700	0.124	-0.208
-228.742	6.571	0.109	0.080
-227.727	-37.624	-0.288	-0.153
-226.713	94.523	0.169	-0.191
-225.698	71.357	-0.126	-0.130
-224.684	-200.000	-0.023	-0.135
-223.669	55.355	-0.020	0.019
-222.655	-200.000	-0.052	0.339
-221.640	79.926	0.071	0.076
-220.625	-178.420	0.117	-0.003
-219.611	800.000	-0.044	0.144
-218.596	800.000	-0.065	-0.185
-217.582	-32.654	0.256	-0.142
-216.567	696.183	0.167	0.437
-215.552	-114.920	0.075	-0.014
-214.538	-12.767	-0.212	-0.137
-213.523	-200.000	-0.042	-0.314
-212.509	243.847	0.154	-0.256
-211.494	-23.148	0.112	0.067
-210.479	-111.533	-0.245	-0.049
-209.465	770.401	0.062	0.166
-208.450	52.430	-0.068	0.064
-207.436	-7.632	-0.228	0.153
-206.421	359.242	-0.046	0.091
-205.406	-127.704	-0.250	-0.036
-204.392	44.738	0.249	0.227
-203.377	-88.066	-0.071	0.021
-202.363	-45.284	-0.084	-0.041
-201.348	511.001	-0.076	-0.176
-200.333	800.000	0.023	-0.092
-199.319	-69.524	0.220	-0.084
-198.304	800.000	-0.087	0.379
-197.290	-200.000	-0.022	0.165
-196.275	-3.883	-0.191	0.131
-195.260	-24.678	0.266	-0.157
-194.246	-53.948	0.306	0.138
-193.231	-114.893	0.248	0.047
-192.217	64.649	-0.127	-0.127
-191.202	-92.268	0.278	0.078
-190.187	221.726	0.144	0.230
-189.173	-1.667	0.180	0.126
-188.158	362.316	-0.200	-0.398
-187.144	-143.912	0.213	-0.020
-186.129	-200.000	-0.019	0.218
-185.114	-91.578	0.034	-0.010
-184.100	800.000	0.079	-0.266
-183.085	-82.161	0.225	0.073
-182.071	-80.344	0.038	-0.012
-181.056	460.599	-0.099	-0.218
-180.042	-36.497	0.307	-0.164
-179.027	-200.000	0.020	0.131
-178.012	-200.000	0.006	0.071
-176.998	-28.926	0.062	-0.035
-175.983	11.246	0.289	-0.220
-174.969	-119.790	-0.216	-0.037
-173.954	-200.000	-0.070	0.304
-172.939	-200.000	0.335	0.000
-171.925	24.313	0.062	-0.050
-170.910	-73.194	0.101	0.037
-169.896	-132.444	0.115	-0.015
-168.881	14.851	0.456	-0.353
-167.866	246.919	0.035	0.059
-166.852	-15.215	0.092	0.059
-165.837	31.847	-0.078	0.067
-164.823	-200.000	-0.040	0.525
-163.808	-77.670	0.115	-0.039
-162.793	701.504	0.136	0.354
-161.779	-200.000	0.026	0.251
-160.764	597.594	-0.034	0.083
-159.750	555.700	-0.053	-0.127
-158.735	210.646	0.268	0.418
-157.720	-36.032	0.188	0.101
-156.706	109.795	0.104	-0.124
-155.691	-143.152	0.214	0.020
-154.677	-58.284	0.359	0.155
-153.662	166.280	0.044	-0.062
-152.647	-148.675	0.104	0.008
-151.633	800.000	0.126	-0.372
-150.618	-200.000	-0.024	-0.242
-149.604	-119.653	-0.047	0.008
-148.589	-200.000	0.050	0.330
-147.574	-99.755	-0.070	-0.017
-146.560	-53.876	0.136	0.061
-145.545	-3.904	0.037	0.026
-144.531	193.333	0.134	-0.200
-143.516	-200.000	0.021	-0.156
-142.502	-42.011	-0.448	-0.227
-141.487	575.670	0.022	0.053
-140.472	-78.628	0.316	0.107
-139.458	800.000	-0.144	-0.543
-138.443	-41.969	0.105	0.053
-137.429	-48.788	-0.146	-0.070
-136.414	130.595	0.219	0.278
-135.399	-160.490	0.426	-0.023
-134.385	609.738	0.086	0.212
-133.370	800.000	0.083	-0.263
-132.356	46.929	-0.161	0.148
-131.341	-138.995	-0.094	0.010
-130.326	-88.254	-0.159	0.047
-129.312	-84.047	-0.319	-0.100
-128.297	-143.667	0.219	0.021
-127.283	-200.000	-0.030	0.221
-126.268	223.687	0.106	-0.169
-125.253	-43.781	-0.098	-0.049
-124.239	-96.786	-0.164	0.043
-123.224	-94.061	0.144	0.039
-122.210	-110.797	0.195	-0.040
-121.195	297.004	-0.046	0.083
-120.180	-200.000	-0.016	0.141
-119.166	112.351	-0.061	-0.073
-118.151	-137.903	0.243	-0.027
-117.137	485.378	-0.031	-0.070
-116.122	1.523	-0.242	0.172
-115.107	800.000	-0.014	-0.049
-114.093	-67.984	-0.464	0.179
-113.078	640.650	0.019	0.049
-112.064	228.479	0.026	0.042
-111.049	-58.204	-0.432	0.186
-110.034	800.000	-0.083	-0.245
-109.020	484.992	0.065	0.147
-108.005	297.381	-0.266	-0.484
-106.991	-1.945	-0.246	-0.171
-105.976	-122.116	0.297	0.048
-104.962	-145.175	-0.118	-0.011
-103.947	800.000	0.062	-0.169
-102.932	63.594	0.194	0.192
-101.918	-33.788	0.411	-0.224
-100.903	104.964	-0.166	-0.193
-99.889	800.000	0.094	0.404
-98.874	470.971	-0.075	0.167
-97.859	-200.000	-0.079	0.348
-96.845	-27.291	0.105	0.060
-95.830	-140.884	-0.182	0.018
-94.816	800.000	0.061	0.230
-93.801	-200.000	-0.038	0.317
-92.786	800.000	0.028	0.091
-91.772	100.602	0.013	-0.015
-90.757	-103.714	0.213	-0.049
-89.743	120.653	0.146	-0.179
-88.728	133.567	0.135	-0.173
-87.713	-5.920	-0.069	-0.047
-86.699	-200.000	-0.021	0.242
-85.684	-9.745	-0.080	-0.052
-84.670	-92.362	-0.211	-0.059
-83.655	18.707	0.112	-0.088
-82.640	129.129	-0.049	0.062
-81.626	88.491	0.176	-0.194
-80.611	50.727	-0.129	-0.121
-79.597	-128.876	-0.209	0.029
-78.582	38.646	-0.048	-0.042
-77.567	-200.000	0.019	-0.122
-76.553	209.687	-0.150	-0.232
-75.538	-200.000	-0.100	-0.000
-74.524	-200.000	0.017	-0.207
-73.509	45.770	0.245	-0.224
-72.494	-200.000	0.046	-0.362
-71.480	505.551	-0.078	0.178
-70.465	-200.000	0.006	0.137
-69.451	120.635	0.169	0.208
-68.436	-200.000	0.001	-0.033
-67.422	-102.778	0.098	0.023
-66.407	-200.000	-0.096	-0.000
-65.392	800.000	0.067	-0.190
-64.378	-3.519	-0.148	-0.102
-63.363	110.526	0.116	0.138
-62.349	-200.000	-0.059	0.326
-61.334	213.212	-0.633	-0.987
-60.319	290.128	0.206	0.369
-59.305	405.377	-0.542	-1.129
-58.290	512.457	0.369	0.848
-57.276	413.319	0.762	1.599
-56.261	-200.000	89.940	509.805
-55.246	475.486	1391.263	3100.969
-54.232	148.580	2608.888	3478.464
-53.217	106.174	2329.074	2722.518
-52.203	45.255	1940.043	1765.566
-51.188	39.380	1727.393	1526.598
-50.173	36.557	1682.602	1465.587
-49.159	52.191	1727.561	1625.113
-48.144	55.667	1745.575	1668.684
-47.130	39.321	1703.455	1504.749
-46.115	36.273	1688.751	1468.549
-45.100	36.129	1683.647	1462.956
-44.086	36.064	1681.516	1460.553
-43.071	36.079	1678.550	1458.033
-42.057	36.023	1676.609	1455.869
-41.042	36.038	1674.599	1454.180
-40.027	36.026	1672.526	1452.230
-39.013	36.022	1670.606	1450.476
-37.998	35.991	1669.172	1448.941
-36.984	36.039	1667.774	1448.029
-35.969	36.190	1666.650	1448.132
-34.954	36.238	1664.793	1446.820
-33.940	36.176	1662.850	1444.609
-32.925	36.155	1660.643	1442.474
-31.911	36.235	1658.712	1441.338
-30.896	36.194	1657.515	1439.939
-29.881	36.102	1655.637	1437.562
-28.867	36.167	1654.184	1436.726
-27.852	36.304	1652.451	1436.185
-26.838	36.277	1651.001	1434.669
-25.823	36.186	1649.919	1432.992
-24.809	36.250	1648.115	1431.841
-23.794	36.272	1646.901	1430.896
-22.779	36.236	1645.134	1429.038
-21.765	36.248	1643.502	1427.653
-20.750	36.185	1642.136	1425.940
-19.736	36.248	1640.658	1425.067
-18.721	36.269	1639.173	1423.880
-17.706	36.185	1638.077	1422.249
-16.692	36.221	1636.126	1420.762
-15.677	36.291	1634.633	1419.925
-14.663	36.276	1633.208	1418.522
-13.648	36.278	1632.556	1417.914
-12.633	36.224	1630.352	1415.548
-11.619	36.160	1629.161	1413.989
-10.604	36.360	1626.614	1413.184
-9.590	36.256	1626.322	1412.117
-8.575	36.267	1625.004	1410.990
-7.560	36.230	1623.792	1409.616
-6.546	36.265	1622.196	1408.430
-5.531	36.156	1621.637	1407.093
-4.517	36.110	1620.307	1405.546
-3.502	36.197	1618.980	1404.974
-2.487	36.302	1617.250	1404.184
-1.473	36.111	1606.436	1393.353
-0.458	33.751	1587.486	1359.982
0.556	30.334	1587.733	1329.046
1.571	28.087	1612.466	1333.272
2.586	27.498	1627.070	1340.895
3.600	23.938	1571.220	1269.398
4.615	12.847	1453.540	1100.572
5.629	3.477	1383.295	987.510
6.644	1.993	1373.947	971.311
7.659	1.869	1372.858	969.664
8.673	1.794	1371.831	968.376
9.688	1.755	1370.117	966.831
10.702	1.452	1367.186	962.762
11.717	5.125	1374.885	991.465
12.731	15.943	1396.007	1076.070
13.746	24.594	1409.830	1142.195
14.761	26.289	1412.282	1154.922
15.775	26.499	1412.102	1156.015
16.790	26.592	1411.365	1155.906
17.804	26.574	1410.904	1155.310
18.819	26.849	1410.955	1157.005
19.834	26.958	1409.768	1156.621
20.848	26.993	1409.090	1156.189
21.863	27.025	1408.152	1155.519
22.877	26.993	1407.793	1154.920
23.892	27.045	1406.519	1154.103
24.907	26.902	1405.845	1152.534
25.921	26.946	1405.336	1152.296
26.936	27.034	1403.667	1151.382
27.950	27.110	1402.392	1150.720
28.965	26.959	1401.375	1148.830
29.980	27.035	1399.848	1147.954
30.994	26.941	1398.846	1146.434
32.009	27.004	1397.825	1145.897
33.023	26.903	1396.739	1144.270
34.038	27.034	1395.390	1143.884
35.053	26.965	1394.713	1142.797
36.067	26.984	1393.749	1142.023
37.082	26.953	1392.759	1140.915
38.096	26.975	1391.702	1140.088
39.111	26.998	1390.522	1139.167
40.126	26.978	1390.351	1138.796
41.140	27.000	1390.018	1138.565
42.155	27.013	1389.329	1137.978
43.169	27.012	1389.472	1137.990
44.184	26.983	1389.112	1137.414
45.199	26.854	1388.987	1136.403
46.213	27.022	1388.101	1136.631
47.228	26.964	1387.234	1135.455
48.242	27.021	1385.807	1134.543
49.257	26.997	1384.479	1133.207
50.271	27.035	1382.459	1131.688
51.286	26.998	1381.819	1130.832
52.301	27.042	1380.397	1129.841
53.315	26.942	1379.635	1128.500
54.330	26.915	1379.473	1128.096
55.344	27.032	1377.480	1127.097
56.359	26.929	1376.796	1125.797
57.374	26.877	1376.349	1125.009
58.388	26.946	1375.447	1124.600
59.403	26.976	1375.324	1124.585
60.417	26.987	1374.606	1123.963
61.432	26.999	1373.410	1122.963
62.447	26.957	1372.693	1122.017
63.461	27.029	1371.136	1121.093
64.476	26.889	1370.904	1119.938
65.490	26.957	1369.635	1119.223
66.505	26.904	1368.120	1117.555
67.520	27.001	1366.607	1116.820
68.534	26.971	1365.586	1115.702
69.549	27.023	1364.734	1115.228
70.563	26.984	1363.741	1114.076
71.578	27.095	1362.462	1113.615
72.593	27.123	1361.684	1113.050
73.607	27.061	1361.180	1112.159
74.622	26.991	1360.430	1111.022
75.636	27.041	1359.675	1110.610
76.651	26.991	1359.015	1109.669
77.666	26.948	1358.686	1109.039
78.680	26.933	1358.152	1108.414
79.695	27.005	1357.218	1107.992
80.709	26.916	1356.467	1106.739
81.724	26.923	1356.056	1106.350
82.739	26.914	1354.915	1105.265
83.753	26.941	1353.822	1104.437
84.768	26.980	1352.513	1103.511
85.782	26.966	1351.208	1102.267
86.797	26.979	1350.208	1101.430
87.812	26.929	1349.469	1100.429
88.826	26.982	1348.563	1099.910
89.841	26.987	1347.506	1098.983
90.855	27.021	1345.973	1097.841
91.870	27.022	1345.061	1097.004
92.884	27.006	1344.300	1096.192
93.899	26.956	1343.910	1095.472
94.914	27.119	1342.562	1095.259
95.928	27.100	1341.842	1094.463
96.943	27.019	1341.781	1093.825
97.957	27.016	1340.815	1092.922
98.972	27.067	1339.537	1092.093
99.987	26.991	1339.080	1091.167
101.001	27.043	1337.747	1090.296
102.016	26.951	1337.016	1089.050
103.030	27.028	1336.052	1088.634
104.045	27.071	1335.298	1088.180
105.060	27.042	1334.463	1087.232
106.074	27.160	1333.174	1086.786
107.089	27.106	1332.728	1086.004
108.103	27.106	1331.661	1085.039
109.118	27.110	1330.655	1084.147
110.133	27.122	1329.254	1082.982
111.147	27.015	1328.286	1081.460
112.162	27.127	1327.368	1081.282
113.176	27.126	1326.281	1080.298
114.191	27.110	1325.622	1079.570
115.206	27.048	1324.115	1077.879
116.220	27.026	1323.326	1077.014
117.235	27.147	1322.063	1076.603
118.249	27.047	1321.303	1075.296
119.264	27.191	1320.356	1075.283
120.279	27.096	1319.727	1074.116
121.293	27.207	1318.851	1073.964
122.308	27.005	1318.297	1072.223
123.322	27.162	1317.250	1072.203
124.337	27.181	1316.402	1071.530
125.352	27.270	1315.323	1071.083
126.366	27.121	1315.186	1069.998
127.381	27.136	1313.835	1068.895
128.395	27.190	1312.957	1068.401
129.410	27.160	1312.527	1067.779
130.424	27.035	1311.771	1066.340
131.439	27.135	1310.754	1066.003
132.454	27.122	1309.895	1065.137
133.468	27.203	1309.117	1064.884
134.483	27.189	1308.832	1064.475
135.497	27.153	1307.877	1063.393
136.512	27.084	1306.655	1061.903
137.527	27.148	1305.236	1061.030
138.541	27.185	1303.843	1060.016
139.556	27.130	1302.969	1058.893
140.570	27.127	1302.022	1058.011
141.585	27.175	1301.193	1057.525
142.600	27.196	1299.871	1056.480
143.614	27.078	1299.605	1055.481
144.629	27.089	1298.478	1054.540
145.643	27.107	1297.396	1053.669
146.658	27.093	1296.135	1052.472
147.673	27.126	1295.305	1051.894
148.687	27.091	1294.159	1050.668
149.702	27.036	1293.031	1049.344
150.716	26.998	1292.006	1048.198
151.731	27.124	1290.885	1047.920
152.746	27.098	1290.342	1047.238
153.760	27.172	1289.334	1046.755
154.775	27.122	1288.130	1045.397
155.789	27.103	1287.227	1044.461
156.804	27.118	1286.327	1043.729
157.819	27.142	1285.217	1042.869
158.833	27.229	1284.557	1042.740
159.848	27.204	1284.196	1042.215
160.862	27.176	1283.051	1041.034
161.877	27.186	1282.375	1040.447
162.892	27.161	1281.804	1039.750
163.906	27.169	1280.927	1038.990
164.921	27.238	1279.887	1038.448
165.935	27.219	1279.247	1037.733
166.950	27.300	1279.005	1037.907
167.964	27.178	1278.286	1036.534
168.979	27.261	1277.190	1036.024
169.994	27.206	1277.425	1035.813
171.008	27.366	1275.959	1035.441
172.023	27.255	1275.241	1034.137
173.037	27.346	1274.955	1034.329
174.052	27.317	1273.801	1033.139
175.067	27.252	1273.269	1032.247
176.081	27.258	1272.451	1031.528
177.096	27.294	1271.676	1031.010
178.110	27.232	1270.787	1029.847
179.125	27.284	1269.641	1029.119
180.140	27.395	1268.591	1028.807
181.154	27.311	1267.503	1027.360
182.169	27.227	1266.578	1026.044
183.183	27.293	1265.448	1025.409
184.198	27.284	1264.700	1024.666
185.213	27.339	1263.795	1024.148
186.227	27.282	1262.414	1022.616
187.242	27.353	1261.785	1022.416
188.256	27.417	1260.739	1021.836
189.271	27.327	1260.192	1020.800
190.286	27.334	1259.143	1019.897
191.300	27.277	1259.281	1019.599
192.315	27.237	1258.713	1018.826
193.329	27.265	1257.859	1018.203
194.344	27.344	1257.403	1018.184
195.359	27.304	1257.192	1017.702
196.373	27.301	1256.456	1016.996
197.388	27.267	1256.146	1016.467
198.402	27.354	1255.797	1016.582
199.417	27.302	1255.341	1015.829
200.432	27.378	1254.555	1015.527
201.446	27.337	1254.185	1014.910
202.461	27.381	1253.232	1014.295
203.475	27.304	1252.665	1013.319
204.490	27.253	1251.736	1012.192
205.504	27.383	1250.293	1011.661
206.519	27.429	1249.500	1011.182
207.534	27.389	1248.668	1010.200
208.548	27.317	1247.634	1008.873
209.563	27.357	1246.937	1008.442
210.577	27.410	1246.217	1008.063
211.592	27.325	1245.459	1006.890
212.607	27.454	1244.210	1006.505
213.621	27.501	1243.644	1006.216
214.636	27.482	1243.222	1005.686
215.650	27.438	1242.155	1004.486
216.665	27.344	1241.370	1003.248
217.680	27.495	1240.228	1003.065
218.694	27.386	1239.581	1001.855
219.709	27.429	1238.769	1001.345
220.723	27.624	1238.287	1001.938
221.738	27.489	1237.456	1000.439
222.753	27.318	1236.839	998.912
223.767	27.440	1236.195	998.970
224.782	27.508	1235.749	998.894
225.796	27.606	1235.092	998.812
226.811	27.521	1234.537	997.811
227.826	27.497	1234.060	997.203
228.840	27.533	1233.538	996.891
229.855	27.519	1233.040	996.325
230.869	27.449	1232.440	995.370
231.884	27.569	1231.049	994.812
232.899	27.560	1230.300	994.068
233.913	27.713	1229.611	994.262
234.928	27.718	1229.285	993.936
235.942	27.646	1228.689	992.972
236.957	27.621	1228.254	992.399
237.972	27.573	1227.421	991.378
238.986	27.607	1226.945	991.088
240.001	27.670	1225.850	990.462
241.015	27.760	1225.116	990.268
242.030	27.763	1224.216	989.466
243.045	27.731	1223.998	989.031
244.059	27.739	1223.002	988.184
245.074	27.778	1222.200	987.654
246.088	27.718	1221.427	986.620
247.103	27.749	1220.414	985.880
248.117	27.820	1219.404	985.363
249.132	27.838	1218.834	984.911
250.147	27.811	1218.334	984.277
251.161	27.819	1217.831	983.826
252.176	27.796	1217.154	983.069
253.190	27.796	1216.527	982.474
254.205	27.890	1215.690	982.215
255.220	27.782	1215.300	981.232
256.234	27.755	1215.061	980.807
257.249	27.875	1214.070	980.569
258.263	27.715	1213.844	979.440
259.278	27.781	1212.927	978.963
260.293	27.899	1211.929	978.703
261.307	27.901	1211.533	978.309
262.322	27.878	1210.673	977.406
263.336	27.796	1210.274	976.558
264.351	27.838	1209.953	976.440
265.366	27.883	1209.495	976.224
266.380	27.899	1208.055	975.060
267.395	27.820	1208.053	974.548
268.409	27.931	1207.424	974.548
269.424	27.912	1206.853	973.902
270.439	27.878	1206.600	973.427
271.453	27.976	1205.840	973.249
272.468	27.814	1204.620	971.320
273.482	28.001	1203.638	971.434
274.497	28.007	1203.497	971.269
275.512	28.096	1202.697	971.007
276.526	28.047	1202.295	970.338
277.541	27.901	1201.341	968.707
278.555	27.965	1200.748	968.481
279.570	28.015	1200.054	968.102
280.585	28.032	1199.505	967.662
281.599	27.939	1198.651	966.394
282.614	27.984	1197.729	965.808
283.628	27.996	1196.541	964.824
284.643	28.016	1195.967	964.384
285.657	28.047	1195.208	963.847
286.672	28.150	1194.197	963.493
287.687	28.099	1193.555	962.619
288.701	28.124	1192.839	962.087
289.716	28.099	1192.120	961.291
290.730	28.119	1191.451	960.773
291.745	28.276	1190.523	960.762
292.760	28.130	1190.491	959.884
293.774	28.192	1189.745	959.526
294.789	28.234	1188.954	959.024
295.803	28.044	1188.858	957.862
296.818	28.170	1188.051	957.786
297.833	28.070	1187.483	956.724
298.847	28.150	1186.764	956.476
299.862	28.095	1186.107	955.575
300.876	28.191	1185.265	955.316
301.891	28.299	1184.433	955.124
302.906	28.214	1183.982	954.230
303.920	28.296	1183.255	953.988
304.935	28.278	1182.351	953.078
305.949	28.343	1181.817	952.906
306.964	28.337	1180.862	952.016
307.979	28.364	1180.324	951.641
308.993	28.252	1180.143	950.830
310.008	28.247	1179.380	950.107
311.022	28.215	1178.657	949.271
312.037	28.344	1177.953	949.291
313.052	28.378	1176.730	948.395
314.066	28.363	1175.815	947.494
315.081	28.224	1175.693	946.594
316.095	28.288	1174.863	946.172
317.110	28.361	1174.441	946.128
318.125	28.377	1173.616	945.462
319.139	28.266	1172.739	944.099
320.154	28.327	1172.500	944.137
321.168	28.401	1171.933	943.980
322.183	28.429	1171.124	943.387
323.197	28.416	1170.357	942.618
324.212	28.400	1170.216	942.339
325.227	28.442	1169.753	942.101
326.241	28.491	1169.291	941.897
327.256	28.566	1168.095	941.236
328.270	28.371	1167.513	939.681
329.285	28.481	1166.608	939.432
330.300	28.513	1165.984	939.010
331.314	28.501	1164.802	937.919
332.329	28.424	1164.215	936.967
333.343	28.613	1163.377	937.172
334.358	28.568	1162.582	936.222
335.373	28.551	1162.267	935.800
336.387	28.584	1161.499	935.265
337.402	28.629	1160.480	934.591
338.416	28.559	1160.459	934.137
339.431	28.592	1159.539	933.481
340.446	28.727	1158.382	933.151
341.460	28.708	1158.142	932.777
342.475	28.665	1157.447	931.920
343.489	28.657	1156.462	931.002
344.504	28.720	1155.447	930.423
345.519	28.680	1154.614	929.469
346.533	28.786	1153.895	929.340
347.548	28.701	1153.276	928.334
348.562	28.653	1152.650	927.502
349.577	28.761	1151.724	927.221
350.592	28.618	1151.267	926.049
351.606	28.573	1150.658	925.252
352.621	28.776	1149.550	925.301
353.635	28.847	1149.168	925.271
354.650	28.720	1148.740	924.203
355.665	28.813	1147.882	923.899
356.679	28.962	1147.012	923.866
357.694	28.836	1146.843	923.015
358.708	28.870	1146.402	922.749
359.723	28.777	1145.405	921.401
360.738	28.721	1144.597	920.385
361.752	28.855	1144.317	920.751
362.767	28.830	1143.585	919.955
363.781	28.896	1142.885	919.640
364.796	28.942	1142.334	919.348
365.810	28.925	1141.848	918.788
366.825	28.913	1141.694	918.522
367.840	28.887	1141.263	917.964
368.854	28.997	1140.285	917.647
369.869	29.054	1139.690	917.369
370.883	28.983	1138.692	916.134
371.898	29.059	1138.085	915.943
372.913	29.085	1137.409	915.444
373.927	29.073	1137.248	915.176
374.942	29.048	1137.110	914.858
375.956	29.114	1136.274	914.430
376.971	29.072	1135.367	913.411
377.986	29.030	1134.677	912.570
379.000	29.183	1134.290	912.936
380.015	29.100	1133.680	911.954
381.029	29.164	1133.200	911.802
382.044	29.227	1132.137	911.178
383.059	29.158	1131.942	910.601
384.073	29.183	1131.493	910.280
385.088	29.127	1130.255	908.928
386.102	29.147	1129.385	908.248
387.117	29.162	1128.620	907.625
388.132	29.005	1127.773	906.089
389.146	29.214	1127.224	906.601
390.161	29.121	1126.883	905.786
391.175	29.278	1125.668	905.500
392.190	29.254	1125.284	904.995
393.205	29.230	1124.543	904.199
394.219	29.294	1123.676	903.738
395.234	29.263	1123.189	903.115
396.248	29.232	1122.475	902.307
397.263	29.306	1121.476	901.786
398.278	29.337	1120.769	901.290
399.292	29.415	1120.283	901.199
400.307	29.285	1119.797	900.097
401.321	29.289	1119.315	899.645
402.336	29.263	1118.136	898.495
403.350	29.353	1117.725	898.524
404.365	29.444	1116.687	898.050
405.380	29.354	1116.446	897.340
406.394	29.385	1115.953	897.015
407.409	29.406	1114.620	895.966
408.423	29.436	1114.024	895.553
409.438	29.558	1113.141	895.358
410.453	29.582	1112.367	894.769
411.467	29.594	1111.678	894.198
412.482	29.456	1111.094	892.977
413.496	29.604	1110.776	893.358
414.511	29.606	1109.863	892.557
415.526	29.632	1109.251	892.108
416.540	29.530	1109.159	891.464
417.555	29.532	1109.005	891.271
418.569	29.625	1108.080	890.898
419.584	29.550	1107.683	890.139
420.599	29.603	1107.399	890.085
421.613	97.859	1316.546	1430.481
422.628	91.667	1346.998	1430.592
