DTS Sentinel unit serial number:	SN413079Multiplexer serial number:	ORYXHardware model number:	OX4-SRSoftware version number:	ORYX F/W v4.00 Oryx Data Collector v3.7.2.0data status	okinstallation	princeton_trtdifferential loss correction	single-endedforward channel	channel 2reverse channel	N/Adate	2019/09/17time	00:31:35forward acquisition time	60.00reverse acquisition time	0.00gamma	496.2192k internal	0.2329k external	0.2329temperature offset calibration	0.9972default loss term (dB/km)	0.3790temperature slope calibration	1.0000multiplexer offset coefficient	1.0000multiplexer slope coefficient	1.0000fibre end	0.00T internal ref (°C)	29.47T ext. ref 1 (°C)	0.10T ext. ref 2 (°C)	23.84length (m)	temperature (°C)	Stokes	anti-Stokes-747.200	494.271	0.073	-0.168
-746.185	4.449	0.248	0.183
-745.171	-54.101	0.134	-0.061
-744.156	-200.000	0.071	0.315
-743.142	730.616	0.076	0.204
-742.127	31.182	-0.191	0.165
-741.112	134.893	0.192	0.251
-740.098	-105.434	-0.368	0.084
-739.083	63.631	-0.057	0.058
-738.069	92.305	-0.098	0.112
-737.054	-19.635	0.123	0.077
-736.039	-90.841	-0.174	0.051
-735.025	-76.825	-0.107	-0.038
-734.010	57.886	-0.177	-0.174
-732.996	638.604	0.100	-0.256
-731.981	-79.373	0.264	0.090
-730.966	25.359	-0.160	0.134
-729.952	36.643	-0.098	-0.087
-728.937	-200.000	0.008	-0.054
-727.923	-46.779	-0.195	0.096
-726.908	-92.904	-0.396	0.111
-725.894	-200.000	-0.022	-0.229
-724.879	-37.965	0.296	0.158
-723.864	-128.761	-0.115	-0.016
-722.850	800.000	0.043	0.177
-721.835	48.305	0.274	0.258
-720.821	686.410	0.032	0.085
-719.806	-101.081	-0.199	0.049
-718.791	-200.000	0.022	0.186
-717.777	-130.038	-0.457	0.063
-716.762	800.000	-0.059	-0.229
-715.748	-53.173	0.059	-0.027
-714.733	-167.568	0.184	0.007
-713.718	-76.131	-0.273	0.097
-712.704	800.000	0.053	0.154
-711.689	76.440	-0.127	0.135
-710.675	-73.022	0.079	0.029
-709.660	-200.000	0.028	-0.188
-708.645	-18.528	0.122	-0.077
-707.631	489.592	-0.107	0.245
-706.616	-149.650	0.139	-0.011
-705.602	800.000	-0.086	0.292
-704.587	-200.000	0.009	-0.213
-703.572	20.622	0.108	0.088
-702.558	-200.000	0.032	-0.141
-701.543	-12.434	-0.070	0.046
-700.529	100.144	0.079	0.093
-699.514	143.609	0.198	-0.265
-698.499	-200.000	0.027	-0.135
-697.485	36.542	-0.095	0.085
-696.470	-65.638	0.179	-0.072
-695.456	800.000	0.121	-0.389
-694.441	-105.478	0.302	-0.069
-693.426	-22.175	0.037	0.023
-692.412	-87.478	-0.197	-0.060
-691.397	16.876	-0.085	0.067
-690.383	51.802	-0.153	-0.146
-689.368	22.953	-0.227	-0.187
-688.354	-83.396	-0.481	0.155
-687.339	0.405	-0.514	0.369
-686.324	220.370	0.126	0.203
-685.310	-96.610	0.104	-0.027
-684.295	-143.349	0.395	-0.038
-683.281	409.431	-0.244	-0.520
-682.266	495.616	-0.084	-0.195
-681.251	-43.117	0.345	-0.176
-680.237	-200.000	0.012	-0.099
-679.222	-42.121	-0.072	-0.037
-678.208	-110.848	-0.183	0.038
-677.193	-8.851	-0.245	0.165
-676.178	-164.155	0.401	-0.019
-675.164	70.263	0.101	0.104
-674.149	-146.461	0.103	0.009
-673.135	150.322	-0.087	-0.119
-672.120	440.536	-0.079	-0.173
-671.105	110.811	-0.200	0.241
-670.091	75.095	0.107	0.113
-669.076	289.864	0.039	0.070
-668.062	-200.000	-0.015	-0.317
-667.047	102.450	-0.224	0.263
-666.032	-54.174	0.191	0.087
-665.018	112.936	0.065	-0.080
-664.003	45.184	-0.107	-0.099
-662.989	-27.226	0.107	0.063
-661.974	-21.593	-0.270	0.165
-660.959	80.748	0.203	-0.219
-659.945	-200.000	-0.003	-0.470
-658.930	33.582	0.218	0.190
-657.916	43.571	-0.150	0.138
-656.901	800.000	-0.049	-0.207
-655.886	-200.000	-0.002	-0.089
-654.872	450.396	-0.167	-0.370
-653.857	-10.223	-0.232	-0.154
-652.843	53.004	0.253	0.243
-651.828	-123.712	-0.374	0.059
-650.814	127.077	-0.103	-0.131
-649.799	217.968	-0.239	-0.383
-648.784	298.024	-0.096	0.177
-647.770	-200.000	-0.035	-0.404
-646.755	-5.229	0.218	0.150
-645.741	-200.000	0.002	-0.117
-644.726	92.808	0.121	0.137
-643.711	46.451	0.283	-0.263
-642.697	322.835	0.074	-0.141
-641.682	-47.120	0.350	0.171
-640.668	12.090	-0.132	0.102
-639.653	-86.759	0.299	0.092
-638.638	-95.299	0.064	-0.017
-637.624	-108.821	-0.073	-0.016
-636.609	800.000	0.020	-0.085
-635.595	-120.371	-0.280	-0.048
-634.580	215.749	-0.119	0.190
-633.565	41.646	-0.094	-0.085
-632.551	-5.713	0.106	-0.073
-631.536	7.916	0.007	0.005
-630.522	-131.745	0.128	0.017
-629.507	-200.000	-0.128	0.598
-628.492	-40.517	-0.299	0.156
-627.478	-90.462	0.251	-0.073
-626.463	-200.000	-0.004	-0.219
-625.449	258.779	0.056	-0.097
-624.434	-29.597	-0.123	0.070
-623.419	-79.585	-0.256	-0.087
-622.405	800.000	0.102	-0.310
-621.390	-112.503	0.166	-0.033
-620.376	396.541	-0.054	-0.113
-619.361	-200.000	0.040	0.263
-618.346	47.708	0.274	0.256
-617.332	-161.478	0.122	-0.006
-616.317	-200.000	-0.014	-0.184
-615.303	-200.000	-0.017	-0.168
-614.288	237.984	0.145	-0.242
-613.273	-200.000	-0.003	0.068
-612.259	131.550	-0.224	-0.288
-611.244	-62.190	-0.238	-0.099
-610.230	-7.550	-0.143	0.097
-609.215	348.093	-0.055	-0.108
-608.201	-142.899	-0.169	-0.016
-607.186	334.648	-0.227	-0.439
-606.171	800.000	0.076	0.288
-605.157	-86.409	0.325	-0.100
-604.142	800.000	0.082	0.253
-603.128	-45.206	-0.256	0.128
-602.113	244.897	0.116	0.195
-601.098	-118.686	0.232	0.041
-600.084	-106.930	-0.359	0.080
-599.069	93.498	0.171	-0.193
-598.055	3.399	-0.199	-0.145
-597.040	176.893	-0.196	-0.285
-596.025	-200.000	-0.089	-0.404
-595.011	257.208	-0.120	0.207
-593.996	677.194	-0.062	-0.161
-592.982	62.402	0.080	0.080
-591.967	-44.599	-0.127	-0.063
-590.952	19.660	-0.009	-0.007
-589.938	-4.911	-0.250	-0.173
-588.923	68.392	0.182	0.187
-587.909	151.360	-0.150	-0.204
-586.894	800.000	-0.043	0.121
-585.879	60.051	-0.295	-0.292
-584.865	-127.779	-0.227	-0.033
-583.850	37.243	0.295	0.262
-582.836	-38.321	-0.043	-0.023
-581.821	139.409	0.262	-0.345
-580.806	1.121	-0.046	0.033
-579.792	-16.589	0.020	0.012
-578.777	93.439	0.187	-0.211
-577.763	18.359	-0.289	0.231
-576.748	6.300	-0.108	0.080
-575.733	-26.145	0.311	-0.183
-574.719	74.208	-0.103	0.109
-573.704	-48.623	0.165	-0.079
-572.690	-78.930	0.140	-0.048
-571.675	800.000	-0.045	-0.161
-570.661	-91.297	0.150	0.043
-569.646	11.597	-0.115	-0.088
-568.631	800.000	0.058	-0.170
-567.617	40.918	0.088	0.079
-566.602	382.213	-0.040	-0.081
-565.588	170.241	-0.017	0.024
-564.573	-200.000	0.031	0.287
-563.558	800.000	0.052	0.187
-562.544	-79.555	-0.102	-0.034
-561.529	-163.828	0.247	-0.012
-560.515	45.050	-0.167	0.154
-559.500	-200.000	0.006	0.076
-558.485	800.000	0.010	0.034
-557.471	-15.630	0.120	0.077
-556.456	375.269	0.181	0.368
-555.442	737.642	-0.037	0.100
-554.427	-126.730	-0.406	0.060
-553.412	-73.117	-0.203	-0.074
-552.398	235.627	-0.210	0.347
-551.383	-68.312	-0.366	-0.142
-550.369	-162.324	0.329	-0.016
-549.354	-200.000	-0.002	-0.034
-548.339	-37.530	-0.296	0.158
-547.325	255.768	-0.117	-0.201
-546.310	-200.000	0.070	-0.310
-545.296	-75.766	-0.196	0.069
-544.281	-200.000	0.010	0.055
-543.266	-200.000	-0.037	-0.215
-542.252	31.366	-0.151	-0.129
-541.237	422.852	-0.037	-0.079
-540.223	-200.000	0.057	-0.294
-539.208	-200.000	0.065	0.322
-538.193	-200.000	0.006	0.103
-537.179	31.999	-0.094	-0.081
-536.164	104.523	0.130	0.153
-535.150	-139.304	-0.231	0.025
-534.135	24.560	-0.203	0.167
-533.121	800.000	0.097	-0.321
-532.106	-144.718	-0.087	0.008
-531.091	15.054	0.039	-0.030
-530.077	800.000	0.063	-0.213
-529.062	-120.392	0.176	0.030
-528.048	354.810	0.143	-0.285
-527.033	-200.000	-0.033	-0.322
-526.018	66.019	0.260	0.263
-525.004	-104.594	-0.164	-0.038
-523.989	-124.333	-0.308	-0.048
-522.975	400.969	0.062	-0.130
-521.960	17.931	-0.113	0.090
-520.945	98.715	-0.206	0.237
-519.931	-45.017	0.189	-0.094
-518.916	800.000	0.091	-0.275
-517.902	44.799	-0.239	-0.219
-516.887	27.325	0.155	0.130
-515.872	-200.000	-0.000	0.044
-514.858	-172.761	-0.285	-0.009
-513.843	800.000	0.085	-0.250
-512.829	50.618	0.202	0.191
-511.814	-41.914	-0.199	0.102
-510.799	252.585	-0.152	-0.259
-509.785	-98.318	-0.113	0.029
-508.770	214.349	-0.151	0.238
-507.756	-200.000	0.061	-0.342
-506.741	519.268	0.018	-0.041
-505.726	369.632	-0.029	0.058
-504.712	-200.000	0.006	-0.150
-503.697	-64.556	-0.025	0.010
-502.683	75.478	-0.189	-0.199
-501.668	-200.000	0.001	0.049
-500.653	-79.357	-0.062	-0.021
-499.639	212.360	-0.031	-0.049
-498.624	-200.000	0.112	0.531
-497.610	17.457	0.255	0.202
-496.595	800.000	-0.038	-0.140
-495.581	260.204	-0.090	-0.155
-494.566	-121.737	-0.287	0.047
-493.551	-200.000	0.003	0.123
-492.537	30.289	-0.185	-0.157
-491.522	-140.213	0.226	-0.024
-490.508	236.578	-0.177	-0.292
-489.493	-200.000	-0.025	-0.246
-488.478	-117.129	0.075	0.014
-487.464	-30.731	-0.115	-0.065
-486.449	-98.754	0.301	-0.076
-485.435	212.894	0.156	0.245
-484.420	15.898	-0.147	0.115
-483.405	-98.860	-0.022	0.006
-482.391	-200.000	0.005	0.239
-481.376	-62.667	-0.191	-0.079
-480.362	800.000	-0.062	0.179
-479.347	-19.904	0.273	0.168
-478.332	-144.710	0.194	0.018
-477.318	389.102	0.079	0.163
-476.303	800.000	0.041	-0.134
-475.289	-170.097	0.170	0.006
-474.274	-122.897	0.171	0.027
-473.259	-47.582	0.336	-0.162
-472.245	-51.549	0.106	0.049
-471.230	-200.000	-0.009	0.204
-470.216	554.389	0.120	-0.288
-469.201	-200.000	0.027	0.207
-468.186	345.382	0.118	0.231
-467.172	-200.000	-0.009	0.140
-466.157	-48.540	-0.248	-0.119
-465.143	-200.000	0.035	0.205
-464.128	-86.773	-0.290	0.088
-463.113	-200.000	-0.017	0.073
-462.099	-200.000	-0.013	0.280
-461.084	323.048	0.102	-0.195
-460.070	-200.000	-0.019	-0.183
-459.055	-91.889	-0.402	0.114
-458.040	492.159	-0.147	-0.336
-457.026	-49.206	0.257	0.123
-456.011	102.532	-0.167	-0.195
-454.997	102.288	-0.145	0.169
-453.982	-138.683	0.466	0.051
-452.968	-200.000	0.003	0.114
-451.953	-72.542	-0.363	0.134
-450.938	-190.022	0.181	0.002
-449.924	672.976	-0.189	0.489
-448.909	326.409	-0.076	0.146
-447.895	11.030	0.238	0.181
-446.880	-200.000	0.051	0.257
-445.865	-200.000	0.019	0.121
-444.851	-169.692	0.200	0.007
-443.836	800.000	-0.128	0.472
-442.822	-63.868	-0.230	-0.094
-441.807	6.507	-0.248	0.184
-440.792	305.106	0.123	-0.227
-439.778	-200.000	0.033	0.166
-438.763	565.014	0.038	0.092
-437.749	80.177	-0.110	-0.118
-436.734	800.000	-0.065	-0.242
-435.719	19.244	-0.311	0.248
-434.705	186.159	0.206	-0.305
-433.690	-158.332	0.118	0.007
-432.676	-158.849	0.121	-0.007
-431.661	45.229	-0.340	-0.312
-430.646	-28.077	0.177	-0.102
-429.632	27.573	0.240	-0.201
-428.617	165.569	0.078	0.109
-427.603	-184.718	0.047	-0.001
-426.588	-200.000	-0.069	-0.373
-425.573	-200.000	0.047	-0.248
-424.559	54.759	0.291	0.279
-423.544	-76.824	-0.143	-0.050
-422.530	751.775	0.096	0.258
-421.515	-200.000	-0.032	0.170
-420.500	64.209	-0.474	0.474
-419.486	-200.000	-0.023	0.466
-418.471	-45.291	-0.205	-0.101
-417.457	-117.945	-0.250	-0.045
-416.442	91.727	0.238	0.266
-415.428	-92.912	0.292	0.081
-414.413	116.214	0.028	0.034
-413.398	-200.000	-0.012	-0.069
-412.384	-45.792	0.167	-0.082
-411.369	800.000	0.060	0.182
-410.355	97.615	-0.171	0.196
-409.340	800.000	0.046	-0.181
-408.325	800.000	-0.085	-0.287
-407.311	108.306	-0.158	0.188
-406.296	-16.728	-0.218	-0.137
-405.282	164.938	-0.064	0.090
-404.267	-118.087	-0.300	-0.053
-403.252	-200.000	-0.017	0.104
-402.238	-50.315	0.033	0.016
-401.223	800.000	0.027	0.113
-400.209	33.825	0.033	-0.029
-399.194	-200.000	0.029	-0.200
-398.179	-5.078	-0.074	-0.050
-397.165	382.545	-0.035	-0.071
-396.150	-27.272	0.137	-0.079
-395.136	153.859	0.111	0.151
-394.121	120.457	-0.238	0.294
-393.106	-118.900	-0.227	0.040
-392.092	239.751	0.225	0.372
-391.077	-161.485	0.212	-0.011
-390.063	800.000	-0.039	-0.150
-389.048	19.030	0.099	-0.079
-388.033	190.128	0.208	0.310
-387.019	-200.000	-0.026	0.178
-386.004	-149.173	0.264	-0.021
-384.990	-30.275	0.072	0.041
-383.975	-108.733	0.033	0.007
-382.960	124.022	0.021	-0.027
-381.946	800.000	-0.026	-0.095
-380.931	-114.834	0.437	-0.083
-379.917	51.327	0.018	0.017
-378.902	-138.746	0.108	0.012
-377.888	300.722	0.162	-0.297
-376.873	99.313	-0.248	-0.285
-375.858	103.636	0.047	0.055
-374.844	316.214	0.282	-0.528
-373.829	-114.944	0.278	0.052
-372.815	-49.018	-0.062	0.029
-371.800	-138.492	0.062	0.007
-370.785	392.089	-0.095	0.195
-369.771	-69.470	0.099	-0.038
-368.756	141.945	-0.169	0.223
-367.742	-89.986	-0.105	-0.030
-366.727	2.551	0.209	-0.150
-365.712	265.466	-0.086	-0.148
-364.698	-200.000	-0.051	0.250
-363.683	-133.969	-0.386	0.047
-362.669	-200.000	-0.004	-0.331
-361.654	428.565	0.095	0.204
-360.639	407.828	-0.035	-0.073
-359.625	3.795	-0.429	-0.311
-358.610	-200.000	0.016	-0.095
-357.596	218.993	0.178	0.282
-356.581	-200.000	0.044	-0.442
-355.566	31.690	0.335	0.286
-354.552	-200.000	-0.025	0.110
-353.537	-74.463	0.050	-0.018
-352.523	391.097	-0.108	-0.223
-351.508	183.905	-0.037	-0.054
-350.493	27.706	-0.145	0.121
-349.479	127.550	0.117	0.147
-348.464	-21.934	-0.259	0.156
-347.450	-138.613	-0.503	0.055
-346.435	-124.944	0.356	0.054
-345.420	392.522	-0.132	-0.271
-344.406	800.000	0.101	0.353
-343.391	-200.000	0.051	-0.224
-342.377	32.277	-0.134	0.115
-341.362	128.493	0.120	-0.151
-340.348	181.772	0.036	0.052
-339.333	194.348	0.130	-0.195
-338.318	-86.872	-0.149	-0.045
-337.304	169.601	-0.095	0.135
-336.289	120.195	0.282	-0.347
-335.275	-200.000	-0.014	0.152
-334.260	-72.424	-0.184	0.067
-333.245	-200.000	-0.019	0.183
-332.231	126.217	0.164	-0.206
-331.216	-200.000	0.009	-0.109
-330.202	425.429	0.108	0.231
-329.187	-164.183	-0.284	0.013
-328.172	-200.000	-0.006	-0.080
-327.158	227.508	-0.180	0.290
-326.143	-200.000	-0.009	-0.152
-325.129	-29.234	0.099	0.056
-324.114	61.229	0.127	-0.125
-323.099	-77.153	0.376	0.130
-322.085	78.044	0.247	0.261
-321.070	-181.889	-0.146	0.003
-320.056	-64.019	0.353	-0.143
-319.041	800.000	-0.061	0.242
-318.026	245.080	0.170	0.283
-317.012	-200.000	0.066	-0.300
-315.997	-120.550	-0.219	-0.037
-314.983	524.981	0.128	-0.297
-313.968	-91.149	0.176	0.050
-312.953	800.000	-0.040	-0.157
-311.939	169.156	-0.126	0.178
-310.924	98.465	-0.211	-0.241
-309.910	-99.240	0.115	0.029
-308.895	213.791	-0.095	0.148
-307.880	454.105	-0.018	0.041
-306.866	696.243	-0.131	-0.341
-305.851	46.592	0.197	-0.181
-304.837	282.162	0.121	0.215
-303.822	800.000	0.064	0.246
-302.807	-200.000	-0.068	0.373
-301.793	-200.000	0.130	-0.001
-300.778	800.000	-0.041	0.132
-299.764	800.000	0.138	-0.497
-298.749	296.765	-0.108	-0.196
-297.735	-166.955	-0.176	-0.007
-296.720	-66.010	0.063	-0.025
-295.705	0.896	0.205	0.145
-294.691	89.520	-0.276	-0.305
-293.676	-53.335	-0.242	0.110
-292.662	800.000	0.124	0.381
-291.647	-44.222	0.405	0.201
-290.632	-86.775	-0.498	-0.151
-289.618	-200.000	-0.011	0.140
-288.603	-69.926	0.073	0.028
-287.589	499.758	-0.036	-0.083
-286.574	431.810	0.126	0.270
-285.559	-101.728	0.085	0.020
-284.545	-77.002	-0.228	0.079
-283.530	-200.000	0.018	0.084
-282.516	800.000	0.156	-0.489
-281.501	800.000	0.150	-0.413
-280.486	-139.977	0.356	0.037
-279.472	5.436	0.056	-0.041
-278.457	-43.265	-0.133	0.067
-277.443	-200.000	0.010	-0.513
-276.428	-40.295	0.305	-0.157
-275.413	15.897	0.114	0.089
-274.399	-192.250	0.151	0.001
-273.384	14.050	-0.005	-0.004
-272.370	-123.852	-0.153	-0.024
-271.355	719.203	0.033	-0.086
-270.340	800.000	0.111	-0.394
-269.326	-134.785	0.250	-0.030
-268.311	267.179	0.088	0.151
-267.297	-200.000	0.016	0.103
-266.282	-124.853	-0.177	0.027
-265.267	176.215	-0.133	0.191
-264.253	-200.000	-0.006	0.172
-263.238	-200.000	-0.005	-0.021
-262.224	-33.064	-0.234	0.128
-261.209	-119.782	0.010	-0.002
-260.195	-22.786	-0.233	-0.139
-259.180	-194.556	0.152	-0.001
-258.165	62.704	-0.074	-0.073
-257.151	-171.273	-0.335	-0.011
-256.136	-200.000	0.056	-0.257
-255.122	-77.946	-0.264	-0.090
-254.107	-114.069	-0.148	-0.028
-253.092	189.506	0.207	0.306
-252.078	-72.068	0.261	-0.096
-251.063	52.590	0.093	0.088
-250.049	-200.000	-0.050	-0.457
-249.034	-140.019	-0.091	0.009
-248.019	106.605	0.126	-0.148
-247.005	33.739	-0.054	-0.047
-245.990	22.924	-0.090	-0.073
-244.976	-200.000	0.014	-0.141
-243.961	-160.199	0.101	-0.005
-242.946	-21.225	0.183	-0.110
-241.932	-80.291	-0.230	0.076
-240.917	-200.000	0.019	0.143
-239.903	377.700	-0.063	0.127
-238.888	-200.000	0.017	-0.190
-237.873	800.000	0.092	-0.262
-236.859	-200.000	-0.006	0.130
-235.844	555.306	-0.048	0.115
-234.830	83.060	0.305	0.328
-233.815	446.506	-0.170	0.370
-232.800	204.529	-0.134	-0.205
-231.786	-0.616	0.163	-0.114
-230.771	154.804	0.168	0.228
-229.757	64.055	-0.015	0.015
-228.742	-200.000	0.008	0.181
-227.727	44.850	0.239	-0.217
-226.713	-19.813	-0.145	0.088
-225.698	-61.712	0.069	-0.028
-224.684	490.475	-0.021	0.048
-223.669	100.943	0.116	-0.133
-222.655	-105.135	0.397	0.089
-221.640	85.967	-0.172	0.186
-220.625	800.000	-0.042	0.151
-219.611	-125.322	-0.065	0.010
-218.596	137.685	-0.106	0.138
-217.582	-183.912	-0.193	0.003
-216.567	-68.660	0.358	-0.137
-215.552	644.051	0.098	0.247
-214.538	334.420	0.102	0.195
-213.523	-187.381	-0.320	0.004
-212.509	71.935	-0.179	-0.184
-211.494	800.000	-0.127	0.426
-210.479	24.116	0.251	0.204
-209.465	225.403	-0.129	-0.206
-208.450	800.000	0.076	-0.325
-207.436	-26.577	-0.089	0.051
-206.421	-101.307	-0.218	0.053
-205.406	-26.261	-0.228	0.132
-204.392	-127.762	0.339	-0.048
-203.377	143.542	-0.051	0.067
-202.363	293.322	0.110	0.198
-201.348	3.533	0.310	-0.223
-200.333	47.239	-0.186	-0.170
-199.319	800.000	-0.081	-0.263
-198.304	123.932	-0.126	-0.156
-197.290	151.401	-0.088	-0.118
-196.275	290.806	0.064	0.115
-195.260	-141.827	0.145	-0.014
-194.246	800.000	0.110	0.431
-193.231	197.300	-0.193	-0.290
-192.217	-113.182	0.166	0.032
-191.202	-200.000	-0.030	-0.210
-190.187	429.286	0.153	-0.326
-189.173	-107.555	-0.222	0.048
-188.158	19.558	-0.316	-0.250
-187.144	-200.000	-0.006	0.530
-186.129	374.555	0.106	0.213
-185.114	225.398	0.129	-0.206
-184.100	6.070	-0.164	0.119
-183.085	-106.342	-0.261	0.058
-182.071	-118.143	-0.238	0.042
-181.056	-200.000	0.019	0.089
-180.042	-136.179	-0.192	-0.022
-179.027	-61.057	0.427	-0.178
-178.012	323.711	-0.087	0.164
-176.998	-200.000	0.046	0.228
-175.983	-200.000	-0.030	-0.210
-174.969	-0.437	0.101	0.071
-173.954	62.346	0.094	0.092
-172.939	28.599	0.078	0.065
-171.925	-200.000	-0.005	0.109
-170.910	800.000	-0.024	0.084
-169.896	-200.000	0.068	0.299
-168.881	156.881	0.171	0.232
-167.866	239.443	-0.171	0.281
-166.852	175.496	-0.105	0.150
-165.837	561.679	0.114	-0.273
-164.823	-1.261	0.179	0.125
-163.808	190.068	0.045	0.067
-162.793	-86.451	0.185	0.056
-161.779	-66.376	-0.086	0.034
-160.764	-32.956	0.319	-0.174
-159.750	61.155	0.129	-0.126
-158.735	99.181	-0.048	-0.054
-157.720	38.528	-0.032	-0.028
-156.706	-94.763	0.236	-0.063
-155.691	-150.161	-0.189	-0.014
-154.677	-200.000	-0.015	0.157
-153.662	-152.404	-0.224	0.016
-152.647	800.000	-0.090	-0.262
-151.633	388.277	0.208	-0.424
-150.618	-48.578	-0.153	0.072
-149.604	169.251	0.162	0.227
-148.589	-35.378	0.269	0.144
-147.574	472.236	0.050	0.111
-146.560	153.472	-0.085	-0.115
-145.545	-128.964	-0.313	-0.043
-144.531	402.270	0.013	-0.028
-143.516	-101.201	0.218	0.053
-142.502	89.917	-0.245	-0.269
-141.487	-44.218	0.207	0.102
-140.472	336.741	-0.156	0.298
-139.458	152.593	0.009	0.012
-138.443	-200.000	0.076	0.369
-137.429	-200.000	0.044	0.355
-136.414	-121.065	0.076	-0.013
-135.399	-9.334	-0.198	-0.130
-134.385	42.855	0.023	-0.021
-133.370	-200.000	0.007	-0.238
-132.356	-101.511	0.032	0.008
-131.341	298.096	0.113	0.203
-130.326	108.422	0.124	0.145
-129.312	-83.367	0.224	0.071
-128.297	-33.410	0.189	0.103
-127.283	-47.131	-0.107	0.051
-126.268	-10.703	-0.326	0.212
-125.253	-100.611	0.136	0.033
-124.239	-145.913	0.142	0.012
-123.224	-200.000	-0.001	0.204
-122.210	11.418	-0.242	0.182
-121.195	-94.983	0.290	-0.077
-120.180	-21.604	-0.148	0.088
-119.166	66.270	-0.200	-0.199
-118.151	-200.000	0.030	-0.132
-117.137	-200.000	-0.013	0.090
-116.122	-125.733	-0.189	0.028
-115.107	85.888	0.171	-0.185
-114.093	-138.272	0.215	0.023
-113.078	-160.597	0.326	0.017
-112.064	-200.000	0.055	0.340
-111.049	293.466	-0.147	-0.264
-110.034	430.177	-0.185	-0.393
-109.020	39.280	0.188	0.165
-108.005	700.495	0.112	0.290
-106.991	47.205	-0.225	0.206
-105.976	50.219	-0.084	0.078
-104.962	-176.958	-0.438	0.011
-103.947	-13.520	0.407	-0.259
-102.932	-51.584	-0.322	-0.147
-101.918	636.383	-0.133	-0.331
-100.903	-123.888	0.309	-0.048
-99.889	314.782	-0.048	-0.089
-98.874	-71.189	0.241	-0.089
-97.859	-101.308	-0.392	-0.094
-96.845	234.564	-0.096	0.156
-95.830	182.933	-0.132	-0.192
-94.816	-28.690	0.104	-0.059
-93.801	29.594	-0.197	-0.165
-92.786	800.000	0.085	0.253
-91.772	-20.761	0.208	0.125
-90.757	800.000	-0.039	-0.146
-89.743	-5.032	0.024	0.016
-88.728	800.000	-0.048	0.174
-87.713	-88.801	0.224	0.065
-86.699	-19.425	0.079	0.048
-85.684	-200.000	-0.015	0.343
-84.670	-45.007	0.256	-0.125
-83.655	-200.000	-0.026	0.238
-82.640	-101.946	0.050	0.012
-81.626	-18.849	0.224	-0.137
-80.611	89.241	0.175	0.192
-79.597	-200.000	-0.015	-0.163
-78.582	-102.475	-0.329	0.077
-77.567	-59.794	0.277	0.116
-76.553	-200.000	-0.007	-0.282
-75.538	-200.000	-0.043	0.230
-74.524	-166.731	-0.033	0.001
-73.509	-151.033	0.190	-0.014
-72.494	-51.088	-0.088	0.041
-71.480	-128.801	0.234	-0.032
-70.465	-200.000	-0.011	-0.308
-69.451	108.206	0.119	0.139
-68.436	800.000	-0.107	0.383
-67.422	304.513	0.036	0.066
-66.407	800.000	-0.052	0.186
-65.392	-200.000	-0.004	-0.046
-64.378	49.735	0.226	0.209
-63.363	67.738	-0.148	0.148
-62.349	674.551	0.105	0.268
-61.334	118.734	-1.017	-1.232
-60.319	-2.157	0.613	0.422
-59.305	800.000	-0.303	-1.300
-58.290	156.750	0.723	0.979
-57.276	800.000	0.514	1.749
-56.261	-200.000	109.019	595.862
-55.246	444.773	1489.508	3205.523
-54.232	145.730	2677.006	3517.122
-53.217	99.356	2285.600	2591.025
-52.203	38.426	1897.410	1657.613
-51.188	32.645	1686.256	1429.395
-50.173	30.023	1642.894	1373.170
-49.159	49.319	1697.450	1564.701
-48.144	49.572	1712.686	1580.588
-47.130	32.225	1669.822	1412.078
-46.115	29.613	1655.091	1380.087
-45.100	29.416	1650.029	1374.341
-44.086	29.402	1647.187	1371.820
-43.071	29.288	1645.101	1369.176
-42.057	29.252	1642.745	1366.899
-41.042	29.390	1640.116	1365.673
-40.027	29.277	1638.710	1363.612
-39.013	29.255	1636.630	1361.668
-37.998	29.328	1634.831	1360.658
-36.984	29.237	1634.213	1359.418
-35.969	29.437	1632.245	1359.199
-34.954	29.520	1630.721	1358.483
-33.940	29.459	1629.263	1356.772
-32.925	29.447	1627.447	1355.118
-31.911	29.423	1626.002	1353.679
-30.896	29.431	1624.251	1352.228
-29.881	29.363	1622.368	1350.108
-28.867	29.478	1620.661	1349.478
-27.852	29.427	1619.676	1348.232
-26.838	29.458	1617.774	1346.817
-25.823	29.581	1616.184	1346.339
-24.809	29.530	1614.795	1344.756
-23.794	29.522	1613.843	1343.850
-22.779	29.419	1612.481	1341.920
-21.765	29.408	1610.582	1340.205
-20.750	29.468	1608.510	1338.860
-19.736	29.526	1607.271	1338.195
-18.721	29.574	1606.177	1337.583
-17.706	29.607	1604.316	1336.217
-16.692	29.630	1602.579	1334.883
-15.677	29.490	1601.953	1333.295
-14.663	29.520	1600.513	1332.263
-13.648	29.495	1598.921	1330.706
-12.633	29.448	1597.935	1329.490
-11.619	29.449	1595.934	1327.782
-10.604	29.499	1594.226	1326.670
-9.590	29.570	1593.292	1326.348
-8.575	29.614	1591.830	1325.398
-7.560	29.526	1590.652	1323.731
-6.546	29.485	1590.019	1322.857
-5.531	29.560	1588.357	1321.957
-4.517	29.480	1587.668	1320.760
-3.502	29.503	1586.231	1319.678
-2.487	29.626	1584.027	1318.669
-1.473	29.236	1572.459	1306.223
-0.458	26.440	1553.770	1271.029
0.556	21.317	1554.774	1241.109
1.571	19.089	1578.448	1243.816
2.586	18.704	1591.623	1251.278
3.600	17.112	1538.347	1198.068
4.615	9.488	1428.944	1062.617
5.629	1.808	1364.645	966.151
6.644	0.252	1356.283	950.333
7.659	0.143	1355.663	949.128
8.673	0.069	1354.491	947.756
9.688	-0.073	1352.619	945.469
10.702	-0.167	1349.518	942.632
11.717	3.584	1355.107	970.057
12.731	11.993	1368.771	1032.957
13.746	17.213	1375.328	1070.795
14.761	17.258	1373.627	1069.661
15.775	16.284	1371.137	1061.505
16.790	15.141	1368.798	1052.421
17.804	14.444	1366.153	1045.920
18.819	14.063	1365.021	1042.577
19.834	13.810	1363.737	1039.917
20.848	13.538	1362.170	1036.924
21.863	13.324	1361.188	1034.747
22.877	13.234	1359.832	1033.062
23.892	13.130	1358.687	1031.452
24.907	13.048	1358.429	1030.656
25.921	13.097	1357.306	1030.017
26.936	13.176	1356.501	1029.808
27.950	13.265	1355.669	1029.642
28.965	13.253	1354.500	1028.587
29.980	13.353	1353.451	1028.320
30.994	13.312	1353.080	1027.690
32.009	13.370	1352.083	1027.206
33.023	13.288	1350.773	1025.608
34.038	13.335	1349.898	1025.144
35.053	13.274	1348.143	1023.343
36.067	13.295	1347.411	1022.825
37.082	13.250	1346.649	1021.881
38.096	13.348	1345.232	1021.320
39.111	13.328	1345.020	1020.944
40.126	13.314	1343.931	1019.943
41.140	13.173	1343.011	1018.285
42.155	13.118	1342.776	1017.675
43.169	13.143	1342.471	1017.512
44.184	13.120	1342.318	1017.160
45.199	13.091	1341.933	1016.600
46.213	13.265	1340.996	1016.873
47.228	13.186	1340.301	1015.771
48.242	13.240	1338.694	1014.796
49.257	13.277	1337.458	1013.996
50.271	13.251	1336.295	1012.864
51.286	13.206	1335.357	1011.789
52.301	13.145	1334.008	1010.305
53.315	13.193	1333.032	1009.768
54.330	13.152	1332.141	1008.753
55.344	13.169	1330.530	1007.546
56.359	13.185	1329.234	1006.574
57.374	13.165	1328.535	1005.835
58.388	13.027	1328.389	1004.796
59.403	13.005	1327.727	1004.069
60.417	13.125	1326.334	1003.657
61.432	13.080	1326.041	1003.073
62.447	13.044	1324.727	1001.775
63.461	12.924	1323.727	1000.199
64.476	13.015	1322.605	999.813
65.490	12.943	1321.350	998.344
66.505	13.106	1319.266	997.662
67.520	13.044	1318.852	996.889
68.534	13.066	1317.368	995.813
69.549	13.109	1316.654	995.442
70.563	13.043	1315.505	994.088
71.578	13.051	1314.574	993.345
72.593	12.844	1313.894	991.499
73.607	12.878	1313.055	990.981
74.622	12.929	1312.079	990.464
75.636	13.033	1311.016	990.197
76.651	12.955	1310.787	989.471
77.666	12.940	1309.923	988.639
78.680	12.947	1310.010	988.658
79.695	12.948	1308.912	987.750
80.709	13.015	1307.996	987.374
81.724	13.053	1306.995	986.757
82.739	13.113	1306.113	986.363
83.753	13.054	1305.725	985.627
84.768	13.215	1304.139	985.307
85.782	13.351	1302.625	984.883
86.797	13.262	1301.671	983.548
87.812	13.184	1300.461	982.081
88.826	13.157	1299.471	981.086
89.841	13.146	1298.824	980.443
90.855	13.216	1297.704	979.925
91.870	13.306	1296.382	979.376
92.884	13.268	1295.910	978.708
93.899	13.290	1294.959	978.031
94.914	13.387	1294.097	977.869
95.928	13.269	1293.816	976.870
96.943	13.308	1292.547	976.057
97.957	13.400	1291.470	975.702
98.972	13.282	1290.631	974.285
99.987	13.342	1289.075	973.379
101.001	13.249	1288.489	972.302
102.016	13.290	1287.311	971.571
103.030	13.281	1286.481	970.802
104.045	13.334	1285.295	970.133
105.060	13.228	1284.486	968.818
106.074	13.296	1282.416	967.566
107.089	13.095	1281.761	965.812
108.103	13.108	1280.441	964.808
109.118	13.140	1278.844	963.707
110.133	13.096	1277.534	962.373
111.147	13.075	1276.261	961.211
112.162	13.204	1274.735	960.724
113.176	13.123	1274.239	959.796
114.191	13.209	1273.309	959.509
115.206	13.184	1272.297	958.516
116.220	13.235	1271.085	957.812
117.235	13.105	1270.174	956.293
118.249	13.131	1268.896	955.395
119.264	13.220	1267.374	954.676
120.279	13.165	1266.301	953.466
121.293	13.088	1265.181	952.098
122.308	13.136	1264.335	951.653
123.322	13.082	1263.612	950.711
124.337	13.026	1262.482	949.457
125.352	13.073	1261.256	948.722
126.366	13.077	1260.271	947.915
127.381	13.111	1258.790	946.917
128.395	12.998	1257.961	945.560
129.410	13.068	1256.979	945.140
130.424	13.039	1256.762	944.728
131.439	13.116	1255.306	943.992
132.454	13.155	1254.669	943.650
133.468	13.119	1253.654	942.597
134.483	13.198	1252.767	942.300
135.497	13.179	1251.819	941.389
136.512	13.317	1250.448	941.060
137.527	13.289	1248.641	939.463
138.541	13.127	1247.679	937.734
139.556	13.133	1246.396	936.722
140.570	13.271	1245.380	936.658
141.585	13.224	1244.321	935.512
142.600	13.354	1242.732	934.971
143.614	13.396	1241.952	934.538
144.629	13.395	1241.111	933.816
145.643	13.414	1239.919	932.942
146.658	13.259	1238.983	931.281
147.673	13.310	1237.422	930.315
148.687	13.296	1236.408	929.393
149.702	13.269	1234.851	927.989
150.716	13.281	1233.321	926.820
151.731	13.256	1232.651	926.097
152.746	13.303	1231.506	925.419
153.760	13.314	1230.321	924.510
154.775	13.507	1228.437	924.087
155.789	13.412	1228.143	923.255
156.804	13.397	1227.323	922.471
157.819	13.376	1226.261	921.478
158.833	13.569	1225.236	921.696
159.848	13.497	1224.335	920.537
160.862	13.533	1223.346	919.915
161.877	13.470	1222.285	918.683
162.892	13.315	1221.348	917.041
163.906	13.405	1220.313	916.678
164.921	13.493	1218.881	916.007
165.935	13.382	1218.403	914.955
166.950	13.463	1218.106	915.100
167.964	13.481	1216.842	914.169
168.979	13.566	1215.940	913.878
169.994	13.529	1215.830	913.510
171.008	13.526	1214.721	912.581
172.023	13.528	1214.112	912.050
173.037	13.684	1213.040	912.022
174.052	13.643	1212.538	911.343
175.067	13.612	1211.025	909.955
176.081	13.528	1210.125	908.733
177.096	13.465	1209.463	907.810
178.110	13.545	1208.152	907.189
179.125	13.513	1206.958	906.033
180.140	13.600	1206.223	905.878
181.154	13.580	1204.622	904.485
182.169	13.620	1203.386	903.697
183.183	13.621	1202.382	902.868
184.198	13.785	1200.919	902.584
185.213	13.745	1199.658	901.340
186.227	13.776	1199.066	900.983
187.242	13.716	1198.224	899.944
188.256	13.775	1197.082	899.328
189.271	13.879	1195.852	898.884
190.286	13.667	1195.071	897.070
191.300	13.604	1194.282	896.062
192.315	13.481	1193.829	894.976
193.329	13.576	1193.075	894.846
194.344	13.596	1192.267	894.267
195.359	13.744	1191.754	894.602
196.373	13.821	1191.081	894.429
197.388	13.800	1190.774	894.010
198.402	13.808	1190.661	893.889
199.417	13.936	1189.214	893.410
200.432	13.961	1188.557	892.972
201.446	13.982	1187.783	892.427
202.461	13.956	1186.758	891.434
203.475	13.974	1185.777	890.718
204.490	14.114	1184.064	890.101
205.504	13.993	1182.746	888.384
206.519	13.981	1181.645	887.415
207.534	13.985	1180.616	886.586
208.548	13.972	1180.077	886.033
209.563	13.940	1179.195	885.120
210.577	14.048	1178.125	884.815
211.592	14.066	1177.239	884.169
212.607	14.055	1176.102	883.174
213.621	14.083	1175.546	882.828
214.636	14.216	1174.261	882.490
215.650	14.207	1173.576	881.851
216.665	14.172	1173.055	881.194
217.680	14.224	1172.112	880.685
218.694	14.187	1171.623	880.041
219.709	14.306	1170.264	879.575
220.723	14.336	1169.722	879.248
221.738	14.123	1169.417	877.816
222.753	14.207	1168.338	877.370
223.767	14.233	1167.550	876.840
224.782	14.308	1167.071	876.796
225.796	14.270	1166.943	876.421
226.811	14.380	1165.979	876.199
227.826	14.277	1165.241	875.025
228.840	14.328	1164.390	874.580
229.855	14.341	1163.281	873.735
230.869	14.411	1162.157	873.178
231.884	14.328	1161.709	872.331
232.899	14.320	1160.758	871.500
233.913	14.287	1160.147	870.790
234.928	14.205	1160.127	870.268
235.942	14.246	1158.983	869.548
236.957	14.208	1158.641	869.014
237.972	14.275	1157.492	868.428
238.986	14.303	1156.826	867.995
240.001	14.370	1155.946	867.609
241.015	14.288	1155.330	866.645
242.030	14.421	1154.326	866.504
243.045	14.481	1153.116	865.831
244.059	14.392	1153.198	865.351
245.074	14.423	1152.514	864.924
246.088	14.526	1151.333	864.497
247.103	14.514	1150.462	863.703
248.117	14.528	1149.875	863.257
249.132	14.594	1149.589	863.312
250.147	14.716	1148.353	862.934
251.161	14.687	1147.528	862.089
252.176	14.784	1146.789	861.960
253.190	14.829	1146.515	861.908
254.205	14.877	1145.399	861.239
255.220	14.896	1145.245	861.147
256.234	14.910	1144.566	860.632
257.249	14.940	1143.491	859.900
258.263	14.993	1142.941	859.685
259.278	14.932	1142.511	858.971
260.293	14.852	1142.360	858.369
261.307	14.950	1141.273	857.980
262.322	14.939	1141.010	857.650
263.336	15.038	1139.932	857.272
264.351	14.973	1139.414	856.473
265.366	14.898	1138.859	855.598
266.380	15.148	1137.506	855.781
267.395	15.017	1137.366	854.931
268.409	14.923	1136.823	853.965
269.424	14.989	1135.897	853.535
270.439	14.986	1135.392	853.065
271.453	15.005	1134.566	852.464
272.468	15.089	1133.484	852.002
273.482	14.878	1133.475	850.846
274.497	15.014	1132.681	850.867
275.512	15.106	1131.677	850.504
276.526	15.058	1131.142	849.783
277.541	15.052	1130.304	849.046
278.555	15.145	1129.376	848.748
279.570	15.146	1128.585	848.082
280.585	15.062	1128.171	847.271
281.599	15.143	1127.166	846.850
282.614	15.170	1126.139	846.140
283.628	15.167	1125.256	845.385
284.643	15.195	1124.072	844.567
285.657	15.281	1123.045	844.152
286.672	15.225	1122.443	843.344
287.687	15.245	1121.646	842.771
288.701	15.209	1120.815	841.892
289.716	15.270	1120.216	841.674
290.730	15.352	1119.228	841.268
291.745	15.297	1118.714	840.530
292.760	15.353	1117.902	840.123
293.774	15.347	1118.042	840.126
294.789	15.420	1117.268	839.835
295.803	15.448	1116.470	839.303
296.818	15.386	1115.260	838.008
297.833	15.355	1115.032	837.608
298.847	15.457	1114.102	837.344
299.862	15.462	1113.213	836.628
300.876	15.421	1112.533	835.836
301.891	15.545	1111.920	835.918
302.906	15.543	1111.023	835.160
303.920	15.507	1110.404	834.446
304.935	15.492	1109.976	833.972
305.949	15.560	1109.727	834.052
306.964	15.695	1108.359	833.617
307.979	15.526	1108.091	832.507
308.993	15.526	1107.667	832.112
310.008	15.572	1106.388	831.307
311.022	15.634	1105.971	831.227
312.037	15.712	1104.848	830.692
313.052	15.656	1103.616	829.419
314.066	15.694	1102.831	828.940
315.081	15.605	1101.941	827.760
316.095	15.650	1101.620	827.667
317.110	15.647	1100.684	826.878
318.125	15.590	1100.384	826.297
319.139	15.653	1099.256	825.688
320.154	15.586	1098.566	824.766
321.168	15.661	1097.987	824.625
322.183	15.660	1097.160	823.926
323.197	15.699	1096.954	823.891
324.212	15.694	1096.293	823.298
325.227	15.714	1095.580	822.788
326.241	15.663	1095.132	822.126
327.256	15.833	1094.107	822.116
328.270	15.680	1093.733	821.017
329.285	15.740	1092.323	820.178
330.300	15.724	1091.292	819.253
331.314	15.645	1090.580	818.263
332.329	15.699	1089.673	817.772
333.343	15.799	1088.632	817.402
334.358	15.766	1088.419	817.013
335.373	15.927	1087.433	816.979
336.387	15.859	1086.629	815.974
337.402	15.873	1085.780	815.331
338.416	16.032	1085.041	815.476
339.431	15.860	1084.789	814.378
340.446	15.972	1083.936	814.210
341.460	16.080	1083.224	814.122
342.475	16.170	1082.082	813.629
343.489	16.153	1081.472	813.018
344.504	16.138	1080.408	812.072
345.519	16.152	1079.787	811.598
346.533	16.234	1078.996	811.326
347.548	16.259	1078.348	810.890
348.562	16.228	1077.282	809.867
349.577	16.102	1077.004	808.983
350.592	16.116	1076.209	808.379
351.606	16.210	1075.218	808.014
352.621	16.065	1074.878	806.992
353.635	16.152	1074.193	806.825
354.650	16.055	1073.428	805.714
355.665	16.207	1072.702	805.825
356.679	16.118	1072.635	805.275
357.694	16.110	1071.679	804.450
358.708	16.196	1070.860	804.174
359.723	16.346	1069.823	804.038
360.738	16.303	1069.275	803.353
361.752	16.290	1069.066	803.062
362.767	16.273	1068.163	802.229
363.781	16.337	1068.014	802.353
364.796	16.301	1067.774	801.930
365.810	16.462	1066.687	801.804
366.825	16.405	1065.967	800.923
367.840	16.539	1065.373	801.042
368.854	16.533	1064.932	800.610
369.869	16.563	1064.396	800.276
370.883	16.538	1063.343	799.298
371.898	16.521	1062.563	798.562
372.913	16.545	1062.040	798.210
373.927	16.457	1061.789	797.533
374.942	16.464	1061.252	797.095
375.956	16.567	1060.431	796.892
376.971	16.457	1060.218	796.142
377.986	16.713	1058.851	796.252
379.000	16.755	1058.532	796.140
380.015	16.760	1058.289	795.909
381.029	16.653	1057.814	794.978
382.044	16.696	1057.147	794.609
383.059	16.709	1056.361	794.009
384.073	16.679	1055.722	793.314
385.088	16.825	1054.239	792.814
386.102	16.868	1053.416	792.330
387.117	16.754	1052.667	791.161
388.132	16.619	1051.940	789.915
389.146	16.815	1051.273	790.261
390.161	16.702	1050.287	788.921
391.175	16.801	1049.395	788.643
392.190	16.804	1048.801	788.141
393.205	16.857	1048.021	787.732
394.219	16.820	1047.475	787.078
395.234	16.815	1046.946	786.588
396.248	16.823	1045.343	785.351
397.263	16.836	1044.434	784.659
398.278	16.926	1043.825	784.546
399.292	16.749	1043.635	783.518
400.307	16.668	1042.979	782.580
401.321	16.755	1041.977	782.161
402.336	16.830	1041.251	781.893
403.350	16.763	1040.889	781.244
404.365	16.876	1039.988	781.020
405.380	16.907	1039.385	780.638
406.394	16.911	1038.551	779.965
407.409	16.900	1038.137	779.532
408.423	17.137	1036.762	779.521
409.438	17.056	1036.134	778.608
410.453	17.162	1035.654	778.664
411.467	17.043	1035.395	777.852
412.482	17.082	1034.848	777.550
413.496	17.253	1033.492	777.247
414.511	17.230	1033.190	776.844
415.526	17.204	1032.909	776.448
416.540	17.290	1032.452	776.427
417.555	17.292	1031.668	775.777
418.569	17.351	1031.163	775.597
419.584	17.239	1030.993	774.893
420.599	17.388	1030.174	774.886
421.613	103.401	1322.410	1469.222
422.628	94.615	1364.935	1469.337
