DTS Sentinel unit serial number:	SN413079Multiplexer serial number:	ORYXHardware model number:	OX4-SRSoftware version number:	ORYX F/W v4.00 Oryx Data Collector v3.7.2.0data status	okinstallation	princeton_trtdifferential loss correction	single-endedforward channel	channel 2reverse channel	N/Adate	2019/09/13time	07:19:34forward acquisition time	60.00reverse acquisition time	0.00gamma	496.2192k internal	0.2337k external	0.2337temperature offset calibration	1.0200default loss term (dB/km)	0.3790temperature slope calibration	1.0000multiplexer offset coefficient	1.0000multiplexer slope coefficient	1.0000fibre end	0.00T internal ref (°C)	26.06T ext. ref 1 (°C)	4.17T ext. ref 2 (°C)	21.55length (m)	temperature (°C)	Stokes	anti-Stokes-747.200	34.761	-0.132	-0.116
-746.185	-200.000	0.044	0.207
-745.171	-200.000	-0.027	0.262
-744.156	-131.553	-0.427	-0.056
-743.142	-30.645	0.085	0.048
-742.127	777.613	-0.056	0.152
-741.112	-152.397	0.339	-0.024
-740.098	-124.264	-0.395	-0.062
-739.083	-78.022	0.113	-0.039
-738.069	188.364	-0.023	-0.034
-737.054	77.826	-0.178	-0.190
-736.039	800.000	0.033	-0.113
-735.025	639.702	0.061	-0.156
-734.010	124.386	-0.157	-0.198
-732.996	12.168	-0.392	-0.303
-731.981	-97.206	0.127	-0.033
-730.966	-23.417	0.119	-0.072
-729.952	165.831	-0.112	0.158
-728.937	67.080	-0.058	0.060
-727.923	219.878	-0.073	-0.118
-726.908	-115.501	0.310	-0.059
-725.894	-38.906	-0.038	0.020
-724.879	459.279	0.063	0.141
-723.864	-200.000	-0.028	0.146
-722.850	1.187	0.075	-0.054
-721.835	-200.000	0.049	-0.303
-720.821	-112.599	0.194	-0.039
-719.806	800.000	0.113	-0.348
-718.791	800.000	0.089	-0.290
-717.777	800.000	-0.031	0.126
-716.762	-200.000	0.011	0.153
-715.748	399.347	0.077	0.162
-714.733	-56.893	0.262	-0.116
-713.718	317.968	-0.092	0.175
-712.704	-157.550	-0.092	-0.006
-711.689	-60.163	0.177	-0.075
-710.675	39.559	-0.067	-0.060
-709.660	-200.000	0.011	0.143
-708.645	123.980	-0.229	-0.288
-707.631	-128.739	-0.262	-0.037
-706.616	-86.982	-0.456	0.139
-705.602	22.821	0.195	-0.160
-704.587	436.779	0.093	-0.202
-703.572	-200.000	0.005	0.063
-702.558	-200.000	0.045	0.240
-701.543	-103.187	-0.468	-0.111
-700.529	296.464	0.116	-0.212
-699.514	688.223	0.100	-0.262
-698.499	137.785	-0.122	0.160
-697.485	321.672	0.076	0.144
-696.470	-153.650	-0.383	-0.026
-695.456	-94.349	-0.254	-0.070
-694.441	300.696	0.171	-0.317
-693.426	571.305	0.104	0.255
-692.412	6.115	0.456	-0.339
-691.397	800.000	0.036	-0.133
-690.383	-122.850	0.155	0.025
-689.368	-22.704	-0.203	0.123
-688.354	-200.000	-0.019	0.205
-687.339	-33.265	0.282	-0.156
-686.324	106.741	0.322	-0.383
-685.310	800.000	0.031	0.130
-684.295	25.383	0.336	-0.280
-683.281	-200.000	-0.002	-0.227
-682.266	-200.000	0.017	0.173
-681.251	-78.587	-0.490	-0.168
-680.237	-134.348	-0.080	0.010
-679.222	-83.595	0.070	-0.023
-678.208	-200.000	0.037	0.253
-677.193	105.340	0.325	-0.384
-676.178	-160.824	-0.246	0.013
-675.164	-22.606	0.380	0.230
-674.149	388.847	0.127	-0.263
-673.135	37.809	-0.117	-0.104
-672.120	-200.000	-0.009	-0.212
-671.105	-200.000	0.021	0.134
-670.091	800.000	0.079	0.300
-669.076	-105.926	-0.188	0.042
-668.062	-200.000	-0.016	-0.110
-667.047	44.595	-0.068	-0.062
-666.032	-62.531	-0.196	-0.081
-665.018	-11.202	0.204	0.134
-664.003	48.977	0.091	0.085
-662.989	-200.000	0.103	0.000
-661.974	47.795	-0.148	-0.139
-660.959	3.829	0.210	-0.154
-659.945	-14.184	0.177	0.114
-658.930	-35.256	-0.151	0.082
-657.916	-70.273	0.059	0.023
-656.901	-191.980	0.227	-0.002
-655.886	14.640	-0.130	0.101
-654.872	-132.247	-0.122	0.016
-653.857	-126.376	0.289	-0.043
-652.843	800.000	-0.065	-0.256
-651.828	14.520	-0.137	0.107
-650.814	249.261	-0.045	-0.077
-649.799	348.304	-0.112	0.221
-648.784	-200.000	-0.017	0.238
-647.770	-200.000	0.018	0.319
-646.755	236.438	0.139	0.231
-645.741	-200.000	-0.018	0.204
-644.726	-112.006	-0.116	-0.023
-643.711	185.311	0.138	-0.206
-642.697	-77.830	0.331	-0.114
-641.682	800.000	0.009	-0.038
-640.668	86.793	-0.183	0.202
-639.653	46.274	0.185	-0.171
-638.638	-23.803	0.247	-0.148
-637.624	42.620	0.159	-0.145
-636.609	-200.000	0.003	0.054
-635.595	-34.758	-0.093	-0.051
-634.580	-200.000	-0.269	0.001
-633.565	-200.000	-0.040	-0.374
-632.551	800.000	0.061	-0.207
-631.536	-200.000	-0.038	0.192
-630.522	-200.000	0.009	-0.140
-629.507	39.304	0.101	0.091
-628.492	-68.012	-0.322	0.125
-627.478	-35.847	-0.111	-0.060
-626.463	-39.461	0.075	0.039
-625.449	6.123	0.383	0.284
-624.434	51.504	0.127	0.120
-623.419	407.624	0.137	0.289
-622.405	270.359	-0.216	0.380
-621.390	-200.000	-0.016	-0.087
-620.376	-200.000	-0.020	-0.265
-619.361	-103.503	0.217	0.051
-618.346	-200.000	0.001	0.068
-617.332	800.000	0.077	0.262
-616.317	800.000	0.075	-0.264
-615.303	86.475	0.069	-0.076
-614.288	766.779	0.066	-0.179
-613.273	-116.592	-0.211	-0.039
-612.259	61.307	0.187	-0.185
-611.244	55.932	0.207	-0.200
-610.230	-48.940	-0.214	0.102
-609.215	-134.048	0.299	-0.037
-608.201	800.000	0.115	0.384
-607.186	-65.433	-0.216	0.087
-606.171	99.817	0.123	-0.142
-605.157	-200.000	-0.003	-0.177
-604.142	53.483	-0.194	-0.186
-603.128	-73.350	-0.024	0.009
-602.113	-177.368	0.314	0.008
-601.098	359.923	-0.068	0.135
-600.084	35.593	-0.152	-0.133
-599.069	-0.790	-0.244	-0.173
-598.055	101.957	0.154	0.179
-597.040	-144.961	-0.140	-0.013
-596.025	264.494	0.055	0.096
-595.011	35.581	0.090	0.079
-593.996	-200.000	-0.002	0.267
-592.982	277.322	0.331	-0.587
-591.967	-89.864	-0.228	-0.066
-590.952	-72.972	-0.112	-0.041
-589.938	800.000	-0.115	-0.321
-588.923	-200.000	0.048	0.251
-587.909	-138.446	0.081	0.009
-586.894	298.286	0.114	0.210
-585.879	534.586	-0.059	0.140
-584.865	-101.965	-0.099	-0.024
-583.850	-200.000	0.018	0.171
-582.836	800.000	0.046	-0.140
-581.821	-123.103	-0.025	0.004
-580.806	328.149	0.168	-0.322
-579.792	147.091	-0.062	-0.083
-578.777	336.711	-0.188	0.365
-577.763	-200.000	0.028	-0.142
-576.748	-86.737	0.039	-0.012
-575.733	-112.458	0.400	0.080
-574.719	-50.825	0.286	0.134
-573.704	800.000	0.072	-0.269
-572.690	76.589	-0.137	0.145
-571.675	456.437	-0.196	0.433
-570.661	-10.209	-0.157	0.104
-569.646	174.861	-0.105	-0.152
-568.631	-82.822	0.485	0.156
-567.617	-200.000	0.018	-0.120
-566.602	-124.462	0.677	-0.105
-565.588	640.838	-0.022	-0.055
-564.573	87.441	-0.101	-0.111
-563.558	-96.862	0.181	-0.047
-562.544	-200.000	-0.008	0.185
-561.529	800.000	0.025	0.069
-560.515	537.979	0.093	0.221
-559.500	-181.010	-0.053	0.001
-558.485	-200.000	-0.030	0.136
-557.471	800.000	0.093	0.368
-556.456	800.000	0.088	-0.312
-555.442	109.415	0.304	0.363
-554.427	-200.000	-0.001	0.250
-553.412	-87.384	-0.364	0.110
-552.398	105.168	0.049	-0.058
-551.383	-91.219	-0.205	0.059
-550.369	-27.409	-0.190	0.110
-549.354	181.162	-0.166	0.244
-548.339	-166.370	0.227	-0.010
-547.325	15.817	-0.364	0.285
-546.310	191.912	0.053	0.079
-545.296	-85.882	0.204	-0.063
-544.281	-200.000	0.012	0.183
-543.266	234.460	-0.058	-0.095
-542.252	14.526	0.083	-0.065
-541.237	78.447	0.096	-0.102
-540.223	56.251	0.086	0.083
-539.208	-98.186	-0.371	0.095
-538.193	-200.000	0.009	-0.265
-537.179	2.818	0.167	-0.121
-536.164	330.007	0.040	-0.077
-535.150	-191.528	-0.240	0.002
-534.135	-130.791	0.064	-0.009
-533.121	-128.973	-0.226	0.032
-532.106	276.405	0.201	-0.355
-531.091	800.000	0.133	0.377
-530.077	-3.054	-0.152	-0.106
-529.062	68.744	-0.155	0.159
-528.048	-113.736	0.046	-0.009
-527.033	-64.178	0.401	-0.163
-526.018	326.459	-0.074	-0.142
-525.004	-112.199	-0.125	0.025
-523.989	92.383	-0.190	0.213
-522.975	14.056	0.152	0.117
-521.960	429.735	-0.034	0.073
-520.945	800.000	-0.017	-0.054
-519.931	-145.990	-0.162	0.014
-518.916	384.951	0.032	-0.065
-517.902	527.454	-0.064	-0.150
-516.887	-94.536	-0.083	-0.023
-515.872	398.380	-0.092	0.191
-514.858	142.026	0.074	-0.098
-513.843	800.000	-0.038	-0.144
-512.829	176.867	-0.191	-0.277
-511.814	-140.766	0.029	-0.003
-510.799	31.344	-0.280	0.239
-509.785	-165.372	0.507	-0.022
-508.770	30.673	-0.094	-0.080
-507.756	3.508	0.040	-0.029
-506.741	800.000	-0.033	-0.099
-505.726	-200.000	-0.364	0.001
-504.712	56.549	0.062	-0.060
-503.697	47.022	-0.277	0.256
-502.683	72.506	0.078	-0.081
-501.668	450.904	-0.092	0.203
-500.653	-200.000	0.024	-0.292
-499.639	225.660	-0.095	0.152
-498.624	-200.000	-0.020	-0.288
-497.610	58.498	0.199	-0.194
-496.595	-106.123	0.157	-0.035
-495.581	31.903	0.098	0.084
-494.566	69.986	-0.048	-0.050
-493.551	-200.000	-0.034	0.407
-492.537	-81.551	-0.451	0.147
-491.522	-94.838	0.200	-0.054
-490.508	-18.415	0.218	-0.135
-489.493	-158.193	-0.283	0.016
-488.478	-147.620	0.249	0.021
-487.464	-200.000	0.044	-0.339
-486.449	71.894	-0.104	0.108
-485.435	32.076	0.057	0.049
-484.420	88.747	-0.135	0.149
-483.405	215.857	0.086	0.136
-482.391	-200.000	-0.028	0.381
-481.376	-56.659	-0.266	0.117
-480.362	56.892	0.398	0.386
-479.347	-200.000	-0.038	0.415
-478.332	110.350	-0.171	-0.204
-477.318	-108.595	0.343	-0.073
-476.303	55.515	-0.126	-0.121
-475.289	-200.000	0.013	0.392
-474.274	-61.412	-0.046	0.019
-473.259	1.392	-0.191	-0.137
-472.245	657.025	-0.045	-0.116
-471.230	-38.281	-0.387	-0.203
-470.216	189.715	0.057	0.085
-469.201	-200.000	0.083	-0.411
-468.186	73.759	0.264	0.275
-467.172	-137.963	0.237	-0.026
-466.157	630.075	0.051	0.128
-465.143	-44.451	0.156	-0.078
-464.128	800.000	0.102	-0.329
-463.113	18.684	0.260	-0.206
-462.099	800.000	-0.032	0.105
-461.084	-200.000	-0.016	0.330
-460.070	89.146	-0.187	-0.207
-459.055	90.954	-0.191	0.213
-458.040	-117.810	0.108	-0.019
-457.026	69.348	-0.327	-0.334
-456.011	28.501	0.110	-0.093
-454.997	-185.506	-0.168	-0.003
-453.982	-89.575	0.046	-0.013
-452.968	-111.905	-0.289	-0.058
-451.953	-26.475	0.172	0.100
-450.938	23.341	-0.121	0.098
-449.924	219.365	0.020	-0.031
-448.909	-34.168	0.105	0.057
-447.895	-200.000	0.093	-0.454
-446.880	7.904	-0.088	-0.065
-445.865	-200.000	0.052	-0.437
-444.851	-181.091	-0.143	-0.003
-443.836	733.311	-0.103	-0.273
-442.822	800.000	-0.075	0.271
-441.807	-64.618	0.140	-0.056
-440.792	-74.968	-0.102	0.036
-439.778	-200.000	-0.013	0.258
-438.763	-110.312	-0.156	-0.032
-437.749	-138.764	0.088	0.010
-436.734	-200.000	-0.002	0.091
-435.719	-48.121	-0.036	0.017
-434.705	-19.872	-0.081	-0.050
-433.690	-148.220	0.214	0.018
-432.676	584.743	-0.041	-0.100
-431.661	800.000	-0.107	-0.321
-430.646	292.783	-0.129	0.233
-429.632	800.000	0.043	-0.153
-428.617	-31.056	-0.169	0.095
-427.603	581.927	0.100	-0.243
-426.588	294.568	-0.100	-0.181
-425.573	381.444	-0.147	0.300
-424.559	-160.765	0.314	-0.016
-423.544	29.412	-0.182	0.153
-422.530	-79.708	-0.169	-0.057
-421.515	-200.000	-0.045	-0.236
-420.500	479.430	-0.113	-0.254
-419.486	270.193	0.128	-0.224
-418.471	-44.456	0.437	0.217
-417.457	175.293	0.124	0.178
-416.442	-11.697	-0.183	-0.119
-415.428	-62.874	-0.285	-0.117
-414.413	16.300	0.270	-0.211
-413.398	-178.910	-0.259	0.006
-412.384	-110.617	-0.449	0.092
-411.369	183.837	0.030	0.045
-410.355	-99.640	-0.177	0.044
-409.340	-200.000	-0.337	-0.001
-408.325	-107.785	0.490	-0.106
-407.311	-200.000	0.075	0.342
-406.296	-200.000	-0.036	-0.164
-405.282	-160.658	0.247	-0.013
-404.267	-38.829	0.319	-0.167
-403.252	-200.000	0.014	0.169
-402.238	84.304	-0.134	0.145
-401.223	-119.883	-0.098	-0.017
-400.209	-34.990	0.180	-0.097
-399.194	-200.000	0.026	-0.385
-398.179	800.000	0.124	-0.476
-397.165	800.000	0.049	0.148
-396.150	-42.265	0.319	0.161
-395.136	-125.956	-0.173	0.026
-394.121	161.912	0.084	0.117
-393.106	228.761	-0.061	-0.099
-392.092	157.744	0.208	-0.285
-391.077	-74.276	0.172	0.061
-390.063	-9.854	-0.167	0.110
-389.048	800.000	0.051	-0.209
-388.033	30.898	-0.172	-0.146
-387.019	-200.000	0.007	0.305
-386.004	-200.000	-0.001	0.222
-384.990	800.000	0.091	0.342
-383.975	-200.000	0.025	-0.308
-382.960	218.188	-0.111	0.175
-381.946	-200.000	-0.020	0.150
-380.931	-200.000	0.009	-0.204
-379.917	-21.981	-0.288	0.173
-378.902	34.400	0.203	-0.175
-377.888	13.255	0.060	0.046
-376.873	119.591	-0.098	0.121
-375.858	-77.698	-0.053	0.018
-374.844	127.193	-0.165	-0.207
-373.829	-96.242	-0.526	-0.138
-372.815	1.791	0.142	-0.102
-371.800	-200.000	0.062	-0.284
-370.785	665.818	0.048	0.124
-369.771	-200.000	-0.006	0.360
-368.756	-200.000	-0.012	-0.313
-367.742	178.223	0.051	0.074
-366.727	-21.642	-0.210	0.127
-365.712	-150.686	0.475	-0.036
-364.698	800.000	0.121	-0.359
-363.683	800.000	-0.008	-0.029
-362.669	312.578	-0.108	-0.201
-361.654	252.226	0.105	-0.177
-360.639	511.451	0.081	-0.187
-359.625	-119.281	0.210	0.036
-358.610	-185.080	0.346	0.005
-357.596	-160.029	-0.379	0.020
-356.581	724.721	-0.172	-0.453
-355.566	102.227	0.178	-0.206
-354.552	-200.000	0.013	0.098
-353.537	128.560	0.102	-0.129
-352.523	-163.773	-0.150	-0.007
-351.508	-141.935	0.221	-0.022
-350.493	217.070	0.236	0.371
-349.479	37.847	-0.203	-0.179
-348.464	14.637	-0.094	-0.072
-347.450	-200.000	-0.004	0.255
-346.435	800.000	0.100	-0.326
-345.420	-65.123	-0.079	0.032
-344.406	-54.435	0.294	-0.132
-343.391	800.000	-0.066	0.181
-342.377	-200.000	0.002	-0.055
-341.362	-118.271	-0.232	-0.041
-340.348	-36.094	-0.513	-0.274
-339.333	-12.571	0.152	-0.098
-338.318	274.259	-0.160	0.279
-337.304	-131.198	0.219	0.029
-336.289	-200.000	0.000	0.267
-335.275	-79.899	-0.290	-0.096
-334.260	-200.000	0.490	-0.001
-333.245	1.326	0.063	0.045
-332.231	-95.967	0.259	-0.068
-331.216	26.985	-0.085	0.070
-330.202	-133.972	0.453	0.055
-329.187	-200.000	-0.023	-0.190
-328.172	-63.666	0.058	0.023
-327.158	64.685	0.105	-0.104
-326.143	-200.000	0.038	-0.304
-325.129	-91.710	0.192	0.054
-324.114	-110.365	0.018	0.004
-323.099	-65.405	-0.191	-0.076
-322.085	698.085	0.024	-0.061
-321.070	511.554	-0.078	0.179
-320.056	-105.072	-0.091	0.020
-319.041	98.670	-0.160	-0.183
-318.026	-87.181	-0.208	0.062
-317.012	-24.948	0.082	0.048
-315.997	36.755	0.288	-0.251
-314.983	-94.537	0.214	-0.058
-313.968	-59.628	-0.208	0.088
-312.953	-111.361	-0.163	0.033
-311.939	600.335	0.028	-0.068
-310.924	-22.336	-0.390	0.233
-309.910	-200.000	0.020	0.273
-308.895	800.000	-0.131	-0.453
-307.880	-182.486	0.524	0.010
-306.866	526.656	-0.057	0.133
-305.851	800.000	0.063	-0.177
-304.837	428.929	0.055	0.117
-303.822	51.212	0.252	0.236
-302.807	0.461	-0.061	0.043
-301.793	88.575	-0.130	0.143
-300.778	495.323	0.223	-0.505
-299.764	391.995	0.059	-0.122
-298.749	-105.287	0.203	-0.046
-297.735	-101.129	0.370	0.089
-296.720	77.807	0.111	-0.117
-295.705	131.208	-0.150	0.191
-294.691	-200.000	-0.018	0.245
-293.676	261.174	0.160	0.273
-292.662	-94.303	-0.156	-0.042
-291.647	155.605	0.131	0.178
-290.632	141.831	0.171	-0.223
-289.618	19.642	-0.310	-0.246
-288.603	-39.874	-0.090	-0.047
-287.589	257.283	0.069	0.118
-286.574	-134.187	-0.213	0.026
-285.559	2.150	-0.135	-0.096
-284.545	-30.816	0.256	0.142
-283.530	-200.000	0.005	0.165
-282.516	779.817	-0.016	-0.044
-281.501	79.528	0.305	0.323
-280.486	-13.271	-0.188	-0.120
-279.472	-54.022	0.086	-0.039
-278.457	-200.000	-0.021	-0.100
-277.443	-9.211	-0.170	0.112
-276.428	-162.928	0.074	0.004
-275.413	-50.516	0.105	-0.049
-274.399	522.712	-0.125	-0.290
-273.384	-1.779	0.339	-0.235
-272.370	127.986	0.082	0.103
-271.355	7.483	0.301	-0.222
-270.340	107.076	0.051	-0.060
-269.326	310.678	-0.087	-0.161
-268.311	41.635	-0.062	0.056
-267.297	-200.000	0.027	0.122
-266.282	800.000	-0.023	0.097
-265.267	-200.000	-0.017	0.174
-264.253	139.607	-0.064	0.083
-263.238	199.393	-0.059	-0.089
-262.224	-27.041	0.154	0.088
-261.209	328.966	0.070	0.133
-260.195	800.000	-0.035	-0.142
-259.180	-200.000	0.003	0.070
-258.165	-151.248	-0.260	0.019
-257.151	176.535	-0.195	0.279
-256.136	-12.749	-0.178	0.114
-255.122	5.341	-0.025	0.018
-254.107	240.792	-0.095	0.156
-253.092	-143.870	-0.198	-0.018
-252.078	171.914	-0.038	0.054
-251.063	145.343	0.059	-0.078
-250.049	109.969	0.159	0.187
-249.034	72.269	0.254	0.260
-248.019	-200.000	-0.014	-0.459
-247.005	800.000	-0.077	-0.281
-245.990	800.000	0.067	0.223
-244.976	800.000	0.044	0.186
-243.961	706.609	-0.048	0.125
-242.946	701.055	-0.109	-0.282
-241.932	-56.167	0.206	-0.090
-240.917	-142.082	-0.259	-0.025
-239.903	-200.000	-0.003	-0.103
-238.888	-13.966	-0.186	0.118
-237.873	318.381	-0.130	0.242
-236.859	-24.392	0.101	0.059
-235.844	-70.368	-0.103	-0.039
-234.830	-43.765	-0.357	0.177
-233.815	361.712	0.071	0.140
-232.800	-200.000	0.011	-0.456
-231.786	-43.548	0.079	-0.039
-230.771	712.836	-0.068	0.178
-229.757	-24.168	0.391	0.230
-228.742	-150.044	0.128	-0.010
-227.727	14.899	0.199	-0.153
-226.713	487.569	0.090	-0.203
-225.698	163.641	0.013	0.018
-224.684	-103.755	-0.426	0.098
-223.669	85.892	0.098	0.106
-222.655	109.515	0.159	0.188
-221.640	-81.839	0.452	0.146
-220.625	97.343	0.152	-0.172
-219.611	800.000	-0.053	-0.180
-218.596	452.616	-0.155	-0.338
-217.582	800.000	0.052	0.173
-216.567	-37.522	0.042	0.022
-215.552	-13.046	-0.188	-0.120
-214.538	439.855	-0.130	0.280
-213.523	45.670	0.204	-0.185
-212.509	-182.671	0.115	-0.002
-211.494	-200.000	-0.017	0.200
-210.479	-174.363	0.095	0.003
-209.465	-41.027	-0.213	0.108
-208.450	-200.000	-0.047	-0.261
-207.436	138.990	0.197	0.255
-206.421	111.217	-0.258	-0.305
-205.406	-200.000	-0.001	-0.070
-204.392	-144.239	0.206	0.019
-203.377	-116.164	0.288	0.052
-202.363	-200.000	-0.012	0.152
-201.348	-51.109	-0.348	0.160
-200.333	-145.447	0.053	-0.005
-199.319	115.618	-0.196	0.235
-198.304	150.066	0.123	-0.164
-197.290	148.818	-0.134	-0.178
-196.275	101.811	0.042	-0.048
-195.260	646.653	-0.014	-0.034
-194.246	-39.140	0.239	0.123
-193.231	-54.753	-0.362	-0.161
-192.217	800.000	0.119	0.332
-191.202	-46.919	-0.194	0.093
-190.187	248.590	0.048	0.080
-189.173	295.051	0.077	0.139
-188.158	0.121	-0.179	-0.126
-187.144	68.579	-0.138	0.139
-186.129	-57.541	0.074	-0.032
-185.114	-200.000	0.034	-0.280
-184.100	470.484	0.052	0.115
-183.085	-38.901	0.151	-0.078
-182.071	-121.503	-0.390	-0.064
-181.056	-200.000	0.047	0.238
-180.042	282.342	-0.105	0.186
-179.027	118.495	-0.164	0.199
-178.012	-153.154	-0.273	-0.019
-176.998	-11.285	0.102	0.066
-175.983	-200.000	0.053	0.331
-174.969	-31.847	0.204	0.112
-173.954	90.465	-0.320	-0.352
-172.939	-21.945	-0.049	-0.029
-171.925	5.433	0.140	0.101
-170.910	-200.000	0.004	-0.085
-169.896	-37.594	-0.339	0.177
-168.881	-100.477	-0.311	-0.076
-167.866	-200.000	0.028	0.262
-166.852	-97.725	-0.159	0.040
-165.837	800.000	0.016	-0.057
-164.823	-200.000	0.011	-0.090
-163.808	-130.909	-0.295	-0.039
-162.793	-61.359	-0.341	-0.141
-161.779	-159.491	-0.358	-0.020
-160.764	-7.215	0.155	-0.103
-159.750	294.352	0.054	-0.098
-158.735	80.232	-0.216	-0.228
-157.720	800.000	0.054	0.180
-156.706	-54.006	-0.208	-0.093
-155.691	-119.287	-0.196	0.034
-154.677	512.436	0.070	-0.160
-153.662	-200.000	-0.013	-0.139
-152.647	28.228	-0.087	0.072
-151.633	-200.000	0.002	0.091
-150.618	-20.402	0.414	-0.250
-149.604	130.027	0.084	0.105
-148.589	126.576	-0.093	-0.116
-147.574	-171.276	0.508	-0.017
-146.560	290.828	-0.042	-0.075
-145.545	-145.729	0.195	0.017
-144.531	-2.283	-0.233	0.160
-143.516	-127.555	0.045	-0.006
-142.502	-86.263	-0.245	-0.074
-141.487	-200.000	-0.016	-0.194
-140.472	-81.101	-0.057	0.018
-139.458	58.426	0.173	-0.166
-138.443	-200.000	-0.054	-0.299
-137.429	800.000	0.079	-0.224
-136.414	-68.852	0.234	-0.088
-135.399	800.000	0.077	0.226
-134.385	87.835	0.002	-0.002
-133.370	-25.022	-0.213	0.124
-132.356	-156.738	0.184	-0.011
-131.341	76.955	-0.118	-0.123
-130.326	21.251	0.129	0.103
-129.312	-155.277	0.175	0.011
-128.297	-195.515	0.105	-0.001
-127.283	230.719	0.115	-0.184
-126.268	-1.822	0.158	0.109
-125.253	-43.702	-0.134	0.066
-124.239	-108.583	0.268	0.056
-123.224	13.403	0.169	0.128
-122.210	-41.769	-0.114	-0.057
-121.195	800.000	-0.051	-0.144
-120.180	-13.844	-0.446	-0.283
-119.166	-16.607	0.253	0.157
-118.151	-200.000	0.049	-0.268
-117.137	79.375	0.096	0.101
-116.122	800.000	0.072	0.249
-115.107	-200.000	0.022	-0.223
-114.093	10.973	0.111	0.083
-113.078	-200.000	-0.035	0.162
-112.064	56.593	-0.192	0.183
-111.049	354.325	0.138	0.269
-110.034	-100.518	-0.126	-0.031
-109.020	-87.758	-0.085	-0.025
-108.005	-27.019	-0.289	-0.165
-106.991	-200.000	0.023	0.191
-105.976	39.547	-0.252	0.221
-104.962	800.000	0.034	0.124
-103.947	94.624	-0.160	0.178
-102.932	-25.209	0.070	0.040
-101.918	223.444	0.165	-0.260
-100.903	-131.278	0.314	0.041
-99.889	-200.000	0.047	0.237
-98.874	-113.676	0.181	-0.035
-97.859	469.990	0.068	0.149
-96.845	-64.284	-0.191	0.076
-95.830	800.000	-0.047	-0.156
-94.816	202.246	0.086	-0.130
-93.801	170.441	0.287	0.402
-92.786	-164.574	0.277	-0.012
-91.772	800.000	-0.058	-0.184
-90.757	-110.876	-0.127	0.026
-89.743	99.935	-0.109	-0.123
-88.728	30.035	-0.133	0.111
-87.713	-99.168	0.106	0.026
-86.699	-200.000	0.016	0.126
-85.684	147.581	-0.196	0.259
-84.670	-138.687	0.193	0.021
-83.655	163.750	0.060	-0.083
-82.640	-39.348	-0.063	-0.032
-81.626	67.850	-0.100	-0.100
-80.611	386.441	-0.023	0.047
-79.597	-29.177	-0.126	-0.071
-78.582	95.327	0.268	0.298
-77.567	-185.136	-0.096	0.001
-76.553	-130.529	-0.375	-0.050
-75.538	335.170	0.113	-0.214
-74.524	165.277	0.146	0.202
-73.509	113.908	-0.253	0.301
-72.494	-169.700	0.360	-0.013
-71.480	188.790	-0.047	0.069
-70.465	-99.636	0.248	-0.061
-69.451	-64.901	0.288	0.114
-68.436	-56.389	-0.067	0.029
-67.422	111.208	-0.095	0.112
-66.407	628.432	0.063	-0.157
-65.392	-171.973	0.267	-0.008
-64.378	7.717	0.173	-0.127
-63.363	404.778	-0.122	-0.250
-62.349	800.000	0.089	0.261
-61.334	58.833	-0.935	-0.898
-60.319	500.678	0.367	0.828
-59.305	654.758	-0.412	-1.033
-58.290	594.704	0.516	1.246
-57.276	235.249	0.938	1.513
-56.261	-200.000	117.310	645.733
-55.246	490.508	1553.022	3471.573
-54.232	172.262	2734.514	3842.197
-53.217	98.781	2300.601	2593.788
-52.203	35.129	1904.666	1630.263
-51.188	29.178	1697.546	1407.616
-50.173	26.822	1656.380	1355.835
-49.159	47.397	1714.759	1560.794
-48.144	45.837	1727.470	1560.443
-47.130	28.769	1684.894	1393.800
-46.115	26.111	1671.038	1362.248
-45.100	26.063	1665.326	1357.175
-44.086	25.939	1663.208	1354.466
-43.071	25.948	1660.725	1352.457
-42.057	25.898	1657.817	1349.662
-41.042	25.960	1655.774	1348.408
-40.027	25.953	1654.000	1346.857
-39.013	25.877	1651.767	1344.416
-37.998	25.879	1650.609	1343.439
-36.984	25.947	1649.010	1342.592
-35.969	25.978	1648.140	1342.055
-34.954	26.085	1646.099	1341.142
-33.940	26.073	1644.413	1339.621
-32.925	26.016	1643.073	1338.057
-31.911	26.086	1641.354	1337.121
-30.896	26.117	1638.694	1335.134
-29.881	26.140	1637.367	1334.163
-28.867	26.043	1636.511	1332.697
-27.852	26.059	1635.450	1331.902
-26.838	26.106	1633.256	1330.410
-25.823	26.080	1632.016	1329.156
-24.809	26.043	1630.644	1327.711
-23.794	26.094	1629.232	1326.885
-22.779	26.156	1627.624	1325.978
-21.765	26.060	1626.195	1324.054
-20.750	25.987	1624.504	1322.091
-19.736	26.112	1623.096	1321.810
-18.721	26.209	1621.244	1320.955
-17.706	26.016	1620.677	1319.032
-16.692	26.091	1618.651	1317.880
-15.677	26.102	1617.140	1316.678
-14.663	26.163	1615.573	1315.790
-13.648	26.090	1614.369	1314.225
-12.633	26.106	1612.871	1313.073
-11.619	26.056	1611.535	1311.566
-10.604	26.112	1609.637	1310.381
-9.590	26.084	1608.452	1309.162
-8.575	26.124	1606.953	1308.177
-7.560	26.098	1605.816	1307.013
-6.546	26.097	1604.550	1305.924
-5.531	26.063	1603.956	1305.139
-4.517	26.038	1602.700	1303.886
-3.502	26.051	1601.923	1303.299
-2.487	26.094	1600.243	1302.188
-1.473	25.816	1587.910	1290.110
-0.458	23.198	1569.006	1256.148
0.556	22.001	1570.758	1226.370
1.571	19.779	1595.303	1229.645
2.586	19.472	1607.618	1236.825
3.600	17.620	1552.625	1181.580
4.615	10.936	1445.515	1056.683
5.629	5.115	1385.830	976.614
6.644	4.117	1378.532	965.170
7.659	4.093	1377.930	964.515
8.673	4.235	1376.613	964.390
9.688	4.245	1374.773	963.077
10.702	4.255	1371.447	960.726
11.717	6.880	1377.014	980.851
12.731	14.292	1390.558	1036.717
13.746	20.734	1401.063	1084.734
14.761	22.664	1402.964	1098.139
15.775	22.082	1401.047	1092.924
16.790	21.171	1398.697	1085.332
17.804	20.456	1396.489	1079.083
18.819	20.077	1395.033	1075.508
19.834	19.958	1394.797	1074.495
20.848	20.059	1393.216	1073.810
21.863	19.938	1391.893	1071.947
22.877	19.746	1390.779	1069.805
23.892	19.618	1390.458	1068.673
24.907	19.555	1388.965	1067.037
25.921	19.485	1388.589	1066.222
26.936	19.597	1387.288	1065.820
27.950	19.738	1386.142	1065.718
28.965	19.704	1385.506	1064.926
29.980	19.928	1384.441	1065.392
30.994	20.015	1383.638	1065.213
32.009	20.039	1382.665	1064.516
33.023	20.019	1381.459	1063.368
34.038	19.924	1379.532	1061.209
35.053	19.817	1378.526	1059.686
36.067	19.781	1377.540	1058.618
37.082	19.797	1376.569	1057.873
38.096	19.903	1375.848	1057.876
39.111	19.839	1375.436	1057.074
40.126	19.812	1374.171	1055.842
41.140	19.573	1372.607	1053.087
42.155	19.343	1372.304	1051.360
43.169	19.262	1372.040	1050.574
44.184	19.336	1371.342	1050.394
45.199	19.340	1371.129	1050.162
46.213	19.545	1370.603	1050.918
47.228	19.746	1370.458	1051.935
48.242	19.653	1370.079	1050.985
49.257	19.692	1368.137	1049.638
50.271	19.727	1366.499	1048.504
51.286	19.679	1365.414	1047.287
52.301	19.658	1364.249	1046.173
53.315	19.556	1363.025	1044.524
54.330	19.365	1361.831	1042.363
55.344	19.358	1360.404	1041.137
56.359	19.365	1359.477	1040.377
57.374	19.360	1358.735	1039.688
58.388	19.150	1357.733	1037.564
59.403	19.195	1357.252	1037.375
60.417	19.216	1356.619	1036.922
61.432	19.184	1355.761	1035.982
62.447	19.062	1354.497	1034.196
63.461	19.055	1353.392	1033.216
64.476	18.960	1352.407	1031.805
65.490	19.000	1351.109	1030.962
66.505	19.047	1349.269	1029.748
67.520	19.059	1348.294	1028.982
68.534	19.018	1347.877	1028.332
69.549	18.988	1346.387	1026.924
70.563	18.884	1345.910	1025.848
71.578	18.835	1344.422	1024.330
72.593	18.747	1343.708	1023.173
73.607	18.775	1342.293	1022.169
74.622	18.842	1342.133	1022.355
75.636	18.889	1341.439	1022.017
76.651	18.854	1340.734	1021.181
77.666	18.956	1340.269	1021.346
78.680	19.113	1339.716	1021.765
79.695	19.046	1339.337	1020.986
80.709	19.173	1338.488	1021.004
81.724	19.313	1337.602	1021.066
82.739	19.419	1336.823	1021.006
83.753	19.632	1336.790	1022.153
84.768	19.847	1335.434	1022.294
85.782	19.996	1334.280	1022.200
86.797	19.840	1333.462	1020.566
87.812	19.803	1332.032	1019.162
88.826	19.665	1330.865	1017.366
89.841	19.797	1329.562	1017.057
90.855	19.867	1328.916	1016.885
91.870	19.895	1328.327	1016.508
92.884	19.959	1327.449	1016.119
93.899	20.048	1326.357	1015.719
94.914	20.111	1325.461	1015.309
95.928	19.996	1325.551	1014.613
96.943	19.922	1324.461	1013.258
97.957	19.983	1322.956	1012.376
98.972	19.992	1321.737	1011.403
99.987	19.954	1320.857	1010.418
101.001	19.963	1320.215	1009.890
102.016	19.859	1319.353	1008.535
103.030	19.822	1318.692	1007.726
104.045	19.785	1317.702	1006.665
105.060	19.751	1316.239	1005.263
106.074	19.430	1314.194	1001.746
107.089	19.085	1312.767	998.570
108.103	19.006	1311.770	997.265
109.118	19.078	1310.456	996.593
110.133	19.120	1308.624	995.357
111.147	19.190	1307.148	994.547
112.162	19.177	1306.168	993.640
113.176	19.248	1305.169	993.200
114.191	19.346	1304.570	993.222
115.206	19.230	1303.486	991.643
116.220	19.201	1302.195	990.407
117.235	19.211	1300.946	989.425
118.249	19.151	1300.243	988.459
119.264	19.060	1299.033	986.928
120.279	18.997	1297.863	985.593
121.293	18.988	1296.689	984.559
122.308	18.893	1295.242	982.831
123.322	18.803	1294.317	981.532
124.337	18.714	1293.376	980.223
125.352	18.764	1292.148	979.486
126.366	18.803	1291.185	978.896
127.381	18.709	1290.340	977.633
128.395	18.711	1289.211	976.701
129.410	18.752	1288.771	976.516
130.424	18.925	1287.737	976.630
131.439	19.059	1286.884	976.655
132.454	19.230	1286.033	976.894
133.468	19.178	1285.452	976.069
134.483	19.174	1284.566	975.291
135.497	19.187	1284.153	974.964
136.512	19.252	1282.733	974.167
137.527	19.290	1281.084	973.044
138.541	19.255	1279.800	971.780
139.556	19.492	1278.513	972.056
140.570	19.464	1278.141	971.527
141.585	19.618	1277.071	971.495
142.600	19.777	1275.373	971.010
143.614	19.845	1275.167	971.148
144.629	19.920	1274.129	970.693
145.643	19.865	1273.144	969.547
146.658	19.613	1271.891	967.100
147.673	19.505	1270.111	965.054
148.687	19.384	1269.028	963.473
149.702	19.355	1267.298	961.908
150.716	19.291	1266.045	960.517
151.731	19.297	1264.785	959.510
152.746	19.356	1263.944	959.114
153.760	19.420	1262.575	958.349
154.775	19.573	1261.450	958.255
155.789	19.545	1260.929	957.625
156.804	19.503	1260.199	956.749
157.819	19.639	1259.365	956.785
158.833	19.908	1258.070	957.208
159.848	19.818	1257.746	956.374
160.862	19.854	1256.555	955.586
161.877	19.632	1254.427	952.656
162.892	19.282	1253.587	950.004
163.906	19.215	1252.847	948.995
164.921	19.237	1251.865	948.288
165.935	19.322	1251.297	948.238
166.950	19.411	1250.968	948.394
167.964	19.409	1250.009	947.573
168.979	19.247	1248.757	945.654
169.994	19.361	1248.311	945.853
171.008	19.470	1247.097	945.447
172.023	19.644	1246.388	945.783
173.037	19.771	1246.073	946.155
174.052	19.695	1245.062	944.883
175.067	19.453	1243.778	942.508
176.081	19.301	1242.539	940.652
177.096	19.372	1241.978	940.535
178.110	19.373	1240.721	939.504
179.125	19.407	1239.711	938.839
180.140	19.524	1238.623	938.569
181.154	19.566	1237.762	938.060
182.169	19.674	1236.870	937.892
183.183	19.754	1235.610	937.286
184.198	19.801	1234.596	936.690
185.213	19.844	1233.379	935.916
186.227	19.945	1232.516	935.721
187.242	19.850	1232.113	934.822
188.256	20.062	1230.557	934.703
189.271	20.078	1229.897	934.203
190.286	19.847	1228.314	931.677
191.300	19.407	1226.735	928.030
192.315	19.265	1226.223	926.795
193.329	19.355	1225.763	926.849
194.344	19.480	1225.156	926.979
195.359	19.521	1225.018	927.012
196.373	19.583	1224.106	926.572
197.388	19.683	1224.143	927.054
198.402	20.017	1223.660	928.401
199.417	20.167	1223.141	928.727
200.432	20.236	1222.671	928.659
201.446	20.344	1221.993	928.639
202.461	20.356	1221.606	928.326
203.475	20.356	1220.012	927.031
204.490	20.137	1218.610	924.717
205.504	19.944	1217.456	922.729
206.519	19.900	1216.032	921.336
207.534	19.807	1215.065	920.026
208.548	19.817	1214.142	919.298
209.563	19.993	1213.315	919.528
210.577	19.893	1212.305	918.148
211.592	19.958	1211.698	917.951
212.607	20.118	1211.053	918.233
213.621	20.146	1210.152	917.616
214.636	20.002	1209.532	916.304
215.650	20.162	1208.167	916.034
216.665	20.288	1207.426	916.056
217.680	20.427	1206.523	916.020
218.694	20.480	1205.822	915.685
219.709	20.296	1205.216	914.177
220.723	20.309	1204.591	913.691
221.738	20.274	1203.473	912.577
222.753	20.243	1202.837	911.850
223.767	20.293	1202.110	911.483
224.782	20.489	1201.374	911.872
225.796	20.493	1201.029	911.549
226.811	20.589	1199.954	911.158
227.826	20.313	1199.626	909.379
228.840	20.207	1198.373	907.798
229.855	20.136	1198.308	907.296
230.869	20.202	1197.163	906.694
231.884	20.100	1195.553	904.862
232.899	20.171	1194.830	904.604
233.913	20.004	1194.414	903.336
234.928	19.793	1193.548	901.502
235.942	19.757	1192.824	900.688
236.957	19.901	1192.081	900.798
237.972	19.879	1191.363	900.060
238.986	19.990	1190.479	899.891
240.001	20.054	1189.544	899.435
241.015	20.024	1188.865	898.688
242.030	20.061	1188.484	898.513
243.045	20.184	1187.569	898.377
244.059	20.219	1187.014	898.062
245.074	20.286	1186.230	897.736
246.088	20.294	1185.644	897.250
247.103	20.496	1184.826	897.600
248.117	20.680	1183.887	897.757
249.132	20.804	1183.782	898.239
250.147	20.943	1183.400	898.585
251.161	21.146	1182.756	899.062
252.176	21.229	1182.080	898.897
253.190	21.316	1181.418	898.761
254.205	21.451	1180.763	898.876
255.220	21.406	1179.990	897.977
256.234	21.272	1179.751	897.026
257.249	21.274	1179.050	896.423
258.263	21.205	1178.516	895.589
259.278	21.183	1177.871	894.903
260.293	21.162	1177.134	894.155
261.307	21.416	1176.415	894.830
262.322	21.374	1176.111	894.306
263.336	21.385	1175.019	893.454
264.351	21.400	1174.866	893.335
265.366	21.369	1174.213	892.603
266.380	21.324	1173.516	891.763
267.395	21.419	1171.816	890.878
268.409	21.172	1171.179	889.056
269.424	21.172	1170.914	888.775
270.439	21.037	1170.506	887.702
271.453	20.983	1169.448	886.542
272.468	20.873	1168.403	885.113
273.482	20.893	1167.488	884.446
274.497	20.928	1167.018	884.188
275.512	20.975	1165.809	883.432
276.526	20.859	1165.895	882.831
277.541	20.889	1165.042	882.259
278.555	21.159	1163.937	882.711
279.570	21.302	1163.582	883.087
280.585	21.368	1163.185	883.038
281.599	21.369	1161.853	881.955
282.614	21.185	1160.774	880.130
283.628	21.128	1159.126	878.518
284.643	21.106	1158.846	878.114
285.657	21.093	1157.672	877.085
286.672	21.060	1156.922	876.269
287.687	21.175	1155.986	876.062
288.701	21.259	1155.164	875.783
289.716	21.199	1154.313	874.761
290.730	21.162	1153.920	874.198
291.745	21.236	1153.139	873.902
292.760	21.292	1152.422	873.556
293.774	21.327	1152.304	873.569
294.789	21.546	1151.552	874.013
295.803	21.543	1150.610	873.205
296.818	21.208	1149.997	870.993
297.833	21.131	1149.129	869.876
298.847	21.188	1148.103	869.305
299.862	21.271	1147.399	869.106
300.876	21.297	1146.738	868.659
301.891	21.424	1146.211	868.817
302.906	21.534	1145.752	868.936
303.920	21.421	1146.022	868.501
304.935	21.749	1144.791	869.121
305.949	21.775	1144.095	868.642
306.964	21.675	1143.454	867.583
307.979	21.597	1142.627	866.496
308.993	21.717	1141.554	866.197
310.008	21.687	1140.959	865.522
311.022	21.845	1139.880	865.407
312.037	21.718	1139.546	864.448
313.052	21.543	1138.676	862.848
314.066	21.406	1137.023	860.845
315.081	21.300	1135.811	859.331
316.095	21.239	1135.062	858.388
317.110	21.158	1134.783	857.706
318.125	21.239	1133.938	857.387
319.139	21.154	1133.665	856.685
320.154	21.183	1133.197	856.399
321.168	21.217	1132.085	855.650
322.183	21.134	1131.985	855.091
323.197	21.237	1131.292	854.999
324.212	21.421	1130.348	855.111
325.227	21.346	1130.018	854.417
326.241	21.372	1129.229	853.874
327.256	21.393	1127.809	852.824
328.270	21.353	1127.221	852.109
329.285	21.281	1126.384	851.054
330.300	21.294	1125.418	850.308
331.314	21.311	1124.448	849.585
332.329	21.414	1123.303	849.145
333.343	21.491	1122.643	848.944
334.358	21.558	1122.245	848.892
335.373	21.590	1121.803	848.635
336.387	21.747	1120.730	848.511
337.402	21.796	1120.261	848.318
338.416	21.788	1119.526	847.649
339.431	21.972	1118.876	847.972
340.446	22.044	1118.309	847.814
341.460	22.204	1117.882	848.184
342.475	22.132	1117.112	847.177
343.489	22.160	1116.534	846.798
344.504	22.384	1115.174	846.770
345.519	22.423	1114.328	846.243
346.533	22.365	1114.016	845.654
347.548	22.458	1113.440	845.588
348.562	22.396	1112.037	844.151
349.577	22.271	1110.656	842.427
350.592	21.885	1110.122	840.100
351.606	21.739	1109.091	838.546
352.621	21.708	1108.661	837.998
353.635	21.577	1107.894	836.717
354.650	21.703	1106.993	836.568
355.665	21.804	1106.597	836.676
356.679	21.929	1106.095	836.816
357.694	21.944	1105.439	836.319
358.708	22.068	1104.952	836.466
359.723	22.134	1104.333	836.238
360.738	22.027	1103.568	835.077
361.752	22.003	1103.095	834.530
362.767	21.964	1102.465	833.796
363.781	22.159	1101.880	834.206
364.796	22.281	1101.743	834.603
365.810	22.364	1101.499	834.739
366.825	22.600	1100.696	835.174
367.840	22.827	1100.163	835.772
368.854	22.835	1099.324	835.101
369.869	22.725	1098.482	833.864
370.883	22.522	1097.952	832.429
371.898	22.522	1096.636	831.359
372.913	22.438	1096.151	830.523
373.927	22.417	1096.142	830.342
374.942	22.593	1095.574	830.667
375.956	22.583	1094.926	830.054
376.971	22.568	1094.251	829.399
377.986	22.631	1093.965	829.406
379.000	22.760	1093.233	829.387
380.015	22.750	1092.770	828.911
381.029	22.965	1092.323	829.512
382.044	22.825	1091.263	827.976
383.059	22.841	1090.359	827.290
384.073	22.772	1089.674	826.376
385.088	22.816	1088.958	825.966
386.102	22.828	1087.928	825.165
387.117	22.543	1086.616	822.766
388.132	22.452	1085.323	821.293
389.146	22.326	1084.732	820.186
390.161	22.457	1083.873	820.071
391.175	22.364	1083.406	819.214
392.190	22.529	1082.852	819.487
393.205	22.726	1082.183	819.826
394.219	22.696	1081.397	819.021
395.234	22.496	1080.670	817.467
396.248	22.460	1079.163	816.090
397.263	22.457	1078.140	815.229
398.278	22.341	1077.590	814.205
399.292	22.194	1076.633	812.730
400.307	22.173	1075.776	811.915
401.321	22.265	1075.308	811.916
402.336	22.193	1074.414	810.832
403.350	22.294	1074.165	811.043
404.365	22.320	1073.289	810.427
405.380	22.556	1072.429	810.791
406.394	22.565	1071.929	810.386
407.409	22.706	1072.003	811.014
408.423	22.866	1070.895	810.843
409.438	23.089	1070.171	811.245
410.453	22.976	1069.735	810.325
411.467	23.011	1069.038	809.885
412.482	23.101	1068.499	809.817
413.496	23.199	1067.673	809.566
414.511	23.127	1067.521	809.051
415.526	23.269	1066.900	809.157
416.540	23.434	1066.581	809.600
417.555	23.334	1066.357	808.900
418.569	23.149	1065.349	807.220
419.584	23.100	1064.907	806.589
420.599	23.217	1064.203	806.518
421.613	157.949	1404.871	1796.581
422.628	145.381	1454.475	1796.664
