DTS Sentinel unit serial number:	SN413079Multiplexer serial number:	ORYXHardware model number:	OX4-SRSoftware version number:	ORYX F/W v4.00 Oryx Data Collector v3.7.2.0data status	okinstallation	princeton_trtdifferential loss correction	single-endedforward channel	channel 2reverse channel	N/Adate	2019/09/11time	18:41:11forward acquisition time	60.00reverse acquisition time	0.00gamma	496.2192k internal	0.2288k external	0.2288temperature offset calibration	1.0029default loss term (dB/km)	0.3790temperature slope calibration	1.0000multiplexer offset coefficient	1.0000multiplexer slope coefficient	1.0000fibre end	0.00T internal ref (°C)	43.44T ext. ref 1 (°C)	1.21T ext. ref 2 (°C)	35.74length (m)	temperature (°C)	Stokes	anti-Stokes-747.200	800.000	-0.052	-0.161
-746.185	-200.000	-0.054	0.461
-745.171	-45.581	0.192	0.097
-744.156	366.735	-0.144	0.298
-743.142	-93.365	0.169	-0.048
-742.127	800.000	-0.077	0.221
-741.112	99.925	0.226	-0.269
-740.098	-200.000	0.095	-0.000
-739.083	800.000	-0.030	0.096
-738.069	384.901	-0.180	0.379
-737.054	306.728	0.056	0.108
-736.039	398.954	0.069	0.149
-735.025	75.790	0.099	0.107
-734.010	-133.892	0.125	-0.016
-732.996	-23.475	0.133	-0.082
-731.981	29.092	0.358	-0.311
-730.966	800.000	0.028	0.113
-729.952	54.088	-0.075	0.074
-728.937	-39.380	-0.237	-0.127
-727.923	401.020	-0.154	-0.332
-726.908	60.404	0.186	-0.189
-725.894	163.994	-0.026	-0.037
-724.879	147.129	-0.231	0.319
-723.864	17.500	0.144	-0.117
-722.850	-65.461	-0.430	0.177
-721.835	410.848	0.075	0.163
-720.821	800.000	0.051	-0.156
-719.806	-153.020	0.241	-0.017
-718.791	-20.948	0.077	0.048
-717.777	-26.142	0.250	-0.150
-716.762	394.009	-0.088	-0.188
-715.748	-53.042	-0.084	-0.040
-714.733	254.688	0.094	-0.166
-713.718	56.832	0.088	-0.088
-712.704	-14.698	0.072	0.047
-711.689	-200.000	-0.023	0.164
-710.675	-108.946	-0.525	-0.115
-709.660	-200.000	-0.038	0.209
-708.645	-20.363	0.118	0.075
-707.631	-200.000	0.001	-0.102
-706.616	-55.480	0.196	0.090
-705.602	800.000	0.034	0.137
-704.587	-160.608	-0.035	0.002
-703.572	800.000	0.016	-0.054
-702.558	-3.729	0.266	-0.189
-701.543	-200.000	-0.015	-0.090
-700.529	-108.412	-0.038	-0.008
-699.514	377.433	0.096	-0.201
-698.499	800.000	-0.050	0.206
-697.485	-49.473	-0.089	0.044
-696.470	315.419	-0.122	-0.236
-695.456	14.242	0.071	-0.057
-694.441	519.296	-0.038	-0.091
-693.426	-200.000	0.043	0.315
-692.412	-47.954	-0.185	-0.092
-691.397	342.721	-0.143	0.286
-690.383	183.959	0.042	-0.064
-689.368	48.868	-0.210	-0.201
-688.354	-167.853	-0.376	-0.015
-687.339	-79.904	-0.226	0.078
-686.324	-79.953	0.080	0.027
-685.310	-60.617	-0.102	-0.044
-684.295	-52.539	-0.229	-0.108
-683.281	398.780	-0.118	-0.253
-682.266	800.000	0.058	-0.198
-681.251	-70.246	-0.102	-0.039
-680.237	554.752	0.079	-0.194
-679.222	339.599	-0.058	-0.116
-678.208	150.915	-0.071	-0.098
-677.193	96.749	0.070	-0.082
-676.178	800.000	-0.048	-0.186
-675.164	-15.667	0.126	0.082
-674.149	36.187	-0.149	-0.134
-673.135	79.311	-0.121	0.133
-672.120	38.011	0.131	-0.119
-671.105	-76.706	-0.323	0.116
-670.091	-56.971	-0.286	-0.129
-669.076	170.213	-0.168	-0.246
-668.062	425.921	0.155	-0.341
-667.047	-32.490	0.100	-0.057
-666.032	-148.685	-0.278	0.023
-665.018	-200.000	0.008	0.110
-664.003	-200.000	0.072	0.372
-662.989	21.238	-0.317	-0.263
-661.974	420.425	0.042	-0.093
-660.959	-200.000	0.025	0.331
-659.945	39.149	0.166	-0.152
-658.930	159.521	-0.061	0.086
-657.916	-200.000	0.013	-0.331
-656.901	-48.885	-0.187	0.092
-655.886	-44.622	-0.231	-0.118
-654.872	-200.000	-0.048	-0.252
-653.857	-200.000	-0.039	0.211
-652.843	-56.590	0.161	0.073
-651.828	-140.319	-0.357	0.038
-650.814	169.467	-0.068	-0.100
-649.799	-115.649	-0.439	-0.084
-648.784	472.994	-0.168	-0.386
-647.770	-24.772	-0.215	-0.131
-646.755	-159.595	-0.391	-0.022
-645.741	-44.303	-0.141	0.072
-644.726	-200.000	0.012	-0.131
-643.711	800.000	-0.086	-0.307
-642.697	-200.000	-0.065	-0.370
-641.682	-200.000	0.052	0.285
-640.668	186.709	-0.028	-0.043
-639.653	-31.040	-0.225	0.130
-638.638	-200.000	0.025	0.363
-637.624	800.000	-0.054	-0.225
-636.609	310.349	-0.019	0.036
-635.595	-154.095	-0.103	-0.007
-634.580	69.098	-0.032	0.033
-633.565	-150.685	-0.147	0.011
-632.551	156.862	0.211	-0.298
-631.536	800.000	0.050	-0.152
-630.522	-8.905	-0.393	0.269
-629.507	-132.687	0.151	0.020
-628.492	208.393	-0.047	0.076
-627.478	-200.000	-0.034	0.452
-626.463	1.320	-0.076	-0.056
-625.449	180.723	-0.164	-0.246
-624.434	-61.564	-0.145	-0.062
-623.419	-95.314	0.440	0.121
-622.405	116.974	-0.200	0.251
-621.390	199.392	0.041	-0.065
-620.376	800.000	-0.080	0.243
-619.361	-96.348	-0.056	0.015
-618.346	-200.000	-0.012	0.227
-617.332	-108.772	-0.352	-0.077
-616.317	115.493	-0.013	-0.017
-615.303	800.000	0.090	-0.319
-614.288	-172.326	-0.234	-0.008
-613.273	-130.138	-0.500	0.069
-612.259	-37.351	0.337	0.184
-611.244	-200.000	0.008	0.047
-610.230	-149.451	0.193	-0.016
-609.215	47.959	0.083	0.079
-608.201	-177.179	-0.231	0.006
-607.186	-40.173	0.343	0.182
-606.171	-30.074	-0.215	0.125
-605.157	8.280	-0.266	0.204
-604.142	-57.964	-0.296	-0.132
-603.128	-115.381	0.295	-0.057
-602.113	-38.368	0.278	-0.150
-601.098	113.283	-0.127	-0.157
-600.084	-200.000	0.076	-0.000
-599.069	185.238	0.050	0.075
-598.055	177.389	0.184	-0.274
-597.040	278.812	-0.015	-0.027
-596.025	330.293	-0.045	-0.089
-595.011	13.977	-0.210	0.166
-593.996	352.910	0.128	0.259
-592.982	-98.958	0.281	0.073
-591.967	124.281	0.070	0.090
-590.952	-200.000	-0.043	0.268
-589.938	800.000	-0.026	0.100
-588.923	-27.361	0.442	0.262
-587.909	-200.000	-0.031	-0.185
-586.894	-68.840	0.053	-0.021
-585.879	-43.439	-0.418	0.215
-584.865	-64.688	-0.136	0.056
-583.850	263.032	0.082	-0.145
-582.836	800.000	-0.097	-0.323
-581.821	-44.709	-0.277	-0.141
-580.806	207.298	0.134	-0.213
-579.792	24.972	-0.285	-0.241
-578.777	178.320	0.023	-0.035
-577.763	-120.436	-0.546	-0.095
-576.748	89.568	-0.184	0.209
-575.733	165.037	-0.059	-0.084
-574.719	-200.000	0.022	-0.156
-573.704	478.755	-0.144	-0.332
-572.690	681.392	-0.141	-0.374
-571.675	-157.581	0.213	-0.013
-570.661	-51.436	0.093	-0.044
-569.646	800.000	0.106	0.431
-568.631	84.167	0.131	0.146
-567.617	96.876	0.156	-0.182
-566.602	146.537	-0.138	0.189
-565.588	-24.650	0.080	-0.048
-564.573	-22.791	0.318	-0.196
-563.558	-133.665	-0.220	0.028
-562.544	-56.381	-0.299	-0.135
-561.529	-69.452	-0.594	-0.232
-560.515	171.061	-0.127	-0.186
-559.500	800.000	0.108	-0.406
-558.485	-200.000	0.011	0.156
-557.471	347.007	0.105	-0.210
-556.456	93.287	0.180	0.207
-555.442	-200.000	-0.017	-0.176
-554.427	-105.808	0.238	0.055
-553.412	-140.816	-0.163	0.017
-552.398	73.048	0.156	0.166
-551.383	-58.854	0.210	0.092
-550.369	14.558	0.177	0.141
-549.354	-41.978	0.063	-0.033
-548.339	-200.000	0.035	-0.229
-547.325	-200.000	-0.016	-0.121
-546.310	207.352	-0.048	0.076
-545.296	324.971	-0.071	-0.137
-544.281	-16.509	0.177	-0.114
-543.266	-123.761	-0.219	-0.035
-542.252	-200.000	-0.032	-0.148
-541.237	800.000	0.111	0.374
-540.223	-200.000	0.059	0.297
-539.208	712.551	0.054	0.146
-538.193	99.123	0.170	-0.200
-537.179	-20.645	-0.105	-0.065
-536.164	-111.810	-0.165	-0.034
-535.150	95.322	0.188	-0.218
-534.135	-128.884	0.349	-0.050
-533.121	148.777	0.183	-0.252
-532.106	-120.499	0.280	0.048
-531.091	-200.000	0.001	-0.320
-530.077	-200.000	-0.059	-0.286
-529.062	181.278	0.086	-0.129
-528.048	-25.506	-0.166	0.100
-527.033	-71.884	-0.235	0.089
-526.018	-200.000	0.005	-0.183
-525.004	-200.000	0.007	-0.427
-523.989	16.367	-0.178	-0.143
-522.975	-112.376	-0.114	0.023
-521.960	800.000	-0.079	-0.296
-520.945	513.476	0.169	-0.400
-519.931	85.990	0.127	0.142
-518.916	263.760	-0.211	0.372
-517.902	180.500	-0.083	0.124
-516.887	-20.450	0.187	-0.117
-515.872	36.937	-0.460	-0.413
-514.858	730.709	-0.104	-0.284
-513.843	800.000	0.063	0.266
-512.829	-67.198	0.041	-0.016
-511.814	-123.077	-0.110	0.018
-510.799	138.992	-0.109	-0.146
-509.785	-200.000	0.026	-0.130
-508.770	-77.318	-0.194	0.068
-507.756	-200.000	-0.020	-0.244
-506.741	-46.945	-0.016	0.008
-505.726	-200.000	-0.018	0.167
-504.712	-147.526	-0.094	0.008
-503.697	274.369	0.133	0.238
-502.683	504.919	0.149	-0.351
-501.668	-116.170	0.390	-0.074
-500.653	-147.703	-0.147	-0.013
-499.639	-126.858	0.439	0.066
-498.624	-74.700	0.129	0.047
-497.610	800.000	-0.021	-0.084
-496.595	30.059	0.101	0.088
-495.581	-200.000	0.007	-0.113
-494.566	-39.326	0.269	0.144
-493.551	-121.019	-0.073	0.012
-492.537	-200.000	-0.011	-0.271
-491.522	353.457	-0.008	0.015
-490.508	-200.000	0.003	-0.057
-489.493	76.591	0.194	-0.208
-488.478	-91.241	-0.376	-0.109
-487.464	-8.485	-0.199	-0.136
-486.449	-200.000	0.013	-0.092
-485.435	578.355	0.021	-0.053
-484.420	-141.987	0.279	0.028
-483.405	800.000	-0.058	-0.193
-482.391	114.674	-0.024	0.030
-481.376	-200.000	0.104	0.000
-480.362	75.181	0.163	0.174
-479.347	-109.798	-0.335	-0.071
-478.332	120.109	-0.074	0.093
-477.318	-200.000	-0.052	0.278
-476.303	-4.328	-0.139	0.097
-475.289	-101.857	0.042	-0.010
-474.274	-42.664	0.211	0.109
-473.259	-97.344	-0.183	-0.048
-472.245	1.962	-0.060	-0.044
-471.230	-200.000	0.014	-0.262
-470.216	-200.000	0.037	-0.192
-469.201	800.000	0.046	0.167
-468.186	-200.000	-0.004	-0.327
-467.172	-94.905	0.045	-0.012
-466.157	69.369	-0.175	-0.182
-465.143	221.894	-0.124	0.202
-464.128	800.000	-0.084	-0.341
-463.113	800.000	0.036	-0.135
-462.099	-99.242	0.143	-0.037
-461.084	-55.566	-0.180	-0.082
-460.070	-112.687	-0.237	-0.048
-459.055	199.463	0.069	-0.107
-458.040	-9.811	-0.222	0.150
-457.026	156.125	0.263	0.367
-456.011	-69.675	-0.165	-0.064
-454.997	195.651	0.168	-0.258
-453.982	-200.000	-0.008	-0.225
-452.968	-200.000	-0.005	-0.081
-451.953	-200.000	0.016	0.119
-450.938	800.000	-0.203	-0.569
-449.924	-182.104	-0.199	0.004
-448.909	-200.000	0.030	0.271
-447.895	-111.760	0.276	-0.057
-446.880	331.049	-0.035	-0.069
-445.865	-101.688	-0.494	0.121
-444.851	219.092	0.051	0.083
-443.836	-73.401	-0.144	0.053
-442.822	-200.000	0.006	-0.042
-441.807	-158.270	-0.134	0.008
-440.792	-128.622	-0.183	-0.026
-439.778	-94.869	0.036	-0.010
-438.763	21.481	0.185	-0.153
-437.749	-104.829	0.226	-0.053
-436.734	24.515	-0.022	-0.019
-435.719	-14.145	-0.201	0.131
-434.705	-200.000	-0.025	-0.239
-433.690	406.717	0.128	0.273
-432.676	-89.848	-0.025	-0.007
-431.661	-200.000	0.015	-0.217
-430.646	192.691	-0.167	0.256
-429.632	-200.000	-0.022	-0.166
-428.617	800.000	-0.110	-0.417
-427.603	193.605	0.068	-0.105
-426.588	-21.213	-0.192	-0.119
-425.573	472.101	0.114	0.260
-424.559	-200.000	0.017	0.372
-423.544	800.000	-0.053	-0.156
-422.530	800.000	-0.036	0.125
-421.515	535.750	0.031	-0.075
-420.500	363.703	-0.093	-0.189
-419.486	98.908	0.029	0.033
-418.471	-200.000	-0.006	-0.401
-417.457	143.122	0.093	0.125
-416.442	147.765	-0.059	-0.080
-415.428	57.119	0.074	0.073
-414.413	-104.855	0.336	-0.078
-413.398	-125.317	-0.091	0.014
-412.384	10.432	0.261	0.201
-411.369	-200.000	0.011	0.144
-410.355	-105.896	-0.230	-0.052
-409.340	-200.000	0.069	-0.372
-408.325	-125.514	0.597	0.092
-407.311	-112.646	0.126	0.025
-406.296	0.230	0.175	0.126
-405.282	-200.000	-0.012	0.103
-404.267	-200.000	-0.012	-0.341
-403.252	800.000	0.019	-0.064
-402.238	29.119	0.103	-0.088
-401.223	-200.000	-0.025	0.174
-400.209	538.038	-0.022	-0.054
-399.194	-102.900	0.026	0.006
-398.179	165.510	0.048	0.068
-397.165	-45.604	0.243	-0.121
-396.150	54.322	0.234	0.227
-395.136	100.877	0.104	-0.122
-394.121	-66.349	-0.063	0.025
-393.106	800.000	0.042	0.144
-392.092	213.211	0.242	-0.386
-391.077	800.000	-0.109	-0.429
-390.063	-0.001	-0.212	-0.153
-389.048	-200.000	0.002	0.059
-388.033	-200.000	-0.011	0.266
-387.019	439.611	0.028	0.062
-386.004	-200.000	0.003	-0.337
-384.990	305.272	-0.118	-0.221
-383.975	375.171	-0.034	0.070
-382.960	297.243	0.098	-0.182
-381.946	-13.056	-0.101	0.066
-380.931	-200.000	-0.063	0.290
-379.917	-200.000	0.004	0.246
-378.902	-110.512	-0.263	-0.055
-377.888	427.139	0.255	0.556
-376.873	-12.880	-0.140	-0.092
-375.858	-21.367	0.169	0.104
-374.844	317.640	-0.083	-0.159
-373.829	-78.545	0.253	0.087
-372.815	22.580	-0.213	0.176
-371.800	-200.000	-0.042	0.204
-370.785	800.000	0.037	0.147
-369.771	-200.000	0.016	-0.090
-368.756	-47.002	-0.131	0.065
-367.742	-75.340	-0.399	-0.144
-366.727	-200.000	0.022	0.366
-365.712	-200.000	0.002	-0.034
-364.698	-99.594	-0.124	0.031
-363.683	729.310	0.092	-0.249
-362.669	-9.676	0.134	-0.090
-361.654	-200.000	0.048	0.230
-360.639	800.000	0.081	-0.282
-359.625	479.231	-0.082	0.188
-358.610	67.255	-0.216	0.223
-357.596	-200.000	0.008	0.315
-356.581	192.629	0.120	-0.182
-355.566	389.024	0.091	0.191
-354.552	-163.695	-0.064	0.003
-353.537	5.081	-0.214	0.159
-352.523	-200.000	-0.030	-0.182
-351.508	-136.782	-0.092	-0.011
-350.493	27.493	0.115	-0.098
-349.479	-54.718	0.055	0.025
-348.464	-200.000	0.017	0.104
-347.450	-200.000	0.014	-0.208
-346.435	563.307	0.166	0.404
-345.420	-56.571	0.107	-0.048
-344.406	-84.479	0.114	-0.036
-343.391	-90.785	-0.348	-0.101
-342.377	596.855	-0.017	-0.043
-341.362	118.516	0.226	0.282
-340.348	-124.863	-0.411	-0.064
-339.333	321.544	-0.061	0.117
-338.318	800.000	-0.047	0.161
-337.304	326.518	0.070	0.135
-336.289	-200.000	0.001	0.373
-335.275	274.901	-0.048	-0.086
-334.260	118.181	-0.172	0.214
-333.245	91.396	-0.044	0.050
-332.231	254.870	0.089	-0.154
-331.216	-189.235	-0.136	0.002
-330.202	-75.075	-0.174	-0.063
-329.187	800.000	-0.069	-0.304
-328.172	204.068	-0.076	0.119
-327.158	-38.749	-0.080	-0.042
-326.143	-200.000	-0.011	0.159
-325.129	-117.020	0.225	0.041
-324.114	244.543	0.126	0.213
-323.099	-30.416	0.169	0.097
-322.085	-44.538	-0.316	-0.159
-321.070	-200.000	-0.038	-0.333
-320.056	189.290	0.252	-0.381
-319.041	-200.000	0.019	0.354
-318.026	-2.516	0.052	0.037
-317.012	-15.711	0.155	0.100
-315.997	-37.196	0.170	0.092
-314.983	414.764	0.046	-0.098
-313.968	-153.479	0.122	0.009
-312.953	45.409	0.196	-0.183
-311.939	-125.807	0.278	-0.042
-310.924	-179.584	-0.169	-0.004
-309.910	452.609	0.079	0.177
-308.895	439.705	0.113	-0.248
-307.880	-35.433	-0.154	0.085
-306.866	-25.021	-0.232	0.138
-305.851	205.000	-0.139	0.217
-304.837	-78.529	0.105	0.036
-303.822	-48.048	0.257	0.125
-302.807	-105.599	-0.258	-0.059
-301.793	-86.284	-0.170	-0.053
-300.778	132.944	0.186	0.243
-299.764	11.873	-0.138	-0.107
-298.749	-113.791	0.188	0.037
-297.735	-111.851	0.139	0.028
-296.720	-108.736	0.286	0.062
-295.705	-35.128	0.053	0.029
-294.691	-116.355	0.112	0.021
-293.676	2.230	-0.199	0.145
-292.662	86.872	-0.244	0.271
-291.647	-103.892	0.200	0.047
-290.632	800.000	0.029	-0.122
-289.618	-5.565	-0.122	-0.084
-288.603	-66.991	0.222	-0.088
-287.589	-200.000	-0.047	0.257
-286.574	437.797	0.102	0.225
-285.559	-33.423	-0.085	0.047
-284.545	-56.642	-0.234	-0.104
-283.530	-22.260	0.096	0.059
-282.516	-41.931	0.274	-0.141
-281.501	-162.746	-0.260	-0.013
-280.486	-200.000	-0.038	-0.180
-279.472	-59.210	0.328	-0.142
-278.457	-166.139	0.326	0.014
-277.443	-111.633	0.220	0.045
-276.428	-200.000	0.026	-0.228
-275.413	-81.696	-0.236	-0.078
-274.399	347.493	-0.035	-0.070
-273.384	61.518	-0.078	0.078
-272.370	800.000	0.051	-0.150
-271.355	800.000	0.028	0.094
-270.340	258.958	-0.164	-0.285
-269.326	-156.060	0.206	-0.013
-268.311	191.220	0.055	0.083
-267.297	-98.950	0.242	0.062
-266.282	296.063	0.092	-0.169
-265.267	-128.984	0.215	-0.030
-264.253	-200.000	0.019	0.149
-263.238	-200.000	0.020	0.176
-262.224	-200.000	-0.066	0.317
-261.209	-47.801	0.111	0.054
-260.195	800.000	0.069	0.301
-259.180	49.225	0.224	0.212
-258.165	145.190	-0.089	-0.120
-257.151	147.588	-0.143	0.194
-256.136	-47.929	-0.165	-0.080
-255.122	768.489	0.145	0.397
-254.107	5.151	-0.080	-0.059
-253.092	-87.518	0.214	0.065
-252.078	-67.898	0.560	0.220
-251.063	299.384	0.175	0.324
-250.049	-200.000	0.021	0.413
-249.034	62.661	-0.041	-0.041
-248.019	12.848	-0.161	0.125
-247.005	54.293	0.118	0.114
-245.990	-163.082	-0.098	0.005
-244.976	204.699	0.064	0.099
-243.961	800.000	0.146	0.421
-242.946	-105.400	-0.128	0.029
-241.932	800.000	-0.018	-0.062
-240.917	-78.946	0.231	-0.079
-239.903	-200.000	0.015	0.127
-238.888	-200.000	0.053	0.274
-237.873	-74.091	-0.184	0.067
-236.859	-71.449	-0.187	0.070
-235.844	-103.956	0.223	0.052
-234.830	-179.503	-0.090	-0.002
-233.815	84.834	-0.253	0.279
-232.800	694.675	0.090	0.237
-231.786	348.950	0.181	0.359
-230.771	-76.061	0.416	0.148
-229.757	-68.870	-0.254	0.098
-228.742	-200.000	-0.006	0.391
-227.727	59.875	-0.442	0.438
-226.713	-31.870	-0.020	-0.011
-225.698	-200.000	0.385	-0.002
-224.684	-200.000	-0.079	0.398
-223.669	451.081	-0.052	0.116
-222.655	-49.144	-0.226	-0.109
-221.640	-200.000	-0.031	-0.160
-220.625	550.165	-0.063	-0.151
-219.611	-112.827	0.348	-0.069
-218.596	-64.204	0.509	0.208
-217.582	-79.169	-0.134	0.046
-216.567	-200.000	0.037	0.382
-215.552	440.696	0.143	-0.315
-214.538	-185.822	0.134	0.002
-213.523	-64.952	0.084	-0.034
-212.509	-200.000	0.038	-0.185
-211.494	-76.113	-0.103	0.037
-210.479	263.965	0.219	-0.382
-209.465	800.000	-0.020	0.063
-208.450	-200.000	0.023	0.116
-207.436	293.474	-0.153	0.280
-206.421	148.903	-0.146	0.198
-205.406	-105.845	-0.271	0.061
-204.392	-165.841	0.290	0.013
-203.377	-83.979	-0.229	0.073
-202.363	-74.341	0.223	0.081
-201.348	800.000	-0.028	-0.090
-200.333	-23.035	0.107	-0.065
-199.319	-200.000	0.005	-0.079
-198.304	-28.271	0.171	0.099
-197.290	72.999	0.176	0.184
-196.275	-32.354	0.089	-0.050
-195.260	105.792	0.131	-0.156
-194.246	63.589	0.094	0.095
-193.231	25.517	-0.152	-0.127
-192.217	-51.646	0.249	0.116
-191.202	-113.070	-0.180	0.036
-190.187	561.425	-0.032	0.077
-189.173	-117.953	-0.202	0.036
-188.158	52.666	0.287	-0.275
-187.144	205.013	0.104	-0.162
-186.129	34.098	0.055	-0.048
-185.114	-98.663	-0.252	0.064
-184.100	-61.065	0.219	-0.093
-183.085	78.018	-0.250	-0.267
-182.071	-187.964	0.210	-0.003
-181.056	168.124	0.043	-0.061
-180.042	800.000	-0.033	0.118
-179.027	-200.000	-0.013	0.273
-178.012	-106.267	-0.157	-0.035
-176.998	800.000	-0.057	-0.210
-175.983	-12.423	-0.235	-0.154
-174.969	-200.000	0.026	-0.266
-173.954	19.301	0.115	0.093
-172.939	575.708	-0.127	-0.311
-171.925	355.214	-0.035	0.069
-170.910	-83.118	0.346	-0.112
-169.896	216.617	-0.269	-0.428
-168.881	19.719	-0.154	-0.124
-167.866	114.534	-0.120	-0.146
-166.852	-141.604	-0.318	-0.032
-165.837	800.000	0.025	0.105
-164.823	-3.677	-0.323	0.225
-163.808	-74.751	-0.099	0.036
-162.793	194.312	0.164	-0.249
-161.779	-61.175	0.285	-0.121
-160.764	-11.276	-0.114	0.076
-159.750	82.817	-0.119	0.130
-158.735	489.866	-0.099	0.226
-157.720	9.645	0.176	0.134
-156.706	-94.767	0.180	0.049
-155.691	-105.804	0.352	-0.080
-154.677	-132.206	-0.194	-0.025
-153.662	362.869	0.094	-0.188
-152.647	516.875	-0.077	0.181
-151.633	156.603	-0.168	0.232
-150.618	-13.671	0.369	0.239
-149.604	121.513	-0.216	0.270
-148.589	396.370	0.036	-0.075
-147.574	161.091	0.181	0.253
-146.560	-30.327	0.146	0.083
-145.545	800.000	-0.032	0.107
-144.531	-200.000	0.013	0.081
-143.516	-200.000	0.022	0.116
-142.502	-200.000	0.022	-0.233
-141.487	-3.366	0.222	0.155
-140.472	-200.000	-0.001	0.117
-139.458	-200.000	-0.039	-0.244
-138.443	92.640	0.034	-0.038
-137.429	-200.000	0.026	0.135
-136.414	304.571	-0.137	-0.255
-135.399	-84.432	-0.017	-0.005
-134.385	-12.070	0.128	-0.084
-133.370	72.066	0.179	0.187
-132.356	286.703	0.044	0.079
-131.341	375.584	-0.133	0.271
-130.326	58.643	0.072	-0.071
-129.312	-127.360	-0.243	-0.035
-128.297	399.881	-0.115	0.241
-127.283	-138.000	0.189	-0.021
-126.268	-39.004	0.179	0.094
-125.253	-40.242	0.033	0.017
-124.239	-71.432	0.199	0.075
-123.224	-158.829	-0.219	-0.013
-122.210	239.741	0.070	-0.116
-121.195	-4.884	-0.263	-0.181
-120.180	-81.700	-0.172	0.056
-119.166	-26.123	-0.142	0.083
-118.151	92.030	0.100	0.113
-117.137	-130.836	-0.521	-0.070
-116.122	800.000	-0.078	-0.319
-115.107	-200.000	-0.015	0.218
-114.093	-46.402	-0.302	0.148
-113.078	176.231	0.164	-0.239
-112.064	-200.000	-0.001	0.031
-111.049	800.000	-0.030	-0.111
-110.034	149.514	-0.181	0.245
-109.020	4.969	0.490	0.361
-108.005	-4.961	0.295	0.203
-106.991	-104.678	0.187	-0.043
-105.976	66.283	0.005	0.005
-104.962	-119.692	0.080	-0.014
-103.947	341.148	-0.010	-0.020
-102.932	177.939	-0.040	0.059
-101.918	800.000	0.052	0.166
-100.903	51.549	-0.194	0.185
-99.889	-200.000	-0.004	0.048
-98.874	25.414	0.386	0.320
-97.859	-43.180	0.208	0.105
-96.845	-122.593	0.395	-0.064
-95.830	390.669	-0.036	0.074
-94.816	-2.414	0.295	0.206
-93.801	157.604	0.154	0.213
-92.786	-200.000	-0.024	-0.191
-91.772	677.895	0.175	-0.455
-90.757	-67.047	0.225	0.089
-89.743	800.000	0.022	-0.076
-88.728	2.385	-0.240	0.173
-87.713	229.527	-0.132	-0.215
-86.699	-43.504	-0.246	-0.124
-85.684	-200.000	0.030	0.369
-84.670	-102.520	-0.359	0.086
-83.655	-79.867	0.105	0.035
-82.640	-127.072	-0.127	-0.019
-81.626	-200.000	-0.029	0.164
-80.611	-160.405	-0.294	-0.016
-79.597	800.000	-0.025	-0.099
-78.582	-165.890	0.386	0.017
-77.567	775.646	-0.013	-0.037
-76.553	-152.431	-0.129	0.009
-75.538	19.833	0.097	-0.078
-74.524	215.741	0.059	-0.093
-73.509	-94.225	0.308	0.084
-72.494	-156.006	-0.371	-0.023
-71.480	83.306	0.075	0.082
-70.465	-78.664	-0.201	0.069
-69.451	37.381	0.213	0.189
-68.436	-94.109	0.049	-0.014
-67.422	51.345	-0.093	0.088
-66.407	-86.863	-0.182	-0.055
-65.392	414.286	-0.086	-0.183
-64.378	89.799	-0.068	0.076
-63.363	-97.344	-0.201	-0.052
-62.349	-153.112	0.452	0.032
-61.334	148.153	-0.596	-0.803
-60.319	481.887	0.160	0.363
-59.305	800.000	-0.167	-0.673
-58.290	248.871	0.270	0.456
-57.276	800.000	0.445	1.534
-56.261	-200.000	74.952	569.114
-55.246	597.632	1297.352	3208.469
-54.232	144.904	2527.472	3372.080
-53.217	116.774	2340.655	2866.434
-52.203	53.596	1956.796	1873.562
-51.188	47.045	1745.923	1620.453
-50.173	43.967	1699.169	1553.452
-49.159	58.891	1732.541	1699.311
-48.144	65.411	1750.687	1767.171
-47.130	46.897	1714.571	1589.967
-46.115	43.407	1701.485	1551.021
-45.100	43.283	1696.908	1545.844
-44.086	43.253	1694.193	1543.079
-43.071	43.204	1691.739	1540.405
-42.057	43.244	1689.103	1538.248
-41.042	43.217	1687.163	1536.215
-40.027	43.256	1685.411	1534.861
-39.013	43.334	1682.397	1532.645
-37.998	43.317	1680.774	1530.980
-36.984	43.335	1679.869	1530.227
-35.969	43.461	1678.281	1529.677
-34.954	43.554	1676.742	1528.918
-33.940	43.501	1674.628	1526.528
-32.925	43.405	1673.158	1524.401
-31.911	43.423	1671.174	1522.669
-30.896	43.401	1669.920	1521.303
-29.881	43.392	1667.903	1519.336
-28.867	43.441	1666.030	1517.935
-27.852	43.398	1664.459	1516.118
-26.838	43.392	1663.066	1514.744
-25.823	43.469	1661.779	1514.093
-24.809	43.488	1660.574	1513.074
-23.794	43.442	1659.165	1511.390
-22.779	43.477	1657.267	1509.862
-21.765	43.444	1655.671	1508.098
-20.750	43.430	1654.046	1506.458
-19.736	43.409	1652.592	1504.916
-18.721	43.446	1651.009	1503.691
-17.706	43.549	1648.983	1502.552
-16.692	43.426	1648.199	1500.859
-15.677	43.388	1646.719	1499.174
-14.663	43.538	1644.976	1498.638
-13.648	43.496	1643.558	1496.976
-12.633	43.459	1642.397	1495.583
-11.619	43.526	1640.423	1494.228
-10.604	43.445	1638.960	1492.236
-9.590	43.505	1637.694	1491.468
-8.575	43.513	1636.719	1490.574
-7.560	43.411	1635.330	1488.500
-6.546	43.467	1633.693	1487.363
-5.531	43.445	1632.827	1486.357
-4.517	43.407	1631.543	1484.852
-3.502	43.403	1630.495	1483.805
-2.487	43.408	1628.781	1482.221
-1.473	43.020	1616.913	1468.536
-0.458	39.592	1595.074	1423.938
0.556	34.222	1591.081	1379.558
1.571	30.960	1614.069	1375.338
2.586	29.937	1628.811	1380.159
3.600	26.443	1575.757	1309.832
4.615	14.683	1456.930	1131.718
5.629	3.550	1381.454	1001.085
6.644	1.306	1371.438	979.278
7.659	1.256	1369.287	977.332
8.673	1.130	1368.363	975.776
9.688	1.128	1367.001	974.706
10.702	0.855	1364.185	970.860
11.717	4.499	1372.018	999.830
12.731	15.295	1392.981	1085.239
13.746	23.502	1406.208	1148.841
14.761	24.855	1407.455	1158.527
15.775	25.044	1407.567	1159.737
16.790	25.100	1407.250	1159.735
17.804	25.234	1406.500	1159.880
18.819	25.472	1405.919	1160.835
19.834	25.479	1405.533	1160.459
20.848	25.469	1404.806	1159.695
21.863	25.509	1403.579	1158.838
22.877	25.463	1402.360	1157.434
23.892	25.464	1401.909	1156.961
24.907	25.425	1401.065	1155.912
25.921	25.485	1399.929	1155.255
26.936	25.447	1399.306	1154.397
27.950	25.437	1397.998	1153.154
28.965	25.377	1397.197	1152.005
29.980	25.472	1395.526	1151.136
30.994	25.486	1394.312	1150.119
32.009	25.561	1392.839	1149.281
33.023	25.563	1392.009	1148.506
34.038	25.488	1390.603	1146.768
35.053	25.446	1389.626	1145.592
36.067	25.437	1389.061	1144.969
37.082	25.347	1388.048	1143.461
38.096	25.449	1386.756	1142.946
39.111	25.382	1386.243	1141.996
40.126	25.449	1385.397	1141.619
41.140	25.398	1385.098	1140.947
42.155	25.431	1384.209	1140.323
43.169	25.498	1384.397	1140.804
44.184	25.318	1384.570	1139.706
45.199	25.424	1384.000	1139.810
46.213	25.412	1383.718	1139.399
47.228	25.488	1382.183	1138.518
48.242	25.491	1380.889	1137.365
49.257	25.497	1379.323	1136.017
50.271	25.500	1378.108	1134.930
51.286	25.474	1376.855	1133.636
52.301	25.380	1375.433	1131.774
53.315	25.512	1374.333	1131.601
54.330	25.461	1373.951	1130.862
55.344	25.369	1372.622	1129.090
56.359	25.455	1371.389	1128.518
57.374	25.389	1370.949	1127.638
58.388	25.525	1370.290	1127.852
59.403	25.461	1369.665	1126.835
60.417	25.429	1368.994	1125.986
61.432	25.577	1368.253	1126.201
62.447	25.402	1367.546	1124.427
63.461	25.484	1366.464	1123.947
64.476	25.463	1365.209	1122.686
65.490	25.496	1363.935	1121.747
66.505	25.569	1362.190	1120.663
67.520	25.499	1361.250	1119.358
68.534	25.399	1360.643	1118.136
69.549	25.578	1359.095	1117.879
70.563	25.495	1358.135	1116.474
71.578	25.468	1357.610	1115.778
72.593	25.479	1356.953	1115.203
73.607	25.450	1356.182	1114.294
74.622	25.537	1355.153	1113.887
75.636	25.463	1354.947	1113.163
76.651	25.484	1353.844	1112.287
77.666	25.477	1353.454	1111.824
78.680	25.478	1353.046	1111.398
79.695	25.430	1352.400	1110.474
80.709	25.510	1351.482	1110.114
81.724	25.461	1350.538	1108.935
82.739	25.476	1349.396	1107.995
83.753	25.477	1348.536	1107.197
84.768	25.395	1347.427	1105.684
85.782	25.489	1346.005	1104.997
86.797	25.557	1344.783	1104.313
87.812	25.526	1343.837	1103.246
88.826	25.469	1342.839	1101.982
89.841	25.532	1341.979	1101.565
90.855	25.445	1340.969	1100.108
91.870	25.498	1339.934	1099.484
92.884	25.510	1339.370	1098.999
93.899	25.521	1338.521	1098.269
94.914	25.525	1337.569	1097.418
95.928	25.504	1337.305	1096.972
96.943	25.493	1336.358	1096.036
97.957	25.609	1335.792	1096.179
98.972	25.593	1334.297	1094.759
99.987	25.538	1333.434	1093.621
101.001	25.402	1332.819	1092.192
102.016	25.544	1331.599	1091.958
103.030	25.559	1330.369	1090.942
104.045	25.477	1329.707	1089.807
105.060	25.492	1329.051	1089.261
106.074	25.596	1327.733	1088.718
107.089	25.548	1327.033	1087.752
108.103	25.609	1325.560	1086.822
109.118	25.601	1325.175	1086.360
110.133	25.518	1323.778	1084.618
111.147	25.575	1322.268	1083.628
112.162	25.713	1321.192	1083.479
113.176	25.635	1320.300	1082.187
114.191	25.581	1319.735	1081.298
115.206	25.628	1318.770	1080.694
116.220	25.628	1317.104	1079.234
117.235	25.523	1316.638	1078.130
118.249	25.546	1315.657	1077.365
119.264	25.577	1315.055	1076.966
120.279	25.602	1313.909	1076.081
121.293	25.615	1313.074	1075.377
122.308	25.680	1312.228	1074.978
123.322	25.664	1311.434	1074.137
124.337	25.721	1310.577	1073.683
125.352	25.686	1310.043	1072.942
126.366	25.692	1308.674	1071.763
127.381	25.664	1308.455	1071.322
128.395	25.614	1307.245	1069.938
129.410	25.746	1306.202	1069.770
130.424	25.670	1305.736	1068.844
131.439	25.669	1304.824	1068.000
132.454	25.698	1303.866	1067.289
133.468	25.650	1303.070	1066.258
134.483	25.689	1302.680	1066.078
135.497	25.610	1302.184	1065.108
136.512	25.511	1301.466	1063.842
137.527	25.632	1300.100	1063.349
138.541	25.666	1298.374	1062.045
139.556	25.691	1297.370	1061.277
140.570	25.757	1296.341	1060.726
141.585	25.718	1295.649	1059.841
142.600	25.627	1294.659	1058.401
143.614	25.664	1293.911	1057.911
144.629	25.742	1292.450	1057.080
145.643	25.517	1291.884	1055.202
146.658	25.580	1290.889	1054.667
147.673	25.578	1289.992	1053.831
148.687	25.630	1288.888	1053.140
149.702	25.554	1287.512	1051.477
150.716	25.510	1286.155	1050.019
151.731	25.602	1285.453	1049.891
152.746	25.553	1284.476	1048.711
153.760	25.592	1283.114	1047.736
154.775	25.578	1282.620	1047.158
155.789	25.621	1281.349	1046.279
156.804	25.521	1280.639	1045.022
157.819	25.599	1279.502	1044.460
158.833	25.555	1278.995	1043.698
159.848	25.667	1277.781	1043.260
160.862	25.633	1277.601	1042.827
161.877	25.676	1276.457	1042.048
162.892	25.719	1275.598	1041.502
163.906	25.704	1274.803	1040.676
164.921	25.671	1274.251	1039.940
165.935	25.683	1273.576	1039.368
166.950	25.720	1272.953	1038.982
167.964	25.724	1272.229	1038.323
168.979	25.701	1271.745	1037.704
169.994	25.800	1271.141	1037.686
171.008	25.783	1270.158	1036.699
172.023	25.683	1269.306	1035.332
173.037	25.729	1269.015	1035.272
174.052	25.755	1268.197	1034.662
175.067	25.746	1266.950	1033.497
176.081	25.679	1266.367	1032.546
177.096	25.739	1265.856	1032.382
178.110	25.628	1265.165	1031.095
179.125	25.814	1263.544	1030.745
180.140	25.796	1262.554	1029.742
181.154	25.915	1260.957	1029.028
182.169	25.731	1260.305	1027.355
183.183	25.713	1259.809	1026.760
184.198	25.768	1258.426	1025.851
185.213	25.730	1257.708	1024.963
186.227	25.878	1256.290	1024.557
187.242	25.791	1256.119	1023.831
188.256	25.828	1254.736	1022.822
189.271	25.859	1254.277	1022.538
190.286	25.862	1253.796	1022.072
191.300	25.763	1253.121	1020.867
192.315	25.678	1252.839	1020.068
193.329	25.786	1252.318	1020.162
194.344	25.829	1251.645	1019.766
195.359	25.938	1250.925	1019.710
196.373	25.871	1250.940	1019.253
197.388	25.710	1250.430	1017.833
198.402	25.686	1249.939	1017.208
199.417	25.828	1249.592	1017.641
200.432	25.915	1248.551	1017.192
201.446	25.776	1247.965	1015.839
202.461	25.834	1247.366	1015.588
203.475	25.808	1246.670	1014.789
204.490	25.821	1245.500	1013.819
205.504	25.895	1244.338	1013.202
206.519	25.905	1243.528	1012.506
207.534	25.853	1242.518	1011.302
208.548	25.943	1241.217	1010.659
209.563	25.911	1240.991	1010.207
210.577	25.930	1239.891	1009.326
211.592	26.076	1238.951	1009.292
212.607	26.007	1238.102	1008.120
213.621	25.930	1237.722	1007.296
214.636	25.848	1237.348	1006.442
215.650	25.978	1235.973	1005.960
216.665	25.943	1234.679	1004.625
217.680	25.893	1234.651	1004.233
218.694	25.984	1233.619	1003.812
219.709	25.987	1233.144	1003.350
220.723	25.997	1231.977	1002.367
221.738	25.887	1231.484	1001.266
222.753	25.783	1231.070	1000.268
223.767	25.872	1230.126	999.905
224.782	25.964	1229.835	1000.091
225.796	26.072	1228.902	999.840
226.811	26.027	1228.502	999.179
227.826	26.046	1227.728	998.566
228.840	26.042	1227.450	998.227
229.855	26.082	1226.352	997.468
230.869	26.083	1225.674	996.832
231.884	26.104	1225.129	996.420
232.899	25.992	1224.350	995.079
233.913	26.011	1223.942	994.763
234.928	26.112	1223.281	994.696
235.942	26.223	1222.443	994.536
236.957	26.233	1221.963	994.114
237.972	26.060	1221.397	992.615
238.986	26.088	1220.721	992.132
240.001	26.162	1220.217	992.041
241.015	26.346	1219.010	991.982
242.030	26.178	1218.674	990.696
243.045	26.165	1217.729	989.768
244.059	26.140	1216.799	988.791
245.074	26.234	1216.354	988.855
246.088	26.211	1215.681	988.092
247.103	26.170	1215.045	987.266
248.117	26.195	1214.289	986.699
249.132	26.290	1213.064	986.135
250.147	26.210	1212.488	985.144
251.161	26.225	1211.708	984.506
252.176	26.249	1210.966	983.947
253.190	26.385	1210.286	984.046
254.205	26.115	1210.108	982.344
255.220	26.193	1209.428	982.133
256.234	26.308	1208.694	982.073
257.249	26.311	1208.105	981.524
258.263	26.279	1207.118	980.464
259.278	26.263	1206.728	979.974
260.293	26.242	1206.661	979.715
261.307	26.240	1205.908	979.006
262.322	26.425	1204.885	979.091
263.336	26.391	1204.614	978.604
264.351	26.315	1204.122	977.701
265.366	26.334	1203.506	977.218
266.380	26.376	1202.947	976.906
267.395	26.394	1201.806	975.992
268.409	26.232	1202.020	975.205
269.424	26.375	1200.957	975.025
270.439	26.330	1200.533	974.351
271.453	26.402	1199.877	974.120
272.468	26.404	1198.405	972.850
273.482	26.331	1198.065	972.096
274.497	26.270	1197.634	971.331
275.512	26.446	1197.317	971.936
276.526	26.511	1196.429	971.476
277.541	26.503	1195.448	970.553
278.555	26.505	1195.025	970.133
279.570	26.402	1194.803	969.314
280.585	26.449	1193.415	968.354
281.599	26.493	1192.689	967.917
282.614	26.537	1191.825	967.362
283.628	26.436	1191.188	966.220
284.643	26.547	1190.232	965.953
285.657	26.453	1189.193	964.526
286.672	26.558	1188.394	964.348
287.687	26.480	1187.613	963.218
288.701	26.622	1187.278	963.616
289.716	26.665	1186.192	962.877
290.730	26.511	1185.979	961.798
291.745	26.549	1185.275	961.345
292.760	26.724	1184.329	961.422
293.774	26.619	1184.000	960.511
294.789	26.685	1183.363	960.260
295.803	26.645	1182.827	959.530
296.818	26.742	1181.805	959.128
297.833	26.662	1181.121	958.063
298.847	26.651	1180.561	957.471
299.862	26.757	1179.428	957.026
300.876	26.608	1179.416	956.142
301.891	26.667	1178.479	955.611
302.906	26.729	1178.095	955.540
303.920	26.776	1177.533	955.249
304.935	26.836	1176.558	954.690
305.949	26.797	1176.015	953.960
306.964	26.793	1175.238	953.221
307.979	26.790	1174.694	952.681
308.993	26.834	1174.344	952.546
310.008	26.752	1173.694	951.501
311.022	26.823	1172.697	950.982
312.037	26.957	1171.639	950.743
313.052	26.773	1171.240	949.371
314.066	26.737	1170.386	948.405
315.081	26.717	1169.313	947.348
316.095	26.817	1169.073	947.593
317.110	26.718	1168.574	946.586
318.125	26.853	1167.647	946.458
319.139	26.749	1167.269	945.524
320.154	26.767	1166.657	945.041
321.168	26.850	1165.996	944.853
322.183	26.897	1165.372	944.508
323.197	26.851	1164.949	943.841
324.212	26.865	1164.271	943.281
325.227	26.822	1163.517	942.365
326.241	26.968	1163.437	942.975
327.256	26.989	1162.517	942.253
328.270	26.942	1161.528	941.124
329.285	26.872	1160.995	940.250
330.300	26.971	1160.396	940.189
331.314	26.907	1159.197	938.808
332.329	27.043	1158.207	938.627
333.343	27.012	1157.759	938.017
334.358	27.140	1156.746	937.773
335.373	27.026	1156.751	937.110
336.387	27.120	1155.654	936.623
337.402	27.101	1154.942	935.861
338.416	27.127	1154.252	935.356
339.431	27.114	1153.748	934.799
340.446	27.087	1153.079	934.033
341.460	27.160	1152.128	933.557
342.475	27.268	1151.415	933.450
343.489	27.088	1151.266	932.323
344.504	27.079	1150.083	931.236
345.519	27.154	1148.855	930.545
346.533	27.162	1148.203	929.973
347.548	27.160	1147.484	929.298
348.562	27.310	1146.825	929.450
349.577	27.109	1146.323	927.932
350.592	27.139	1145.307	927.180
351.606	27.136	1144.725	926.615
352.621	27.278	1143.868	926.559
353.635	27.202	1143.697	925.955
354.650	27.184	1143.150	925.336
355.665	27.241	1142.409	924.947
356.679	27.186	1141.866	924.147
357.694	27.394	1140.867	924.312
358.708	27.322	1140.565	923.616
359.723	27.229	1139.648	922.325
360.738	27.277	1138.739	921.748
361.752	27.275	1138.548	921.504
362.767	27.340	1138.124	921.407
363.781	27.388	1137.597	921.142
364.796	27.384	1137.016	920.569
365.810	27.348	1136.640	920.004
366.825	27.413	1135.739	919.517
367.840	27.490	1135.313	919.482
368.854	27.460	1134.548	918.627
369.869	27.423	1133.766	917.727
370.883	27.448	1133.280	917.380
371.898	27.467	1132.392	916.675
372.913	27.483	1131.736	916.143
373.927	27.496	1131.507	915.943
374.942	27.561	1131.236	915.970
375.956	27.534	1130.262	914.965
376.971	27.515	1129.889	914.484
377.986	27.559	1129.108	913.992
379.000	27.664	1128.505	913.951
380.015	27.537	1128.074	912.881
381.029	27.473	1127.555	912.063
382.044	27.598	1126.794	911.990
383.059	27.672	1126.287	911.869
384.073	27.742	1125.277	911.324
385.088	27.526	1124.897	909.857
386.102	27.728	1123.592	909.725
387.117	27.636	1122.773	908.523
388.132	27.501	1122.118	907.243
389.146	27.666	1121.279	907.304
390.161	27.699	1120.697	906.916
391.175	27.649	1119.832	905.890
392.190	27.751	1119.085	905.710
393.205	27.681	1118.754	905.014
394.219	27.772	1117.841	904.648
395.234	27.736	1117.072	903.766
396.248	27.775	1115.947	902.970
397.263	27.809	1115.411	902.626
398.278	27.820	1115.233	902.454
399.292	27.892	1114.018	901.746
400.307	27.850	1113.777	901.263
401.321	27.864	1112.835	900.493
402.336	27.775	1112.563	899.755
403.350	27.925	1111.608	899.641
404.365	27.936	1111.295	899.363
405.380	27.851	1110.280	898.042
406.394	27.839	1109.623	897.374
407.409	27.929	1108.891	897.141
408.423	27.932	1107.989	896.348
409.438	27.882	1108.063	896.085
410.453	27.967	1107.023	895.581
411.467	27.962	1106.098	894.730
412.482	27.950	1105.595	894.181
413.496	27.922	1105.391	893.802
414.511	28.023	1104.060	893.141
415.526	27.943	1103.676	892.359
416.540	28.069	1103.297	892.589
417.555	27.992	1102.738	891.682
418.569	27.991	1101.887	890.909
419.584	28.017	1101.567	890.701
420.599	28.187	1101.066	891.046
421.613	79.859	1285.710	1323.957
422.628	74.783	1312.614	1324.107
