DTS Sentinel unit serial number:	SN413079Multiplexer serial number:	ORYXHardware model number:	OX4-SRSoftware version number:	ORYX F/W v4.00 Oryx Data Collector v3.7.2.0data status	okinstallation	princeton_trtdifferential loss correction	single-endedforward channel	channel 2reverse channel	N/Adate	2019/09/12time	03:45:11forward acquisition time	60.00reverse acquisition time	0.00gamma	496.2192k internal	0.2326k external	0.2326temperature offset calibration	1.0096default loss term (dB/km)	0.3790temperature slope calibration	1.0000multiplexer offset coefficient	1.0000multiplexer slope coefficient	1.0000fibre end	0.00T internal ref (°C)	32.17T ext. ref 1 (°C)	2.14T ext. ref 2 (°C)	27.12length (m)	temperature (°C)	Stokes	anti-Stokes-747.200	-57.493	-0.187	0.083
-746.185	5.152	0.138	0.103
-745.171	140.762	-0.141	0.188
-744.156	-24.053	0.217	0.131
-743.142	246.204	-0.068	0.116
-742.127	266.408	0.172	0.303
-741.112	32.366	0.100	-0.087
-740.098	-176.083	0.114	-0.003
-739.083	800.000	-0.078	-0.279
-738.069	-200.000	0.020	0.180
-737.054	-200.000	-0.006	-0.254
-736.039	800.000	-0.057	0.240
-735.025	48.626	0.173	0.163
-734.010	-57.202	-0.169	0.075
-732.996	-200.000	-0.000	0.102
-731.981	-41.156	-0.219	0.114
-730.966	-172.563	-0.333	-0.011
-729.952	12.854	0.212	-0.165
-728.937	800.000	-0.021	-0.077
-727.923	-11.980	-0.194	-0.128
-726.908	2.065	-0.204	-0.149
-725.894	200.390	-0.064	0.100
-724.879	-88.825	0.157	0.047
-723.864	-102.153	-0.046	0.011
-722.850	257.775	0.242	-0.420
-721.835	29.384	-0.177	-0.152
-720.821	-145.262	0.086	0.008
-719.806	-200.000	-0.018	-0.156
-718.791	-72.510	-0.295	-0.110
-717.777	634.115	0.051	-0.130
-716.762	-156.752	0.054	0.003
-715.748	-21.666	-0.315	0.193
-714.733	800.000	0.078	0.267
-713.718	147.466	0.121	-0.163
-712.704	29.811	-0.101	0.087
-711.689	412.270	0.086	0.184
-710.675	-200.000	0.108	-0.000
-709.660	-200.000	0.005	-0.176
-708.645	-112.626	0.199	0.040
-707.631	800.000	-0.135	-0.418
-706.616	-129.261	-0.425	-0.060
-705.602	268.918	-0.054	0.095
-704.587	-200.000	-0.005	0.047
-703.572	-200.000	-0.017	0.106
-702.558	208.435	0.255	-0.401
-701.543	-200.000	0.015	-0.138
-700.529	800.000	0.036	-0.149
-699.514	9.234	0.175	-0.133
-698.499	502.725	-0.233	-0.542
-697.485	800.000	-0.044	0.153
-696.470	-86.165	0.058	0.018
-695.456	-98.773	-0.124	0.032
-694.441	-200.000	0.007	-0.348
-693.426	-181.243	0.115	-0.002
-692.412	-11.335	-0.207	0.137
-691.397	-200.000	0.022	0.140
-690.383	466.423	0.099	0.224
-689.368	354.599	0.049	-0.098
-688.354	-200.000	-0.045	-0.198
-687.339	-81.630	0.279	-0.092
-686.324	800.000	0.049	0.145
-685.310	272.325	0.062	-0.110
-684.295	172.497	-0.194	-0.280
-683.281	-73.006	-0.152	0.056
-682.266	233.915	0.137	0.227
-681.251	490.545	-0.137	0.316
-680.237	59.265	0.164	-0.163
-679.222	-27.999	0.321	-0.187
-678.208	117.468	0.129	-0.160
-677.193	-125.463	0.163	0.025
-676.178	800.000	0.074	-0.268
-675.164	-79.185	-0.225	-0.077
-674.149	-51.834	-0.265	0.124
-673.135	103.405	-0.147	0.173
-672.120	-88.121	-0.089	-0.027
-671.105	-115.570	-0.251	-0.047
-670.091	28.816	0.179	0.153
-669.076	-200.000	-0.025	-0.246
-668.062	339.658	0.120	-0.235
-667.047	-16.945	-0.096	-0.061
-666.032	-83.189	0.327	0.106
-665.018	-76.901	0.261	-0.092
-664.003	318.389	-0.085	-0.162
-662.989	800.000	-0.049	-0.188
-661.974	383.461	0.070	0.144
-660.959	69.272	0.182	0.188
-659.945	190.289	0.074	-0.112
-658.930	800.000	0.072	-0.244
-657.916	-56.823	-0.311	0.138
-656.901	-110.262	-0.125	0.026
-655.886	-92.028	-0.170	-0.048
-654.872	-102.801	0.181	-0.043
-653.857	-78.815	-0.455	-0.156
-652.843	-18.461	0.136	-0.085
-651.828	-136.404	0.152	0.018
-650.814	-100.628	-0.392	-0.097
-649.799	800.000	0.092	-0.323
-648.784	-84.103	-0.247	-0.079
-647.770	-200.000	0.039	-0.200
-646.755	-200.000	-0.004	-0.195
-645.741	-7.357	0.045	0.031
-644.726	800.000	-0.054	-0.230
-643.711	76.210	0.117	0.124
-642.697	-107.847	0.239	0.052
-641.682	509.044	-0.087	-0.203
-640.668	632.514	-0.116	-0.294
-639.653	800.000	-0.140	-0.408
-638.638	800.000	0.009	0.036
-637.624	800.000	-0.070	0.211
-636.609	-200.000	0.021	0.271
-635.595	-200.000	-0.032	0.158
-634.580	-76.433	0.070	0.025
-633.565	-162.158	-0.078	-0.004
-632.551	-200.000	-0.005	0.065
-631.536	49.083	0.065	0.062
-630.522	-67.009	-0.065	-0.026
-629.507	5.478	0.157	0.116
-628.492	-45.998	0.204	-0.101
-627.478	-45.180	0.135	-0.067
-626.463	-200.000	0.014	0.091
-625.449	-11.774	-0.194	0.128
-624.434	46.032	0.047	-0.043
-623.419	-200.000	0.045	-0.428
-622.405	232.813	0.074	-0.123
-621.390	272.709	-0.100	-0.178
-620.376	97.735	0.146	0.169
-619.361	88.300	0.223	0.249
-618.346	468.299	0.055	-0.125
-617.332	-77.778	-0.204	-0.071
-616.317	378.196	0.139	0.285
-615.303	391.893	0.104	0.216
-614.288	-21.130	0.380	-0.233
-613.273	800.000	-0.113	0.323
-612.259	-200.000	-0.007	-0.127
-611.244	-200.000	0.012	-0.292
-610.230	132.689	0.099	-0.128
-609.215	-119.329	0.263	0.046
-608.201	800.000	-0.109	0.329
-607.186	800.000	-0.019	-0.072
-606.171	-31.597	0.251	0.141
-605.157	-200.000	0.005	0.169
-604.142	-200.000	-0.013	-0.336
-603.128	800.000	0.044	0.187
-602.113	-185.499	0.276	-0.004
-601.098	-24.215	-0.102	0.061
-600.084	-116.212	-0.357	-0.067
-599.069	-200.000	-0.001	-0.349
-598.055	39.933	0.108	0.097
-597.040	-72.978	0.098	-0.036
-596.025	-200.000	0.005	0.190
-595.011	-52.952	0.344	-0.159
-593.996	-200.000	0.016	0.272
-592.982	800.000	-0.118	0.434
-591.967	800.000	0.059	-0.182
-590.952	-56.995	0.114	0.050
-589.938	546.764	0.120	-0.289
-588.923	-200.000	-0.031	0.403
-587.909	146.841	-0.123	0.166
-586.894	-91.116	-0.057	0.016
-585.879	65.452	-0.054	-0.054
-584.865	-89.071	0.180	-0.053
-583.850	-76.967	-0.151	-0.053
-582.836	337.720	-0.126	-0.245
-581.821	-153.758	-0.402	0.028
-580.806	77.207	-0.096	-0.102
-579.792	-3.761	0.105	-0.073
-578.777	134.678	-0.221	-0.288
-577.763	-150.892	-0.382	-0.029
-576.748	-200.000	0.051	-0.266
-575.733	712.353	0.055	0.147
-574.719	800.000	0.014	0.053
-573.704	-17.794	-0.343	-0.216
-572.690	-137.591	-0.192	-0.022
-571.675	-52.155	-0.346	-0.161
-570.661	-200.000	0.016	-0.208
-569.646	-200.000	-0.002	-0.102
-568.631	-25.238	0.177	0.105
-567.617	-200.000	0.033	-0.208
-566.602	132.624	0.154	0.200
-565.588	-200.000	0.002	0.073
-564.573	650.935	0.079	0.202
-563.558	-25.392	0.074	-0.044
-562.544	67.718	-0.197	-0.202
-561.529	-46.657	-0.365	-0.179
-560.515	11.367	-0.266	-0.204
-559.500	179.444	-0.084	0.123
-558.485	-0.329	-0.278	0.197
-557.471	800.000	-0.044	-0.172
-556.456	94.242	-0.235	-0.267
-555.442	55.709	0.095	-0.092
-554.427	-200.000	0.034	-0.154
-553.412	139.526	-0.213	-0.281
-552.398	-118.495	-0.153	-0.027
-551.383	-200.000	0.031	0.136
-550.369	24.984	0.089	-0.074
-549.354	-33.701	-0.105	-0.058
-548.339	-55.062	0.163	0.073
-547.325	-200.000	0.032	0.328
-546.310	403.736	0.163	0.344
-545.296	608.024	0.080	-0.199
-544.281	-52.177	0.215	-0.100
-543.266	-41.808	0.314	0.161
-542.252	-120.461	-0.226	0.039
-541.237	299.088	0.140	0.257
-540.223	-4.683	-0.094	-0.065
-539.208	88.199	0.033	-0.037
-538.193	-35.393	0.225	-0.123
-537.179	-35.555	-0.212	0.115
-536.164	-200.000	-0.017	0.200
-535.150	-30.237	0.369	0.210
-534.135	800.000	-0.021	-0.075
-533.121	-200.000	0.028	0.276
-532.106	100.107	0.084	0.098
-531.091	-200.000	-0.060	-0.371
-530.077	709.662	-0.119	0.315
-529.062	-61.181	0.266	0.112
-528.048	-200.000	0.044	0.499
-527.033	536.766	0.032	0.076
-526.018	-99.450	-0.093	0.023
-525.004	-175.413	0.204	0.006
-523.989	304.629	0.124	-0.229
-522.975	-114.581	0.121	0.023
-521.960	-1.124	0.102	0.072
-520.945	-200.000	-0.006	-0.054
-519.931	-200.000	0.029	-0.135
-518.916	-119.925	-0.296	-0.051
-517.902	123.026	-0.124	-0.156
-516.887	127.724	-0.095	-0.120
-515.872	-200.000	-0.079	-0.499
-514.858	-21.970	0.159	0.097
-513.843	-197.460	0.063	0.000
-512.829	-102.141	-0.244	-0.059
-511.814	-116.780	-0.136	-0.025
-510.799	433.891	0.170	0.368
-509.785	-129.098	-0.339	-0.047
-508.770	148.270	-0.123	-0.165
-507.756	-155.477	-0.259	0.017
-506.741	-168.180	-0.300	0.012
-505.726	-113.812	0.383	-0.074
-504.712	800.000	0.060	-0.187
-503.697	288.710	0.097	-0.175
-502.683	403.671	0.129	0.270
-501.668	-200.000	0.051	0.348
-500.653	-200.000	0.012	0.077
-499.639	263.696	0.144	-0.249
-498.624	33.673	-0.151	0.131
-497.610	-145.391	0.241	-0.022
-496.595	800.000	0.078	0.234
-495.581	-93.090	0.112	-0.031
-494.566	-126.989	-0.256	0.038
-493.551	46.281	0.062	0.057
-492.537	-102.915	-0.073	-0.017
-491.522	154.194	0.052	-0.071
-490.508	97.575	-0.085	-0.097
-489.493	-200.000	-0.040	-0.177
-488.478	-168.338	0.106	0.004
-487.464	228.479	-0.117	-0.191
-486.449	800.000	-0.052	0.176
-485.435	81.948	0.378	0.409
-484.420	-85.572	0.152	0.047
-483.405	-127.944	0.172	0.025
-482.391	147.449	-0.119	-0.159
-481.376	-114.005	-0.177	-0.034
-480.362	-119.343	-0.109	0.019
-479.347	800.000	-0.059	0.177
-478.332	542.713	-0.038	-0.091
-477.318	-71.185	-0.164	-0.062
-476.303	-93.388	-0.356	-0.098
-475.289	800.000	0.090	0.275
-474.274	46.402	0.088	-0.081
-473.259	800.000	-0.100	0.408
-472.245	419.266	-0.187	0.400
-471.230	-84.556	-0.118	-0.037
-470.216	-112.677	0.061	0.012
-469.201	-57.377	0.169	-0.074
-468.186	800.000	-0.040	0.138
-467.172	800.000	-0.036	0.129
-466.157	-122.500	-0.313	-0.051
-465.143	-171.075	0.161	0.005
-464.128	-194.539	-0.177	-0.001
-463.113	17.266	0.106	-0.084
-462.099	120.775	-0.058	-0.072
-461.084	-128.691	-0.031	-0.004
-460.070	-113.734	0.212	-0.041
-459.055	-200.000	0.017	-0.075
-458.040	-200.000	0.017	0.257
-457.026	-45.519	-0.209	0.103
-456.011	-6.134	-0.091	0.062
-454.997	132.801	0.169	-0.217
-453.982	-157.315	-0.119	0.007
-452.968	18.295	0.053	-0.042
-451.953	-77.792	0.101	0.035
-450.938	-33.556	-0.170	0.094
-449.924	784.435	-0.085	-0.232
-448.909	-33.825	0.112	0.062
-447.895	31.695	-0.103	0.088
-446.880	800.000	-0.050	0.194
-445.865	132.826	0.142	0.182
-444.851	-96.405	-0.126	0.033
-443.836	-200.000	0.044	0.428
-442.822	14.736	-0.311	0.243
-441.807	12.132	0.273	-0.209
-440.792	-36.157	0.208	-0.112
-439.778	31.023	-0.194	-0.166
-438.763	-45.539	0.103	-0.051
-437.749	6.063	-0.153	-0.113
-436.734	57.156	0.155	-0.151
-435.719	800.000	0.081	0.295
-434.705	608.701	0.143	0.356
-433.690	-117.897	-0.200	-0.036
-432.676	562.625	-0.041	-0.098
-431.661	5.360	-0.326	0.240
-430.646	13.233	-0.159	-0.123
-429.632	-200.000	-0.024	-0.167
-428.617	-200.000	-0.012	0.070
-427.603	-14.590	-0.149	0.095
-426.588	800.000	-0.038	0.144
-425.573	-200.000	0.032	0.143
-424.559	688.979	0.083	0.216
-423.544	57.786	-0.137	0.133
-422.530	-116.056	-0.193	0.036
-421.515	-140.250	0.409	0.043
-420.500	21.274	0.150	0.121
-419.486	-200.000	0.074	-0.360
-418.471	-79.219	-0.404	0.136
-417.457	118.296	-0.102	0.126
-416.442	-200.000	0.050	0.395
-415.428	-200.000	0.104	0.490
-414.413	-142.511	0.022	-0.002
-413.398	492.078	0.100	0.228
-412.384	353.954	0.076	0.150
-411.369	-200.000	-0.011	0.050
-410.355	800.000	0.033	-0.100
-409.340	89.876	0.122	-0.135
-408.325	800.000	0.048	-0.197
-407.311	-14.198	-0.206	0.133
-406.296	366.125	-0.016	-0.032
-405.282	-179.388	0.166	0.004
-404.267	-43.746	-0.223	0.112
-403.252	103.165	0.186	-0.217
-402.238	-200.000	0.007	0.048
-401.223	20.060	-0.357	0.287
-400.209	92.082	-0.077	0.086
-399.194	593.055	-0.095	0.235
-398.179	215.791	0.083	-0.131
-397.165	-39.031	-0.289	0.151
-396.150	-14.452	0.147	0.094
-395.136	555.667	-0.090	-0.216
-394.121	-18.879	0.198	0.123
-393.106	-200.000	-0.005	-0.258
-392.092	-200.000	-0.017	-0.243
-391.077	-80.816	0.180	-0.060
-390.063	403.490	-0.072	0.150
-389.048	23.431	0.069	-0.057
-388.033	622.531	-0.175	0.438
-387.019	-200.000	0.046	0.343
-386.004	-200.000	0.007	-0.061
-384.990	-200.000	-0.001	-0.160
-383.975	-63.934	-0.185	-0.075
-382.960	800.000	-0.056	0.194
-381.946	-71.593	-0.229	-0.085
-380.931	206.476	-0.057	0.088
-379.917	-124.790	-0.251	-0.039
-378.902	-98.602	0.210	0.053
-377.888	-119.423	0.096	0.017
-376.873	160.020	-0.171	0.237
-375.858	-200.000	0.037	0.260
-374.844	59.626	0.184	-0.180
-373.829	800.000	0.046	-0.139
-372.815	-137.667	0.270	0.030
-371.800	-17.416	0.164	-0.103
-370.785	61.109	0.047	0.046
-369.771	-200.000	-0.009	0.098
-368.756	237.298	0.226	-0.372
-367.742	1.329	0.102	0.073
-366.727	178.789	-0.081	-0.117
-365.712	-54.711	-0.252	0.113
-364.698	79.755	-0.113	0.121
-363.683	209.541	-0.089	-0.138
-362.669	-171.069	0.037	-0.001
-361.654	-138.230	-0.204	0.022
-360.639	111.349	-0.040	0.048
-359.625	-19.150	0.164	0.101
-358.610	22.625	0.079	0.064
-357.596	90.434	0.177	-0.197
-356.581	-122.935	-0.050	-0.008
-355.566	314.786	0.167	-0.313
-354.552	-67.931	-0.253	-0.098
-353.537	11.318	0.136	0.104
-352.523	145.618	-0.157	-0.209
-351.508	380.445	-0.092	-0.187
-350.493	27.514	0.353	0.295
-349.479	264.245	0.228	0.394
-348.464	-200.000	0.002	0.133
-347.450	800.000	0.073	-0.252
-346.435	348.733	0.112	-0.219
-345.420	205.882	0.124	-0.191
-344.406	236.803	-0.094	-0.155
-343.391	142.314	0.090	-0.119
-342.377	95.743	0.179	0.203
-341.362	-200.000	0.037	-0.230
-340.348	-200.000	0.001	-0.237
-339.333	121.215	0.082	-0.101
-338.318	-200.000	0.054	0.255
-337.304	-200.000	0.003	-0.036
-336.289	800.000	-0.034	-0.107
-335.275	-200.000	0.011	-0.304
-334.260	9.165	0.055	-0.041
-333.245	-61.733	-0.138	-0.057
-332.231	-117.732	0.324	-0.058
-331.216	-20.553	-0.248	0.151
-330.202	-162.913	0.327	-0.016
-329.187	-57.764	-0.347	-0.151
-328.172	-129.917	-0.214	-0.029
-327.158	-119.635	0.193	0.033
-326.143	20.177	0.249	-0.199
-325.129	-38.340	0.149	-0.078
-324.114	-177.671	0.157	-0.004
-323.099	-11.869	0.189	-0.123
-322.085	800.000	0.031	-0.112
-321.070	-200.000	-0.006	-0.111
-320.056	110.992	-0.105	-0.126
-319.041	40.710	-0.207	0.185
-318.026	-158.642	-0.308	0.018
-317.012	-46.021	0.174	-0.085
-315.997	118.645	0.160	0.196
-314.983	-200.000	0.010	0.157
-313.968	-124.183	-0.073	-0.011
-312.953	-137.903	0.257	0.028
-311.939	-200.000	-0.039	-0.180
-310.924	81.070	0.053	0.056
-309.910	-200.000	-0.019	0.307
-308.895	-200.000	-0.088	0.429
-307.880	-200.000	-0.008	-0.215
-306.866	-181.435	-0.341	0.007
-305.851	41.822	0.223	0.200
-304.837	-40.064	0.083	0.043
-303.822	198.129	-0.278	0.422
-302.807	286.699	0.175	-0.314
-301.793	-24.602	0.183	0.108
-300.778	-99.817	-0.111	-0.028
-299.764	24.791	-0.125	0.103
-298.749	-200.000	-0.015	0.232
-297.735	-84.327	-0.105	0.033
-296.720	-75.149	0.275	0.097
-295.705	800.000	-0.119	-0.348
-294.691	-110.987	-0.161	-0.033
-293.676	29.476	-0.148	-0.124
-292.662	-93.476	0.226	0.062
-291.647	29.965	-0.148	-0.125
-290.632	-200.000	0.045	0.252
-289.618	-200.000	-0.017	0.220
-288.603	250.214	0.235	-0.396
-287.589	392.389	0.075	0.155
-286.574	-74.502	-0.068	-0.024
-285.559	125.880	-0.253	0.317
-284.545	441.709	-0.078	0.169
-283.530	-130.636	-0.265	0.035
-282.516	48.780	-0.129	0.120
-281.501	17.728	-0.176	-0.139
-280.486	-10.546	-0.053	-0.035
-279.472	56.465	0.185	-0.178
-278.457	-0.909	-0.237	-0.166
-277.443	373.017	0.103	-0.207
-276.428	114.300	0.056	0.067
-275.413	-95.487	-0.184	0.049
-274.399	800.000	-0.032	0.103
-273.384	-25.810	-0.185	0.108
-272.370	-50.738	-0.115	-0.053
-271.355	606.703	-0.138	0.340
-270.340	320.920	0.021	-0.040
-269.326	84.463	0.175	0.189
-268.311	16.568	-0.297	0.232
-267.297	800.000	0.030	0.107
-266.282	129.184	-0.214	-0.271
-265.267	-95.682	0.292	-0.077
-264.253	45.440	0.223	0.204
-263.238	74.378	0.107	-0.111
-262.224	14.782	-0.148	-0.115
-261.209	-200.000	-0.020	-0.119
-260.195	-145.645	-0.093	-0.008
-259.180	-200.000	0.040	-0.218
-258.165	469.868	-0.038	-0.085
-257.151	273.375	0.081	0.142
-256.136	546.030	-0.030	-0.072
-255.122	-86.870	0.277	-0.084
-254.107	-11.927	0.283	-0.184
-253.092	428.057	0.148	0.317
-252.078	800.000	0.059	-0.166
-251.063	-200.000	-0.017	-0.139
-250.049	230.579	0.132	0.213
-249.034	-72.539	-0.246	0.090
-248.019	8.019	0.197	0.146
-247.005	800.000	-0.020	-0.071
-245.990	-200.000	0.008	-0.093
-244.976	-123.674	0.322	-0.050
-243.961	-19.359	0.262	-0.161
-242.946	146.507	-0.191	-0.253
-241.932	800.000	-0.060	0.187
-240.917	-123.966	-0.136	-0.021
-239.903	41.063	0.061	0.055
-238.888	600.720	0.062	0.153
-237.873	254.283	-0.174	-0.295
-236.859	73.961	-0.085	-0.088
-235.844	14.014	0.227	-0.174
-234.830	-200.000	-0.054	-0.264
-233.815	-200.000	-0.004	-0.279
-232.800	800.000	0.040	-0.115
-231.786	800.000	0.025	-0.084
-230.771	-154.981	0.195	0.013
-229.757	-200.000	0.032	0.604
-228.742	-95.222	-0.290	-0.077
-227.727	800.000	0.126	0.400
-226.713	-106.075	0.238	-0.053
-225.698	-200.000	-0.046	0.222
-224.684	-132.522	0.109	-0.014
-223.669	-90.164	-0.236	-0.068
-222.655	235.049	-0.196	-0.319
-221.640	47.594	0.214	-0.198
-220.625	135.468	0.219	-0.281
-219.611	195.261	0.058	-0.087
-218.596	8.148	-0.144	-0.107
-217.582	-182.166	-0.213	0.004
-216.567	-200.000	-0.022	0.105
-215.552	49.222	0.131	0.122
-214.538	-68.473	-0.249	-0.095
-213.523	46.377	-0.216	0.198
-212.509	800.000	0.090	0.337
-211.494	-200.000	-0.041	-0.184
-210.479	-200.000	0.017	0.107
-209.465	-200.000	-0.019	-0.147
-208.450	-13.242	-0.185	0.119
-207.436	800.000	-0.046	0.140
-206.421	141.698	0.208	-0.272
-205.406	190.103	-0.032	0.048
-204.392	-163.550	0.258	-0.012
-203.377	800.000	0.086	-0.244
-202.363	1.411	0.271	-0.192
-201.348	38.375	-0.128	0.112
-200.333	-200.000	0.000	0.143
-199.319	-46.011	0.270	0.131
-198.304	-79.979	0.269	-0.089
-197.290	-47.876	-0.328	-0.157
-196.275	41.452	0.025	-0.023
-195.260	-127.393	-0.083	0.012
-194.246	800.000	0.051	0.142
-193.231	-200.000	-0.039	0.357
-192.217	19.546	-0.112	-0.089
-191.202	-75.933	0.178	-0.062
-190.187	-16.338	0.352	0.220
-189.173	-6.621	-0.201	-0.135
-188.158	5.829	0.170	-0.124
-187.144	-64.461	0.370	0.149
-186.129	-200.000	0.044	-0.208
-185.114	38.567	-0.084	-0.074
-184.100	-17.590	-0.211	-0.131
-183.085	800.000	0.123	-0.471
-182.071	794.492	0.031	0.084
-181.056	199.535	0.156	0.236
-180.042	267.346	0.154	-0.265
-179.027	476.765	-0.147	-0.327
-178.012	200.393	-0.062	0.094
-176.998	-145.809	-0.415	-0.036
-175.983	-140.625	-0.091	-0.009
-174.969	-21.803	0.065	0.039
-173.954	35.664	-0.042	-0.036
-172.939	-200.000	0.001	-0.222
-171.925	800.000	0.043	-0.161
-170.910	-200.000	-0.040	-0.344
-169.896	-8.208	-0.131	-0.087
-168.881	-200.000	-0.014	0.125
-167.866	46.829	0.119	-0.109
-166.852	30.095	-0.164	0.138
-165.837	4.454	-0.212	-0.153
-164.823	-200.000	0.028	0.286
-163.808	-200.000	0.010	-0.080
-162.793	-41.623	0.256	0.130
-161.779	-159.466	-0.190	-0.010
-160.764	-80.054	-0.189	-0.062
-159.750	184.491	0.051	-0.074
-158.735	-200.000	0.011	0.138
-157.720	48.193	0.021	-0.020
-156.706	659.633	0.079	-0.200
-155.691	-135.510	0.215	0.025
-154.677	337.944	-0.020	0.038
-153.662	80.062	0.079	0.084
-152.647	-16.668	-0.330	-0.206
-151.633	-140.039	0.238	-0.025
-150.618	-9.931	0.260	-0.170
-149.604	-154.103	-0.059	-0.004
-148.589	91.505	0.161	-0.179
-147.574	53.781	-0.132	-0.125
-146.560	-182.242	0.245	-0.004
-145.545	-65.449	0.194	-0.077
-144.531	121.439	-0.230	-0.282
-143.516	88.604	-0.024	0.026
-142.502	620.396	0.084	0.207
-141.487	-179.483	-0.299	0.006
-140.472	-200.000	0.028	0.330
-139.458	33.891	-0.082	0.070
-138.443	-200.000	0.206	-0.001
-137.429	11.294	0.102	0.077
-136.414	-171.803	0.218	-0.007
-135.399	-154.475	0.305	0.020
-134.385	16.253	-0.118	-0.092
-133.370	800.000	-0.043	-0.124
-132.356	565.864	-0.128	-0.305
-131.341	800.000	0.108	0.379
-130.326	-10.839	0.158	-0.103
-129.312	-65.018	-0.175	-0.069
-128.297	-124.257	-0.151	-0.023
-127.283	-200.000	0.025	0.140
-126.268	-33.888	0.135	-0.073
-125.253	-200.000	0.005	-0.054
-124.239	-22.672	-0.220	-0.131
-123.224	-25.386	0.223	-0.130
-122.210	-47.109	-0.275	-0.132
-121.195	-7.931	0.183	0.121
-120.180	-200.000	-0.011	0.088
-119.166	-94.907	-0.218	0.058
-118.151	63.302	0.388	0.383
-117.137	-177.935	-0.281	0.007
-116.122	-85.016	-0.142	-0.044
-115.107	126.051	-0.137	-0.170
-114.093	800.000	0.059	-0.161
-113.078	-200.000	-0.033	0.255
-112.064	-144.507	-0.295	-0.027
-111.049	21.189	0.234	0.187
-110.034	-51.666	0.329	-0.151
-109.020	800.000	-0.069	0.238
-108.005	167.052	-0.035	-0.049
-106.991	142.235	-0.077	-0.100
-105.976	96.397	0.026	-0.029
-104.962	-200.000	0.002	0.227
-103.947	-147.698	0.226	0.019
-102.932	22.712	-0.149	-0.120
-101.918	72.832	0.119	-0.123
-100.903	58.290	-0.119	0.115
-99.889	175.406	-0.036	0.052
-98.874	99.886	0.037	-0.042
-97.859	44.335	0.304	-0.274
-96.845	171.543	0.164	0.231
-95.830	558.798	0.064	0.152
-94.816	-33.560	0.195	0.106
-93.801	800.000	-0.053	0.169
-92.786	-188.607	0.214	0.003
-91.772	314.105	0.104	0.192
-90.757	3.010	0.425	0.304
-89.743	800.000	-0.040	-0.165
-88.728	94.373	-0.081	0.090
-87.713	-11.409	-0.052	0.033
-86.699	800.000	-0.078	-0.238
-85.684	-159.707	-0.236	-0.013
-84.670	150.814	-0.155	-0.207
-83.655	-47.796	0.159	-0.076
-82.640	92.069	0.164	-0.181
-81.626	-180.151	0.319	0.007
-80.611	90.940	-0.133	0.146
-79.597	-101.985	-0.127	-0.030
-78.582	-86.554	0.078	0.023
-77.567	-146.559	-0.234	0.020
-76.553	-144.517	-0.236	-0.021
-75.538	531.472	-0.090	-0.210
-74.524	-132.545	-0.250	0.032
-73.509	-33.189	-0.308	0.168
-72.494	-99.718	0.221	0.055
-71.480	-147.796	-0.024	-0.002
-70.465	209.648	-0.167	-0.258
-69.451	37.207	-0.232	0.202
-68.436	7.187	0.153	-0.112
-67.422	301.692	-0.099	0.179
-66.407	-200.000	0.037	0.179
-65.392	17.250	0.058	0.045
-64.378	800.000	-0.054	0.174
-63.363	800.000	0.069	0.247
-62.349	-132.745	-0.152	-0.019
-61.334	49.407	-0.977	-0.903
-60.319	-26.284	0.221	0.127
-59.305	371.445	-0.428	-0.852
-58.290	341.508	0.499	0.957
-57.276	433.292	0.587	1.250
-56.261	-200.000	95.038	595.577
-55.246	579.000	1361.306	3270.881
-54.232	162.412	2547.012	3506.256
-53.217	107.359	2264.340	2643.335
-52.203	41.678	1891.816	1682.346
-51.188	35.352	1682.764	1448.791
-50.173	32.660	1638.291	1390.616
-49.159	50.289	1684.745	1562.220
-48.144	52.115	1700.795	1590.678
-47.130	35.103	1661.527	1428.423
-46.115	32.347	1647.034	1395.489
-45.100	32.187	1642.761	1390.629
-44.086	32.079	1639.976	1387.423
-43.071	32.105	1637.517	1385.480
-42.057	32.004	1635.149	1382.672
-41.042	32.048	1633.359	1381.427
-40.027	32.093	1631.225	1379.898
-39.013	32.011	1629.443	1377.740
-37.998	31.974	1627.917	1376.119
-36.984	32.066	1626.541	1375.580
-35.969	32.215	1625.013	1375.319
-34.954	32.206	1623.195	1373.661
-33.940	32.171	1621.461	1371.882
-32.925	32.070	1620.237	1370.053
-31.911	32.162	1617.823	1368.631
-30.896	32.133	1616.194	1366.992
-29.881	32.173	1614.580	1365.860
-28.867	32.232	1612.835	1364.759
-27.852	32.140	1611.628	1363.017
-26.838	32.162	1609.971	1361.717
-25.823	32.168	1608.221	1360.231
-24.809	32.164	1607.791	1359.782
-23.794	32.152	1606.044	1358.164
-22.779	32.344	1604.411	1358.116
-21.765	32.174	1603.045	1355.681
-20.750	32.205	1601.323	1354.394
-19.736	32.139	1600.403	1353.086
-18.721	32.310	1598.333	1352.513
-17.706	32.158	1597.323	1350.506
-16.692	32.181	1595.753	1349.292
-15.677	32.168	1594.208	1347.843
-14.663	32.257	1592.946	1347.360
-13.648	32.253	1591.270	1345.858
-12.633	32.251	1590.167	1344.857
-11.619	32.240	1588.320	1343.167
-10.604	32.185	1586.668	1341.318
-9.590	32.184	1585.788	1340.516
-8.575	32.256	1584.172	1339.608
-7.560	32.189	1583.484	1338.496
-6.546	32.217	1582.171	1337.531
-5.531	32.175	1580.942	1336.144
-4.517	32.281	1579.089	1335.281
-3.502	32.256	1578.164	1334.262
-2.487	32.265	1576.727	1333.063
-1.473	32.010	1564.928	1321.240
-0.458	29.268	1546.751	1286.724
0.556	26.457	1547.620	1257.649
1.571	24.367	1571.187	1261.918
2.586	23.982	1584.568	1269.804
3.600	21.478	1531.619	1209.973
4.615	12.378	1421.321	1064.060
5.629	3.811	1356.070	961.989
6.644	2.229	1347.600	946.110
7.659	2.224	1345.732	944.686
8.673	2.140	1344.966	943.543
9.688	1.967	1343.333	941.248
10.702	1.785	1340.220	937.859
11.717	5.379	1347.049	964.769
12.731	15.456	1366.090	1041.109
13.746	24.048	1380.714	1105.777
14.761	26.262	1383.465	1121.649
15.775	26.718	1383.543	1124.443
16.790	26.795	1382.905	1124.304
17.804	26.874	1382.300	1124.196
18.819	27.009	1382.646	1125.216
19.834	27.212	1381.431	1125.384
20.848	27.120	1381.054	1124.410
21.863	27.234	1380.165	1124.293
22.877	27.173	1379.382	1123.180
23.892	27.230	1378.337	1122.581
24.907	27.263	1377.358	1121.883
25.921	27.184	1376.671	1120.741
26.936	27.216	1375.635	1119.994
27.950	27.166	1374.696	1118.822
28.965	27.186	1373.724	1118.057
29.980	27.231	1372.210	1117.000
30.994	27.166	1370.616	1115.206
32.009	27.226	1369.888	1114.885
33.023	27.162	1368.529	1113.290
34.038	27.162	1367.623	1112.452
35.053	27.124	1366.765	1111.423
36.067	27.238	1365.340	1110.862
37.082	27.120	1364.886	1109.671
38.096	27.140	1363.953	1108.937
39.111	27.215	1363.257	1108.733
40.126	27.136	1362.609	1107.624
41.140	27.213	1361.712	1107.268
42.155	27.205	1361.469	1106.924
43.169	27.168	1361.576	1106.688
44.184	27.109	1361.487	1106.155
45.199	27.210	1360.603	1105.956
46.213	27.181	1360.225	1105.377
47.228	27.198	1359.427	1104.731
48.242	27.290	1357.675	1103.767
49.257	27.151	1356.110	1101.556
50.271	27.102	1355.470	1100.644
51.286	27.152	1353.993	1099.650
52.301	27.175	1352.308	1098.324
53.315	27.139	1351.730	1097.539
54.330	27.213	1350.883	1097.200
55.344	27.312	1349.618	1096.673
56.359	27.190	1348.859	1095.219
57.374	27.181	1348.185	1094.525
58.388	27.152	1347.743	1093.893
59.403	27.147	1346.845	1093.036
60.417	27.149	1346.378	1092.573
61.432	27.141	1345.867	1092.016
62.447	27.243	1344.538	1091.450
63.461	27.203	1343.501	1090.276
64.476	27.172	1342.526	1089.201
65.490	27.268	1341.423	1088.782
66.505	27.140	1340.292	1087.006
67.520	27.219	1338.608	1086.016
68.534	27.198	1337.903	1085.221
69.549	27.213	1336.868	1084.377
70.563	27.318	1336.091	1084.274
71.578	27.394	1334.794	1083.577
72.593	27.248	1334.258	1082.178
73.607	27.196	1333.759	1081.369
74.622	27.283	1332.985	1081.162
75.636	27.255	1332.019	1080.118
76.651	27.289	1331.381	1079.707
77.666	27.276	1331.255	1079.433
78.680	27.141	1331.164	1078.458
79.695	27.314	1329.273	1077.858
80.709	27.180	1329.222	1076.930
81.724	27.185	1328.342	1076.147
82.739	27.188	1327.525	1075.411
83.753	27.195	1326.600	1074.606
84.768	27.272	1325.112	1073.758
85.782	27.321	1323.786	1072.877
86.797	27.276	1322.921	1071.820
87.812	27.343	1321.790	1071.203
88.826	27.300	1320.960	1070.182
89.841	27.262	1320.130	1069.190
90.855	27.308	1319.309	1068.699
91.870	27.273	1317.970	1067.316
92.884	27.296	1317.192	1066.726
93.899	27.226	1316.667	1065.797
94.914	27.247	1316.008	1065.290
95.928	27.170	1315.249	1064.135
96.943	27.263	1314.419	1063.910
97.957	27.137	1314.427	1063.089
98.972	27.285	1312.668	1062.437
99.987	27.310	1311.690	1061.693
101.001	27.209	1310.704	1060.215
102.016	27.315	1310.177	1060.310
103.030	27.227	1309.270	1058.970
104.045	27.219	1308.436	1058.156
105.060	27.322	1307.181	1057.645
106.074	27.208	1306.515	1056.355
107.089	27.404	1304.965	1056.146
108.103	27.383	1304.117	1055.239
109.118	27.406	1303.159	1054.505
110.133	27.352	1302.243	1053.360
111.147	27.341	1301.176	1052.336
112.162	27.331	1299.719	1051.011
113.176	27.395	1299.025	1050.725
114.191	27.373	1298.388	1049.989
115.206	27.372	1297.095	1048.844
116.220	27.341	1295.852	1047.566
117.235	27.480	1294.880	1047.491
118.249	27.305	1294.462	1046.055
119.264	27.393	1293.532	1045.715
120.279	27.366	1292.665	1044.768
121.293	27.419	1292.160	1044.572
122.308	27.339	1291.396	1043.403
123.322	27.426	1290.705	1043.251
124.337	27.424	1289.393	1042.083
125.352	27.510	1288.557	1041.812
126.366	27.586	1287.300	1041.133
127.381	27.475	1286.976	1040.148
128.395	27.391	1285.996	1038.781
129.410	27.544	1284.660	1038.487
130.424	27.592	1283.961	1038.100
131.439	27.423	1283.997	1037.076
132.454	27.279	1283.337	1035.629
133.468	27.289	1282.847	1035.201
134.483	27.451	1281.567	1034.995
135.497	27.495	1280.586	1034.362
136.512	27.281	1280.389	1032.895
137.527	27.355	1278.397	1031.618
138.541	27.407	1277.466	1031.069
139.556	27.418	1276.223	1030.038
140.570	27.392	1275.770	1029.434
141.585	27.410	1274.501	1028.423
142.600	27.390	1273.336	1027.280
143.614	27.306	1272.898	1026.361
144.629	27.359	1271.988	1025.834
145.643	27.253	1270.972	1024.328
146.658	27.287	1269.309	1023.089
147.673	27.293	1268.744	1022.575
148.687	27.322	1267.809	1021.891
149.702	27.330	1266.538	1020.821
150.716	27.319	1265.596	1019.910
151.731	27.268	1264.586	1018.723
152.746	27.289	1263.844	1018.153
153.760	27.380	1262.495	1017.482
154.775	27.444	1261.576	1017.008
155.789	27.428	1260.740	1016.155
156.804	27.419	1260.225	1015.602
157.819	27.402	1259.169	1014.564
158.833	27.378	1258.451	1013.763
159.848	27.440	1257.817	1013.509
160.862	27.476	1256.876	1012.860
161.877	27.463	1256.469	1012.371
162.892	27.553	1254.916	1011.532
163.906	27.478	1254.620	1010.787
164.921	27.449	1254.225	1010.219
165.935	27.503	1253.188	1009.592
166.950	27.416	1253.125	1008.973
167.964	27.536	1251.670	1008.375
168.979	27.463	1251.530	1007.769
169.994	27.537	1250.719	1007.434
171.008	27.510	1249.469	1006.190
172.023	27.574	1249.320	1006.331
173.037	27.503	1248.607	1005.278
174.052	27.542	1247.669	1004.648
175.067	27.520	1247.159	1004.027
176.081	27.563	1246.355	1003.529
177.096	27.539	1245.682	1002.767
178.110	27.541	1244.560	1001.784
179.125	27.568	1243.732	1001.181
180.140	27.518	1243.005	1000.231
181.154	27.700	1241.340	999.797
182.169	27.477	1240.586	997.884
183.183	27.587	1239.217	997.292
184.198	27.558	1238.461	996.441
185.213	27.650	1237.734	996.270
186.227	27.557	1237.193	995.235
187.242	27.529	1236.165	994.171
188.256	27.746	1235.149	994.449
189.271	27.751	1233.927	993.401
190.286	27.563	1233.627	992.050
191.300	27.639	1233.107	991.959
192.315	27.624	1232.765	991.511
193.329	27.567	1232.490	990.895
194.344	27.677	1231.610	990.698
195.359	27.604	1231.344	989.999
196.373	27.476	1231.032	988.963
197.388	27.569	1230.428	988.895
198.402	27.527	1230.331	988.505
199.417	27.525	1229.885	988.047
200.432	27.720	1228.751	988.104
201.446	27.612	1228.293	987.066
202.461	27.510	1228.108	986.278
203.475	27.706	1226.540	985.989
204.490	27.594	1225.968	984.839
205.504	27.622	1225.033	984.150
206.519	27.740	1223.818	983.723
207.534	27.585	1222.712	981.914
208.548	27.648	1222.330	981.855
209.563	27.667	1221.264	981.018
210.577	27.680	1220.513	980.396
211.592	27.662	1219.805	979.642
212.607	27.693	1219.184	979.225
213.621	27.705	1218.845	978.931
214.636	27.773	1217.671	978.265
215.650	27.707	1216.950	977.246
216.665	27.810	1215.879	976.850
217.680	27.755	1214.904	975.686
218.694	27.778	1214.359	975.289
219.709	27.804	1213.348	974.529
220.723	27.842	1212.847	974.241
221.738	27.818	1212.178	973.491
222.753	27.772	1211.520	972.630
223.767	27.745	1210.840	971.856
224.782	27.854	1210.342	971.948
225.796	27.860	1210.016	971.633
226.811	27.892	1209.171	971.038
227.826	28.059	1208.183	971.046
228.840	27.703	1208.242	969.117
229.855	27.706	1207.872	968.752
230.869	27.800	1206.820	968.320
231.884	27.942	1205.736	968.114
232.899	27.885	1204.962	967.109
233.913	27.881	1204.805	966.874
234.928	28.140	1203.859	967.398
235.942	27.855	1203.940	965.873
236.957	27.912	1202.831	965.197
237.972	27.882	1202.079	964.353
238.986	27.863	1201.430	963.642
240.001	27.908	1201.003	963.455
241.015	27.903	1200.873	963.237
242.030	28.056	1199.301	962.697
243.045	27.974	1198.894	961.852
244.059	28.052	1197.951	961.424
245.074	28.025	1197.131	960.539
246.088	28.146	1196.350	960.461
247.103	28.098	1195.531	959.468
248.117	28.070	1194.899	958.725
249.132	28.030	1194.209	957.879
250.147	28.114	1193.375	957.568
251.161	28.154	1192.463	956.958
252.176	28.121	1191.788	956.159
253.190	28.069	1191.367	955.466
254.205	28.081	1191.252	955.354
255.220	28.138	1190.177	954.700
256.234	28.090	1189.745	954.024
257.249	28.128	1189.282	953.766
258.263	28.210	1188.084	953.145
259.278	28.119	1188.090	952.590
260.293	28.221	1187.357	952.453
261.307	28.263	1186.659	952.026
262.322	28.149	1186.603	951.302
263.336	28.191	1185.375	950.455
264.351	28.091	1185.417	949.883
265.366	28.127	1184.663	949.381
266.380	28.269	1183.295	948.938
267.395	28.101	1183.289	947.976
268.409	28.156	1182.586	947.617
269.424	28.183	1182.106	947.289
270.439	28.218	1181.428	946.843
271.453	28.258	1180.800	946.462
272.468	28.215	1179.845	945.392
273.482	28.164	1179.174	944.505
274.497	28.199	1179.030	944.487
275.512	28.233	1178.218	943.925
276.526	28.229	1177.658	943.376
277.541	28.242	1176.775	942.649
278.555	28.256	1176.413	942.350
279.570	28.302	1175.735	941.961
280.585	28.334	1174.605	941.134
281.599	28.317	1173.590	940.150
282.614	28.278	1173.094	939.472
283.628	28.238	1172.268	938.519
284.643	28.387	1171.078	938.249
285.657	28.264	1170.710	937.243
286.672	28.269	1169.740	936.407
287.687	28.294	1169.119	935.957
288.701	28.434	1168.347	935.968
289.716	28.423	1167.906	935.477
290.730	28.355	1167.335	934.592
291.745	28.256	1167.177	933.875
292.760	28.477	1166.037	934.005
293.774	28.448	1165.421	933.283
294.789	28.505	1164.738	932.945
295.803	28.444	1164.315	932.212
296.818	28.462	1163.467	931.540
297.833	28.409	1163.052	930.856
298.847	28.388	1162.281	930.052
299.862	28.429	1161.252	929.356
300.876	28.585	1160.870	929.755
301.891	28.477	1160.463	928.799
302.906	28.499	1159.825	928.322
303.920	28.527	1159.505	928.122
304.935	28.481	1158.687	927.154
305.949	28.556	1157.751	926.702
306.964	28.695	1157.039	926.752
307.979	28.758	1156.073	926.214
308.993	28.550	1155.924	924.965
310.008	28.474	1155.567	924.215
311.022	28.643	1154.348	924.007
312.037	28.619	1153.645	923.240
313.052	28.535	1152.846	922.098
314.066	28.541	1152.415	921.703
315.081	28.670	1151.313	921.388
316.095	28.584	1150.777	920.447
317.110	28.668	1149.855	920.046
318.125	28.643	1149.277	919.379
319.139	28.684	1148.749	919.082
320.154	28.764	1148.102	918.880
321.168	28.716	1147.342	917.952
322.183	28.683	1146.937	917.379
323.197	28.766	1146.658	917.493
324.212	28.667	1145.987	916.379
325.227	28.806	1145.518	916.614
326.241	28.783	1145.008	916.011
327.256	28.854	1143.929	915.421
328.270	28.811	1143.409	914.712
329.285	28.755	1142.895	913.940
330.300	28.831	1141.692	913.274
331.314	28.879	1140.939	912.832
332.329	28.835	1140.304	912.023
333.343	28.894	1139.420	911.530
334.358	28.968	1138.687	911.226
335.373	28.839	1138.286	910.185
336.387	28.983	1137.476	910.169
337.402	28.922	1136.984	909.394
338.416	28.845	1136.258	908.354
339.431	28.867	1135.743	907.969
340.446	28.964	1134.927	907.718
341.460	28.943	1134.660	907.321
342.475	28.924	1133.927	906.557
343.489	28.929	1132.449	905.320
344.504	28.973	1131.929	905.043
345.519	28.941	1131.156	904.185
346.533	28.998	1130.253	903.663
347.548	29.017	1129.674	903.215
348.562	28.959	1129.165	902.445
349.577	29.030	1128.369	902.075
350.592	28.939	1127.653	900.979
351.606	28.866	1127.038	900.048
352.621	28.990	1126.677	900.290
353.635	29.019	1126.025	899.828
354.650	28.959	1125.101	898.719
355.665	29.125	1124.583	899.036
356.679	29.174	1123.580	898.393
357.694	29.069	1123.439	897.688
358.708	29.083	1122.701	897.086
359.723	29.085	1122.100	896.537
360.738	29.170	1121.305	896.237
361.752	29.056	1121.268	895.576
362.767	29.280	1120.417	895.901
363.781	29.128	1120.181	894.899
364.796	29.091	1119.650	894.211
365.810	29.146	1118.638	893.595
366.825	29.192	1118.106	893.312
367.840	29.361	1117.510	893.576
368.854	29.293	1117.187	892.909
369.869	29.350	1116.288	892.389
370.883	29.240	1115.557	891.194
371.898	29.331	1115.082	891.173
372.913	29.279	1114.671	890.513
373.927	29.394	1113.788	890.285
374.942	29.434	1113.187	889.919
375.956	29.402	1112.618	889.233
376.971	29.289	1112.506	888.521
377.986	29.174	1112.368	887.776
379.000	29.415	1111.263	887.974
380.015	29.649	1110.134	888.120
381.029	29.437	1109.751	886.718
382.044	29.437	1109.317	886.289
383.059	29.347	1108.838	885.397
384.073	29.346	1108.550	885.084
385.088	29.422	1107.004	884.135
386.102	29.467	1106.232	883.654
387.117	29.392	1105.511	882.641
388.132	29.369	1104.909	881.976
389.146	29.454	1104.124	881.677
390.161	29.524	1103.621	881.533
391.175	29.508	1103.025	880.899
392.190	29.532	1102.064	880.171
393.205	29.472	1101.533	879.380
394.219	29.597	1100.715	879.246
395.234	29.509	1100.092	878.252
396.248	29.534	1099.279	877.643
397.263	29.651	1098.433	877.444
398.278	29.628	1097.758	876.720
399.292	29.583	1097.441	876.176
400.307	29.653	1096.711	875.846
401.321	29.677	1095.960	875.284
402.336	29.534	1095.434	874.112
403.350	29.695	1094.515	874.059
404.365	29.673	1094.117	873.560
405.380	29.752	1093.437	873.313
406.394	29.785	1092.550	872.687
407.409	29.757	1092.058	872.083
408.423	29.806	1091.364	871.680
409.438	29.807	1090.878	871.222
410.453	29.773	1090.201	870.441
411.467	29.770	1089.323	869.654
412.482	29.750	1088.703	868.984
413.496	29.790	1088.222	868.713
414.511	29.802	1087.199	867.876
415.526	29.942	1086.929	868.241
416.540	29.797	1086.898	867.460
417.555	29.813	1086.225	866.916
418.569	29.945	1085.747	867.081
419.584	29.807	1085.143	865.873
420.599	29.894	1084.780	865.913
421.613	104.497	1322.071	1458.249
422.628	97.274	1356.611	1458.366
