DTS Sentinel unit serial number:	SN413079Multiplexer serial number:	ORYXHardware model number:	OX4-SRSoftware version number:	ORYX F/W v4.00 Oryx Data Collector v3.7.2.0data status	okinstallation	princeton_trtdifferential loss correction	single-endedforward channel	channel 2reverse channel	N/Adate	2019/09/17time	12:19:34forward acquisition time	60.00reverse acquisition time	0.00gamma	496.2192k internal	0.2322k external	0.2322temperature offset calibration	0.9986default loss term (dB/km)	0.3790temperature slope calibration	1.0000multiplexer offset coefficient	1.0000multiplexer slope coefficient	1.0000fibre end	0.00T internal ref (°C)	31.56T ext. ref 1 (°C)	0.44T ext. ref 2 (°C)	28.40length (m)	temperature (°C)	Stokes	anti-Stokes-747.200	-10.889	0.274	0.183
-746.185	780.164	-0.066	0.183
-745.171	336.659	0.111	0.217
-744.156	-68.232	-0.422	0.166
-743.142	0.563	-0.100	0.072
-742.127	-16.956	-0.195	0.124
-741.112	187.006	0.155	0.233
-740.098	-200.000	-0.032	0.483
-739.083	240.001	0.207	0.348
-738.069	452.503	0.213	0.476
-737.054	-152.321	0.127	0.009
-736.039	55.266	-0.139	-0.136
-735.025	132.421	0.217	0.283
-734.010	42.420	-0.134	-0.123
-732.996	-100.332	-0.236	0.059
-731.981	120.455	0.057	-0.071
-730.966	427.032	0.231	0.502
-729.952	-200.000	-0.002	-0.232
-728.937	-200.000	-0.001	-0.153
-727.923	800.000	-0.070	-0.209
-726.908	271.909	0.156	0.277
-725.894	-200.000	-0.005	0.041
-724.879	-91.196	0.342	-0.099
-723.864	-200.000	0.045	-0.209
-722.850	-58.415	-0.050	-0.022
-721.835	-200.000	-0.079	0.408
-720.821	-200.000	-0.001	-0.228
-719.806	-110.264	0.271	0.057
-718.791	49.491	-0.195	-0.185
-717.777	622.662	0.023	0.059
-716.762	144.413	-0.047	0.063
-715.748	800.000	0.088	-0.259
-714.733	57.091	0.107	-0.106
-713.718	243.240	0.048	-0.081
-712.704	-95.132	0.123	0.033
-711.689	800.000	0.032	0.129
-710.675	-200.000	-0.010	-0.153
-709.660	18.630	0.266	0.215
-708.645	-167.730	0.116	0.005
-707.631	-126.956	0.325	-0.048
-706.616	-99.220	-0.199	0.051
-705.602	-132.063	0.141	-0.018
-704.587	800.000	0.076	-0.281
-703.572	-4.796	0.103	-0.071
-702.558	-80.844	-0.109	0.037
-701.543	117.299	-0.226	-0.280
-700.529	36.574	0.195	-0.174
-699.514	424.363	0.076	-0.165
-698.499	-161.688	0.282	-0.014
-697.485	-58.795	0.249	0.109
-696.470	130.295	-0.060	0.077
-695.456	61.508	0.053	0.053
-694.441	118.847	0.313	-0.390
-693.426	800.000	-0.066	-0.275
-692.412	224.392	0.026	-0.042
-691.397	-200.000	-0.045	-0.239
-690.383	800.000	0.021	-0.091
-689.368	800.000	-0.061	-0.183
-688.354	-200.000	0.004	0.298
-687.339	800.000	0.031	0.130
-686.324	-18.455	0.254	-0.160
-685.310	-49.189	0.156	0.075
-684.295	-94.256	-0.178	0.049
-683.281	383.076	-0.131	-0.271
-682.266	-79.107	0.239	0.082
-681.251	-47.693	0.114	-0.056
-680.237	116.778	-0.410	-0.508
-679.222	126.231	-0.174	-0.222
-678.208	-200.000	-0.031	-0.257
-677.193	373.883	0.123	0.251
-676.178	-200.000	-0.066	0.310
-675.164	110.307	-0.317	-0.384
-674.149	157.892	-0.112	0.157
-673.135	-116.892	0.087	-0.016
-672.120	49.232	0.247	0.233
-671.105	-200.000	0.020	-0.115
-670.091	-21.708	-0.145	-0.089
-669.076	-120.731	0.334	0.057
-668.062	-200.000	0.004	0.280
-667.047	-113.241	-0.299	0.059
-666.032	365.526	0.138	-0.280
-665.018	-38.218	-0.262	-0.140
-664.003	41.550	0.094	0.086
-662.989	-72.155	0.092	0.034
-661.974	800.000	0.028	0.114
-660.959	-115.148	0.279	0.053
-659.945	-200.000	0.071	-0.372
-658.930	800.000	-0.014	-0.050
-657.916	30.749	0.184	-0.159
-656.901	-200.000	0.004	-0.079
-655.886	-200.000	-0.029	-0.198
-654.872	137.861	0.262	-0.346
-653.857	-200.000	-0.018	0.176
-652.843	-156.147	-0.337	0.021
-651.828	-200.000	-0.059	0.366
-650.814	55.884	0.105	0.103
-649.799	108.216	0.099	-0.118
-648.784	800.000	0.092	0.357
-647.770	-33.533	0.135	0.075
-646.755	209.724	-0.041	0.065
-645.741	-18.961	0.120	-0.075
-644.726	-114.661	0.181	0.035
-643.711	-68.386	-0.088	-0.034
-642.697	32.138	-0.178	0.155
-641.682	102.080	0.261	-0.306
-640.668	-99.804	0.130	0.033
-639.653	-123.437	-0.267	0.043
-638.638	61.329	-0.169	0.169
-637.624	800.000	0.066	0.235
-636.609	-200.000	0.037	-0.277
-635.595	11.415	0.072	-0.055
-634.580	78.662	-0.224	0.240
-633.565	-128.737	-0.256	0.036
-632.551	-106.141	-0.270	0.061
-631.536	-43.446	-0.127	0.065
-630.522	61.708	0.125	0.125
-629.507	-136.748	0.211	0.025
-628.492	184.895	-0.368	0.549
-627.478	-143.042	0.184	-0.018
-626.463	25.207	0.047	-0.039
-625.449	81.084	-0.090	-0.098
-624.434	800.000	0.061	-0.186
-623.419	800.000	-0.034	0.122
-622.405	800.000	-0.026	-0.081
-621.390	39.286	0.116	-0.105
-620.376	-1.749	0.036	0.025
-619.361	-200.000	-0.015	-0.240
-618.346	-70.197	-0.249	0.095
-617.332	800.000	-0.124	-0.479
-616.317	-45.550	-0.082	-0.041
-615.303	-200.000	0.017	0.085
-614.288	7.321	-0.376	0.282
-613.273	2.627	0.150	0.109
-612.259	800.000	-0.089	-0.288
-611.244	-153.085	-0.270	-0.019
-610.230	-28.144	-0.214	-0.124
-609.215	-5.475	-0.119	0.082
-608.201	114.193	-0.098	-0.120
-607.186	-127.996	-0.418	0.060
-606.171	-40.600	0.180	0.094
-605.157	168.038	0.094	-0.135
-604.142	-200.000	0.009	0.208
-603.128	111.112	-0.130	-0.157
-602.113	532.188	-0.169	-0.402
-601.098	212.129	-0.191	0.303
-600.084	800.000	-0.096	0.362
-599.069	-200.000	-0.056	0.304
-598.055	-200.000	0.011	0.188
-597.040	300.703	0.072	0.134
-596.025	800.000	-0.058	0.184
-595.011	453.098	0.091	0.202
-593.996	536.399	-0.063	-0.150
-592.982	-200.000	-0.010	0.232
-591.967	-200.000	-0.014	0.089
-590.952	-50.837	-0.046	0.022
-589.938	519.357	-0.121	-0.286
-588.923	-158.134	0.232	0.014
-587.909	-29.572	-0.430	0.247
-586.894	-182.313	0.252	-0.005
-585.879	211.446	-0.109	0.172
-584.865	800.000	-0.018	0.058
-583.850	696.066	-0.070	0.185
-582.836	800.000	0.121	-0.364
-581.821	89.065	0.279	-0.312
-580.806	46.200	-0.058	0.054
-579.792	-100.918	0.100	-0.025
-578.777	290.592	-0.221	-0.403
-577.763	188.978	-0.118	-0.178
-576.748	-61.822	0.110	-0.046
-575.733	-172.753	-0.201	0.006
-574.719	300.082	-0.166	-0.307
-573.704	-42.228	0.074	-0.038
-572.690	-10.519	-0.190	-0.126
-571.675	39.114	-0.156	-0.140
-570.661	236.821	0.102	-0.170
-569.646	300.445	0.065	-0.120
-568.631	-167.497	-0.215	0.009
-567.617	329.774	-0.027	0.052
-566.602	51.415	-0.182	-0.173
-565.588	-78.608	-0.178	0.061
-564.573	-200.000	0.005	0.213
-563.558	-200.000	0.040	0.188
-562.544	55.852	0.187	-0.182
-561.529	-70.420	0.258	-0.098
-560.515	-122.198	-0.306	-0.050
-559.500	26.863	0.128	0.108
-558.485	-153.030	0.149	-0.010
-557.471	-200.000	0.014	0.147
-556.456	-0.405	-0.038	0.027
-555.442	-124.638	-0.252	0.039
-554.427	170.764	-0.234	-0.337
-553.412	387.635	-0.072	-0.148
-552.398	-200.000	0.005	-0.204
-551.383	-128.833	0.291	0.041
-550.369	-8.675	-0.140	0.094
-549.354	58.103	-0.166	-0.163
-548.339	-61.643	-0.339	-0.142
-547.325	-128.908	0.366	0.052
-546.310	629.841	0.098	-0.249
-545.296	-87.229	-0.202	-0.061
-544.281	-31.109	0.315	-0.178
-543.266	800.000	-0.033	-0.139
-542.252	-107.833	-0.344	-0.075
-541.237	-151.177	-0.214	0.016
-540.223	-200.000	0.061	0.311
-539.208	-44.316	-0.256	0.128
-538.193	-103.099	0.214	0.051
-537.179	378.462	-0.232	-0.475
-536.164	47.423	-0.274	0.256
-535.150	703.190	0.089	-0.236
-534.135	463.675	0.120	0.268
-533.121	101.929	-0.284	-0.332
-532.106	160.572	-0.088	-0.123
-531.091	-1.202	0.259	-0.183
-530.077	-62.852	-0.137	-0.057
-529.062	431.251	0.023	-0.051
-528.048	-200.000	-0.009	0.159
-527.033	-77.989	-0.128	0.044
-526.018	-200.000	-0.012	0.202
-525.004	-200.000	-0.006	-0.103
-523.989	-134.794	0.115	0.014
-522.975	218.407	0.078	-0.124
-521.960	-200.000	-0.004	-0.247
-520.945	614.295	0.036	-0.090
-519.931	-55.224	0.230	-0.104
-518.916	-27.828	0.427	-0.248
-517.902	-138.415	0.367	0.041
-516.887	207.661	0.032	-0.049
-515.872	63.959	-0.192	0.193
-514.858	58.359	0.023	-0.023
-513.843	32.582	-0.109	-0.094
-512.829	70.338	0.254	0.263
-511.814	-20.966	-0.100	-0.061
-510.799	-5.786	0.153	0.105
-509.785	-104.891	-0.313	0.072
-508.770	401.214	0.109	0.230
-507.756	-200.000	-0.006	0.060
-506.741	-119.192	0.237	-0.041
-505.726	-7.356	-0.018	-0.012
-504.712	-112.958	0.366	-0.072
-503.697	-91.789	-0.199	-0.056
-502.683	2.419	0.221	0.160
-501.668	-75.554	-0.255	0.091
-500.653	39.241	-0.192	-0.172
-499.639	-200.000	0.006	-0.146
-498.624	-98.900	0.266	-0.068
-497.610	-122.523	0.359	0.058
-496.595	-121.241	-0.374	-0.063
-495.581	62.079	-0.270	0.269
-494.566	727.206	-0.032	0.085
-493.551	766.196	-0.086	-0.234
-492.537	-33.191	-0.365	-0.202
-491.522	-27.032	0.154	-0.090
-490.508	-47.577	0.229	-0.111
-489.493	51.965	0.175	0.167
-488.478	-111.725	0.077	0.016
-487.464	119.642	-0.093	-0.115
-486.449	-38.253	-0.088	-0.047
-485.435	-20.048	-0.171	0.106
-484.420	111.846	0.133	-0.161
-483.405	-109.980	-0.192	0.040
-482.391	48.978	0.204	0.191
-481.376	79.810	-0.080	-0.086
-480.362	5.968	-0.139	0.103
-479.347	26.702	-0.048	-0.040
-478.332	-32.418	0.130	-0.072
-477.318	272.601	0.067	-0.119
-476.303	800.000	0.065	-0.219
-475.289	-200.000	0.027	0.242
-474.274	25.206	0.098	-0.081
-473.259	-200.000	-0.064	0.399
-472.245	-76.028	-0.046	0.016
-471.230	-182.932	-0.176	0.003
-470.216	628.708	-0.040	-0.102
-469.201	139.393	0.139	-0.183
-468.186	-35.887	-0.037	0.020
-467.172	435.020	-0.179	0.390
-466.157	800.000	-0.042	-0.171
-465.143	-3.155	-0.181	0.126
-464.128	-22.804	0.173	-0.104
-463.113	-57.541	-0.041	0.018
-462.099	-74.049	0.395	-0.143
-461.084	-79.896	0.086	0.029
-460.070	-200.000	0.065	-0.338
-459.055	-200.000	-0.020	-0.165
-458.040	-11.246	0.183	0.120
-457.026	534.596	0.154	-0.365
-456.011	168.605	-0.085	-0.121
-454.997	721.329	-0.116	0.308
-453.982	-176.754	-0.043	0.001
-452.968	-2.995	0.263	-0.183
-451.953	-98.282	0.135	-0.035
-450.938	9.812	0.082	-0.062
-449.924	-200.000	-0.030	-0.154
-448.909	307.425	0.067	-0.125
-447.895	459.240	-0.082	0.181
-446.880	207.457	-0.247	0.385
-445.865	-140.445	-0.189	-0.020
-444.851	-67.734	0.271	-0.106
-443.836	-83.954	0.220	0.070
-442.822	-84.650	0.048	-0.015
-441.807	-84.313	-0.340	0.107
-440.792	-70.268	0.114	0.043
-439.778	238.467	0.142	-0.236
-438.763	800.000	-0.022	0.065
-437.749	11.880	-0.188	0.145
-436.734	-200.000	0.043	-0.208
-435.719	800.000	0.030	0.090
-434.705	187.993	0.184	-0.275
-433.690	552.651	0.117	-0.281
-432.676	-72.604	0.149	-0.055
-431.661	-200.000	0.003	0.094
-430.646	-7.287	0.126	-0.085
-429.632	92.388	0.046	0.052
-428.617	-19.121	0.320	0.199
-427.603	118.760	-0.188	-0.231
-426.588	36.208	0.052	-0.046
-425.573	-200.000	0.038	-0.256
-424.559	-55.774	0.375	0.167
-423.544	-114.641	-0.184	-0.035
-422.530	-98.420	-0.381	-0.097
-421.515	800.000	0.083	-0.246
-420.500	730.172	-0.022	-0.058
-419.486	51.182	0.287	-0.272
-418.471	-176.729	0.211	0.005
-417.457	710.262	0.138	0.364
-416.442	321.469	-0.106	0.202
-415.428	797.493	-0.061	0.168
-414.413	34.029	0.182	0.158
-413.398	-131.939	0.145	-0.019
-412.384	-71.035	0.185	-0.069
-411.369	-90.816	-0.187	-0.054
-410.355	72.028	-0.198	-0.205
-409.340	-200.000	-0.075	-0.415
-408.325	83.087	-0.234	-0.254
-407.311	800.000	0.104	-0.350
-406.296	-118.042	-0.036	-0.006
-405.282	-8.265	0.136	-0.092
-404.267	800.000	0.104	-0.388
-403.252	-50.380	-0.106	0.050
-402.238	-24.875	0.263	-0.156
-401.223	73.108	-0.014	-0.015
-400.209	-187.537	-0.232	-0.003
-399.194	31.504	0.149	-0.127
-398.179	44.589	0.361	0.330
-397.165	-200.000	-0.026	-0.129
-396.150	-136.757	-0.197	0.023
-395.136	56.879	0.157	-0.152
-394.121	800.000	0.097	0.358
-393.106	381.829	-0.118	0.242
-392.092	-200.000	0.006	0.238
-391.077	504.924	-0.048	-0.111
-390.063	800.000	0.099	0.334
-389.048	529.627	-0.035	-0.081
-388.033	37.682	0.093	-0.082
-387.019	-98.607	0.099	0.025
-386.004	800.000	-0.073	0.205
-384.990	-191.487	0.125	0.001
-383.975	-173.698	-0.061	0.002
-382.960	-200.000	0.064	0.362
-381.946	-69.618	0.352	-0.134
-380.931	800.000	0.039	0.125
-379.917	-200.000	0.006	0.231
-378.902	293.379	-0.063	0.115
-377.888	16.814	0.153	0.121
-376.873	309.493	0.090	-0.168
-375.858	48.851	-0.057	0.054
-374.844	199.102	-0.160	0.244
-373.829	93.363	-0.185	-0.209
-372.815	-76.679	0.038	0.013
-371.800	-83.507	0.228	0.073
-370.785	-200.000	-0.013	-0.136
-369.771	800.000	-0.084	0.314
-368.756	-36.658	0.278	0.149
-367.742	268.285	0.211	-0.368
-366.727	-54.080	0.222	-0.100
-365.712	12.887	-0.338	-0.260
-364.698	264.696	-0.098	-0.170
-363.683	-200.000	0.028	-0.312
-362.669	33.871	0.125	0.108
-361.654	800.000	-0.045	-0.145
-360.639	-67.859	0.132	0.051
-359.625	94.710	0.110	-0.124
-358.610	120.518	-0.269	-0.332
-357.596	143.550	0.081	-0.107
-356.581	-69.799	-0.176	-0.067
-355.566	-116.696	0.255	-0.047
-354.552	19.549	-0.120	-0.096
-353.537	-21.025	0.246	0.150
-352.523	-98.923	0.182	-0.046
-351.508	-114.107	0.257	0.049
-350.493	-200.000	0.001	0.082
-349.479	-50.791	-0.282	0.132
-348.464	49.189	0.221	0.206
-347.450	-84.891	-0.153	0.048
-346.435	-143.692	0.362	-0.034
-345.420	800.000	-0.025	0.082
-344.406	159.913	0.069	0.095
-343.391	-121.764	-0.370	0.061
-342.377	44.347	0.242	-0.221
-341.362	183.055	0.044	-0.064
-340.348	800.000	-0.037	-0.107
-339.333	-102.392	0.179	0.043
-338.318	-200.000	0.017	-0.095
-337.304	-130.122	0.282	-0.038
-336.289	488.780	-0.118	0.267
-335.275	-200.000	-0.008	0.290
-334.260	-200.000	-0.005	0.101
-333.245	36.974	-0.015	0.013
-332.231	149.853	-0.138	0.186
-331.216	-100.171	-0.184	-0.045
-330.202	251.562	0.073	-0.123
-329.187	-66.047	-0.373	0.148
-328.172	-0.527	-0.204	-0.144
-327.158	-200.000	-0.044	-0.421
-326.143	-200.000	0.007	-0.061
-325.129	800.000	0.150	0.503
-324.114	800.000	-0.038	0.135
-323.099	110.990	-0.081	-0.097
-322.085	-91.151	-0.333	0.095
-321.070	-60.768	0.191	0.080
-320.056	-98.993	0.330	-0.083
-319.041	800.000	0.020	-0.076
-318.026	-138.784	-0.166	0.018
-317.012	88.383	-0.223	0.247
-315.997	800.000	-0.043	0.160
-314.983	408.287	-0.129	0.271
-313.968	-76.887	-0.137	0.048
-312.953	206.361	0.150	-0.231
-311.939	-88.422	0.268	-0.080
-310.924	-25.580	0.166	0.097
-309.910	-142.576	0.210	-0.020
-308.895	698.641	-0.103	-0.270
-307.880	800.000	0.048	-0.176
-306.866	-8.959	-0.269	0.179
-305.851	46.238	0.180	-0.165
-304.837	267.202	0.187	0.325
-303.822	287.623	0.214	0.384
-302.807	-128.840	-0.241	0.034
-301.793	-200.000	-0.007	-0.163
-300.778	-34.609	0.515	-0.280
-299.764	-117.800	-0.129	0.023
-298.749	-36.070	-0.242	-0.130
-297.735	-100.607	0.319	0.078
-296.720	-8.288	0.204	-0.137
-295.705	-200.000	-0.011	-0.061
-294.691	97.206	0.319	-0.364
-293.676	-51.838	0.165	0.076
-292.662	-76.798	0.256	-0.089
-291.647	59.718	0.143	0.140
-290.632	114.986	0.103	0.125
-289.618	46.989	-0.202	0.187
-288.603	-200.000	-0.021	0.132
-287.589	196.210	0.020	-0.031
-286.574	-26.518	-0.185	-0.107
-285.559	304.411	-0.103	0.190
-284.545	-200.000	-0.010	-0.088
-283.530	-200.000	-0.003	0.363
-282.516	249.000	-0.070	0.117
-281.501	-72.193	-0.221	-0.081
-280.486	130.831	-0.298	-0.379
-279.472	-84.236	-0.203	-0.064
-278.457	-94.676	0.168	-0.045
-277.443	-107.513	0.113	0.025
-276.428	800.000	-0.163	0.476
-275.413	-87.353	-0.258	0.078
-274.399	-60.110	0.354	-0.150
-273.384	-200.000	0.007	0.166
-272.370	-15.937	-0.373	0.235
-271.355	800.000	0.067	0.225
-270.340	323.543	-0.158	-0.299
-269.326	156.158	-0.051	-0.069
-268.311	101.125	0.114	-0.132
-267.297	681.912	-0.077	0.198
-266.282	70.116	0.345	0.354
-265.267	-112.874	0.187	0.037
-264.253	-200.000	-0.003	0.020
-263.238	321.131	-0.063	-0.118
-262.224	-131.907	0.090	0.012
-261.209	212.897	0.226	0.354
-260.195	-52.245	-0.064	0.030
-259.180	138.356	-0.290	-0.377
-258.165	800.000	0.066	0.229
-257.151	258.181	-0.158	-0.269
-256.136	-184.327	0.148	0.002
-255.122	244.939	0.105	0.175
-254.107	-200.000	0.033	-0.226
-253.092	-200.000	0.157	0.000
-252.078	161.019	0.188	-0.260
-251.063	-88.996	-0.122	0.036
-250.049	509.632	0.106	-0.243
-249.034	40.760	0.163	0.146
-248.019	-200.000	0.011	-0.062
-247.005	254.337	-0.101	-0.171
-245.990	314.368	0.063	-0.117
-244.976	271.592	-0.151	-0.263
-243.961	-92.393	0.292	0.081
-242.946	274.465	0.038	0.067
-241.932	-0.210	-0.016	0.011
-240.917	-96.766	0.414	0.108
-239.903	23.669	-0.321	-0.261
-238.888	-161.424	0.129	0.007
-237.873	800.000	-0.063	-0.181
-236.859	-109.205	0.502	0.106
-235.844	391.392	-0.153	0.314
-234.830	-100.653	0.153	-0.037
-233.815	-54.522	-0.161	-0.072
-232.800	-125.193	-0.201	-0.030
-231.786	-179.794	-0.342	0.007
-230.771	262.060	0.171	0.293
-229.757	-123.188	0.097	-0.015
-228.742	-93.338	-0.326	-0.090
-227.727	-183.162	-0.185	-0.003
-226.713	800.000	-0.064	0.256
-225.698	-200.000	0.069	-0.428
-224.684	-157.520	0.428	0.025
-223.669	-200.000	0.080	-0.367
-222.655	614.402	-0.080	0.198
-221.640	166.116	-0.055	-0.077
-220.625	-200.000	-0.025	-0.303
-219.611	-97.299	-0.160	-0.041
-218.596	-32.186	0.249	0.138
-217.582	-101.213	0.213	0.052
-216.567	77.108	-0.403	0.424
-215.552	-200.000	0.046	0.232
-214.538	-200.000	-0.011	0.075
-213.523	-15.609	0.371	0.234
-212.509	-139.771	-0.088	0.009
-211.494	-66.648	-0.223	-0.087
-210.479	-73.987	0.225	0.081
-209.465	-200.000	-0.068	0.396
-208.450	-200.000	-0.012	0.242
-207.436	-200.000	0.008	0.054
-206.421	402.180	-0.142	0.295
-205.406	88.245	0.096	-0.105
-204.392	3.447	0.329	-0.237
-203.377	-180.932	0.165	0.003
-202.363	-134.377	-0.151	0.018
-201.348	185.129	-0.115	-0.168
-200.333	261.948	-0.185	0.316
-199.319	800.000	0.061	0.261
-198.304	-94.788	-0.278	-0.075
-197.290	19.814	0.160	0.128
-196.275	17.006	0.108	0.085
-195.260	9.444	-0.243	-0.182
-194.246	-200.000	-0.040	-0.177
-193.231	-155.402	0.357	0.023
-192.217	-113.664	0.332	0.064
-191.202	-45.772	-0.297	-0.145
-190.187	-178.007	-0.413	-0.010
-189.173	-74.344	-0.343	-0.122
-188.158	604.006	0.087	0.214
-187.144	-200.000	0.028	0.157
-186.129	-13.222	-0.263	0.169
-185.114	-200.000	-0.030	0.315
-184.100	800.000	0.090	-0.362
-183.085	-174.894	-0.378	-0.010
-182.071	-1.272	0.191	-0.133
-181.056	178.633	-0.119	0.172
-180.042	39.176	0.199	-0.176
-179.027	-84.178	0.223	-0.070
-178.012	130.915	-0.208	-0.264
-176.998	181.364	0.056	0.082
-175.983	-92.124	0.081	-0.023
-174.969	-40.181	-0.092	0.047
-173.954	674.400	-0.132	0.339
-172.939	-200.000	-0.011	0.294
-171.925	-89.328	-0.370	0.108
-170.910	-200.000	-0.036	0.364
-169.896	2.587	0.337	0.241
-168.881	-124.005	-0.112	0.017
-167.866	167.368	-0.102	0.143
-166.852	-115.563	0.122	0.023
-165.837	20.268	-0.210	-0.168
-164.823	-200.000	0.008	0.234
-163.808	155.582	-0.101	-0.137
-162.793	-7.630	-0.130	0.086
-161.779	163.376	-0.046	-0.064
-160.764	-66.529	0.326	0.128
-159.750	-4.126	-0.404	-0.276
-158.735	-85.367	0.069	0.021
-157.720	13.399	0.308	0.236
-156.706	-200.000	-0.029	0.192
-155.691	-79.070	-0.351	-0.118
-154.677	-200.000	-0.001	-0.088
-153.662	83.494	0.186	0.200
-152.647	-200.000	-0.050	-0.271
-151.633	-93.486	-0.376	0.103
-150.618	6.704	0.303	-0.222
-149.604	10.027	-0.214	-0.160
-148.589	-44.717	0.049	-0.024
-147.574	147.030	-0.109	0.145
-146.560	-148.053	0.469	-0.038
-145.545	-160.186	-0.295	0.016
-144.531	-30.359	0.201	-0.113
-143.516	-200.000	-0.014	-0.199
-142.502	-200.000	-0.032	0.218
-141.487	136.465	-0.051	0.065
-140.472	-200.000	-0.020	0.199
-139.458	316.849	-0.181	0.337
-138.443	-167.170	0.233	-0.009
-137.429	145.068	0.129	-0.170
-136.414	800.000	0.122	0.365
-135.399	127.127	0.106	-0.132
-134.385	800.000	0.093	-0.359
-133.370	-134.819	-0.392	-0.047
-132.356	-17.682	0.074	-0.046
-131.341	22.111	0.325	0.261
-130.326	800.000	-0.034	0.108
-129.312	-94.814	-0.283	-0.076
-128.297	-112.440	0.306	0.060
-127.283	800.000	-0.076	0.228
-126.268	-200.000	-0.017	-0.241
-125.253	561.323	0.059	-0.140
-124.239	705.366	-0.123	0.319
-123.224	-128.774	-0.084	0.012
-122.210	25.559	-0.178	-0.146
-121.195	306.784	0.047	-0.087
-120.180	58.043	0.009	0.009
-119.166	261.262	-0.078	0.134
-118.151	800.000	-0.089	-0.245
-117.137	36.312	-0.360	0.313
-116.122	301.877	0.063	-0.115
-115.107	-69.420	-0.254	0.096
-114.093	108.656	0.076	-0.090
-113.078	-200.000	-0.061	0.266
-112.064	-127.226	0.112	0.016
-111.049	800.000	0.076	-0.225
-110.034	378.923	-0.043	0.087
-109.020	-60.227	0.215	-0.090
-108.005	4.012	-0.244	0.176
-106.991	800.000	-0.048	-0.186
-105.976	55.959	0.111	0.106
-104.962	45.573	-0.143	-0.130
-103.947	55.851	0.184	-0.176
-102.932	357.021	-0.057	0.111
-101.918	-40.525	-0.326	0.167
-100.903	-75.089	0.270	0.095
-99.889	-92.411	0.302	0.084
-98.874	454.244	0.116	0.252
-97.859	-200.000	0.018	0.170
-96.845	529.364	-0.024	0.055
-95.830	605.232	-0.040	0.099
-94.816	-200.000	-0.043	0.208
-93.801	15.088	0.148	-0.114
-92.786	4.877	0.096	-0.070
-91.772	800.000	-0.062	-0.189
-90.757	-70.733	-0.472	-0.176
-89.743	-32.252	0.085	0.047
-88.728	-200.000	-0.016	0.273
-87.713	-200.000	0.053	-0.312
-86.699	56.891	-0.174	-0.167
-85.684	504.154	0.073	-0.166
-84.670	294.700	-0.072	-0.130
-83.655	29.691	-0.079	-0.066
-82.640	-87.673	-0.395	0.117
-81.626	785.045	-0.121	0.326
-80.611	108.008	-0.141	-0.166
-79.597	-78.970	0.502	-0.168
-78.582	456.894	0.053	0.116
-77.567	800.000	-0.021	0.074
-76.553	72.117	-0.169	-0.173
-75.538	680.266	0.066	0.169
-74.524	384.022	0.155	0.314
-73.509	665.906	-0.043	0.110
-72.494	-68.898	-0.158	0.060
-71.480	-200.000	0.005	0.109
-70.465	-166.163	0.126	-0.005
-69.451	-44.270	0.075	0.037
-68.436	8.550	0.149	-0.110
-67.422	-5.953	-0.216	0.145
-66.407	-83.847	0.298	0.093
-65.392	-55.628	-0.241	0.106
-64.378	-200.000	-0.060	0.267
-63.363	44.060	0.083	0.075
-62.349	-108.604	0.244	-0.052
-61.334	56.616	-0.741	-0.709
-60.319	34.391	0.562	0.483
-59.305	-200.000	-0.174	-0.929
-58.290	510.797	0.443	1.015
-57.276	174.063	0.927	1.317
-56.261	-200.000	95.146	595.679
-55.246	553.356	1399.219	3307.273
-54.232	156.127	2587.565	3508.991
-53.217	106.701	2299.762	2683.085
-52.203	41.199	1920.209	1706.334
-51.188	34.828	1708.362	1469.247
-50.173	32.174	1664.193	1411.303
-49.159	50.157	1709.537	1586.851
-48.144	51.571	1725.787	1612.616
-47.130	34.588	1687.321	1449.097
-46.115	31.748	1673.374	1415.644
-45.100	31.508	1668.252	1409.441
-44.086	31.448	1665.759	1406.831
-43.071	31.432	1663.428	1404.685
-42.057	31.460	1660.673	1402.518
-41.042	31.441	1658.754	1400.695
-40.027	31.487	1656.996	1399.497
-39.013	31.506	1654.902	1397.816
-37.998	31.399	1653.560	1395.832
-36.984	31.548	1651.655	1395.276
-35.969	31.587	1650.416	1394.464
-34.954	31.609	1648.691	1393.118
-33.940	31.530	1647.096	1391.128
-32.925	31.521	1646.160	1390.214
-31.911	31.593	1643.881	1388.767
-30.896	31.602	1641.412	1386.695
-29.881	31.539	1640.212	1385.158
-28.867	31.524	1638.569	1383.606
-27.852	31.578	1636.961	1382.596
-26.838	31.573	1635.458	1381.232
-25.823	31.496	1634.754	1380.014
-24.809	31.613	1632.651	1379.042
-23.794	31.560	1631.613	1377.721
-22.779	31.543	1630.293	1376.433
-21.765	31.548	1628.373	1374.788
-20.750	31.561	1626.516	1373.268
-19.736	31.654	1625.006	1372.619
-18.721	31.611	1623.955	1371.359
-17.706	31.578	1622.840	1370.120
-16.692	31.592	1621.177	1368.764
-15.677	31.600	1619.667	1367.494
-14.663	31.563	1618.422	1366.121
-13.648	31.617	1616.962	1365.223
-12.633	31.606	1615.576	1363.921
-11.619	31.551	1613.969	1362.114
-10.604	31.558	1612.438	1360.818
-9.590	31.629	1610.433	1359.585
-8.575	31.583	1609.856	1358.709
-7.560	31.528	1608.599	1357.199
-6.546	31.606	1607.169	1356.503
-5.531	31.652	1606.089	1355.871
-4.517	31.586	1604.942	1354.366
-3.502	31.551	1603.974	1353.243
-2.487	31.681	1602.190	1352.623
-1.473	31.617	1591.171	1342.808
-0.458	29.442	1572.302	1311.399
0.556	24.471	1573.518	1280.644
1.571	21.886	1597.703	1281.357
2.586	21.355	1610.868	1287.888
3.600	19.541	1558.052	1232.618
4.615	11.090	1445.025	1086.902
5.629	2.304	1377.823	980.137
6.644	0.543	1368.952	962.521
7.659	0.459	1367.388	960.801
8.673	0.398	1366.713	959.853
9.688	0.380	1364.709	958.244
10.702	0.185	1361.549	954.708
11.717	4.146	1368.432	984.652
12.731	13.036	1382.471	1051.525
13.746	17.906	1388.238	1086.895
14.761	17.536	1386.139	1082.803
15.775	16.571	1383.455	1074.488
16.790	15.414	1381.339	1065.409
17.804	14.661	1378.781	1058.564
18.819	14.302	1377.679	1055.355
19.834	14.034	1375.738	1052.074
20.848	13.798	1374.773	1049.750
21.863	13.538	1373.461	1047.012
22.877	13.376	1372.370	1045.064
23.892	13.287	1371.352	1043.637
24.907	13.327	1370.473	1043.127
25.921	13.333	1369.539	1042.363
26.936	13.428	1368.565	1042.126
27.950	13.327	1368.240	1041.152
28.965	13.355	1366.978	1040.277
29.980	13.453	1365.708	1039.831
30.994	13.653	1364.806	1040.309
32.009	13.574	1363.941	1039.064
33.023	13.558	1362.730	1037.947
34.038	13.577	1361.530	1037.060
35.053	13.514	1360.379	1035.698
36.067	13.456	1359.357	1034.468
37.082	13.526	1358.311	1034.017
38.096	13.591	1357.277	1033.542
39.111	13.476	1357.083	1032.583
40.126	13.438	1356.087	1031.501
41.140	13.375	1355.022	1030.204
42.155	13.356	1354.662	1029.722
43.169	13.245	1354.741	1028.999
44.184	13.300	1354.411	1029.003
45.199	13.324	1353.864	1028.645
46.213	13.374	1353.354	1028.476
47.228	13.459	1352.253	1028.077
48.242	13.423	1351.130	1026.909
49.257	13.458	1349.651	1025.910
50.271	13.455	1348.069	1024.601
51.286	13.444	1347.149	1023.743
52.301	13.501	1345.719	1022.914
53.315	13.490	1344.371	1021.730
54.330	13.327	1343.600	1020.053
55.344	13.389	1342.346	1019.387
56.359	13.438	1341.196	1018.732
57.374	13.417	1340.123	1017.696
58.388	13.263	1339.918	1016.499
59.403	13.271	1339.929	1016.469
60.417	13.332	1338.752	1015.864
61.432	13.297	1337.555	1014.649
62.447	13.215	1336.834	1013.507
63.461	13.298	1335.449	1012.878
64.476	13.259	1334.363	1011.727
65.490	13.247	1333.214	1010.688
66.505	13.253	1331.597	1009.413
67.520	13.292	1330.324	1008.594
68.534	13.322	1329.436	1008.016
69.549	13.337	1328.113	1007.014
70.563	13.293	1327.130	1005.912
71.578	13.369	1325.942	1005.388
72.593	13.207	1325.611	1004.058
73.607	13.163	1324.748	1003.050
74.622	13.220	1323.431	1002.309
75.636	13.303	1322.794	1002.244
76.651	13.264	1321.653	1001.055
77.666	13.200	1321.745	1000.647
78.680	13.312	1320.844	1000.556
79.695	13.265	1319.646	999.274
80.709	13.236	1319.276	998.732
81.724	13.335	1317.945	998.235
82.739	13.438	1317.117	998.141
83.753	13.381	1316.404	997.165
84.768	13.419	1315.489	996.617
85.782	13.411	1314.386	995.642
86.797	13.549	1312.505	994.958
87.812	13.445	1311.736	993.664
88.826	13.352	1310.510	992.090
89.841	13.472	1309.618	992.041
90.855	13.506	1308.317	991.176
91.870	13.479	1307.747	990.496
92.884	13.546	1306.641	989.969
93.899	13.557	1306.037	989.488
94.914	13.519	1305.353	988.658
95.928	13.584	1304.773	988.520
96.943	13.587	1303.472	987.464
97.957	13.530	1302.797	986.523
98.972	13.509	1301.856	985.598
99.987	13.483	1301.017	984.720
101.001	13.429	1300.285	983.761
102.016	13.467	1298.832	982.801
103.030	13.495	1297.731	982.048
104.045	13.483	1297.307	981.567
105.060	13.409	1295.979	980.039
106.074	13.416	1294.979	979.233
107.089	13.370	1293.227	977.552
108.103	13.388	1291.762	976.463
109.118	13.326	1290.377	974.963
110.133	13.384	1289.225	974.348
111.147	13.349	1287.712	972.914
112.162	13.343	1286.798	972.103
113.176	13.434	1285.987	971.937
114.191	13.438	1284.705	970.909
115.206	13.408	1284.033	970.138
116.220	13.510	1282.284	969.329
117.235	13.414	1281.717	968.252
118.249	13.488	1280.441	967.637
119.264	13.465	1279.573	966.757
120.279	13.367	1278.746	965.477
121.293	13.370	1277.845	964.730
122.308	13.342	1276.471	963.443
123.322	13.399	1275.392	962.876
124.337	13.298	1274.496	961.527
125.352	13.305	1273.387	960.643
126.366	13.342	1272.170	959.856
127.381	13.375	1271.503	959.458
128.395	13.343	1270.139	958.160
129.410	13.479	1269.131	958.101
130.424	13.415	1268.499	957.170
131.439	13.465	1267.651	956.735
132.454	13.479	1266.556	955.906
133.468	13.416	1265.774	954.865
134.483	13.496	1264.653	954.398
135.497	13.566	1263.310	953.702
136.512	13.439	1262.576	952.333
137.527	13.468	1260.789	951.065
138.541	13.496	1259.256	949.985
139.556	13.487	1258.459	949.248
140.570	13.503	1257.249	948.345
141.585	13.568	1256.646	948.180
142.600	13.554	1255.320	947.015
143.614	13.561	1254.403	946.279
144.629	13.671	1252.850	945.651
145.643	13.548	1252.006	944.230
146.658	13.546	1250.441	942.954
147.673	13.570	1249.167	942.047
148.687	13.481	1248.253	940.770
149.702	13.460	1246.610	939.327
150.716	13.539	1245.106	938.561
151.731	13.556	1244.305	937.967
152.746	13.541	1242.997	936.814
153.760	13.579	1241.844	936.077
154.775	13.623	1240.776	935.437
155.789	13.675	1239.146	934.421
156.804	13.612	1238.715	933.654
157.819	13.721	1237.502	933.274
158.833	13.796	1236.453	932.823
159.848	13.750	1235.749	931.948
160.862	13.803	1234.835	931.477
161.877	13.709	1233.683	929.994
162.892	13.691	1232.505	928.925
163.906	13.702	1231.410	928.080
164.921	13.690	1230.145	926.975
165.935	13.640	1230.028	926.526
166.950	13.678	1229.258	926.075
167.964	13.705	1228.356	925.467
168.979	13.679	1227.722	924.759
169.994	13.858	1226.406	924.687
171.008	13.787	1225.761	923.720
172.023	13.776	1225.192	923.151
173.037	13.757	1224.416	922.379
174.052	13.916	1223.277	922.324
175.067	13.777	1222.394	920.803
176.081	13.751	1221.360	919.801
177.096	13.796	1220.511	919.327
178.110	13.836	1219.276	918.537
179.125	13.795	1218.653	917.758
180.140	13.945	1217.218	917.425
181.154	13.938	1215.834	916.261
182.169	13.865	1214.601	914.851
183.183	13.935	1213.427	914.270
184.198	13.955	1212.321	913.465
185.213	13.993	1211.369	912.877
186.227	14.053	1210.080	912.157
187.242	14.002	1209.414	911.293
188.256	14.050	1208.561	910.831
189.271	14.010	1207.440	909.690
190.286	13.820	1206.492	907.852
191.300	13.872	1205.417	907.249
192.315	13.734	1205.287	906.317
193.329	13.945	1203.927	906.368
194.344	13.849	1203.292	905.283
195.359	14.024	1202.548	905.599
196.373	13.974	1202.493	905.204
197.388	14.015	1202.123	905.068
198.402	14.156	1201.290	905.129
199.417	14.147	1200.814	904.639
200.432	14.270	1199.328	904.110
201.446	14.192	1199.298	903.580
202.461	14.193	1198.474	902.885
203.475	14.245	1197.240	902.162
204.490	14.270	1195.895	901.199
205.504	14.222	1194.730	899.984
206.519	14.197	1193.436	898.795
207.534	14.204	1192.039	897.700
208.548	14.287	1191.115	897.372
209.563	14.301	1190.093	896.602
210.577	14.268	1189.907	896.203
211.592	14.369	1188.650	895.718
212.607	14.351	1187.640	894.783
213.621	14.322	1187.159	894.185
214.636	14.312	1185.867	893.081
215.650	14.303	1185.285	892.511
216.665	14.382	1184.126	891.984
217.680	14.487	1183.138	891.722
218.694	14.395	1182.317	890.532
219.709	14.507	1181.719	890.601
220.723	14.441	1180.901	889.556
221.738	14.468	1180.606	889.398
222.753	14.468	1179.537	888.513
223.767	14.494	1178.800	888.021
224.782	14.429	1178.281	887.203
225.796	14.577	1177.875	887.608
226.811	14.610	1177.034	887.069
227.826	14.567	1176.442	886.316
228.840	14.519	1175.690	885.418
229.855	14.532	1174.907	884.816
230.869	14.545	1174.173	884.257
231.884	14.548	1173.176	883.443
232.899	14.587	1172.378	882.970
233.913	14.555	1171.794	882.282
234.928	14.589	1170.885	881.702
235.942	14.537	1170.313	880.915
236.957	14.475	1169.710	880.055
237.972	14.438	1169.313	879.484
238.986	14.391	1168.821	878.791
240.001	14.463	1168.082	878.537
241.015	14.609	1166.724	878.207
242.030	14.658	1165.794	877.684
243.045	14.751	1164.704	877.273
244.059	14.676	1164.150	876.388
245.074	14.673	1163.367	875.705
246.088	14.803	1161.960	875.248
247.103	14.786	1161.764	874.932
248.117	14.810	1161.356	874.677
249.132	14.800	1160.453	873.866
250.147	14.891	1159.585	873.610
251.161	15.005	1158.561	873.356
252.176	15.050	1158.227	873.262
253.190	14.905	1157.716	872.041
254.205	15.068	1157.251	872.466
255.220	15.084	1156.365	871.805
256.234	15.053	1155.959	871.259
257.249	15.116	1154.967	870.761
258.263	15.109	1154.684	870.433
259.278	15.094	1153.808	869.621
260.293	15.109	1153.584	869.451
261.307	15.079	1152.878	868.689
262.322	15.188	1152.385	868.802
263.336	15.225	1151.462	868.223
264.351	15.260	1150.810	867.834
265.366	15.157	1150.404	866.919
266.380	15.287	1149.358	866.727
267.395	15.232	1148.573	865.776
268.409	15.276	1147.794	865.335
269.424	15.195	1147.441	864.576
270.439	15.270	1146.723	864.344
271.453	15.240	1145.808	863.422
272.468	15.174	1144.811	862.257
273.482	15.235	1144.209	862.040
274.497	15.222	1143.422	861.308
275.512	15.143	1143.475	860.865
276.526	15.276	1142.595	860.808
277.541	15.339	1141.282	860.066
278.555	15.232	1141.129	859.326
279.570	15.392	1140.212	859.381
280.585	15.372	1139.455	858.632
281.599	15.467	1138.064	857.991
282.614	15.395	1137.561	857.170
283.628	15.262	1136.723	855.784
284.643	15.349	1135.793	855.449
285.657	15.364	1134.571	854.530
286.672	15.407	1133.626	853.960
287.687	15.517	1132.751	853.787
288.701	15.500	1132.128	853.154
289.716	15.628	1131.110	852.961
290.730	15.497	1130.362	851.656
291.745	15.504	1130.235	851.521
292.760	15.455	1129.368	850.547
293.774	15.701	1128.408	850.992
294.789	15.684	1128.133	850.622
295.803	15.626	1127.446	849.735
296.818	15.553	1126.690	848.724
297.833	15.698	1125.838	848.738
298.847	15.614	1125.342	847.866
299.862	15.733	1124.205	847.532
300.876	15.742	1123.646	847.081
301.891	15.760	1122.689	846.377
302.906	15.770	1122.463	846.184
303.920	15.796	1121.693	845.659
304.935	15.797	1121.113	845.150
305.949	15.904	1120.248	844.958
306.964	15.839	1119.213	843.777
307.979	15.890	1118.544	843.456
308.993	15.856	1118.359	843.072
310.008	15.813	1117.316	841.995
311.022	15.947	1116.508	841.982
312.037	15.889	1115.934	841.186
313.052	15.918	1114.374	840.080
314.066	15.866	1113.693	839.233
315.081	15.780	1113.203	838.359
316.095	15.858	1112.218	837.930
317.110	15.856	1111.797	837.528
318.125	15.788	1111.071	836.573
319.139	15.931	1109.701	836.175
320.154	15.812	1109.465	835.335
321.168	15.820	1108.836	834.824
322.183	15.862	1108.307	834.561
323.197	15.885	1107.342	833.875
324.212	16.029	1107.110	834.338
325.227	15.956	1106.295	833.288
326.241	16.025	1105.629	833.054
327.256	15.981	1104.872	832.197
328.270	15.911	1103.964	831.094
329.285	15.947	1103.672	830.977
330.300	15.811	1102.414	829.285
331.314	15.954	1101.317	829.088
332.329	15.940	1100.379	828.241
333.343	16.056	1099.656	828.195
334.358	16.077	1099.118	827.819
335.373	16.129	1098.030	827.179
336.387	16.224	1097.265	826.997
337.402	16.175	1096.276	825.941
338.416	16.238	1095.726	825.761
339.431	16.224	1095.023	825.091
340.446	16.282	1094.588	824.969
341.460	16.255	1094.214	824.486
342.475	16.447	1092.994	824.430
343.489	16.439	1091.854	823.459
344.504	16.282	1091.412	822.285
345.519	16.363	1090.339	821.800
346.533	16.317	1089.850	821.135
347.548	16.484	1089.160	821.354
348.562	16.580	1087.956	820.839
349.577	16.379	1087.427	819.393
350.592	16.455	1086.444	818.945
351.606	16.271	1086.272	817.854
352.621	16.442	1085.245	817.835
353.635	16.396	1084.795	817.201
354.650	16.388	1083.876	816.397
355.665	16.344	1083.314	815.689
356.679	16.323	1082.812	815.137
357.694	16.407	1082.289	815.080
358.708	16.485	1081.246	814.594
359.723	16.567	1080.685	814.495
360.738	16.566	1080.138	814.005
361.752	16.551	1079.597	813.456
362.767	16.565	1079.083	813.062
363.781	16.554	1078.576	812.559
364.796	16.638	1077.735	812.253
365.810	16.564	1077.281	811.484
366.825	16.749	1076.713	811.874
367.840	16.651	1076.327	811.043
368.854	16.758	1075.395	810.780
369.869	16.742	1074.952	810.298
370.883	16.699	1073.941	809.255
371.898	16.687	1073.091	808.485
372.913	16.719	1072.884	808.413
373.927	16.741	1072.173	807.908
374.942	16.877	1071.388	807.895
375.956	16.799	1071.037	807.185
376.971	16.771	1070.982	806.943
377.986	16.873	1069.705	806.394
379.000	16.963	1069.322	806.459
380.015	16.917	1068.833	805.803
381.029	16.982	1068.339	805.667
382.044	16.941	1067.820	805.011
383.059	17.030	1066.768	804.567
384.073	16.999	1065.837	803.646
385.088	16.899	1065.189	802.616
386.102	17.003	1064.210	802.296
387.117	17.057	1063.320	801.813
388.132	16.938	1062.093	800.253
389.146	16.929	1061.802	799.921
390.161	16.907	1060.851	799.031
391.175	17.020	1060.212	799.010
392.190	17.042	1059.601	798.581
393.205	17.128	1058.903	798.391
394.219	17.011	1058.186	797.230
395.234	17.010	1057.190	796.403
396.248	17.016	1056.211	795.623
397.263	17.099	1054.989	795.019
398.278	17.013	1054.496	794.176
399.292	16.979	1053.910	793.506
400.307	17.145	1052.895	793.447
401.321	17.147	1052.290	792.929
402.336	17.073	1051.782	792.132
403.350	17.017	1051.233	791.389
404.365	17.105	1050.356	791.066
405.380	17.300	1049.529	791.283
406.394	17.253	1048.568	790.271
407.409	17.190	1048.368	789.754
408.423	17.242	1047.280	789.108
409.438	17.350	1046.745	789.135
410.453	17.403	1046.159	788.869
411.467	17.449	1045.412	788.450
412.482	17.451	1044.397	787.622
413.496	17.498	1043.765	787.297
414.511	17.438	1043.608	786.831
415.526	17.493	1043.211	786.717
416.540	17.488	1042.876	786.369
417.555	17.612	1042.264	786.409
418.569	17.433	1041.939	785.272
419.584	17.567	1041.200	785.260
420.599	17.682	1040.412	785.129
421.613	102.039	1319.293	1460.972
422.628	93.669	1359.915	1461.060
