DTS Sentinel unit serial number:	SN413079Multiplexer serial number:	ORYXHardware model number:	OX4-SRSoftware version number:	ORYX F/W v4.00 Oryx Data Collector v3.7.2.0data status	okinstallation	princeton_trtdifferential loss correction	single-endedforward channel	channel 2reverse channel	N/Adate	2019/09/11time	01:37:10forward acquisition time	60.00reverse acquisition time	0.00gamma	496.2192k internal	0.2332k external	0.2332temperature offset calibration	0.9941default loss term (dB/km)	0.3790temperature slope calibration	1.0000multiplexer offset coefficient	1.0000multiplexer slope coefficient	1.0000fibre end	0.00T internal ref (°C)	29.16T ext. ref 1 (°C)	-0.30T ext. ref 2 (°C)	23.47length (m)	temperature (°C)	Stokes	anti-Stokes-747.200	-200.000	0.049	0.252
-746.185	236.060	-0.011	-0.018
-745.171	-80.722	0.325	-0.109
-744.156	42.166	-0.236	0.216
-743.142	70.562	0.187	-0.195
-742.127	-40.054	-0.250	0.131
-741.112	800.000	-0.050	-0.213
-740.098	-73.353	-0.394	-0.145
-739.083	59.855	-0.111	-0.111
-738.069	-65.890	0.210	0.085
-737.054	404.105	0.109	-0.230
-736.039	-101.895	0.050	-0.012
-735.025	327.721	0.080	0.154
-734.010	284.061	-0.086	-0.155
-732.996	457.335	-0.139	-0.310
-731.981	43.630	0.256	-0.235
-730.966	129.322	-0.016	0.021
-729.952	-200.000	-0.014	0.584
-728.937	-133.417	-0.200	-0.025
-727.923	57.580	-0.052	0.051
-726.908	-200.000	-0.012	-0.229
-725.894	-182.883	0.253	0.005
-724.879	-129.358	0.294	-0.041
-723.864	-200.000	0.018	-0.279
-722.850	158.896	-0.186	-0.259
-721.835	-1.851	0.337	0.238
-720.821	15.642	-0.125	0.099
-719.806	437.162	-0.188	-0.412
-718.791	-200.000	-0.041	0.216
-717.777	30.177	0.140	0.120
-716.762	-17.314	0.136	0.086
-715.748	105.085	-0.115	0.136
-714.733	98.463	-0.235	-0.272
-713.718	-162.293	-0.288	-0.014
-712.704	113.689	-0.060	-0.074
-711.689	83.938	-0.035	0.038
-710.675	227.706	0.100	-0.164
-709.660	-110.060	-0.369	-0.078
-708.645	-200.000	-0.014	0.475
-707.631	82.324	0.052	0.057
-706.616	-31.076	0.144	0.082
-705.602	90.021	-0.158	0.178
-704.587	151.478	0.060	-0.082
-703.572	-120.344	-0.060	0.010
-702.558	497.486	0.173	-0.400
-701.543	-200.000	0.028	-0.245
-700.529	-50.680	-0.327	-0.155
-699.514	-200.000	-0.001	0.089
-698.499	800.000	0.112	-0.424
-697.485	-200.000	-0.036	0.325
-696.470	71.779	-0.165	-0.172
-695.456	-106.593	-0.321	0.072
-694.441	217.049	0.243	0.388
-693.426	-4.310	0.100	0.070
-692.412	455.138	-0.057	0.126
-691.397	-2.977	0.119	0.084
-690.383	-200.000	-0.045	-0.311
-689.368	0.733	-0.161	-0.115
-688.354	-120.724	-0.074	-0.012
-687.339	-19.465	0.425	0.264
-686.324	-182.861	-0.297	-0.005
-685.310	-200.000	-0.029	-0.203
-684.295	-167.793	0.355	0.014
-683.281	88.252	0.051	-0.057
-682.266	-55.302	-0.350	-0.158
-681.251	-16.809	-0.315	-0.200
-680.237	-135.907	0.192	0.023
-679.222	-69.607	0.260	-0.100
-678.208	684.671	-0.156	-0.409
-677.193	-84.600	0.007	-0.002
-676.178	-48.111	0.245	-0.119
-675.164	59.714	0.096	0.095
-674.149	-200.000	0.029	0.316
-673.135	-200.000	0.019	0.087
-672.120	-67.969	-0.251	-0.098
-671.105	-24.026	0.219	-0.132
-670.091	800.000	0.132	-0.476
-669.076	-26.822	0.101	-0.059
-668.062	-70.246	0.235	-0.090
-667.047	800.000	-0.064	0.179
-666.032	194.906	-0.174	0.266
-665.018	-36.806	-0.021	0.011
-664.003	-151.660	0.198	0.015
-662.989	227.675	0.139	0.227
-661.974	-200.000	-0.325	0.000
-660.959	-200.000	-0.025	0.327
-659.945	-80.614	0.151	0.051
-658.930	138.297	-0.119	-0.156
-657.916	-5.258	0.238	-0.164
-656.901	800.000	0.056	0.216
-655.886	-79.115	0.107	0.037
-654.872	345.315	-0.029	0.057
-653.857	-54.637	0.289	-0.131
-652.843	-139.575	-0.312	-0.033
-651.828	314.490	-0.163	-0.308
-650.814	800.000	-0.097	-0.342
-649.799	800.000	-0.109	-0.387
-648.784	-71.356	-0.433	0.163
-647.770	800.000	0.026	0.085
-646.755	800.000	0.070	-0.262
-645.741	-200.000	0.018	-0.264
-644.726	-127.115	-0.168	-0.025
-643.711	-200.000	0.026	0.228
-642.697	464.759	-0.077	0.173
-641.682	-200.000	0.021	-0.126
-640.668	-16.515	-0.195	0.124
-639.653	-200.000	0.023	0.219
-638.638	719.762	0.047	0.125
-637.624	157.758	0.298	0.413
-636.609	-176.596	0.036	-0.001
-635.595	-200.000	0.032	0.148
-634.580	125.656	-0.215	0.272
-633.565	214.729	-0.145	-0.230
-632.551	-200.000	-0.008	0.126
-631.536	-43.171	-0.185	0.094
-630.522	-68.517	0.376	0.146
-629.507	5.968	-0.167	-0.124
-628.492	-54.534	0.534	-0.242
-627.478	-200.000	-0.046	-0.413
-626.463	397.297	0.124	-0.259
-625.449	800.000	-0.068	-0.259
-624.434	275.408	0.030	0.054
-623.419	-200.000	0.028	0.127
-622.405	175.016	-0.143	0.207
-621.390	138.002	0.139	-0.182
-620.376	299.103	-0.132	-0.244
-619.361	48.159	0.184	0.173
-618.346	-200.000	-0.001	0.214
-617.332	75.956	-0.120	0.127
-616.317	-152.689	-0.229	-0.016
-615.303	-147.050	-0.459	-0.039
-614.288	441.257	-0.023	0.050
-613.273	43.669	-0.127	-0.116
-612.259	-200.000	0.001	0.010
-611.244	-103.697	0.380	-0.089
-610.230	83.906	-0.040	0.044
-609.215	11.473	-0.124	-0.095
-608.201	800.000	0.094	0.267
-607.186	-70.693	0.317	-0.120
-606.171	-143.237	0.182	-0.018
-605.157	128.622	0.082	-0.105
-604.142	-23.394	0.125	0.075
-603.128	155.905	-0.149	0.206
-602.113	144.084	0.166	0.222
-601.098	-200.000	-0.059	-0.406
-600.084	-200.000	0.008	-0.300
-599.069	-200.000	0.019	0.238
-598.055	-115.306	-0.241	0.045
-597.040	-200.000	-0.024	-0.322
-596.025	150.438	-0.061	0.083
-595.011	800.000	0.040	-0.146
-593.996	-19.096	0.220	0.137
-592.982	-200.000	-0.002	0.021
-591.967	-200.000	0.014	0.361
-590.952	-44.401	0.386	0.193
-589.938	238.744	0.196	0.326
-588.923	800.000	0.028	-0.093
-587.909	-200.000	0.040	0.185
-586.894	110.606	-0.165	0.199
-585.879	-33.126	0.213	-0.118
-584.865	-46.641	-0.340	-0.167
-583.850	45.046	0.010	0.009
-582.836	-13.224	0.055	0.035
-581.821	-24.514	-0.112	-0.067
-580.806	-122.827	-0.222	-0.036
-579.792	-81.351	-0.120	-0.039
-578.777	800.000	-0.035	-0.097
-577.763	20.505	-0.065	0.053
-576.748	151.840	0.137	0.187
-575.733	-42.941	-0.067	0.034
-574.719	-180.274	-0.093	-0.002
-573.704	-130.086	-0.147	-0.020
-572.690	-84.171	-0.329	0.104
-571.675	12.848	-0.108	-0.083
-570.661	371.617	-0.093	-0.189
-569.646	277.963	-0.140	-0.250
-568.631	-154.258	0.264	-0.018
-567.617	-17.381	0.172	0.109
-566.602	-130.225	-0.276	0.037
-565.588	0.346	-0.062	-0.045
-564.573	-0.305	-0.136	-0.097
-563.558	0.243	0.239	0.170
-562.544	208.307	-0.067	0.105
-561.529	178.089	0.134	0.196
-560.515	-0.908	0.249	0.176
-559.500	800.000	-0.027	-0.103
-558.485	-69.790	0.322	0.123
-557.471	212.004	-0.082	-0.129
-556.456	57.514	-0.228	-0.222
-555.442	75.046	0.212	-0.224
-554.427	-50.373	-0.222	0.105
-553.412	81.609	-0.206	0.223
-552.398	771.794	0.118	0.321
-551.383	-200.000	-0.032	0.255
-550.369	560.262	0.081	0.195
-549.354	-63.544	-0.098	-0.040
-548.339	-143.668	-0.409	-0.039
-547.325	202.690	-0.168	0.259
-546.310	-200.000	-0.039	0.169
-545.296	-178.945	-0.094	-0.002
-544.281	274.074	-0.048	-0.084
-543.266	-46.385	-0.181	-0.089
-542.252	293.081	0.055	-0.100
-541.237	653.972	0.047	-0.120
-540.223	214.862	0.159	-0.251
-539.208	-168.573	0.502	0.019
-538.193	679.340	0.101	-0.263
-537.179	-200.000	-0.044	-0.476
-536.164	-96.774	0.265	0.070
-535.150	-158.337	-0.133	-0.008
-534.135	-24.875	-0.127	-0.075
-533.121	141.916	0.066	-0.087
-532.106	-42.420	0.129	-0.065
-531.091	-59.599	-0.178	-0.076
-530.077	800.000	0.059	0.208
-529.062	108.136	-0.232	-0.276
-528.048	-41.281	-0.194	0.100
-527.033	-200.000	0.020	0.400
-526.018	525.475	0.171	-0.401
-525.004	-77.051	-0.203	0.071
-523.989	-200.000	-0.109	0.558
-522.975	-34.279	0.196	0.107
-521.960	-200.000	0.002	-0.364
-520.945	-75.966	0.346	-0.122
-519.931	33.155	-0.093	-0.081
-518.916	-168.116	-0.106	0.004
-517.902	-114.204	0.231	0.044
-516.887	-9.733	0.103	0.068
-515.872	267.544	-0.135	0.236
-514.858	165.570	0.142	0.201
-513.843	151.272	0.094	-0.128
-512.829	-100.293	-0.360	0.089
-511.814	-118.787	0.498	0.087
-510.799	-121.517	-0.248	-0.041
-509.785	-61.958	0.333	-0.139
-508.770	-57.380	0.400	-0.175
-507.756	-92.748	0.224	-0.063
-506.741	171.697	-0.159	-0.227
-505.726	-200.000	-0.033	0.317
-504.712	-41.179	0.318	0.164
-503.697	110.627	-0.070	0.084
-502.683	-42.176	0.298	-0.152
-501.668	-112.635	-0.082	-0.016
-500.653	49.561	0.192	-0.181
-499.639	241.517	-0.050	0.083
-498.624	-168.407	-0.162	0.006
-497.610	295.182	0.112	0.204
-496.595	-200.000	-0.056	0.293
-495.581	-200.000	0.034	0.153
-494.566	800.000	-0.023	0.067
-493.551	129.168	-0.124	-0.158
-492.537	407.399	0.104	-0.219
-491.522	-52.229	-0.099	-0.046
-490.508	93.543	-0.161	-0.182
-489.493	48.991	0.125	-0.117
-488.478	306.751	0.105	0.195
-487.464	800.000	0.034	-0.121
-486.449	-26.602	-0.242	0.141
-485.435	800.000	0.089	-0.246
-484.420	-140.184	-0.179	-0.019
-483.405	148.393	-0.012	-0.016
-482.391	-41.513	0.099	0.051
-481.376	800.000	0.071	0.285
-480.362	114.976	0.166	-0.202
-479.347	-200.000	0.039	0.177
-478.332	800.000	0.026	0.113
-477.318	794.451	0.083	-0.228
-476.303	222.266	0.285	-0.457
-475.289	-34.072	-0.248	0.136
-474.274	3.842	0.174	0.126
-473.259	271.533	-0.020	-0.035
-472.245	-141.963	-0.203	-0.020
-471.230	47.899	-0.370	-0.344
-470.216	94.448	0.188	-0.213
-469.201	330.289	0.098	-0.189
-468.186	373.653	-0.074	-0.150
-467.172	800.000	-0.101	-0.293
-466.157	-200.000	0.015	0.137
-465.143	-200.000	-0.049	0.239
-464.128	8.693	-0.083	0.062
-463.113	309.603	0.039	-0.072
-462.099	305.563	0.048	0.089
-461.084	444.467	-0.048	-0.105
-460.070	800.000	0.190	-0.576
-459.055	-76.175	-0.118	-0.041
-458.040	-73.173	0.280	0.102
-457.026	280.661	-0.037	0.067
-456.011	-6.585	-0.113	-0.077
-454.997	243.783	0.089	-0.148
-453.982	-188.958	-0.139	-0.002
-452.968	-56.597	-0.117	-0.052
-451.953	-88.270	-0.355	-0.106
-450.938	235.737	-0.040	0.066
-449.924	-131.253	-0.246	-0.033
-448.909	-131.821	0.189	-0.025
-447.895	-200.000	0.008	0.162
-446.880	49.012	-0.021	0.020
-445.865	800.000	-0.114	0.405
-444.851	496.317	0.148	0.338
-443.836	-129.885	-0.336	0.046
-442.822	-97.010	0.160	-0.042
-441.807	-200.000	0.025	-0.173
-440.792	210.879	-0.152	-0.237
-439.778	-90.201	0.341	0.099
-438.763	243.050	0.094	0.156
-437.749	-9.722	-0.229	0.152
-436.734	-44.742	0.117	0.058
-435.719	55.118	-0.389	0.374
-434.705	-90.216	-0.178	0.052
-433.690	15.720	-0.059	0.046
-432.676	34.405	-0.464	-0.402
-431.661	33.462	0.179	-0.154
-430.646	-200.000	-0.053	0.308
-429.632	182.349	-0.174	0.255
-428.617	-116.689	-0.289	-0.053
-427.603	159.267	-0.213	0.295
-426.588	-200.000	0.033	0.174
-425.573	-10.411	-0.105	-0.069
-424.559	-200.000	-0.005	0.094
-423.544	55.007	-0.336	0.322
-422.530	30.045	0.109	-0.093
-421.515	-90.866	-0.289	-0.083
-420.500	182.771	0.106	0.156
-419.486	11.260	0.300	-0.228
-418.471	-95.509	0.233	0.062
-417.457	30.968	0.064	-0.054
-416.442	5.753	-0.072	-0.053
-415.428	92.598	-0.262	-0.294
-414.413	524.548	-0.111	0.259
-413.398	-165.290	-0.315	0.014
-412.384	-61.411	0.026	-0.011
-411.369	-34.176	0.253	0.138
-410.355	79.076	-0.184	-0.196
-409.340	-200.000	0.060	-0.286
-408.325	59.304	-0.037	0.036
-407.311	800.000	-0.018	0.055
-406.296	108.547	0.265	-0.315
-405.282	-79.971	0.098	0.033
-404.267	-143.061	0.135	-0.013
-403.252	-28.034	-0.259	-0.149
-402.238	-200.000	-0.033	0.193
-401.223	336.108	-0.062	-0.119
-400.209	-200.000	-0.067	0.351
-399.194	86.006	-0.069	0.075
-398.179	-200.000	0.006	0.566
-397.165	-81.600	-0.288	-0.094
-396.150	-200.000	-0.016	-0.426
-395.136	-200.000	0.000	0.042
-394.121	-86.043	0.260	0.080
-393.106	222.760	0.145	-0.232
-392.092	-172.104	-0.101	0.003
-391.077	800.000	-0.051	-0.173
-390.063	800.000	0.055	0.230
-389.048	-68.096	0.339	0.131
-388.033	800.000	0.028	-0.086
-387.019	-47.087	-0.076	0.037
-386.004	-115.580	-0.147	-0.027
-384.990	9.160	-0.169	-0.126
-383.975	-200.000	0.003	-0.160
-382.960	-89.750	-0.311	-0.090
-381.946	-58.833	-0.237	-0.102
-380.931	-19.630	-0.206	0.126
-379.917	-32.155	0.102	0.056
-378.902	-108.901	-0.023	-0.005
-377.888	-35.602	0.029	0.016
-376.873	-169.760	-0.281	0.010
-375.858	297.995	0.042	0.076
-374.844	-161.336	0.250	0.013
-373.829	-35.012	0.052	-0.028
-372.815	-18.916	0.288	-0.178
-371.800	800.000	0.070	-0.305
-370.785	-83.373	0.537	0.171
-369.771	800.000	0.057	0.182
-368.756	62.404	0.194	-0.193
-367.742	-77.753	-0.232	-0.080
-366.727	-84.194	-0.052	-0.016
-365.712	-200.000	0.006	0.064
-364.698	520.218	-0.102	-0.238
-363.683	-24.498	-0.148	-0.087
-362.669	-200.000	0.045	0.251
-361.654	-15.710	0.208	-0.132
-360.639	402.133	-0.091	0.190
-359.625	-72.815	-0.151	-0.055
-358.610	-123.619	0.261	-0.041
-357.596	231.979	-0.148	0.240
-356.581	-200.000	0.022	0.108
-355.566	343.869	-0.061	0.119
-354.552	-101.740	0.199	0.048
-353.537	50.640	-0.084	-0.078
-352.523	150.407	0.056	0.075
-351.508	-77.797	0.239	0.082
-350.493	69.096	-0.039	0.040
-349.479	745.680	0.082	-0.219
-348.464	149.315	0.087	0.116
-347.450	-200.000	0.001	0.068
-346.435	-126.375	0.124	0.018
-345.420	-91.876	-0.291	0.082
-344.406	-60.858	-0.345	0.145
-343.391	-88.145	0.205	-0.061
-342.377	-58.274	0.354	0.152
-341.362	46.856	0.222	0.204
-340.348	-40.855	-0.169	-0.087
-339.333	-4.207	0.195	-0.133
-338.318	266.974	0.012	-0.021
-337.304	-93.897	-0.253	-0.069
-336.289	-82.047	-0.254	-0.082
-335.275	-97.393	0.170	0.044
-334.260	-200.000	-0.016	0.243
-333.245	12.663	0.038	0.029
-332.231	-200.000	-0.045	0.347
-331.216	-30.204	0.112	0.063
-330.202	293.651	0.018	0.033
-329.187	357.186	-0.124	0.245
-328.172	67.344	0.291	0.293
-327.158	800.000	0.052	-0.195
-326.143	-110.021	-0.127	-0.026
-325.129	228.769	0.120	-0.194
-324.114	-23.872	0.170	-0.101
-323.099	-18.762	-0.388	-0.239
-322.085	-37.240	-0.078	0.041
-321.070	386.045	-0.124	-0.254
-320.056	-66.595	-0.102	0.040
-319.041	800.000	0.015	0.046
-318.026	-62.027	0.226	0.093
-317.012	-55.900	0.092	-0.041
-315.997	-126.424	-0.255	-0.038
-314.983	-2.366	-0.295	0.204
-313.968	-200.000	-0.015	-0.230
-312.953	-133.597	-0.134	0.017
-311.939	-24.825	0.147	-0.087
-310.924	15.839	-0.192	0.150
-309.910	-200.000	-0.034	-0.170
-308.895	-62.664	-0.131	-0.054
-307.880	301.627	-0.207	-0.379
-306.866	247.714	0.115	-0.193
-305.851	-62.780	0.063	0.026
-304.837	110.906	0.074	-0.088
-303.822	-200.000	0.040	-0.212
-302.807	-91.927	0.376	0.105
-301.793	-18.911	-0.250	-0.154
-300.778	67.281	0.315	-0.318
-299.764	110.725	-0.069	0.082
-298.749	-120.154	-0.130	-0.022
-297.735	-200.000	-0.029	0.163
-296.720	-157.143	-0.033	-0.002
-295.705	-200.000	0.006	-0.365
-294.691	-154.627	0.415	-0.027
-293.676	203.345	-0.228	0.348
-292.662	-200.000	-0.023	0.248
-291.647	-142.012	-0.140	-0.014
-290.632	-87.381	-0.105	-0.031
-289.618	67.622	-0.136	0.138
-288.603	-34.376	0.169	-0.091
-287.589	-119.259	0.342	0.059
-286.574	661.658	0.028	0.071
-285.559	100.747	0.101	0.117
-284.545	-128.143	0.220	-0.031
-283.530	-52.926	0.108	-0.049
-282.516	800.000	-0.125	-0.463
-281.501	-200.000	-0.055	-0.308
-280.486	800.000	-0.012	0.043
-279.472	-29.164	0.119	-0.067
-278.457	288.741	-0.215	-0.385
-277.443	183.150	0.065	-0.095
-276.428	-162.292	0.269	-0.013
-275.413	10.006	-0.243	-0.183
-274.399	-200.000	0.034	0.188
-273.384	-18.374	-0.074	0.046
-272.370	638.227	0.154	0.386
-271.355	-58.033	-0.068	0.029
-270.340	764.124	0.051	0.137
-269.326	-200.000	0.006	0.099
-268.311	-200.000	0.379	-0.001
-267.297	-200.000	0.054	0.354
-266.282	82.232	0.059	0.063
-265.267	-114.810	-0.150	-0.028
-264.253	800.000	0.077	-0.251
-263.238	800.000	-0.037	-0.120
-262.224	-200.000	0.002	-0.050
-261.209	10.122	0.193	-0.144
-260.195	-200.000	-0.081	-0.429
-259.180	-85.411	-0.144	0.044
-258.165	-200.000	-0.014	0.251
-257.151	177.833	0.225	-0.324
-256.136	-12.875	-0.035	-0.022
-255.122	-112.343	-0.109	-0.022
-254.107	142.597	0.102	0.133
-253.092	350.919	0.019	-0.037
-252.078	800.000	-0.067	-0.231
-251.063	17.969	-0.148	0.116
-250.049	800.000	-0.041	-0.143
-249.034	-13.913	-0.150	-0.096
-248.019	-200.000	-0.012	0.070
-247.005	108.468	0.118	-0.139
-245.990	217.593	0.127	0.200
-244.976	-200.000	-0.146	-0.000
-243.961	-137.786	-0.222	0.025
-242.946	-60.497	-0.034	0.014
-241.932	41.471	-0.211	0.188
-240.917	2.070	0.209	0.149
-239.903	49.740	-0.046	-0.043
-238.888	-160.815	-0.040	-0.002
-237.873	548.566	-0.049	-0.115
-236.859	31.663	-0.069	0.058
-235.844	87.636	-0.174	0.191
-234.830	300.326	0.199	-0.363
-233.815	-39.749	0.193	-0.099
-232.800	-194.265	0.282	-0.002
-231.786	800.000	-0.085	0.317
-230.771	-13.477	0.272	-0.174
-229.757	-132.801	0.259	0.033
-228.742	-93.574	0.256	0.070
-227.727	-84.210	-0.295	0.092
-226.713	-78.908	-0.179	-0.060
-225.698	-200.000	0.004	0.160
-224.684	-200.000	-0.030	-0.270
-223.669	68.614	0.136	-0.137
-222.655	129.823	0.291	0.367
-221.640	-53.368	0.265	0.119
-220.625	123.374	0.018	-0.022
-219.611	67.614	-0.142	0.143
-218.596	-200.000	0.011	-0.090
-217.582	-60.120	-0.194	0.081
-216.567	-200.000	0.007	0.067
-215.552	578.741	0.036	0.088
-214.538	-46.662	-0.157	-0.076
-213.523	-146.816	0.376	0.032
-212.509	-85.339	-0.190	-0.058
-211.494	-197.024	0.074	-0.000
-210.479	-200.000	-0.053	-0.412
-209.465	-88.090	-0.251	0.074
-208.450	83.577	-0.140	0.150
-207.436	-84.301	-0.272	0.085
-206.421	154.916	-0.092	-0.125
-205.406	-200.000	0.016	-0.316
-204.392	-85.029	-0.380	-0.117
-203.377	-180.365	-0.215	0.004
-202.363	182.877	-0.068	-0.099
-201.348	-45.397	0.080	-0.039
-200.333	-200.000	0.062	0.334
-199.319	-114.461	0.567	0.107
-198.304	566.233	-0.062	-0.149
-197.290	394.939	-0.094	-0.193
-196.275	45.779	-0.291	-0.265
-195.260	-65.721	0.197	0.078
-194.246	800.000	-0.148	0.451
-193.231	-164.047	0.249	0.011
-192.217	82.064	0.225	-0.240
-191.202	148.664	-0.181	-0.241
-190.187	-200.000	0.009	-0.325
-189.173	-200.000	-0.068	0.304
-188.158	-200.000	-0.066	0.305
-187.144	-22.976	-0.104	-0.062
-186.129	776.387	-0.024	0.064
-185.114	-131.722	0.349	0.045
-184.100	-64.086	0.247	-0.099
-183.085	-92.168	-0.239	-0.066
-182.071	-159.458	0.394	0.022
-181.056	94.242	-0.198	0.221
-180.042	-200.000	-0.014	0.306
-179.027	180.082	-0.169	-0.244
-178.012	198.430	-0.198	0.298
-176.998	-92.539	-0.339	0.094
-175.983	590.350	0.055	-0.134
-174.969	-86.091	-0.053	0.016
-173.954	-173.222	0.201	0.006
-172.939	-59.170	-0.204	0.086
-171.925	308.479	0.050	0.091
-170.910	163.982	0.146	-0.202
-169.896	-53.645	0.176	-0.079
-168.881	-2.282	-0.160	-0.111
-167.866	-81.948	0.460	-0.148
-166.852	351.769	-0.134	0.260
-165.837	-93.003	-0.043	-0.012
-164.823	28.228	-0.065	0.054
-163.808	-200.000	0.020	0.091
-162.793	90.807	0.212	0.233
-161.779	-85.431	0.334	-0.102
-160.764	-4.676	0.163	0.111
-159.750	-1.805	0.249	0.172
-158.735	188.673	0.101	-0.149
-157.720	96.991	0.226	0.255
-156.706	129.352	0.066	0.083
-155.691	-200.000	0.077	-0.378
-154.677	112.329	-0.151	0.180
-153.662	114.112	0.114	-0.137
-152.647	-200.000	-0.048	0.218
-151.633	-58.453	-0.153	-0.065
-150.618	312.345	0.209	-0.386
-149.604	-152.123	-0.245	0.017
-148.589	-200.000	0.005	-0.139
-147.574	134.310	-0.216	-0.275
-146.560	-80.330	-0.201	0.066
-145.545	-34.696	-0.250	-0.135
-144.531	34.362	-0.177	0.151
-143.516	-200.000	-0.032	-0.214
-142.502	-200.000	0.080	-0.486
-141.487	-171.870	0.269	-0.009
-140.472	-41.612	-0.120	-0.061
-139.458	105.432	-0.113	0.132
-138.443	-12.992	-0.270	0.173
-137.429	215.537	0.167	-0.260
-136.414	-17.556	0.081	-0.050
-135.399	567.061	0.051	0.122
-134.385	92.175	-0.078	-0.086
-133.370	279.406	0.084	0.147
-132.356	-200.000	0.025	-0.169
-131.341	-87.512	0.195	-0.058
-130.326	197.567	-0.204	-0.306
-129.312	119.683	-0.145	-0.177
-128.297	-30.218	-0.226	-0.126
-127.283	138.876	0.035	0.045
-126.268	-200.000	-0.030	0.190
-125.253	175.453	-0.303	0.432
-124.239	13.132	-0.182	0.138
-123.224	-108.400	0.223	0.047
-122.210	-90.091	0.292	0.084
-121.195	27.100	0.199	-0.164
-120.180	-40.608	0.166	0.085
-119.166	-200.000	-0.002	0.054
-118.151	179.677	0.105	0.151
-117.137	114.438	0.320	-0.382
-116.122	-200.000	-0.186	-0.001
-115.107	800.000	0.086	0.269
-114.093	-38.926	0.198	-0.102
-113.078	19.704	0.152	-0.120
-112.064	-35.152	-0.067	-0.036
-111.049	-65.286	-0.239	0.095
-110.034	-112.929	-0.240	0.047
-109.020	800.000	-0.034	0.119
-108.005	-200.000	-0.035	0.151
-106.991	-200.000	0.027	-0.242
-105.976	-69.739	-0.286	-0.107
-104.962	-200.000	-0.037	0.236
-103.947	-29.220	0.420	-0.236
-102.932	-71.771	0.197	0.072
-101.918	754.244	-0.056	-0.149
-100.903	-50.360	-0.125	-0.058
-99.889	-135.886	0.070	0.008
-98.874	40.383	0.151	-0.133
-97.859	-115.690	0.155	0.028
-96.845	800.000	-0.113	-0.385
-95.830	-200.000	-0.060	-0.363
-94.816	97.901	0.284	0.320
-93.801	-200.000	0.030	-0.180
-92.786	-138.228	0.022	0.002
-91.772	-107.404	0.456	-0.098
-90.757	-200.000	-0.063	0.306
-89.743	-200.000	-0.041	-0.187
-88.728	-18.425	-0.141	-0.086
-87.713	-200.000	-0.062	0.390
-86.699	-200.000	-0.017	-0.158
-85.684	-70.104	-0.192	-0.072
-84.670	-126.534	0.103	-0.015
-83.655	49.763	0.160	0.148
-82.640	-50.642	-0.090	0.042
-81.626	-200.000	0.005	-0.244
-80.611	-33.986	-0.285	-0.154
-79.597	137.853	0.122	-0.156
-78.582	302.345	0.057	-0.103
-77.567	-48.973	0.144	0.068
-76.553	-200.000	-0.067	0.294
-75.538	94.328	0.117	-0.131
-74.524	-16.743	-0.189	0.117
-73.509	800.000	0.095	-0.281
-72.494	800.000	0.080	-0.218
-71.480	464.674	-0.016	-0.035
-70.465	-110.992	0.420	0.085
-69.451	-121.099	-0.268	-0.044
-68.436	-123.050	-0.319	0.050
-67.422	10.077	0.293	-0.218
-66.407	99.844	0.108	-0.122
-65.392	-86.982	0.214	0.064
-64.378	800.000	-0.097	0.331
-63.363	0.044	-0.044	-0.031
-62.349	411.839	0.175	0.363
-61.334	61.396	-1.071	-1.043
-60.319	7.100	0.653	0.477
-59.305	800.000	-0.245	-0.797
-58.290	216.987	0.955	1.490
-57.276	-200.000	0.254	1.736
-56.261	-200.000	107.233	625.694
-55.246	523.268	1512.944	3482.084
-54.232	174.973	2712.196	3845.976
-53.217	105.197	2297.198	2655.688
-52.203	38.529	1901.342	1660.294
-51.188	32.406	1687.856	1427.535
-50.173	29.706	1644.182	1370.559
-49.159	48.729	1698.205	1559.453
-48.144	48.891	1713.620	1574.773
-47.130	31.846	1670.950	1408.804
-46.115	29.283	1656.203	1377.199
-45.100	29.113	1651.167	1371.687
-44.086	29.087	1648.238	1369.010
-43.071	29.044	1645.984	1366.764
-42.057	29.067	1643.221	1364.584
-41.042	29.002	1641.736	1362.815
-40.027	28.985	1639.818	1361.041
-39.013	28.963	1637.939	1359.266
-37.998	29.025	1636.326	1358.335
-36.984	29.094	1634.518	1357.285
-35.969	29.177	1633.377	1356.895
-34.954	29.098	1632.219	1355.300
-33.940	29.170	1629.961	1353.901
-32.925	29.083	1628.411	1351.918
-31.911	29.153	1626.270	1350.600
-30.896	29.159	1624.516	1349.137
-29.881	29.096	1623.270	1347.585
-28.867	29.164	1621.903	1346.892
-27.852	29.176	1619.734	1345.128
-26.838	29.222	1619.079	1344.869
-25.823	29.197	1617.428	1343.262
-24.809	29.203	1616.110	1342.151
-23.794	29.221	1614.144	1340.596
-22.779	29.213	1612.929	1339.480
-21.765	29.140	1611.272	1337.516
-20.750	29.122	1609.875	1336.179
-19.736	29.234	1607.911	1335.302
-18.721	29.203	1606.785	1334.095
-17.706	29.119	1605.221	1332.136
-16.692	29.137	1604.287	1331.433
-15.677	29.147	1602.877	1330.281
-14.663	29.246	1601.198	1329.555
-13.648	29.263	1599.621	1328.315
-12.633	29.157	1598.568	1326.623
-11.619	29.171	1597.088	1325.442
-10.604	29.082	1595.919	1323.781
-9.590	29.216	1594.301	1323.350
-8.575	29.243	1592.609	1322.081
-7.560	29.230	1591.479	1321.002
-6.546	29.235	1590.300	1320.002
-5.531	29.194	1590.022	1319.426
-4.517	29.245	1588.432	1318.423
-3.502	29.209	1587.734	1317.531
-2.487	29.240	1585.509	1315.852
-1.473	29.072	1573.686	1304.797
-0.458	26.388	1554.237	1269.806
0.556	20.670	1556.032	1240.046
1.571	18.539	1580.800	1244.220
2.586	18.229	1595.557	1253.453
3.600	16.539	1542.659	1199.815
4.615	8.833	1432.936	1063.415
5.629	1.218	1369.319	967.678
6.644	-0.212	1361.578	953.049
7.659	-0.338	1360.087	951.116
8.673	-0.343	1358.944	950.204
9.688	-0.317	1356.868	948.835
10.702	-0.548	1353.858	945.184
11.717	2.502	1359.919	968.648
12.731	11.609	1377.260	1039.042
13.746	19.197	1390.788	1097.699
14.761	21.223	1393.415	1112.595
15.775	21.483	1392.915	1113.758
16.790	21.626	1392.188	1113.984
17.804	21.709	1391.544	1113.901
18.819	21.792	1391.779	1114.515
19.834	22.009	1390.657	1114.900
20.848	22.008	1390.464	1114.638
21.863	22.065	1389.284	1113.956
22.877	22.008	1388.413	1112.794
23.892	21.934	1387.943	1111.850
24.907	21.961	1386.413	1110.699
25.921	21.960	1385.905	1110.185
26.936	21.957	1385.138	1109.457
27.950	21.994	1383.997	1108.676
28.965	21.984	1382.424	1107.255
29.980	21.949	1381.136	1105.904
30.994	21.972	1380.034	1105.068
32.009	22.023	1378.581	1104.132
33.023	21.971	1378.178	1103.380
34.038	22.005	1376.990	1102.546
35.053	22.059	1375.738	1101.784
36.067	22.002	1374.518	1100.355
37.082	22.060	1373.537	1099.837
38.096	22.143	1372.239	1099.220
39.111	21.985	1372.250	1098.137
40.126	21.996	1371.375	1097.413
41.140	22.020	1371.018	1097.179
42.155	22.030	1370.712	1096.898
43.169	21.984	1370.727	1096.527
44.184	22.003	1370.060	1096.017
45.199	21.990	1369.538	1095.418
46.213	22.016	1369.166	1095.190
47.228	21.997	1367.974	1094.019
48.242	21.965	1366.891	1092.858
49.257	22.130	1365.181	1092.419
50.271	21.954	1364.160	1090.414
51.286	21.946	1362.999	1089.337
52.301	22.020	1361.419	1088.436
53.315	22.069	1360.482	1087.895
54.330	21.971	1359.954	1086.771
55.344	21.952	1358.665	1085.524
56.359	21.946	1358.013	1084.870
57.374	22.028	1356.942	1084.427
58.388	21.997	1356.228	1083.569
59.403	21.991	1356.193	1083.409
60.417	22.027	1355.221	1082.755
61.432	22.017	1354.426	1081.966
62.447	22.041	1353.754	1081.480
63.461	22.128	1352.040	1080.549
64.476	22.085	1351.365	1079.648
65.490	22.081	1350.082	1078.507
66.505	22.036	1348.881	1077.174
67.520	22.011	1347.579	1075.886
68.534	22.122	1345.969	1075.187
69.549	22.073	1345.583	1074.483
70.563	21.981	1344.652	1073.084
71.578	21.945	1343.425	1071.786
72.593	22.063	1342.756	1071.879
73.607	21.997	1342.166	1070.914
74.622	22.090	1341.134	1070.557
75.636	22.035	1340.493	1069.619
76.651	21.989	1339.920	1068.783
77.666	21.968	1339.552	1068.267
78.680	22.063	1339.094	1068.388
79.695	22.054	1338.256	1067.570
80.709	22.074	1337.225	1066.775
81.724	22.045	1336.185	1065.672
82.739	21.966	1335.564	1064.603
83.753	22.114	1334.063	1064.213
84.768	22.020	1332.968	1062.676
85.782	22.189	1331.651	1062.554
86.797	22.091	1330.437	1060.899
87.812	22.101	1329.636	1060.224
88.826	22.069	1328.673	1059.169
89.841	22.059	1327.939	1058.436
90.855	22.169	1326.688	1058.006
91.870	22.032	1326.452	1056.901
92.884	22.176	1325.286	1056.742
93.899	22.123	1324.387	1055.615
94.914	22.027	1323.324	1054.097
95.928	22.018	1323.026	1053.712
96.943	22.057	1322.162	1053.163
97.957	22.097	1321.066	1052.437
98.972	22.086	1320.382	1051.733
99.987	22.096	1319.335	1050.865
101.001	21.959	1318.500	1049.287
102.016	22.046	1317.175	1048.662
103.030	22.083	1316.444	1048.203
104.045	22.089	1315.348	1047.276
105.060	22.121	1314.614	1046.790
106.074	22.117	1313.591	1045.858
107.089	22.079	1312.732	1044.856
108.103	22.082	1311.530	1043.824
109.118	22.169	1310.592	1043.502
110.133	22.160	1309.387	1042.397
111.147	22.102	1308.299	1041.097
112.162	22.181	1306.688	1040.188
113.176	22.219	1305.679	1039.519
114.191	22.154	1305.098	1038.583
115.206	22.210	1303.731	1037.730
116.220	22.193	1302.824	1036.818
117.235	22.181	1301.892	1035.914
118.249	22.293	1300.319	1035.232
119.264	22.282	1300.099	1034.896
120.279	22.147	1299.454	1033.501
121.293	22.195	1298.706	1033.096
122.308	22.149	1297.597	1031.851
123.322	22.221	1296.269	1031.126
124.337	22.335	1295.281	1030.915
125.352	22.127	1294.982	1029.369
126.366	22.214	1293.733	1028.796
127.381	22.307	1292.895	1028.584
128.395	22.265	1292.081	1027.597
129.410	22.153	1291.064	1026.041
130.424	22.233	1290.320	1025.825
131.439	22.312	1289.184	1025.296
132.454	22.249	1288.383	1024.197
133.468	22.207	1288.020	1023.579
134.483	22.167	1287.243	1022.637
135.497	22.184	1286.763	1022.261
136.512	22.231	1285.114	1021.134
137.527	22.235	1283.753	1019.984
138.541	22.173	1282.414	1018.475
139.556	22.145	1281.159	1017.226
140.570	22.136	1280.453	1016.519
141.585	22.190	1279.241	1015.779
142.600	22.115	1278.410	1014.599
143.614	22.189	1277.649	1014.332
144.629	22.147	1276.730	1013.272
145.643	22.187	1275.814	1012.684
146.658	22.214	1274.393	1011.623
147.673	22.167	1273.391	1010.469
148.687	22.105	1272.511	1009.325
149.702	22.072	1271.492	1008.236
150.716	22.124	1270.525	1007.677
151.731	22.192	1269.169	1006.903
152.746	22.163	1268.490	1006.109
153.760	22.177	1267.609	1005.403
154.775	22.255	1266.503	1004.883
155.789	22.248	1265.243	1003.751
156.804	22.149	1264.835	1002.773
157.819	22.252	1263.822	1002.473
158.833	22.234	1262.891	1001.540
159.848	22.349	1262.156	1001.523
160.862	22.298	1261.437	1000.576
161.877	22.287	1261.013	1000.089
162.892	22.355	1259.634	999.291
163.906	22.278	1259.251	998.460
164.921	22.289	1258.457	997.806
165.935	22.385	1257.606	997.587
166.950	22.358	1256.475	996.449
167.964	22.389	1256.281	996.384
168.979	22.273	1256.121	995.511
169.994	22.361	1255.337	995.299
171.008	22.354	1254.444	994.464
172.023	22.499	1253.453	994.409
173.037	22.353	1253.457	993.502
174.052	22.343	1252.327	992.463
175.067	22.312	1251.676	991.683
176.081	22.306	1250.309	990.475
177.096	22.335	1250.152	990.429
178.110	22.423	1248.783	989.753
179.125	22.464	1247.846	989.150
180.140	22.464	1246.757	988.198
181.154	22.318	1245.781	986.522
182.169	22.344	1244.768	985.778
183.183	22.284	1244.126	984.845
184.198	22.427	1242.723	984.448
185.213	22.433	1241.659	983.549
186.227	22.443	1240.650	982.719
187.242	22.520	1239.769	982.367
188.256	22.466	1238.964	981.340
189.271	22.504	1237.937	980.648
190.286	22.483	1237.494	980.095
191.300	22.385	1237.303	979.314
192.315	22.308	1236.833	978.424
193.329	22.445	1236.111	978.529
194.344	22.578	1235.089	978.371
195.359	22.527	1235.100	978.010
196.373	22.334	1234.507	976.383
197.388	22.320	1233.983	975.806
198.402	22.260	1234.082	975.462
199.417	22.347	1233.763	975.606
200.432	22.498	1232.631	975.464
201.446	22.359	1231.886	974.019
202.461	22.383	1231.494	973.752
203.475	22.316	1230.503	972.513
204.490	22.399	1229.081	971.765
205.504	22.485	1228.324	971.554
206.519	22.568	1227.155	970.999
207.534	22.584	1226.253	970.288
208.548	22.532	1225.395	969.239
209.563	22.409	1224.993	968.158
210.577	22.487	1224.093	967.788
211.592	22.584	1223.194	967.523
212.607	22.543	1222.247	966.463
213.621	22.488	1222.161	966.009
214.636	22.623	1220.726	965.529
215.650	22.566	1220.040	964.592
216.665	22.448	1219.353	963.317
217.680	22.570	1218.297	963.063
218.694	22.557	1217.427	962.217
219.709	22.624	1216.598	961.844
220.723	22.634	1215.980	961.324
221.738	22.571	1215.360	960.409
222.753	22.563	1214.496	959.598
223.767	22.482	1214.020	958.693
224.782	22.687	1213.512	959.322
225.796	22.616	1212.979	958.431
226.811	22.805	1212.284	958.821
227.826	22.627	1212.141	957.657
228.840	22.522	1211.729	956.677
229.855	22.607	1210.696	956.238
230.869	22.665	1209.876	955.819
231.884	22.530	1209.394	954.625
232.899	22.597	1208.400	954.120
233.913	22.625	1208.116	953.963
234.928	22.771	1207.420	954.118
235.942	22.701	1207.022	953.337
236.957	22.718	1206.157	952.662
237.972	22.625	1205.533	951.582
238.986	22.745	1204.658	951.458
240.001	22.742	1204.111	950.923
241.015	22.791	1203.538	950.652
242.030	22.792	1202.586	949.819
243.045	22.859	1201.319	949.098
244.059	22.943	1200.683	948.960
245.074	22.818	1200.196	947.821
246.088	22.915	1199.239	947.499
247.103	22.833	1198.643	946.508
248.117	22.785	1197.959	945.627
249.132	22.927	1196.720	945.322
250.147	22.859	1196.656	944.826
251.161	22.843	1195.830	944.005
252.176	22.781	1195.113	943.026
253.190	22.877	1194.551	943.008
254.205	22.978	1193.703	942.797
255.220	22.920	1193.247	942.041
256.234	22.881	1193.110	941.644
257.249	22.836	1192.215	940.612
258.263	22.875	1191.309	940.024
259.278	22.915	1191.050	939.948
260.293	22.982	1190.122	939.490
261.307	23.012	1189.598	939.150
262.322	22.990	1189.373	938.776
263.336	22.893	1188.786	937.712
264.351	22.920	1187.922	937.091
265.366	23.012	1187.197	936.924
266.380	23.052	1186.385	936.410
267.395	23.035	1186.124	936.033
268.409	23.033	1185.270	935.267
269.424	22.923	1185.139	934.496
270.439	22.987	1185.080	934.708
271.453	23.007	1183.560	933.531
272.468	23.076	1182.676	933.116
273.482	22.952	1182.289	932.073
274.497	23.021	1181.961	932.097
275.512	23.059	1181.029	931.477
276.526	23.097	1180.237	930.972
277.541	23.054	1179.586	930.149
278.555	23.061	1179.118	929.736
279.570	23.128	1178.206	929.284
280.585	22.984	1177.526	927.909
281.599	23.082	1176.638	927.641
282.614	23.014	1175.540	926.341
283.628	23.105	1175.182	926.452
284.643	23.176	1173.999	925.808
285.657	23.169	1173.142	925.016
286.672	23.150	1172.831	924.592
287.687	23.149	1171.715	923.624
288.701	23.205	1171.092	923.339
289.716	23.078	1170.567	922.186
290.730	23.180	1169.466	921.764
291.745	23.269	1168.922	921.718
292.760	23.377	1168.317	921.721
293.774	23.255	1167.796	920.596
294.789	23.222	1167.511	920.119
295.803	23.270	1166.686	919.636
296.818	23.231	1166.098	918.890
297.833	23.379	1165.378	919.005
298.847	23.373	1164.649	918.317
299.862	23.359	1163.390	917.171
300.876	23.190	1163.559	916.347
301.891	23.265	1163.188	916.367
302.906	23.393	1162.028	916.032
303.920	23.404	1161.330	915.457
304.935	23.390	1160.640	914.762
305.949	23.262	1160.092	913.588
306.964	23.345	1159.578	913.527
307.979	23.350	1158.747	912.821
308.993	23.434	1157.993	912.580
310.008	23.384	1157.319	911.706
311.022	23.411	1156.772	911.337
312.037	23.362	1155.956	910.358
313.052	23.309	1155.250	909.450
314.066	23.336	1154.357	908.808
315.081	23.395	1153.568	908.408
316.095	23.354	1153.069	907.724
317.110	23.475	1152.417	907.750
318.125	23.448	1151.744	906.999
319.139	23.399	1150.933	906.034
320.154	23.430	1150.489	905.763
321.168	23.491	1149.887	905.516
322.183	23.448	1149.101	904.598
323.197	23.470	1148.691	904.310
324.212	23.458	1148.020	903.640
325.227	23.499	1148.197	903.908
326.241	23.552	1147.229	903.336
327.256	23.551	1146.476	902.659
328.270	23.602	1145.357	901.954
329.285	23.562	1144.713	901.166
330.300	23.465	1144.259	900.238
331.314	23.496	1143.285	899.549
332.329	23.531	1142.684	899.174
333.343	23.595	1141.688	898.632
334.358	23.678	1140.735	898.224
335.373	23.548	1140.414	897.234
336.387	23.694	1139.284	897.003
337.402	23.750	1138.353	896.473
338.416	23.757	1138.090	896.221
339.431	23.708	1137.643	895.543
340.446	23.756	1136.794	895.040
341.460	23.830	1135.969	894.682
342.475	23.689	1135.714	893.690
343.489	23.721	1134.698	892.973
344.504	23.794	1133.345	892.197
345.519	23.799	1132.639	891.589
346.533	23.750	1132.209	890.927
347.548	23.913	1131.056	890.754
348.562	23.712	1130.826	889.487
349.577	23.853	1129.662	889.200
350.592	23.713	1129.228	888.078
351.606	23.803	1128.341	887.755
352.621	23.963	1127.942	888.158
353.635	23.922	1127.139	887.245
354.650	23.817	1126.861	886.423
355.665	23.863	1126.373	886.190
356.679	23.932	1125.557	885.811
357.694	23.894	1125.013	885.115
358.708	23.954	1123.862	884.431
359.723	23.792	1124.000	883.656
360.738	23.865	1123.070	883.212
361.752	23.836	1122.665	882.667
362.767	23.916	1121.901	882.386
363.781	24.084	1120.989	882.425
364.796	24.046	1120.291	881.608
365.810	24.103	1119.485	881.181
366.825	23.903	1119.560	880.170
367.840	24.110	1119.318	880.928
368.854	24.039	1118.718	880.026
369.869	24.046	1117.831	879.283
370.883	24.053	1116.908	878.515
371.898	24.003	1116.296	877.708
372.913	24.105	1115.199	877.269
373.927	24.157	1115.241	877.483
374.942	24.032	1114.846	876.479
375.956	24.245	1114.003	876.785
376.971	24.038	1113.821	875.549
377.986	24.105	1113.222	875.325
379.000	24.208	1112.804	875.426
380.015	24.104	1112.038	874.239
381.029	24.207	1111.076	873.911
382.044	24.099	1110.487	872.837
383.059	24.329	1109.883	873.414
384.073	24.169	1109.072	871.916
385.088	24.234	1108.362	871.597
386.102	24.310	1107.541	871.244
387.117	24.398	1106.155	870.508
388.132	24.222	1105.848	869.329
389.146	24.305	1105.304	869.230
390.161	24.240	1104.507	868.211
391.175	24.207	1104.182	867.716
392.190	24.239	1103.582	867.324
393.205	24.317	1102.827	867.036
394.219	24.313	1101.889	866.202
395.234	24.289	1101.521	865.717
396.248	24.471	1099.944	865.284
397.263	24.417	1099.122	864.299
398.278	24.351	1098.980	863.793
399.292	24.299	1098.505	863.093
400.307	24.456	1097.420	862.920
401.321	24.304	1097.227	861.960
402.336	24.307	1096.662	861.451
403.350	24.353	1095.916	861.013
404.365	24.389	1095.032	860.417
405.380	24.429	1094.689	860.261
406.394	24.470	1093.458	859.415
407.409	24.451	1093.073	858.945
408.423	24.566	1091.683	858.332
409.438	24.515	1091.394	857.784
410.453	24.477	1090.663	856.950
411.467	24.494	1090.389	856.742
412.482	24.580	1089.255	856.183
413.496	24.515	1088.818	855.454
414.511	24.637	1087.878	855.222
415.526	24.534	1087.552	854.402
416.540	24.652	1086.948	854.413
417.555	24.585	1086.830	853.923
418.569	24.625	1086.237	853.573
419.584	24.584	1086.050	853.158
420.599	24.594	1085.537	852.728
421.613	148.976	1401.852	1799.281
422.628	137.737	1447.896	1799.411
