DTS Sentinel unit serial number:	SN413079Multiplexer serial number:	ORYXHardware model number:	OX4-SRSoftware version number:	ORYX F/W v4.00 Oryx Data Collector v3.7.2.0data status	okinstallation	princeton_trtdifferential loss correction	single-endedforward channel	channel 2reverse channel	N/Adate	2019/09/18time	04:47:35forward acquisition time	60.00reverse acquisition time	0.00gamma	496.2192k internal	0.2348k external	0.2348temperature offset calibration	0.9981default loss term (dB/km)	0.3790temperature slope calibration	1.0000multiplexer offset coefficient	1.0000multiplexer slope coefficient	1.0000fibre end	0.00T internal ref (°C)	23.44T ext. ref 1 (°C)	0.19T ext. ref 2 (°C)	17.90length (m)	temperature (°C)	Stokes	anti-Stokes-747.200	-200.000	-0.008	0.219
-746.185	-133.708	-0.402	-0.050
-745.171	587.971	-0.046	0.112
-744.156	-200.000	-0.001	0.027
-743.142	-151.829	-0.274	0.020
-742.127	-115.358	-0.288	-0.054
-741.112	-200.000	0.032	-0.156
-740.098	800.000	-0.135	0.506
-739.083	111.502	0.216	-0.260
-738.069	-200.000	-0.095	0.475
-737.054	-200.000	0.020	0.205
-736.039	110.110	-0.166	0.199
-735.025	-11.458	0.035	-0.023
-734.010	-114.605	-0.246	-0.047
-732.996	-29.679	0.338	0.193
-731.981	23.281	-0.129	-0.105
-730.966	-124.423	0.107	0.017
-729.952	-200.000	-0.074	-0.447
-728.937	-70.404	-0.109	0.041
-727.923	605.097	-0.037	-0.091
-726.908	-61.379	-0.154	-0.065
-725.894	74.217	-0.412	-0.432
-724.879	-40.733	0.200	-0.104
-723.864	-200.000	0.038	0.221
-722.850	-113.536	0.233	-0.045
-721.835	-66.897	0.080	0.032
-720.821	37.234	-0.052	0.046
-719.806	-12.233	-0.142	-0.093
-718.791	8.638	-0.164	-0.123
-717.777	-163.444	0.132	0.006
-716.762	74.668	-0.179	-0.188
-715.748	-51.584	0.111	-0.052
-714.733	-98.434	-0.141	0.036
-713.718	443.768	-0.056	-0.123
-712.704	-26.563	-0.292	-0.171
-711.689	-61.647	0.026	0.011
-710.675	10.645	-0.097	-0.074
-709.660	66.014	0.079	0.080
-708.645	53.805	0.041	-0.039
-707.631	800.000	-0.082	0.303
-706.616	-95.788	-0.316	-0.084
-705.602	-200.000	-0.003	-0.334
-704.587	-151.814	-0.505	-0.037
-703.572	-200.000	0.009	-0.451
-702.558	722.362	-0.110	-0.293
-701.543	42.561	-0.129	-0.118
-700.529	-58.114	-0.316	0.137
-699.514	59.319	-0.202	0.198
-698.499	153.908	-0.087	-0.119
-697.485	-6.250	0.243	-0.165
-696.470	554.635	-0.052	0.125
-695.456	-80.597	-0.399	-0.132
-694.441	-200.000	-0.001	0.118
-693.426	-200.000	-0.058	-0.329
-692.412	62.517	0.172	-0.172
-691.397	515.281	-0.013	-0.031
-690.383	268.805	0.210	0.367
-689.368	-200.000	-0.269	-0.001
-688.354	270.864	-0.144	-0.253
-687.339	-200.000	0.005	-0.055
-686.324	239.059	0.074	0.123
-685.310	156.208	0.095	-0.130
-684.295	84.003	0.253	-0.275
-683.281	-51.077	-0.159	0.074
-682.266	145.654	-0.208	-0.277
-681.251	-83.716	-0.137	-0.044
-680.237	261.274	-0.181	0.313
-679.222	-27.209	-0.098	0.057
-678.208	83.635	-0.175	-0.190
-677.193	-200.000	-0.008	0.178
-676.178	-200.000	0.007	-0.139
-675.164	-108.702	-0.175	-0.037
-674.149	40.900	0.383	0.345
-673.135	109.744	-0.136	-0.163
-672.120	-7.322	-0.043	-0.029
-671.105	35.743	0.292	-0.255
-670.091	-200.000	-0.004	-0.168
-669.076	80.430	-0.055	0.059
-668.062	-16.555	-0.164	-0.103
-667.047	57.373	-0.400	0.389
-666.032	109.965	-0.151	-0.180
-665.018	-52.491	0.230	-0.106
-664.003	-200.000	-0.029	-0.288
-662.989	-200.000	0.012	-0.384
-661.974	95.149	0.121	-0.137
-660.959	-200.000	-0.021	-0.109
-659.945	800.000	-0.099	0.344
-658.930	800.000	0.030	0.100
-657.916	-94.298	-0.078	0.021
-656.901	-138.093	0.346	0.038
-655.886	-127.574	-0.239	-0.034
-654.872	-5.505	0.037	-0.025
-653.857	27.405	-0.144	-0.120
-652.843	-75.834	0.148	-0.052
-651.828	-200.000	0.051	0.388
-650.814	-10.480	0.150	-0.099
-649.799	-200.000	0.024	0.106
-648.784	-200.000	-0.027	-0.127
-647.770	593.157	-0.100	0.245
-646.755	54.509	0.124	-0.119
-645.741	-200.000	-0.011	-0.286
-644.726	-200.000	0.022	-0.135
-643.711	-167.382	0.219	0.009
-642.697	262.964	-0.081	-0.139
-641.682	282.047	0.020	-0.036
-640.668	-200.000	-0.153	0.000
-639.653	30.074	0.217	0.184
-638.638	-79.259	-0.286	0.097
-637.624	-92.214	-0.404	0.114
-636.609	-121.235	0.434	-0.072
-635.595	-200.000	0.031	0.191
-634.580	-36.892	-0.221	-0.118
-633.565	-76.315	-0.318	0.111
-632.551	54.820	0.069	0.066
-631.536	800.000	-0.030	0.086
-630.522	155.953	-0.051	0.070
-629.507	140.496	0.188	-0.246
-628.492	-35.996	-0.106	-0.057
-627.478	-48.607	-0.195	0.093
-626.463	-158.215	0.233	0.014
-625.449	-147.253	0.131	-0.011
-624.434	-103.098	0.057	-0.013
-623.419	365.594	-0.151	0.302
-622.405	407.448	-0.077	0.163
-621.390	333.457	-0.127	0.245
-620.376	-92.752	-0.031	-0.009
-619.361	133.577	-0.056	-0.072
-618.346	-58.651	-0.265	0.114
-617.332	-200.000	0.001	-0.019
-616.317	538.177	0.111	0.262
-615.303	205.261	0.077	0.118
-614.288	-75.184	-0.197	0.070
-613.273	-200.000	0.010	0.122
-612.259	116.153	0.103	-0.125
-611.244	102.351	-0.126	-0.146
-610.230	-200.000	-0.000	0.159
-609.215	-200.000	0.035	-0.300
-608.201	-12.195	-0.219	-0.142
-607.186	231.408	-0.236	0.384
-606.171	340.012	0.075	0.146
-605.157	-77.404	-0.139	-0.048
-604.142	800.000	-0.055	0.190
-603.128	-200.000	-0.021	-0.360
-602.113	-200.000	-0.014	-0.379
-601.098	-71.227	-0.182	-0.068
-600.084	93.231	0.192	0.215
-599.069	139.108	0.148	0.194
-598.055	242.648	-0.189	0.315
-597.040	40.871	0.292	0.262
-596.025	395.266	-0.157	0.326
-595.011	139.375	-0.242	-0.316
-593.996	153.292	-0.059	-0.081
-592.982	-36.243	-0.134	0.072
-591.967	-200.000	0.041	0.183
-590.952	-124.554	-0.243	0.037
-589.938	69.057	-0.066	0.067
-588.923	15.577	0.082	-0.064
-587.909	-57.474	-0.295	-0.129
-586.894	86.600	0.283	-0.310
-585.879	218.093	-0.128	0.202
-584.865	125.276	-0.083	0.104
-583.850	642.413	-0.011	-0.027
-582.836	304.355	-0.096	-0.178
-581.821	-142.932	0.321	0.031
-580.806	-141.044	-0.352	-0.036
-579.792	36.760	-0.191	0.167
-578.777	-200.000	-0.044	-0.217
-577.763	306.857	-0.021	0.038
-576.748	-10.643	0.110	-0.072
-575.733	-106.121	0.219	0.049
-574.719	58.157	0.152	0.148
-573.704	-4.214	-0.258	-0.177
-572.690	112.506	-0.070	-0.084
-571.675	594.493	-0.054	0.133
-570.661	-63.841	0.230	0.094
-569.646	-25.858	-0.047	-0.027
-568.631	-161.598	-0.318	0.016
-567.617	57.158	0.192	0.185
-566.602	-12.741	-0.181	0.117
-565.588	-200.000	-0.007	-0.436
-564.573	800.000	0.048	0.203
-563.558	518.065	0.186	0.432
-562.544	-111.812	0.243	-0.049
-561.529	-128.856	0.268	-0.037
-560.515	-200.000	-0.274	0.000
-559.500	-7.613	-0.265	0.177
-558.485	-199.296	0.365	-0.002
-557.471	-117.044	-0.095	-0.017
-556.456	704.776	-0.050	0.130
-555.442	-64.296	0.269	-0.109
-554.427	44.109	-0.257	-0.234
-553.412	-59.458	0.182	0.078
-552.398	-92.778	0.296	-0.082
-551.383	-72.330	-0.251	-0.092
-550.369	-68.245	0.274	0.106
-549.354	-89.907	0.208	0.060
-548.339	3.408	0.176	-0.127
-547.325	-93.640	-0.117	0.032
-546.310	-95.658	-0.260	-0.069
-545.296	-136.808	0.283	-0.032
-544.281	-200.000	-0.056	-0.265
-543.266	-200.000	-0.023	-0.105
-542.252	-30.312	-0.147	-0.083
-541.237	-151.105	-0.227	-0.017
-540.223	-85.090	-0.165	0.051
-539.208	-71.041	-0.299	-0.112
-538.193	-200.000	0.023	-0.201
-537.179	61.486	-0.154	0.152
-536.164	-135.928	0.058	-0.007
-535.150	-200.000	0.040	0.281
-534.135	-200.000	-0.001	0.221
-533.121	-200.000	-0.030	-0.294
-532.106	97.320	-0.088	-0.100
-531.091	226.329	0.113	-0.182
-530.077	227.080	-0.111	-0.178
-529.062	-200.000	0.009	-0.263
-528.048	-169.541	0.136	0.005
-527.033	403.928	0.034	0.071
-526.018	-200.000	0.044	-0.229
-525.004	-107.186	-0.291	-0.063
-523.989	69.819	-0.239	0.245
-522.975	123.526	-0.152	0.189
-521.960	-112.128	-0.077	0.015
-520.945	13.521	0.250	-0.192
-519.931	412.913	0.143	0.301
-518.916	-200.000	-0.015	0.100
-517.902	93.411	-0.150	0.169
-516.887	79.732	0.205	0.218
-515.872	-200.000	-0.016	0.398
-514.858	544.706	-0.065	-0.153
-513.843	-70.141	0.262	-0.099
-512.829	482.349	-0.095	0.214
-511.814	-118.350	-0.164	-0.029
-510.799	800.000	0.064	-0.188
-509.785	-200.000	-0.168	0.000
-508.770	280.647	0.100	0.178
-507.756	-138.739	-0.397	0.043
-506.741	63.090	0.090	-0.089
-505.726	-32.687	0.134	0.074
-504.712	53.227	-0.108	-0.102
-503.697	-77.250	0.194	-0.067
-502.683	201.810	-0.210	0.320
-501.668	-200.000	-0.029	-0.133
-500.653	-99.898	0.388	-0.096
-499.639	101.154	0.115	0.133
-498.624	37.810	-0.312	0.274
-497.610	-200.000	-0.022	0.153
-496.595	35.201	0.240	0.208
-495.581	800.000	-0.061	0.211
-494.566	59.369	0.160	-0.156
-493.551	418.914	0.058	-0.122
-492.537	-65.211	-0.236	0.094
-491.522	-200.000	-0.036	0.180
-490.508	-200.000	0.049	-0.238
-489.493	-67.079	-0.164	-0.064
-488.478	26.938	0.082	0.068
-487.464	-200.000	0.124	-0.000
-486.449	-108.824	0.236	0.050
-485.435	-200.000	-0.004	-0.118
-484.420	-92.676	-0.201	0.056
-483.405	-200.000	0.005	0.183
-482.391	-34.293	0.239	-0.130
-481.376	237.878	-0.240	-0.393
-480.362	-200.000	-0.020	-0.188
-479.347	-16.540	0.144	-0.090
-478.332	800.000	0.061	-0.206
-477.318	-78.729	-0.149	0.050
-476.303	800.000	-0.071	-0.194
-475.289	-81.931	0.283	0.091
-474.274	-84.624	0.218	0.068
-473.259	-200.000	0.014	0.070
-472.245	-151.781	-0.389	0.028
-471.230	-35.131	-0.034	0.018
-470.216	267.039	0.085	0.147
-469.201	-86.130	-0.184	0.056
-468.186	213.751	-0.107	-0.167
-467.172	-175.412	0.407	0.011
-466.157	84.386	0.114	-0.123
-465.143	-89.544	0.210	0.061
-464.128	102.429	-0.099	-0.114
-463.113	239.461	0.263	0.433
-462.099	-200.000	0.009	0.181
-461.084	-110.032	0.121	0.025
-460.070	197.258	-0.191	-0.289
-459.055	800.000	-0.037	0.103
-458.040	800.000	0.034	-0.113
-457.026	156.903	0.066	-0.090
-456.011	800.000	0.099	-0.286
-454.997	800.000	-0.106	-0.336
-453.982	691.307	0.078	0.201
-452.968	310.220	-0.142	-0.262
-451.953	-83.451	0.099	-0.031
-450.938	800.000	0.052	0.153
-449.924	-52.739	-0.203	0.092
-448.909	-108.741	0.129	-0.027
-447.895	119.413	-0.109	0.133
-446.880	316.385	0.081	-0.151
-445.865	110.126	-0.170	-0.202
-444.851	-33.524	-0.129	-0.070
-443.836	-92.566	0.112	-0.031
-442.822	24.025	-0.134	-0.109
-441.807	210.287	0.183	0.283
-440.792	-72.578	-0.117	0.043
-439.778	-112.995	0.378	0.074
-438.763	-200.000	-0.046	-0.282
-437.749	800.000	-0.107	-0.306
-436.734	247.734	-0.107	0.178
-435.719	-137.427	0.297	-0.033
-434.705	-56.977	0.207	-0.090
-433.690	152.586	0.184	-0.249
-432.676	-140.249	-0.326	0.034
-431.661	800.000	0.107	0.426
-430.646	466.018	0.126	0.279
-429.632	182.491	-0.214	-0.312
-428.617	-43.382	0.072	0.036
-427.603	-200.000	0.038	0.230
-426.588	800.000	-0.031	-0.107
-425.573	-200.000	0.041	0.231
-424.559	800.000	0.028	0.087
-423.544	36.403	-0.158	0.137
-422.530	424.407	-0.116	-0.246
-421.515	-170.993	-0.131	-0.004
-420.500	279.253	0.133	-0.234
-419.486	21.314	-0.133	-0.107
-418.471	449.640	0.133	0.290
-417.457	273.310	0.191	0.334
-416.442	-42.762	0.337	0.169
-415.428	650.285	0.058	0.146
-414.413	-200.000	0.014	-0.175
-413.398	800.000	-0.089	0.277
-412.384	360.987	0.015	0.031
-411.369	-200.000	0.015	-0.332
-410.355	800.000	0.071	0.292
-409.340	47.240	0.327	-0.300
-408.325	32.163	-0.466	-0.396
-407.311	71.563	0.134	-0.138
-406.296	-200.000	-0.003	-0.251
-405.282	195.512	-0.197	0.296
-404.267	-200.000	0.079	-0.617
-403.252	-77.355	0.257	-0.088
-402.238	-113.654	-0.197	-0.038
-401.223	-200.000	-0.011	0.174
-400.209	359.854	0.148	-0.292
-399.194	19.872	-0.195	0.155
-398.179	192.606	-0.160	-0.238
-397.165	-41.847	-0.307	0.155
-396.150	-28.220	0.126	0.072
-395.136	350.583	0.088	0.172
-394.121	95.391	0.268	-0.301
-393.106	-135.213	-0.326	-0.039
-392.092	108.316	-0.188	-0.222
-391.077	-200.000	-0.006	0.069
-390.063	-12.659	0.136	0.088
-389.048	-38.373	-0.170	0.089
-388.033	100.484	-0.259	-0.296
-387.019	-39.355	-0.040	-0.021
-386.004	-200.000	-0.010	-0.102
-384.990	-194.489	0.013	0.000
-383.975	800.000	0.036	0.153
-382.960	487.430	-0.194	-0.437
-381.946	-200.000	-0.022	0.135
-380.931	150.831	-0.158	0.212
-379.917	800.000	-0.037	0.113
-378.902	-16.632	-0.022	-0.014
-377.888	90.428	-0.150	0.165
-376.873	-162.924	-0.055	-0.003
-375.858	486.842	-0.016	-0.036
-374.844	-147.804	-0.142	-0.012
-373.829	-98.293	0.244	-0.062
-372.815	-199.259	-0.180	0.001
-371.800	376.129	-0.141	0.283
-370.785	20.842	0.154	0.123
-369.771	800.000	-0.024	-0.091
-368.756	690.264	-0.052	0.135
-367.742	-129.416	0.241	-0.033
-366.727	-50.700	0.040	-0.018
-365.712	10.786	0.245	-0.184
-364.698	800.000	-0.052	-0.173
-363.683	134.960	-0.196	0.250
-362.669	269.034	-0.105	0.181
-361.654	23.821	0.108	-0.088
-360.639	273.353	0.173	0.301
-359.625	8.064	0.290	0.214
-358.610	234.816	-0.113	-0.184
-357.596	800.000	-0.006	-0.019
-356.581	-12.806	0.233	0.149
-355.566	42.840	0.390	-0.350
-354.552	-121.169	-0.203	-0.033
-353.537	-82.000	-0.326	-0.105
-352.523	-138.808	-0.391	0.042
-351.508	-121.602	0.181	-0.030
-350.493	-200.000	0.051	-0.337
-349.479	232.855	0.007	0.012
-348.464	-127.392	0.205	0.029
-347.450	126.456	0.139	0.173
-346.435	-72.013	0.135	-0.049
-345.420	-101.258	-0.495	0.119
-344.406	-200.000	0.012	-0.175
-343.391	68.297	-0.180	-0.181
-342.377	42.508	-0.105	-0.094
-341.362	-105.385	0.170	0.038
-340.348	-50.229	0.155	-0.072
-339.333	-200.000	0.006	-0.200
-338.318	-107.865	-0.237	-0.051
-337.304	49.737	-0.060	0.056
-336.289	-13.091	0.327	0.209
-335.275	-135.290	0.182	0.021
-334.260	40.120	-0.129	0.114
-333.245	187.757	0.088	-0.129
-332.231	159.929	-0.162	-0.222
-331.216	800.000	0.055	-0.233
-330.202	-200.000	0.024	-0.180
-329.187	-10.930	-0.190	0.123
-328.172	-105.831	-0.400	0.089
-327.158	800.000	0.078	-0.330
-326.143	503.671	-0.063	-0.142
-325.129	-67.640	0.072	0.028
-324.114	144.385	-0.172	0.226
-323.099	-63.647	0.055	0.022
-322.085	-93.890	0.254	-0.069
-321.070	-199.550	0.207	0.001
-320.056	72.431	0.103	-0.105
-319.041	-19.214	0.256	0.156
-318.026	-44.967	-0.337	0.165
-317.012	-167.545	-0.258	0.010
-315.997	-174.936	0.160	-0.004
-314.983	19.201	-0.076	-0.060
-313.968	-43.414	-0.305	0.151
-312.953	-78.821	0.215	0.072
-311.939	-66.683	-0.288	-0.112
-310.924	-161.442	-0.235	0.012
-309.910	456.841	-0.173	-0.378
-308.895	-200.000	0.005	-0.299
-307.880	800.000	-0.048	0.165
-306.866	63.652	-0.168	0.166
-305.851	-200.000	-0.004	-0.076
-304.837	-96.215	-0.346	-0.090
-303.822	-200.000	0.001	0.068
-302.807	800.000	-0.056	0.228
-301.793	-200.000	0.005	-0.245
-300.778	616.969	0.057	-0.140
-299.764	137.369	0.207	-0.266
-298.749	41.996	-0.121	0.107
-297.735	800.000	0.032	-0.104
-296.720	-200.000	-0.005	0.245
-295.705	-3.206	0.130	0.089
-294.691	-200.000	0.014	-0.095
-293.676	-200.000	0.028	-0.211
-292.662	-200.000	0.018	0.101
-291.647	-25.953	-0.269	0.155
-290.632	-131.805	-0.409	0.053
-289.618	172.715	0.133	-0.187
-288.603	304.946	-0.059	-0.108
-287.589	-200.000	0.026	0.214
-286.574	80.362	0.052	0.055
-285.559	-200.000	0.004	-0.032
-284.545	128.715	-0.197	-0.247
-283.530	381.730	-0.057	0.116
-282.516	164.198	-0.078	-0.109
-281.501	582.832	0.097	-0.234
-280.486	-65.651	-0.228	0.090
-279.472	7.116	0.374	0.274
-278.457	40.514	0.101	-0.090
-277.443	-200.000	0.022	-0.427
-276.428	-51.345	-0.259	0.119
-275.413	-200.000	-0.004	-0.090
-274.399	589.369	-0.074	-0.178
-273.384	-103.063	0.267	0.062
-272.370	60.036	0.253	-0.245
-271.355	38.557	-0.230	-0.202
-270.340	-143.713	0.289	-0.027
-269.326	-5.247	0.042	0.028
-268.311	-94.771	-0.096	0.026
-267.297	-105.141	-0.321	0.072
-266.282	-90.364	0.054	0.015
-265.267	-18.706	-0.162	-0.099
-264.253	800.000	0.066	0.243
-263.238	-200.000	-0.008	-0.155
-262.224	-44.526	-0.027	0.013
-261.209	-200.000	0.012	-0.091
-260.195	-76.343	0.255	0.088
-259.180	-97.038	0.081	0.021
-258.165	13.512	0.127	-0.097
-257.151	-136.849	0.347	0.039
-256.136	-26.727	0.224	0.129
-255.122	48.402	0.190	-0.174
-254.107	-148.664	0.188	-0.015
-253.092	187.939	-0.052	-0.076
-252.078	-100.199	0.200	0.049
-251.063	161.759	-0.127	0.174
-250.049	-192.821	0.068	0.001
-249.034	-50.361	-0.198	-0.092
-248.019	-42.333	0.180	-0.090
-247.005	97.745	0.036	-0.041
-245.990	-127.258	-0.149	-0.021
-244.976	800.000	0.072	0.258
-243.961	-103.990	-0.221	0.050
-242.946	73.130	-0.264	0.271
-241.932	183.158	0.164	-0.237
-240.917	-200.000	-0.005	0.174
-239.903	-100.621	-0.110	-0.027
-238.888	-74.006	0.141	0.050
-237.873	-121.443	0.119	-0.019
-236.859	-138.296	-0.264	0.029
-235.844	231.452	0.035	-0.057
-234.830	-101.814	0.524	-0.124
-233.815	106.735	-0.103	-0.119
-232.800	-38.335	-0.306	0.159
-231.786	-200.000	0.057	-0.392
-230.771	-131.850	-0.190	-0.024
-229.757	-38.393	0.317	0.164
-228.742	-200.000	-0.001	0.025
-227.727	510.591	-0.152	-0.345
-226.713	-12.028	-0.195	0.125
-225.698	-200.000	0.029	0.127
-224.684	-168.213	0.322	0.012
-223.669	800.000	-0.066	0.273
-222.655	-165.907	0.274	0.011
-221.640	-136.439	-0.252	-0.029
-220.625	64.747	0.257	0.253
-219.611	800.000	-0.036	0.115
-218.596	542.939	-0.021	0.050
-217.582	-200.000	0.003	-0.306
-216.567	-48.918	-0.120	-0.056
-215.552	800.000	-0.049	0.163
-214.538	330.137	0.064	-0.120
-213.523	-200.000	0.026	-0.221
-212.509	17.296	0.293	-0.227
-211.494	-200.000	0.029	0.200
-210.479	99.456	-0.051	0.057
-209.465	-168.293	-0.192	-0.007
-208.450	-38.141	0.070	0.036
-207.436	177.510	0.064	-0.091
-206.421	-108.031	-0.232	-0.049
-205.406	27.748	-0.037	-0.030
-204.392	-200.000	0.060	-0.302
-203.377	-200.000	-0.029	0.273
-202.363	-135.919	0.212	0.024
-201.348	51.082	0.238	0.221
-200.333	-194.342	-0.213	0.002
-199.319	330.807	-0.137	0.257
-198.304	-200.000	-0.006	0.053
-197.290	527.003	-0.056	-0.129
-196.275	-200.000	-0.010	0.161
-195.260	-200.000	0.055	0.324
-194.246	-151.262	0.399	-0.029
-193.231	40.860	0.244	-0.215
-192.217	-200.000	0.059	0.258
-191.202	-194.571	0.193	0.001
-190.187	738.651	0.104	-0.274
-189.173	176.039	-0.111	-0.157
-188.158	17.839	0.192	-0.150
-187.144	-118.483	-0.323	0.056
-186.129	-125.106	0.249	-0.037
-185.114	-2.419	0.275	-0.188
-184.100	-122.542	-0.189	0.030
-183.085	74.445	0.091	0.094
-182.071	-200.000	0.002	-0.355
-181.056	-83.716	-0.410	0.128
-180.042	51.319	0.285	0.264
-179.027	113.113	-0.206	0.244
-178.012	-111.117	0.167	-0.033
-176.998	-86.697	0.212	0.064
-175.983	-200.000	0.022	0.102
-174.969	706.825	0.144	0.371
-173.954	328.700	0.040	0.075
-172.939	-181.395	0.324	-0.006
-171.925	-200.000	-0.023	-0.473
-170.910	800.000	-0.025	0.072
-169.896	33.664	0.028	-0.024
-168.881	-200.000	-0.106	0.487
-167.866	31.832	0.236	0.198
-166.852	-200.000	-0.031	0.286
-165.837	163.480	-0.192	0.264
-164.823	-106.492	0.368	0.080
-163.808	497.889	0.063	-0.142
-162.793	-145.515	0.340	-0.030
-161.779	-100.233	0.158	-0.038
-160.764	211.505	0.080	-0.123
-159.750	-43.909	0.029	-0.014
-158.735	-200.000	-0.004	-0.064
-157.720	-26.774	0.152	-0.087
-156.706	800.000	0.091	0.352
-155.691	-200.000	0.001	0.161
-154.677	-83.475	-0.196	-0.061
-153.662	-200.000	-0.002	-0.142
-152.647	-200.000	-0.023	0.246
-151.633	-200.000	0.016	-0.096
-150.618	-200.000	0.013	0.121
-149.604	223.253	-0.205	0.322
-148.589	209.473	-0.163	0.249
-147.574	800.000	0.092	-0.262
-146.560	-200.000	-0.008	-0.051
-145.545	-10.792	0.259	-0.167
-144.531	332.327	0.051	0.095
-143.516	42.231	0.198	-0.175
-142.502	-104.460	0.108	-0.024
-141.487	50.305	-0.195	-0.180
-140.472	75.206	0.178	-0.183
-139.458	108.682	0.266	-0.310
-138.443	-2.478	-0.149	0.102
-137.429	105.407	0.175	0.201
-136.414	-200.000	-0.163	0.000
-135.399	74.615	0.141	-0.145
-134.385	187.286	0.144	0.210
-133.370	-72.216	-0.232	0.084
-132.356	212.813	0.158	0.243
-131.341	800.000	-0.074	0.218
-130.326	800.000	0.022	0.091
-129.312	800.000	0.099	0.280
-128.297	-118.887	0.177	0.030
-127.283	-14.106	0.262	-0.165
-126.268	36.587	0.120	-0.103
-125.253	67.960	0.071	-0.070
-124.239	-67.192	0.128	-0.049
-123.224	71.323	0.086	-0.087
-122.210	60.940	0.362	-0.350
-121.195	-164.670	-0.116	0.005
-120.180	200.362	0.257	0.384
-119.166	-200.000	-0.010	-0.199
-118.151	268.832	-0.049	-0.084
-117.137	260.210	-0.123	0.207
-116.122	800.000	-0.092	-0.286
-115.107	-200.000	0.005	-0.146
-114.093	-87.095	-0.117	0.035
-113.078	-87.582	-0.335	0.099
-112.064	67.781	-0.389	0.388
-111.049	57.542	-0.106	0.101
-110.034	110.356	-0.216	-0.253
-109.020	-86.305	0.035	0.011
-108.005	-47.097	0.273	-0.130
-106.991	-161.192	-0.157	-0.008
-105.976	-104.195	0.034	-0.008
-104.962	-200.000	-0.007	0.150
-103.947	236.086	-0.170	0.274
-102.932	62.185	-0.136	-0.132
-101.918	800.000	0.049	-0.151
-100.903	-27.820	0.227	0.128
-99.889	189.345	0.033	0.048
-98.874	66.862	0.192	0.191
-97.859	-17.952	0.071	-0.044
-96.845	-58.742	-0.173	-0.073
-95.830	-36.554	-0.355	-0.186
-94.816	-200.000	-0.006	-0.267
-93.801	-91.469	-0.077	-0.021
-92.786	97.005	-0.067	-0.074
-91.772	142.519	-0.111	-0.144
-90.757	-200.000	-0.010	0.046
-89.743	-113.276	0.526	-0.101
-88.728	800.000	-0.071	-0.214
-87.713	95.324	0.251	0.279
-86.699	-200.000	-0.024	-0.174
-85.684	188.213	-0.137	-0.199
-84.670	-45.685	-0.279	0.135
-83.655	-200.000	-0.016	0.383
-82.640	-81.925	0.445	0.142
-81.626	60.769	0.231	0.223
-80.611	-43.700	0.080	0.039
-79.597	-72.830	0.095	0.034
-78.582	462.774	0.100	0.217
-77.567	-200.000	-0.022	-0.388
-76.553	442.077	0.060	-0.128
-75.538	32.266	0.330	0.278
-74.524	262.814	-0.084	0.142
-73.509	-50.278	-0.177	-0.081
-72.494	28.322	-0.272	-0.224
-71.480	683.729	0.134	0.340
-70.465	-157.578	-0.212	0.012
-69.451	-69.169	-0.418	0.156
-68.436	-187.460	0.141	0.002
-67.422	-200.000	0.057	-0.350
-66.407	-40.215	0.262	0.133
-65.392	-136.788	0.188	0.021
-64.378	-73.896	-0.324	-0.115
-63.363	758.360	0.115	0.304
-62.349	258.877	-0.117	0.196
-61.334	90.318	-1.196	-1.302
-60.319	208.727	0.507	0.772
-59.305	800.000	-0.476	-1.490
-58.290	574.061	0.619	1.469
-57.276	800.000	0.404	1.202
-56.261	-200.000	124.240	643.402
-55.246	417.295	1562.423	3245.028
-54.232	143.023	2730.828	3531.800
-53.217	90.547	2305.731	2510.611
-52.203	32.629	1915.587	1610.726
-51.188	26.515	1710.571	1391.436
-50.173	24.330	1671.934	1343.510
-49.159	45.371	1740.555	1561.523
-48.144	43.282	1752.130	1555.763
-47.130	26.010	1703.558	1381.647
-46.115	23.519	1688.410	1350.366
-45.100	23.412	1682.884	1345.078
-44.086	23.321	1680.872	1342.732
-43.071	23.325	1678.757	1341.018
-42.057	23.298	1676.628	1339.063
-41.042	23.349	1674.384	1337.600
-40.027	23.321	1672.364	1335.724
-39.013	23.254	1670.367	1333.570
-37.998	23.290	1669.060	1332.745
-36.984	23.260	1668.196	1331.777
-35.969	23.428	1666.475	1331.611
-34.954	23.414	1664.787	1330.103
-33.940	23.391	1662.842	1328.323
-32.925	23.399	1660.841	1326.733
-31.911	23.465	1659.388	1326.010
-30.896	23.504	1657.818	1324.998
-29.881	23.483	1655.979	1323.318
-28.867	23.419	1654.423	1321.544
-27.852	23.432	1653.302	1320.695
-26.838	23.451	1652.073	1319.803
-25.823	23.459	1650.318	1318.406
-24.809	23.514	1649.547	1318.147
-23.794	23.415	1647.915	1316.053
-22.779	23.398	1646.779	1314.966
-21.765	23.473	1644.450	1313.611
-20.750	23.441	1642.867	1312.059
-19.736	23.431	1641.309	1310.693
-18.721	23.430	1640.296	1309.818
-17.706	23.401	1639.110	1308.605
-16.692	23.461	1637.009	1307.325
-15.677	23.517	1635.308	1306.323
-14.663	23.533	1634.365	1305.634
-13.648	23.463	1633.411	1304.309
-12.633	23.522	1632.047	1303.598
-11.619	23.446	1630.596	1301.829
-10.604	23.577	1628.620	1301.164
-9.590	23.446	1627.794	1299.490
-8.575	23.483	1626.414	1298.607
-7.560	23.550	1624.875	1297.821
-6.546	23.514	1624.020	1296.823
-5.531	23.437	1622.860	1295.282
-4.517	23.393	1622.244	1294.416
-3.502	23.506	1620.315	1293.647
-2.487	23.592	1618.586	1292.846
-1.473	23.160	1606.469	1279.989
-0.458	20.451	1587.291	1245.271
0.556	15.491	1589.798	1215.632
1.571	13.420	1614.524	1219.193
2.586	13.185	1626.902	1226.683
3.600	12.338	1572.121	1179.199
4.615	6.791	1464.054	1060.870
5.629	1.308	1405.103	982.637
6.644	0.337	1398.041	971.360
7.659	0.213	1397.255	969.931
8.673	0.111	1396.223	968.468
9.688	0.119	1393.541	966.575
10.702	-0.070	1390.406	963.102
11.717	2.711	1394.189	983.491
12.731	9.734	1404.745	1036.100
13.746	15.283	1413.052	1077.908
14.761	16.669	1414.626	1087.922
15.775	16.228	1412.382	1083.273
16.790	15.278	1409.980	1075.244
17.804	14.426	1407.722	1067.970
18.819	14.121	1406.595	1065.067
19.834	13.836	1405.007	1061.946
20.848	13.540	1404.420	1059.515
21.863	13.376	1402.492	1056.919
22.877	13.167	1401.413	1054.680
23.892	13.084	1400.274	1053.200
24.907	13.106	1399.561	1052.713
25.921	13.180	1398.415	1052.225
26.936	13.142	1398.009	1051.584
27.950	13.234	1396.780	1051.155
28.965	13.207	1396.080	1050.362
29.980	13.360	1394.687	1050.196
30.994	13.400	1393.744	1049.642
32.009	13.427	1392.942	1049.119
33.023	13.298	1392.198	1047.650
34.038	13.281	1390.548	1046.204
35.053	13.299	1389.313	1045.296
36.067	13.377	1388.388	1045.005
37.082	13.398	1387.476	1044.356
38.096	13.280	1386.504	1042.788
39.111	13.283	1385.784	1042.174
40.126	13.249	1384.612	1040.987
41.140	13.144	1383.892	1039.690
42.155	13.218	1383.448	1039.730
43.169	13.055	1383.311	1038.512
44.184	13.212	1382.576	1038.855
45.199	13.160	1382.185	1038.145
46.213	13.128	1381.840	1037.591
47.228	13.262	1380.240	1037.136
48.242	13.226	1379.586	1036.331
49.257	13.220	1378.015	1035.019
50.271	13.199	1376.345	1033.545
51.286	13.149	1375.177	1032.258
52.301	13.310	1373.545	1031.948
53.315	13.256	1372.637	1030.839
54.330	13.318	1371.335	1030.159
55.344	13.143	1370.812	1028.581
56.359	13.201	1369.487	1027.858
57.374	13.210	1368.444	1027.038
58.388	13.161	1367.778	1026.145
59.403	13.039	1367.464	1025.063
60.417	13.084	1366.542	1024.556
61.432	13.077	1365.159	1023.388
62.447	13.060	1364.557	1022.742
63.461	13.175	1362.729	1021.992
64.476	13.079	1362.165	1020.883
65.490	13.098	1360.674	1019.794
66.505	13.071	1359.131	1018.382
67.520	13.140	1357.891	1017.787
68.534	13.053	1357.409	1016.798
69.549	13.071	1355.764	1015.590
70.563	13.069	1354.898	1014.838
71.578	12.981	1353.359	1013.053
72.593	13.029	1352.785	1012.830
73.607	13.054	1351.837	1012.182
74.622	12.975	1350.812	1010.840
75.636	12.902	1350.483	1010.060
76.651	12.947	1349.784	1009.723
77.666	12.984	1348.507	1008.902
78.680	12.985	1348.359	1008.711
79.695	13.078	1346.671	1007.927
80.709	13.004	1346.982	1007.619
81.724	13.098	1345.788	1007.209
82.739	13.172	1344.756	1006.798
83.753	13.125	1344.077	1005.913
84.768	13.185	1342.817	1005.252
85.782	13.272	1341.255	1004.519
86.797	13.202	1340.010	1003.072
87.812	13.196	1339.033	1002.218
88.826	13.094	1337.535	1000.386
89.841	13.247	1336.473	1000.433
90.855	13.273	1335.385	999.684
91.870	13.320	1334.606	999.296
92.884	13.301	1334.005	998.647
93.899	13.301	1332.846	997.690
94.914	13.179	1332.667	996.732
95.928	13.274	1331.481	996.330
96.943	13.163	1331.009	995.219
97.957	13.347	1329.292	994.951
98.972	13.313	1328.556	994.112
99.987	13.318	1326.900	992.811
101.001	13.278	1326.233	991.986
102.016	13.377	1324.957	991.536
103.030	13.309	1324.515	990.710
104.045	13.383	1322.975	989.916
105.060	13.272	1322.089	988.502
106.074	13.212	1321.193	987.384
107.089	13.040	1320.039	985.408
108.103	13.169	1318.206	984.722
109.118	13.199	1317.177	984.046
110.133	13.189	1315.274	982.476
111.147	13.118	1314.325	981.260
112.162	13.244	1312.734	980.732
113.176	13.244	1311.621	979.812
114.191	13.227	1311.028	979.185
115.206	13.119	1309.837	977.569
116.220	13.155	1308.858	976.962
117.235	13.202	1307.336	976.020
118.249	13.210	1306.921	975.670
119.264	13.204	1305.432	974.434
120.279	13.179	1303.985	973.120
121.293	13.290	1302.931	972.906
122.308	13.165	1302.422	971.703
123.322	13.077	1301.453	970.374
124.337	13.118	1300.492	969.812
125.352	13.149	1298.975	968.776
126.366	13.110	1297.952	967.702
127.381	13.061	1296.576	966.304
128.395	13.135	1295.403	965.775
129.410	13.177	1294.577	965.317
130.424	13.092	1294.070	964.359
131.439	13.113	1292.939	963.554
132.454	13.155	1292.008	963.020
133.468	13.208	1290.882	962.404
134.483	13.141	1290.009	961.276
135.497	13.038	1289.170	959.970
136.512	13.203	1287.240	959.404
137.527	13.134	1286.358	958.262
138.541	13.160	1284.980	957.305
139.556	13.192	1283.985	956.663
140.570	13.300	1282.600	956.171
141.585	13.265	1281.552	955.100
142.600	13.386	1279.825	954.427
143.614	13.321	1279.266	953.555
144.629	13.339	1278.369	952.902
145.643	13.382	1276.859	951.938
146.658	13.374	1275.668	950.922
147.673	13.260	1274.675	949.445
148.687	13.302	1273.664	948.846
149.702	13.280	1271.733	947.198
150.716	13.279	1270.432	946.141
151.731	13.333	1269.186	945.436
152.746	13.292	1268.181	944.369
153.760	13.361	1266.759	943.621
154.775	13.403	1265.627	942.935
155.789	13.424	1264.886	942.418
156.804	13.450	1263.544	941.483
157.819	13.426	1262.756	940.677
158.833	13.492	1261.165	939.781
159.848	13.613	1260.176	939.648
160.862	13.562	1259.374	938.681
161.877	13.528	1258.327	937.624
162.892	13.449	1257.567	936.529
163.906	13.467	1256.728	935.922
164.921	13.482	1255.610	935.088
165.935	13.507	1254.986	934.682
166.950	13.530	1253.968	933.973
167.964	13.570	1253.440	933.724
168.979	13.608	1252.810	933.386
169.994	13.406	1252.606	932.014
171.008	13.568	1251.444	931.978
172.023	13.582	1250.222	931.062
173.037	13.653	1249.556	930.884
174.052	13.556	1248.680	929.604
175.067	13.485	1247.745	928.429
176.081	13.554	1246.500	927.805
177.096	13.518	1245.975	927.130
178.110	13.599	1244.344	926.289
179.125	13.585	1243.357	925.393
180.140	13.674	1241.789	924.638
181.154	13.695	1240.392	923.637
182.169	13.744	1239.443	923.117
183.183	13.804	1238.292	922.512
184.198	13.800	1237.036	921.475
185.213	13.832	1236.096	920.871
186.227	13.766	1235.220	919.769
187.242	13.840	1233.898	919.114
188.256	13.847	1233.254	918.593
189.271	13.873	1232.268	917.922
190.286	13.672	1231.163	915.907
191.300	13.662	1230.571	915.331
192.315	13.644	1229.679	914.485
193.329	13.696	1229.071	914.241
194.344	13.716	1228.277	913.680
195.359	13.800	1227.549	913.519
196.373	13.897	1226.925	913.504
197.388	13.866	1226.657	913.053
198.402	13.950	1226.016	912.960
199.417	14.032	1225.023	912.591
200.432	14.038	1224.410	912.086
201.446	14.026	1223.740	911.439
202.461	14.080	1222.636	910.833
203.475	14.167	1221.324	910.248
204.490	14.042	1220.669	908.995
205.504	13.996	1219.517	907.809
206.519	13.937	1217.973	906.260
207.534	13.930	1217.346	905.671
208.548	14.033	1215.828	905.025
209.563	13.955	1215.108	903.983
210.577	13.985	1214.067	903.294
211.592	14.159	1212.920	903.303
212.607	14.097	1212.226	902.368
213.621	14.174	1211.443	902.127
214.636	14.156	1210.524	901.265
215.650	14.190	1209.756	900.794
216.665	14.257	1208.555	900.185
217.680	14.292	1207.678	899.641
218.694	14.293	1207.032	899.084
219.709	14.267	1206.426	898.412
220.723	14.234	1205.244	897.278
221.738	14.329	1204.686	897.296
222.753	14.257	1204.080	896.373
223.767	14.320	1202.977	895.814
224.782	14.275	1202.585	895.199
225.796	14.422	1201.822	895.342
226.811	14.302	1201.415	894.316
227.826	14.411	1200.186	893.904
228.840	14.420	1199.390	893.280
229.855	14.340	1198.868	892.386
230.869	14.441	1198.114	892.285
231.884	14.340	1196.712	890.622
232.899	14.369	1196.294	890.391
233.913	14.338	1195.455	889.521
234.928	14.273	1195.093	888.825
235.942	14.338	1194.240	888.456
236.957	14.415	1192.942	887.824
237.972	14.294	1192.769	886.970
238.986	14.340	1191.760	886.391
240.001	14.336	1191.039	885.752
241.015	14.454	1190.026	885.545
242.030	14.484	1189.266	885.063
243.045	14.455	1188.720	884.424
244.059	14.632	1187.668	884.503
245.074	14.516	1187.283	883.523
246.088	14.575	1185.937	882.756
247.103	14.476	1185.542	881.858
248.117	14.589	1184.406	881.533
249.132	14.681	1183.683	881.402
250.147	14.587	1183.335	880.567
251.161	14.666	1182.445	880.244
252.176	14.670	1181.700	879.636
253.190	14.797	1180.425	879.276
254.205	14.837	1180.171	879.221
255.220	14.767	1179.916	878.585
256.234	14.859	1179.225	878.476
257.249	14.882	1178.472	877.957
258.263	14.838	1177.624	877.014
259.278	14.888	1176.911	876.670
260.293	14.974	1176.191	876.508
261.307	14.936	1175.826	875.957
262.322	14.965	1175.242	875.597
263.336	14.978	1174.255	874.851
264.351	15.052	1173.703	874.749
265.366	15.050	1173.058	874.181
266.380	15.036	1172.481	873.601
267.395	15.142	1171.224	873.140
268.409	15.100	1170.259	872.124
269.424	15.038	1170.305	871.760
270.439	15.077	1169.407	871.217
271.453	15.106	1168.750	870.800
272.468	15.073	1167.373	869.525
273.482	15.028	1166.962	868.911
274.497	15.149	1166.014	868.754
275.512	15.126	1165.823	868.415
276.526	15.116	1165.087	867.739
277.541	15.126	1163.929	866.850
278.555	15.086	1163.759	866.442
279.570	15.106	1162.828	865.773
280.585	15.222	1161.569	865.357
281.599	15.169	1161.362	864.854
282.614	15.212	1160.118	864.073
283.628	15.222	1159.016	863.226
284.643	15.243	1157.536	862.157
285.657	15.215	1157.145	861.645
286.672	15.240	1156.457	861.188
287.687	15.191	1155.645	860.252
288.701	15.276	1154.765	859.956
289.716	15.277	1154.233	859.491
290.730	15.282	1153.167	858.647
291.745	15.364	1152.510	858.501
292.760	15.223	1151.924	857.268
293.774	15.412	1151.293	857.689
294.789	15.403	1150.493	856.969
295.803	15.475	1150.085	856.958
296.818	15.573	1149.273	856.775
297.833	15.363	1148.475	855.037
298.847	15.484	1147.547	854.887
299.862	15.519	1146.600	854.282
300.876	15.529	1145.772	853.640
301.891	15.638	1145.378	853.824
302.906	15.589	1144.820	853.087
303.920	15.508	1144.230	852.158
304.935	15.592	1143.280	851.801
305.949	15.693	1142.619	851.747
306.964	15.668	1142.272	851.287
307.979	15.672	1141.685	850.792
308.993	15.616	1140.442	849.509
310.008	15.772	1139.670	849.646
311.022	15.776	1138.746	848.900
312.037	15.592	1138.426	847.662
313.052	15.691	1137.018	847.037
314.066	15.733	1136.304	846.639
315.081	15.548	1135.654	845.148
316.095	15.665	1135.054	845.216
317.110	15.635	1134.714	844.739
318.125	15.709	1133.162	843.881
319.139	15.640	1132.856	843.232
320.154	15.801	1131.781	843.163
321.168	15.604	1131.244	841.703
322.183	15.703	1130.691	841.710
323.197	15.741	1130.038	841.343
324.212	15.697	1129.800	840.868
325.227	15.798	1129.029	840.725
326.241	15.768	1128.020	839.750
327.256	15.851	1126.952	839.295
328.270	15.829	1126.150	838.512
329.285	15.765	1125.519	837.650
330.300	15.795	1124.743	837.151
331.314	15.790	1123.451	836.088
332.329	15.833	1122.730	835.690
333.343	15.866	1121.828	835.112
334.358	15.822	1121.179	834.334
335.373	15.906	1119.930	833.747
336.387	15.922	1119.490	833.427
337.402	16.010	1118.653	833.161
338.416	15.908	1118.237	832.274
339.431	16.046	1117.023	831.979
340.446	16.148	1116.755	832.209
341.460	16.082	1115.815	831.108
342.475	16.125	1115.238	830.817
343.489	16.144	1114.333	830.165
344.504	16.192	1113.474	829.685
345.519	16.271	1112.231	829.077
346.533	16.233	1111.544	828.303
347.548	16.234	1110.788	827.670
348.562	16.260	1110.237	827.317
349.577	16.152	1109.399	826.087
350.592	16.164	1108.602	825.482
351.606	16.183	1108.175	825.183
352.621	16.087	1107.439	824.094
353.635	16.167	1106.574	823.767
354.650	16.095	1106.031	822.937
355.665	16.172	1105.096	822.545
356.679	16.265	1104.585	822.543
357.694	16.282	1103.927	822.068
358.708	16.198	1103.597	821.338
359.723	16.425	1102.320	821.421
360.738	16.333	1101.956	820.628
361.752	16.332	1101.434	820.163
362.767	16.425	1100.645	819.951
363.781	16.348	1100.406	819.329
364.796	16.481	1099.608	819.308
365.810	16.331	1099.179	818.189
366.825	16.432	1098.611	818.180
367.840	16.477	1098.069	817.922
368.854	16.521	1097.257	817.460
369.869	16.482	1096.596	816.703
370.883	16.550	1095.409	816.075
371.898	16.536	1094.740	815.437
372.913	16.467	1094.613	814.940
373.927	16.513	1094.066	814.682
374.942	16.591	1092.960	814.160
375.956	16.568	1092.879	813.917
376.971	16.646	1092.056	813.610
377.986	16.633	1091.629	813.157
379.000	16.686	1090.951	812.834
380.015	16.744	1090.391	812.623
381.029	16.868	1089.097	812.182
382.044	16.800	1088.713	811.495
383.059	16.692	1088.280	810.586
384.073	16.923	1087.165	810.787
385.088	16.902	1086.203	809.898
386.102	16.808	1085.423	808.799
387.117	16.737	1084.402	807.626
388.132	16.864	1083.284	807.325
389.146	16.851	1082.351	806.497
390.161	16.865	1081.948	806.193
391.175	16.826	1081.231	805.403
392.190	16.912	1080.663	805.316
393.205	16.806	1080.420	804.561
394.219	16.887	1078.984	803.803
395.234	16.872	1078.384	803.215
396.248	17.024	1076.909	802.764
397.263	16.944	1076.080	801.694
398.278	16.949	1075.464	801.190
399.292	16.976	1074.858	800.796
400.307	16.859	1073.885	799.447
401.321	16.820	1073.498	798.907
402.336	16.938	1072.809	798.878
403.350	16.986	1072.087	798.495
404.365	16.839	1071.716	797.458
405.380	17.061	1070.833	797.773
406.394	17.001	1069.846	796.686
407.409	17.107	1069.436	796.807
408.423	17.051	1068.351	795.664
409.438	17.054	1067.800	795.198
410.453	17.135	1067.074	794.967
411.467	17.220	1066.237	794.671
412.482	17.295	1065.108	794.109
413.496	17.232	1065.027	793.686
414.511	17.218	1064.643	793.264
415.526	17.364	1063.861	793.290
416.540	17.309	1063.691	792.838
417.555	17.256	1063.157	792.121
418.569	17.365	1062.366	791.967
419.584	17.541	1061.853	792.334
420.599	17.363	1061.744	791.358
421.613	107.050	1331.285	1484.480
422.628	98.820	1370.474	1484.545
