DTS Sentinel unit serial number:	SN413079Multiplexer serial number:	ORYXHardware model number:	OX4-SRSoftware version number:	ORYX F/W v4.00 Oryx Data Collector v3.7.2.0data status	okinstallation	princeton_trtdifferential loss correction	single-endedforward channel	channel 2reverse channel	N/Adate	2019/09/15time	03:47:34forward acquisition time	60.00reverse acquisition time	0.00gamma	496.2192k internal	0.2325k external	0.2325temperature offset calibration	1.0027default loss term (dB/km)	0.3790temperature slope calibration	1.0000multiplexer offset coefficient	1.0000multiplexer slope coefficient	1.0000fibre end	0.00T internal ref (°C)	30.95T ext. ref 1 (°C)	4.61T ext. ref 2 (°C)	25.90length (m)	temperature (°C)	Stokes	anti-Stokes-747.200	147.647	0.108	-0.147
-746.185	-33.916	-0.221	0.123
-745.171	-200.000	-0.026	0.239
-744.156	-200.000	-0.021	0.359
-743.142	-3.407	0.456	-0.320
-742.127	40.790	-0.273	0.249
-741.112	142.252	-0.032	0.042
-740.098	-24.386	0.164	-0.099
-739.083	-117.923	0.213	0.038
-738.069	-103.474	-0.064	0.015
-737.054	-133.622	0.077	0.010
-736.039	-132.107	-0.350	-0.046
-735.025	51.077	0.197	0.189
-734.010	-35.393	-0.076	-0.041
-732.996	-10.105	-0.205	-0.138
-731.981	-200.000	-0.040	-0.281
-730.966	-200.000	-0.091	-0.588
-729.952	173.110	-0.081	-0.118
-728.937	-200.000	0.001	0.086
-727.923	800.000	0.033	0.105
-726.908	169.030	-0.130	0.187
-725.894	99.108	-0.044	0.051
-724.879	49.205	-0.048	-0.046
-723.864	159.498	-0.076	-0.106
-722.850	-65.944	-0.108	-0.043
-721.835	58.798	-0.130	-0.129
-720.821	81.890	0.103	-0.112
-719.806	-58.431	0.484	-0.212
-718.791	243.187	0.063	0.107
-717.777	-113.337	0.380	0.075
-716.762	85.581	-0.041	-0.046
-715.748	13.094	-0.320	-0.249
-714.733	43.431	0.219	-0.201
-713.718	98.262	-0.274	-0.318
-712.704	800.000	0.122	-0.368
-711.689	185.196	0.107	-0.159
-710.675	-109.729	0.114	0.024
-709.660	-190.822	-0.297	-0.003
-708.645	-17.599	-0.071	0.045
-707.631	266.438	0.192	-0.339
-706.616	19.808	-0.163	0.132
-705.602	800.000	0.057	0.250
-704.587	-6.824	-0.137	-0.094
-703.572	415.464	0.136	0.292
-702.558	-53.695	-0.136	0.063
-701.543	-142.356	0.401	-0.040
-700.529	463.650	0.116	-0.262
-699.514	-200.000	-0.019	-0.382
-698.499	-120.625	0.264	0.045
-697.485	800.000	-0.013	0.043
-696.470	-24.189	-0.156	0.094
-695.456	-200.000	-0.020	-0.190
-694.441	386.185	0.082	-0.170
-693.426	-140.202	0.223	0.024
-692.412	271.105	0.265	-0.469
-691.397	-63.280	-0.198	0.082
-690.383	41.839	0.099	0.090
-689.368	56.062	0.167	0.163
-688.354	-69.462	-0.263	0.101
-687.339	-121.554	0.145	0.024
-686.324	-63.149	-0.278	-0.116
-685.310	-123.000	-0.148	-0.024
-684.295	-95.963	0.254	-0.068
-683.281	74.052	0.211	-0.222
-682.266	-81.891	0.143	0.047
-681.251	-109.317	0.265	0.056
-680.237	800.000	0.011	0.045
-679.222	-98.669	0.252	-0.065
-678.208	268.501	0.113	-0.199
-677.193	-134.029	-0.258	0.032
-676.178	-60.348	0.010	-0.004
-675.164	-200.000	-0.034	0.172
-674.149	-199.598	-0.179	0.001
-673.135	33.843	0.180	-0.158
-672.120	155.460	-0.077	0.106
-671.105	436.369	-0.111	-0.243
-670.091	-146.723	0.276	0.024
-669.076	-200.000	-0.001	0.093
-668.062	-200.000	0.016	0.076
-667.047	-200.000	0.014	0.093
-666.032	-60.274	-0.121	-0.052
-665.018	553.118	0.130	-0.313
-664.003	165.671	-0.118	-0.167
-662.989	-69.389	0.065	-0.025
-661.974	-70.144	0.326	0.125
-660.959	-58.885	-0.461	0.200
-659.945	271.827	-0.069	-0.122
-658.930	-17.805	-0.085	-0.054
-657.916	-152.454	0.126	0.009
-656.901	-52.277	0.270	0.126
-655.886	-200.000	-0.039	-0.272
-654.872	-0.684	0.150	-0.107
-653.857	-165.143	0.112	-0.005
-652.843	-57.832	0.251	-0.111
-651.828	-0.016	-0.300	0.214
-650.814	800.000	-0.085	0.244
-649.799	-86.108	-0.324	0.100
-648.784	-63.032	0.133	-0.055
-647.770	-24.547	-0.068	-0.041
-646.755	-54.960	-0.252	0.114
-645.741	-77.944	-0.255	-0.088
-644.726	800.000	-0.068	-0.281
-643.711	110.762	-0.154	0.186
-642.697	-90.762	-0.164	-0.048
-641.682	-200.000	0.003	-0.195
-640.668	43.533	0.146	-0.134
-639.653	104.567	-0.052	-0.062
-638.638	-13.867	0.198	-0.128
-637.624	15.537	-0.084	-0.066
-636.609	8.152	0.029	0.022
-635.595	-58.476	-0.120	-0.052
-634.580	95.744	0.118	0.135
-633.565	21.913	-0.248	-0.203
-632.551	55.360	0.162	0.157
-631.536	794.038	-0.113	0.312
-630.522	0.833	0.199	0.143
-629.507	-80.914	-0.021	0.007
-628.492	-17.649	-0.299	-0.189
-627.478	236.928	0.065	0.109
-626.463	-53.436	0.146	-0.067
-625.449	63.410	-0.201	-0.203
-624.434	239.506	0.092	0.153
-623.419	304.921	-0.213	0.398
-622.405	73.412	0.094	0.099
-621.390	-184.065	-0.157	-0.003
-620.376	33.403	-0.109	0.095
-619.361	-68.753	-0.303	-0.118
-618.346	-89.581	-0.166	0.049
-617.332	-77.005	-0.200	-0.070
-616.317	139.381	-0.175	-0.231
-615.303	303.781	-0.062	-0.115
-614.288	-154.665	-0.144	0.010
-613.273	-200.000	-0.014	0.093
-612.259	36.811	0.287	0.255
-611.244	-34.874	0.085	-0.047
-610.230	-1.753	0.098	-0.069
-609.215	-54.329	-0.172	0.078
-608.201	295.974	-0.071	-0.130
-607.186	365.567	-0.031	0.063
-606.171	-200.000	0.289	0.001
-605.157	-200.000	0.018	0.275
-604.142	15.601	0.045	0.035
-603.128	30.708	-0.165	0.142
-602.113	-54.307	-0.088	0.040
-601.098	-141.494	0.281	0.029
-600.084	-200.000	0.036	-0.197
-599.069	-192.437	0.123	-0.001
-598.055	-44.978	0.312	0.156
-597.040	-4.563	0.221	-0.153
-596.025	-86.304	0.031	0.010
-595.011	-7.536	-0.094	-0.064
-593.996	-90.092	0.152	-0.044
-592.982	-200.000	-0.031	0.156
-591.967	-144.733	0.498	0.046
-590.952	-112.483	-0.115	-0.023
-589.938	-181.278	-0.257	-0.005
-588.923	800.000	0.023	-0.069
-587.909	249.164	-0.011	-0.018
-586.894	800.000	0.052	-0.145
-585.879	-200.000	0.037	-0.168
-584.865	705.302	0.110	0.292
-583.850	800.000	-0.092	-0.398
-582.836	-108.059	0.226	0.049
-581.821	-127.242	0.124	0.018
-580.806	-140.398	0.342	0.036
-579.792	74.638	-0.174	0.184
-578.777	-200.000	-0.067	-0.312
-577.763	155.684	-0.045	-0.063
-576.748	-15.221	0.236	0.151
-575.733	144.134	-0.238	0.319
-574.719	-26.918	-0.076	-0.045
-573.704	-58.080	-0.109	0.048
-572.690	800.000	0.081	-0.353
-571.675	-172.890	-0.098	0.003
-570.661	76.327	-0.189	0.201
-569.646	-200.000	-0.039	0.293
-568.631	21.176	-0.145	-0.118
-567.617	52.630	0.076	-0.073
-566.602	-89.395	0.339	0.100
-565.588	-200.000	-0.029	0.181
-564.573	-37.464	0.187	-0.100
-563.558	-29.131	0.221	0.127
-562.544	800.000	0.031	0.125
-561.529	800.000	0.031	-0.092
-560.515	-52.382	-0.144	-0.067
-559.500	-41.135	0.230	0.119
-558.485	-92.134	-0.189	0.053
-557.471	-18.365	0.306	-0.192
-556.456	-200.000	0.004	0.132
-555.442	69.125	0.182	0.187
-554.427	-42.640	-0.202	0.103
-553.412	161.398	-0.163	-0.228
-552.398	800.000	0.065	0.189
-551.383	-200.000	-0.005	0.134
-550.369	233.892	0.049	-0.080
-549.354	-200.000	-0.026	0.144
-548.339	-200.000	0.055	-0.303
-547.325	409.525	-0.105	-0.222
-546.310	389.810	0.122	0.253
-545.296	26.170	-0.050	-0.042
-544.281	-200.000	0.083	-0.367
-543.266	541.387	-0.112	-0.268
-542.252	409.406	-0.071	0.151
-541.237	-43.667	-0.220	0.111
-540.223	-80.075	-0.255	0.086
-539.208	-59.611	0.385	-0.165
-538.193	1.360	-0.065	0.047
-537.179	46.339	-0.189	-0.176
-536.164	116.941	0.244	-0.300
-535.150	96.381	-0.226	-0.259
-534.135	116.873	-0.088	-0.108
-533.121	-73.538	-0.166	0.061
-532.106	-26.733	0.617	-0.361
-531.091	-200.000	-0.064	-0.387
-530.077	-42.115	-0.156	-0.080
-529.062	11.896	-0.220	-0.169
-528.048	-28.411	0.230	0.133
-527.033	174.939	0.151	-0.219
-526.018	201.917	-0.168	-0.260
-525.004	-200.000	-0.012	0.174
-523.989	800.000	-0.053	-0.165
-522.975	-200.000	-0.006	-0.025
-521.960	-79.435	0.112	-0.038
-520.945	27.159	0.458	0.384
-519.931	-58.042	0.215	0.094
-518.916	-200.000	-0.052	0.232
-517.902	392.490	0.046	-0.095
-516.887	325.674	0.084	0.161
-515.872	-131.245	0.309	-0.041
-514.858	-200.000	-0.012	0.104
-513.843	800.000	-0.059	-0.179
-512.829	-99.205	0.422	-0.107
-511.814	25.559	0.044	0.037
-510.799	121.047	-0.177	0.220
-509.785	800.000	0.068	0.195
-508.770	33.558	0.213	0.185
-507.756	-134.272	-0.214	-0.026
-506.741	-104.146	-0.141	0.033
-505.726	126.470	-0.238	0.301
-504.712	138.805	0.028	-0.037
-503.697	800.000	0.015	0.065
-502.683	-45.931	0.169	-0.084
-501.668	212.961	0.102	0.161
-500.653	-200.000	0.000	-0.017
-499.639	-200.000	0.043	-0.212
-498.624	800.000	0.050	0.158
-497.610	-19.567	-0.229	-0.142
-496.595	113.272	-0.147	0.178
-495.581	770.088	0.056	0.152
-494.566	341.563	0.099	-0.194
-493.551	-200.000	0.046	-0.275
-492.537	118.972	-0.052	0.065
-491.522	-64.795	-0.147	-0.059
-490.508	-200.000	0.027	-0.169
-489.493	-200.000	0.002	0.203
-488.478	200.053	-0.099	-0.152
-487.464	-136.908	-0.275	-0.032
-486.449	469.797	-0.036	0.081
-485.435	-97.302	-0.262	-0.068
-484.420	-0.725	0.137	-0.097
-483.405	24.441	0.220	0.181
-482.391	257.605	0.112	-0.192
-481.376	800.000	-0.108	0.396
-480.362	129.667	0.086	-0.109
-479.347	-200.000	-0.041	0.312
-478.332	440.384	-0.051	-0.110
-477.318	262.753	0.201	0.348
-476.303	-16.640	0.080	-0.050
-475.289	-100.520	0.375	-0.093
-474.274	800.000	-0.039	-0.143
-473.259	-200.000	0.001	0.084
-472.245	239.828	0.108	-0.180
-471.230	800.000	-0.063	0.182
-470.216	-184.760	0.397	0.006
-469.201	800.000	-0.110	-0.371
-468.186	219.270	-0.059	-0.094
-467.172	63.591	0.240	0.240
-466.157	19.794	-0.315	0.253
-465.143	340.687	0.157	-0.306
-464.128	-38.397	0.283	-0.149
-463.113	75.725	0.083	-0.088
-462.099	113.966	-0.172	0.208
-461.084	289.801	0.105	-0.190
-460.070	73.934	-0.131	0.137
-459.055	800.000	0.076	-0.301
-458.040	798.711	-0.097	0.266
-457.026	84.532	-0.139	-0.152
-456.011	-134.319	-0.131	0.016
-454.997	-87.616	-0.266	0.080
-453.982	-200.000	0.055	0.000
-452.968	-12.893	0.363	-0.236
-451.953	-200.000	-0.083	-0.404
-450.938	-200.000	-0.002	-0.176
-449.924	9.234	-0.109	-0.082
-448.909	-200.000	-0.003	0.036
-447.895	-200.000	0.002	0.120
-446.880	287.249	0.130	-0.234
-445.865	67.486	-0.096	-0.098
-444.851	8.123	-0.089	-0.067
-443.836	-108.139	-0.177	-0.038
-442.822	-119.004	0.216	0.038
-441.807	-164.968	-0.351	-0.016
-440.792	800.000	0.053	0.174
-439.778	342.388	-0.159	-0.311
-438.763	-45.972	0.300	-0.148
-437.749	267.976	0.159	0.278
-436.734	155.158	-0.036	0.049
-435.719	-16.174	-0.187	0.119
-434.705	287.753	0.049	-0.089
-433.690	-200.000	-0.007	-0.108
-432.676	96.200	-0.096	0.109
-431.661	316.037	-0.122	0.229
-430.646	-59.694	0.255	-0.109
-429.632	127.759	0.187	-0.237
-428.617	-200.000	-0.015	0.082
-427.603	92.455	0.142	0.159
-426.588	151.283	-0.257	0.349
-425.573	369.249	0.031	-0.064
-424.559	-200.000	0.030	0.164
-423.544	-66.154	0.063	-0.025
-422.530	104.566	-0.205	-0.241
-421.515	63.919	-0.103	0.103
-420.500	-170.378	0.105	-0.004
-419.486	800.000	0.017	-0.070
-418.471	-36.532	0.062	-0.033
-417.457	16.167	-0.102	0.080
-416.442	64.681	0.209	-0.210
-415.428	800.000	0.047	0.132
-414.413	800.000	-0.090	0.271
-413.398	301.440	0.172	0.316
-412.384	54.552	-0.320	0.308
-411.369	800.000	0.052	-0.154
-410.355	800.000	-0.060	-0.228
-409.340	-23.970	-0.027	-0.016
-408.325	423.853	-0.078	-0.167
-407.311	220.537	-0.172	0.275
-406.296	-89.513	0.196	0.057
-405.282	-200.000	-0.101	-0.441
-404.267	-105.043	-0.022	0.005
-403.252	327.933	-0.094	0.179
-402.238	-108.282	0.327	0.070
-401.223	-200.000	0.041	0.204
-400.209	-104.882	0.242	-0.055
-399.194	-200.000	0.010	-0.124
-398.179	-89.988	-0.225	0.065
-397.165	-98.093	0.109	0.028
-396.150	-86.446	-0.262	0.080
-395.136	-45.447	0.146	0.072
-394.121	-101.895	-0.258	0.062
-393.106	-83.187	0.408	-0.130
-392.092	84.382	-0.023	0.025
-391.077	530.969	-0.093	0.219
-390.063	281.527	-0.089	0.158
-389.048	49.198	-0.165	0.154
-388.033	800.000	0.087	-0.245
-387.019	106.759	-0.065	-0.076
-386.004	-78.621	-0.065	0.022
-384.990	-200.000	0.012	-0.136
-383.975	430.890	-0.028	-0.060
-382.960	-200.000	0.064	-0.400
-381.946	561.753	0.168	-0.403
-380.931	91.385	0.086	-0.096
-379.917	-105.212	0.218	-0.049
-378.902	-118.999	0.158	-0.027
-377.888	330.783	0.102	-0.195
-376.873	194.642	0.176	-0.266
-375.858	-200.000	0.037	0.239
-374.844	-51.233	-0.107	0.050
-373.829	800.000	0.036	0.108
-372.815	-61.732	-0.394	-0.164
-371.800	-88.038	-0.170	-0.051
-370.785	800.000	-0.048	0.181
-369.771	-200.000	-0.006	-0.108
-368.756	164.715	-0.315	0.442
-367.742	-200.000	0.018	0.211
-366.727	-147.115	0.254	0.022
-365.712	86.983	-0.167	0.183
-364.698	-89.089	0.335	0.099
-363.683	24.798	0.197	-0.162
-362.669	91.896	-0.205	0.230
-361.654	-118.112	0.254	-0.045
-360.639	-200.000	-0.023	-0.108
-359.625	-41.359	0.312	-0.160
-358.610	800.000	0.034	0.115
-357.596	-27.471	0.246	-0.142
-356.581	-21.376	-0.133	-0.081
-355.566	-47.163	-0.245	-0.119
-354.552	-122.312	-0.188	0.030
-353.537	10.983	0.158	0.120
-352.523	-139.242	-0.050	-0.005
-351.508	19.819	-0.312	0.250
-350.493	239.093	-0.093	-0.154
-349.479	4.656	-0.255	0.186
-348.464	-40.241	-0.310	-0.160
-347.450	101.881	-0.168	0.195
-346.435	-61.102	0.160	-0.067
-345.420	-200.000	-0.063	-0.348
-344.406	-200.000	-0.021	-0.298
-343.391	800.000	0.048	0.188
-342.377	51.174	0.187	0.176
-341.362	-88.832	-0.220	-0.065
-340.348	237.840	0.162	-0.267
-339.333	455.650	-0.025	0.054
-338.318	-97.281	0.150	0.039
-337.304	-88.061	-0.114	0.034
-336.289	6.752	0.235	-0.174
-335.275	-33.078	-0.175	0.096
-334.260	361.085	0.077	-0.154
-333.245	385.797	-0.104	-0.213
-332.231	-166.688	0.142	-0.006
-331.216	-1.946	-0.129	0.090
-330.202	-200.000	-0.022	-0.316
-329.187	563.449	0.115	-0.276
-328.172	-185.781	-0.206	0.003
-327.158	800.000	-0.024	-0.078
-326.143	661.366	0.116	-0.296
-325.129	263.692	-0.068	-0.117
-324.114	-2.139	0.198	0.138
-323.099	800.000	-0.115	-0.358
-322.085	-56.463	0.103	0.045
-321.070	-200.000	-0.012	0.184
-320.056	-167.871	-0.188	-0.007
-319.041	800.000	-0.042	0.162
-318.026	-132.348	0.099	0.013
-317.012	-3.571	0.285	0.197
-315.997	-150.885	-0.194	-0.015
-314.983	15.329	0.315	-0.245
-313.968	-200.000	0.024	0.119
-312.953	262.287	-0.023	0.039
-311.939	634.180	-0.140	0.351
-310.924	-103.586	-0.199	-0.046
-309.910	-0.125	0.182	0.129
-308.895	729.209	0.122	-0.322
-307.880	-58.238	-0.134	-0.058
-306.866	45.781	-0.149	0.137
-305.851	-19.909	0.209	-0.128
-304.837	185.982	-0.085	0.125
-303.822	586.068	-0.099	0.242
-302.807	-29.351	-0.317	-0.180
-301.793	-99.628	-0.075	-0.019
-300.778	187.102	-0.051	-0.075
-299.764	-200.000	0.020	0.263
-298.749	45.480	-0.188	0.173
-297.735	-89.210	-0.053	-0.015
-296.720	-200.000	0.052	0.311
-295.705	63.711	-0.136	0.136
-294.691	-40.576	0.116	-0.059
-293.676	-200.000	-0.046	-0.205
-292.662	-63.720	0.221	0.090
-291.647	42.448	-0.161	0.145
-290.632	-37.340	-0.235	-0.125
-289.618	-200.000	-0.024	0.311
-288.603	-78.550	-0.261	-0.088
-287.589	146.590	-0.114	0.151
-286.574	-200.000	0.063	0.314
-285.559	38.123	-0.301	-0.266
-284.545	800.000	0.122	0.391
-283.530	139.078	-0.140	-0.182
-282.516	-200.000	-0.030	-0.219
-281.501	-160.757	-0.250	-0.013
-280.486	237.470	-0.077	0.127
-279.472	-153.909	-0.106	-0.007
-278.457	-200.000	-0.010	0.390
-277.443	44.515	-0.292	0.266
-276.428	-77.044	-0.263	-0.091
-275.413	800.000	-0.009	-0.035
-274.399	74.886	0.057	-0.060
-273.384	-94.200	-0.160	0.043
-272.370	-98.673	0.027	-0.007
-271.355	-69.705	-0.105	0.040
-270.340	278.378	-0.140	0.248
-269.326	-106.912	0.107	0.024
-268.311	-200.000	0.002	-0.215
-267.297	192.150	-0.040	0.060
-266.282	-65.902	0.197	-0.078
-265.267	99.700	0.147	-0.168
-264.253	38.086	0.172	-0.152
-263.238	255.204	0.044	-0.074
-262.224	25.323	0.320	0.263
-261.209	-82.309	-0.206	0.066
-260.195	-110.818	0.396	0.081
-259.180	120.907	-0.126	-0.155
-258.165	108.548	-0.088	-0.104
-257.151	185.510	0.029	-0.042
-256.136	-44.296	0.032	0.016
-255.122	27.888	-0.181	0.151
-254.107	229.366	-0.051	0.082
-253.092	-200.000	-0.032	0.247
-252.078	-200.000	-0.056	0.309
-251.063	436.634	-0.121	0.260
-250.049	791.441	0.020	-0.055
-249.034	80.408	0.190	-0.202
-248.019	-135.676	0.068	-0.008
-247.005	-78.889	-0.112	-0.038
-245.990	1.309	0.096	0.069
-244.976	-39.141	-0.099	0.051
-243.961	-200.000	0.008	0.364
-242.946	-58.974	0.221	-0.095
-241.932	418.478	0.038	0.081
-240.917	98.010	-0.184	0.210
-239.903	800.000	0.032	0.110
-238.888	84.493	-0.077	-0.083
-237.873	-80.874	-0.183	0.060
-236.859	5.713	-0.224	0.164
-235.844	800.000	0.018	-0.073
-234.830	800.000	-0.021	-0.081
-233.815	149.082	0.028	-0.037
-232.800	91.032	0.307	0.340
-231.786	-189.103	0.179	0.002
-230.771	41.930	0.261	-0.234
-229.757	337.830	-0.081	-0.156
-228.742	-64.494	0.258	-0.104
-227.727	163.956	0.058	-0.081
-226.713	41.262	-0.162	0.145
-225.698	-52.833	0.158	0.072
-224.684	-73.016	0.069	0.025
-223.669	-164.951	0.533	-0.024
-222.655	-90.015	0.315	0.091
-221.640	135.267	-0.069	0.089
-220.625	38.274	-0.106	0.094
-219.611	-200.000	-0.031	0.167
-218.596	800.000	-0.075	-0.291
-217.582	368.845	-0.084	0.168
-216.567	130.974	0.242	-0.307
-215.552	-52.072	-0.125	0.057
-214.538	310.462	0.101	0.187
-213.523	517.479	-0.048	0.111
-212.509	-200.000	0.031	-0.209
-211.494	800.000	-0.022	0.080
-210.479	-200.000	-0.009	-0.097
-209.465	96.171	-0.178	0.201
-208.450	-82.873	-0.164	0.052
-207.436	800.000	0.066	-0.205
-206.421	340.201	0.044	-0.085
-205.406	-63.595	-0.025	0.010
-204.392	30.373	0.093	-0.079
-203.377	286.079	0.053	-0.094
-202.363	-100.334	0.306	0.075
-201.348	104.046	-0.079	-0.092
-200.333	116.596	0.121	0.146
-199.319	-155.994	-0.248	-0.016
-198.304	144.426	-0.062	-0.081
-197.290	23.051	-0.229	-0.186
-196.275	-114.980	0.192	0.036
-195.260	653.001	0.018	-0.045
-194.246	-158.289	-0.140	-0.008
-193.231	-89.882	-0.171	0.049
-192.217	800.000	-0.128	0.450
-191.202	263.006	0.089	-0.153
-190.187	-32.541	-0.348	-0.191
-189.173	-91.414	0.240	-0.068
-188.158	-35.408	0.067	0.036
-187.144	800.000	0.018	-0.068
-186.129	38.552	0.108	-0.095
-185.114	-42.849	-0.086	-0.043
-184.100	643.099	0.066	-0.167
-183.085	-36.493	0.136	0.072
-182.071	-200.000	0.057	0.360
-181.056	800.000	-0.093	-0.325
-180.042	-143.304	-0.012	-0.001
-179.027	15.346	-0.047	-0.036
-178.012	276.287	0.101	0.178
-176.998	-200.000	0.004	0.268
-175.983	-200.000	-0.027	-0.244
-174.969	-200.000	-0.032	-0.185
-173.954	73.280	-0.139	0.143
-172.939	207.790	-0.049	-0.076
-171.925	-130.684	0.397	-0.053
-170.910	-200.000	-0.010	0.137
-169.896	41.293	0.097	0.087
-168.881	-107.826	-0.086	0.019
-167.866	-140.808	-0.139	0.014
-166.852	-137.399	0.290	0.032
-165.837	-137.026	-0.229	0.026
-164.823	383.401	0.080	0.161
-163.808	800.000	-0.123	0.357
-162.793	30.639	0.264	-0.223
-161.779	238.256	0.180	-0.295
-160.764	453.677	0.024	0.053
-159.750	-117.022	0.185	-0.033
-158.735	114.878	-0.107	-0.129
-157.720	75.377	-0.103	0.107
-156.706	237.018	-0.029	-0.048
-155.691	397.388	0.096	-0.198
-154.677	207.164	0.087	-0.134
-153.662	88.652	-0.258	-0.282
-152.647	-169.471	0.147	-0.005
-151.633	55.620	-0.213	0.204
-150.618	443.038	0.231	0.499
-149.604	-63.410	-0.189	-0.077
-148.589	111.156	-0.078	-0.093
-147.574	-200.000	0.048	-0.350
-146.560	-6.160	0.213	0.143
-145.545	221.317	0.200	-0.317
-144.531	-5.419	-0.153	0.104
-143.516	-110.161	0.123	-0.025
-142.502	-200.000	0.012	-0.165
-141.487	233.651	0.106	-0.172
-140.472	800.000	0.129	0.415
-139.458	-46.116	-0.292	-0.142
-138.443	-70.890	-0.368	0.137
-137.429	800.000	0.069	0.289
-136.414	231.875	-0.098	-0.159
-135.399	-200.000	-0.063	0.382
-134.385	55.385	0.266	0.253
-133.370	55.251	0.059	0.056
-132.356	537.455	0.061	0.144
-131.341	800.000	-0.095	0.277
-130.326	800.000	0.093	-0.373
-129.312	-136.422	-0.190	0.022
-128.297	-40.787	-0.146	-0.074
-127.283	56.937	0.260	0.250
-126.268	335.558	0.066	0.126
-125.253	-70.350	-0.304	-0.114
-124.239	-200.000	-0.004	0.047
-123.224	260.436	-0.076	-0.130
-122.210	-8.662	0.314	0.207
-121.195	-200.000	0.017	0.087
-120.180	-36.935	0.150	0.079
-119.166	41.237	0.271	0.241
-118.151	-20.566	0.325	-0.196
-117.137	800.000	0.093	0.280
-116.122	185.516	0.074	-0.109
-115.107	-35.590	0.085	-0.046
-114.093	-101.088	0.072	-0.017
-113.078	437.805	0.055	0.117
-112.064	313.203	-0.093	-0.172
-111.049	-79.944	0.299	0.099
-110.034	172.608	0.222	0.315
-109.020	-200.000	0.043	0.215
-108.005	-100.324	0.154	-0.038
-106.991	-32.938	0.262	0.143
-105.976	-149.883	-0.227	-0.017
-104.962	-200.000	-0.027	0.134
-103.947	134.531	-0.080	0.102
-102.932	-15.539	-0.250	0.157
-101.918	247.068	0.196	0.326
-100.903	241.652	-0.090	-0.148
-99.889	-41.943	0.080	-0.040
-98.874	270.971	0.132	0.229
-97.859	-57.130	0.114	0.050
-96.845	47.207	0.090	-0.082
-95.830	-100.167	-0.125	-0.031
-94.816	70.679	0.276	0.281
-93.801	-87.237	-0.266	-0.080
-92.786	90.535	0.135	0.149
-91.772	-200.000	-0.054	-0.416
-90.757	-59.825	0.184	-0.078
-89.743	-24.922	0.094	-0.055
-88.728	-48.456	0.282	0.134
-87.713	800.000	0.049	-0.187
-86.699	-63.260	0.046	-0.019
-85.684	-155.696	0.178	-0.011
-84.670	-200.000	-0.029	-0.265
-83.655	-200.000	0.044	0.259
-82.640	-168.220	-0.235	-0.009
-81.626	583.577	-0.131	-0.317
-80.611	-58.727	0.067	-0.028
-79.597	-200.000	0.093	0.000
-78.582	173.653	-0.260	0.369
-77.567	-200.000	-0.014	0.087
-76.553	-170.307	0.156	-0.005
-75.538	-6.504	-0.176	0.118
-74.524	47.857	-0.172	-0.158
-73.509	-157.993	-0.254	0.015
-72.494	-65.389	0.025	-0.010
-71.480	-81.758	-0.365	-0.118
-70.465	176.680	-0.066	0.094
-69.451	-45.922	0.493	0.239
-68.436	105.070	-0.150	-0.173
-67.422	-35.554	0.286	0.152
-66.407	73.599	-0.116	-0.119
-65.392	90.284	-0.139	-0.153
-64.378	800.000	0.039	-0.115
-63.363	-66.852	0.244	0.095
-62.349	14.741	0.060	-0.046
-61.334	30.005	-1.059	-0.887
-60.319	800.000	0.094	0.258
-59.305	800.000	-0.381	-1.096
-58.290	330.379	0.653	1.234
-57.276	800.000	0.389	1.434
-56.261	-200.000	101.479	595.764
-55.246	573.048	1413.994	3385.052
-54.232	190.152	2607.125	3844.021
-53.217	110.974	2275.610	2690.451
-52.203	40.310	1895.045	1674.382
-51.188	34.252	1683.984	1442.139
-50.173	31.479	1640.908	1384.699
-49.159	49.024	1690.367	1558.690
-48.144	50.619	1706.888	1585.846
-47.130	33.755	1665.694	1422.524
-46.115	31.011	1651.381	1389.828
-45.100	30.946	1646.276	1384.989
-44.086	30.907	1644.129	1382.839
-43.071	30.876	1641.340	1380.210
-42.057	30.861	1638.957	1378.038
-41.042	30.843	1637.102	1376.297
-40.027	30.889	1635.191	1374.970
-39.013	30.771	1633.225	1372.392
-37.998	30.808	1631.825	1371.439
-36.984	30.802	1630.738	1370.422
-35.969	30.919	1629.244	1369.972
-34.954	31.022	1627.179	1368.938
-33.940	30.979	1625.730	1367.355
-32.925	30.966	1623.590	1365.406
-31.911	31.005	1622.140	1364.412
-30.896	31.015	1620.289	1362.876
-29.881	30.922	1618.879	1360.958
-28.867	30.888	1617.796	1359.746
-27.852	30.990	1615.397	1358.416
-26.838	30.877	1615.038	1357.235
-25.823	30.943	1613.294	1356.199
-24.809	31.000	1611.669	1355.196
-23.794	30.988	1610.342	1353.936
-22.779	31.026	1609.302	1353.288
-21.765	30.955	1607.343	1351.071
-20.750	30.956	1605.725	1349.666
-19.736	30.950	1604.686	1348.691
-18.721	31.000	1602.752	1347.374
-17.706	30.891	1601.199	1345.227
-16.692	30.923	1599.747	1344.188
-15.677	31.002	1598.391	1343.566
-14.663	31.022	1596.875	1342.379
-13.648	31.093	1595.323	1341.531
-12.633	30.923	1594.291	1339.388
-11.619	30.928	1592.791	1338.109
-10.604	30.997	1590.999	1337.046
-9.590	31.042	1589.603	1336.141
-8.575	31.030	1588.506	1335.082
-7.560	30.996	1588.111	1334.453
-6.546	31.055	1586.610	1333.564
-5.531	30.963	1585.591	1331.996
-4.517	30.972	1584.200	1330.839
-3.502	30.989	1583.287	1330.143
-2.487	31.026	1581.688	1329.006
-1.473	30.803	1570.104	1317.641
-0.458	27.943	1551.371	1281.839
0.556	23.779	1551.560	1251.160
1.571	21.482	1575.081	1253.577
2.586	21.009	1587.941	1260.283
3.600	18.649	1535.412	1201.977
4.615	11.462	1428.442	1071.137
5.629	5.591	1367.134	988.115
6.644	4.711	1359.839	977.224
7.659	4.641	1358.084	975.442
8.673	4.514	1357.264	973.969
9.688	4.584	1355.804	973.275
10.702	4.500	1352.669	970.410
11.717	7.326	1357.597	991.559
12.731	14.283	1370.902	1044.988
13.746	18.852	1377.343	1078.548
14.761	18.715	1375.907	1076.470
15.775	17.768	1373.030	1068.197
16.790	16.637	1370.745	1059.252
17.804	15.837	1368.118	1052.125
18.819	15.391	1367.308	1048.623
19.834	15.154	1365.793	1045.892
20.848	14.965	1364.752	1043.824
21.863	14.688	1363.235	1040.840
22.877	14.535	1362.283	1039.071
23.892	14.423	1361.577	1037.746
24.907	14.596	1360.340	1037.782
25.921	14.580	1359.524	1036.972
26.936	14.630	1358.621	1036.500
27.950	14.545	1358.002	1035.407
28.965	14.765	1356.375	1035.441
29.980	14.732	1355.958	1034.824
30.994	14.870	1354.728	1034.647
32.009	14.868	1353.222	1033.398
33.023	14.788	1352.582	1032.324
34.038	14.800	1350.819	1030.961
35.053	14.679	1349.539	1029.146
36.067	14.726	1348.743	1028.736
37.082	14.778	1347.255	1027.828
38.096	14.759	1346.668	1027.176
39.111	14.806	1345.908	1026.793
40.126	14.708	1345.220	1025.574
41.140	14.552	1344.546	1024.012
42.155	14.512	1343.491	1022.877
43.169	14.490	1343.375	1022.563
44.184	14.385	1343.796	1022.147
45.199	14.427	1342.750	1021.520
46.213	14.574	1342.458	1022.106
47.228	14.684	1341.056	1021.622
48.242	14.674	1340.068	1020.719
49.257	14.634	1338.533	1019.215
50.271	14.645	1337.315	1018.261
51.286	14.649	1335.817	1017.057
52.301	14.643	1334.776	1016.136
53.315	14.610	1333.696	1015.024
54.330	14.594	1332.431	1013.877
55.344	14.455	1331.332	1012.107
56.359	14.492	1330.318	1011.468
57.374	14.567	1329.341	1011.094
58.388	14.586	1328.687	1010.618
59.403	14.443	1328.225	1009.310
60.417	14.369	1327.637	1008.329
61.432	14.361	1326.818	1007.571
62.447	14.359	1325.778	1006.679
63.461	14.341	1324.229	1005.302
64.476	14.299	1323.544	1004.444
65.490	14.417	1321.921	1003.834
66.505	14.269	1321.303	1002.381
67.520	14.447	1319.461	1001.969
68.534	14.410	1318.439	1000.881
69.549	14.342	1317.334	999.542
70.563	14.332	1316.267	998.588
71.578	14.318	1314.975	997.437
72.593	14.304	1314.372	996.805
73.607	14.149	1313.779	995.337
74.622	14.253	1312.854	995.172
75.636	14.314	1312.426	995.123
76.651	14.261	1311.456	993.983
77.666	14.245	1311.303	993.682
78.680	14.294	1310.586	993.346
79.695	14.368	1310.002	993.254
80.709	14.371	1309.090	992.493
81.724	14.523	1307.813	992.344
82.739	14.494	1307.553	991.887
83.753	14.526	1306.881	991.477
84.768	14.623	1305.872	991.199
85.782	14.676	1304.926	990.712
86.797	14.780	1303.059	989.819
87.812	14.647	1302.136	988.245
88.826	14.680	1300.543	987.142
89.841	14.688	1300.048	986.730
90.855	14.730	1298.899	986.018
91.870	14.714	1298.402	985.459
92.884	14.713	1297.344	984.560
93.899	14.875	1296.032	984.431
94.914	14.887	1295.868	984.291
95.928	14.790	1294.807	982.826
96.943	14.791	1294.052	982.175
97.957	14.648	1293.168	980.574
98.972	14.740	1291.702	979.917
99.987	14.767	1290.850	979.343
101.001	14.658	1290.194	978.122
102.016	14.719	1289.309	977.722
103.030	14.779	1288.047	977.027
104.045	14.775	1287.389	976.416
105.060	14.734	1285.908	974.967
106.074	14.575	1284.561	972.935
107.089	14.457	1283.302	971.210
108.103	14.455	1281.968	970.102
109.118	14.321	1281.149	968.618
110.133	14.559	1279.038	968.316
111.147	14.466	1278.156	967.026
112.162	14.465	1277.179	966.195
113.176	14.537	1275.809	965.485
114.191	14.546	1275.225	965.011
115.206	14.549	1273.623	963.732
116.220	14.551	1272.451	962.771
117.235	14.529	1271.863	962.114
118.249	14.399	1270.788	960.466
119.264	14.415	1269.007	959.126
120.279	14.523	1268.098	958.974
121.293	14.360	1267.506	957.506
122.308	14.420	1266.197	956.777
123.322	14.356	1264.802	955.271
124.337	14.385	1264.198	954.898
125.352	14.386	1263.167	954.042
126.366	14.407	1262.096	953.269
127.381	14.329	1261.158	952.029
128.395	14.429	1259.824	951.508
129.410	14.317	1259.618	950.629
130.424	14.445	1258.601	950.506
131.439	14.516	1257.475	949.975
132.454	14.474	1256.778	949.126
133.468	14.555	1255.679	948.676
134.483	14.592	1255.001	948.288
135.497	14.600	1253.711	947.272
136.512	14.544	1252.845	946.219
137.527	14.653	1251.108	945.441
138.541	14.517	1250.019	943.763
139.556	14.610	1248.627	943.155
140.570	14.721	1247.829	943.094
141.585	14.785	1246.489	942.361
142.600	14.696	1245.866	941.305
143.614	14.639	1245.068	940.298
144.629	14.769	1243.786	939.977
145.643	14.845	1242.785	939.564
146.658	14.804	1241.001	937.903
147.673	14.591	1239.886	935.784
148.687	14.632	1239.070	935.313
149.702	14.688	1237.320	934.225
150.716	14.560	1236.304	932.659
151.731	14.702	1235.078	932.445
152.746	14.657	1234.300	931.527
153.760	14.699	1232.926	930.640
154.775	14.653	1232.287	929.817
155.789	14.781	1230.562	929.148
156.804	14.755	1229.870	928.397
157.819	14.771	1229.034	927.772
158.833	14.805	1228.613	927.560
159.848	14.951	1227.275	927.279
160.862	14.917	1226.144	926.152
161.877	14.787	1225.174	924.622
162.892	14.672	1224.233	923.190
163.906	14.608	1223.473	922.181
164.921	14.681	1222.685	921.909
165.935	14.777	1221.805	921.696
166.950	14.799	1220.812	920.985
167.964	14.810	1219.520	919.989
168.979	14.857	1218.844	919.659
169.994	14.795	1218.704	919.127
171.008	14.839	1217.556	918.422
172.023	14.884	1216.523	917.808
173.037	14.919	1216.215	917.687
174.052	15.071	1214.785	917.359
175.067	15.018	1213.736	916.197
176.081	14.909	1213.061	915.009
177.096	14.782	1212.373	913.716
178.110	14.815	1211.151	912.895
179.125	14.744	1210.143	911.667
180.140	14.849	1208.739	911.100
181.154	14.933	1207.100	910.243
182.169	15.003	1206.542	910.125
183.183	15.062	1205.195	909.345
184.198	15.051	1204.025	908.322
185.213	15.124	1202.999	907.864
186.227	15.124	1202.222	907.200
187.242	15.048	1201.007	905.792
188.256	15.201	1200.418	906.091
189.271	15.187	1199.117	904.957
190.286	15.043	1197.698	903.029
191.300	14.853	1197.285	901.610
192.315	14.706	1196.604	900.228
193.329	14.759	1196.031	900.000
194.344	14.952	1195.188	900.324
195.359	14.877	1194.917	899.640
196.373	14.986	1194.364	899.727
197.388	15.065	1194.072	899.856
198.402	15.233	1193.366	900.145
199.417	15.285	1192.908	899.999
200.432	15.391	1192.045	899.835
201.446	15.448	1191.026	899.293
202.461	15.436	1190.097	898.445
203.475	15.399	1189.291	897.563
204.490	15.357	1188.240	896.465
205.504	15.228	1187.359	895.032
206.519	15.319	1185.307	893.894
207.534	15.381	1184.223	893.324
208.548	15.320	1183.431	892.321
209.563	15.285	1182.732	891.533
210.577	15.418	1181.446	891.191
211.592	15.381	1181.332	890.827
212.607	15.409	1180.356	890.161
213.621	15.545	1179.085	889.844
214.636	15.433	1178.702	888.886
215.650	15.468	1177.570	888.138
216.665	15.475	1176.456	887.255
217.680	15.633	1175.564	887.341
218.694	15.569	1175.062	886.546
219.709	15.650	1174.208	886.250
220.723	15.549	1173.496	885.097
221.738	15.590	1172.974	884.846
222.753	15.641	1172.160	884.418
223.767	15.605	1171.454	883.618
224.782	15.684	1170.696	883.385
225.796	15.750	1170.266	883.328
226.811	15.648	1169.813	882.372
227.826	15.616	1169.043	881.544
228.840	15.563	1168.190	880.548
229.855	15.609	1167.313	880.048
230.869	15.706	1166.331	879.736
231.884	15.661	1165.472	878.777
232.899	15.641	1164.807	878.092
233.913	15.472	1164.632	877.001
234.928	15.626	1163.606	876.954
235.942	15.627	1162.722	876.216
236.957	15.481	1162.251	875.024
237.972	15.644	1161.115	874.940
238.986	15.595	1160.658	874.261
240.001	15.534	1159.746	873.181
241.015	15.643	1158.824	872.974
242.030	15.643	1158.327	872.526
243.045	15.783	1157.470	872.529
244.059	15.854	1156.380	871.996
245.074	15.772	1155.889	871.125
246.088	15.883	1154.572	870.628
247.103	15.887	1154.409	870.449
248.117	15.957	1153.385	869.963
249.132	15.966	1153.059	869.685
250.147	16.078	1152.300	869.612
251.161	16.059	1151.629	868.930
252.176	16.239	1150.450	868.893
253.190	16.170	1150.339	868.376
254.205	16.339	1149.633	868.636
255.220	16.365	1148.529	867.857
256.234	16.269	1148.717	867.432
257.249	16.300	1147.857	866.865
258.263	16.213	1147.340	865.949
259.278	16.203	1146.879	865.473
260.293	16.289	1146.121	865.264
261.307	16.451	1144.961	865.142
262.322	16.345	1144.588	864.242
263.336	16.339	1143.659	863.434
264.351	16.413	1143.294	863.463
265.366	16.402	1142.930	863.053
266.380	16.497	1141.718	862.545
267.395	16.402	1141.121	861.533
268.409	16.384	1140.590	860.963
269.424	16.243	1139.703	859.500
270.439	16.384	1139.418	859.927
271.453	16.389	1138.284	859.020
272.468	16.390	1137.425	858.301
273.482	16.285	1136.832	857.244
274.497	16.275	1136.462	856.842
275.512	16.328	1135.473	856.288
276.526	16.469	1134.522	856.207
277.541	16.358	1134.183	855.317
278.555	16.456	1133.491	855.212
279.570	16.546	1132.537	854.873
280.585	16.549	1131.570	854.081
281.599	16.601	1130.579	853.520
282.614	16.576	1129.739	852.687
283.628	16.448	1129.036	851.437
284.643	16.465	1128.062	850.711
285.657	16.548	1127.064	850.298
286.672	16.570	1126.175	849.666
287.687	16.557	1125.102	848.715
288.701	16.690	1124.495	848.849
289.716	16.575	1123.858	847.716
290.730	16.605	1123.032	847.169
291.745	16.565	1122.704	846.646
292.760	16.622	1122.032	846.349
293.774	16.717	1121.597	846.419
294.789	16.736	1121.195	846.138
295.803	16.812	1120.211	845.701
296.818	16.704	1119.476	844.532
297.833	16.708	1118.598	843.816
298.847	16.658	1118.056	843.081
299.862	16.694	1117.198	842.539
300.876	16.782	1116.392	842.294
301.891	16.895	1115.623	842.202
302.906	16.855	1114.858	841.348
303.920	16.870	1114.950	841.418
304.935	16.973	1113.563	840.808
305.949	16.976	1113.338	840.579
306.964	17.046	1112.322	840.085
307.979	17.079	1111.569	839.606
308.993	16.993	1110.933	838.625
310.008	17.076	1110.180	838.394
311.022	16.971	1109.270	837.113
312.037	17.004	1108.704	836.774
313.052	16.934	1107.736	835.623
314.066	16.971	1106.691	834.947
315.081	16.875	1105.746	833.688
316.095	16.841	1105.331	833.130
317.110	16.781	1104.681	832.273
318.125	16.920	1103.814	832.231
319.139	16.907	1102.976	831.458
320.154	16.918	1102.147	830.815
321.168	16.940	1101.541	830.391
322.183	16.941	1101.123	830.009
323.197	16.937	1100.656	829.565
324.212	17.041	1100.052	829.544
325.227	17.006	1099.584	828.949
326.241	16.868	1099.180	827.893
327.256	16.927	1098.199	827.368
328.270	16.976	1097.187	826.776
329.285	17.058	1095.974	826.188
330.300	17.080	1094.926	825.429
331.314	16.934	1094.091	824.019
332.329	16.934	1093.537	823.529
333.343	17.160	1092.247	823.577
334.358	17.252	1091.226	823.185
335.373	17.278	1090.871	822.967
336.387	17.253	1090.272	822.320
337.402	17.330	1089.432	821.990
338.416	17.175	1089.328	821.085
339.431	17.396	1088.402	821.383
340.446	17.431	1088.116	821.267
341.460	17.431	1087.034	820.377
342.475	17.378	1086.403	819.570
343.489	17.468	1085.512	819.260
344.504	17.593	1084.689	819.169
345.519	17.595	1083.637	818.308
346.533	17.531	1083.396	817.750
347.548	17.694	1082.101	817.479
348.562	17.710	1081.432	816.978
349.577	17.652	1080.330	815.795
350.592	17.419	1079.777	814.193
351.606	17.436	1079.171	813.743
352.621	17.347	1078.448	812.702
353.635	17.313	1077.942	812.088
354.650	17.446	1077.148	812.050
355.665	17.388	1076.355	811.102
356.679	17.497	1076.022	811.303
357.694	17.616	1074.886	810.940
358.708	17.474	1074.790	810.122
359.723	17.512	1074.018	809.647
360.738	17.696	1073.418	809.997
361.752	17.577	1073.049	809.081
362.767	17.697	1072.111	808.871
363.781	17.486	1072.021	807.732
364.796	17.651	1071.070	807.727
365.810	17.827	1070.255	807.872
366.825	17.835	1070.253	807.837
367.840	17.860	1069.619	807.406
368.854	17.965	1068.642	807.093
369.869	17.917	1068.009	806.318
370.883	17.809	1067.296	805.198
371.898	17.735	1066.716	804.341
372.913	17.823	1065.964	804.117
373.927	17.916	1065.322	804.000
374.942	17.956	1064.658	803.617
375.956	17.990	1064.078	803.264
376.971	17.848	1063.662	802.215
377.986	17.869	1062.977	801.723
379.000	18.052	1062.280	801.988
380.015	18.024	1062.280	801.785
381.029	18.177	1061.251	801.653
382.044	18.095	1060.458	800.601
383.059	18.198	1059.896	800.589
384.073	18.193	1059.317	800.055
385.088	18.171	1058.368	799.167
386.102	18.029	1057.731	797.952
387.117	18.008	1056.155	796.592
388.132	18.146	1055.041	796.325
389.146	18.106	1054.321	795.523
390.161	17.973	1053.929	794.540
391.175	18.074	1052.874	794.143
392.190	18.128	1052.480	794.025
393.205	18.132	1051.974	793.595
394.219	18.114	1051.544	793.117
395.234	18.070	1050.480	792.038
396.248	18.283	1048.777	791.672
397.263	18.076	1048.206	790.210
398.278	18.086	1047.509	789.663
399.292	17.865	1046.853	788.077
400.307	17.965	1046.147	787.938
401.321	18.076	1044.999	787.514
402.336	18.177	1044.501	787.537
403.350	18.171	1043.828	786.929
404.365	18.104	1043.522	786.322
405.380	18.040	1042.845	785.449
406.394	18.202	1041.844	785.370
407.409	18.260	1041.317	785.169
408.423	18.247	1041.053	784.842
409.438	18.384	1040.070	784.654
410.453	18.322	1039.427	783.821
411.467	18.518	1038.493	783.943
412.482	18.510	1038.276	783.671
413.496	18.546	1037.319	783.043
414.511	18.496	1037.399	782.808
415.526	18.646	1036.673	782.875
416.540	18.630	1036.248	782.411
417.555	18.624	1035.513	781.761
418.569	18.584	1035.100	781.194
419.584	18.684	1034.443	781.085
420.599	18.710	1033.679	780.560
421.613	150.573	1401.867	1796.697
422.628	137.462	1455.489	1796.792
