DTS Sentinel unit serial number:	SN413079Multiplexer serial number:	ORYXHardware model number:	OX4-SRSoftware version number:	ORYX F/W v4.00 Oryx Data Collector v3.7.2.0data status	okinstallation	princeton_trtdifferential loss correction	single-endedforward channel	channel 2reverse channel	N/Adate	2019/09/13time	10:27:35forward acquisition time	60.00reverse acquisition time	0.00gamma	496.2192k internal	0.2323k external	0.2323temperature offset calibration	1.0192default loss term (dB/km)	0.3790temperature slope calibration	1.0000multiplexer offset coefficient	1.0000multiplexer slope coefficient	1.0000fibre end	0.00T internal ref (°C)	31.06T ext. ref 1 (°C)	4.54T ext. ref 2 (°C)	28.05length (m)	temperature (°C)	Stokes	anti-Stokes-747.200	198.297	0.135	-0.208
-746.185	-147.089	-0.035	-0.003
-745.171	60.335	0.378	0.378
-744.156	282.440	-0.108	0.195
-743.142	325.306	0.115	0.221
-742.127	-74.168	-0.280	-0.102
-741.112	110.886	0.097	0.118
-740.098	111.514	-0.266	0.324
-739.083	800.000	0.111	-0.317
-738.069	800.000	0.086	0.347
-737.054	-64.303	-0.155	-0.064
-736.039	-94.992	-0.331	-0.090
-735.025	134.085	0.231	0.302
-734.010	-97.655	-0.200	-0.052
-732.996	-41.854	-0.205	-0.106
-731.981	-200.000	0.022	0.203
-730.966	-88.420	-0.353	0.106
-729.952	-38.684	-0.242	0.129
-728.937	-78.954	0.107	0.037
-727.923	-64.115	0.043	-0.018
-726.908	-28.859	-0.117	-0.068
-725.894	800.000	-0.097	0.359
-724.879	380.954	-0.062	0.127
-723.864	185.854	-0.256	0.383
-722.850	544.843	-0.021	-0.052
-721.835	-28.675	-0.243	-0.141
-720.821	-132.378	0.479	-0.062
-719.806	-200.000	0.036	-0.301
-718.791	-193.528	-0.197	-0.002
-717.777	308.872	-0.039	-0.073
-716.762	-163.284	0.318	0.015
-715.748	-133.493	-0.371	-0.047
-714.733	-12.481	0.161	-0.106
-713.718	194.979	-0.082	0.125
-712.704	800.000	-0.062	0.248
-711.689	125.203	0.059	0.075
-710.675	-142.514	-0.404	-0.040
-709.660	649.542	0.062	0.161
-708.645	325.782	0.066	-0.127
-707.631	-83.851	0.230	-0.074
-706.616	4.380	-0.314	0.232
-705.602	800.000	0.082	0.235
-704.587	273.344	-0.189	-0.337
-703.572	-16.168	-0.227	-0.145
-702.558	46.185	-0.110	-0.103
-701.543	-13.585	-0.063	-0.041
-700.529	78.872	0.089	-0.096
-699.514	-99.409	-0.148	-0.038
-698.499	41.470	0.098	0.089
-697.485	-58.566	0.354	-0.155
-696.470	-41.815	0.047	-0.024
-695.456	281.717	-0.150	0.270
-694.441	-46.727	0.130	0.064
-693.426	800.000	-0.050	-0.154
-692.412	-200.000	-0.009	-0.168
-691.397	-37.695	0.047	-0.025
-690.383	-109.912	0.211	0.045
-689.368	-200.000	-0.019	-0.188
-688.354	-87.062	-0.336	0.103
-687.339	351.139	0.079	-0.158
-686.324	-200.000	0.015	-0.163
-685.310	-98.415	0.145	-0.037
-684.295	-200.000	-0.000	-0.294
-683.281	3.403	0.334	-0.245
-682.266	219.023	0.080	0.129
-681.251	-200.000	-0.036	-0.231
-680.237	800.000	0.080	-0.271
-679.222	-200.000	-0.065	-0.546
-678.208	434.706	0.124	-0.271
-677.193	-141.401	0.107	0.011
-676.178	109.986	-0.175	-0.212
-675.164	-151.477	0.407	0.030
-674.149	800.000	0.046	-0.172
-673.135	-62.725	0.154	-0.064
-672.120	-200.000	-0.006	0.101
-671.105	-100.275	0.090	-0.023
-670.091	-97.246	0.127	0.033
-669.076	68.968	0.195	-0.201
-668.062	69.286	-0.265	0.275
-667.047	92.763	0.064	-0.073
-666.032	800.000	-0.108	0.334
-665.018	-200.000	-0.008	0.107
-664.003	-200.000	-0.004	-0.089
-662.989	268.868	-0.030	-0.053
-661.974	318.961	-0.087	0.165
-660.959	10.607	-0.155	0.119
-659.945	-91.077	-0.144	0.042
-658.930	11.501	0.405	-0.312
-657.916	33.358	0.203	-0.177
-656.901	-142.623	0.242	-0.024
-655.886	18.291	-0.200	0.161
-654.872	100.898	-0.104	-0.121
-653.857	-200.000	-0.022	0.207
-652.843	502.200	0.122	0.284
-651.828	-200.000	0.035	-0.346
-650.814	567.041	-0.069	-0.169
-649.799	-152.845	-0.082	0.006
-648.784	-200.000	-0.032	0.256
-647.770	193.966	-0.079	0.120
-646.755	129.257	-0.073	-0.094
-645.741	64.688	-0.141	-0.144
-644.726	-22.642	-0.141	0.086
-643.711	800.000	0.066	0.216
-642.697	800.000	-0.038	0.115
-641.682	268.028	0.233	0.411
-640.668	800.000	-0.018	-0.073
-639.653	-133.907	-0.378	0.047
-638.638	105.398	0.102	0.121
-637.624	105.081	-0.188	-0.223
-636.609	800.000	0.050	-0.143
-635.595	-62.716	-0.134	0.056
-634.580	96.366	-0.246	-0.283
-633.565	60.046	-0.141	-0.140
-632.551	101.403	0.116	-0.136
-631.536	800.000	-0.098	-0.277
-630.522	-85.296	0.212	-0.066
-629.507	-137.306	-0.079	0.009
-628.492	128.975	0.151	0.193
-627.478	-29.160	0.169	0.097
-626.463	499.522	0.114	-0.263
-625.449	-56.423	0.111	0.050
-624.434	-20.125	-0.129	0.080
-623.419	800.000	0.012	-0.053
-622.405	48.672	0.148	0.140
-621.390	-24.501	-0.385	-0.231
-620.376	1.235	0.134	-0.097
-619.361	-111.101	-0.191	0.039
-618.346	363.098	0.065	0.130
-617.332	450.472	-0.051	0.114
-616.317	-199.439	0.443	0.002
-615.303	-136.885	-0.217	-0.025
-614.288	-28.262	-0.308	-0.179
-613.273	32.273	0.218	0.189
-612.259	-39.139	0.223	-0.118
-611.244	318.949	-0.125	-0.237
-610.230	-100.152	-0.158	0.039
-609.215	-61.884	-0.212	-0.089
-608.201	-13.078	-0.059	-0.039
-607.186	-79.352	0.214	0.073
-606.171	62.682	-0.351	0.353
-605.157	-30.296	0.084	0.048
-604.142	-73.930	-0.300	-0.109
-603.128	448.415	-0.076	-0.168
-602.113	-115.809	0.147	0.028
-601.098	-76.105	0.245	-0.087
-600.084	5.293	0.427	-0.316
-599.069	-46.790	0.114	-0.056
-598.055	800.000	-0.041	0.128
-597.040	730.519	-0.097	0.261
-596.025	-11.007	-0.212	-0.140
-595.011	405.653	0.039	-0.082
-593.996	-183.020	0.244	-0.004
-592.982	-200.000	0.032	-0.184
-591.967	-76.639	-0.355	0.125
-590.952	-75.258	0.050	0.018
-589.938	-200.000	-0.084	0.558
-588.923	397.641	-0.053	-0.111
-587.909	301.729	-0.175	-0.325
-586.894	717.018	-0.142	-0.377
-585.879	-200.000	-0.011	-0.225
-584.865	-30.108	0.207	0.118
-583.850	-3.929	0.143	0.100
-582.836	334.740	-0.084	0.163
-581.821	800.000	0.035	0.124
-580.806	-57.064	-0.275	-0.122
-579.792	-51.522	-0.253	0.119
-578.777	-200.000	-0.072	-0.373
-577.763	-200.000	0.038	0.183
-576.748	-19.369	0.233	-0.145
-575.733	-200.000	-0.017	0.096
-574.719	-200.000	0.040	-0.177
-573.704	-44.894	-0.201	0.100
-572.690	-31.392	-0.085	0.048
-571.675	337.649	-0.092	0.179
-570.661	273.223	-0.189	0.335
-569.646	299.186	0.194	-0.358
-568.631	-128.715	-0.229	0.032
-567.617	-200.000	-0.033	0.205
-566.602	-200.000	-0.066	-0.300
-565.588	-36.485	-0.209	-0.113
-564.573	236.030	-0.048	-0.080
-563.558	-74.544	0.204	-0.074
-562.544	141.872	0.093	0.124
-561.529	36.717	-0.259	0.229
-560.515	-165.160	-0.172	0.008
-559.500	-142.901	0.115	0.011
-558.485	-143.805	0.220	0.021
-557.471	800.000	0.029	0.106
-556.456	13.694	-0.167	-0.130
-555.442	39.607	-0.056	0.050
-554.427	747.579	-0.213	-0.576
-553.412	124.635	-0.062	0.078
-552.398	54.485	0.043	-0.041
-551.383	-25.635	-0.125	0.074
-550.369	-37.913	0.195	-0.104
-549.354	-61.793	0.073	-0.030
-548.339	-20.453	0.389	0.240
-547.325	-200.000	0.007	0.151
-546.310	-200.000	0.004	-0.029
-545.296	-164.744	0.068	0.003
-544.281	-25.688	0.218	0.129
-543.266	800.000	0.149	-0.426
-542.252	-200.000	-0.028	-0.320
-541.237	800.000	0.022	-0.078
-540.223	-51.384	-0.133	0.062
-539.208	-47.080	0.159	0.078
-538.193	-87.897	-0.195	0.059
-537.179	81.493	-0.091	0.099
-536.164	379.468	-0.179	-0.367
-535.150	49.747	-0.090	0.085
-534.135	696.692	0.089	-0.235
-533.121	701.739	-0.047	0.125
-532.106	800.000	-0.027	-0.105
-531.091	-15.478	0.138	0.088
-530.077	146.443	-0.049	-0.065
-529.062	-200.000	0.059	-0.507
-528.048	144.579	0.095	-0.127
-527.033	-15.026	-0.090	-0.058
-526.018	47.168	-0.151	-0.140
-525.004	163.842	0.021	-0.030
-523.989	695.627	-0.072	0.188
-522.975	262.686	-0.025	0.043
-521.960	109.940	0.143	0.172
-520.945	-80.850	-0.385	0.128
-519.931	800.000	0.079	-0.283
-518.916	52.157	0.246	-0.234
-517.902	151.002	-0.097	0.133
-516.887	-200.000	-0.005	0.074
-515.872	114.848	0.192	0.234
-514.858	-79.816	-0.163	0.055
-513.843	76.289	-0.384	0.407
-512.829	-131.717	0.238	-0.031
-511.814	128.833	0.223	0.285
-510.799	98.063	0.115	-0.132
-509.785	800.000	-0.125	-0.390
-508.770	-45.629	0.257	0.127
-507.756	-200.000	0.010	0.148
-506.741	310.514	0.048	0.090
-505.726	23.577	-0.025	0.021
-504.712	800.000	0.098	-0.295
-503.697	800.000	-0.068	0.251
-502.683	20.739	-0.099	0.080
-501.668	0.825	-0.087	-0.062
-500.653	362.176	0.145	-0.291
-499.639	261.113	0.112	-0.193
-498.624	12.234	-0.073	-0.056
-497.610	-150.330	0.365	0.028
-496.595	28.578	0.281	0.238
-495.581	186.819	0.132	-0.196
-494.566	-145.171	0.172	-0.016
-493.551	-200.000	-0.062	-0.322
-492.537	-48.497	0.067	0.032
-491.522	-18.072	-0.204	-0.128
-490.508	107.481	0.199	-0.237
-489.493	-27.106	-0.211	0.123
-488.478	229.578	-0.135	-0.221
-487.464	19.353	0.046	0.037
-486.449	-200.000	0.049	-0.288
-485.435	-44.605	0.069	0.035
-484.420	-187.405	-0.494	0.007
-483.405	54.679	-0.046	0.044
-482.391	1.881	-0.345	0.249
-481.376	-5.249	-0.394	0.271
-480.362	-10.688	0.103	-0.068
-479.347	3.152	-0.360	0.262
-478.332	-200.000	0.004	0.187
-477.318	-200.000	0.005	-0.156
-476.303	-162.688	-0.307	-0.015
-475.289	-23.890	0.254	0.152
-474.274	-71.565	-0.287	0.107
-473.259	-200.000	0.044	0.258
-472.245	-200.000	-0.026	-0.449
-471.230	277.631	0.030	-0.053
-470.216	-200.000	0.005	-0.294
-469.201	-200.000	-0.003	-0.246
-468.186	-185.070	-0.139	0.002
-467.172	165.666	0.176	0.249
-466.157	261.878	-0.102	0.176
-465.143	1.941	0.307	0.221
-464.128	334.924	-0.118	0.229
-463.113	-200.000	-0.006	0.112
-462.099	-172.136	-0.317	0.010
-461.084	-67.887	0.048	-0.019
-460.070	-41.649	0.145	-0.074
-459.055	249.099	-0.101	0.170
-458.040	22.897	-0.124	0.101
-457.026	212.662	0.133	0.209
-456.011	-60.430	-0.499	-0.212
-454.997	-8.051	-0.205	-0.138
-453.982	-89.544	-0.173	0.051
-452.968	-200.000	0.022	-0.124
-451.953	238.425	0.108	-0.180
-450.938	113.937	-0.086	-0.104
-449.924	219.973	-0.101	0.162
-448.909	-200.000	0.019	0.280
-447.895	-24.092	-0.136	-0.081
-446.880	23.100	0.251	-0.206
-445.865	-48.400	0.280	-0.135
-444.851	128.310	0.138	-0.175
-443.836	-110.491	-0.103	-0.021
-442.822	-77.655	-0.135	-0.047
-441.807	-101.163	-0.084	0.020
-440.792	-107.707	-0.328	-0.072
-439.778	-166.352	0.108	0.005
-438.763	548.990	-0.119	-0.285
-437.749	-85.238	0.223	-0.070
-436.734	205.088	-0.242	0.374
-435.719	-200.000	0.001	-0.196
-434.705	-64.361	0.040	-0.016
-433.690	800.000	-0.120	0.386
-432.676	280.726	-0.063	0.113
-431.661	-12.572	-0.014	0.009
-430.646	72.989	-0.080	0.084
-429.632	-83.457	0.365	-0.117
-428.617	60.105	0.157	0.155
-427.603	-109.440	0.220	0.046
-426.588	112.992	0.020	0.024
-425.573	275.328	0.178	-0.314
-424.559	39.731	-0.078	0.070
-423.544	-200.000	0.008	-0.407
-422.530	258.078	0.084	-0.143
-421.515	382.092	-0.076	-0.156
-420.500	-92.555	-0.077	0.022
-419.486	-57.959	-0.091	0.040
-418.471	6.087	0.155	0.114
-417.457	-44.499	-0.111	-0.055
-416.442	-164.745	0.127	0.006
-415.428	283.312	-0.027	-0.048
-414.413	-56.131	0.245	-0.109
-413.398	-127.003	0.309	-0.045
-412.384	-9.196	0.041	-0.028
-411.369	-200.000	0.005	0.040
-410.355	-50.049	0.380	0.179
-409.340	-15.155	-0.118	-0.075
-408.325	-77.780	0.300	-0.103
-407.311	-120.574	0.152	-0.026
-406.296	6.965	-0.162	0.120
-405.282	-200.000	-0.003	0.299
-404.267	630.300	-0.039	-0.099
-403.252	-87.033	-0.365	0.111
-402.238	354.479	-0.133	0.263
-401.223	800.000	0.073	0.219
-400.209	-159.351	0.241	0.013
-399.194	-200.000	0.018	-0.441
-398.179	-29.519	-0.341	0.194
-397.165	78.469	0.137	0.146
-396.150	800.000	0.024	-0.068
-395.136	-49.767	0.190	0.090
-394.121	657.802	0.018	0.047
-393.106	-68.651	0.254	0.098
-392.092	-65.340	-0.261	-0.105
-391.077	-153.284	-0.229	-0.016
-390.063	76.213	0.328	0.346
-389.048	-55.012	0.202	0.091
-388.033	276.149	0.182	-0.322
-387.019	-60.471	-0.371	0.157
-386.004	-101.151	0.309	0.075
-384.990	-200.000	-0.024	0.302
-383.975	72.308	0.096	0.099
-382.960	-200.000	0.000	0.029
-381.946	-200.000	0.034	-0.174
-380.931	83.197	0.194	0.210
-379.917	-84.355	0.451	-0.142
-378.902	-90.991	0.043	-0.012
-377.888	800.000	-0.072	0.262
-376.873	-158.244	0.124	0.007
-375.858	159.384	-0.245	-0.339
-374.844	238.306	0.174	-0.287
-373.829	2.563	0.409	-0.295
-372.815	76.265	0.265	0.280
-371.800	443.215	0.061	-0.134
-370.785	-200.000	-0.005	-0.286
-369.771	38.468	0.225	-0.199
-368.756	-158.358	0.179	0.010
-367.742	300.946	-0.148	-0.272
-366.727	-200.000	0.034	0.238
-365.712	-64.124	-0.131	0.053
-364.698	800.000	-0.055	-0.161
-363.683	-134.372	-0.106	0.013
-362.669	3.445	-0.155	-0.112
-361.654	-176.649	0.265	-0.007
-360.639	-87.959	0.332	0.099
-359.625	-200.000	0.016	-0.117
-358.610	144.115	-0.114	-0.151
-357.596	-200.000	-0.005	-0.112
-356.581	-200.000	0.015	-0.070
-355.566	-200.000	0.003	-0.258
-354.552	70.137	-0.225	-0.231
-353.537	-69.249	0.201	-0.077
-352.523	800.000	0.116	0.355
-351.508	158.490	0.097	-0.134
-350.493	53.291	-0.212	-0.202
-349.479	-98.184	0.110	0.028
-348.464	-75.301	0.254	0.090
-347.450	762.491	0.059	0.159
-346.435	-76.819	-0.328	-0.114
-345.420	99.801	-0.151	0.174
-344.406	160.949	-0.085	-0.118
-343.391	20.116	-0.161	-0.129
-342.377	-167.251	-0.305	0.012
-341.362	-72.765	0.135	-0.049
-340.348	-21.161	-0.175	0.106
-339.333	66.086	-0.171	-0.173
-338.318	58.287	-0.223	-0.217
-337.304	-52.243	0.356	0.164
-336.289	-200.000	0.032	0.412
-335.275	325.679	-0.279	0.531
-334.260	800.000	-0.071	0.209
-333.245	311.723	-0.230	0.429
-332.231	-52.277	-0.155	0.071
-331.216	298.228	-0.175	-0.321
-330.202	66.879	0.169	0.171
-329.187	-161.367	-0.157	0.008
-328.172	118.294	-0.264	0.323
-327.158	78.792	0.182	-0.194
-326.143	-74.100	0.168	-0.060
-325.129	-200.000	-0.083	0.385
-324.114	-84.016	-0.272	-0.086
-323.099	-134.776	0.104	0.013
-322.085	66.490	-0.045	0.046
-321.070	-74.674	0.147	0.053
-320.056	-93.193	-0.237	-0.065
-319.041	93.840	-0.058	0.065
-318.026	603.376	-0.021	0.051
-317.012	23.551	0.082	-0.067
-315.997	428.165	0.109	0.234
-314.983	124.940	-0.206	-0.258
-313.968	293.093	-0.274	-0.496
-312.953	-188.067	-0.041	-0.001
-311.939	800.000	0.078	-0.330
-310.924	43.925	-0.133	-0.121
-309.910	5.687	0.056	-0.041
-308.895	-200.000	-0.016	0.181
-307.880	-200.000	0.012	-0.152
-306.866	-123.394	-0.134	-0.021
-305.851	800.000	0.075	0.292
-304.837	-18.567	-0.318	-0.197
-303.822	312.157	0.050	0.093
-302.807	44.231	0.274	-0.250
-301.793	-200.000	-0.038	-0.275
-300.778	61.859	0.143	0.142
-299.764	-189.795	0.294	-0.003
-298.749	-46.165	0.255	0.125
-297.735	-200.000	-0.003	0.163
-296.720	142.906	0.094	-0.124
-295.705	31.680	-0.108	0.092
-294.691	109.082	0.214	0.254
-293.676	-62.954	0.192	0.079
-292.662	-200.000	0.032	-0.313
-291.647	-200.000	-0.055	0.277
-290.632	-160.294	0.298	0.016
-289.618	-200.000	0.062	0.341
-288.603	-42.023	-0.240	0.122
-287.589	307.516	0.179	-0.332
-286.574	196.169	0.098	-0.148
-285.559	382.398	-0.162	0.331
-284.545	37.667	-0.232	0.205
-283.530	220.022	0.078	-0.125
-282.516	239.488	0.128	0.211
-281.501	220.672	-0.122	-0.193
-280.486	-200.000	-0.014	-0.124
-279.472	78.389	0.234	-0.248
-278.457	-200.000	-0.017	0.081
-277.443	-200.000	0.018	0.253
-276.428	25.038	-0.062	-0.051
-275.413	-200.000	0.059	0.327
-274.399	57.414	0.060	0.058
-273.384	61.010	0.237	0.233
-272.370	800.000	-0.023	-0.066
-271.355	-34.873	0.096	-0.052
-270.340	-58.608	-0.121	0.052
-269.326	9.186	-0.104	-0.078
-268.311	-130.459	0.115	0.015
-267.297	58.708	0.152	-0.148
-266.282	-86.916	-0.307	-0.093
-265.267	-91.918	-0.226	-0.064
-264.253	10.276	0.221	0.167
-263.238	800.000	0.037	-0.103
-262.224	-200.000	0.060	0.311
-261.209	800.000	-0.061	-0.178
-260.195	148.168	0.064	0.086
-259.180	29.133	0.055	-0.046
-258.165	-122.350	0.276	-0.045
-257.151	298.069	-0.109	0.198
-256.136	-49.713	-0.515	0.243
-255.122	583.472	0.152	-0.369
-254.107	800.000	-0.105	-0.288
-253.092	-52.889	0.356	0.162
-252.078	-95.477	0.422	-0.112
-251.063	-53.437	-0.077	-0.035
-250.049	239.244	-0.112	0.184
-249.034	56.745	0.066	-0.064
-248.019	-83.353	-0.462	-0.147
-247.005	34.143	0.062	-0.053
-245.990	800.000	0.065	0.192
-244.976	92.252	0.190	0.212
-243.961	-101.454	-0.144	-0.035
-242.946	800.000	0.086	-0.250
-241.932	-131.878	0.195	-0.025
-240.917	-138.927	-0.301	-0.032
-239.903	-200.000	-0.052	-0.313
-238.888	473.899	-0.027	-0.061
-237.873	800.000	-0.024	-0.066
-236.859	584.134	0.120	-0.292
-235.844	-82.949	0.081	0.026
-234.830	-94.503	-0.273	0.074
-233.815	781.889	-0.087	0.235
-232.800	364.366	-0.069	-0.138
-231.786	628.633	0.051	0.126
-230.771	100.751	-0.003	-0.003
-229.757	800.000	-0.051	0.161
-228.742	-200.000	0.032	0.343
-227.727	-200.000	-0.043	0.242
-226.713	535.491	0.045	0.106
-225.698	-140.793	0.095	0.010
-224.684	378.692	-0.102	0.207
-223.669	-78.955	-0.215	0.072
-222.655	81.833	-0.264	0.283
-221.640	-40.111	0.122	0.063
-220.625	-16.098	0.093	0.058
-219.611	4.186	-0.072	-0.052
-218.596	156.239	-0.103	-0.140
-217.582	28.171	0.197	0.165
-216.567	-200.000	0.000	0.174
-215.552	42.113	0.109	-0.098
-214.538	39.296	0.102	0.090
-213.523	-169.708	0.143	0.005
-212.509	81.084	-0.269	-0.287
-211.494	-200.000	-0.009	-0.150
-210.479	800.000	-0.040	0.123
-209.465	-150.273	-0.201	0.015
-208.450	800.000	-0.070	-0.254
-207.436	-66.774	0.253	-0.099
-206.421	-124.549	-0.153	-0.024
-205.406	-200.000	0.066	-0.363
-204.392	108.308	0.055	-0.065
-203.377	68.407	0.124	0.125
-202.363	800.000	0.123	0.428
-201.348	-59.229	-0.086	-0.036
-200.333	-25.862	0.223	0.130
-199.319	67.709	-0.174	0.176
-198.304	352.669	-0.022	-0.044
-197.290	176.837	-0.032	-0.046
-196.275	-38.942	0.085	-0.044
-195.260	-200.000	-0.016	0.086
-194.246	-200.000	-0.007	-0.265
-193.231	-21.680	0.133	-0.080
-192.217	427.656	0.051	0.110
-191.202	-58.972	0.202	-0.086
-190.187	21.047	-0.114	-0.091
-189.173	-105.308	0.283	-0.064
-188.158	712.760	-0.092	0.240
-187.144	-37.633	0.069	-0.036
-186.129	-141.221	0.314	0.032
-185.114	-200.000	0.005	0.199
-184.100	63.231	0.266	0.263
-183.085	-157.288	-0.352	0.021
-182.071	424.720	0.067	-0.142
-181.056	-61.423	0.179	0.074
-180.042	-124.842	0.451	0.069
-179.027	-102.857	-0.301	0.071
-178.012	42.877	0.142	0.128
-176.998	457.549	0.084	0.184
-175.983	800.000	0.029	0.098
-174.969	-200.000	0.013	0.344
-173.954	-200.000	-0.019	-0.185
-172.939	-57.985	-0.117	-0.050
-171.925	-174.086	0.163	0.005
-170.910	96.650	0.006	-0.007
-169.896	800.000	0.003	-0.010
-168.881	76.642	-0.097	0.102
-167.866	124.209	0.078	-0.096
-166.852	-163.084	-0.151	-0.007
-165.837	-23.068	-0.156	0.093
-164.823	-200.000	0.056	0.257
-163.808	-163.700	0.120	0.006
-162.793	-132.261	-0.256	0.033
-161.779	-174.722	-0.119	-0.003
-160.764	3.484	0.165	0.119
-159.750	41.539	0.272	-0.243
-158.735	800.000	-0.065	0.211
-157.720	93.741	-0.247	-0.276
-156.706	695.415	0.076	-0.198
-155.691	236.267	0.056	0.091
-154.677	-137.307	0.293	0.033
-153.662	-200.000	-0.007	-0.056
-152.647	800.000	-0.113	-0.342
-151.633	92.743	-0.126	0.141
-150.618	694.723	0.157	-0.407
-149.604	-200.000	-0.072	0.409
-148.589	692.787	0.118	-0.306
-147.574	147.310	-0.174	0.231
-146.560	164.989	0.156	0.217
-145.545	130.126	0.081	-0.103
-144.531	-89.556	0.164	0.048
-143.516	48.926	-0.079	-0.073
-142.502	-47.735	-0.213	0.102
-141.487	-106.701	0.225	0.049
-140.472	26.680	0.037	0.030
-139.458	-16.725	0.316	0.197
-138.443	800.000	-0.025	-0.102
-137.429	-79.858	0.299	0.099
-136.414	-78.331	0.210	-0.071
-135.399	800.000	0.061	-0.261
-134.385	800.000	0.052	-0.188
-133.370	800.000	0.073	0.222
-132.356	-71.354	-0.262	-0.097
-131.341	288.494	-0.278	0.497
-130.326	573.208	0.009	-0.022
-129.312	-200.000	-0.006	0.336
-128.297	88.780	-0.286	-0.314
-127.283	800.000	0.039	-0.115
-126.268	-12.395	0.118	-0.076
-125.253	800.000	-0.062	0.259
-124.239	-200.000	-0.001	-0.136
-123.224	-109.038	-0.234	0.049
-122.210	497.910	0.111	0.251
-121.195	-147.452	0.129	-0.011
-120.180	800.000	0.101	0.293
-119.166	-200.000	0.032	0.178
-118.151	-200.000	0.026	0.153
-117.137	-94.508	-0.209	-0.056
-116.122	260.511	0.225	-0.383
-115.107	-200.000	0.015	0.367
-114.093	-107.542	-0.400	0.086
-113.078	-24.662	0.038	-0.022
-112.064	127.844	0.194	0.243
-111.049	-200.000	-0.011	-0.118
-110.034	-200.000	0.000	-0.193
-109.020	800.000	-0.099	0.400
-108.005	800.000	0.065	0.182
-106.991	-119.124	0.117	-0.020
-105.976	436.554	-0.121	-0.260
-104.962	510.252	-0.060	-0.137
-103.947	800.000	-0.120	0.351
-102.932	-200.000	0.026	-0.152
-101.918	114.139	-0.182	0.218
-100.903	800.000	0.042	0.124
-99.889	76.126	-0.052	0.055
-98.874	800.000	0.053	0.156
-97.859	800.000	-0.048	0.144
-96.845	0.282	-0.269	0.189
-95.830	-170.519	0.271	-0.009
-94.816	-26.102	-0.089	-0.051
-93.801	-109.629	0.161	-0.033
-92.786	800.000	0.109	0.416
-91.772	194.383	-0.285	-0.425
-90.757	800.000	-0.061	0.234
-89.743	54.261	0.124	0.118
-88.728	83.261	-0.095	-0.101
-87.713	-171.346	-0.057	-0.002
-86.699	-200.000	-0.004	0.048
-85.684	435.160	-0.079	-0.169
-84.670	114.641	-0.106	-0.127
-83.655	20.080	-0.120	0.096
-82.640	178.020	0.148	0.212
-81.626	-65.049	0.475	0.189
-80.611	-200.000	-0.045	0.321
-79.597	-200.000	0.008	0.146
-78.582	-71.557	0.115	0.042
-77.567	-59.265	-0.152	0.065
-76.553	-130.499	-0.230	-0.031
-75.538	127.691	-0.076	0.095
-74.524	-6.267	0.192	-0.129
-73.509	22.302	0.153	0.123
-72.494	-200.000	0.010	0.126
-71.480	63.738	0.085	-0.084
-70.465	800.000	-0.085	-0.248
-69.451	800.000	0.041	0.168
-68.436	800.000	0.059	-0.193
-67.422	292.846	-0.120	-0.216
-66.407	-92.916	-0.211	-0.058
-65.392	-120.754	0.441	-0.073
-64.378	263.535	0.009	0.015
-63.363	-200.000	-0.009	-0.193
-62.349	-200.000	-0.025	0.174
-61.334	38.371	-0.897	-0.785
-60.319	578.534	0.249	0.600
-59.305	800.000	-0.290	-0.819
-58.290	223.557	0.661	1.049
-57.276	800.000	0.598	1.662
-56.261	-200.000	96.901	593.902
-55.246	609.423	1400.733	3438.267
-54.232	189.482	2608.527	3843.408
-53.217	112.688	2297.508	2734.303
-52.203	40.725	1916.408	1698.254
-51.188	34.301	1703.427	1460.413
-50.173	31.681	1659.341	1402.959
-49.159	50.229	1706.946	1584.390
-48.144	51.337	1722.985	1607.616
-47.130	34.060	1683.851	1441.573
-46.115	31.264	1668.757	1407.553
-45.100	31.025	1664.267	1401.915
-44.086	30.940	1661.696	1399.059
-43.071	30.944	1658.826	1396.616
-42.057	30.981	1656.416	1394.809
-41.042	31.004	1654.776	1393.547
-40.027	30.923	1653.161	1391.522
-39.013	30.935	1650.838	1389.603
-37.998	30.864	1648.875	1387.362
-36.984	30.909	1647.848	1386.780
-35.969	31.049	1646.617	1386.731
-34.954	31.196	1644.116	1385.664
-33.940	30.981	1642.888	1382.974
-32.925	31.072	1641.527	1382.450
-31.911	31.004	1639.912	1380.529
-30.896	31.040	1637.744	1378.919
-29.881	31.070	1635.770	1377.420
-28.867	30.999	1634.462	1375.741
-27.852	31.044	1632.401	1374.287
-26.838	31.075	1631.526	1373.726
-25.823	31.084	1630.014	1372.460
-24.809	31.123	1628.638	1371.535
-23.794	31.126	1627.200	1370.288
-22.779	31.214	1625.453	1369.413
-21.765	31.079	1624.361	1367.444
-20.750	30.983	1622.710	1365.299
-19.736	31.020	1621.116	1364.173
-18.721	31.194	1619.403	1363.949
-17.706	31.101	1618.060	1362.091
-16.692	31.086	1616.213	1360.372
-15.677	31.079	1615.302	1359.497
-14.663	31.117	1614.283	1358.865
-13.648	31.142	1612.727	1357.682
-12.633	31.071	1610.741	1355.441
-11.619	31.119	1609.534	1354.719
-10.604	31.036	1608.140	1352.886
-9.590	31.050	1606.802	1351.809
-8.575	31.173	1605.199	1351.297
-7.560	31.142	1604.049	1350.053
-6.546	31.140	1602.784	1348.920
-5.531	31.046	1602.173	1347.674
-4.517	31.135	1600.759	1347.074
-3.502	31.149	1599.564	1346.117
-2.487	31.234	1597.648	1345.061
-1.473	31.034	1586.966	1334.580
-0.458	28.415	1567.641	1299.732
0.556	26.957	1567.570	1266.957
1.571	24.560	1591.096	1268.857
2.586	23.690	1602.462	1271.577
3.600	20.780	1547.897	1208.014
4.615	12.749	1439.182	1071.052
5.629	5.868	1375.669	980.804
6.644	4.562	1367.350	966.664
7.659	4.512	1366.274	965.512
8.673	4.517	1365.801	965.120
9.688	4.569	1364.118	964.170
10.702	4.495	1361.070	961.474
11.717	7.784	1367.633	986.447
12.731	15.954	1382.536	1048.141
13.746	21.665	1391.239	1090.306
14.761	22.498	1391.068	1095.253
15.775	21.810	1389.132	1089.361
16.790	20.858	1386.644	1081.408
17.804	20.080	1384.156	1074.550
18.819	19.686	1383.414	1071.435
19.834	19.575	1382.626	1070.042
20.848	19.486	1381.566	1068.574
21.863	19.215	1380.138	1065.701
22.877	19.257	1379.028	1065.007
23.892	19.172	1378.137	1063.702
24.907	19.075	1377.091	1062.204
25.921	19.116	1375.937	1061.467
26.936	19.217	1374.892	1061.191
27.950	19.276	1374.189	1060.921
28.965	19.251	1373.361	1060.034
29.980	19.406	1372.845	1060.492
30.994	19.542	1371.362	1060.087
32.009	19.546	1370.512	1059.364
33.023	19.535	1369.523	1058.435
34.038	19.437	1367.682	1056.322
35.053	19.414	1366.389	1055.090
36.067	19.336	1365.445	1053.786
37.082	19.389	1364.866	1053.572
38.096	19.376	1363.774	1052.557
39.111	19.441	1363.104	1052.345
40.126	19.282	1362.236	1050.613
41.140	18.941	1361.551	1047.914
42.155	18.944	1359.949	1046.606
43.169	18.784	1360.201	1045.731
44.184	18.823	1359.730	1045.513
45.199	18.853	1359.622	1045.520
46.213	19.097	1359.283	1046.650
47.228	19.308	1358.425	1047.179
48.242	19.272	1357.358	1046.048
49.257	19.249	1355.863	1044.661
50.271	19.160	1354.515	1042.991
51.286	19.300	1353.109	1042.663
52.301	19.266	1351.768	1041.332
53.315	19.055	1350.872	1039.279
54.330	19.016	1349.812	1038.132
55.344	18.957	1348.171	1036.424
56.359	18.895	1347.276	1035.268
57.374	18.919	1346.257	1034.543
58.388	18.811	1346.008	1033.607
59.403	18.761	1345.503	1032.831
60.417	18.681	1344.637	1031.591
61.432	18.679	1343.766	1030.820
62.447	18.583	1342.461	1029.149
63.461	18.552	1341.094	1027.827
64.476	18.510	1340.172	1026.778
65.490	18.526	1339.131	1025.983
66.505	18.566	1337.499	1024.885
67.520	18.579	1336.951	1024.449
68.534	18.663	1335.207	1023.522
69.549	18.579	1334.361	1022.287
70.563	18.462	1333.505	1020.841
71.578	18.397	1332.111	1019.299
72.593	18.375	1330.818	1018.087
73.607	18.291	1331.202	1017.792
74.622	18.423	1330.013	1017.575
75.636	18.464	1329.240	1017.136
76.651	18.411	1328.869	1016.451
77.666	18.544	1328.212	1016.646
78.680	18.650	1327.522	1016.653
79.695	18.674	1326.777	1016.136
80.709	18.749	1326.623	1016.373
81.724	18.884	1325.537	1016.248
82.739	19.014	1324.360	1016.022
83.753	19.109	1324.466	1016.577
84.768	19.303	1323.424	1016.832
85.782	19.431	1322.106	1016.482
86.797	19.399	1321.027	1015.379
87.812	19.244	1319.658	1013.320
88.826	19.259	1318.380	1012.341
89.841	19.310	1317.476	1011.858
90.855	19.536	1316.567	1012.396
91.870	19.411	1316.262	1011.335
92.884	19.495	1315.177	1010.906
93.899	19.497	1314.415	1010.241
94.914	19.539	1313.451	1009.656
95.928	19.596	1312.462	1009.140
96.943	19.489	1311.565	1007.735
97.957	19.449	1310.880	1006.891
98.972	19.433	1309.966	1006.005
99.987	19.472	1308.961	1005.372
101.001	19.460	1307.755	1004.286
102.016	19.451	1307.092	1003.636
103.030	19.391	1306.501	1002.745
104.045	19.342	1305.743	1001.791
105.060	19.262	1303.945	999.858
106.074	18.926	1302.224	996.499
107.089	18.687	1300.910	994.021
108.103	18.580	1299.496	992.236
109.118	18.629	1298.368	991.568
110.133	18.586	1297.163	990.313
111.147	18.664	1295.581	989.465
112.162	18.684	1294.338	988.546
113.176	18.694	1293.465	987.849
114.191	18.795	1292.743	987.789
115.206	18.907	1291.307	987.251
116.220	18.788	1289.606	985.180
117.235	18.811	1288.894	984.680
118.249	18.790	1287.619	983.501
119.264	18.610	1286.802	981.760
120.279	18.663	1285.292	980.821
121.293	18.652	1284.114	979.775
122.308	18.402	1283.230	977.584
123.322	18.504	1281.870	977.044
124.337	18.396	1281.369	975.962
125.352	18.395	1280.201	974.978
126.366	18.405	1279.193	974.181
127.381	18.432	1277.760	973.161
128.395	18.347	1276.825	971.877
129.410	18.453	1276.078	971.826
130.424	18.508	1275.446	971.567
131.439	18.615	1274.696	971.515
132.454	18.742	1273.807	971.475
133.468	18.805	1272.759	970.941
134.483	18.787	1272.477	970.538
135.497	18.845	1271.088	969.724
136.512	18.756	1270.317	968.544
137.527	18.845	1268.897	967.881
138.541	18.937	1267.157	966.987
139.556	19.130	1265.776	966.930
140.570	19.107	1265.580	966.566
141.585	19.103	1264.721	965.800
142.600	19.223	1263.203	965.228
143.614	19.347	1262.691	965.444
144.629	19.457	1261.454	965.029
145.643	19.349	1260.428	963.558
146.658	19.116	1259.274	961.288
147.673	19.072	1257.658	959.723
148.687	18.984	1256.413	958.200
149.702	18.758	1255.342	956.037
150.716	18.788	1253.656	954.835
151.731	18.840	1252.519	954.176
152.746	18.830	1251.511	953.268
153.760	19.018	1250.268	953.278
154.775	19.059	1249.570	952.889
155.789	19.092	1248.330	952.040
156.804	19.145	1247.043	951.271
157.819	19.118	1246.878	950.909
158.833	19.337	1245.629	951.081
159.848	19.436	1244.839	950.938
160.862	19.522	1243.675	950.439
161.877	19.156	1242.417	947.378
162.892	18.933	1241.098	945.064
163.906	18.934	1240.175	944.285
164.921	18.928	1239.022	943.288
165.935	18.966	1238.435	942.970
166.950	19.078	1238.211	943.329
167.964	19.179	1236.936	942.828
168.979	18.978	1236.274	941.136
169.994	19.024	1235.904	941.027
171.008	19.137	1234.397	940.412
172.023	19.107	1234.431	940.189
173.037	19.374	1233.303	940.707
174.052	19.268	1232.961	939.784
175.067	19.023	1231.717	937.416
176.081	18.975	1230.382	936.056
177.096	18.801	1229.489	934.350
178.110	18.933	1228.279	934.060
179.125	19.064	1226.732	933.513
180.140	18.986	1226.034	932.478
181.154	19.216	1225.226	933.030
182.169	19.247	1224.081	932.241
183.183	19.263	1223.298	931.646
184.198	19.404	1222.151	931.454
185.213	19.399	1221.014	930.476
186.227	19.420	1219.741	929.540
187.242	19.527	1218.640	929.194
188.256	19.639	1217.840	929.103
189.271	19.693	1216.425	928.232
190.286	19.312	1216.098	925.853
191.300	18.868	1214.968	922.528
192.315	18.849	1213.810	921.467
193.329	18.949	1213.438	921.639
194.344	19.100	1212.035	921.300
195.359	19.124	1212.232	921.496
196.373	19.121	1211.944	921.181
197.388	19.353	1211.360	921.892
198.402	19.513	1210.920	922.332
199.417	19.792	1210.291	923.264
200.432	19.946	1209.514	923.411
201.446	19.814	1209.436	922.563
202.461	20.037	1208.516	922.968
203.475	19.867	1207.106	920.903
204.490	19.630	1205.690	918.485
205.504	19.526	1204.548	916.978
206.519	19.344	1203.627	915.230
207.534	19.503	1201.734	914.553
208.548	19.475	1201.323	914.010
209.563	19.539	1200.591	913.713
210.577	19.516	1199.274	912.510
211.592	19.650	1198.536	912.576
212.607	19.726	1198.185	912.625
213.621	19.820	1197.123	912.235
214.636	19.755	1196.107	911.038
215.650	19.705	1195.626	910.327
216.665	19.838	1194.978	910.450
217.680	19.915	1193.904	909.956
218.694	20.049	1193.079	909.953
219.709	19.851	1192.257	908.205
220.723	19.843	1191.529	907.530
221.738	19.938	1190.627	907.262
222.753	19.853	1189.841	906.134
223.767	19.819	1189.292	905.460
224.782	20.005	1189.102	906.210
225.796	20.135	1188.149	906.080
226.811	20.020	1187.575	904.964
227.826	19.802	1187.074	903.363
228.840	19.791	1185.879	902.313
229.855	19.773	1185.090	901.541
230.869	19.831	1184.403	901.241
231.884	19.715	1183.450	899.830
232.899	19.681	1182.382	898.763
233.913	19.669	1181.983	898.317
234.928	19.560	1181.081	896.985
235.942	19.486	1180.418	896.019
236.957	19.510	1179.683	895.509
237.972	19.557	1178.629	894.874
238.986	19.521	1178.377	894.412
240.001	19.608	1177.367	894.017
241.015	19.596	1176.312	893.077
242.030	19.772	1175.675	893.421
243.045	19.746	1175.378	892.986
244.059	19.709	1174.917	892.365
245.074	19.808	1174.109	892.182
246.088	19.904	1173.493	892.130
247.103	20.043	1172.057	891.675
248.117	20.215	1171.609	892.140
249.132	20.340	1171.423	892.560
250.147	20.466	1171.281	893.023
251.161	20.751	1170.214	893.592
252.176	20.808	1169.227	893.051
253.190	20.795	1168.705	892.510
254.205	20.871	1168.636	892.769
255.220	20.865	1167.774	891.997
256.234	20.784	1167.060	890.958
257.249	20.812	1166.282	890.427
258.263	20.749	1165.868	889.711
259.278	20.736	1165.025	888.923
260.293	20.775	1164.752	888.838
261.307	20.898	1164.035	888.839
262.322	20.857	1163.099	887.836
263.336	20.865	1162.467	887.314
264.351	20.911	1162.056	887.156
265.366	20.908	1161.312	886.493
266.380	20.962	1160.701	886.227
267.395	20.774	1160.166	884.781
268.409	20.658	1158.763	883.045
269.424	20.642	1158.282	882.521
270.439	20.732	1157.490	882.297
271.453	20.591	1156.824	880.997
272.468	20.621	1155.356	879.950
273.482	20.489	1154.586	878.618
274.497	20.672	1154.323	879.264
275.512	20.599	1153.343	878.073
276.526	20.541	1152.996	877.440
277.541	20.592	1152.344	877.123
278.555	20.734	1151.202	876.891
279.570	20.965	1150.738	877.621
280.585	21.022	1149.958	877.238
281.599	20.896	1149.541	876.209
282.614	20.809	1148.129	874.614
283.628	20.783	1146.937	873.501
284.643	20.699	1146.066	872.340
285.657	20.801	1144.920	871.902
286.672	20.665	1144.427	870.768
287.687	20.635	1143.913	870.151
288.701	20.732	1143.043	869.896
289.716	20.771	1142.034	869.245
290.730	20.798	1141.423	868.839
291.745	20.784	1140.650	868.102
292.760	20.872	1140.409	868.281
293.774	20.977	1139.792	868.260
294.789	21.146	1139.146	868.527
295.803	21.073	1138.432	867.547
296.818	20.791	1137.862	865.632
297.833	20.767	1136.788	864.619
298.847	20.842	1135.754	864.129
299.862	20.813	1135.249	863.523
300.876	20.904	1134.505	863.331
301.891	20.914	1134.064	862.971
302.906	21.122	1133.531	863.520
303.920	21.191	1132.980	863.362
304.935	21.382	1132.187	863.627
305.949	21.379	1131.891	863.311
306.964	21.380	1131.237	862.739
307.979	21.275	1129.978	861.184
308.993	21.168	1129.376	860.121
310.008	21.220	1128.742	859.821
311.022	21.301	1128.055	859.617
312.037	21.342	1127.151	859.056
313.052	21.224	1125.753	857.336
314.066	21.059	1124.791	855.715
315.081	20.831	1124.174	854.055
316.095	20.779	1123.049	852.866
317.110	20.845	1122.546	852.735
318.125	20.869	1121.483	851.970
319.139	20.835	1121.021	851.374
320.154	20.841	1120.139	850.660
321.168	20.923	1119.888	850.792
322.183	20.845	1119.204	849.821
323.197	20.983	1118.459	849.851
324.212	20.937	1118.536	849.612
325.227	21.034	1117.805	849.454
326.241	21.015	1117.165	848.798
327.256	20.968	1116.332	847.863
328.270	20.962	1114.794	846.589
329.285	20.935	1114.390	846.074
330.300	21.003	1112.625	844.990
331.314	20.904	1112.043	843.993
332.329	20.895	1111.511	843.471
333.343	21.019	1110.574	843.287
334.358	21.111	1110.397	843.523
335.373	21.219	1109.403	843.215
336.387	21.385	1108.086	842.937
337.402	21.335	1107.574	842.233
338.416	21.367	1106.908	841.810
339.431	21.469	1106.530	841.935
340.446	21.675	1105.900	842.375
341.460	21.795	1105.296	842.415
342.475	21.962	1104.589	842.603
343.489	21.835	1103.767	841.291
344.504	21.990	1102.579	841.055
345.519	21.840	1102.251	840.013
346.533	22.050	1101.381	840.282
347.548	21.956	1101.082	839.530
348.562	21.869	1100.130	838.310
349.577	21.750	1098.636	836.534
350.592	21.464	1097.876	834.517
351.606	21.451	1096.899	833.636
352.621	21.377	1096.446	832.868
353.635	21.429	1095.475	832.303
354.650	21.465	1094.818	831.901
355.665	21.510	1094.217	831.584
356.679	21.453	1094.077	831.135
357.694	21.561	1093.410	831.067
358.708	21.651	1093.069	831.158
359.723	21.578	1092.450	830.270
360.738	21.619	1091.626	829.764
361.752	21.631	1091.022	829.291
362.767	21.586	1090.604	828.685
363.781	21.732	1090.121	828.933
364.796	21.862	1089.107	828.704
365.810	22.007	1088.887	829.150
366.825	22.143	1088.316	829.281
367.840	22.238	1088.289	829.637
368.854	22.332	1087.489	829.396
369.869	22.288	1086.394	828.280
370.883	22.219	1085.359	827.094
371.898	22.139	1084.309	825.843
372.913	22.088	1083.789	825.135
373.927	22.157	1083.464	825.142
374.942	22.211	1083.535	825.372
375.956	22.073	1083.165	824.373
376.971	22.126	1082.085	823.723
377.986	22.179	1081.357	823.346
379.000	22.268	1081.158	823.539
380.015	22.417	1081.013	824.051
381.029	22.444	1080.225	823.505
382.044	22.465	1079.032	822.623
383.059	22.342	1078.141	821.296
384.073	22.365	1077.742	821.024
385.088	22.395	1077.198	820.676
386.102	22.419	1076.117	819.893
387.117	22.257	1074.961	818.187
388.132	21.948	1074.240	816.131
389.146	21.984	1072.896	815.201
390.161	22.074	1072.149	814.982
391.175	22.012	1071.747	814.316
392.190	22.170	1071.263	814.609
393.205	22.313	1070.683	814.758
394.219	22.302	1069.860	814.007
395.234	22.234	1068.591	812.655
396.248	22.191	1067.458	811.524
397.263	22.146	1066.183	810.277
398.278	21.940	1065.826	808.982
399.292	21.837	1065.069	807.861
400.307	21.895	1064.405	807.553
401.321	21.953	1063.517	807.076
402.336	21.880	1062.803	806.128
403.350	22.010	1061.810	805.898
404.365	21.861	1061.761	805.105
405.380	22.080	1060.930	805.410
406.394	22.164	1060.213	805.180
407.409	22.335	1059.842	805.611
408.423	22.448	1059.067	805.468
409.438	22.524	1058.614	805.396
410.453	22.671	1057.758	805.348
411.467	22.650	1057.286	804.820
412.482	22.675	1056.803	804.496
413.496	22.720	1056.420	804.339
414.511	22.793	1055.690	804.045
415.526	23.038	1055.301	804.792
416.540	22.995	1054.832	804.166
417.555	23.041	1053.931	803.620
418.569	22.875	1053.516	802.474
419.584	22.800	1052.894	801.589
420.599	22.874	1052.516	801.567
421.613	156.099	1401.701	1795.876
422.628	143.310	1452.573	1795.984
