DTS Sentinel unit serial number:	SN413079Multiplexer serial number:	ORYXHardware model number:	OX4-SRSoftware version number:	ORYX F/W v4.00 Oryx Data Collector v3.7.2.0data status	okinstallation	princeton_trtdifferential loss correction	single-endedforward channel	channel 2reverse channel	N/Adate	2019/09/12time	18:32:49forward acquisition time	15.00reverse acquisition time	0.00gamma	496.2192k internal	0.2323k external	0.2323temperature offset calibration	1.0130default loss term (dB/km)	0.3790temperature slope calibration	1.0000multiplexer offset coefficient	1.0000multiplexer slope coefficient	1.0000fibre end	0.00T internal ref (°C)	33.19T ext. ref 1 (°C)	2.95T ext. ref 2 (°C)	27.78length (m)	temperature (°C)	Stokes	anti-Stokes-747.200	-167.544	-0.625	-0.025
-746.185	540.521	0.141	-0.338
-745.171	-90.254	-0.512	0.150
-744.156	-176.430	-0.414	-0.011
-743.142	-200.000	0.042	-0.350
-742.127	-121.452	0.385	-0.065
-741.112	-8.217	0.480	0.326
-740.098	-24.182	-0.291	0.175
-739.083	94.969	0.444	-0.510
-738.069	-87.150	-0.734	-0.225
-737.054	-100.976	0.571	-0.141
-736.039	-69.543	0.310	-0.120
-735.025	-31.889	-0.379	-0.214
-734.010	102.439	0.305	0.360
-732.996	104.970	0.479	-0.570
-731.981	391.823	-0.089	-0.186
-730.966	-200.000	-0.057	0.290
-729.952	-200.000	-0.097	-0.663
-728.937	-0.043	-0.532	-0.382
-727.923	-31.402	0.585	-0.332
-726.908	141.955	-0.393	0.525
-725.894	229.333	-0.315	-0.518
-724.879	73.204	-0.548	-0.578
-723.864	-144.498	0.580	0.054
-722.850	146.296	-0.324	0.439
-721.835	-200.000	0.025	-0.178
-720.821	-127.494	0.299	0.044
-719.806	402.511	-0.277	-0.588
-718.791	-200.000	0.022	-0.230
-717.777	-200.000	0.053	-0.484
-716.762	-94.358	-0.638	-0.176
-715.748	62.883	-0.215	0.217
-714.733	328.627	-0.408	0.791
-713.718	80.838	0.468	-0.509
-712.704	695.069	0.185	-0.489
-711.689	-200.000	-0.015	1.155
-710.675	-200.000	-0.096	-0.457
-709.660	-200.000	0.028	0.549
-708.645	-75.332	-0.466	-0.167
-707.631	-141.978	0.626	0.063
-706.616	-9.647	0.430	0.289
-705.602	-8.961	-0.431	0.291
-704.587	-79.107	-0.584	0.200
-703.572	800.000	-0.050	-0.217
-702.558	16.429	-0.509	-0.405
-701.543	13.870	-0.026	0.020
-700.529	338.662	0.230	-0.452
-699.514	-141.553	0.387	0.039
-698.499	-200.000	0.053	0.878
-697.485	243.080	0.414	0.699
-696.470	-48.019	0.796	-0.388
-695.456	800.000	-0.101	0.353
-694.441	71.409	-0.723	0.756
-693.426	147.403	-0.067	0.091
-692.412	800.000	0.056	0.172
-691.397	-152.004	0.578	-0.042
-690.383	565.292	-0.222	0.543
-689.368	44.620	0.398	-0.368
-688.354	-109.071	0.819	-0.176
-687.339	363.750	-0.249	-0.504
-686.324	85.011	-0.379	0.418
-685.310	484.995	-0.100	-0.229
-684.295	-11.681	0.116	-0.077
-683.281	-54.065	-0.287	-0.132
-682.266	-86.856	-0.364	-0.112
-681.251	30.764	0.293	0.253
-680.237	-85.500	-0.625	0.196
-679.222	-200.000	-0.063	0.327
-678.208	206.881	0.071	0.111
-677.193	-83.919	0.380	-0.122
-676.178	346.171	0.424	-0.840
-675.164	-180.464	-0.443	0.009
-674.149	-59.897	0.421	-0.181
-673.135	-52.319	-0.507	-0.237
-672.120	-200.000	-0.098	-0.881
-671.105	-15.932	-1.051	0.674
-670.091	-29.098	-0.521	0.301
-669.076	-129.200	0.624	-0.088
-668.062	-96.500	0.218	-0.058
-667.047	37.067	-0.275	-0.245
-666.032	-108.294	0.773	0.168
-665.018	-104.914	-0.532	0.123
-664.003	-200.000	-0.014	0.429
-662.989	88.290	-0.344	0.384
-661.974	73.440	0.222	-0.234
-660.959	5.708	-0.450	-0.335
-659.945	-102.658	-0.361	0.087
-658.930	-200.000	-0.991	-0.002
-657.916	-200.000	-0.050	0.280
-656.901	-103.463	-0.507	-0.120
-655.886	294.026	0.267	0.491
-654.872	-26.570	-1.150	0.678
-653.857	-137.344	0.393	-0.045
-652.843	31.252	0.066	0.057
-651.828	87.844	-0.351	-0.391
-650.814	591.517	0.189	0.470
-649.799	800.000	0.136	0.436
-648.784	89.393	0.452	-0.507
-647.770	213.834	0.264	-0.419
-646.755	-113.887	0.873	0.171
-645.741	364.657	-0.036	-0.072
-644.726	-200.000	-0.082	0.971
-643.711	800.000	0.137	-0.464
-642.697	-118.934	-1.038	0.183
-641.682	-32.396	0.966	-0.542
-640.668	-132.296	0.631	0.082
-639.653	-90.542	0.284	0.083
-638.638	37.504	-0.442	-0.394
-637.624	-54.788	0.579	-0.263
-636.609	-200.000	0.018	-0.730
-635.595	-55.875	-0.618	0.277
-634.580	-200.000	-0.004	0.611
-633.565	-112.670	-0.468	-0.094
-632.551	-200.000	-0.101	0.904
-631.536	800.000	0.241	0.741
-630.522	-125.163	-0.599	-0.092
-629.507	49.517	-0.248	-0.234
-628.492	-8.849	0.066	-0.044
-627.478	466.009	0.362	-0.815
-626.463	-47.231	0.479	-0.234
-625.449	-38.568	-0.154	0.082
-624.434	290.558	0.099	-0.180
-623.419	-129.709	1.275	-0.177
-622.405	-200.000	0.039	0.411
-621.390	800.000	0.100	-0.429
-620.376	-200.000	-0.009	-0.078
-619.361	-28.502	-0.518	-0.300
-618.346	800.000	0.096	0.379
-617.332	-93.710	-0.224	-0.062
-616.317	-177.454	-0.490	0.012
-615.303	76.806	-0.719	-0.767
-614.288	166.964	0.452	-0.644
-613.273	-200.000	0.005	-0.780
-612.259	214.712	-0.292	0.466
-611.244	15.693	-0.455	0.359
-610.230	280.072	0.176	0.316
-609.215	-18.064	0.263	-0.165
-608.201	89.925	-0.585	0.656
-607.186	-81.477	-0.465	-0.154
-606.171	-146.176	0.950	0.084
-605.157	337.819	0.036	-0.071
-604.142	525.982	-0.165	-0.390
-603.128	-200.000	0.125	0.962
-602.113	-200.000	-0.015	0.139
-601.098	800.000	-0.156	-0.534
-600.084	-110.400	0.118	-0.025
-599.069	-100.860	-0.349	0.086
-598.055	-85.217	0.410	-0.129
-597.040	110.086	-0.456	0.549
-596.025	14.300	-0.702	-0.549
-595.011	-200.000	0.090	0.743
-593.996	208.948	-0.079	0.124
-592.982	20.745	0.161	0.131
-591.967	268.523	0.211	0.372
-590.952	800.000	-0.150	0.627
-589.938	-56.456	-0.556	-0.248
-588.923	228.349	0.129	-0.211
-587.909	78.905	-0.527	-0.566
-586.894	-93.683	0.077	-0.021
-585.879	-81.280	-0.405	-0.134
-584.865	-59.692	-0.438	-0.188
-583.850	-4.842	-0.495	-0.342
-582.836	800.000	-0.217	-0.691
-581.821	-144.891	0.799	-0.073
-580.806	351.841	-0.047	-0.093
-579.792	-200.000	-0.033	0.223
-578.777	353.066	0.187	-0.372
-577.763	800.000	-0.043	-0.177
-576.748	120.903	0.269	0.336
-575.733	-200.000	-0.024	-0.343
-574.719	201.437	-0.185	0.286
-573.704	-67.772	-0.597	0.234
-572.690	-0.777	-0.106	0.076
-571.675	-128.414	0.443	0.063
-570.661	250.126	0.445	0.757
-569.646	-200.000	0.024	0.187
-568.631	342.611	0.258	-0.506
-567.617	-68.889	0.765	0.296
-566.602	-56.707	0.656	0.291
-565.588	-200.000	0.131	-0.779
-564.573	-66.583	-0.440	0.175
-563.558	95.874	-0.211	0.241
-562.544	-49.835	-0.679	-0.323
-561.529	800.000	0.187	-0.523
-560.515	42.098	0.355	-0.323
-559.500	289.335	-0.232	0.421
-558.485	-56.139	0.484	0.216
-557.471	800.000	-0.110	0.338
-556.456	-52.994	-0.445	0.205
-555.442	-200.000	-0.007	0.460
-554.427	-44.897	0.472	-0.236
-553.412	-36.540	-0.606	0.327
-552.398	-114.427	-0.228	-0.044
-551.383	-200.000	0.159	-1.182
-550.369	266.780	-0.261	0.458
-549.354	138.466	-0.215	-0.283
-548.339	-62.334	0.450	-0.188
-547.325	-7.638	0.516	-0.350
-546.310	24.623	-0.361	-0.299
-545.296	5.256	-0.157	0.116
-544.281	122.286	0.443	0.555
-543.266	-3.289	-0.360	-0.251
-542.252	-200.000	0.028	0.870
-541.237	-157.655	-0.298	-0.018
-540.223	164.992	0.384	0.543
-539.208	-107.852	-0.490	-0.107
-538.193	-95.132	-0.526	-0.142
-537.179	-200.000	-0.019	-0.737
-536.164	-200.000	0.016	0.419
-535.150	8.859	-0.150	0.113
-534.135	246.382	0.406	-0.686
-533.121	301.177	-0.327	0.605
-532.106	677.896	-0.130	0.339
-531.091	44.648	-0.818	-0.754
-530.077	92.335	0.343	0.387
-529.062	-83.866	-0.725	0.231
-528.048	75.564	-0.828	0.876
-527.033	-200.000	0.071	-1.074
-526.018	103.207	-0.222	-0.261
-525.004	-200.000	-0.464	0.000
-523.989	800.000	0.132	-0.397
-522.975	-110.791	-0.792	0.164
-521.960	-75.893	-0.576	0.204
-520.945	-119.932	-0.588	-0.101
-519.931	29.140	0.534	-0.454
-518.916	-176.753	0.856	0.022
-517.902	208.617	-0.109	0.170
-516.887	4.037	0.371	-0.272
-515.872	-62.037	-0.465	-0.194
-514.858	-20.450	-0.387	0.238
-513.843	675.897	0.272	0.706
-512.829	152.673	0.188	-0.257
-511.814	321.787	-0.346	0.660
-510.799	800.000	-0.300	1.265
-509.785	-32.673	-0.583	0.325
-508.770	56.783	0.599	0.583
-507.756	382.893	0.219	0.450
-506.741	4.372	0.198	-0.145
-505.726	-110.433	-0.788	-0.164
-504.712	-40.520	0.522	0.271
-503.697	146.541	-0.285	-0.383
-502.683	-200.000	0.131	-0.656
-501.668	-200.000	-0.113	0.608
-500.653	-116.272	0.737	0.137
-499.639	-23.210	-0.291	0.175
-498.624	-57.557	0.190	-0.083
-497.610	135.955	0.131	0.171
-496.595	479.560	-0.242	0.549
-495.581	58.067	0.136	-0.134
-494.566	-135.858	0.449	-0.053
-493.551	55.297	-0.439	-0.424
-492.537	800.000	-0.224	-0.824
-491.522	62.302	0.280	-0.280
-490.508	385.666	0.060	0.123
-489.493	-122.416	-1.064	-0.173
-488.478	245.408	-0.226	-0.380
-487.464	-4.004	0.245	-0.170
-486.449	-38.291	-0.810	0.429
-485.435	345.846	-0.060	0.118
-484.420	-200.000	-0.115	-0.667
-483.405	-31.812	-0.380	-0.213
-482.391	104.674	0.425	0.501
-481.376	-59.786	0.085	-0.037
-480.362	-85.525	0.438	-0.136
-479.347	198.937	-0.154	-0.236
-478.332	-130.551	-0.292	-0.039
-477.318	21.630	-0.413	-0.336
-476.303	800.000	-0.211	0.589
-475.289	-5.940	0.697	-0.477
-474.274	-13.974	-1.020	0.658
-473.259	-200.000	-0.085	-0.670
-472.245	-145.562	-0.187	-0.017
-471.230	381.194	-0.152	-0.313
-470.216	-15.329	-0.504	0.322
-469.201	-87.284	0.261	-0.079
-468.186	10.662	-0.372	-0.283
-467.172	-200.000	0.106	0.573
-466.157	800.000	0.168	0.667
-465.143	-44.947	-0.871	-0.433
-464.128	252.374	-0.203	-0.346
-463.113	-3.808	0.653	-0.453
-462.099	-71.155	0.397	0.149
-461.084	59.217	0.507	0.498
-460.070	-117.801	-0.535	-0.096
-459.055	-142.851	-0.140	-0.014
-458.040	-200.000	0.979	0.004
-457.026	800.000	0.051	-0.215
-456.011	96.852	-0.339	-0.388
-454.997	490.434	-0.191	-0.436
-453.982	16.763	0.403	-0.318
-452.968	69.082	-0.514	0.528
-451.953	-200.000	-0.059	0.264
-450.938	-20.394	-0.226	0.138
-449.924	18.252	0.613	-0.488
-448.909	-158.447	0.018	-0.001
-447.895	-132.143	0.561	-0.073
-446.880	-11.167	-0.460	0.303
-445.865	11.632	-0.517	0.396
-444.851	761.427	-0.028	-0.075
-443.836	-162.552	0.548	0.027
-442.822	253.095	0.120	0.205
-441.807	254.999	0.228	-0.390
-440.792	48.215	0.226	-0.211
-439.778	-122.198	0.520	0.085
-438.763	-200.000	0.064	0.314
-437.749	-171.077	-0.334	-0.011
-436.734	-112.382	-0.696	-0.139
-435.719	53.937	-0.038	0.037
-434.705	-200.000	-0.002	-0.643
-433.690	800.000	-0.164	0.600
-432.676	-133.908	0.810	-0.100
-431.661	637.162	0.470	-1.190
-430.646	-54.929	0.324	0.146
-429.632	-200.000	-0.136	0.653
-428.617	800.000	-0.255	-0.752
-427.603	46.471	0.204	0.189
-426.588	73.080	0.613	0.639
-425.573	-200.000	-0.091	-0.900
-424.559	-110.158	0.531	-0.111
-423.544	-124.450	0.446	-0.069
-422.530	-200.000	-0.043	-0.523
-421.515	-108.242	-0.008	-0.002
-420.500	800.000	0.157	-0.494
-419.486	-135.142	0.228	0.027
-418.471	800.000	-0.169	0.677
-417.457	438.792	0.397	-0.865
-416.442	-189.960	-0.437	0.005
-415.428	-200.000	-0.040	-0.383
-414.413	-134.440	-0.462	0.056
-413.398	-200.000	0.055	0.351
-412.384	-200.000	-0.049	0.396
-411.369	323.179	0.268	-0.509
-410.355	-118.702	0.346	0.061
-409.340	389.598	-0.135	-0.279
-408.325	405.956	-0.108	0.227
-407.311	78.568	-0.117	-0.125
-406.296	47.108	-0.541	0.501
-405.282	11.632	-0.309	-0.236
-404.267	172.716	0.476	0.683
-403.252	-116.136	0.219	-0.041
-402.238	-44.266	-0.260	0.130
-401.223	541.910	0.076	0.181
-400.209	52.502	0.050	0.047
-399.194	-59.180	-0.655	0.281
-398.179	54.223	0.509	-0.488
-397.165	-200.000	0.035	0.978
-396.150	233.154	0.153	-0.250
-395.136	-200.000	0.033	0.247
-394.121	-169.011	0.491	0.018
-393.106	78.566	0.344	-0.366
-392.092	706.826	0.133	0.350
-391.077	-200.000	0.230	1.272
-390.063	323.308	0.290	0.551
-389.048	306.374	0.296	0.549
-388.033	419.221	-0.429	-0.913
-387.019	-82.081	0.508	-0.165
-386.004	-200.000	0.065	-0.454
-384.990	-73.031	0.263	0.096
-383.975	-90.029	0.910	0.264
-382.960	-200.000	0.093	-0.419
-381.946	-123.176	-0.370	-0.059
-380.931	105.383	-0.593	0.697
-379.917	800.000	-0.265	0.737
-378.902	150.012	-0.277	0.374
-377.888	5.813	-0.236	-0.174
-376.873	-127.774	-0.111	-0.016
-375.858	76.918	0.520	0.550
-374.844	-131.394	0.482	-0.063
-373.829	-200.000	0.052	0.341
-372.815	405.567	0.143	0.300
-371.800	573.696	0.371	0.901
-370.785	244.867	0.309	0.517
-369.771	-200.000	-0.052	0.878
-368.756	121.289	-0.507	0.628
-367.742	450.567	-0.350	-0.768
-366.727	2.815	-0.242	-0.175
-365.712	-200.000	0.064	-0.520
-364.698	-100.496	-0.195	0.048
-363.683	-118.660	-0.316	0.055
-362.669	800.000	0.104	-0.436
-361.654	-6.106	-0.438	0.298
-360.639	800.000	0.131	0.440
-359.625	-30.760	0.037	0.021
-358.610	-200.000	-0.004	-0.607
-357.596	181.551	0.061	-0.090
-356.581	800.000	-0.140	0.393
-355.566	33.732	-0.328	0.284
-354.552	-91.691	0.514	-0.145
-353.537	159.314	0.073	0.101
-352.523	-99.548	0.183	-0.046
-351.508	-86.891	-0.792	-0.240
-350.493	326.204	-0.286	-0.545
-349.479	-59.417	0.855	-0.366
-348.464	172.778	-0.314	0.449
-347.450	800.000	0.231	0.737
-346.435	93.335	0.394	0.443
-345.420	-26.455	0.925	-0.539
-344.406	-200.000	0.138	0.905
-343.391	-128.504	-0.618	0.087
-342.377	800.000	0.171	-0.718
-341.362	-137.913	-0.346	-0.038
-340.348	-89.416	-0.653	0.191
-339.333	65.892	0.454	0.458
-338.318	63.094	0.352	-0.351
-337.304	98.393	0.285	0.327
-336.289	173.185	0.223	-0.320
-335.275	-91.650	0.340	0.096
-334.260	800.000	0.190	-0.617
-333.245	-150.335	0.609	0.047
-332.231	69.587	-0.067	0.068
-331.216	-47.853	0.405	0.195
-330.202	-67.829	-0.799	-0.310
-329.187	-74.279	-0.232	0.083
-328.172	32.751	-0.190	0.164
-327.158	-200.000	-0.112	-1.256
-326.143	527.911	0.208	-0.487
-325.129	59.349	0.430	-0.421
-324.114	175.245	0.179	-0.257
-323.099	31.137	-0.127	0.108
-322.085	57.236	0.142	-0.138
-321.070	787.349	0.449	1.225
-320.056	-150.953	-0.402	-0.030
-319.041	-33.287	0.264	-0.145
-318.026	364.881	0.093	0.186
-317.012	35.297	0.654	-0.569
-315.997	446.145	0.154	0.336
-314.983	-17.615	-0.082	0.051
-313.968	-177.290	0.651	0.016
-312.953	-200.000	-0.030	0.153
-311.939	320.923	0.278	-0.524
-310.924	55.086	0.662	-0.635
-309.910	-84.644	-0.567	0.177
-308.895	320.088	-0.532	-1.003
-307.880	33.952	0.216	0.187
-306.866	800.000	0.091	-0.254
-305.851	-70.297	-0.315	0.119
-304.837	-64.090	0.471	-0.191
-303.822	34.934	-0.251	-0.218
-302.807	369.462	0.109	-0.219
-301.793	-33.343	-0.663	-0.364
-300.778	-200.000	0.061	-0.628
-299.764	-200.000	-0.035	0.238
-298.749	219.218	-0.170	-0.270
-297.735	162.991	0.247	0.345
-296.720	-104.473	-0.786	-0.180
-295.705	-47.495	1.049	-0.506
-294.691	49.615	-0.416	0.389
-293.676	-200.000	0.083	-0.409
-292.662	121.906	0.294	0.364
-291.647	237.269	0.172	-0.283
-290.632	-165.555	0.737	-0.032
-289.618	154.840	0.614	0.837
-288.603	177.328	-0.200	0.290
-287.589	257.797	-0.512	-0.874
-286.574	800.000	-0.102	0.399
-285.559	499.208	-0.134	-0.306
-284.545	-143.025	-0.189	-0.018
-283.530	-200.000	-0.004	0.794
-282.516	-200.000	-0.078	0.362
-281.501	95.288	0.455	-0.514
-280.486	-102.052	0.790	-0.189
-279.472	800.000	-0.152	-0.430
-278.457	-146.588	-0.925	0.080
-277.443	-18.297	0.277	-0.172
-276.428	-200.000	-0.116	0.549
-275.413	-200.000	0.090	1.015
-274.399	800.000	0.181	-0.567
-273.384	286.808	-0.206	0.369
-272.370	-200.000	0.002	-0.755
-271.355	-200.000	0.023	-0.218
-270.340	-181.064	0.598	0.012
-269.326	670.374	-0.403	-1.034
-268.311	-100.964	0.343	0.083
-267.297	-200.000	-0.029	0.237
-266.282	358.058	0.056	0.111
-265.267	366.093	0.036	0.073
-264.253	-14.510	-0.886	0.565
-263.238	-68.554	0.811	-0.311
-262.224	-200.000	0.088	0.531
-261.209	-200.000	-0.084	-0.450
-260.195	800.000	-0.168	-0.510
-259.180	-200.000	0.079	0.412
-258.165	-130.788	-0.512	0.068
-257.151	307.100	0.366	0.676
-256.136	-87.845	0.744	0.222
-255.122	-147.208	-0.546	0.046
-254.107	75.220	0.890	0.930
-253.092	572.641	0.547	1.319
-252.078	800.000	-0.236	0.680
-251.063	134.373	-0.368	0.473
-250.049	104.803	0.259	0.302
-249.034	-36.416	0.257	0.137
-248.019	-93.178	0.984	-0.271
-247.005	800.000	-0.152	-0.556
-245.990	51.091	-0.315	-0.296
-244.976	-154.325	0.131	-0.009
-243.961	-200.000	-0.013	-0.092
-242.946	-200.000	-0.114	0.508
-241.932	489.180	0.102	-0.230
-240.917	800.000	0.097	-0.371
-239.903	-17.945	-0.351	-0.218
-238.888	168.788	0.718	1.014
-237.873	252.578	-0.268	0.452
-236.859	-176.022	-0.812	-0.021
-235.844	-143.696	-0.568	-0.053
-234.830	-20.112	-0.137	0.084
-233.815	-126.256	-0.608	0.090
-232.800	505.794	-0.239	-0.548
-231.786	-74.992	-0.278	0.099
-230.771	460.183	0.118	-0.260
-229.757	697.811	-0.299	-0.778
-228.742	-107.801	-0.491	-0.106
-227.727	-110.959	-0.898	0.183
-226.713	63.785	0.774	-0.770
-225.698	-197.640	-0.198	0.001
-224.684	121.454	-0.123	-0.152
-223.669	800.000	-0.303	-1.207
-222.655	486.614	0.128	0.289
-221.640	-200.000	-0.103	0.459
-220.625	-145.232	-1.049	-0.094
-219.611	-183.130	-0.663	-0.012
-218.596	-102.627	-0.489	0.115
-217.582	241.736	0.550	0.909
-216.567	294.078	-0.181	0.328
-215.552	75.578	-0.481	-0.502
-214.538	313.840	0.176	-0.327
-213.523	437.752	0.070	-0.152
-212.509	-104.849	-0.748	0.170
-211.494	589.764	0.183	-0.447
-210.479	-118.803	-0.931	0.162
-209.465	54.225	-0.364	-0.346
-208.450	241.481	0.376	0.621
-207.436	-200.000	0.054	-0.456
-206.421	-200.000	0.040	-0.549
-205.406	800.000	-0.273	-0.755
-204.392	355.128	0.400	-0.787
-203.377	-27.017	-0.329	0.190
-202.363	-42.481	-0.530	0.267
-201.348	137.196	-0.340	-0.440
-200.333	33.786	0.237	-0.203
-199.319	-200.000	-0.105	0.906
-198.304	-84.466	0.472	0.147
-197.290	-190.827	0.513	0.005
-196.275	137.985	-0.134	-0.174
-195.260	-200.000	0.137	-0.937
-194.246	27.971	-0.307	-0.256
-193.231	151.326	0.489	-0.658
-192.217	260.687	-0.101	-0.172
-191.202	-55.934	0.603	0.266
-190.187	-68.127	0.521	-0.200
-189.173	658.814	0.228	0.580
-188.158	-127.607	0.753	0.108
-187.144	188.543	-0.149	-0.220
-186.129	-86.725	-0.534	-0.161
-185.114	800.000	0.137	0.377
-184.100	411.474	0.255	0.535
-183.085	305.490	0.030	-0.055
-182.071	800.000	-0.088	-0.327
-181.056	-48.124	-0.114	0.054
-180.042	-130.391	-0.604	0.081
-179.027	-175.023	-0.747	-0.021
-178.012	51.955	0.448	0.421
-176.998	-64.066	0.268	-0.108
-175.983	-71.777	0.552	-0.203
-174.969	-200.000	-0.110	0.495
-173.954	-96.653	0.115	0.030
-172.939	69.641	-0.432	0.439
-171.925	69.126	0.556	-0.565
-170.910	-200.000	-0.091	-0.695
-169.896	-200.000	-0.092	-0.484
-168.881	-81.975	0.438	0.141
-167.866	194.464	-0.042	-0.064
-166.852	-200.000	0.008	0.561
-165.837	-13.785	0.464	0.296
-164.823	-145.476	0.539	0.048
-163.808	118.173	0.717	0.873
-162.793	578.247	-0.306	-0.740
-161.779	190.185	-0.548	0.812
-160.764	295.003	0.325	-0.586
-159.750	321.635	-0.214	-0.402
-158.735	-36.510	0.644	-0.342
-157.720	-88.818	-0.222	0.065
-156.706	355.976	-0.422	0.829
-155.691	-160.851	0.148	-0.008
-154.677	294.674	0.239	0.430
-153.662	800.000	-0.146	-0.419
-152.647	-121.659	0.431	0.070
-151.633	-200.000	0.033	0.396
-150.618	-200.000	-0.009	-0.261
-149.604	-93.550	-1.003	-0.274
-148.589	-160.130	-0.491	-0.026
-147.574	-200.000	0.159	-0.842
-146.560	800.000	-0.086	-0.262
-145.545	-200.000	0.035	0.276
-144.531	-200.000	-0.020	-0.603
-143.516	729.388	-0.309	-0.813
-142.502	486.361	-0.326	-0.734
-141.487	-13.567	-0.342	0.218
-140.472	142.867	-0.360	0.472
-139.458	195.996	-0.189	-0.284
-138.443	-151.230	0.725	-0.053
-137.429	45.467	0.522	0.475
-136.414	-140.380	-1.022	-0.105
-135.399	132.002	0.307	-0.389
-134.385	-184.599	0.823	0.013
-133.370	-104.324	0.561	0.128
-132.356	74.440	0.509	0.527
-131.341	184.282	-0.389	-0.567
-130.326	800.000	-0.106	0.387
-129.312	125.434	-0.562	0.699
-128.297	800.000	0.150	-0.490
-127.283	9.816	-0.401	-0.300
-126.268	-200.000	-0.123	-0.578
-125.253	-39.157	0.929	-0.481
-124.239	2.234	-0.241	0.172
-123.224	26.002	-0.259	0.213
-122.210	-178.666	-0.597	-0.014
-121.195	800.000	0.084	0.333
-120.180	2.407	1.072	0.765
-119.166	631.599	-0.190	-0.474
-118.151	283.376	0.464	-0.822
-117.137	-200.000	0.145	-0.904
-116.122	-200.000	0.082	-0.403
-115.107	-200.000	-0.003	0.017
-114.093	-167.720	0.195	0.008
-113.078	800.000	-0.043	-0.120
-112.064	-46.691	-0.534	0.258
-111.049	-200.000	-0.209	0.922
-110.034	15.664	-0.666	-0.516
-109.020	-87.271	-0.510	0.153
-108.005	27.538	-0.150	0.124
-106.991	-200.000	0.028	-0.308
-105.976	-200.000	0.002	-0.813
-104.962	-101.454	-0.917	-0.220
-103.947	-21.092	0.417	0.251
-102.932	-36.699	0.209	0.111
-101.918	-8.382	0.536	0.355
-100.903	254.275	0.550	-0.927
-99.889	129.889	-0.594	-0.748
-98.874	-38.024	-0.528	-0.276
-97.859	215.506	-0.136	-0.213
-96.845	210.409	0.129	-0.199
-95.830	-133.170	-0.102	0.013
-94.816	-101.003	-0.313	0.076
-93.801	-89.140	0.655	0.190
-92.786	98.959	-0.204	-0.232
-91.772	800.000	-0.148	0.464
-90.757	-200.000	-0.033	-0.679
-89.743	23.068	-0.520	-0.420
-88.728	-7.451	0.320	-0.213
-87.713	-200.000	0.098	0.789
-86.699	-83.528	0.561	0.177
-85.684	75.520	0.251	-0.261
-84.670	49.773	-0.487	-0.452
-83.655	-36.854	0.502	-0.265
-82.640	-156.320	-1.011	-0.062
-81.626	-200.000	-0.117	0.535
-80.611	340.982	0.091	-0.175
-79.597	283.891	-0.314	0.555
-78.582	69.523	-0.103	-0.105
-77.567	146.318	-0.121	-0.160
-76.553	-40.604	-0.232	0.118
-75.538	-94.433	-0.306	-0.082
-74.524	176.403	0.132	0.189
-73.509	-26.482	0.239	0.138
-72.494	800.000	-0.364	-1.351
-71.480	-68.910	0.427	-0.162
-70.465	7.728	-0.227	0.168
-69.451	800.000	-0.250	-0.687
-68.436	-68.229	-0.941	0.360
-67.422	-200.000	-0.001	0.175
-66.407	-200.000	0.012	0.531
-65.392	136.794	0.272	0.349
-64.378	-39.190	-0.541	-0.280
-63.363	26.966	-0.175	0.144
-62.349	800.000	-0.012	0.037
-61.334	-112.556	-2.263	-0.444
-60.319	103.684	0.669	0.773
-59.305	-200.000	0.199	-1.060
-58.290	-48.485	1.033	0.489
-57.276	173.399	1.278	1.812
-56.261	-200.000	95.663	575.876
-55.246	647.110	1367.637	3435.228
-54.232	200.111	2542.983	3838.197
-53.217	112.413	2254.402	2680.550
-52.203	42.540	1883.878	1684.676
-51.188	36.364	1675.971	1452.419
-50.173	33.960	1630.713	1395.518
-49.159	52.395	1680.513	1575.866
-48.144	52.943	1696.025	1594.424
-47.130	35.859	1657.262	1432.215
-46.115	33.362	1642.313	1400.795
-45.100	33.097	1636.918	1394.188
-44.086	33.175	1633.338	1391.657
-43.071	32.799	1632.360	1387.999
-42.057	33.028	1629.702	1387.370
-41.042	32.963	1626.130	1383.797
-40.027	32.999	1626.388	1384.220
-39.013	32.936	1623.579	1381.318
-37.998	33.063	1622.723	1381.459
-36.984	33.012	1622.061	1380.471
-35.969	33.147	1618.683	1378.527
-34.954	33.171	1617.782	1377.880
-33.940	33.115	1616.322	1376.176
-32.925	33.049	1614.221	1373.845
-31.911	33.299	1611.562	1373.342
-30.896	33.084	1610.637	1370.945
-29.881	33.364	1607.524	1370.267
-28.867	33.201	1606.828	1368.441
-27.852	33.254	1607.314	1369.179
-26.838	32.951	1605.020	1364.981
-25.823	33.285	1602.929	1365.559
-24.809	33.226	1602.325	1364.566
-23.794	33.374	1599.606	1363.263
-22.779	33.117	1598.737	1360.623
-21.765	33.193	1597.546	1360.099
-20.750	33.093	1595.779	1357.822
-19.736	33.360	1594.363	1358.482
-18.721	33.206	1593.229	1356.355
-17.706	33.048	1593.015	1354.985
-16.692	33.230	1590.165	1353.813
-15.677	33.306	1589.298	1353.560
-14.663	33.520	1586.515	1352.666
-13.648	33.215	1585.527	1349.594
-12.633	33.194	1584.906	1348.861
-11.619	33.330	1582.305	1347.564
-10.604	33.184	1581.647	1345.911
-9.590	33.323	1579.774	1345.249
-8.575	33.252	1578.396	1343.519
-7.560	33.224	1578.022	1342.949
-6.546	33.100	1577.037	1341.178
-5.531	33.195	1574.919	1340.001
-4.517	33.084	1574.689	1338.959
-3.502	33.103	1573.120	1337.710
-2.487	33.225	1571.074	1336.777
-1.473	32.722	1560.952	1324.582
-0.458	30.084	1539.676	1288.168
0.556	27.409	1539.800	1255.256
1.571	24.813	1561.743	1254.852
2.586	24.146	1574.637	1260.378
3.600	21.567	1522.403	1200.793
4.615	12.473	1412.471	1055.841
5.629	4.510	1349.344	959.542
6.644	2.943	1340.901	943.832
7.659	2.808	1340.283	942.484
8.673	3.214	1336.859	942.481
9.688	2.836	1336.151	939.586
10.702	2.570	1333.774	936.203
11.717	6.211	1340.074	962.864
12.731	15.752	1357.277	1034.055
13.746	23.355	1369.675	1090.392
14.761	25.082	1372.147	1102.898
15.775	25.395	1371.245	1104.001
16.790	25.297	1371.597	1103.581
17.804	25.407	1370.958	1103.645
18.819	25.696	1370.711	1105.125
19.834	25.940	1369.894	1105.867
20.848	25.889	1369.933	1105.484
21.863	25.918	1368.453	1104.371
22.877	25.955	1366.936	1103.273
23.892	25.940	1366.446	1102.690
24.907	25.927	1366.245	1102.349
25.921	26.008	1364.532	1101.369
26.936	25.594	1364.108	1098.402
27.950	25.962	1362.482	1099.237
28.965	26.034	1361.919	1099.124
29.980	26.133	1359.679	1097.821
30.994	26.337	1358.573	1098.068
32.009	25.983	1357.624	1095.058
33.023	25.979	1357.319	1094.688
34.038	26.112	1356.046	1094.371
35.053	26.114	1354.559	1093.085
36.067	25.977	1354.023	1091.730
37.082	25.999	1353.287	1091.175
38.096	25.841	1351.398	1088.598
39.111	26.026	1351.326	1089.560
40.126	26.002	1350.981	1089.044
41.140	26.153	1349.408	1088.586
42.155	25.960	1350.259	1088.013
43.169	26.169	1348.378	1087.662
44.184	26.088	1348.929	1087.519
45.199	26.133	1348.028	1086.968
46.213	26.213	1348.753	1087.938
47.228	26.413	1346.391	1087.139
48.242	25.917	1346.518	1084.163
49.257	26.004	1345.369	1083.665
50.271	25.805	1344.226	1081.457
51.286	25.884	1342.978	1080.826
52.301	26.034	1340.760	1079.844
53.315	25.989	1340.879	1079.575
54.330	25.953	1339.793	1078.390
55.344	26.023	1338.762	1077.887
56.359	26.092	1337.154	1076.907
57.374	26.106	1336.282	1076.195
58.388	26.283	1334.986	1076.107
59.403	26.037	1334.489	1074.148
60.417	26.150	1333.937	1074.282
61.432	26.070	1333.956	1073.727
62.447	26.058	1332.730	1072.573
63.461	26.182	1331.308	1072.066
64.476	26.449	1329.414	1072.030
65.490	25.948	1330.340	1069.713
66.505	26.255	1327.526	1069.173
67.520	26.108	1327.034	1067.813
68.534	26.330	1325.286	1067.620
69.549	26.398	1324.332	1067.160
70.563	26.323	1322.996	1065.546
71.578	26.189	1321.892	1063.771
72.593	26.237	1321.574	1063.706
73.607	26.130	1321.561	1062.969
74.622	26.057	1320.135	1061.302
75.636	26.238	1319.842	1062.036
76.651	26.166	1319.203	1061.007
77.666	26.133	1318.378	1060.056
78.680	26.090	1318.036	1059.434
79.695	26.102	1317.515	1058.991
80.709	26.316	1315.616	1058.623
81.724	26.249	1315.011	1057.648
82.739	26.283	1314.019	1056.960
83.753	26.368	1312.762	1056.352
84.768	26.493	1312.081	1056.439
85.782	26.392	1311.478	1055.270
86.797	26.501	1308.608	1053.501
87.812	26.234	1308.752	1051.969
88.826	26.091	1307.720	1050.216
89.841	26.292	1305.633	1049.614
90.855	26.217	1305.493	1048.973
91.870	26.107	1304.394	1047.357
92.884	26.494	1302.683	1048.137
93.899	26.371	1303.008	1047.592
94.914	26.459	1300.753	1046.194
95.928	26.525	1300.579	1046.343
96.943	26.268	1300.295	1044.535
97.957	26.295	1300.004	1044.365
98.972	26.609	1297.747	1044.273
99.987	26.470	1297.000	1042.776
101.001	26.558	1296.120	1042.488
102.016	26.483	1295.360	1041.351
103.030	26.346	1294.542	1039.810
104.045	26.432	1294.066	1039.830
105.060	26.335	1292.695	1038.079
106.074	26.513	1291.416	1037.986
107.089	26.620	1289.776	1037.184
108.103	26.575	1289.164	1036.347
109.118	26.490	1288.582	1035.300
110.133	26.500	1287.785	1034.622
111.147	26.349	1286.641	1032.753
112.162	26.660	1284.446	1032.673
113.176	26.248	1284.113	1029.962
114.191	26.373	1282.906	1029.617
115.206	26.602	1281.881	1030.008
116.220	26.661	1280.897	1029.460
117.235	26.514	1279.718	1027.585
118.249	26.453	1278.904	1026.496
119.264	26.446	1278.367	1025.931
120.279	26.267	1277.871	1024.432
121.293	26.620	1276.606	1025.323
122.308	26.683	1275.324	1024.559
123.322	26.633	1274.712	1023.696
124.337	26.389	1273.991	1021.646
125.352	26.759	1272.135	1022.154
126.366	26.608	1271.823	1020.964
127.381	26.727	1270.093	1020.156
128.395	26.470	1269.720	1018.316
129.410	26.769	1268.821	1019.190
130.424	26.582	1268.334	1017.655
131.439	26.575	1267.540	1016.888
132.454	26.633	1266.306	1016.132
133.468	26.714	1264.787	1015.282
134.483	26.852	1264.812	1015.981
135.497	26.845	1264.113	1015.291
136.512	26.561	1263.366	1013.014
137.527	26.579	1262.496	1012.328
138.541	26.556	1259.822	1009.965
139.556	26.611	1260.184	1010.471
140.570	26.594	1258.973	1009.319
141.585	26.624	1257.426	1008.156
142.600	26.423	1256.682	1006.350
143.614	26.615	1256.181	1006.930
144.629	26.847	1254.544	1006.813
145.643	26.500	1253.300	1003.803
146.658	26.564	1253.652	1004.349
147.673	26.864	1251.099	1003.875
148.687	26.587	1251.269	1002.390
149.702	26.497	1250.314	1001.037
150.716	26.868	1248.311	1001.396
151.731	26.418	1248.430	998.916
152.746	26.516	1246.871	998.124
153.760	26.618	1246.258	998.109
154.775	26.544	1244.181	995.950
155.789	26.542	1243.483	995.290
156.804	26.509	1243.987	995.422
157.819	26.699	1242.606	995.276
158.833	26.874	1241.089	994.932
159.848	26.815	1240.679	994.191
160.862	26.769	1239.076	992.566
161.877	26.980	1239.091	993.648
162.892	26.935	1237.862	992.329
163.906	26.835	1236.313	990.453
164.921	26.586	1236.858	989.440
165.935	26.811	1235.877	989.797
166.950	26.853	1235.581	989.699
167.964	27.045	1234.143	989.506
168.979	26.967	1233.177	988.220
169.994	27.076	1233.351	988.865
171.008	27.017	1231.993	987.371
172.023	26.856	1230.894	985.523
173.037	26.797	1230.376	984.705
174.052	26.765	1230.852	984.821
175.067	27.223	1229.108	985.823
176.081	26.959	1228.410	983.744
177.096	26.987	1228.728	984.064
178.110	26.800	1227.543	982.016
179.125	27.086	1225.798	982.079
180.140	26.997	1224.766	980.687
181.154	27.004	1224.301	980.264
182.169	26.779	1223.834	978.588
183.183	26.943	1222.833	978.588
184.198	26.973	1221.425	977.534
185.213	26.925	1220.252	976.253
186.227	26.658	1220.572	974.986
187.242	26.908	1218.444	974.542
188.256	26.906	1217.460	973.658
189.271	27.424	1216.225	975.359
190.286	27.124	1215.419	973.019
191.300	27.263	1215.287	973.571
192.315	26.895	1216.028	972.110
193.329	27.017	1215.087	971.921
194.344	26.942	1214.258	970.773
195.359	26.973	1213.859	970.532
196.373	26.996	1213.769	970.500
197.388	27.311	1211.992	970.674
198.402	27.029	1211.943	969.042
199.417	27.142	1211.339	969.079
200.432	27.249	1210.432	968.837
201.446	26.863	1211.061	967.195
202.461	27.088	1210.438	967.814
203.475	27.304	1208.544	967.363
204.490	26.891	1208.398	964.964
205.504	27.272	1206.391	965.296
206.519	26.951	1206.384	963.502
207.534	27.159	1205.010	963.422
208.548	27.201	1203.812	962.600
209.563	26.856	1203.858	960.728
210.577	27.019	1203.929	961.559
211.592	27.121	1201.750	960.277
212.607	27.121	1201.238	959.781
213.621	27.083	1199.981	958.490
214.636	27.202	1199.620	958.745
215.650	27.280	1198.543	958.213
216.665	27.220	1197.779	957.198
217.680	27.263	1196.171	956.054
218.694	27.393	1195.259	955.927
219.709	27.160	1195.846	955.084
220.723	27.275	1195.805	955.572
221.738	27.061	1194.331	953.188
222.753	27.098	1194.293	953.267
223.767	26.959	1193.447	951.776
224.782	27.247	1191.909	951.976
225.796	27.293	1191.059	951.455
226.811	27.491	1191.430	952.702
227.826	27.288	1190.954	951.176
228.840	27.217	1189.847	949.834
229.855	27.022	1190.048	948.893
230.869	27.052	1189.417	948.463
231.884	27.212	1188.625	948.580
232.899	26.951	1187.546	946.275
233.913	27.123	1187.271	946.872
234.928	27.501	1185.728	947.521
235.942	27.149	1186.378	946.123
236.957	27.487	1184.249	946.100
237.972	27.221	1184.993	945.227
238.986	27.010	1184.024	943.273
240.001	27.336	1182.540	943.700
241.015	27.436	1182.269	943.917
242.030	27.284	1181.782	942.661
243.045	27.303	1181.059	942.100
244.059	27.343	1180.339	941.647
245.074	27.329	1180.144	941.336
246.088	27.426	1178.526	940.462
247.103	27.153	1179.118	939.441
248.117	27.437	1178.063	939.982
249.132	27.434	1176.211	938.407
250.147	27.346	1175.925	937.640
251.161	27.588	1174.653	937.792
252.176	27.565	1173.672	936.809
253.190	27.445	1173.322	935.827
254.205	27.594	1172.407	935.777
255.220	27.259	1173.352	934.729
256.234	27.318	1172.710	934.436
257.249	27.244	1172.326	933.670
258.263	27.817	1170.319	934.925
259.278	27.428	1170.257	932.800
260.293	27.277	1169.622	931.436
261.307	27.587	1169.113	932.538
262.322	27.321	1169.214	931.175
263.336	27.379	1167.881	930.324
264.351	27.594	1166.566	930.294
265.366	27.500	1165.858	929.169
266.380	27.666	1166.043	930.076
267.395	27.326	1164.896	927.347
268.409	27.188	1165.056	926.690
269.424	27.532	1163.655	927.247
270.439	27.486	1163.260	926.617
271.453	27.251	1164.177	926.066
272.468	27.494	1161.436	925.041
273.482	27.488	1161.045	924.615
274.497	27.454	1160.785	924.153
275.512	27.176	1160.967	922.805
276.526	27.122	1160.320	921.936
277.541	27.534	1158.896	922.808
278.555	27.477	1158.565	922.175
279.570	27.669	1157.636	922.325
280.585	27.408	1157.341	920.691
281.599	27.684	1154.932	920.083
282.614	27.529	1154.702	919.039
283.628	27.685	1154.392	919.497
284.643	27.461	1153.616	917.671
285.657	27.545	1152.274	916.943
286.672	27.616	1151.748	916.801
287.687	27.663	1150.514	915.975
288.701	27.854	1149.421	915.979
289.716	27.461	1148.735	913.381
290.730	27.524	1149.171	913.965
291.745	27.755	1148.058	914.156
292.760	27.297	1147.856	911.618
293.774	27.282	1147.388	911.091
294.789	27.689	1146.741	912.535
295.803	27.418	1146.420	910.841
296.818	27.213	1146.382	909.705
297.833	27.706	1144.413	910.522
298.847	27.299	1144.890	908.789
299.862	27.731	1143.404	909.682
300.876	27.925	1142.219	909.628
301.891	27.474	1142.316	907.378
302.906	27.730	1141.197	907.682
303.920	27.520	1140.679	906.144
304.935	27.604	1140.419	906.276
305.949	27.584	1139.233	905.155
306.964	27.838	1137.689	905.108
307.979	27.749	1137.673	904.573
308.993	27.766	1137.747	904.637
310.008	27.462	1136.831	902.321
311.022	27.530	1136.448	902.276
312.037	27.561	1135.653	901.716
313.052	27.786	1134.945	902.187
314.066	27.540	1133.768	899.958
315.081	27.581	1133.553	899.912
316.095	27.342	1132.937	898.164
317.110	27.411	1132.032	897.706
318.125	27.757	1131.732	899.093
319.139	27.590	1130.339	897.085
320.154	27.734	1129.901	897.365
321.168	27.372	1130.014	895.597
322.183	27.505	1128.987	895.357
323.197	27.641	1127.983	895.149
324.212	27.623	1127.876	894.898
325.227	27.793	1127.269	895.166
326.241	27.606	1126.993	893.951
327.256	27.739	1125.733	893.529
328.270	27.880	1124.279	892.983
329.285	27.494	1124.540	891.222
330.300	27.563	1124.144	891.166
331.314	27.725	1122.230	890.360
332.329	27.321	1122.322	888.386
333.343	27.608	1120.694	888.414
334.358	27.851	1120.091	889.044
335.373	27.904	1119.261	888.562
336.387	27.616	1119.027	886.897
337.402	28.066	1116.908	887.324
338.416	27.736	1117.815	886.362
339.431	27.664	1117.394	885.603
340.446	27.513	1116.884	884.385
341.460	27.852	1115.006	884.463
342.475	27.477	1114.680	882.308
343.489	27.860	1113.201	882.915
344.504	27.785	1113.402	882.632
345.519	27.763	1112.393	881.647
346.533	27.832	1111.602	881.274
347.548	27.595	1111.313	879.825
348.562	27.392	1110.780	878.347
349.577	27.571	1109.887	878.423
350.592	27.652	1108.935	877.981
351.606	27.691	1108.484	877.738
352.621	27.809	1107.169	877.186
353.635	27.660	1106.769	876.076
354.650	27.613	1106.443	875.513
355.665	27.792	1105.161	875.281
356.679	27.653	1105.870	875.094
357.694	27.620	1104.790	874.008
358.708	27.341	1105.180	872.897
359.723	27.321	1104.471	872.166
360.738	27.612	1102.213	871.698
361.752	27.543	1102.227	871.303
362.767	27.861	1101.598	872.248
363.781	27.628	1101.412	870.908
364.796	27.799	1100.154	870.653
365.810	27.810	1100.276	870.727
366.825	27.963	1099.183	870.511
367.840	27.741	1098.291	868.674
368.854	27.821	1098.041	868.778
369.869	27.623	1097.005	866.940
370.883	27.656	1095.730	866.013
371.898	27.699	1095.555	866.001
372.913	27.830	1095.185	866.253
373.927	27.680	1094.496	864.922
374.942	28.022	1093.975	866.054
375.956	27.783	1092.885	863.984
376.971	27.779	1093.480	864.359
377.986	27.514	1092.973	862.626
379.000	27.767	1092.210	863.146
380.015	27.795	1091.134	862.351
381.029	27.644	1090.621	861.157
382.044	27.555	1090.288	860.395
383.059	27.661	1089.826	860.453
384.073	27.650	1088.645	859.393
385.088	27.674	1087.999	858.922
386.102	27.748	1086.658	858.138
387.117	27.802	1085.936	857.741
388.132	27.646	1085.847	856.865
389.146	27.414	1084.807	854.880
390.161	27.619	1084.477	855.505
391.175	27.749	1083.276	855.092
392.190	27.835	1081.859	854.301
393.205	27.623	1082.273	853.556
394.219	27.632	1081.426	852.858
395.234	27.704	1079.870	851.892
396.248	27.727	1079.532	851.657
397.263	27.711	1077.976	850.276
398.278	27.982	1077.228	850.874
399.292	27.520	1077.835	849.128
400.307	27.615	1076.669	848.573
401.321	27.863	1076.871	849.812
402.336	27.699	1075.448	847.854
403.350	27.782	1074.763	847.623
404.365	27.570	1074.161	846.091
405.380	27.696	1073.517	846.093
406.394	27.299	1073.174	843.904
407.409	27.576	1072.189	844.340
408.423	27.651	1072.003	844.468
409.438	27.635	1071.021	843.541
410.453	27.706	1070.332	843.253
411.467	27.680	1069.174	842.150
412.482	27.728	1068.474	841.742
413.496	27.506	1068.435	840.614
414.511	27.353	1068.291	839.721
415.526	27.845	1066.596	840.580
416.540	27.625	1066.029	839.047
417.555	27.802	1065.433	839.315
418.569	27.894	1064.941	839.277
419.584	27.785	1064.648	838.474
420.599	27.718	1063.608	837.269
421.613	152.418	1403.999	1791.832
422.628	140.166	1453.568	1791.908
