DTS Sentinel unit serial number:	SN413079Multiplexer serial number:	ORYXHardware model number:	OX4-SRSoftware version number:	ORYX F/W v4.00 Oryx Data Collector v3.7.2.0data status	okinstallation	princeton_trtdifferential loss correction	single-endedforward channel	channel 2reverse channel	N/Adate	2019/09/15time	01:55:34forward acquisition time	60.00reverse acquisition time	0.00gamma	496.2192k internal	0.2325k external	0.2325temperature offset calibration	1.0034default loss term (dB/km)	0.3790temperature slope calibration	1.0000multiplexer offset coefficient	1.0000multiplexer slope coefficient	1.0000fibre end	0.00T internal ref (°C)	31.77T ext. ref 1 (°C)	4.53T ext. ref 2 (°C)	26.70length (m)	temperature (°C)	Stokes	anti-Stokes-747.200	-60.342	0.124	-0.053
-746.185	-143.361	-0.232	-0.022
-745.171	-113.753	0.097	-0.019
-744.156	-23.254	-0.076	0.046
-743.142	198.143	0.042	-0.065
-742.127	800.000	-0.041	-0.115
-741.112	210.089	-0.221	-0.350
-740.098	800.000	0.005	-0.021
-739.083	564.130	-0.031	0.076
-738.069	800.000	0.057	0.243
-737.054	54.159	0.067	0.065
-736.039	596.131	-0.096	-0.241
-735.025	-65.770	0.319	-0.129
-734.010	-149.048	0.421	-0.034
-732.996	-127.019	-0.335	-0.050
-731.981	-157.605	0.345	0.021
-730.966	-101.947	-0.331	-0.081
-729.952	-157.999	-0.062	-0.004
-728.937	-73.740	0.139	-0.051
-727.923	-200.000	0.010	-0.112
-726.908	-200.000	0.044	-0.461
-725.894	-72.173	-0.321	-0.120
-724.879	800.000	0.149	-0.436
-723.864	800.000	0.107	0.329
-722.850	-4.619	-0.248	0.172
-721.835	-200.000	0.002	-0.287
-720.821	-51.040	-0.219	0.104
-719.806	73.553	0.226	0.238
-718.791	201.179	-0.037	-0.058
-717.777	126.456	-0.224	-0.286
-716.762	-51.349	0.068	-0.032
-715.748	371.349	0.147	-0.300
-714.733	584.784	0.122	-0.302
-713.718	-110.869	-0.256	-0.053
-712.704	336.988	0.062	0.122
-711.689	-200.000	0.011	-0.189
-710.675	-158.915	-0.184	0.011
-709.660	12.425	-0.038	0.030
-708.645	-72.132	0.114	0.043
-707.631	-200.000	0.002	0.097
-706.616	-200.000	-0.004	-0.167
-705.602	-97.686	0.198	0.052
-704.587	166.150	-0.045	-0.064
-703.572	54.728	0.238	0.231
-702.558	800.000	0.047	0.173
-701.543	-115.956	0.058	0.011
-700.529	20.007	-0.111	0.090
-699.514	-122.517	-0.299	0.049
-698.499	244.852	-0.112	-0.190
-697.485	61.000	0.097	-0.097
-696.470	217.245	-0.192	0.308
-695.456	-68.032	-0.393	0.154
-694.441	-200.000	-0.034	-0.299
-693.426	445.348	-0.121	0.267
-692.412	-127.662	-0.250	-0.036
-691.397	200.143	0.138	-0.213
-690.383	-200.000	-0.029	-0.171
-689.368	-92.001	-0.272	-0.077
-688.354	-200.000	-0.032	-0.183
-687.339	-187.056	-0.183	0.003
-686.324	204.186	-0.110	-0.172
-685.310	-15.516	-0.041	-0.026
-684.295	800.000	0.127	-0.385
-683.281	-3.411	0.189	-0.132
-682.266	-39.602	0.181	-0.095
-681.251	102.232	-0.374	-0.440
-680.237	-163.557	-0.181	-0.009
-679.222	-126.952	0.058	0.009
-678.208	-109.300	-0.045	-0.010
-677.193	800.000	0.059	-0.252
-676.178	-109.170	0.059	0.013
-675.164	-97.427	0.262	-0.069
-674.149	-170.001	-0.045	0.002
-673.135	-161.164	-0.299	-0.016
-672.120	40.505	0.084	-0.076
-671.105	-99.621	-0.013	-0.003
-670.091	-200.000	-0.013	0.377
-669.076	167.232	-0.113	-0.161
-668.062	-200.000	0.002	-0.084
-667.047	-113.812	-0.323	-0.063
-666.032	67.268	-0.013	0.013
-665.018	-20.741	-0.244	-0.150
-664.003	636.765	-0.072	-0.185
-662.989	-166.496	0.141	-0.006
-661.974	48.112	-0.037	0.035
-660.959	122.488	0.111	-0.139
-659.945	800.000	0.082	0.247
-658.930	-14.377	-0.251	-0.163
-657.916	-49.659	0.121	-0.058
-656.901	114.644	0.114	0.139
-655.886	-158.637	0.251	0.015
-654.872	800.000	0.014	0.054
-653.857	800.000	0.048	-0.169
-652.843	800.000	-0.040	-0.144
-651.828	151.971	0.213	-0.292
-650.814	134.052	0.093	-0.121
-649.799	-154.369	-0.055	0.004
-648.784	-41.550	-0.083	-0.043
-647.770	-34.658	0.071	-0.039
-646.755	72.988	-0.171	-0.180
-645.741	130.902	0.178	-0.230
-644.726	81.842	0.090	0.098
-643.711	-85.371	0.173	0.054
-642.697	781.679	0.034	0.094
-641.682	800.000	-0.125	0.355
-640.668	237.025	-0.063	-0.105
-639.653	-126.302	-0.190	-0.028
-638.638	800.000	0.043	0.154
-637.624	434.198	-0.222	-0.484
-636.609	261.012	0.072	-0.126
-635.595	-151.969	-0.125	-0.009
-634.580	286.838	-0.036	0.065
-633.565	-83.149	0.328	0.106
-632.551	-138.708	-0.119	0.013
-631.536	476.337	-0.066	0.150
-630.522	-200.000	-0.035	-0.226
-629.507	126.623	0.138	-0.176
-628.492	-95.237	0.140	-0.038
-627.478	-88.528	-0.208	-0.062
-626.463	-124.023	-0.099	-0.016
-625.449	-85.912	0.295	-0.092
-624.434	-200.000	-0.009	-0.148
-623.419	92.697	0.072	0.081
-622.405	-200.000	0.043	-0.269
-621.390	-3.025	0.337	-0.236
-620.376	-68.391	-0.163	0.063
-619.361	-200.000	0.015	-0.078
-618.346	19.289	0.249	-0.201
-617.332	-40.414	-0.516	0.269
-616.317	-200.000	-0.062	0.434
-615.303	-77.909	-0.209	-0.073
-614.288	800.000	0.003	0.013
-613.273	800.000	-0.064	0.264
-612.259	-45.225	0.115	0.057
-611.244	-169.859	0.226	-0.008
-610.230	800.000	-0.074	0.269
-609.215	177.196	-0.060	-0.087
-608.201	-51.663	-0.178	0.083
-607.186	105.994	-0.118	0.140
-606.171	-200.000	0.002	0.066
-605.157	-120.466	0.197	0.034
-604.142	49.651	0.237	-0.224
-603.128	-200.000	0.043	0.229
-602.113	12.786	-0.081	-0.063
-601.098	-83.575	-0.245	0.079
-600.084	-200.000	0.003	-0.171
-599.069	42.019	-0.240	0.219
-598.055	-200.000	-0.001	0.241
-597.040	-59.768	-0.131	0.056
-596.025	-200.000	-0.004	-0.140
-595.011	-5.416	-0.053	-0.036
-593.996	-75.713	-0.290	0.103
-592.982	31.860	-0.087	0.075
-591.967	-35.830	0.089	0.049
-590.952	-20.346	-0.190	0.117
-589.938	-200.000	0.016	-0.329
-588.923	800.000	-0.009	-0.030
-587.909	94.639	-0.203	0.232
-586.894	28.497	0.211	0.179
-585.879	285.342	-0.165	0.298
-584.865	182.726	0.119	0.176
-583.850	225.908	0.064	-0.104
-582.836	65.866	-0.092	-0.094
-581.821	287.384	-0.052	-0.094
-580.806	-145.025	0.146	-0.013
-579.792	21.522	-0.217	-0.177
-578.777	-3.050	0.306	0.214
-577.763	494.556	-0.140	-0.322
-576.748	-200.000	0.048	0.369
-575.733	-129.376	-0.266	0.037
-574.719	-95.824	0.220	-0.059
-573.704	20.503	-0.257	-0.208
-572.690	-200.000	0.009	-0.217
-571.675	112.660	0.043	-0.052
-570.661	8.121	-0.137	0.103
-569.646	-200.000	-0.000	-0.144
-568.631	-200.000	0.014	0.133
-567.617	71.895	0.087	-0.090
-566.602	-93.480	0.104	0.029
-565.588	-117.055	0.243	0.044
-564.573	800.000	-0.096	-0.372
-563.558	800.000	0.057	-0.186
-562.544	241.358	-0.090	0.150
-561.529	-190.827	-0.323	0.003
-560.515	800.000	-0.036	0.102
-559.500	-19.593	0.025	0.015
-558.485	138.418	0.211	-0.277
-557.471	-59.873	-0.262	0.112
-556.456	-54.179	0.224	-0.102
-555.442	-27.478	-0.065	-0.038
-554.427	78.515	-0.102	-0.109
-553.412	-122.089	-0.224	-0.037
-552.398	-200.000	0.007	0.301
-551.383	120.119	-0.269	-0.334
-550.369	-23.979	-0.196	-0.117
-549.354	84.374	-0.097	-0.106
-548.339	800.000	-0.106	-0.420
-547.325	374.536	-0.088	-0.179
-546.310	-66.190	-0.127	0.051
-545.296	-95.878	-0.230	0.061
-544.281	273.298	0.058	0.102
-543.266	-96.522	0.185	0.049
-542.252	-36.746	0.257	0.138
-541.237	-64.034	-0.128	-0.052
-540.223	50.275	-0.218	0.206
-539.208	800.000	-0.061	-0.194
-538.193	-141.223	-0.079	-0.008
-537.179	-200.000	0.025	-0.228
-536.164	418.721	0.129	0.276
-535.150	36.741	-0.253	0.224
-534.135	-25.866	-0.184	-0.109
-533.121	-14.966	0.262	-0.168
-532.106	-54.137	0.060	-0.027
-531.091	111.732	0.168	-0.203
-530.077	389.604	-0.094	-0.194
-529.062	39.715	0.281	0.252
-528.048	250.607	0.114	-0.194
-527.033	265.604	-0.153	0.267
-526.018	110.048	0.453	0.544
-525.004	139.440	-0.106	-0.139
-523.989	-66.342	0.217	-0.086
-522.975	-21.975	-0.158	0.096
-521.960	-197.405	0.236	0.001
-520.945	-200.000	0.038	0.350
-519.931	-101.393	-0.154	0.038
-518.916	254.514	0.075	-0.129
-517.902	158.832	0.241	-0.335
-516.887	294.201	0.172	0.315
-515.872	-200.000	0.051	-0.252
-514.858	785.280	-0.061	-0.166
-513.843	-64.075	-0.085	0.035
-512.829	-72.539	-0.163	0.060
-511.814	227.703	0.138	-0.225
-510.799	-93.166	0.237	-0.066
-509.785	40.073	-0.273	-0.245
-508.770	-80.446	0.177	0.059
-507.756	37.697	0.124	-0.110
-506.741	-15.270	-0.067	-0.043
-505.726	-52.636	-0.273	0.126
-504.712	-113.935	0.229	0.044
-503.697	174.564	-0.144	0.208
-502.683	-68.787	0.183	-0.071
-501.668	-163.053	-0.141	-0.007
-500.653	-111.518	0.122	-0.025
-499.639	800.000	-0.097	-0.326
-498.624	203.002	-0.151	-0.233
-497.610	800.000	-0.049	0.148
-496.595	66.323	0.351	0.356
-495.581	-200.000	-0.032	-0.211
-494.566	-145.556	0.129	0.012
-493.551	-14.214	-0.038	-0.025
-492.537	-26.103	0.140	0.082
-491.522	-26.278	0.228	0.133
-490.508	23.910	-0.066	-0.054
-489.493	-96.602	-0.178	0.047
-488.478	70.446	0.315	-0.326
-487.464	9.038	-0.138	0.104
-486.449	196.656	0.166	0.252
-485.435	-23.650	0.321	0.192
-484.420	-105.112	-0.197	-0.045
-483.405	-51.369	0.253	0.118
-482.391	483.513	0.137	0.312
-481.376	12.751	0.238	0.184
-480.362	-102.751	-0.214	-0.051
-479.347	78.876	0.146	-0.156
-478.332	105.829	0.057	0.067
-477.318	609.752	-0.097	-0.242
-476.303	-3.344	0.149	0.104
-475.289	314.219	0.214	0.402
-474.274	583.342	0.041	0.100
-473.259	-14.884	0.245	-0.157
-472.245	-70.263	-0.263	0.100
-471.230	800.000	-0.122	0.385
-470.216	117.071	-0.085	0.104
-469.201	-200.000	0.018	-0.382
-468.186	-200.000	-0.033	-0.219
-467.172	3.360	-0.384	-0.279
-466.157	-200.000	-0.011	0.204
-465.143	1.896	-0.216	-0.155
-464.128	-60.523	0.154	-0.065
-463.113	574.041	-0.172	-0.418
-462.099	203.523	0.189	0.292
-461.084	35.554	0.139	0.122
-460.070	800.000	-0.061	0.258
-459.055	-0.899	0.297	-0.210
-458.040	-27.918	-0.072	0.041
-457.026	-53.928	0.185	-0.084
-456.011	-94.431	0.197	-0.054
-454.997	337.518	-0.075	-0.145
-453.982	600.891	-0.054	-0.134
-452.968	-200.000	-0.037	0.319
-451.953	-115.516	-0.433	0.081
-450.938	40.343	0.247	0.222
-449.924	-151.176	0.180	-0.013
-448.909	402.046	0.064	-0.134
-447.895	-118.266	0.213	0.038
-446.880	-35.719	0.023	-0.013
-445.865	85.714	-0.072	-0.079
-444.851	184.286	-0.280	0.414
-443.836	-4.872	0.226	-0.155
-442.822	800.000	0.100	0.285
-441.807	-86.884	0.367	0.112
-440.792	86.843	-0.099	-0.109
-439.778	-200.000	0.002	0.390
-438.763	-12.785	0.286	0.186
-437.749	-98.093	-0.296	-0.076
-436.734	466.716	-0.123	-0.274
-435.719	-138.940	0.255	0.028
-434.705	-200.000	-0.014	-0.066
-433.690	174.609	-0.112	-0.162
-432.676	266.443	-0.043	0.075
-431.661	-45.123	0.141	-0.070
-430.646	800.000	0.037	-0.147
-429.632	-200.000	-0.008	0.085
-428.617	-129.109	-0.162	0.023
-427.603	-81.937	-0.205	0.067
-426.588	-200.000	0.010	0.097
-425.573	-136.595	-0.120	0.014
-424.559	800.000	0.067	-0.193
-423.544	468.704	-0.018	-0.041
-422.530	-200.000	-0.093	-0.561
-421.515	-94.471	-0.161	-0.044
-420.500	-36.731	-0.399	-0.213
-419.486	-94.501	-0.073	0.020
-418.471	800.000	0.187	0.530
-417.457	-9.333	-0.284	-0.189
-416.442	-135.368	-0.188	0.022
-415.428	-54.138	-0.363	-0.165
-414.413	-120.950	0.017	0.003
-413.398	-76.704	0.402	0.140
-412.384	-35.694	-0.177	-0.096
-411.369	-200.000	0.011	-0.261
-410.355	-200.000	-0.004	-0.022
-409.340	86.286	-0.282	0.310
-408.325	243.097	0.084	-0.140
-407.311	714.174	0.047	-0.125
-406.296	70.177	-0.138	0.141
-405.282	-7.535	0.355	-0.239
-404.267	800.000	-0.105	-0.352
-403.252	258.904	-0.090	-0.155
-402.238	31.287	-0.128	-0.110
-401.223	62.170	0.290	-0.288
-400.209	100.184	0.173	-0.200
-399.194	28.040	-0.215	0.180
-398.179	-114.987	0.313	-0.059
-397.165	-132.935	0.136	0.017
-396.150	34.235	-0.254	-0.220
-395.136	180.326	0.081	0.118
-394.121	155.086	-0.128	0.175
-393.106	-90.273	0.159	0.046
-392.092	-200.000	-0.027	0.123
-391.077	-200.000	0.063	0.398
-390.063	152.817	-0.112	0.152
-389.048	285.804	-0.037	-0.066
-388.033	-91.026	0.249	0.071
-387.019	-38.697	-0.133	-0.070
-386.004	-161.588	-0.020	0.001
-384.990	247.411	0.139	0.234
-383.975	-68.212	0.078	0.030
-382.960	-200.000	0.006	-0.132
-381.946	-200.000	-0.002	0.236
-380.931	-97.903	-0.401	-0.103
-379.917	238.453	-0.155	-0.256
-378.902	49.965	-0.202	-0.190
-377.888	-200.000	0.034	0.207
-376.873	800.000	-0.058	0.163
-375.858	800.000	-0.078	0.265
-374.844	-76.757	0.094	-0.033
-373.829	-40.875	-0.108	-0.056
-372.815	60.497	-0.106	-0.104
-371.800	800.000	0.078	-0.295
-370.785	-55.772	-0.335	0.149
-369.771	-49.557	-0.299	0.142
-368.756	-72.261	0.302	-0.111
-367.742	128.492	0.161	0.203
-366.727	-200.000	-0.013	-0.355
-365.712	77.591	-0.191	-0.202
-364.698	103.071	0.123	-0.143
-363.683	-147.796	-0.102	-0.008
-362.669	242.804	0.145	-0.242
-361.654	502.680	0.107	0.245
-360.639	92.966	-0.154	0.174
-359.625	9.617	0.222	0.168
-358.610	132.209	0.158	-0.202
-357.596	161.697	0.057	-0.079
-356.581	132.206	-0.074	-0.095
-355.566	-200.000	-0.024	-0.119
-354.552	-47.014	0.012	-0.006
-353.537	-200.000	0.024	-0.390
-352.523	183.067	-0.076	-0.112
-351.508	-48.286	0.432	0.207
-350.493	294.985	-0.097	0.175
-349.479	-200.000	-0.035	0.157
-348.464	5.734	-0.326	-0.239
-347.450	125.781	-0.147	-0.185
-346.435	733.066	-0.088	-0.235
-345.420	-149.711	0.343	-0.027
-344.406	-200.000	0.031	-0.246
-343.391	-200.000	-0.055	0.359
-342.377	369.502	-0.006	0.012
-341.362	298.930	-0.176	0.323
-340.348	23.651	0.118	0.097
-339.333	161.011	-0.126	-0.174
-338.318	-200.000	0.046	-0.402
-337.304	-114.802	0.200	0.038
-336.289	155.192	0.104	0.143
-335.275	-118.701	0.143	-0.025
-334.260	-11.408	0.393	-0.257
-333.245	-10.299	0.104	0.068
-332.231	148.990	-0.147	-0.198
-331.216	800.000	0.138	-0.401
-330.202	-10.392	-0.038	0.025
-329.187	-45.828	-0.144	0.071
-328.172	800.000	-0.034	-0.103
-327.158	-138.463	-0.084	-0.009
-326.143	-200.000	-0.028	-0.189
-325.129	-152.337	-0.135	-0.010
-324.114	-200.000	-0.014	-0.213
-323.099	62.941	-0.246	-0.245
-322.085	377.445	-0.232	0.471
-321.070	-200.000	0.001	-0.190
-320.056	800.000	0.112	-0.328
-319.041	282.198	-0.162	0.289
-318.026	800.000	-0.111	-0.384
-317.012	114.320	0.121	0.146
-315.997	626.419	-0.034	0.085
-314.983	8.270	-0.144	0.108
-313.968	-200.000	0.491	0.001
-312.953	-7.188	0.082	0.055
-311.939	455.980	0.109	0.240
-310.924	800.000	0.034	0.137
-309.910	430.620	0.096	-0.206
-308.895	800.000	-0.046	-0.187
-307.880	34.642	0.179	-0.155
-306.866	680.007	-0.063	0.163
-305.851	-34.676	0.101	-0.055
-304.837	366.040	-0.148	-0.296
-303.822	-200.000	-0.105	0.495
-302.807	20.572	-0.267	0.214
-301.793	-200.000	0.166	-0.001
-300.778	203.920	0.131	0.201
-299.764	-200.000	0.011	-0.091
-298.749	-24.406	0.192	0.113
-297.735	127.784	0.248	-0.313
-296.720	800.000	-0.010	0.041
-295.705	45.108	0.263	0.240
-294.691	417.661	-0.011	-0.023
-293.676	99.631	-0.230	0.264
-292.662	83.391	0.053	0.057
-291.647	45.044	0.108	-0.099
-290.632	170.093	-0.281	0.399
-289.618	-75.105	-0.082	0.029
-288.603	354.954	-0.120	-0.237
-287.589	-106.112	0.194	0.043
-286.574	139.843	-0.167	0.218
-285.559	222.026	0.187	0.298
-284.545	-200.000	-0.009	0.189
-283.530	-136.944	-0.226	-0.026
-282.516	6.081	0.104	-0.076
-281.501	-121.423	0.228	0.038
-280.486	31.088	0.016	-0.014
-279.472	151.123	0.199	0.268
-278.457	22.887	-0.196	0.160
-277.443	-46.195	-0.365	-0.178
-276.428	19.306	-0.062	0.049
-275.413	5.119	0.193	-0.141
-274.399	-200.000	0.027	0.285
-273.384	196.080	0.179	-0.269
-272.370	-40.190	-0.189	-0.098
-271.355	-20.334	0.111	-0.067
-270.340	157.507	-0.039	0.054
-269.326	49.851	0.343	0.321
-268.311	-103.801	0.092	-0.021
-267.297	42.639	-0.157	-0.141
-266.282	111.052	-0.233	0.277
-265.267	89.879	-0.045	-0.050
-264.253	-22.583	-0.132	-0.079
-263.238	-89.473	-0.284	0.083
-262.224	800.000	0.063	-0.173
-261.209	717.474	0.102	0.268
-260.195	-119.439	-0.551	0.095
-259.180	48.391	0.134	0.125
-258.165	8.166	0.315	-0.234
-257.151	800.000	0.071	-0.255
-256.136	-29.844	-0.433	0.244
-255.122	-200.000	0.030	0.193
-254.107	68.785	-0.204	-0.207
-253.092	-88.071	0.155	0.046
-252.078	-200.000	-0.000	0.215
-251.063	-29.604	-0.188	0.106
-250.049	94.553	0.172	0.193
-249.034	302.362	0.057	-0.105
-248.019	800.000	0.077	-0.240
-247.005	-118.842	0.139	0.024
-245.990	-174.128	-0.175	-0.005
-244.976	-200.000	0.064	0.333
-243.961	639.516	0.097	-0.244
-242.946	88.992	-0.149	-0.164
-241.932	249.466	-0.125	-0.210
-240.917	-115.207	0.319	-0.060
-239.903	-111.250	0.350	0.071
-238.888	26.448	-0.293	0.243
-237.873	-113.356	-0.225	0.044
-236.859	48.488	-0.147	0.136
-235.844	592.242	0.207	-0.505
-234.830	566.489	0.011	0.026
-233.815	-71.248	0.285	-0.106
-232.800	736.383	0.030	-0.081
-231.786	200.055	-0.303	-0.460
-230.771	792.709	-0.099	-0.271
-229.757	419.803	0.108	-0.228
-228.742	-200.000	-0.002	0.074
-227.727	92.320	-0.081	-0.090
-226.713	-63.726	-0.119	-0.048
-225.698	95.830	-0.184	-0.208
-224.684	23.953	0.390	0.318
-223.669	-200.000	-0.016	0.256
-222.655	632.756	-0.193	0.484
-221.640	10.966	0.380	-0.287
-220.625	800.000	0.084	0.232
-219.611	-41.740	0.147	-0.075
-218.596	100.091	-0.032	0.036
-217.582	75.968	0.250	-0.261
-216.567	-200.000	-0.015	0.151
-215.552	88.200	0.082	-0.090
-214.538	800.000	-0.117	0.436
-213.523	420.579	0.057	0.121
-212.509	-15.161	0.146	0.092
-211.494	738.223	0.137	-0.364
-210.479	-66.466	-0.017	0.007
-209.465	-38.758	0.358	-0.187
-208.450	695.365	0.063	0.164
-207.436	94.397	-0.223	0.251
-206.421	-200.000	0.128	-0.603
-205.406	-200.000	-0.023	0.347
-204.392	73.188	0.111	0.115
-203.377	-200.000	0.161	0.000
-202.363	800.000	0.064	0.226
-201.348	-200.000	-0.048	0.331
-200.333	-200.000	0.019	-0.130
-199.319	-35.127	0.208	-0.112
-198.304	147.304	-0.193	-0.256
-197.290	800.000	0.009	0.036
-196.275	46.795	0.146	0.134
-195.260	355.523	-0.062	-0.121
-194.246	182.986	-0.091	-0.133
-193.231	-115.249	0.309	0.058
-192.217	-200.000	-0.017	-0.234
-191.202	-5.975	0.155	0.105
-190.187	223.545	0.088	0.140
-189.173	224.690	-0.091	0.145
-188.158	-200.000	-0.014	-0.160
-187.144	800.000	-0.040	0.127
-186.129	781.918	-0.087	0.235
-185.114	800.000	0.033	0.141
-184.100	-17.547	0.203	0.126
-183.085	-74.435	-0.140	-0.050
-182.071	-36.347	-0.288	0.153
-181.056	800.000	0.073	0.220
-180.042	-54.480	-0.283	0.127
-179.027	281.790	-0.136	-0.241
-178.012	-163.579	-0.184	0.009
-176.998	183.061	0.021	0.030
-175.983	113.738	-0.272	0.326
-174.969	-34.299	0.203	0.110
-173.954	-200.000	-0.012	0.218
-172.939	24.280	0.080	-0.065
-171.925	-32.204	0.280	-0.154
-170.910	-159.817	-0.164	-0.009
-169.896	467.796	-0.110	-0.244
-168.881	-29.908	-0.024	-0.014
-167.866	-23.278	0.063	0.038
-166.852	45.888	0.143	0.130
-165.837	-200.000	0.006	0.431
-164.823	282.994	0.072	0.128
-163.808	800.000	-0.101	-0.288
-162.793	198.090	-0.131	-0.197
-161.779	63.242	-0.153	0.151
-160.764	-200.000	0.014	-0.197
-159.750	105.575	-0.115	0.134
-158.735	-162.216	0.213	0.011
-157.720	625.087	-0.131	0.325
-156.706	800.000	0.010	-0.030
-155.691	35.753	0.221	-0.191
-154.677	-112.724	0.033	0.006
-153.662	76.251	0.157	-0.164
-152.647	-14.377	-0.272	0.172
-151.633	-34.358	-0.159	0.086
-150.618	-85.179	0.194	0.060
-149.604	10.295	-0.198	0.148
-148.589	-122.974	0.091	0.014
-147.574	-200.000	0.028	-0.250
-146.560	-15.935	0.163	0.102
-145.545	-200.000	-0.036	-0.174
-144.531	193.260	-0.071	0.106
-143.516	-200.000	0.019	-0.252
-142.502	-121.603	0.247	0.040
-141.487	-27.930	0.041	-0.023
-140.472	-200.000	0.017	-0.193
-139.458	5.361	0.135	-0.098
-138.443	-141.547	0.115	-0.011
-137.429	81.532	0.085	0.091
-136.414	-12.359	0.110	-0.071
-135.399	274.538	-0.113	-0.196
-134.385	800.000	0.070	-0.241
-133.370	-80.226	-0.041	-0.013
-132.356	-82.326	-0.118	-0.038
-131.341	294.584	-0.085	-0.153
-130.326	-200.000	0.079	-0.421
-129.312	362.961	0.120	-0.237
-128.297	6.099	0.147	0.107
-127.283	-200.000	-0.023	-0.170
-126.268	-140.554	-0.436	0.045
-125.253	758.545	0.029	0.078
-124.239	-200.000	0.003	-0.027
-123.224	23.235	0.210	-0.170
-122.210	332.189	-0.010	-0.018
-121.195	67.047	-0.091	-0.091
-120.180	68.772	-0.168	0.170
-119.166	-78.193	0.476	-0.161
-118.151	554.680	-0.097	-0.229
-117.137	-141.906	-0.348	0.034
-116.122	800.000	0.079	0.284
-115.107	-136.646	-0.441	0.050
-114.093	-9.476	0.084	-0.055
-113.078	-30.675	-0.245	-0.136
-112.064	142.613	-0.077	0.100
-111.049	-81.903	0.111	-0.036
-110.034	-34.196	-0.030	0.016
-109.020	-200.000	0.022	0.340
-108.005	-137.886	0.314	0.035
-106.991	-48.993	-0.134	-0.063
-105.976	335.524	0.077	0.147
-104.962	-200.000	0.017	0.094
-103.947	67.447	0.089	0.089
-102.932	-40.366	0.205	0.105
-101.918	95.479	-0.193	-0.217
-100.903	-118.617	-0.221	-0.038
-99.889	56.660	0.309	0.296
-98.874	-200.000	0.034	0.320
-97.859	221.251	-0.020	-0.032
-96.845	-46.539	-0.160	0.077
-95.830	527.610	-0.122	-0.284
-94.816	565.924	0.100	0.239
-93.801	-44.962	0.295	0.145
-92.786	800.000	-0.009	-0.027
-91.772	-95.594	-0.122	0.032
-90.757	800.000	-0.061	0.209
-89.743	216.338	-0.121	-0.189
-88.728	800.000	0.053	-0.186
-87.713	755.385	0.136	0.361
-86.699	-200.000	0.021	0.281
-85.684	256.574	0.190	0.321
-84.670	-18.353	-0.141	-0.087
-83.655	-50.621	-0.218	0.101
-82.640	12.075	-0.132	0.100
-81.626	-90.344	0.216	-0.062
-80.611	-118.616	0.198	0.034
-79.597	-80.247	0.025	-0.008
-78.582	57.007	-0.138	-0.133
-77.567	-200.000	-0.063	0.271
-76.553	-181.301	0.191	-0.004
-75.538	800.000	0.165	0.495
-74.524	-34.587	-0.214	-0.115
-73.509	-51.655	-0.193	-0.089
-72.494	-200.000	-0.014	0.237
-71.480	800.000	0.054	-0.165
-70.465	-200.000	-0.082	0.000
-69.451	341.452	-0.143	0.274
-68.436	-200.000	0.052	0.324
-67.422	-6.612	0.087	0.058
-66.407	-200.000	-0.376	0.000
-65.392	-154.365	0.249	-0.016
-64.378	172.222	0.076	-0.108
-63.363	-143.168	0.291	0.028
-62.349	388.430	-0.113	0.229
-61.334	12.839	-0.861	-0.654
-60.319	330.640	0.342	0.648
-59.305	-200.000	-0.180	-1.242
-58.290	265.305	0.498	0.852
-57.276	800.000	0.461	1.401
-56.261	-200.000	96.595	601.666
-55.246	651.355	1376.772	3464.264
-54.232	197.538	2562.158	3842.282
-53.217	114.193	2269.208	2712.213
-52.203	41.350	1896.620	1684.801
-51.188	35.052	1686.457	1450.521
-50.173	32.425	1642.212	1392.994
-49.159	50.005	1689.479	1565.389
-48.144	51.804	1705.825	1593.968
-47.130	34.680	1666.698	1430.511
-46.115	31.927	1652.124	1397.476
-45.100	31.722	1647.647	1392.106
-44.086	31.693	1645.280	1389.836
-43.071	31.706	1642.520	1387.549
-42.057	31.654	1640.031	1385.001
-41.042	31.743	1637.814	1383.732
-40.027	31.640	1636.265	1381.610
-39.013	31.702	1634.336	1380.387
-37.998	31.588	1632.748	1378.151
-36.984	31.727	1631.338	1377.924
-35.969	31.795	1629.778	1377.057
-34.954	31.760	1628.231	1375.436
-33.940	31.747	1626.287	1373.643
-32.925	31.704	1624.752	1371.974
-31.911	31.713	1622.984	1370.496
-30.896	31.776	1620.931	1369.167
-29.881	31.749	1619.840	1367.995
-28.867	31.822	1617.838	1366.779
-27.852	31.716	1616.207	1364.576
-26.838	31.833	1614.467	1363.909
-25.823	31.749	1613.557	1362.473
-24.809	31.796	1612.667	1362.011
-23.794	31.766	1610.846	1360.195
-22.779	31.799	1609.377	1359.147
-21.765	31.809	1607.559	1357.627
-20.750	31.741	1606.133	1355.875
-19.736	31.694	1605.085	1354.596
-18.721	31.836	1603.116	1353.910
-17.706	31.788	1601.859	1352.447
-16.692	31.776	1600.686	1351.318
-15.677	31.792	1599.388	1350.281
-14.663	31.859	1597.653	1349.248
-13.648	31.775	1596.377	1347.512
-12.633	31.834	1594.723	1346.485
-11.619	31.795	1593.234	1344.892
-10.604	31.769	1591.467	1343.161
-9.590	31.771	1590.590	1342.385
-8.575	31.858	1588.924	1341.546
-7.560	31.833	1587.751	1340.322
-6.546	31.831	1586.830	1339.482
-5.531	31.777	1585.531	1337.942
-4.517	31.764	1584.452	1336.891
-3.502	31.786	1583.601	1336.272
-2.487	31.883	1581.534	1335.170
-1.473	31.513	1570.603	1323.267
-0.458	28.842	1550.662	1287.731
0.556	24.605	1551.555	1256.332
1.571	22.228	1574.599	1257.894
2.586	21.727	1587.115	1264.171
3.600	19.290	1533.330	1204.215
4.615	11.686	1425.879	1070.139
5.629	5.461	1364.943	985.208
6.644	4.640	1357.470	974.581
7.659	4.520	1355.729	972.498
8.673	4.448	1354.781	971.280
9.688	4.492	1353.202	970.338
10.702	4.445	1350.165	967.777
11.717	7.222	1355.938	989.189
12.731	14.492	1368.924	1044.260
13.746	18.994	1375.921	1077.779
14.761	18.777	1374.371	1075.111
15.775	17.787	1371.378	1066.486
16.790	16.712	1368.987	1057.824
17.804	16.001	1366.399	1051.294
18.819	15.674	1364.768	1047.908
19.834	15.390	1363.694	1045.224
20.848	15.039	1362.549	1042.067
21.863	14.830	1361.295	1039.717
22.877	14.777	1360.219	1038.471
23.892	14.656	1359.229	1036.873
24.907	14.761	1358.343	1036.757
25.921	14.703	1357.511	1035.670
26.936	14.762	1356.640	1035.282
27.950	14.703	1355.970	1034.311
28.965	14.765	1354.472	1033.461
29.980	14.927	1353.498	1033.632
30.994	15.026	1352.131	1033.106
32.009	14.953	1351.580	1032.141
33.023	14.955	1349.945	1030.817
34.038	14.998	1348.424	1029.829
35.053	14.830	1347.597	1028.072
36.067	14.874	1346.510	1027.419
37.082	14.833	1345.374	1026.213
38.096	14.965	1344.288	1026.104
39.111	14.922	1343.679	1025.282
40.126	14.770	1342.847	1023.627
41.140	14.673	1341.779	1022.126
42.155	14.661	1341.343	1021.634
43.169	14.515	1341.046	1020.422
44.184	14.548	1341.186	1020.642
45.199	14.581	1340.426	1020.173
46.213	14.722	1339.951	1020.582
47.228	14.806	1339.066	1020.331
48.242	14.806	1338.042	1019.459
49.257	14.871	1336.288	1018.428
50.271	14.845	1334.751	1017.011
51.286	14.905	1333.419	1016.271
52.301	14.861	1332.165	1014.959
53.315	14.809	1331.431	1013.990
54.330	14.787	1330.036	1012.707
55.344	14.725	1328.533	1011.097
56.359	14.659	1328.459	1010.551
57.374	14.688	1327.155	1009.646
58.388	14.511	1326.726	1008.159
59.403	14.577	1325.801	1007.769
60.417	14.582	1325.418	1007.416
61.432	14.510	1324.651	1006.312
62.447	14.523	1323.017	1005.059
63.461	14.363	1322.383	1003.525
64.476	14.443	1320.858	1002.760
65.490	14.487	1319.937	1002.235
66.505	14.588	1318.433	1001.609
67.520	14.628	1317.147	1000.788
68.534	14.592	1316.395	999.910
69.549	14.596	1315.496	999.163
70.563	14.446	1314.611	997.507
71.578	14.413	1312.902	995.923
72.593	14.352	1312.250	994.974
73.607	14.286	1311.637	994.030
74.622	14.364	1310.491	993.535
75.636	14.373	1309.719	992.919
76.651	14.546	1308.576	992.996
77.666	14.403	1308.722	992.163
78.680	14.487	1307.939	991.982
79.695	14.516	1307.424	991.679
80.709	14.482	1306.961	991.037
81.724	14.509	1306.266	990.582
82.739	14.702	1304.932	990.627
83.753	14.673	1304.294	989.886
84.768	14.794	1303.249	989.719
85.782	14.837	1301.825	988.806
86.797	14.890	1300.447	987.987
87.812	14.790	1299.560	986.634
88.826	14.763	1298.613	985.669
89.841	14.860	1297.194	985.077
90.855	14.945	1296.401	984.887
91.870	14.894	1295.881	984.103
92.884	14.954	1294.888	983.612
93.899	14.923	1293.917	982.609
94.914	14.978	1293.209	982.307
95.928	15.041	1292.114	981.756
96.943	14.894	1291.898	980.647
97.957	14.901	1290.221	979.327
98.972	14.895	1288.868	978.178
99.987	14.867	1288.701	977.802
101.001	14.860	1287.700	976.914
102.016	14.920	1286.632	976.366
103.030	14.945	1285.484	975.554
104.045	14.806	1284.821	974.155
105.060	14.854	1283.378	973.256
106.074	14.633	1281.977	970.818
107.089	14.592	1280.504	969.379
108.103	14.560	1279.392	968.266
109.118	14.534	1277.934	966.926
110.133	14.576	1276.550	966.036
111.147	14.546	1275.561	965.029
112.162	14.704	1273.653	964.413
113.176	14.646	1273.396	963.798
114.191	14.719	1272.038	963.109
115.206	14.674	1271.306	962.209
116.220	14.715	1270.136	961.473
117.235	14.721	1268.484	960.174
118.249	14.598	1267.773	958.841
119.264	14.640	1265.929	957.607
120.279	14.576	1265.255	956.646
121.293	14.542	1264.560	955.837
122.308	14.482	1263.674	954.741
123.322	14.463	1262.396	953.582
124.337	14.470	1261.743	953.043
125.352	14.448	1260.048	951.556
126.366	14.467	1258.908	950.716
127.381	14.512	1257.624	949.919
128.395	14.625	1256.439	949.582
129.410	14.600	1255.636	948.752
130.424	14.640	1254.965	948.387
131.439	14.610	1254.569	947.836
132.454	14.779	1252.879	947.431
133.468	14.709	1252.164	946.409
134.483	14.723	1251.753	946.093
135.497	14.734	1250.694	945.275
136.512	14.605	1249.657	943.675
137.527	14.706	1248.204	943.068
138.541	14.685	1246.845	941.837
139.556	14.914	1245.474	942.007
140.570	14.870	1244.665	941.064
141.585	14.898	1243.534	940.283
142.600	14.797	1242.513	938.862
143.614	14.943	1241.776	939.040
144.629	14.978	1240.580	938.252
145.643	15.005	1239.380	937.411
146.658	14.942	1237.836	935.810
147.673	14.843	1236.458	934.133
148.687	14.870	1235.041	933.128
149.702	14.742	1234.385	931.838
150.716	14.673	1233.369	930.601
151.731	14.774	1231.926	929.993
152.746	14.739	1230.530	928.665
153.760	14.850	1229.450	928.381
154.775	14.880	1228.305	927.602
155.789	14.882	1227.469	926.897
156.804	15.019	1226.207	926.621
157.819	14.994	1225.364	925.766
158.833	15.089	1224.268	925.382
159.848	15.063	1223.710	924.731
160.862	15.055	1222.801	923.920
161.877	14.928	1221.643	922.266
162.892	14.967	1220.003	921.158
163.906	14.846	1219.637	920.135
164.921	14.822	1218.703	919.218
165.935	14.971	1217.609	919.127
166.950	15.015	1216.445	918.410
167.964	14.938	1215.960	917.543
168.979	14.894	1215.481	916.855
169.994	14.888	1214.684	916.141
171.008	14.973	1213.754	915.827
172.023	15.186	1212.611	916.045
173.037	15.117	1212.090	915.194
174.052	15.090	1211.322	914.383
175.067	14.944	1210.259	912.703
176.081	15.003	1209.557	912.417
177.096	14.877	1208.521	910.868
178.110	15.003	1207.286	910.542
179.125	14.925	1206.222	909.237
180.140	15.009	1204.832	908.562
181.154	15.016	1204.067	907.942
182.169	15.105	1202.880	907.452
183.183	15.161	1201.760	906.827
184.198	15.187	1200.346	905.822
185.213	15.339	1198.994	905.541
186.227	15.256	1198.318	904.505
187.242	15.328	1197.274	904.024
188.256	15.426	1196.206	903.663
189.271	15.341	1195.549	902.634
190.286	15.164	1194.636	900.911
191.300	15.015	1193.577	899.232
192.315	14.945	1192.802	898.190
193.329	14.955	1191.959	897.532
194.344	15.042	1191.537	897.601
195.359	15.072	1190.808	897.135
196.373	15.213	1190.427	897.520
197.388	15.302	1189.905	897.524
198.402	15.462	1189.654	898.112
199.417	15.422	1188.937	897.280
200.432	15.534	1188.322	897.332
201.446	15.428	1187.496	896.064
202.461	15.605	1186.485	896.169
203.475	15.605	1185.204	895.122
204.490	15.472	1184.358	893.694
205.504	15.356	1182.953	891.936
206.519	15.421	1181.627	891.203
207.534	15.413	1180.540	890.266
208.548	15.359	1179.874	889.396
209.563	15.235	1179.342	888.257
210.577	15.301	1177.910	887.454
211.592	15.512	1176.762	887.621
212.607	15.539	1176.489	887.480
213.621	15.511	1175.442	886.465
214.636	15.588	1174.495	886.080
215.650	15.593	1173.727	885.445
216.665	15.653	1172.661	884.880
217.680	15.632	1172.113	884.278
218.694	15.701	1171.351	883.985
219.709	15.747	1170.227	883.304
220.723	15.673	1169.500	882.290
221.738	15.821	1168.551	882.270
222.753	15.684	1168.282	881.270
223.767	15.708	1167.005	880.356
224.782	15.693	1167.092	880.266
225.796	15.854	1166.283	880.419
226.811	15.797	1165.477	879.433
227.826	15.808	1164.930	879.002
228.840	15.785	1164.251	878.291
229.855	15.709	1163.422	877.191
230.869	15.811	1162.382	876.858
231.884	15.710	1161.706	875.747
232.899	15.636	1161.060	874.799
233.913	15.612	1160.339	874.050
234.928	15.662	1159.414	873.535
235.942	15.667	1158.716	872.962
236.957	15.769	1157.668	872.622
237.972	15.726	1157.195	871.969
238.986	15.676	1156.645	871.214
240.001	15.706	1156.465	871.159
241.015	15.809	1155.220	870.678
242.030	15.696	1154.503	869.475
243.045	15.734	1153.854	869.106
244.059	15.848	1152.831	868.845
245.074	15.961	1151.478	868.332
246.088	15.852	1151.064	867.381
247.103	15.990	1150.278	867.424
248.117	15.986	1149.761	866.938
249.132	16.095	1149.375	867.132
250.147	16.268	1148.367	867.180
251.161	16.263	1147.646	866.535
252.176	16.345	1147.126	866.486
253.190	16.426	1146.717	866.513
254.205	16.499	1145.933	866.219
255.220	16.467	1145.296	865.499
256.234	16.309	1144.935	864.339
257.249	16.251	1144.443	863.594
258.263	16.404	1143.303	863.440
259.278	16.389	1142.918	862.994
260.293	16.404	1142.368	862.581
261.307	16.464	1141.622	862.248
262.322	16.570	1140.892	862.158
263.336	16.515	1140.288	861.347
264.351	16.508	1139.641	860.747
265.366	16.579	1138.916	860.483
266.380	16.607	1138.248	860.046
267.395	16.503	1137.415	858.812
268.409	16.517	1136.436	858.069
269.424	16.504	1136.335	857.849
270.439	16.410	1135.849	856.930
271.453	16.533	1134.782	856.675
272.468	16.369	1133.665	854.923
273.482	16.423	1132.850	854.508
274.497	16.449	1132.590	854.367
275.512	16.446	1131.916	853.769
276.526	16.590	1130.564	853.397
277.541	16.576	1130.034	852.852
278.555	16.569	1129.572	852.395
279.570	16.655	1128.805	852.171
280.585	16.799	1128.097	852.284
281.599	16.698	1126.978	850.857
282.614	16.621	1125.950	849.620
283.628	16.643	1125.025	848.956
284.643	16.548	1123.923	847.575
285.657	16.729	1122.965	847.681
286.672	16.674	1122.381	846.891
287.687	16.696	1121.326	846.133
288.701	16.636	1120.965	845.484
289.716	16.730	1120.420	845.469
290.730	16.645	1119.480	844.259
291.745	16.732	1118.506	843.885
292.760	16.841	1117.653	843.710
293.774	16.782	1117.696	843.374
294.789	16.867	1117.175	843.329
295.803	17.001	1116.204	843.183
296.818	16.826	1115.552	841.750
297.833	16.774	1114.656	840.739
298.847	16.760	1114.025	840.121
299.862	16.911	1112.993	840.015
300.876	16.980	1112.632	840.010
301.891	16.942	1112.109	839.354
302.906	16.927	1111.415	838.681
303.920	17.047	1110.537	838.536
304.935	17.132	1110.174	838.610
305.949	17.154	1109.327	838.003
306.964	17.169	1108.778	837.590
307.979	16.990	1108.122	836.138
308.993	17.136	1106.863	835.830
310.008	17.199	1106.370	835.696
311.022	17.178	1105.589	834.928
312.037	17.095	1105.120	834.092
313.052	17.043	1104.036	832.943
314.066	17.030	1103.173	832.158
315.081	16.901	1102.285	830.782
316.095	16.936	1101.631	830.385
317.110	17.061	1100.618	830.162
318.125	17.064	1099.994	829.632
319.139	16.967	1099.456	828.678
320.154	17.075	1098.317	828.275
321.168	17.095	1098.025	828.079
322.183	17.018	1097.824	827.476
323.197	17.197	1096.608	827.362
324.212	17.169	1096.095	826.764
325.227	17.195	1095.562	826.414
326.241	17.182	1094.986	825.845
327.256	17.171	1094.074	825.027
328.270	17.126	1093.584	824.369
329.285	17.052	1092.837	823.372
330.300	17.191	1091.537	822.995
331.314	17.128	1090.567	821.883
332.329	17.133	1089.566	821.083
333.343	17.134	1088.691	820.355
334.358	17.336	1087.960	820.706
335.373	17.248	1087.459	819.832
336.387	17.212	1086.908	819.168
337.402	17.249	1086.023	818.607
338.416	17.256	1085.500	818.178
339.431	17.380	1084.888	818.237
340.446	17.452	1083.775	817.671
341.460	17.445	1083.292	817.202
342.475	17.628	1082.355	817.300
343.489	17.491	1081.859	816.195
344.504	17.613	1080.864	815.959
345.519	17.551	1080.138	815.041
346.533	17.734	1079.040	815.017
347.548	17.740	1078.666	814.689
348.562	17.725	1077.637	813.768
349.577	17.587	1077.181	812.697
350.592	17.553	1076.392	811.866
351.606	17.526	1075.633	811.092
352.621	17.558	1074.845	810.579
353.635	17.521	1073.895	809.614
354.650	17.615	1073.259	809.511
355.665	17.664	1072.411	809.032
356.679	17.582	1072.053	808.299
357.694	17.751	1071.253	808.428
358.708	17.788	1070.531	807.988
359.723	17.690	1070.379	807.336
360.738	17.645	1069.747	806.573
361.752	17.767	1068.812	806.375
362.767	17.722	1068.371	805.760
363.781	17.676	1068.263	805.387
364.796	17.682	1067.485	804.759
365.810	17.751	1067.223	804.817
366.825	17.921	1066.390	804.916
367.840	18.037	1065.590	804.787
368.854	18.035	1065.099	804.336
369.869	18.022	1064.446	803.712
370.883	17.941	1063.691	802.692
371.898	17.857	1062.999	801.702
372.913	17.834	1062.330	801.021
373.927	18.015	1061.851	801.436
374.942	18.011	1061.434	801.031
375.956	18.012	1061.185	800.776
376.971	17.982	1060.225	799.841
377.986	18.062	1059.446	799.559
379.000	18.081	1058.790	799.079
380.015	18.171	1058.464	799.183
381.029	18.251	1057.817	798.997
382.044	18.164	1057.302	798.132
383.059	18.151	1056.248	797.208
384.073	18.185	1055.714	796.889
385.088	18.255	1054.666	796.354
386.102	18.297	1053.685	795.741
387.117	18.229	1052.837	794.713
388.132	17.999	1052.031	792.966
389.146	18.065	1051.095	792.496
390.161	18.233	1050.025	792.400
391.175	18.126	1050.026	791.833
392.190	18.279	1048.985	791.687
393.205	18.258	1048.527	791.174
394.219	18.263	1047.751	790.540
395.234	18.285	1046.778	789.840
396.248	18.291	1045.135	788.555
397.263	18.168	1044.433	787.390
398.278	18.213	1043.717	786.988
399.292	18.132	1043.307	786.237
400.307	18.101	1042.787	785.634
401.321	18.284	1041.692	785.578
402.336	18.206	1041.255	784.822
403.350	18.162	1040.324	783.848
404.365	18.128	1040.041	783.410
405.380	18.252	1039.159	783.246
406.394	18.236	1038.760	782.803
407.409	18.388	1037.945	782.812
408.423	18.396	1037.297	782.293
409.438	18.514	1036.732	782.334
410.453	18.526	1035.623	781.482
411.467	18.673	1034.818	781.477
412.482	18.549	1034.357	780.494
413.496	18.632	1033.698	780.303
414.511	18.613	1033.356	779.892
415.526	18.661	1033.204	779.925
416.540	18.709	1032.759	779.740
417.555	18.670	1031.817	778.781
418.569	18.771	1031.363	778.827
419.584	18.826	1030.883	778.647
420.599	18.777	1030.567	778.116
421.613	150.639	1400.890	1794.859
422.628	137.442	1454.815	1794.947
