DTS Sentinel unit serial number:	SN413079Multiplexer serial number:	ORYXHardware model number:	OX4-SRSoftware version number:	ORYX F/W v4.00 Oryx Data Collector v3.7.2.0data status	okinstallation	princeton_trtdifferential loss correction	single-endedforward channel	channel 2reverse channel	N/Adate	2019/09/17time	01:15:35forward acquisition time	60.00reverse acquisition time	0.00gamma	496.2192k internal	0.2329k external	0.2329temperature offset calibration	0.9970default loss term (dB/km)	0.3790temperature slope calibration	1.0000multiplexer offset coefficient	1.0000multiplexer slope coefficient	1.0000fibre end	0.00T internal ref (°C)	29.50T ext. ref 1 (°C)	0.11T ext. ref 2 (°C)	24.19length (m)	temperature (°C)	Stokes	anti-Stokes-747.200	513.612	-0.163	0.384
-746.185	-63.512	-0.523	-0.217
-745.171	-200.000	0.020	-0.103
-744.156	-105.064	-0.299	0.069
-743.142	103.922	0.172	0.204
-742.127	800.000	-0.127	0.390
-741.112	269.451	-0.186	-0.330
-740.098	169.205	-0.102	0.147
-739.083	-129.080	0.258	-0.036
-738.069	-200.000	-0.045	0.513
-737.054	-24.002	0.178	-0.107
-736.039	-53.391	-0.543	-0.250
-735.025	-109.726	-0.116	-0.025
-734.010	42.305	0.187	-0.171
-732.996	-184.415	-0.225	-0.004
-731.981	481.904	-0.072	0.165
-730.966	800.000	-0.105	0.390
-729.952	800.000	-0.052	-0.195
-728.937	590.290	-0.080	-0.198
-727.923	73.406	0.153	0.161
-726.908	64.045	-0.066	0.067
-725.894	-99.610	-0.134	0.034
-724.879	264.560	0.191	-0.335
-723.864	-200.000	0.002	0.059
-722.850	-136.044	-0.488	-0.058
-721.835	-18.662	-0.341	-0.214
-720.821	-76.085	-0.320	0.114
-719.806	-16.037	-0.244	-0.156
-718.791	-71.106	0.430	-0.163
-717.777	55.750	0.132	-0.129
-716.762	-56.082	0.112	0.050
-715.748	800.000	-0.051	-0.211
-714.733	-200.000	-0.021	-0.360
-713.718	-87.723	0.103	0.031
-712.704	-33.365	0.171	-0.095
-711.689	85.728	-0.150	0.166
-710.675	-64.694	0.300	-0.122
-709.660	247.379	0.143	0.243
-708.645	309.782	-0.014	0.026
-707.631	-20.018	0.268	-0.166
-706.616	-13.001	-0.083	0.054
-705.602	-20.742	0.115	-0.071
-704.587	-155.660	-0.487	-0.031
-703.572	294.267	0.128	-0.235
-702.558	-179.444	0.088	0.002
-701.543	-12.776	0.078	0.051
-700.529	-200.000	0.044	0.218
-699.514	103.174	-0.235	-0.277
-698.499	-200.000	-0.036	-0.197
-697.485	-87.256	-0.225	0.069
-696.470	-108.239	-0.127	-0.028
-695.456	-200.000	0.034	0.302
-694.441	-200.000	-0.043	-0.326
-693.426	168.528	-0.100	0.143
-692.412	-60.642	0.216	-0.092
-691.397	-84.675	-0.170	-0.054
-690.383	88.226	-0.119	-0.132
-689.368	-102.847	0.392	0.094
-688.354	-200.000	-0.053	-0.266
-687.339	151.257	0.096	0.131
-686.324	145.672	0.021	-0.028
-685.310	175.462	-0.089	0.129
-684.295	45.781	0.091	-0.085
-683.281	429.995	-0.106	0.230
-682.266	800.000	-0.038	0.139
-681.251	800.000	-0.064	0.219
-680.237	237.114	0.027	-0.044
-679.222	-15.418	-0.285	0.183
-678.208	-127.457	0.272	-0.040
-677.193	-200.000	0.000	0.054
-676.178	800.000	0.041	-0.168
-675.164	171.719	-0.154	0.222
-674.149	41.749	-0.138	-0.126
-673.135	-200.000	-0.000	-0.321
-672.120	-200.000	0.023	-0.214
-671.105	-122.082	-0.233	-0.038
-670.091	-152.016	0.190	-0.014
-669.076	63.927	-0.077	0.078
-668.062	-133.452	0.276	-0.035
-667.047	-171.275	-0.236	0.008
-666.032	119.985	-0.032	0.040
-665.018	-200.000	0.008	-0.073
-664.003	800.000	0.125	-0.361
-662.989	231.299	0.229	0.376
-661.974	38.022	0.156	-0.139
-660.959	-187.681	-0.309	0.004
-659.945	-200.000	-0.016	-0.150
-658.930	-45.638	0.118	0.059
-657.916	-110.806	-0.140	0.029
-656.901	42.680	-0.057	0.052
-655.886	25.778	0.278	-0.232
-654.872	14.453	-0.309	0.242
-653.857	-102.568	0.195	0.047
-652.843	-200.000	-0.066	-0.303
-651.828	260.226	0.143	-0.247
-650.814	80.133	0.135	0.145
-649.799	117.358	-0.135	0.167
-648.784	-64.635	-0.105	0.043
-647.770	166.473	-0.020	0.029
-646.755	-76.264	0.070	-0.025
-645.741	-89.379	0.192	0.057
-644.726	-178.549	-0.207	-0.005
-643.711	235.433	-0.080	-0.133
-642.697	800.000	-0.062	-0.202
-641.682	-200.000	-0.012	-0.169
-640.668	761.991	0.046	0.126
-639.653	13.062	-0.256	-0.199
-638.638	211.868	-0.146	0.230
-637.624	-120.719	0.206	0.035
-636.609	285.332	0.191	-0.345
-635.595	-166.168	-0.279	-0.012
-634.580	-52.041	0.279	0.130
-633.565	-56.023	-0.297	-0.133
-632.551	-112.417	-0.032	0.006
-631.536	-200.000	-0.003	-0.071
-630.522	75.857	-0.069	0.073
-629.507	-31.429	-0.220	0.124
-628.492	800.000	0.132	0.451
-627.478	170.153	-0.118	0.169
-626.463	349.556	-0.170	0.336
-625.449	-107.300	-0.136	-0.030
-624.434	20.237	0.073	0.059
-623.419	-121.505	-0.228	-0.038
-622.405	-200.000	-0.006	0.162
-621.390	-200.000	-0.021	-0.198
-620.376	-29.440	-0.155	-0.089
-619.361	168.621	0.211	-0.302
-618.346	-200.000	0.008	0.102
-617.332	603.993	0.132	-0.328
-616.317	-59.948	-0.374	-0.160
-615.303	358.061	0.148	-0.297
-614.288	179.152	0.183	0.269
-613.273	36.570	0.176	-0.155
-612.259	-29.404	0.316	-0.181
-611.244	-200.000	0.059	-0.313
-610.230	-93.945	-0.349	-0.096
-609.215	454.925	-0.091	0.203
-608.201	-124.624	0.312	0.048
-607.186	800.000	0.047	0.178
-606.171	42.454	0.112	-0.102
-605.157	-131.792	-0.176	0.023
-604.142	226.205	-0.119	-0.193
-603.128	516.976	-0.065	0.153
-602.113	584.021	0.087	-0.213
-601.098	-9.725	-0.081	-0.054
-600.084	800.000	-0.052	-0.196
-599.069	8.426	-0.072	-0.054
-598.055	800.000	0.054	0.162
-597.040	349.599	0.116	0.229
-596.025	-200.000	0.005	-0.123
-595.011	-87.662	-0.168	-0.051
-593.996	-186.735	-0.365	0.005
-592.982	-138.785	-0.149	0.016
-591.967	800.000	0.005	0.017
-590.952	70.662	-0.216	0.224
-589.938	114.050	-0.207	-0.253
-588.923	-49.156	0.295	-0.141
-587.909	535.459	0.163	0.387
-586.894	-88.916	0.234	0.070
-585.879	4.199	-0.059	0.044
-584.865	-200.000	0.000	-0.184
-583.850	-127.895	-0.303	0.044
-582.836	109.040	-0.037	0.045
-581.821	-91.054	-0.150	-0.043
-580.806	211.360	-0.150	0.237
-579.792	110.309	-0.056	-0.067
-578.777	-200.000	0.019	-0.100
-577.763	90.332	0.045	-0.050
-576.748	-148.461	-0.172	-0.014
-575.733	-85.542	0.066	-0.021
-574.719	-70.848	-0.278	-0.105
-573.704	-80.721	-0.124	0.041
-572.690	139.243	-0.126	0.166
-571.675	-200.000	0.002	-0.049
-570.661	-35.368	-0.197	0.107
-569.646	-96.135	0.239	-0.063
-568.631	58.787	-0.250	-0.246
-567.617	-173.918	0.124	0.004
-566.602	-144.832	-0.362	0.033
-565.588	-200.000	-0.324	0.001
-564.573	-200.000	-0.049	-0.365
-563.558	-100.277	-0.095	-0.023
-562.544	699.078	0.018	0.048
-561.529	-143.418	0.239	-0.023
-560.515	264.696	-0.191	0.332
-559.500	198.735	0.069	0.106
-558.485	-200.000	0.010	0.496
-557.471	128.026	0.195	-0.248
-556.456	-200.000	-0.025	0.179
-555.442	800.000	-0.146	-0.441
-554.427	-153.117	-0.349	-0.024
-553.412	-103.648	0.100	0.024
-552.398	-83.813	0.645	0.206
-551.383	-0.749	0.137	0.097
-550.369	90.746	-0.235	0.263
-549.354	-12.260	0.242	0.158
-548.339	-102.088	-0.187	0.045
-547.325	-48.069	0.257	-0.124
-546.310	-45.559	0.168	0.083
-545.296	-4.133	-0.130	0.090
-544.281	-200.000	-0.021	0.387
-543.266	-200.000	-0.028	0.198
-542.252	6.926	-0.242	0.180
-541.237	11.194	0.104	0.080
-540.223	-22.498	-0.240	-0.145
-539.208	-151.860	0.290	-0.021
-538.193	-200.000	0.033	0.384
-537.179	-200.000	-0.036	-0.172
-536.164	90.521	0.166	0.185
-535.150	31.420	-0.318	0.273
-534.135	-200.000	-0.005	0.065
-533.121	-2.906	-0.160	0.111
-532.106	-173.662	-0.243	-0.007
-531.091	-22.940	-0.136	-0.082
-530.077	-104.528	0.159	-0.037
-529.062	800.000	-0.054	-0.150
-528.048	213.783	0.024	-0.039
-527.033	-200.000	-0.010	-0.415
-526.018	368.557	-0.084	0.170
-525.004	-143.911	0.184	0.017
-523.989	-200.000	-0.023	-0.141
-522.975	498.958	0.041	-0.095
-521.960	36.533	-0.326	-0.287
-520.945	-34.210	0.144	0.079
-519.931	800.000	0.011	-0.042
-518.916	-17.226	0.046	0.029
-517.902	-200.000	0.047	0.000
-516.887	800.000	0.048	-0.149
-515.872	146.434	0.153	-0.204
-514.858	-19.526	0.084	-0.052
-513.843	800.000	0.064	0.216
-512.829	-167.694	-0.107	0.004
-511.814	-71.713	0.330	-0.123
-510.799	266.836	-0.033	0.057
-509.785	-200.000	-0.074	-0.422
-508.770	-200.000	0.007	-0.162
-507.756	-23.803	0.243	0.145
-506.741	576.003	0.133	-0.323
-505.726	-68.767	0.172	-0.066
-504.712	-150.989	-0.150	-0.011
-503.697	-0.718	-0.071	0.050
-502.683	-50.570	-0.022	-0.010
-501.668	24.334	0.057	-0.047
-500.653	-200.000	-0.018	0.085
-499.639	-70.726	0.093	0.035
-498.624	-200.000	-0.001	0.194
-497.610	63.976	0.158	-0.158
-496.595	72.498	0.108	0.112
-495.581	-46.057	0.218	-0.107
-494.566	-62.342	-0.056	-0.023
-493.551	415.354	-0.141	-0.301
-492.537	-200.000	0.029	0.234
-491.522	-20.014	0.038	0.023
-490.508	-195.622	-0.232	-0.002
-489.493	-200.000	-0.049	-0.224
-488.478	-120.386	0.248	-0.042
-487.464	-73.595	0.080	0.029
-486.449	-200.000	0.001	0.045
-485.435	103.859	-0.051	0.059
-484.420	334.118	0.129	0.250
-483.405	-91.503	-0.191	0.054
-482.391	251.449	-0.127	0.216
-481.376	-24.316	-0.051	0.030
-480.362	-25.348	-0.340	0.201
-479.347	-79.080	-0.352	-0.119
-478.332	-14.359	-0.302	0.194
-477.318	-58.315	0.312	-0.135
-476.303	-35.451	-0.036	-0.019
-475.289	800.000	0.152	0.518
-474.274	800.000	-0.038	0.139
-473.259	91.379	-0.183	-0.205
-472.245	800.000	-0.099	-0.321
-471.230	721.080	-0.075	-0.199
-470.216	-150.583	0.237	0.018
-469.201	-101.476	-0.290	0.070
-468.186	-148.699	-0.365	0.030
-467.172	-200.000	0.021	-0.102
-466.157	607.499	0.103	-0.255
-465.143	226.379	-0.122	-0.198
-464.128	-200.000	0.057	-0.265
-463.113	98.242	-0.180	0.206
-462.099	94.303	0.151	0.170
-461.084	-91.224	0.369	0.105
-460.070	-99.847	-0.047	0.012
-459.055	9.732	0.239	0.181
-458.040	-61.328	-0.308	0.129
-457.026	800.000	-0.075	0.236
-456.011	-78.109	0.224	-0.077
-454.997	-200.000	0.275	-0.001
-453.982	-66.272	-0.092	0.036
-452.968	-200.000	0.011	-0.245
-451.953	-29.447	-0.192	-0.109
-450.938	-77.075	-0.172	0.060
-449.924	800.000	-0.063	-0.236
-448.909	800.000	-0.076	0.259
-447.895	800.000	0.116	0.331
-446.880	-200.000	-0.046	-0.258
-445.865	800.000	-0.023	-0.078
-444.851	117.205	0.075	-0.091
-443.836	800.000	0.020	-0.071
-442.822	-165.668	-0.351	-0.015
-441.807	-12.794	-0.195	0.126
-440.792	4.831	-0.332	-0.243
-439.778	220.918	-0.119	-0.191
-438.763	207.307	0.140	0.217
-437.749	800.000	-0.034	-0.140
-436.734	40.340	-0.122	-0.109
-435.719	-91.684	0.176	0.050
-434.705	-24.039	0.134	-0.080
-433.690	800.000	-0.100	0.296
-432.676	182.540	0.086	-0.127
-431.661	-169.824	-0.184	-0.007
-430.646	-200.000	0.005	0.254
-429.632	-79.474	0.338	0.114
-428.617	78.613	-0.113	0.120
-427.603	-0.091	0.115	0.082
-426.588	-137.151	0.140	0.016
-425.573	-39.500	0.210	-0.110
-424.559	389.550	0.118	-0.243
-423.544	-53.459	-0.092	0.042
-422.530	-170.351	-0.157	-0.005
-421.515	543.269	-0.047	0.111
-420.500	314.370	-0.228	0.428
-419.486	54.302	-0.134	-0.128
-418.471	800.000	-0.092	-0.262
-417.457	29.847	0.178	-0.151
-416.442	-28.755	0.068	0.039
-415.428	172.511	-0.165	0.236
-414.413	-37.613	-0.167	0.089
-413.398	-200.000	0.026	0.164
-412.384	-1.381	0.113	0.079
-411.369	116.655	0.034	0.041
-410.355	6.915	0.247	-0.183
-409.340	-162.615	0.314	0.015
-408.325	267.217	-0.144	0.251
-407.311	-52.675	-0.139	0.064
-406.296	240.728	0.166	0.276
-405.282	636.051	-0.076	0.193
-404.267	125.308	-0.030	0.038
-403.252	-200.000	0.022	-0.369
-402.238	-116.336	0.122	-0.022
-401.223	-200.000	0.062	0.481
-400.209	-200.000	-0.061	0.382
-399.194	-129.212	-0.185	0.026
-398.179	-200.000	0.016	0.246
-397.165	35.197	0.309	-0.269
-396.150	-200.000	0.002	-0.126
-395.136	-0.525	-0.167	0.118
-394.121	800.000	0.028	-0.103
-393.106	-96.545	-0.268	-0.070
-392.092	519.934	0.043	-0.100
-391.077	-200.000	0.033	-0.180
-390.063	-200.000	-0.034	0.236
-389.048	800.000	0.051	0.161
-388.033	95.498	0.102	0.116
-387.019	-41.326	0.252	-0.129
-386.004	315.700	0.117	-0.219
-384.990	10.443	0.276	-0.209
-383.975	-41.877	0.140	-0.071
-382.960	-50.178	0.196	0.092
-381.946	800.000	-0.070	0.256
-380.931	-71.938	0.226	0.084
-379.917	138.408	0.133	-0.174
-378.902	800.000	-0.074	-0.226
-377.888	-145.157	-0.137	0.012
-376.873	-174.952	0.205	-0.006
-375.858	29.692	-0.084	0.071
-374.844	-200.000	-0.001	-0.100
-373.829	-101.994	0.069	0.016
-372.815	-123.887	-0.264	0.041
-371.800	319.717	0.125	0.235
-370.785	-92.225	-0.260	-0.073
-369.771	100.382	-0.103	-0.118
-368.756	103.197	-0.177	-0.206
-367.742	-100.446	0.334	-0.082
-366.727	-200.000	-0.005	0.061
-365.712	800.000	0.072	-0.283
-364.698	-100.724	-0.153	0.037
-363.683	-182.236	-0.040	0.001
-362.669	-112.153	-0.277	0.055
-361.654	346.119	0.013	-0.025
-360.639	-200.000	0.007	-0.107
-359.625	92.031	-0.032	0.036
-358.610	-82.264	0.122	-0.039
-357.596	-17.774	0.192	0.119
-356.581	71.648	0.169	0.174
-355.566	684.187	0.068	-0.175
-354.552	-26.199	0.055	0.032
-353.537	42.362	0.282	-0.254
-352.523	-200.000	-0.049	-0.246
-351.508	120.625	0.184	-0.227
-350.493	800.000	-0.075	-0.252
-349.479	78.374	0.044	0.046
-348.464	-200.000	0.024	-0.133
-347.450	-57.335	-0.143	-0.062
-346.435	55.232	-0.180	0.173
-345.420	-200.000	0.012	-0.141
-344.406	45.293	0.270	-0.247
-343.391	-46.472	-0.310	-0.151
-342.377	-68.253	0.225	-0.087
-341.362	-55.230	0.278	-0.124
-340.348	465.027	-0.104	0.230
-339.333	-75.215	-0.341	-0.121
-338.318	800.000	-0.090	-0.371
-337.304	-180.972	-0.423	-0.008
-336.289	9.992	0.167	-0.126
-335.275	-73.389	0.287	-0.104
-334.260	-200.000	0.041	-0.251
-333.245	800.000	0.039	-0.122
-332.231	10.319	0.310	0.234
-331.216	-200.000	-0.056	0.317
-330.202	-9.095	-0.100	-0.067
-329.187	-96.937	0.152	0.040
-328.172	26.512	-0.186	0.154
-327.158	-13.687	0.114	0.073
-326.143	-10.906	-0.351	-0.230
-325.129	-200.000	-0.011	-0.533
-324.114	40.569	-0.059	0.053
-323.099	-200.000	0.030	-0.189
-322.085	39.600	0.078	0.069
-321.070	-200.000	0.049	-0.278
-320.056	-135.888	-0.156	0.018
-319.041	37.730	0.157	-0.139
-318.026	800.000	-0.016	-0.047
-317.012	217.354	-0.180	-0.285
-315.997	-66.334	-0.086	-0.034
-314.983	-151.902	-0.207	0.015
-313.968	-112.985	0.033	-0.006
-312.953	-27.877	0.216	-0.124
-311.939	-200.000	0.019	0.195
-310.924	439.043	0.080	0.172
-309.910	-200.000	-0.038	0.328
-308.895	198.120	-0.157	-0.237
-307.880	281.711	0.223	-0.396
-306.866	-200.000	0.061	0.282
-305.851	52.543	0.122	0.115
-304.837	-140.839	-0.112	0.011
-303.822	-154.278	0.145	-0.010
-302.807	-120.387	0.401	0.068
-301.793	47.775	0.225	-0.208
-300.778	13.505	-0.192	-0.148
-299.764	-46.377	-0.241	0.117
-298.749	-73.515	0.275	-0.099
-297.735	-115.753	0.175	-0.033
-296.720	278.232	-0.072	0.127
-295.705	-88.040	0.564	0.168
-294.691	-60.876	0.219	0.092
-293.676	800.000	-0.082	0.297
-292.662	-61.746	0.173	-0.072
-291.647	-92.987	0.256	-0.071
-290.632	-22.052	-0.211	0.127
-289.618	-165.262	-0.239	-0.010
-288.603	-181.208	-0.272	0.005
-287.589	62.731	-0.141	0.140
-286.574	-124.447	0.324	-0.050
-285.559	-54.439	-0.041	-0.019
-284.545	800.000	-0.088	-0.316
-283.530	88.325	-0.259	0.285
-282.516	82.022	0.094	0.100
-281.501	246.354	0.133	0.221
-280.486	33.843	-0.180	0.155
-279.472	155.165	0.149	-0.202
-278.457	-200.000	-0.033	-0.214
-277.443	-200.000	0.004	0.085
-276.428	-61.596	-0.208	-0.086
-275.413	800.000	0.009	-0.031
-274.399	-113.989	-0.109	0.021
-273.384	-96.836	-0.125	-0.033
-272.370	555.577	-0.078	0.186
-271.355	-126.906	0.077	0.011
-270.340	-108.705	0.433	0.092
-269.326	-200.000	0.030	0.187
-268.311	181.797	0.111	-0.162
-267.297	412.308	-0.131	0.274
-266.282	800.000	-0.153	0.438
-265.267	-50.934	0.387	-0.179
-264.253	263.812	0.133	0.229
-263.238	800.000	0.083	0.252
-262.224	222.328	-0.194	-0.309
-261.209	632.854	-0.173	-0.434
-260.195	-200.000	-0.020	0.137
-259.180	-200.000	0.016	0.266
-258.165	-110.220	0.325	0.067
-257.151	-200.000	-0.003	0.197
-256.136	800.000	-0.047	0.129
-255.122	-52.080	0.181	-0.083
-254.107	15.933	0.031	0.024
-253.092	69.084	-0.168	-0.171
-252.078	-14.551	-0.235	-0.149
-251.063	-120.310	0.067	-0.011
-250.049	-26.780	-0.198	0.114
-249.034	-200.000	0.056	0.348
-248.019	-39.636	0.068	0.035
-247.005	35.341	-0.156	-0.135
-245.990	702.466	0.082	0.213
-244.976	207.084	-0.049	0.075
-243.961	-119.160	-0.069	-0.012
-242.946	-37.908	0.124	0.065
-241.932	-34.240	0.278	-0.151
-240.917	114.266	0.101	0.121
-239.903	800.000	-0.062	-0.190
-238.888	118.055	0.062	0.075
-237.873	327.114	0.242	0.458
-236.859	103.386	0.139	-0.162
-235.844	-200.000	0.010	0.432
-234.830	-27.678	-0.241	0.138
-233.815	368.396	-0.157	-0.314
-232.800	-8.039	-0.147	-0.098
-231.786	599.763	0.079	-0.194
-230.771	-51.871	-0.156	0.072
-229.757	-200.000	0.043	-0.259
-228.742	409.340	0.101	0.211
-227.727	-200.000	0.017	-0.085
-226.713	-155.131	-0.227	0.015
-225.698	174.267	0.151	0.216
-224.684	-89.728	0.116	0.033
-223.669	-133.693	0.302	0.037
-222.655	800.000	-0.124	-0.345
-221.640	118.117	0.134	0.163
-220.625	49.553	-0.216	-0.201
-219.611	-200.000	0.009	-0.132
-218.596	-200.000	0.010	-0.185
-217.582	-189.548	-0.181	-0.002
-216.567	-78.480	0.438	-0.148
-215.552	216.930	0.044	-0.070
-214.538	-46.803	0.510	-0.246
-213.523	352.389	0.024	-0.047
-212.509	-200.000	0.002	0.473
-211.494	-200.000	-0.052	-0.286
-210.479	480.491	-0.074	-0.166
-209.465	-200.000	-0.047	-0.364
-208.450	5.845	0.096	-0.070
-207.436	800.000	0.090	0.327
-206.421	613.800	0.103	0.255
-205.406	-200.000	0.016	0.308
-204.392	800.000	-0.035	-0.133
-203.377	49.780	0.239	0.222
-202.363	-22.711	0.052	-0.031
-201.348	-79.492	-0.185	0.062
-200.333	-23.304	0.174	-0.103
-199.319	800.000	0.019	0.061
-198.304	-200.000	0.016	-0.152
-197.290	-200.000	0.014	0.237
-196.275	-104.379	-0.200	0.046
-195.260	-69.976	0.505	-0.190
-194.246	-200.000	0.014	0.405
-193.231	-124.998	-0.255	0.039
-192.217	92.911	-0.231	-0.257
-191.202	123.086	0.164	-0.202
-190.187	98.408	-0.094	-0.106
-189.173	-70.178	0.124	0.046
-188.158	-200.000	-0.421	-0.001
-187.144	-131.858	0.447	0.058
-186.129	800.000	0.106	-0.322
-185.114	-103.090	0.312	-0.073
-184.100	2.184	0.075	-0.054
-183.085	26.103	0.345	0.284
-182.071	-174.956	-0.143	0.004
-181.056	800.000	-0.109	-0.439
-180.042	-142.516	-0.217	-0.021
-179.027	320.139	-0.034	0.064
-178.012	-200.000	-0.019	0.105
-176.998	182.964	0.051	0.075
-175.983	-200.000	-0.029	-0.141
-174.969	-74.163	-0.161	-0.057
-173.954	498.325	0.079	0.179
-172.939	800.000	-0.058	0.164
-171.925	-116.524	-0.347	-0.063
-170.910	-82.993	-0.051	0.016
-169.896	800.000	0.039	0.140
-168.881	428.538	0.013	0.027
-167.866	-200.000	0.033	0.235
-166.852	154.746	0.009	-0.012
-165.837	-45.198	0.074	-0.036
-164.823	-119.612	0.068	-0.012
-163.808	-200.000	0.093	-0.000
-162.793	-76.814	0.257	0.089
-161.779	6.352	-0.240	0.175
-160.764	800.000	-0.147	0.443
-159.750	800.000	-0.026	0.088
-158.735	205.279	-0.038	0.058
-157.720	-78.728	0.176	-0.059
-156.706	152.718	-0.258	-0.348
-155.691	-19.958	-0.271	-0.165
-154.677	190.079	-0.230	0.339
-153.662	-103.245	0.383	-0.089
-152.647	-18.210	-0.187	-0.115
-151.633	-149.533	0.256	-0.020
-150.618	37.700	-0.291	0.254
-149.604	800.000	0.042	0.170
-148.589	186.993	0.169	-0.248
-147.574	-47.011	0.115	0.055
-146.560	-135.586	-0.254	-0.030
-145.545	126.996	0.162	0.203
-144.531	-43.578	0.325	0.162
-143.516	-144.225	0.224	0.021
-142.502	-1.600	-0.163	-0.113
-141.487	572.398	0.085	-0.205
-140.472	2.812	0.131	0.093
-139.458	-112.697	-0.032	-0.006
-138.443	387.224	-0.161	-0.328
-137.429	162.753	-0.176	-0.243
-136.414	-200.000	-0.006	0.078
-135.399	800.000	-0.112	-0.317
-134.385	800.000	-0.194	-0.576
-133.370	-153.954	-0.123	0.008
-132.356	41.347	0.149	-0.132
-131.341	24.779	0.059	0.048
-130.326	-15.586	0.119	0.075
-129.312	228.904	-0.203	-0.326
-128.297	82.666	-0.097	0.104
-127.283	197.824	0.130	0.195
-126.268	311.268	-0.072	0.132
-125.253	139.968	-0.156	-0.202
-124.239	-51.131	-0.350	-0.161
-123.224	151.253	-0.267	0.357
-122.210	-116.846	0.216	-0.039
-121.195	275.723	-0.023	-0.040
-120.180	-106.513	0.197	-0.043
-119.166	199.335	-0.301	-0.454
-118.151	-93.228	0.281	0.077
-117.137	-26.565	0.316	0.182
-116.122	24.284	0.118	0.096
-115.107	-166.961	0.131	0.005
-114.093	-113.275	0.400	-0.077
-113.078	-200.000	-0.025	0.118
-112.064	2.808	0.254	0.181
-111.049	-75.077	-0.261	-0.092
-110.034	-47.408	-0.372	-0.178
-109.020	91.227	-0.053	0.059
-108.005	800.000	0.053	0.189
-106.991	800.000	-0.087	0.295
-105.976	97.506	-0.320	-0.361
-104.962	-82.730	-0.139	-0.044
-103.947	-56.969	0.469	0.203
-102.932	-13.206	0.057	-0.036
-101.918	-200.000	0.027	0.301
-100.903	800.000	0.043	0.150
-99.889	-200.000	-0.005	-0.219
-98.874	-200.000	-0.008	-0.154
-97.859	-131.251	-0.257	-0.034
-96.845	-58.592	-0.241	0.103
-95.830	653.154	-0.103	-0.259
-94.816	140.200	0.194	-0.251
-93.801	0.564	-0.225	0.158
-92.786	-181.084	-0.186	0.004
-91.772	-200.000	0.038	0.171
-90.757	0.850	-0.191	-0.134
-89.743	13.703	0.125	-0.095
-88.728	-102.834	0.254	-0.059
-87.713	-200.000	0.000	-0.317
-86.699	-127.851	-0.104	0.015
-85.684	-200.000	0.004	-0.053
-84.670	-200.000	0.007	-0.197
-83.655	519.748	-0.147	-0.339
-82.640	-72.227	-0.184	-0.067
-81.626	-42.973	0.179	-0.089
-80.611	-29.273	0.309	-0.174
-79.597	800.000	-0.106	0.301
-78.582	-5.913	0.074	-0.049
-77.567	799.682	-0.061	-0.164
-76.553	-200.000	-0.046	-0.243
-75.538	-132.846	-0.136	-0.017
-74.524	141.364	0.105	-0.137
-73.509	172.404	-0.168	0.237
-72.494	186.335	-0.082	-0.119
-71.480	292.140	0.096	0.172
-70.465	800.000	-0.074	0.279
-69.451	-200.000	-0.045	0.514
-68.436	-80.676	0.188	0.061
-67.422	-33.452	-0.296	0.160
-66.407	36.346	-0.166	-0.144
-65.392	-171.895	0.246	-0.008
-64.378	-200.000	-0.025	0.151
-63.363	-200.000	0.056	0.254
-62.349	746.171	-0.141	0.374
-61.334	61.568	-0.910	-0.888
-60.319	-110.623	0.441	0.090
-59.305	121.476	-0.558	-0.682
-58.290	244.758	0.629	1.037
-57.276	800.000	0.578	1.689
-56.261	-200.000	108.392	592.709
-55.246	446.906	1482.814	3198.168
-54.232	146.166	2673.673	3517.639
-53.217	99.726	2288.182	2597.807
-52.203	38.483	1899.332	1660.034
-51.188	32.682	1687.765	1431.181
-50.173	30.047	1645.010	1375.340
-49.159	49.432	1698.197	1566.484
-48.144	49.496	1713.967	1581.449
-47.130	32.256	1671.842	1414.253
-46.115	29.678	1656.888	1382.292
-45.100	29.453	1652.170	1376.626
-44.086	29.440	1649.354	1374.123
-43.071	29.287	1647.148	1371.096
-42.057	29.337	1644.304	1369.045
-41.042	29.369	1642.723	1367.908
-40.027	29.435	1640.568	1366.551
-39.013	29.277	1638.536	1363.634
-37.998	29.320	1637.278	1362.850
-36.984	29.347	1636.070	1361.994
-35.969	29.543	1633.837	1361.521
-34.954	29.530	1632.514	1360.275
-33.940	29.513	1630.596	1358.495
-32.925	29.507	1629.031	1357.096
-31.911	29.503	1627.240	1355.520
-30.896	29.465	1625.827	1354.008
-29.881	29.512	1624.157	1352.909
-28.867	29.531	1622.232	1351.390
-27.852	29.456	1621.222	1349.947
-26.838	29.468	1619.643	1348.669
-25.823	29.539	1617.934	1347.709
-24.809	29.639	1616.607	1347.279
-23.794	29.480	1615.833	1345.423
-22.779	29.532	1613.778	1344.032
-21.765	29.573	1611.898	1342.713
-20.750	29.495	1610.541	1340.963
-19.736	29.622	1609.056	1340.594
-18.721	29.594	1607.705	1339.210
-17.706	29.612	1606.216	1338.049
-16.692	29.563	1604.790	1336.456
-15.677	29.548	1603.222	1334.988
-14.663	29.545	1602.398	1334.229
-13.648	29.597	1600.743	1333.172
-12.633	29.548	1598.980	1331.296
-11.619	29.465	1597.760	1329.631
-10.604	29.536	1596.113	1328.721
-9.590	29.513	1595.163	1327.708
-8.575	29.458	1593.873	1326.189
-7.560	29.501	1592.408	1325.226
-6.546	29.485	1591.835	1324.579
-5.531	29.432	1590.795	1323.282
-4.517	29.498	1589.501	1322.630
-3.502	29.476	1588.372	1321.480
-2.487	29.710	1585.872	1321.018
-1.473	29.337	1574.629	1308.955
-0.458	26.723	1555.278	1274.458
0.556	21.514	1556.686	1244.469
1.571	19.276	1580.662	1247.350
2.586	18.947	1593.775	1255.181
3.600	17.391	1540.637	1202.239
4.615	9.615	1430.598	1065.055
5.629	1.787	1365.570	967.005
6.644	0.247	1357.313	951.356
7.659	0.109	1356.208	949.622
8.673	0.093	1355.040	948.623
9.688	-0.019	1353.539	946.783
10.702	-0.202	1350.503	943.425
11.717	3.552	1355.814	970.698
12.731	12.187	1369.639	1035.195
13.746	17.291	1376.560	1072.620
14.761	17.175	1374.726	1070.361
15.775	16.228	1372.017	1062.204
16.790	15.173	1369.479	1053.510
17.804	14.438	1367.181	1047.035
18.819	14.045	1366.135	1043.672
19.834	13.834	1364.341	1040.888
20.848	13.429	1363.711	1037.775
21.863	13.287	1361.892	1035.413
22.877	13.149	1360.693	1033.547
23.892	13.149	1359.791	1032.769
24.907	12.997	1359.217	1031.292
25.921	13.021	1358.387	1030.723
26.936	13.120	1357.794	1030.798
27.950	13.189	1356.633	1030.256
28.965	13.214	1355.514	1029.468
29.980	13.320	1354.523	1029.287
30.994	13.334	1353.913	1028.821
32.009	13.458	1352.528	1028.444
33.023	13.405	1351.628	1027.340
34.038	13.328	1350.830	1026.169
35.053	13.273	1349.284	1024.558
36.067	13.201	1348.642	1023.536
37.082	13.231	1347.835	1023.017
38.096	13.312	1346.638	1022.518
39.111	13.256	1346.034	1021.624
40.126	13.196	1345.273	1020.584
41.140	13.127	1344.411	1019.416
42.155	13.087	1343.588	1018.455
43.169	13.089	1343.619	1018.399
44.184	13.132	1343.496	1018.482
45.199	13.188	1342.225	1017.772
46.213	13.169	1342.561	1017.821
47.228	13.214	1341.334	1017.079
48.242	13.155	1340.278	1015.823
49.257	13.120	1339.414	1014.862
50.271	13.180	1337.427	1013.637
51.286	13.231	1335.773	1012.608
52.301	13.185	1334.523	1011.286
53.315	13.210	1333.194	1010.345
54.330	13.093	1332.854	1009.281
55.344	13.151	1331.712	1008.682
56.359	13.070	1330.558	1007.222
57.374	13.025	1329.869	1006.339
58.388	12.990	1329.145	1005.489
59.403	12.979	1328.802	1005.076
60.417	13.112	1327.577	1004.871
61.432	13.002	1327.026	1003.694
62.447	13.031	1325.668	1002.755
63.461	12.955	1324.765	1001.519
64.476	13.020	1323.365	1000.767
65.490	13.015	1322.210	999.777
66.505	12.954	1320.597	998.095
67.520	13.083	1319.537	997.991
68.534	13.122	1318.306	997.204
69.549	13.102	1317.331	996.255
70.563	12.982	1316.616	994.905
71.578	12.990	1315.322	993.886
72.593	12.952	1314.347	992.838
73.607	12.941	1313.905	992.345
74.622	12.922	1313.110	991.544
75.636	12.988	1312.568	991.444
76.651	12.926	1311.929	990.502
77.666	12.892	1310.883	989.421
78.680	12.950	1310.447	989.350
79.695	13.073	1309.413	989.221
80.709	12.969	1308.731	987.997
81.724	12.993	1308.210	987.656
82.739	13.127	1306.761	987.275
83.753	13.165	1305.779	986.675
84.768	13.204	1305.036	986.259
85.782	13.382	1303.566	986.125
86.797	13.140	1302.400	983.710
87.812	13.166	1301.576	983.159
88.826	13.117	1300.572	982.022
89.841	13.215	1299.386	981.622
90.855	13.185	1298.284	980.523
91.870	13.304	1297.384	980.460
92.884	13.306	1296.859	979.988
93.899	13.325	1295.915	979.300
94.914	13.341	1295.221	978.787
95.928	13.252	1294.544	977.664
96.943	13.398	1292.754	977.086
97.957	13.423	1291.966	976.551
98.972	13.225	1291.427	974.887
99.987	13.237	1290.149	973.907
101.001	13.218	1289.483	973.206
102.016	13.230	1288.070	972.123
103.030	13.299	1287.621	972.104
104.045	13.262	1286.649	971.071
105.060	13.220	1285.269	969.698
106.074	13.166	1283.981	968.323
107.089	13.189	1282.518	967.266
108.103	13.148	1281.362	966.069
109.118	13.133	1279.963	964.845
110.133	13.058	1278.901	963.520
111.147	13.111	1277.565	962.738
112.162	13.038	1276.114	961.130
113.176	13.172	1275.054	961.029
114.191	13.163	1274.098	960.169
115.206	13.213	1273.088	959.615
116.220	13.107	1272.213	958.255
117.235	13.130	1270.467	956.988
118.249	13.158	1269.874	956.618
119.264	13.173	1268.305	955.437
120.279	13.166	1266.915	954.268
121.293	13.125	1266.526	953.652
122.308	13.106	1265.356	952.577
123.322	13.064	1264.291	951.448
124.337	13.180	1263.135	951.163
125.352	13.168	1262.259	950.350
126.366	13.064	1261.704	949.251
127.381	13.075	1260.426	948.268
128.395	13.084	1259.017	947.173
129.410	13.194	1257.995	946.955
130.424	13.065	1257.242	945.566
131.439	13.040	1256.006	944.411
132.454	13.172	1255.262	944.521
133.468	13.290	1254.406	944.464
134.483	13.224	1253.837	943.576
135.497	13.218	1252.533	942.479
136.512	13.236	1251.129	941.441
137.527	13.224	1249.600	940.137
138.541	13.211	1248.524	939.174
139.556	13.285	1247.069	938.414
140.570	13.252	1246.498	937.713
141.585	13.340	1244.664	936.752
142.600	13.350	1243.564	935.897
143.614	13.289	1242.967	935.022
144.629	13.410	1241.760	934.713
145.643	13.389	1240.621	933.656
146.658	13.335	1239.451	932.388
147.673	13.253	1238.274	930.956
148.687	13.251	1236.998	929.905
149.702	13.155	1235.732	928.333
150.716	13.220	1234.303	927.539
151.731	13.239	1232.962	926.559
152.746	13.288	1232.043	926.062
153.760	13.274	1231.266	925.315
154.775	13.328	1230.360	924.853
155.789	13.370	1228.814	923.847
156.804	13.378	1227.665	922.944
157.819	13.463	1226.543	922.494
158.833	13.452	1225.918	921.881
159.848	13.493	1224.907	921.266
160.862	13.424	1224.254	920.310
161.877	13.445	1223.036	919.430
162.892	13.414	1221.823	918.261
163.906	13.441	1220.893	917.632
164.921	13.395	1219.959	916.596
165.935	13.435	1219.577	916.450
166.950	13.454	1218.796	915.886
167.964	13.467	1218.234	915.451
168.979	13.478	1216.827	914.378
169.994	13.469	1216.246	913.810
171.008	13.458	1215.415	913.044
172.023	13.571	1214.324	912.766
173.037	13.647	1213.929	912.804
174.052	13.623	1213.134	911.995
175.067	13.561	1211.927	910.668
176.081	13.543	1211.123	909.886
177.096	13.591	1209.972	909.203
178.110	13.579	1208.647	908.061
179.125	13.520	1207.928	907.115
180.140	13.623	1206.257	906.342
181.154	13.642	1205.309	905.654
182.169	13.665	1203.927	904.664
183.183	13.589	1203.061	903.518
184.198	13.773	1201.514	903.276
185.213	13.770	1200.255	902.234
186.227	13.724	1199.236	901.139
187.242	13.771	1198.630	900.862
188.256	13.801	1197.344	899.978
189.271	13.806	1196.885	899.577
190.286	13.710	1195.508	897.945
191.300	13.593	1194.791	896.693
192.315	13.514	1194.127	895.688
193.329	13.634	1193.504	895.788
194.344	13.540	1193.123	894.915
195.359	13.656	1192.331	894.868
196.373	13.791	1191.299	894.742
197.388	13.903	1191.069	895.098
198.402	13.851	1190.769	894.514
199.417	13.863	1189.738	893.723
200.432	13.997	1188.861	893.703
201.446	13.953	1188.488	893.108
202.461	14.015	1187.255	892.437
203.475	14.086	1186.204	891.950
204.490	13.994	1185.159	890.590
205.504	13.994	1183.451	889.230
206.519	13.954	1182.285	888.062
207.534	13.968	1181.117	887.181
208.548	13.965	1180.291	886.461
209.563	13.880	1179.575	885.392
210.577	14.032	1178.596	885.391
211.592	14.000	1177.948	884.654
212.607	13.954	1177.334	883.873
213.621	14.084	1176.035	883.507
214.636	14.093	1174.868	882.600
215.650	14.082	1174.275	882.021
216.665	14.078	1173.694	881.484
217.680	14.155	1172.504	880.919
218.694	14.183	1171.744	880.419
219.709	14.200	1171.049	879.907
220.723	14.035	1170.444	878.504
221.738	14.235	1169.555	878.814
222.753	14.176	1169.171	878.140
223.767	14.211	1168.164	877.486
224.782	14.391	1167.230	877.658
225.796	14.313	1167.011	877.006
226.811	14.240	1166.130	875.883
227.826	14.299	1165.394	875.562
228.840	14.181	1165.171	874.698
229.855	14.280	1164.342	874.517
230.869	14.336	1162.896	873.644
231.884	14.252	1162.415	872.765
232.899	14.205	1161.779	871.967
233.913	14.168	1161.451	871.450
234.928	14.260	1160.184	870.900
235.942	14.259	1159.305	870.158
236.957	14.204	1158.759	869.386
237.972	14.297	1157.884	869.138
238.986	14.277	1157.509	868.677
240.001	14.374	1156.563	868.395
241.015	14.475	1155.182	867.807
242.030	14.363	1154.743	866.817
243.045	14.444	1153.798	866.453
244.059	14.373	1153.561	865.829
245.074	14.551	1152.366	865.777
246.088	14.548	1151.541	865.064
247.103	14.448	1151.160	864.187
248.117	14.523	1150.439	863.957
249.132	14.538	1150.073	863.682
250.147	14.662	1148.869	863.343
251.161	14.679	1148.477	863.060
252.176	14.721	1147.438	862.421
253.190	14.715	1147.161	862.102
254.205	14.852	1146.428	862.183
255.220	14.784	1145.983	861.423
256.234	14.804	1145.047	860.747
257.249	14.875	1144.203	860.399
258.263	14.893	1143.591	859.957
259.278	14.758	1143.226	858.913
260.293	14.827	1142.856	858.914
261.307	14.864	1142.268	858.584
262.322	14.911	1141.355	858.061
263.336	14.891	1140.605	857.321
264.351	14.988	1139.968	857.262
265.366	14.962	1139.278	856.536
266.380	14.997	1138.776	856.260
267.395	15.002	1137.651	855.363
268.409	14.953	1136.931	854.498
269.424	14.911	1136.467	853.862
270.439	15.016	1135.984	853.959
271.453	15.031	1134.791	853.058
272.468	15.082	1134.121	852.742
273.482	14.899	1133.581	851.330
274.497	14.998	1133.021	851.334
275.512	14.999	1132.564	850.924
276.526	14.941	1131.688	849.895
277.541	15.090	1130.842	849.943
278.555	15.098	1130.109	849.353
279.570	15.131	1129.126	848.708
280.585	15.175	1128.646	848.496
281.599	15.295	1127.453	848.133
282.614	15.248	1126.493	847.098
283.628	15.168	1125.722	846.038
284.643	15.235	1124.350	845.267
285.657	15.219	1123.889	844.765
286.672	15.200	1123.168	844.054
287.687	15.155	1122.187	843.017
288.701	15.268	1121.281	842.828
289.716	15.252	1120.475	842.069
290.730	15.399	1119.720	842.163
291.745	15.261	1119.636	841.332
292.760	15.290	1118.604	840.631
293.774	15.357	1118.310	840.672
294.789	15.421	1117.412	840.242
295.803	15.347	1117.297	839.708
296.818	15.289	1116.455	838.713
297.833	15.403	1115.182	838.251
298.847	15.385	1114.821	837.817
299.862	15.369	1113.969	837.021
300.876	15.420	1113.288	836.688
301.891	15.379	1112.744	836.003
302.906	15.517	1111.974	836.038
303.920	15.520	1110.787	835.083
304.935	15.547	1110.549	834.968
305.949	15.584	1110.134	834.764
306.964	15.571	1109.182	833.913
307.979	15.657	1108.714	833.912
308.993	15.627	1107.408	832.706
310.008	15.626	1106.888	832.238
311.022	15.746	1106.026	832.108
312.037	15.651	1105.253	830.986
313.052	15.685	1104.093	830.206
314.066	15.591	1103.505	829.229
315.081	15.500	1102.611	828.033
316.095	15.606	1101.978	828.006
317.110	15.519	1101.362	827.041
318.125	15.651	1100.421	826.915
319.139	15.631	1099.791	826.267
320.154	15.523	1099.480	825.432
321.168	15.613	1098.578	825.120
322.183	15.675	1097.795	824.765
323.197	15.672	1097.591	824.524
324.212	15.680	1096.882	823.957
325.227	15.647	1096.472	823.417
326.241	15.715	1095.674	823.074
327.256	15.798	1094.647	822.636
328.270	15.745	1093.834	821.694
329.285	15.758	1092.736	820.859
330.300	15.680	1091.892	819.772
331.314	15.628	1091.099	818.851
332.329	15.726	1090.014	818.441
333.343	15.742	1089.312	817.921
334.358	15.853	1088.569	817.829
335.373	15.892	1087.799	817.371
336.387	15.877	1087.510	817.008
337.402	15.936	1086.297	816.309
338.416	15.826	1085.709	815.261
339.431	15.883	1085.269	815.137
340.446	16.091	1084.136	815.217
341.460	16.032	1083.683	814.520
342.475	16.040	1082.814	813.835
343.489	15.946	1082.141	812.804
344.504	16.178	1081.016	813.001
345.519	16.173	1080.299	812.368
346.533	16.142	1079.485	811.534
347.548	16.176	1078.692	811.033
348.562	16.213	1078.143	810.723
349.577	16.158	1077.333	809.781
350.592	16.004	1076.873	808.622
351.606	16.035	1075.875	807.950
352.621	16.068	1075.211	807.539
353.635	16.135	1074.688	807.396
354.650	16.061	1073.920	806.394
355.665	16.036	1073.568	805.939
356.679	16.159	1072.922	805.966
357.694	16.159	1071.973	805.185
358.708	16.101	1071.736	804.656
359.723	16.333	1070.390	804.683
360.738	16.313	1069.958	804.190
361.752	16.322	1069.563	803.864
362.767	16.401	1068.901	803.674
363.781	16.167	1068.378	802.095
364.796	16.317	1067.968	802.432
365.810	16.426	1067.186	802.287
366.825	16.356	1066.781	801.580
367.840	16.496	1065.944	801.547
368.854	16.407	1065.639	800.822
369.869	16.433	1065.274	800.599
370.883	16.445	1063.753	799.443
371.898	16.590	1062.994	799.487
372.913	16.609	1062.484	799.121
373.927	16.524	1062.145	798.397
374.942	16.550	1061.597	798.038
375.956	16.614	1061.060	797.863
376.971	16.606	1060.027	796.978
377.986	16.602	1059.878	796.779
379.000	16.613	1059.414	796.409
380.015	16.646	1058.907	796.115
381.029	16.777	1057.994	795.970
382.044	16.591	1057.827	794.901
383.059	16.759	1056.762	794.820
384.073	16.810	1055.709	794.199
385.088	16.824	1055.008	793.665
386.102	16.713	1054.155	792.435
387.117	16.663	1053.312	791.496
388.132	16.670	1052.579	790.906
389.146	16.761	1051.731	790.627
390.161	16.721	1050.994	789.816
391.175	16.677	1050.242	788.976
392.190	16.760	1049.661	788.853
393.205	16.779	1049.092	788.446
394.219	16.929	1048.036	788.279
395.234	16.846	1047.623	787.515
396.248	16.866	1046.065	786.367
397.263	16.853	1045.245	785.621
398.278	16.778	1044.626	784.739
399.292	16.775	1044.143	784.292
400.307	16.914	1042.984	783.993
401.321	16.834	1042.898	783.490
402.336	16.929	1041.629	782.907
403.350	16.906	1041.226	782.427
404.365	16.914	1040.397	781.773
405.380	16.856	1040.118	781.227
406.394	16.861	1039.414	780.652
407.409	16.990	1038.291	780.332
408.423	17.077	1037.460	780.040
409.438	17.038	1036.906	779.373
410.453	17.131	1036.141	779.155
411.467	17.151	1035.700	778.848
412.482	17.187	1035.139	778.522
413.496	17.194	1034.568	778.054
414.511	17.110	1034.034	777.200
415.526	17.282	1033.219	777.307
416.540	17.280	1032.944	777.020
417.555	17.218	1032.376	776.241
418.569	17.311	1031.617	776.029
419.584	17.281	1031.423	775.678
420.599	17.301	1030.909	775.311
421.613	103.382	1322.524	1469.757
422.628	94.613	1364.961	1469.866
