DTS Sentinel unit serial number:	SN413079Multiplexer serial number:	ORYXHardware model number:	OX4-SRSoftware version number:	ORYX F/W v4.00 Oryx Data Collector v3.7.2.0data status	okinstallation	princeton_trtdifferential loss correction	single-endedforward channel	channel 2reverse channel	N/Adate	2019/09/17time	05:31:35forward acquisition time	60.00reverse acquisition time	0.00gamma	496.2192k internal	0.2330k external	0.2330temperature offset calibration	0.9974default loss term (dB/km)	0.3790temperature slope calibration	1.0000multiplexer offset coefficient	1.0000multiplexer slope coefficient	1.0000fibre end	0.00T internal ref (°C)	29.25T ext. ref 1 (°C)	0.14T ext. ref 2 (°C)	23.19length (m)	temperature (°C)	Stokes	anti-Stokes-747.200	-18.273	-0.082	0.052
-746.185	-200.000	-0.076	-0.434
-745.171	30.065	0.291	-0.250
-744.156	4.312	0.247	0.182
-743.142	-200.000	-0.031	0.240
-742.127	-50.677	0.165	0.078
-741.112	-128.864	0.209	0.030
-740.098	-200.000	-0.002	-0.017
-739.083	-85.810	-0.021	0.006
-738.069	556.463	0.059	0.143
-737.054	-200.000	-0.041	-0.385
-736.039	116.042	-0.070	-0.086
-735.025	-69.394	0.418	0.161
-734.010	800.000	-0.038	0.133
-732.996	418.476	0.097	-0.209
-731.981	-200.000	-0.009	0.079
-730.966	4.650	-0.090	-0.066
-729.952	337.934	-0.191	0.374
-728.937	423.874	-0.111	0.240
-727.923	-19.218	-0.055	0.034
-726.908	-56.858	-0.269	0.120
-725.894	192.860	-0.229	-0.348
-724.879	571.324	-0.039	0.096
-723.864	-109.243	-0.130	0.028
-722.850	97.825	-0.108	0.125
-721.835	-141.393	0.366	0.037
-720.821	149.515	-0.198	0.270
-719.806	178.628	0.111	0.163
-718.791	759.238	-0.037	0.100
-717.777	800.000	-0.046	-0.138
-716.762	6.067	-0.212	-0.158
-715.748	-102.827	-0.211	0.051
-714.733	800.000	0.056	-0.171
-713.718	455.932	-0.113	-0.253
-712.704	88.287	0.119	-0.133
-711.689	353.825	-0.033	-0.065
-710.675	-11.784	0.129	0.085
-709.660	-45.560	0.204	-0.101
-708.645	248.477	-0.102	0.173
-707.631	-24.382	0.177	0.106
-706.616	-200.000	-0.038	-0.224
-705.602	354.809	-0.098	-0.195
-704.587	134.562	0.091	0.118
-703.572	27.230	-0.276	-0.233
-702.558	-107.823	-0.141	0.031
-701.543	356.352	0.200	-0.400
-700.529	662.939	0.114	-0.295
-699.514	-119.480	-0.315	0.055
-698.499	112.363	0.123	-0.149
-697.485	-104.372	-0.265	-0.062
-696.470	-153.674	-0.245	-0.017
-695.456	16.279	0.080	-0.063
-694.441	-58.155	-0.057	-0.025
-693.426	-200.000	0.031	0.417
-692.412	-31.863	-0.275	0.155
-691.397	800.000	-0.097	0.271
-690.383	-103.747	-0.331	-0.078
-689.368	800.000	0.106	-0.346
-688.354	116.027	0.234	-0.288
-687.339	-34.003	0.384	-0.212
-686.324	-17.402	-0.205	-0.129
-685.310	-17.107	-0.264	-0.167
-684.295	-118.732	0.329	-0.058
-683.281	-200.000	-0.038	-0.178
-682.266	-180.099	-0.246	-0.005
-681.251	351.564	0.045	0.089
-680.237	-164.101	-0.654	0.030
-679.222	-200.000	0.060	0.510
-678.208	-144.400	0.155	-0.014
-677.193	-165.590	0.328	-0.014
-676.178	390.144	0.086	0.180
-675.164	-49.043	-0.099	-0.048
-674.149	-30.876	0.126	-0.072
-673.135	108.887	-0.058	0.069
-672.120	-95.080	-0.109	-0.029
-671.105	-200.000	0.030	-0.200
-670.091	38.378	-0.332	-0.297
-669.076	-116.531	0.172	0.032
-668.062	-200.000	0.040	-0.180
-667.047	-78.824	-0.268	0.092
-666.032	-200.000	0.069	0.309
-665.018	150.428	0.063	0.086
-664.003	18.802	0.176	0.142
-662.989	-125.916	0.342	0.052
-661.974	128.296	-0.190	-0.243
-660.959	-200.000	0.043	-0.470
-659.945	246.574	-0.110	-0.186
-658.930	-200.000	0.101	0.459
-657.916	800.000	-0.065	0.261
-656.901	548.976	-0.102	-0.245
-655.886	-200.000	-0.008	-0.397
-654.872	-134.069	-0.309	0.038
-653.857	-200.000	-0.028	-0.124
-652.843	77.079	-0.178	0.189
-651.828	800.000	0.105	-0.322
-650.814	-65.673	0.363	0.146
-649.799	259.043	-0.121	0.209
-648.784	-200.000	0.006	0.423
-647.770	61.713	-0.052	0.051
-646.755	-157.508	0.167	0.010
-645.741	-94.344	-0.238	-0.065
-644.726	-14.427	-0.063	-0.041
-643.711	-80.257	0.417	0.140
-642.697	-32.105	0.130	0.073
-641.682	28.826	-0.125	0.106
-640.668	151.704	-0.178	-0.244
-639.653	170.263	0.082	0.118
-638.638	21.931	-0.145	-0.118
-637.624	-147.169	-0.144	0.012
-636.609	800.000	0.114	-0.403
-635.595	-129.538	0.324	-0.045
-634.580	-5.582	-0.156	-0.107
-633.565	-21.963	-0.202	0.123
-632.551	-200.000	-0.055	-0.266
-631.536	-173.397	0.123	-0.004
-630.522	184.911	0.046	0.069
-629.507	-200.000	0.008	0.125
-628.492	44.768	0.087	0.081
-627.478	-100.226	-0.177	-0.044
-626.463	-200.000	0.011	0.147
-625.449	-53.008	0.179	-0.083
-624.434	783.288	0.073	0.200
-623.419	23.184	0.272	0.224
-622.405	79.652	-0.098	0.105
-621.390	-11.309	-0.263	-0.174
-620.376	-58.379	0.175	-0.076
-619.361	-8.713	-0.078	0.052
-618.346	-39.319	0.163	0.086
-617.332	-45.352	0.214	-0.106
-616.317	-200.000	-0.009	-0.264
-615.303	-107.056	0.059	-0.013
-614.288	339.821	-0.102	-0.198
-613.273	-200.000	-0.041	0.433
-612.259	-33.357	-0.528	0.292
-611.244	286.049	-0.099	0.179
-610.230	800.000	0.044	-0.141
-609.215	182.854	0.051	0.076
-608.201	-78.607	-0.268	0.092
-607.186	94.472	0.109	0.124
-606.171	723.011	0.116	0.308
-605.157	158.328	-0.095	-0.132
-604.142	-200.000	-0.023	0.266
-603.128	504.574	0.124	-0.288
-602.113	342.722	-0.054	0.106
-601.098	800.000	-0.059	0.195
-600.084	12.332	-0.202	0.156
-599.069	65.712	0.190	-0.193
-598.055	176.758	-0.230	0.335
-597.040	-11.438	-0.197	-0.130
-596.025	64.673	0.063	0.064
-595.011	-98.980	-0.111	-0.028
-593.996	-47.761	-0.285	-0.138
-592.982	263.515	0.270	-0.470
-591.967	-200.000	0.020	-0.276
-590.952	67.780	-0.193	-0.197
-589.938	-178.709	-0.023	0.001
-588.923	-87.444	-0.072	0.022
-587.909	-23.747	-0.234	-0.140
-586.894	-115.539	0.346	-0.065
-585.879	-48.405	0.154	0.074
-584.865	-200.000	-0.002	0.022
-583.850	176.524	0.241	0.351
-582.836	-59.124	0.099	0.043
-581.821	-200.000	0.000	-0.118
-580.806	231.129	0.196	-0.321
-579.792	606.154	-0.031	-0.078
-578.777	282.140	0.061	-0.110
-577.763	-200.000	0.066	-0.324
-576.748	149.111	-0.103	-0.140
-575.733	104.006	-0.100	-0.118
-574.719	254.111	0.127	0.218
-573.704	-57.308	-0.085	-0.037
-572.690	449.686	0.053	0.118
-571.675	18.569	0.121	0.097
-570.661	-108.321	-0.216	0.047
-569.646	213.796	0.100	-0.159
-568.631	14.432	0.080	-0.063
-567.617	64.774	-0.051	0.051
-566.602	-200.000	0.031	-0.224
-565.588	504.189	-0.048	0.112
-564.573	130.005	0.201	-0.257
-563.558	800.000	0.102	-0.292
-562.544	250.559	-0.144	-0.245
-561.529	-200.000	0.061	0.298
-560.515	-34.556	0.308	0.169
-559.500	-20.259	-0.111	0.068
-558.485	-145.339	-0.107	-0.010
-557.471	-200.000	0.002	-0.195
-556.456	-200.000	-0.087	0.415
-555.442	-102.543	-0.275	-0.066
-554.427	79.100	0.228	-0.244
-553.412	-200.000	-0.022	0.192
-552.398	51.270	-0.126	0.119
-551.383	-200.000	0.048	-0.265
-550.369	-54.980	-0.308	-0.139
-549.354	-200.000	0.054	-0.282
-548.339	-80.510	0.151	0.050
-547.325	-97.427	0.056	0.014
-546.310	-138.949	0.317	0.034
-545.296	-111.439	-0.164	-0.033
-544.281	800.000	-0.039	0.159
-543.266	-200.000	-0.030	-0.185
-542.252	73.824	-0.224	0.235
-541.237	65.696	0.186	0.189
-540.223	-49.590	0.040	0.019
-539.208	-82.640	-0.164	-0.053
-538.193	-40.644	-0.415	-0.215
-537.179	-200.000	0.012	0.144
-536.164	121.837	-0.101	-0.126
-535.150	160.696	0.049	0.068
-534.135	-88.113	0.211	-0.063
-533.121	800.000	0.064	0.219
-532.106	123.170	-0.175	0.219
-531.091	-200.000	-0.019	0.235
-530.077	-200.000	0.031	0.470
-529.062	-40.125	-0.251	-0.130
-528.048	165.310	0.067	-0.095
-527.033	-12.957	-0.172	-0.112
-526.018	-64.419	0.095	0.039
-525.004	385.678	0.090	-0.186
-523.989	-33.783	0.149	0.082
-522.975	-71.923	0.098	0.036
-521.960	490.612	-0.054	-0.123
-520.945	-169.154	0.051	0.002
-519.931	-200.000	0.024	-0.144
-518.916	46.496	0.036	-0.034
-517.902	-168.028	0.330	0.013
-516.887	410.550	-0.068	-0.144
-515.872	107.592	-0.094	0.111
-514.858	800.000	0.025	-0.087
-513.843	27.422	-0.125	-0.105
-512.829	262.099	0.133	0.230
-511.814	-200.000	-0.001	-0.107
-510.799	-200.000	0.018	0.242
-509.785	-147.135	0.080	0.007
-508.770	-200.000	0.082	-0.406
-507.756	6.945	-0.116	0.086
-506.741	205.887	-0.121	0.187
-505.726	137.442	0.149	0.194
-504.712	-200.000	0.001	-0.224
-503.697	173.500	0.080	-0.116
-502.683	800.000	0.064	-0.193
-501.668	-154.782	0.306	-0.020
-500.653	-52.487	0.093	-0.043
-499.639	147.821	-0.221	-0.297
-498.624	-6.617	0.143	0.097
-497.610	245.547	0.189	0.317
-496.595	-117.520	-0.127	0.023
-495.581	5.385	0.277	-0.204
-494.566	344.894	-0.033	0.065
-493.551	-200.000	-0.028	0.130
-492.537	-13.435	-0.155	-0.100
-491.522	-58.438	0.218	-0.094
-490.508	217.476	0.037	-0.059
-489.493	-200.000	-0.071	-0.373
-488.478	800.000	0.052	-0.171
-487.464	-38.916	0.129	0.068
-486.449	101.073	-0.217	0.252
-485.435	82.855	0.116	-0.126
-484.420	137.838	-0.090	-0.117
-483.405	145.304	0.145	-0.194
-482.391	-54.505	-0.055	0.025
-481.376	-200.000	-0.050	0.314
-480.362	-25.824	-0.041	-0.024
-479.347	-35.955	0.230	0.124
-478.332	91.939	-0.082	0.092
-477.318	-108.748	0.262	-0.056
-476.303	24.663	0.400	-0.330
-475.289	-23.267	0.181	-0.109
-474.274	25.986	-0.032	0.027
-473.259	165.244	-0.253	0.356
-472.245	-77.198	-0.016	0.005
-471.230	-83.536	-0.378	-0.121
-470.216	-93.144	-0.192	-0.053
-469.201	-161.368	-0.362	0.019
-468.186	141.494	0.167	-0.221
-467.172	-131.268	-0.096	-0.013
-466.157	-200.000	0.013	0.065
-465.143	358.402	0.095	0.188
-464.128	116.582	-0.062	0.075
-463.113	97.791	0.164	0.188
-462.099	64.374	-0.041	-0.041
-461.084	-194.881	0.149	0.001
-460.070	479.381	0.046	0.104
-459.055	62.476	0.227	0.226
-458.040	-25.460	0.168	0.099
-457.026	368.190	0.137	-0.277
-456.011	-30.464	0.098	0.056
-454.997	-86.090	-0.366	0.112
-453.982	239.805	0.060	0.100
-452.968	55.410	-0.018	0.017
-451.953	-98.259	0.241	0.062
-450.938	81.596	0.053	-0.057
-449.924	215.613	0.066	-0.104
-448.909	-53.871	-0.171	0.078
-447.895	-137.099	0.201	0.023
-446.880	800.000	-0.010	-0.041
-445.865	-6.146	-0.193	0.131
-444.851	-42.161	-0.128	0.065
-443.836	155.086	-0.108	-0.148
-442.822	-2.059	-0.171	-0.120
-441.807	-200.000	-0.014	0.185
-440.792	-114.106	0.112	0.021
-439.778	-150.231	0.157	0.012
-438.763	365.969	-0.166	0.332
-437.749	-89.862	-0.182	0.053
-436.734	-46.539	0.089	0.043
-435.719	113.679	-0.085	0.103
-434.705	669.330	-0.044	0.114
-433.690	-159.343	-0.278	-0.015
-432.676	-87.596	0.262	0.079
-431.661	-103.402	-0.286	-0.067
-430.646	-37.318	0.058	-0.031
-429.632	-169.403	-0.259	0.009
-428.617	800.000	0.086	-0.264
-427.603	116.702	0.209	-0.255
-426.588	-57.365	-0.201	0.088
-425.573	-48.602	0.343	0.164
-424.559	-200.000	0.050	-0.260
-423.544	4.041	0.272	-0.198
-422.530	-122.792	0.343	-0.055
-421.515	-200.000	-0.004	-0.184
-420.500	800.000	0.049	0.207
-419.486	-70.375	-0.273	-0.103
-418.471	151.715	0.123	-0.167
-417.457	-12.767	0.120	-0.078
-416.442	174.011	-0.126	-0.181
-415.428	13.541	-0.244	0.188
-414.413	-119.589	0.279	-0.048
-413.398	-130.773	0.341	-0.045
-412.384	-6.743	-0.362	0.245
-411.369	-34.475	0.290	-0.158
-410.355	-136.069	-0.198	0.023
-409.340	-200.000	-0.028	0.193
-408.325	338.995	-0.051	-0.099
-407.311	-200.000	0.040	0.243
-406.296	119.377	-0.213	0.262
-405.282	-136.934	0.208	-0.024
-404.267	72.243	0.184	-0.191
-403.252	678.536	-0.058	-0.150
-402.238	-61.641	-0.165	0.069
-401.223	495.548	-0.122	-0.278
-400.209	-200.000	-0.058	0.409
-399.194	377.938	0.112	0.227
-398.179	161.654	-0.194	-0.270
-397.165	159.811	0.239	0.331
-396.150	800.000	0.075	0.209
-395.136	-200.000	0.008	-0.215
-394.121	44.515	-0.141	-0.129
-393.106	114.180	-0.185	-0.223
-392.092	-148.731	-0.046	-0.004
-391.077	-22.093	0.097	-0.058
-390.063	-51.292	0.353	0.164
-389.048	40.863	0.214	-0.192
-388.033	-200.000	-0.008	-0.114
-387.019	634.517	-0.098	0.248
-386.004	-134.924	-0.344	-0.041
-384.990	187.591	0.091	0.135
-383.975	-27.181	-0.043	0.025
-382.960	112.501	-0.222	-0.267
-381.946	-200.000	-0.006	-0.045
-380.931	5.654	0.209	-0.153
-379.917	-200.000	-0.009	-0.197
-378.902	-153.080	0.133	0.009
-377.888	595.165	-0.088	-0.217
-376.873	168.410	0.041	0.057
-375.858	163.040	0.182	-0.253
-374.844	88.075	-0.109	-0.120
-373.829	-52.645	-0.432	0.198
-372.815	188.309	0.214	0.318
-371.800	-118.748	-0.344	-0.060
-370.785	-89.125	-0.221	-0.065
-369.771	-96.970	0.166	0.043
-368.756	195.579	-0.103	0.156
-367.742	-27.298	-0.075	-0.043
-366.727	-37.560	-0.190	-0.100
-365.712	551.316	0.077	0.183
-364.698	-200.000	0.001	0.126
-363.683	135.273	-0.130	-0.167
-362.669	135.205	-0.226	0.292
-361.654	-200.000	-0.046	0.208
-360.639	-83.061	-0.194	-0.062
-359.625	-159.318	-0.387	0.021
-358.610	167.748	0.060	0.084
-357.596	-150.680	-0.269	0.020
-356.581	216.458	-0.178	-0.281
-355.566	-133.207	-0.150	0.019
-354.552	-36.751	0.311	0.166
-353.537	800.000	0.102	0.335
-352.523	392.492	0.050	0.102
-351.508	40.135	0.118	0.105
-350.493	128.127	0.048	0.061
-349.479	-21.927	-0.193	-0.116
-348.464	-200.000	0.015	-0.191
-347.450	405.604	-0.141	-0.296
-346.435	195.980	-0.209	0.315
-345.420	-31.155	-0.288	-0.161
-344.406	229.762	-0.078	-0.126
-343.391	56.754	-0.096	0.092
-342.377	-200.000	0.015	-0.193
-341.362	180.511	-0.087	-0.126
-340.348	43.418	-0.142	0.128
-339.333	-137.693	-0.190	-0.021
-338.318	112.849	-0.154	-0.185
-337.304	-191.893	-0.272	0.003
-336.289	-200.000	0.039	0.173
-335.275	-45.898	-0.120	-0.059
-334.260	146.191	0.291	0.387
-333.245	-200.000	-0.078	-0.362
-332.231	243.749	0.106	-0.177
-331.216	800.000	0.008	-0.023
-330.202	-71.575	-0.233	-0.086
-329.187	-143.348	-0.197	-0.019
-328.172	-121.551	0.269	-0.044
-327.158	-200.000	-0.056	-0.376
-326.143	-200.000	-0.046	-0.224
-325.129	-20.276	0.089	-0.054
-324.114	800.000	-0.107	-0.350
-323.099	22.745	0.167	0.135
-322.085	114.573	-0.190	0.230
-321.070	-4.959	-0.250	-0.170
-320.056	132.150	0.107	0.137
-319.041	-119.883	0.126	-0.021
-318.026	800.000	0.075	-0.254
-317.012	35.620	-0.102	0.089
-315.997	181.178	0.140	-0.203
-314.983	-113.404	0.234	-0.045
-313.968	196.410	-0.099	0.150
-312.953	-78.230	0.223	-0.076
-311.939	520.157	-0.122	0.284
-310.924	800.000	-0.096	0.356
-309.910	240.227	-0.162	-0.267
-308.895	61.148	-0.237	-0.233
-307.880	-103.672	0.151	0.035
-306.866	259.753	-0.125	-0.214
-305.851	121.459	-0.060	0.075
-304.837	-159.981	-0.071	0.004
-303.822	-0.085	0.253	0.178
-302.807	-58.775	-0.344	0.147
-301.793	-200.000	-0.027	0.172
-300.778	-200.000	-0.005	-0.033
-299.764	225.665	-0.075	-0.120
-298.749	-139.539	0.214	0.023
-297.735	152.363	0.221	-0.299
-296.720	3.935	0.274	-0.198
-295.705	-200.000	0.012	-0.128
-294.691	-43.207	-0.026	-0.013
-293.676	-138.539	-0.356	0.039
-292.662	800.000	-0.042	0.128
-291.647	-116.353	0.081	-0.015
-290.632	-200.000	0.017	-0.156
-289.618	464.535	0.076	-0.168
-288.603	-187.717	-0.373	0.005
-287.589	-87.354	0.053	0.016
-286.574	37.343	-0.112	0.099
-285.559	-148.282	0.238	-0.019
-284.545	69.995	-0.236	0.241
-283.530	-86.940	-0.384	0.116
-282.516	-200.000	-0.025	-0.171
-281.501	454.401	0.064	0.141
-280.486	125.041	-0.028	0.035
-279.472	-181.008	-0.147	0.003
-278.457	-22.884	-0.084	0.050
-277.443	138.200	0.045	0.058
-276.428	53.149	-0.280	0.265
-275.413	57.675	0.106	0.103
-274.399	32.098	-0.128	-0.109
-273.384	4.579	-0.157	0.114
-272.370	-200.000	-0.002	-0.341
-271.355	88.157	0.351	0.385
-270.340	221.982	0.157	0.250
-269.326	-200.000	-0.050	-0.265
-268.311	-200.000	0.040	-0.292
-267.297	-17.220	-0.315	0.196
-266.282	82.482	0.104	0.111
-265.267	-6.221	0.243	0.164
-264.253	21.150	0.289	0.232
-263.238	-127.437	0.094	0.013
-262.224	800.000	0.055	0.217
-261.209	-69.000	0.100	-0.038
-260.195	-66.275	-0.047	0.019
-259.180	22.164	-0.090	0.072
-258.165	-200.000	0.017	-0.111
-257.151	537.193	0.084	0.198
-256.136	163.185	0.059	-0.082
-255.122	-48.687	0.126	0.060
-254.107	800.000	0.072	0.223
-253.092	211.948	0.106	-0.165
-252.078	80.949	-0.103	0.109
-251.063	36.715	-0.278	0.243
-250.049	800.000	-0.031	0.098
-249.034	-111.621	0.153	-0.031
-248.019	-34.355	0.347	0.188
-247.005	154.604	-0.021	0.028
-245.990	204.981	-0.147	-0.226
-244.976	82.533	-0.175	0.188
-243.961	-102.625	0.114	0.027
-242.946	165.649	-0.203	-0.284
-241.932	-122.054	0.306	-0.050
-240.917	28.826	0.150	-0.125
-239.903	-200.000	0.008	-0.233
-238.888	-91.910	-0.297	-0.083
-237.873	89.406	0.226	-0.249
-236.859	-104.904	0.300	-0.068
-235.844	-50.696	-0.315	0.147
-234.830	-184.859	0.752	-0.012
-233.815	-90.826	0.206	0.059
-232.800	-115.525	0.159	-0.029
-231.786	190.690	0.163	-0.242
-230.771	800.000	0.057	0.157
-229.757	34.251	0.101	-0.087
-228.742	-167.542	-0.213	0.008
-227.727	540.707	0.067	0.157
-226.713	-176.269	-0.188	0.005
-225.698	-91.436	0.367	0.103
-224.684	448.301	0.252	-0.548
-223.669	579.380	-0.059	-0.143
-222.655	-81.640	-0.315	0.102
-221.640	50.996	0.096	0.090
-220.625	800.000	-0.105	0.353
-219.611	-93.874	-0.225	-0.061
-218.596	-8.602	0.324	0.215
-217.582	-200.000	0.008	-0.267
-216.567	-200.000	0.020	0.172
-215.552	0.905	-0.172	0.122
-214.538	-38.577	0.258	-0.134
-213.523	232.771	-0.085	-0.138
-212.509	-50.411	0.102	0.048
-211.494	9.287	0.117	0.087
-210.479	299.322	0.097	-0.177
-209.465	-17.213	-0.083	0.051
-208.450	-200.000	0.061	-0.302
-207.436	-200.000	-0.007	-0.080
-206.421	-200.000	0.111	-0.571
-205.406	93.417	-0.124	-0.139
-204.392	-33.311	0.173	0.095
-203.377	-200.000	0.003	0.282
-202.363	247.730	0.111	-0.185
-201.348	135.679	0.103	0.132
-200.333	33.266	0.227	-0.194
-199.319	800.000	0.062	0.179
-198.304	-37.603	-0.260	0.136
-197.290	-200.000	0.042	0.270
-196.275	27.204	-0.097	-0.080
-195.260	255.860	0.040	0.068
-194.246	-200.000	-0.016	0.477
-193.231	-106.297	0.125	0.028
-192.217	59.059	0.151	-0.147
-191.202	444.041	0.112	-0.242
-190.187	-52.258	-0.250	-0.114
-189.173	-132.914	0.255	-0.032
-188.158	-200.000	0.001	0.114
-187.144	163.611	0.229	0.318
-186.129	24.009	0.103	0.084
-185.114	36.188	-0.195	0.169
-184.100	-60.197	0.103	0.043
-183.085	-85.262	0.143	-0.044
-182.071	520.453	0.110	0.253
-181.056	-153.813	0.482	-0.033
-180.042	590.124	0.084	-0.205
-179.027	-97.045	-0.322	-0.083
-178.012	4.906	-0.163	0.118
-176.998	94.095	-0.179	0.200
-175.983	-154.543	0.004	0.000
-174.969	-200.000	-0.028	0.140
-173.954	-35.382	-0.262	0.140
-172.939	-68.480	0.063	-0.024
-171.925	141.703	0.176	-0.230
-170.910	-99.206	0.223	-0.056
-169.896	-200.000	-0.001	0.209
-168.881	-92.651	-0.165	-0.046
-167.866	-154.067	0.123	-0.008
-166.852	440.644	0.120	0.258
-165.837	437.308	-0.146	-0.314
-164.823	114.589	0.219	-0.263
-163.808	-200.000	-0.044	0.259
-162.793	-200.000	0.008	0.088
-161.779	-66.624	-0.224	0.087
-160.764	-200.000	0.265	-0.001
-159.750	149.146	0.111	-0.148
-158.735	27.597	-0.218	-0.181
-157.720	306.296	0.036	-0.065
-156.706	-200.000	-0.006	0.196
-155.691	78.245	-0.021	0.022
-154.677	-69.548	-0.236	-0.089
-153.662	90.077	-0.247	0.272
-152.647	426.191	0.128	-0.271
-151.633	-10.906	-0.395	0.256
-150.618	127.596	0.126	-0.157
-149.604	-60.188	-0.268	0.112
-148.589	-200.000	-0.045	0.282
-147.574	-58.812	-0.148	0.063
-146.560	-200.000	-0.035	0.437
-145.545	117.131	-0.151	0.182
-144.531	30.792	-0.297	0.250
-143.516	-63.647	0.422	0.170
-142.502	-139.853	-0.273	-0.028
-141.487	15.776	-0.286	0.221
-140.472	2.231	-0.158	-0.112
-139.458	-106.960	0.450	-0.098
-138.443	-56.583	-0.185	0.080
-137.429	800.000	0.061	-0.167
-136.414	-200.000	-0.013	0.087
-135.399	-91.464	-0.102	-0.029
-134.385	-49.046	0.059	0.028
-133.370	-71.224	0.341	-0.126
-132.356	-107.431	0.568	0.122
-131.341	-11.454	-0.261	-0.169
-130.326	100.752	-0.070	0.080
-129.312	-34.669	0.322	0.173
-128.297	-79.019	-0.139	-0.046
-127.283	-76.230	-0.267	0.092
-126.268	-200.000	-0.003	-0.069
-125.253	-145.447	-0.338	-0.030
-124.239	-200.000	-0.073	0.321
-123.224	-101.943	0.135	0.032
-122.210	591.505	0.082	-0.200
-121.195	-90.653	-0.134	-0.038
-120.180	-71.684	0.115	-0.042
-119.166	-200.000	-0.059	0.270
-118.151	297.337	0.116	-0.210
-117.137	-122.918	-0.317	-0.050
-116.122	253.782	0.111	0.186
-115.107	25.315	-0.061	0.050
-114.093	128.918	-0.026	0.032
-113.078	337.796	-0.247	0.471
-112.064	-200.000	-0.031	-0.151
-111.049	-200.000	0.047	-0.453
-110.034	-136.296	0.338	-0.039
-109.020	258.475	-0.255	0.431
-108.005	-18.033	-0.364	0.224
-106.991	80.240	-0.269	0.285
-105.976	800.000	0.039	0.126
-104.962	800.000	-0.089	-0.316
-103.947	-200.000	-0.043	0.274
-102.932	-200.000	0.028	0.123
-101.918	191.942	0.143	-0.212
-100.903	-200.000	-0.018	-0.189
-99.889	43.725	-0.192	-0.172
-98.874	129.557	0.167	-0.210
-97.859	800.000	-0.063	-0.184
-96.845	197.644	0.184	-0.276
-95.830	763.989	0.019	0.052
-94.816	74.236	0.072	0.075
-93.801	-200.000	0.031	0.179
-92.786	800.000	0.083	-0.292
-91.772	-54.831	-0.071	0.032
-90.757	-93.742	0.479	-0.130
-89.743	47.508	-0.125	0.114
-88.728	158.195	0.225	-0.306
-87.713	77.989	-0.255	-0.267
-86.699	-62.131	-0.178	-0.073
-85.684	-153.040	0.158	0.011
-84.670	-32.831	-0.075	0.041
-83.655	221.204	0.055	0.086
-82.640	-72.372	0.254	-0.092
-81.626	-22.139	0.092	-0.055
-80.611	800.000	-0.046	-0.182
-79.597	-16.396	0.498	0.310
-78.582	-200.000	-0.036	-0.349
-77.567	34.207	0.069	0.059
-76.553	-14.392	-0.239	0.151
-75.538	342.934	0.117	-0.225
-74.524	-83.503	0.158	0.050
-73.509	-58.708	0.285	0.121
-72.494	-155.303	-0.311	0.020
-71.480	-123.202	-0.254	-0.040
-70.465	124.674	-0.146	-0.180
-69.451	-82.123	0.142	0.046
-68.436	-150.955	0.117	-0.009
-67.422	-178.963	-0.330	-0.007
-66.407	-156.430	0.242	0.015
-65.392	-166.064	0.172	-0.007
-64.378	68.561	0.242	0.243
-63.363	-94.955	0.117	-0.031
-62.349	-45.598	-0.405	0.197
-61.334	102.059	-0.865	-0.990
-60.319	-17.794	0.529	0.325
-59.305	800.000	-0.364	-1.029
-58.290	800.000	0.406	1.204
-57.276	287.279	0.915	1.622
-56.261	-200.000	110.174	603.704
-55.246	444.271	1501.433	3228.923
-54.232	144.261	2690.920	3519.924
-53.217	99.527	2293.829	2601.381
-52.203	38.375	1901.718	1660.580
-51.188	32.486	1690.185	1431.202
-50.173	29.861	1647.269	1375.330
-49.159	49.596	1702.091	1570.713
-48.144	49.647	1717.005	1584.791
-47.130	32.011	1674.189	1413.853
-46.115	29.313	1659.713	1381.391
-45.100	29.146	1654.335	1375.616
-44.086	29.144	1651.960	1373.568
-43.071	29.121	1649.202	1371.051
-42.057	29.007	1647.183	1368.468
-41.042	29.073	1644.846	1366.963
-40.027	29.096	1642.728	1365.320
-39.013	29.109	1640.648	1363.632
-37.998	29.113	1639.608	1362.742
-36.984	29.077	1638.084	1361.156
-35.969	29.217	1636.339	1360.689
-34.954	29.345	1634.640	1360.168
-33.940	29.256	1633.009	1358.095
-32.925	29.148	1631.714	1356.174
-31.911	29.269	1630.266	1355.803
-30.896	29.219	1628.152	1353.629
-29.881	29.178	1626.756	1352.110
-28.867	29.269	1624.868	1351.156
-27.852	29.235	1623.423	1349.649
-26.838	29.175	1622.392	1348.303
-25.823	29.349	1620.271	1347.754
-24.809	29.314	1619.540	1346.836
-23.794	29.156	1618.731	1344.958
-22.779	29.230	1616.729	1343.786
-21.765	29.232	1614.843	1342.180
-20.750	29.262	1613.247	1341.016
-19.736	29.228	1612.176	1339.822
-18.721	29.270	1610.345	1338.551
-17.706	29.297	1608.945	1337.533
-16.692	29.214	1607.908	1336.015
-15.677	29.287	1605.911	1334.831
-14.663	29.317	1604.577	1333.891
-13.648	29.372	1602.907	1332.846
-12.633	29.355	1601.610	1331.592
-11.619	29.253	1600.461	1329.847
-10.604	29.275	1598.855	1328.619
-9.590	29.394	1597.614	1328.390
-8.575	29.292	1596.259	1326.474
-7.560	29.353	1594.870	1325.706
-6.546	29.337	1593.388	1324.311
-5.531	29.358	1592.528	1323.695
-4.517	29.239	1591.948	1322.304
-3.502	29.277	1590.478	1321.300
-2.487	29.324	1588.757	1320.155
-1.473	29.029	1576.893	1308.148
-0.458	25.966	1557.772	1270.688
0.556	20.516	1558.342	1237.652
1.571	17.918	1581.633	1237.237
2.586	17.495	1594.298	1243.941
3.600	16.204	1542.314	1194.141
4.615	9.018	1433.687	1062.511
5.629	1.733	1369.552	968.674
6.644	0.191	1361.696	953.273
7.659	0.176	1359.744	951.727
8.673	0.148	1359.229	951.103
9.688	0.036	1357.392	949.030
10.702	-0.141	1354.552	945.849
11.717	3.388	1359.807	971.711
12.731	11.730	1372.460	1033.574
13.746	16.986	1379.604	1072.166
14.761	17.194	1378.965	1072.885
15.775	16.268	1376.316	1064.894
16.790	15.268	1373.618	1056.412
17.804	14.477	1371.193	1049.478
18.819	14.070	1370.253	1046.101
19.834	13.888	1368.534	1043.552
20.848	13.617	1367.378	1040.881
21.863	13.493	1365.836	1038.837
22.877	13.174	1364.930	1036.055
23.892	13.199	1363.934	1035.361
24.907	13.200	1363.311	1034.803
25.921	13.185	1362.235	1033.802
26.936	13.135	1361.677	1032.972
27.950	13.265	1360.706	1032.959
28.965	13.356	1359.280	1032.354
29.980	13.336	1358.804	1031.774
30.994	13.478	1357.167	1031.327
32.009	13.437	1356.618	1030.563
33.023	13.344	1356.075	1029.481
34.038	13.362	1354.696	1028.456
35.053	13.271	1353.090	1026.576
36.067	13.360	1352.179	1026.351
37.082	13.373	1351.326	1025.692
38.096	13.375	1350.359	1024.878
39.111	13.450	1349.383	1024.511
40.126	13.316	1348.786	1023.136
41.140	13.281	1347.430	1021.803
42.155	13.209	1347.346	1021.201
43.169	13.255	1347.689	1021.657
44.184	13.211	1347.329	1021.025
45.199	13.156	1346.861	1020.240
46.213	13.287	1346.474	1020.662
47.228	13.270	1345.397	1019.649
48.242	13.340	1343.718	1018.722
49.257	13.287	1342.747	1017.569
50.271	13.381	1340.945	1016.687
51.286	13.277	1339.849	1015.128
52.301	13.261	1338.887	1014.212
53.315	13.325	1337.529	1013.485
54.330	13.325	1336.507	1012.623
55.344	13.206	1335.401	1010.969
56.359	13.260	1334.068	1010.197
57.374	13.204	1333.484	1009.325
58.388	13.095	1332.581	1007.885
59.403	13.103	1332.278	1007.620
60.417	13.157	1331.310	1007.124
61.432	13.185	1330.434	1006.547
62.447	13.141	1329.721	1005.646
63.461	13.057	1328.274	1003.954
64.476	13.119	1327.188	1003.420
65.490	13.126	1326.069	1002.528
66.505	13.138	1324.428	1001.274
67.520	13.129	1323.307	1000.281
68.534	13.212	1322.086	999.774
69.549	13.175	1320.960	998.609
70.563	13.193	1320.195	998.049
71.578	13.127	1319.048	996.698
72.593	12.953	1318.226	994.940
73.607	13.052	1317.404	994.826
74.622	13.046	1316.695	994.168
75.636	13.088	1316.046	993.839
76.651	13.114	1314.621	992.834
77.666	13.049	1314.269	992.092
78.680	13.095	1313.498	991.695
79.695	13.087	1312.872	991.091
80.709	13.082	1312.299	990.537
81.724	13.202	1311.265	990.390
82.739	13.179	1310.047	989.241
83.753	13.230	1309.716	989.214
84.768	13.235	1308.689	988.377
85.782	13.291	1307.744	987.911
86.797	13.324	1305.868	986.601
87.812	13.235	1305.121	985.421
88.826	13.310	1303.666	984.682
89.841	13.223	1302.935	983.527
90.855	13.318	1301.385	982.834
91.870	13.282	1300.926	982.183
92.884	13.315	1300.111	981.679
93.899	13.415	1299.296	981.567
94.914	13.378	1298.254	980.477
95.928	13.398	1297.502	979.939
96.943	13.354	1296.534	978.861
97.957	13.336	1295.848	978.152
98.972	13.434	1294.276	977.459
99.987	13.388	1293.548	976.548
101.001	13.397	1292.670	975.851
102.016	13.309	1291.494	974.360
103.030	13.454	1290.703	974.532
104.045	13.341	1290.040	973.281
105.060	13.393	1289.017	972.726
106.074	13.340	1287.470	971.161
107.089	13.159	1286.411	969.216
108.103	13.208	1284.622	968.069
109.118	13.183	1283.697	967.138
110.133	13.219	1282.481	966.349
111.147	13.137	1281.095	964.739
112.162	13.214	1279.706	964.060
113.176	13.230	1279.146	963.646
114.191	13.336	1277.531	962.957
115.206	13.269	1276.872	961.986
116.220	13.267	1275.535	960.883
117.235	13.293	1274.304	960.021
118.249	13.320	1273.616	959.578
119.264	13.216	1272.346	957.929
120.279	13.197	1271.777	957.309
121.293	13.168	1270.382	956.005
122.308	13.252	1269.362	955.640
123.322	13.207	1268.445	954.603
124.337	13.173	1267.167	953.362
125.352	13.276	1265.748	952.803
126.366	13.178	1265.079	951.651
127.381	13.105	1264.642	950.820
128.395	13.134	1263.043	949.697
129.410	13.193	1262.151	949.283
130.424	13.266	1261.445	949.089
131.439	13.301	1260.255	948.309
132.454	13.330	1259.250	947.631
133.468	13.304	1258.801	947.066
134.483	13.258	1258.074	946.169
135.497	13.201	1256.868	944.852
136.512	13.272	1255.198	943.920
137.527	13.289	1253.994	943.025
138.541	13.394	1252.137	942.147
139.556	13.324	1251.237	940.985
140.570	13.385	1250.090	940.385
141.585	13.434	1248.907	939.691
142.600	13.371	1248.121	938.661
143.614	13.355	1247.430	937.968
144.629	13.419	1246.199	937.323
145.643	13.399	1245.113	936.307
146.658	13.380	1243.679	935.042
147.673	13.378	1242.403	933.986
148.687	13.298	1241.255	932.592
149.702	13.460	1239.168	931.852
150.716	13.386	1238.460	930.818
151.731	13.359	1237.287	929.702
152.746	13.419	1236.139	929.093
153.760	13.448	1234.816	928.180
154.775	13.406	1233.969	927.227
155.789	13.488	1232.920	926.816
156.804	13.479	1232.025	926.014
157.819	13.586	1230.600	925.457
158.833	13.612	1229.848	924.952
159.848	13.536	1228.928	923.757
160.862	13.546	1228.031	923.057
161.877	13.540	1226.832	922.041
162.892	13.503	1225.535	920.777
163.906	13.438	1225.188	920.073
164.921	13.512	1223.765	919.336
165.935	13.584	1223.150	919.193
166.950	13.520	1222.383	918.179
167.964	13.548	1221.634	917.689
168.979	13.681	1220.837	917.746
169.994	13.706	1220.153	917.287
171.008	13.563	1219.707	916.083
172.023	13.666	1218.868	915.942
173.037	13.772	1217.858	915.683
174.052	13.789	1216.780	914.887
175.067	13.673	1216.005	913.583
176.081	13.626	1215.252	912.677
177.096	13.500	1214.429	911.285
178.110	13.628	1213.057	910.877
179.125	13.654	1211.887	910.066
180.140	13.690	1210.888	909.430
181.154	13.651	1209.474	908.073
182.169	13.714	1208.288	907.448
183.183	13.824	1206.833	906.878
184.198	13.750	1206.167	905.889
185.213	13.870	1204.816	905.454
186.227	13.831	1203.453	904.136
187.242	13.873	1202.631	903.663
188.256	13.919	1201.746	903.170
189.271	13.848	1201.084	902.210
190.286	13.771	1199.766	900.721
191.300	13.684	1198.811	899.449
192.315	13.688	1198.420	899.100
193.329	13.669	1197.909	898.536
194.344	13.842	1196.576	898.393
195.359	13.745	1196.667	897.855
196.373	13.829	1196.109	897.812
197.388	13.895	1195.604	897.710
198.402	13.914	1194.923	897.222
199.417	14.062	1194.046	897.281
200.432	14.081	1193.352	896.785
201.446	14.116	1192.664	896.377
202.461	14.133	1191.440	895.466
203.475	14.251	1190.511	895.324
204.490	14.087	1189.172	893.359
205.504	14.006	1187.793	891.808
206.519	14.073	1186.799	891.341
207.534	14.034	1185.601	890.153
208.548	14.140	1184.552	889.855
209.563	14.115	1184.460	889.573
210.577	14.047	1183.609	888.494
211.592	14.119	1182.835	888.219
212.607	14.216	1181.433	887.604
213.621	14.191	1180.998	887.065
214.636	14.221	1179.997	886.393
215.650	14.205	1178.894	885.403
216.665	14.239	1178.015	884.847
217.680	14.348	1176.987	884.573
218.694	14.373	1176.293	884.106
219.709	14.398	1175.444	883.524
220.723	14.279	1174.846	882.363
221.738	14.361	1173.857	881.978
222.753	14.398	1173.396	881.751
223.767	14.383	1172.725	881.086
224.782	14.306	1172.334	880.307
225.796	14.487	1171.441	880.519
226.811	14.587	1170.464	880.230
227.826	14.372	1170.099	878.744
228.840	14.363	1169.556	878.211
229.855	14.482	1168.403	877.894
230.869	14.484	1167.618	877.239
231.884	14.354	1167.003	876.016
232.899	14.281	1166.513	875.185
233.913	14.321	1165.451	874.521
234.928	14.446	1164.609	874.468
235.942	14.360	1163.975	873.463
236.957	14.421	1162.794	872.820
237.972	14.356	1162.277	872.013
238.986	14.554	1161.498	872.390
240.001	14.372	1161.324	871.228
241.015	14.367	1160.418	870.446
242.030	14.518	1159.484	870.455
243.045	14.504	1158.818	869.809
244.059	14.618	1157.500	869.332
245.074	14.578	1157.077	868.730
246.088	14.599	1156.709	868.486
247.103	14.625	1155.222	867.430
248.117	14.695	1154.785	867.387
249.132	14.748	1153.979	866.981
250.147	14.825	1153.272	866.771
251.161	14.873	1152.704	866.520
252.176	14.786	1151.944	865.418
253.190	14.959	1151.193	865.674
254.205	15.072	1150.481	865.646
255.220	14.951	1150.261	864.779
256.234	14.860	1149.914	863.971
257.249	14.894	1149.191	863.527
258.263	14.926	1148.310	862.951
259.278	14.960	1147.234	862.244
260.293	14.900	1147.165	861.808
261.307	15.078	1146.350	862.034
262.322	15.048	1145.886	861.455
263.336	15.018	1144.932	860.506
264.351	15.018	1144.753	860.297
265.366	15.043	1143.912	859.716
266.380	15.128	1143.238	859.572
267.395	15.133	1142.508	858.970
268.409	15.126	1141.729	858.274
269.424	15.118	1141.285	857.823
270.439	15.112	1140.260	856.946
271.453	14.962	1140.009	855.915
272.468	15.116	1138.774	855.698
273.482	15.069	1138.212	854.962
274.497	15.043	1137.337	854.093
275.512	15.195	1136.627	854.259
276.526	15.126	1135.775	853.192
277.541	15.124	1135.456	852.868
278.555	15.162	1134.765	852.465
279.570	15.191	1133.838	851.840
280.585	15.234	1133.130	851.455
281.599	15.364	1131.558	850.857
282.614	15.389	1130.981	850.474
283.628	15.244	1130.287	849.142
284.643	15.228	1129.361	848.288
285.657	15.281	1128.461	847.809
286.672	15.212	1127.682	846.796
287.687	15.336	1126.322	846.329
288.701	15.347	1125.692	845.834
289.716	15.327	1125.053	845.178
290.730	15.482	1124.040	845.126
291.745	15.411	1123.439	844.240
292.760	15.396	1123.265	843.960
293.774	15.433	1122.527	843.518
294.789	15.378	1122.254	842.960
295.803	15.545	1121.085	842.843
296.818	15.561	1120.196	842.181
297.833	15.546	1119.551	841.546
298.847	15.456	1119.054	840.647
299.862	15.522	1117.879	840.025
300.876	15.456	1117.661	839.456
301.891	15.618	1116.940	839.649
302.906	15.622	1116.392	839.180
303.920	15.588	1115.422	838.208
304.935	15.564	1115.167	837.821
305.949	15.670	1114.448	837.735
306.964	15.819	1113.303	837.544
307.979	15.725	1112.600	836.474
308.993	15.656	1111.975	835.588
310.008	15.761	1110.998	835.302
311.022	15.841	1110.160	834.995
312.037	15.847	1109.278	834.285
313.052	15.737	1108.919	833.397
314.066	15.656	1107.971	832.207
315.081	15.745	1106.950	831.807
316.095	15.753	1106.097	831.136
317.110	15.598	1105.817	830.084
318.125	15.722	1104.914	829.943
319.139	15.631	1104.419	829.053
320.154	15.696	1103.579	828.669
321.168	15.760	1102.950	828.436
322.183	15.779	1102.087	827.808
323.197	15.808	1101.685	827.577
324.212	15.824	1101.115	827.152
325.227	15.747	1100.805	826.466
326.241	15.749	1099.811	825.658
327.256	15.900	1099.135	825.818
328.270	15.833	1098.165	824.691
329.285	15.807	1097.430	823.939
330.300	15.813	1096.178	822.952
331.314	15.847	1095.251	822.349
332.329	15.903	1094.815	822.222
333.343	15.858	1094.216	821.482
334.358	16.037	1092.865	821.265
335.373	16.054	1092.036	820.656
336.387	16.035	1091.428	820.034
337.402	15.942	1090.860	819.082
338.416	15.977	1090.307	818.765
339.431	16.026	1089.669	818.450
340.446	16.163	1088.793	818.386
341.460	16.143	1088.578	818.054
342.475	16.119	1087.718	817.217
343.489	16.263	1086.270	816.754
344.504	16.161	1085.813	815.847
345.519	16.201	1084.627	815.075
346.533	16.307	1083.785	814.880
347.548	16.407	1083.002	814.702
348.562	16.240	1082.712	813.609
349.577	16.326	1081.661	813.163
350.592	16.378	1080.643	812.576
351.606	16.237	1080.084	811.403
352.621	16.331	1079.366	811.246
353.635	16.204	1078.855	810.177
354.650	16.234	1078.164	809.730
355.665	16.261	1077.459	809.263
356.679	16.266	1076.596	808.566
357.694	16.421	1075.765	808.610
358.708	16.245	1075.788	807.716
359.723	16.373	1075.283	807.874
360.738	16.269	1074.797	806.942
361.752	16.452	1073.656	806.885
362.767	16.405	1073.113	806.182
363.781	16.423	1072.704	805.890
364.796	16.452	1072.002	805.433
365.810	16.554	1071.487	805.460
366.825	16.565	1070.610	804.779
367.840	16.640	1070.325	804.853
368.854	16.651	1069.768	804.411
369.869	16.661	1069.092	803.881
370.883	16.677	1067.609	802.770
371.898	16.626	1067.078	802.059
372.913	16.557	1066.724	801.394
373.927	16.716	1066.333	801.784
374.942	16.615	1065.835	800.857
375.956	16.685	1065.041	800.522
376.971	16.812	1064.473	800.625
377.986	16.753	1063.753	799.736
379.000	16.811	1063.430	799.696
380.015	16.818	1062.570	799.009
381.029	16.882	1062.162	798.936
382.044	16.819	1061.668	798.196
383.059	16.854	1060.741	797.592
384.073	16.968	1059.828	797.370
385.088	16.867	1059.259	796.400
386.102	16.968	1058.152	795.968
387.117	16.872	1057.431	794.908
388.132	16.801	1056.563	793.853
389.146	16.789	1055.714	793.087
390.161	16.916	1055.019	793.088
391.175	16.837	1054.541	792.288
392.190	16.918	1053.578	791.874
393.205	16.960	1052.832	791.440
394.219	17.043	1051.799	790.979
395.234	16.987	1051.387	790.339
396.248	16.925	1050.240	789.117
397.263	16.972	1048.824	788.201
398.278	16.852	1048.622	787.424
399.292	16.877	1047.836	786.878
400.307	16.920	1047.057	786.428
401.321	16.923	1046.966	786.302
402.336	16.953	1046.190	785.786
403.350	17.081	1045.115	785.502
404.365	17.086	1044.513	785.004
405.380	17.053	1043.779	784.233
406.394	17.208	1043.229	784.462
407.409	17.186	1042.327	783.615
408.423	17.166	1041.787	783.047
409.438	17.232	1040.993	782.686
410.453	17.188	1040.771	782.247
411.467	17.289	1039.617	781.775
412.482	17.250	1038.879	780.970
413.496	17.440	1037.955	781.079
414.511	17.333	1037.497	780.173
415.526	17.337	1037.718	780.291
416.540	17.356	1037.006	779.771
417.555	17.461	1036.240	779.609
418.569	17.427	1035.857	779.095
419.584	17.539	1035.015	778.906
420.599	17.468	1034.945	778.458
421.613	103.867	1323.421	1472.021
422.628	95.169	1365.415	1472.120
