DTS Sentinel unit serial number:	SN413079Multiplexer serial number:	ORYXHardware model number:	OX4-SRSoftware version number:	ORYX F/W v4.00 Oryx Data Collector v3.7.2.0data status	okinstallation	princeton_trtdifferential loss correction	single-endedforward channel	channel 2reverse channel	N/Adate	2019/09/11time	16:01:10forward acquisition time	60.00reverse acquisition time	0.00gamma	496.2192k internal	0.2288k external	0.2288temperature offset calibration	1.0015default loss term (dB/km)	0.3790temperature slope calibration	1.0000multiplexer offset coefficient	1.0000multiplexer slope coefficient	1.0000fibre end	0.00T internal ref (°C)	43.06T ext. ref 1 (°C)	1.03T ext. ref 2 (°C)	38.28length (m)	temperature (°C)	Stokes	anti-Stokes-747.200	18.042	-0.272	0.222
-746.185	-200.000	-0.076	0.341
-745.171	58.785	0.083	-0.083
-744.156	216.957	-0.179	0.293
-743.142	-123.287	0.111	0.018
-742.127	-50.198	-0.361	0.175
-741.112	12.409	-0.231	-0.183
-740.098	-200.000	0.052	-0.293
-739.083	-30.847	-0.113	-0.065
-738.069	800.000	-0.044	0.166
-737.054	-144.233	0.276	0.026
-736.039	-108.830	-0.226	0.050
-735.025	-28.222	0.229	0.136
-734.010	-70.276	0.128	-0.050
-732.996	-115.276	-0.163	-0.032
-731.981	800.000	-0.042	-0.127
-730.966	-149.272	0.222	-0.018
-729.952	181.844	0.016	0.025
-728.937	-21.270	0.066	-0.041
-727.923	16.531	-0.031	-0.025
-726.908	800.000	-0.115	0.462
-725.894	-75.277	0.268	0.098
-724.879	-200.000	-0.017	0.228
-723.864	659.695	-0.022	0.059
-722.850	434.214	0.104	0.232
-721.835	800.000	-0.034	0.098
-720.821	176.990	0.062	0.092
-719.806	-69.465	-0.224	-0.088
-718.791	800.000	0.027	-0.115
-717.777	800.000	-0.016	-0.056
-716.762	695.346	0.018	-0.049
-715.748	-57.941	-0.139	-0.062
-714.733	118.256	0.083	0.105
-713.718	-12.539	0.334	0.223
-712.704	72.923	-0.160	-0.172
-711.689	39.443	0.064	0.059
-710.675	-54.195	0.152	-0.071
-709.660	319.659	-0.176	-0.342
-708.645	191.239	0.172	0.265
-707.631	111.871	0.175	-0.216
-706.616	-73.403	-0.041	0.015
-705.602	431.316	-0.085	-0.189
-704.587	-153.208	-0.280	-0.020
-703.572	-200.000	0.020	-0.128
-702.558	647.008	-0.119	0.311
-701.543	-200.000	-0.055	0.475
-700.529	309.009	-0.092	0.176
-699.514	-8.925	0.121	0.083
-698.499	469.737	-0.129	-0.297
-697.485	-134.301	0.338	0.043
-696.470	91.290	0.096	-0.110
-695.456	92.185	0.060	-0.069
-694.441	-200.000	0.020	0.163
-693.426	131.476	0.161	0.211
-692.412	244.691	-0.124	0.213
-691.397	-36.905	0.349	0.192
-690.383	74.968	-0.087	-0.094
-689.368	-200.000	0.026	0.221
-688.354	-98.968	0.195	-0.051
-687.339	-200.000	-0.040	-0.321
-686.324	465.393	0.126	-0.288
-685.310	-200.000	0.034	-0.316
-684.295	-200.000	0.032	0.162
-683.281	-119.625	0.128	0.023
-682.266	-200.000	-0.012	-0.126
-681.251	-81.891	-0.048	0.016
-680.237	-200.000	0.015	-0.091
-679.222	800.000	0.091	0.364
-678.208	-200.000	0.041	0.445
-677.193	-135.853	-0.203	-0.025
-676.178	55.351	-0.147	0.145
-675.164	-176.984	-0.157	0.004
-674.149	-101.819	0.228	0.056
-673.135	752.440	0.133	0.367
-672.120	-176.739	-0.179	0.005
-671.105	-200.000	0.067	0.388
-670.091	800.000	0.044	0.126
-669.076	800.000	-0.036	-0.127
-668.062	-192.931	0.218	-0.002
-667.047	22.317	-0.142	0.119
-666.032	-146.487	-0.111	-0.010
-665.018	670.531	-0.071	0.188
-664.003	-162.377	-0.197	-0.010
-662.989	-74.909	0.157	0.058
-661.974	-171.024	0.040	0.001
-660.959	-15.172	-0.100	-0.066
-659.945	800.000	0.178	-0.551
-658.930	-65.337	-0.485	-0.199
-657.916	11.306	0.180	-0.141
-656.901	800.000	0.024	-0.100
-655.886	-81.802	0.275	-0.092
-654.872	-77.885	0.208	-0.073
-653.857	741.839	-0.109	-0.300
-652.843	74.024	-0.249	-0.267
-651.828	41.507	0.041	0.038
-650.814	58.674	0.165	-0.165
-649.799	93.012	0.150	-0.173
-648.784	0.086	0.104	-0.076
-647.770	-4.749	-0.102	0.072
-646.755	540.035	-0.052	0.126
-645.741	354.843	0.138	-0.281
-644.726	-65.533	0.314	-0.129
-643.711	19.553	0.094	-0.077
-642.697	77.294	-0.058	0.063
-641.682	-200.000	0.005	0.080
-640.668	206.514	-0.185	-0.294
-639.653	86.874	-0.264	0.298
-638.638	-15.452	-0.405	0.265
-637.624	57.046	-0.116	0.116
-636.609	-200.000	0.000	0.173
-635.595	404.049	-0.188	-0.404
-634.580	219.709	-0.198	-0.324
-633.565	800.000	0.096	-0.327
-632.551	126.768	0.123	-0.159
-631.536	-86.247	-0.245	-0.077
-630.522	393.297	0.085	-0.180
-629.507	-53.829	-0.103	-0.048
-628.492	-200.000	0.014	0.122
-627.478	-200.000	0.040	0.281
-626.463	145.899	0.322	-0.441
-625.449	357.651	0.178	-0.362
-624.434	-40.868	-0.182	0.096
-623.419	-111.967	0.079	-0.016
-622.405	-138.095	-0.133	-0.015
-621.390	-104.405	0.260	0.061
-620.376	-119.252	0.275	-0.049
-619.361	800.000	-0.152	-0.509
-618.346	17.833	-0.182	-0.148
-617.332	-14.591	0.036	-0.024
-616.317	-167.347	0.051	0.002
-615.303	67.615	-0.080	-0.083
-614.288	-50.816	-0.142	-0.068
-613.273	-39.202	-0.042	-0.022
-612.259	-2.931	-0.095	0.068
-611.244	289.031	0.138	0.254
-610.230	313.419	-0.146	0.279
-609.215	-200.000	-0.015	-0.253
-608.201	-200.000	0.035	-0.296
-607.186	500.320	0.091	-0.213
-606.171	-200.000	0.022	0.109
-605.157	-11.733	-0.131	-0.087
-604.142	62.359	0.113	-0.115
-603.128	-60.025	-0.153	-0.066
-602.113	-79.868	0.409	-0.140
-601.098	527.868	0.054	0.129
-600.084	-200.000	0.031	-0.241
-599.069	-40.178	0.329	-0.175
-598.055	-33.689	0.202	0.114
-597.040	-40.301	-0.223	-0.118
-596.025	98.767	0.135	0.159
-595.011	-72.999	0.385	-0.144
-593.996	800.000	0.057	-0.228
-592.982	183.985	0.039	-0.059
-591.967	-64.728	0.146	-0.060
-590.952	-131.132	0.146	-0.020
-589.938	43.781	0.166	0.155
-588.923	93.953	0.213	-0.246
-587.909	210.490	0.123	-0.197
-586.894	606.298	-0.047	0.120
-585.879	221.842	0.040	-0.066
-584.865	-64.273	-0.259	-0.107
-583.850	800.000	0.032	-0.100
-582.836	-97.313	-0.380	-0.101
-581.821	118.620	-0.190	-0.239
-580.806	-108.882	-0.179	-0.039
-579.792	800.000	-0.103	0.347
-578.777	-95.525	-0.200	-0.055
-577.763	-182.251	-0.290	0.006
-576.748	800.000	-0.091	-0.353
-575.733	-7.779	-0.263	0.181
-574.719	-131.379	-0.138	0.019
-573.704	-157.436	-0.129	0.008
-572.690	-200.000	0.037	0.306
-571.675	-83.897	-0.212	-0.069
-570.661	800.000	0.025	-0.093
-569.646	-38.447	-0.207	0.111
-568.631	173.771	-0.104	0.153
-567.617	-163.439	-0.264	0.013
-566.602	-93.241	-0.284	-0.080
-565.588	655.481	0.181	0.473
-564.573	195.364	0.118	0.183
-563.558	105.851	0.186	0.224
-562.544	-200.000	0.024	-0.322
-561.529	-200.000	-0.043	0.252
-560.515	346.585	0.050	0.101
-559.500	-200.000	0.006	0.177
-558.485	-200.000	-0.059	0.303
-557.471	800.000	-0.020	0.065
-556.456	-200.000	-0.014	-0.071
-555.442	36.932	0.175	0.157
-554.427	-123.531	0.313	0.051
-553.412	560.095	-0.087	0.215
-552.398	3.844	-0.061	0.046
-551.383	248.970	0.021	0.036
-550.369	27.120	-0.261	-0.223
-549.354	-200.000	0.041	0.258
-548.339	-124.925	0.195	-0.031
-547.325	-200.000	0.012	0.196
-546.310	3.972	-0.202	0.150
-545.296	-126.231	0.360	-0.055
-544.281	176.476	0.082	0.122
-543.266	648.475	-0.031	0.080
-542.252	-92.386	0.106	-0.030
-541.237	800.000	-0.052	0.219
-540.223	118.418	-0.221	-0.277
-539.208	90.479	0.216	-0.245
-538.193	-3.835	-0.120	0.085
-537.179	49.072	-0.168	-0.161
-536.164	42.435	-0.208	-0.193
-535.150	300.770	0.114	0.214
-534.135	62.755	-0.330	0.336
-533.121	275.980	0.093	-0.167
-532.106	-61.057	-0.346	-0.149
-531.091	420.024	-0.074	-0.160
-530.077	376.407	0.162	0.337
-529.062	800.000	0.097	0.335
-528.048	95.351	0.158	0.183
-527.033	800.000	0.015	0.052
-526.018	-200.000	0.030	-0.328
-525.004	147.911	-0.132	-0.180
-523.989	62.611	-0.151	0.154
-522.975	112.700	0.155	-0.191
-521.960	-154.857	0.328	-0.022
-520.945	660.573	0.099	0.258
-519.931	499.843	-0.084	0.198
-518.916	-78.025	0.189	-0.066
-517.902	26.792	0.304	0.259
-516.887	-200.000	-0.027	-0.342
-515.872	-158.771	-0.261	0.015
-514.858	800.000	-0.023	-0.087
-513.843	664.324	-0.049	-0.128
-512.829	-3.068	0.159	0.113
-511.814	800.000	-0.105	0.399
-510.799	33.672	-0.261	0.231
-509.785	433.422	0.063	-0.138
-508.770	-99.734	-0.321	-0.082
-507.756	180.640	0.165	-0.246
-506.741	-117.453	-0.096	-0.018
-505.726	724.120	-0.068	-0.183
-504.712	-72.987	0.070	-0.026
-503.697	-113.373	-0.275	0.055
-502.683	-56.553	-0.068	-0.031
-501.668	-20.375	-0.163	0.102
-500.653	-111.030	-0.215	0.045
-499.639	-16.593	0.290	0.187
-498.624	310.914	-0.068	-0.130
-497.610	-200.000	-0.045	0.477
-496.595	78.885	0.082	-0.089
-495.581	26.080	0.161	0.137
-494.566	124.662	-0.089	-0.114
-493.551	-200.000	-0.037	-0.548
-492.537	107.826	0.093	0.112
-491.522	-200.000	0.056	0.329
-490.508	69.810	0.055	0.058
-489.493	-169.749	0.168	0.006
-488.478	-134.593	-0.267	0.033
-487.464	-187.479	0.060	0.001
-486.449	800.000	-0.040	0.172
-485.435	-117.568	0.101	0.018
-484.420	113.724	0.173	-0.213
-483.405	-130.786	0.339	-0.046
-482.391	-61.858	-0.137	0.058
-481.376	188.065	-0.269	0.408
-480.362	-55.756	-0.147	0.067
-479.347	86.378	0.123	-0.137
-478.332	-200.000	-0.003	-0.090
-477.318	58.290	0.082	0.081
-476.303	190.817	-0.134	-0.204
-475.289	18.071	0.060	0.049
-474.274	-77.352	0.134	-0.047
-473.259	5.530	-0.193	-0.145
-472.245	769.178	0.032	-0.089
-471.230	188.214	0.136	0.206
-470.216	-200.000	-0.004	0.203
-469.201	-48.438	-0.283	-0.138
-468.186	-106.822	0.417	0.094
-467.172	-200.000	0.060	0.289
-466.157	462.005	-0.087	0.196
-465.143	-34.443	0.206	0.115
-464.128	-2.483	-0.009	0.007
-463.113	800.000	-0.061	-0.178
-462.099	-79.052	-0.244	0.084
-461.084	-7.548	0.293	-0.201
-460.070	-143.229	0.319	0.031
-459.055	-161.827	-0.073	-0.004
-458.040	-33.247	-0.163	0.091
-457.026	-200.000	-0.035	0.189
-456.011	-63.650	-0.231	-0.096
-454.997	-200.000	-0.010	-0.235
-453.982	175.867	-0.072	-0.107
-452.968	-200.000	-0.026	0.211
-451.953	47.321	-0.092	-0.087
-450.938	69.997	0.136	-0.142
-449.924	580.742	0.140	-0.347
-448.909	50.516	-0.081	0.077
-447.895	800.000	0.042	0.173
-446.880	-42.487	0.092	0.047
-445.865	-105.164	0.076	0.018
-444.851	429.509	0.114	-0.249
-443.836	35.063	-0.093	-0.082
-442.822	-59.549	0.106	0.046
-441.807	-200.000	0.041	-0.289
-440.792	-104.074	0.230	-0.054
-439.778	87.535	0.123	-0.138
-438.763	-200.000	-0.001	0.058
-437.749	77.134	0.173	-0.187
-436.734	37.980	-0.165	0.149
-435.719	235.619	0.244	0.408
-434.705	57.429	-0.090	0.089
-433.690	800.000	0.074	0.254
-432.676	-35.017	0.149	0.082
-431.661	-200.000	-0.000	0.031
-430.646	-200.000	0.013	-0.194
-429.632	-120.678	-0.151	-0.026
-428.617	-200.000	0.004	-0.020
-427.603	285.343	0.089	0.162
-426.588	-119.504	-0.241	-0.042
-425.573	800.000	0.086	-0.312
-424.559	220.850	0.217	-0.353
-423.544	-114.133	-0.158	0.031
-422.530	-65.521	0.223	0.091
-421.515	-82.939	0.248	-0.081
-420.500	-75.738	-0.243	-0.087
-419.486	87.072	-0.069	-0.077
-418.471	-53.084	0.167	-0.078
-417.457	240.900	0.191	-0.323
-416.442	-200.000	-0.000	0.075
-415.428	-200.000	-0.003	-0.119
-414.413	800.000	0.028	0.107
-413.398	-19.280	0.143	0.090
-412.384	800.000	-0.072	-0.235
-411.369	163.521	-0.124	-0.177
-410.355	-55.556	0.097	-0.044
-409.340	-48.846	0.057	-0.028
-408.325	494.012	0.040	-0.092
-407.311	-73.251	-0.169	0.063
-406.296	9.562	-0.032	0.025
-405.282	-121.221	0.235	-0.040
-404.267	-112.347	0.370	-0.075
-403.252	-200.000	0.062	0.313
-402.238	215.761	0.129	-0.208
-401.223	141.704	-0.153	-0.206
-400.209	20.723	0.203	-0.166
-399.194	302.786	0.121	-0.227
-398.179	-200.000	0.014	0.110
-397.165	-84.100	0.335	-0.108
-396.150	87.788	-0.169	-0.189
-395.136	-10.044	0.164	-0.110
-394.121	236.553	-0.177	-0.296
-393.106	60.658	-0.160	-0.161
-392.092	-101.786	0.394	-0.097
-391.077	-200.000	0.025	-0.356
-390.063	-63.204	0.229	-0.096
-389.048	800.000	0.131	0.470
-388.033	-59.553	0.012	-0.005
-387.019	-153.784	0.302	0.021
-386.004	800.000	0.048	0.157
-384.990	-105.401	0.106	0.024
-383.975	-139.866	0.154	0.017
-382.960	9.268	0.236	0.180
-381.946	-112.879	0.208	-0.042
-380.931	174.534	-0.307	0.449
-379.917	56.140	0.530	-0.520
-378.902	-17.904	0.102	-0.064
-377.888	548.955	-0.096	-0.234
-376.873	-200.000	-0.017	0.223
-375.858	541.825	0.108	0.260
-374.844	800.000	0.015	0.063
-373.829	523.899	-0.046	-0.108
-372.815	285.148	0.093	-0.170
-371.800	-200.000	0.025	-0.144
-370.785	228.452	0.125	-0.206
-369.771	-200.000	-0.001	-0.079
-368.756	67.262	0.171	0.176
-367.742	-102.095	0.249	0.061
-366.727	156.457	0.050	0.070
-365.712	78.812	0.132	0.143
-364.698	267.927	0.190	0.336
-363.683	382.612	-0.193	0.401
-362.669	-44.101	0.139	0.070
-361.654	-119.733	0.089	0.015
-360.639	282.802	-0.050	-0.090
-359.625	-34.786	-0.207	-0.114
-358.610	800.000	-0.042	-0.168
-357.596	-200.000	0.010	-0.178
-356.581	258.397	-0.046	-0.080
-355.566	-158.881	0.153	0.009
-354.552	486.888	-0.144	-0.331
-353.537	601.960	-0.035	0.087
-352.523	373.824	-0.047	-0.096
-351.508	225.970	0.013	0.021
-350.493	-200.000	0.015	0.365
-349.479	800.000	-0.025	0.108
-348.464	-200.000	-0.031	0.241
-347.450	-200.000	-0.008	0.073
-346.435	-146.145	0.092	0.008
-345.420	-184.289	-0.120	0.002
-344.406	39.342	-0.226	-0.204
-343.391	-29.124	-0.134	0.078
-342.377	-82.398	-0.364	0.119
-341.362	310.929	0.034	0.064
-340.348	227.007	0.116	0.190
-339.333	-65.002	0.266	-0.108
-338.318	428.174	-0.065	0.142
-337.304	-46.992	0.034	0.017
-336.289	-125.646	-0.170	0.026
-335.275	800.000	0.040	0.119
-334.260	58.627	-0.083	0.082
-333.245	-89.060	-0.348	0.104
-332.231	-178.186	-0.088	0.002
-331.216	255.435	-0.125	-0.216
-330.202	-99.524	0.283	-0.072
-329.187	793.229	0.026	-0.072
-328.172	-94.823	0.298	-0.081
-327.158	800.000	-0.132	-0.407
-326.143	-102.489	-0.492	0.119
-325.129	-7.218	-0.085	-0.058
-324.114	-200.000	-0.028	-0.143
-323.099	-166.636	0.263	0.011
-322.085	116.161	0.381	0.470
-321.070	126.472	0.156	0.199
-320.056	200.489	-0.158	0.244
-319.041	144.876	-0.154	-0.208
-318.026	437.058	-0.015	-0.032
-317.012	-125.487	-0.234	-0.036
-315.997	675.154	-0.031	0.081
-314.983	-23.103	0.265	0.161
-313.968	-200.000	-0.014	0.333
-312.953	-200.000	-0.042	0.211
-311.939	-96.279	0.033	-0.009
-310.924	566.879	0.143	-0.350
-309.910	-200.000	0.006	0.053
-308.895	144.270	-0.021	-0.029
-307.880	-200.000	-0.002	0.142
-306.866	-200.000	-0.150	0.742
-305.851	128.336	-0.164	0.210
-304.837	-200.000	0.012	-0.157
-303.822	-200.000	0.054	-0.245
-302.807	486.746	-0.068	0.156
-301.793	-31.967	0.178	-0.101
-300.778	-200.000	0.063	0.000
-299.764	-116.870	-0.470	0.087
-298.749	-122.493	0.151	-0.025
-297.735	800.000	-0.039	-0.142
-296.720	-113.824	0.052	0.010
-295.705	305.438	0.152	0.285
-294.691	800.000	0.035	-0.127
-293.676	-140.950	0.193	-0.020
-292.662	38.773	-0.276	-0.249
-291.647	-59.009	0.186	0.081
-290.632	-200.000	-0.011	0.373
-289.618	685.301	-0.034	-0.090
-288.603	800.000	-0.071	-0.295
-287.589	44.295	-0.176	-0.163
-286.574	800.000	-0.095	0.277
-285.559	327.039	-0.083	-0.160
-284.545	-56.385	-0.216	-0.097
-283.530	-42.036	0.108	-0.056
-282.516	-107.083	-0.266	-0.059
-281.501	163.812	0.176	-0.249
-280.486	351.777	0.080	0.160
-279.472	400.990	0.096	0.203
-278.457	-200.000	0.010	0.176
-277.443	-163.267	-0.254	-0.012
-276.428	-68.276	0.317	-0.124
-275.413	-192.636	-0.386	0.004
-274.399	-200.000	0.011	-0.222
-273.384	-58.605	-0.126	-0.055
-272.370	226.362	0.128	0.209
-271.355	-55.298	-0.151	-0.068
-270.340	704.800	-0.087	0.231
-269.326	-129.869	-0.103	0.014
-268.311	92.187	0.178	0.202
-267.297	-57.062	0.181	-0.080
-266.282	-121.117	-0.385	0.065
-265.267	-51.870	0.251	-0.117
-264.253	-7.181	-0.071	-0.049
-263.238	-63.200	-0.174	0.072
-262.224	144.412	-0.119	0.160
-261.209	265.324	0.021	-0.037
-260.195	-12.289	-0.225	0.148
-259.180	-34.251	0.375	0.207
-258.165	-70.311	-0.063	0.024
-257.151	800.000	-0.024	-0.100
-256.136	-200.000	-0.017	-0.198
-255.122	-164.278	-0.187	0.009
-254.107	227.321	-0.134	-0.220
-253.092	64.364	0.060	0.061
-252.078	800.000	-0.053	0.210
-251.063	464.704	0.079	0.177
-250.049	75.915	0.112	-0.120
-249.034	-22.648	0.303	0.184
-248.019	-200.000	-0.018	0.265
-247.005	-200.000	-0.016	-0.191
-245.990	335.594	-0.096	0.187
-244.976	193.364	0.081	-0.124
-243.961	-35.801	-0.325	-0.177
-242.946	399.448	0.135	0.285
-241.932	448.855	0.055	-0.122
-240.917	800.000	0.068	-0.288
-239.903	-128.597	-0.377	-0.054
-238.888	321.123	0.201	-0.383
-237.873	441.502	0.117	0.258
-236.859	-200.000	0.011	-0.116
-235.844	-200.000	0.032	0.241
-234.830	800.000	0.034	0.132
-233.815	45.361	-0.074	0.069
-232.800	-118.446	-0.201	0.036
-231.786	130.607	-0.103	-0.132
-230.771	-170.480	0.020	-0.001
-229.757	682.987	-0.061	-0.159
-228.742	257.947	0.063	0.109
-227.727	-200.000	0.015	0.107
-226.713	-78.434	-0.207	0.071
-225.698	800.000	0.069	0.229
-224.684	-131.218	0.231	-0.031
-223.669	13.961	-0.141	0.110
-222.655	-200.000	0.002	0.190
-221.640	-137.976	0.169	-0.019
-220.625	17.086	0.391	-0.311
-219.611	76.949	0.094	-0.100
-218.596	-20.224	-0.233	-0.144
-217.582	168.836	0.196	0.280
-216.567	800.000	-0.092	-0.272
-215.552	-66.674	0.247	-0.098
-214.538	196.660	-0.055	0.084
-213.523	-127.432	0.567	0.083
-212.509	-78.013	-0.427	-0.148
-211.494	266.878	-0.091	-0.160
-210.479	235.931	0.068	-0.112
-209.465	-17.759	0.104	0.065
-208.450	489.784	-0.095	-0.217
-207.436	800.000	0.034	-0.112
-206.421	-108.231	-0.209	0.045
-205.406	90.300	0.112	-0.126
-204.392	-109.038	-0.346	0.074
-203.377	-200.000	-0.059	-0.260
-202.363	-52.986	-0.472	-0.218
-201.348	-34.962	-0.227	0.124
-200.333	-200.000	-0.030	0.423
-199.319	543.943	-0.084	0.201
-198.304	-74.674	-0.206	-0.074
-197.290	683.826	-0.186	0.488
-196.275	-112.266	-0.252	-0.051
-195.260	-35.677	-0.032	0.017
-194.246	800.000	0.064	-0.190
-193.231	-22.541	-0.381	-0.231
-192.217	278.462	0.040	-0.071
-191.202	-200.000	-0.013	0.155
-190.187	-110.275	0.368	-0.077
-189.173	-200.000	0.011	-0.135
-188.158	184.024	0.004	-0.006
-187.144	800.000	0.025	0.078
-186.129	12.308	0.156	-0.121
-185.114	-142.928	0.368	0.036
-184.100	27.280	0.157	-0.133
-183.085	-8.151	-0.113	-0.076
-182.071	-58.451	-0.260	-0.113
-181.056	-200.000	0.026	-0.170
-180.042	-200.000	0.046	-0.276
-179.027	-45.971	0.342	0.169
-178.012	100.197	-0.156	0.181
-176.998	377.628	-0.170	0.349
-175.983	61.507	-0.254	0.253
-174.969	-200.000	-0.026	0.247
-173.954	155.182	0.134	0.184
-172.939	-200.000	-0.004	-0.136
-171.925	334.820	-0.056	-0.109
-170.910	-200.000	0.009	-0.313
-169.896	744.407	0.081	0.217
-168.881	0.069	-0.073	0.052
-167.866	53.146	-0.186	0.179
-166.852	7.945	0.094	-0.070
-165.837	14.896	-0.191	0.150
-164.823	-106.438	-0.336	0.075
-163.808	220.062	0.128	0.205
-162.793	53.592	-0.239	0.230
-161.779	-10.880	-0.145	-0.096
-160.764	-38.702	-0.144	-0.076
-159.750	9.133	0.337	-0.255
-158.735	-67.133	-0.209	0.083
-157.720	23.653	0.055	-0.045
-156.706	800.000	0.133	0.422
-155.691	24.157	-0.184	0.152
-154.677	45.354	0.058	0.054
-153.662	106.038	-0.131	0.156
-152.647	800.000	-0.032	0.117
-151.633	-200.000	-0.021	-0.450
-150.618	-71.688	0.155	0.058
-149.604	-27.681	0.137	0.080
-148.589	-200.000	-0.023	0.130
-147.574	-2.927	-0.092	-0.065
-146.560	-26.006	0.067	-0.039
-145.545	-200.000	0.007	0.357
-144.531	-178.148	-0.059	0.001
-143.516	661.356	-0.088	0.228
-142.502	-118.364	0.195	0.035
-141.487	-104.665	-0.355	-0.082
-140.472	-136.162	0.195	0.023
-139.458	72.424	0.158	-0.165
-138.443	-200.000	0.030	0.399
-137.429	-110.231	-0.275	-0.057
-136.414	-200.000	0.070	0.391
-135.399	191.900	-0.085	-0.128
-134.385	-52.076	0.206	0.096
-133.370	491.879	0.047	0.108
-132.356	800.000	-0.030	0.126
-131.341	-129.228	-0.379	0.053
-130.326	287.614	-0.045	-0.081
-129.312	52.723	0.227	-0.217
-128.297	-1.809	-0.194	-0.137
-127.283	57.803	-0.223	0.218
-126.268	-62.095	0.153	-0.064
-125.253	-38.452	-0.302	-0.160
-124.239	-200.000	-0.055	0.282
-123.224	-169.226	0.073	0.003
-122.210	800.000	0.053	-0.163
-121.195	12.942	0.085	-0.065
-120.180	102.819	-0.198	0.232
-119.166	5.725	0.052	-0.039
-118.151	303.178	0.051	-0.095
-117.137	4.028	0.211	-0.155
-116.122	800.000	0.048	-0.143
-115.107	-85.425	0.254	-0.079
-114.093	-85.000	-0.229	-0.072
-113.078	239.996	-0.084	-0.140
-112.064	-200.000	-0.018	0.163
-111.049	47.639	-0.096	-0.090
-110.034	-10.517	0.094	-0.062
-109.020	-12.389	-0.231	0.151
-108.005	86.333	0.152	0.168
-106.991	-70.902	0.058	-0.022
-105.976	438.583	0.091	0.199
-104.962	-200.000	0.002	0.064
-103.947	-113.984	0.086	-0.017
-102.932	154.077	0.128	-0.175
-101.918	479.836	0.183	-0.414
-100.903	-14.010	-0.313	0.202
-99.889	109.038	-0.056	-0.067
-98.874	-4.379	0.304	0.210
-97.859	800.000	-0.078	-0.324
-96.845	-90.197	0.231	-0.067
-95.830	-200.000	-0.014	0.067
-94.816	57.265	-0.159	0.155
-93.801	58.160	-0.061	0.060
-92.786	-8.208	-0.229	0.154
-91.772	-1.424	0.410	0.289
-90.757	26.824	0.166	0.139
-89.743	33.271	0.149	-0.129
-88.728	145.147	0.051	-0.068
-87.713	430.011	-0.072	0.155
-86.699	-200.000	0.000	-0.109
-85.684	-92.550	0.285	-0.080
-84.670	-107.352	0.084	-0.018
-83.655	552.858	0.034	-0.081
-82.640	-20.325	0.046	-0.028
-81.626	-11.825	-0.185	0.121
-80.611	-26.325	-0.196	0.115
-79.597	336.108	-0.132	-0.255
-78.582	82.447	0.183	0.198
-77.567	247.114	0.174	0.293
-76.553	66.138	0.099	0.100
-75.538	114.862	0.056	0.069
-74.524	-61.067	0.199	0.084
-73.509	-200.000	-0.018	0.135
-72.494	783.263	-0.034	0.093
-71.480	160.663	0.173	-0.241
-70.465	87.541	0.200	-0.221
-69.451	121.808	0.097	-0.121
-68.436	-143.242	0.195	0.019
-67.422	-200.000	0.014	0.258
-66.407	301.842	-0.244	-0.451
-65.392	-200.000	0.029	0.323
-64.378	-200.000	-0.078	-0.346
-63.363	-14.188	0.256	-0.165
-62.349	27.906	0.275	-0.232
-61.334	-9.995	-0.841	-0.558
-60.319	14.235	0.279	0.217
-59.305	-200.000	0.071	-0.741
-58.290	40.670	0.519	0.467
-57.276	800.000	0.585	1.693
-56.261	-200.000	73.717	536.821
-55.246	593.686	1290.787	3185.186
-54.232	146.276	2517.967	3373.764
-53.217	115.552	2343.426	2859.470
-52.203	53.047	1959.361	1871.951
-51.188	46.807	1746.545	1619.788
-50.173	43.632	1699.306	1551.608
-49.159	57.789	1731.204	1690.221
-48.144	64.168	1749.626	1757.264
-47.130	46.439	1714.179	1586.683
-46.115	43.056	1700.503	1548.033
-45.100	42.977	1695.514	1542.822
-44.086	42.890	1693.129	1539.925
-43.071	42.984	1689.855	1537.603
-42.057	42.865	1687.891	1534.846
-41.042	42.854	1686.410	1533.358
-40.027	42.838	1684.526	1531.457
-39.013	42.917	1682.657	1530.302
-37.998	42.869	1680.581	1527.990
-36.984	42.887	1679.205	1526.814
-35.969	43.076	1677.390	1526.534
-34.954	43.148	1675.751	1525.525
-33.940	43.055	1674.425	1523.555
-32.925	43.054	1672.309	1521.563
-31.911	43.057	1670.678	1520.043
-30.896	43.098	1668.741	1518.531
-29.881	43.100	1666.672	1516.602
-28.867	43.059	1665.130	1514.830
-27.852	43.064	1664.081	1513.852
-26.838	43.111	1662.288	1512.511
-25.823	43.082	1661.043	1511.099
-24.809	43.180	1659.616	1510.480
-23.794	43.010	1658.345	1507.987
-22.779	43.029	1656.770	1506.638
-21.765	43.078	1654.852	1505.201
-20.750	43.009	1653.186	1503.110
-19.736	43.102	1651.912	1502.586
-18.721	43.164	1649.851	1501.112
-17.706	43.128	1648.633	1499.676
-16.692	43.044	1646.855	1497.376
-15.677	43.035	1645.890	1496.375
-14.663	43.097	1644.285	1495.318
-13.648	43.105	1642.650	1493.828
-12.633	43.077	1641.286	1492.323
-11.619	43.110	1639.942	1491.283
-10.604	43.042	1638.356	1489.276
-9.590	43.168	1636.645	1488.599
-8.575	43.087	1635.399	1486.804
-7.560	43.083	1634.207	1485.634
-6.546	43.135	1632.897	1484.767
-5.531	43.120	1632.044	1483.818
-4.517	43.073	1630.842	1482.327
-3.502	43.022	1629.909	1481.045
-2.487	43.172	1627.954	1480.309
-1.473	43.181	1616.868	1470.233
-0.458	41.009	1597.608	1436.993
0.556	36.250	1595.556	1400.766
1.571	33.322	1618.929	1399.552
2.586	32.480	1632.808	1405.137
3.600	28.607	1579.555	1331.161
4.615	15.696	1457.685	1141.299
5.629	3.612	1380.217	1002.460
6.644	1.197	1369.758	979.203
7.659	1.020	1367.903	976.646
8.673	0.979	1366.738	975.465
9.688	0.935	1365.347	974.100
10.702	0.664	1362.847	970.492
11.717	4.746	1371.411	1002.846
12.731	16.468	1393.431	1095.220
13.746	24.350	1406.420	1156.668
14.761	24.730	1405.951	1158.637
15.775	24.741	1405.944	1158.602
16.790	24.787	1404.973	1157.998
17.804	24.819	1404.457	1157.679
18.819	25.055	1404.151	1158.846
19.834	25.090	1403.157	1158.151
20.848	25.109	1402.281	1157.450
21.863	25.155	1401.609	1157.092
22.877	25.119	1401.048	1156.292
23.892	25.082	1399.895	1154.995
24.907	25.127	1399.056	1154.493
25.921	25.061	1398.417	1153.441
26.936	25.147	1397.480	1153.115
27.950	25.042	1396.283	1151.351
28.965	25.102	1394.867	1150.468
29.980	25.045	1393.685	1149.027
30.994	25.044	1392.310	1147.786
32.009	25.061	1391.312	1146.968
33.023	25.052	1390.319	1145.989
34.038	25.110	1389.019	1145.187
35.053	25.059	1387.921	1143.860
36.067	25.091	1387.000	1143.200
37.082	25.090	1385.936	1142.215
38.096	24.987	1385.687	1141.253
39.111	25.017	1384.572	1140.426
40.126	25.095	1383.595	1140.018
41.140	25.048	1383.158	1139.255
42.155	25.113	1382.577	1139.092
43.169	25.124	1382.550	1139.038
44.184	25.175	1381.867	1138.697
45.199	25.099	1381.797	1138.054
46.213	25.142	1381.055	1137.615
47.228	25.141	1380.052	1136.686
48.242	25.152	1379.238	1135.983
49.257	25.174	1377.887	1134.909
50.271	25.106	1376.189	1132.982
51.286	25.145	1374.840	1132.013
52.301	25.072	1373.703	1130.517
53.315	25.081	1372.861	1129.779
54.330	25.192	1371.875	1129.572
55.344	25.105	1370.459	1127.756
56.359	25.065	1369.780	1126.848
57.374	25.150	1368.791	1126.466
58.388	25.100	1368.438	1125.765
59.403	25.100	1368.057	1125.351
60.417	25.105	1366.957	1124.376
61.432	25.123	1366.014	1123.614
62.447	25.141	1365.650	1123.326
63.461	25.062	1364.570	1121.848
64.476	25.034	1363.323	1120.546
65.490	25.079	1362.086	1119.711
66.505	25.210	1360.497	1119.125
67.520	25.033	1359.916	1117.443
68.534	25.113	1358.278	1116.500
69.549	25.138	1357.338	1115.782
70.563	25.193	1356.413	1115.266
71.578	25.128	1355.692	1114.166
72.593	25.165	1354.837	1113.597
73.607	25.129	1354.065	1112.643
74.622	25.048	1353.563	1111.630
75.636	25.122	1352.810	1111.368
76.651	25.051	1352.131	1110.270
77.666	25.094	1351.624	1110.028
78.680	25.051	1351.269	1109.367
79.695	25.111	1349.965	1108.572
80.709	25.172	1349.313	1108.314
81.724	25.108	1348.347	1107.030
82.739	25.099	1347.221	1105.951
83.753	25.098	1346.377	1105.151
84.768	25.121	1345.349	1104.355
85.782	25.116	1344.391	1103.441
86.797	25.097	1343.295	1102.325
87.812	25.168	1341.905	1101.523
88.826	25.230	1340.645	1100.770
89.841	25.193	1339.784	1099.739
90.855	25.214	1339.183	1099.281
91.870	25.208	1338.075	1098.232
92.884	25.264	1336.929	1097.537
93.899	25.067	1336.730	1096.074
94.914	25.102	1335.633	1095.292
95.928	25.082	1335.134	1094.663
96.943	25.180	1334.153	1094.359
97.957	25.044	1333.937	1093.259
98.972	25.235	1332.109	1092.827
99.987	25.096	1331.871	1091.689
101.001	25.126	1330.638	1090.765
102.016	25.227	1329.173	1090.078
103.030	25.109	1328.695	1088.875
104.045	25.132	1327.930	1088.289
105.060	25.138	1327.110	1087.559
106.074	25.253	1326.061	1087.300
107.089	25.168	1325.165	1085.950
108.103	25.169	1324.044	1084.943
109.118	25.226	1323.100	1084.421
110.133	25.139	1321.903	1082.816
111.147	25.206	1321.060	1082.437
112.162	25.360	1319.248	1081.779
113.176	25.249	1318.428	1080.346
114.191	25.232	1317.732	1079.575
115.206	25.251	1316.791	1078.825
116.220	25.176	1315.743	1077.418
117.235	25.184	1314.593	1076.431
118.249	25.211	1313.645	1075.724
119.264	25.238	1312.785	1075.084
120.279	25.269	1312.010	1074.540
121.293	25.294	1311.205	1073.934
122.308	25.247	1310.806	1073.230
123.322	25.224	1309.713	1072.106
124.337	25.180	1309.212	1071.340
125.352	25.267	1308.038	1070.799
126.366	25.263	1307.449	1070.201
127.381	25.335	1306.049	1069.390
128.395	25.333	1304.976	1068.402
129.410	25.268	1304.357	1067.414
130.424	25.342	1303.520	1067.076
131.439	25.321	1302.906	1066.355
132.454	25.213	1302.239	1065.072
133.468	25.272	1301.910	1065.062
134.483	25.294	1301.333	1064.624
135.497	25.310	1300.259	1063.744
136.512	25.306	1299.416	1062.936
137.527	25.337	1298.035	1061.898
138.541	25.332	1296.734	1060.708
139.556	25.260	1295.804	1059.428
140.570	25.260	1294.896	1058.597
141.585	25.222	1293.789	1057.372
142.600	25.298	1292.182	1056.415
143.614	25.297	1291.793	1055.996
144.629	25.264	1290.461	1054.622
145.643	25.255	1289.504	1053.691
146.658	25.195	1288.625	1052.530
147.673	25.237	1287.374	1051.657
148.687	25.286	1286.513	1051.148
149.702	25.164	1285.444	1049.467
150.716	25.235	1284.114	1048.704
151.731	25.258	1283.157	1047.967
152.746	25.318	1282.284	1047.512
153.760	25.202	1281.309	1045.942
154.775	25.308	1280.360	1045.692
155.789	25.347	1279.285	1044.953
156.804	25.361	1278.309	1044.142
157.819	25.291	1277.403	1042.904
158.833	25.300	1276.874	1042.434
159.848	25.285	1276.345	1041.821
160.862	25.344	1275.112	1041.064
161.877	25.359	1274.476	1040.541
162.892	25.269	1273.923	1039.472
163.906	25.265	1272.994	1038.603
164.921	25.322	1272.482	1038.423
165.935	25.386	1271.421	1037.831
166.950	25.426	1270.907	1037.554
167.964	25.387	1270.300	1036.742
168.979	25.369	1269.645	1036.012
169.994	25.400	1269.104	1035.659
171.008	25.340	1268.870	1035.025
172.023	25.399	1267.593	1034.236
173.037	25.406	1266.745	1033.489
174.052	25.406	1266.474	1033.179
175.067	25.341	1265.412	1031.848
176.081	25.390	1264.573	1031.353
177.096	25.344	1263.980	1030.512
178.110	25.347	1262.902	1029.561
179.125	25.398	1261.656	1028.749
180.140	25.436	1260.934	1028.285
181.154	25.494	1259.550	1027.397
182.169	25.400	1258.546	1025.952
183.183	25.391	1257.657	1025.082
184.198	25.414	1256.635	1024.287
185.213	25.493	1255.828	1023.992
186.227	25.465	1254.796	1022.899
187.242	25.506	1253.944	1022.350
188.256	25.511	1253.050	1021.556
189.271	25.521	1251.888	1020.577
190.286	25.585	1250.971	1020.103
191.300	25.497	1250.754	1019.338
192.315	25.409	1250.492	1018.531
193.329	25.469	1250.134	1018.489
194.344	25.569	1249.311	1018.297
195.359	25.445	1249.076	1017.315
196.373	25.463	1248.395	1016.769
197.388	25.491	1247.591	1016.183
198.402	25.407	1247.650	1015.665
199.417	25.384	1247.372	1015.220
200.432	25.554	1246.320	1015.237
201.446	25.530	1245.714	1014.516
202.461	25.460	1245.041	1013.481
203.475	25.476	1244.468	1013.016
204.490	25.505	1243.658	1012.429
205.504	25.500	1242.249	1011.165
206.519	25.515	1241.635	1010.659
207.534	25.527	1240.416	1009.649
208.548	25.568	1239.245	1008.835
209.563	25.556	1239.159	1008.611
210.577	25.480	1238.358	1007.439
211.592	25.552	1237.425	1006.998
212.607	25.580	1236.674	1006.453
213.621	25.609	1235.966	1005.951
214.636	25.508	1235.247	1004.711
215.650	25.534	1234.506	1004.164
216.665	25.578	1233.088	1003.166
217.680	25.643	1232.126	1002.661
218.694	25.603	1231.265	1001.648
219.709	25.619	1230.737	1001.216
220.723	25.581	1230.155	1000.441
221.738	25.595	1229.249	999.696
222.753	25.498	1228.684	998.613
223.767	25.555	1227.848	998.161
224.782	25.689	1227.621	998.630
225.796	25.734	1226.942	998.239
226.811	25.650	1226.411	997.251
227.826	25.604	1225.524	996.188
228.840	25.628	1225.231	995.996
229.855	25.566	1224.464	994.939
230.869	25.733	1223.522	995.007
231.884	25.585	1222.936	993.627
232.899	25.742	1221.980	993.631
233.913	25.619	1221.747	992.670
234.928	25.770	1221.300	993.055
235.942	25.740	1220.615	992.247
236.957	25.781	1219.525	991.496
237.972	25.682	1218.988	990.429
238.986	25.802	1218.964	990.981
240.001	25.754	1218.271	990.067
241.015	25.746	1217.562	989.357
242.030	25.864	1216.263	988.861
243.045	25.821	1215.455	987.882
244.059	25.892	1214.712	987.581
245.074	25.931	1213.750	986.925
246.088	25.857	1213.388	986.135
247.103	25.869	1212.586	985.465
248.117	25.931	1211.307	984.676
249.132	25.899	1210.739	983.953
250.147	25.940	1210.043	983.521
251.161	25.990	1208.996	982.856
252.176	25.844	1209.290	982.214
253.190	25.905	1208.244	981.607
254.205	25.907	1207.779	981.157
255.220	25.883	1207.218	980.482
256.234	25.960	1206.776	980.457
257.249	26.039	1205.719	979.938
258.263	25.856	1205.418	978.615
259.278	25.933	1205.023	978.626
260.293	26.000	1204.388	978.387
261.307	25.932	1203.963	977.587
262.322	25.966	1203.036	976.930
263.336	26.000	1202.246	976.387
264.351	26.056	1201.862	976.289
265.366	25.957	1201.267	975.185
266.380	25.988	1200.646	974.765
267.395	25.852	1200.082	973.487
268.409	26.013	1198.885	973.298
269.424	26.049	1198.320	972.944
270.439	26.046	1198.056	972.632
271.453	25.991	1197.635	971.902
272.468	25.931	1196.948	970.940
273.482	25.997	1196.047	970.476
274.497	26.107	1195.349	970.415
275.512	26.050	1195.121	969.840
276.526	26.130	1193.977	969.254
277.541	26.105	1193.389	968.558
278.555	26.248	1192.565	968.569
279.570	26.187	1191.928	967.638
280.585	26.049	1191.464	966.437
281.599	26.055	1190.472	965.581
282.614	26.074	1189.703	964.973
283.628	26.191	1188.761	964.750
284.643	26.081	1187.920	963.392
285.657	26.208	1186.886	963.147
286.672	26.191	1186.039	962.285
287.687	26.184	1184.997	961.316
288.701	26.230	1184.523	961.091
289.716	26.292	1183.565	960.557
290.730	26.270	1183.103	959.980
291.745	26.258	1182.596	959.419
292.760	26.226	1182.174	958.822
293.774	26.214	1181.332	957.994
294.789	26.295	1181.175	958.209
295.803	26.295	1180.720	957.754
296.818	26.287	1179.637	956.752
297.833	26.194	1179.449	956.017
298.847	26.222	1178.634	955.426
299.862	26.276	1177.780	954.934
300.876	26.338	1176.559	954.187
301.891	26.341	1176.445	954.025
302.906	26.472	1175.758	954.073
303.920	26.404	1175.120	953.112
304.935	26.321	1174.631	952.193
305.949	26.388	1173.881	951.853
306.964	26.365	1173.409	951.265
307.979	26.385	1172.643	950.669
308.993	26.401	1171.923	950.084
310.008	26.437	1171.273	949.663
311.022	26.426	1170.485	948.882
312.037	26.298	1170.216	947.904
313.052	26.467	1168.711	947.490
314.066	26.474	1167.833	946.731
315.081	26.445	1167.314	946.073
316.095	26.360	1166.748	945.089
317.110	26.476	1166.092	945.077
318.125	26.476	1165.014	944.122
319.139	26.422	1164.887	943.650
320.154	26.437	1164.407	943.257
321.168	26.428	1163.760	942.602
322.183	26.512	1162.992	942.335
323.197	26.479	1162.650	941.805
324.212	26.457	1162.032	941.107
325.227	26.557	1161.471	941.085
326.241	26.630	1160.572	940.655
327.256	26.607	1159.920	939.925
328.270	26.542	1159.063	938.808
329.285	26.728	1157.762	938.635
330.300	26.537	1157.821	937.609
331.314	26.580	1156.820	936.942
332.329	26.681	1155.598	936.387
333.343	26.592	1155.217	935.537
334.358	26.595	1154.732	935.080
335.373	26.729	1153.749	934.890
336.387	26.676	1153.294	934.168
337.402	26.722	1152.403	933.601
338.416	26.639	1152.102	932.845
339.431	26.780	1151.011	932.604
340.446	26.849	1150.421	932.401
341.460	26.776	1150.280	931.828
342.475	26.772	1149.214	930.858
343.489	26.762	1148.168	929.879
344.504	26.736	1147.344	928.995
345.519	26.850	1146.223	928.591
346.533	26.713	1146.202	927.788
347.548	26.916	1145.023	927.792
348.562	26.889	1144.296	926.982
349.577	26.771	1143.831	925.920
350.592	26.961	1142.263	925.537
351.606	26.668	1142.472	924.131
352.621	26.780	1141.793	924.071
353.635	27.011	1141.055	924.571
354.650	26.808	1140.231	922.786
355.665	26.855	1139.895	922.669
356.679	26.944	1139.552	922.763
357.694	26.915	1138.713	921.858
358.708	26.901	1137.748	920.924
359.723	26.874	1137.408	920.429
360.738	26.816	1137.029	919.747
361.752	26.890	1136.429	919.554
362.767	26.970	1135.597	919.204
363.781	26.980	1135.247	918.893
364.796	26.983	1134.580	918.285
365.810	27.031	1133.823	917.834
366.825	27.008	1133.392	917.285
367.840	27.032	1132.510	916.614
368.854	27.096	1132.152	916.566
369.869	27.021	1131.368	915.470
370.883	27.195	1130.473	915.541
371.898	27.146	1129.644	914.544
372.913	27.179	1129.003	914.109
373.927	27.146	1128.716	913.631
374.942	27.104	1128.412	913.094
375.956	27.118	1128.049	912.787
376.971	27.095	1127.427	912.091
377.986	27.124	1126.806	911.650
379.000	27.130	1125.956	910.912
380.015	27.228	1125.499	910.954
381.029	27.175	1124.840	910.073
382.044	27.215	1124.187	909.665
383.059	27.228	1123.704	909.262
384.073	27.290	1122.904	908.841
385.088	27.208	1122.039	907.650
386.102	27.305	1121.145	907.334
387.117	27.155	1120.679	906.125
388.132	27.206	1119.695	905.506
389.146	27.150	1119.265	904.800
390.161	27.346	1118.137	904.778
391.175	27.213	1117.976	903.908
392.190	27.302	1117.249	903.684
393.205	27.298	1116.077	902.638
394.219	27.319	1115.571	902.254
395.234	27.394	1114.656	901.802
396.248	27.364	1113.754	900.846
397.263	27.327	1113.183	900.119
398.278	27.454	1112.450	900.078
399.292	27.528	1111.709	899.762
400.307	27.570	1111.355	899.602
401.321	27.485	1110.820	898.672
402.336	27.399	1110.078	897.567
403.350	27.365	1109.349	896.729
404.365	27.489	1108.750	896.776
405.380	27.414	1108.124	895.823
406.394	27.395	1107.302	894.988
407.409	27.479	1106.853	894.957
408.423	27.568	1105.825	894.482
409.438	27.699	1104.965	894.348
410.453	27.598	1104.389	893.310
411.467	27.543	1103.976	892.626
412.482	27.594	1103.031	892.034
413.496	27.689	1102.520	892.007
414.511	27.607	1101.690	890.856
415.526	27.700	1101.249	890.876
416.540	27.520	1101.029	889.737
417.555	27.640	1100.289	889.649
418.569	27.622	1100.054	889.292
419.584	27.590	1099.755	888.814
420.599	27.738	1099.187	888.998
421.613	79.760	1285.453	1325.639
422.628	74.640	1312.596	1325.784
