DTS Sentinel unit serial number:	SN413079Multiplexer serial number:	ORYXHardware model number:	OX4-SRSoftware version number:	ORYX F/W v4.00 Oryx Data Collector v3.7.2.0data status	okinstallation	princeton_trtdifferential loss correction	single-endedforward channel	channel 2reverse channel	N/Adate	2019/09/18time	09:35:34forward acquisition time	60.00reverse acquisition time	0.00gamma	496.2192k internal	0.2336k external	0.2336temperature offset calibration	0.9975default loss term (dB/km)	0.3790temperature slope calibration	1.0000multiplexer offset coefficient	1.0000multiplexer slope coefficient	1.0000fibre end	0.00T internal ref (°C)	26.56T ext. ref 1 (°C)	0.27T ext. ref 2 (°C)	23.37length (m)	temperature (°C)	Stokes	anti-Stokes-747.200	34.390	-0.105	0.092
-746.185	222.325	0.073	-0.118
-745.171	43.316	-0.093	0.085
-744.156	800.000	-0.070	0.217
-743.142	800.000	0.129	-0.377
-742.127	-200.000	0.011	0.114
-741.112	122.950	0.120	-0.151
-740.098	-83.040	-0.096	-0.031
-739.083	-121.476	-0.152	0.025
-738.069	431.262	-0.102	-0.221
-737.054	157.086	-0.137	-0.190
-736.039	188.228	-0.118	0.176
-735.025	-200.000	-0.054	0.348
-734.010	267.918	0.134	0.236
-732.996	-83.699	-0.199	-0.064
-731.981	418.282	0.094	-0.203
-730.966	-31.717	-0.143	-0.080
-729.952	800.000	-0.099	0.296
-728.937	72.059	0.212	-0.221
-727.923	364.728	0.073	-0.148
-726.908	64.729	-0.098	-0.099
-725.894	80.835	-0.232	-0.251
-724.879	-70.341	0.080	0.030
-723.864	-55.901	-0.093	-0.042
-722.850	54.280	0.298	-0.288
-721.835	18.661	0.114	-0.091
-720.821	800.000	0.043	-0.172
-719.806	800.000	0.082	-0.293
-718.791	800.000	-0.049	-0.184
-717.777	70.708	-0.244	-0.253
-716.762	-19.762	0.217	0.135
-715.748	-35.899	0.043	0.024
-714.733	-110.135	0.264	-0.055
-713.718	-46.500	-0.192	-0.094
-712.704	-31.543	0.160	0.090
-711.689	-101.195	0.353	0.087
-710.675	19.144	-0.204	0.164
-709.660	-124.490	0.174	0.027
-708.645	163.211	0.120	0.169
-707.631	64.414	0.085	-0.086
-706.616	-15.898	-0.254	-0.162
-705.602	-55.235	-0.203	-0.092
-704.587	74.940	-0.130	0.137
-703.572	119.661	-0.176	0.218
-702.558	-143.637	0.149	-0.014
-701.543	226.641	-0.248	0.403
-700.529	-143.166	-0.148	0.014
-699.514	-200.000	0.003	-0.152
-698.499	138.150	-0.183	0.240
-697.485	-200.000	0.043	-0.224
-696.470	507.832	-0.038	-0.089
-695.456	800.000	-0.065	0.237
-694.441	64.145	-0.193	-0.195
-693.426	684.704	0.044	-0.115
-692.412	-119.999	-0.403	0.069
-691.397	-27.120	0.150	-0.088
-690.383	56.550	-0.081	-0.079
-689.368	-200.000	0.013	0.317
-688.354	-22.670	-0.221	0.134
-687.339	129.096	0.205	-0.262
-686.324	-119.469	0.134	0.023
-685.310	-200.000	-0.008	-0.090
-684.295	-41.298	0.164	0.084
-683.281	-111.127	0.091	0.019
-682.266	-144.658	-0.243	-0.022
-681.251	253.525	0.047	-0.080
-680.237	36.198	0.334	0.295
-679.222	333.926	-0.144	0.279
-678.208	-121.717	0.321	-0.053
-677.193	-37.309	-0.266	-0.143
-676.178	184.931	-0.055	0.082
-675.164	800.000	-0.044	-0.170
-674.149	-200.000	-0.014	-0.133
-673.135	-96.486	-0.281	0.074
-672.120	800.000	-0.098	-0.336
-671.105	177.067	-0.148	-0.216
-670.091	48.382	-0.341	-0.320
-669.076	516.804	0.095	-0.222
-668.062	177.142	-0.165	-0.241
-667.047	131.977	0.185	-0.239
-666.032	-166.742	-0.271	-0.011
-665.018	123.889	-0.073	0.092
-664.003	-111.978	0.187	0.038
-662.989	52.565	0.239	0.229
-661.974	503.123	-0.074	-0.172
-660.959	-134.163	-0.129	0.016
-659.945	80.286	-0.075	-0.081
-658.930	56.145	-0.116	-0.113
-657.916	800.000	-0.029	-0.080
-656.901	-142.977	-0.361	-0.035
-655.886	-53.418	-0.309	0.142
-654.872	67.224	-0.043	0.044
-653.857	-200.000	-0.002	-0.053
-652.843	-57.008	-0.075	-0.033
-651.828	514.977	0.037	-0.085
-650.814	-200.000	-0.008	-0.196
-649.799	28.863	-0.176	0.149
-648.784	-119.173	0.173	0.030
-647.770	-200.000	0.060	0.296
-646.755	-1.282	-0.183	-0.129
-645.741	-88.378	-0.487	-0.146
-644.726	-93.667	-0.195	-0.054
-643.711	16.218	-0.396	-0.313
-642.697	314.723	-0.067	-0.126
-641.682	93.554	-0.160	0.181
-640.668	228.080	0.109	-0.178
-639.653	94.025	0.111	0.126
-638.638	35.806	-0.481	0.423
-637.624	186.650	-0.068	0.101
-636.609	44.807	-0.084	-0.077
-635.595	538.484	-0.048	-0.114
-634.580	-0.234	0.092	-0.065
-633.565	374.654	-0.109	-0.222
-632.551	-91.946	-0.319	0.090
-631.536	54.852	-0.024	0.024
-630.522	-129.133	0.338	-0.047
-629.507	-128.028	-0.206	-0.030
-628.492	-191.808	0.167	0.002
-627.478	-200.000	-0.008	0.105
-626.463	800.000	0.091	0.322
-625.449	60.488	-0.142	0.141
-624.434	93.232	-0.283	0.320
-623.419	-200.000	0.012	0.439
-622.405	-200.000	0.013	-0.058
-621.390	800.000	0.068	-0.192
-620.376	-200.000	-0.002	-0.200
-619.361	-89.414	-0.172	-0.051
-618.346	779.371	0.067	-0.184
-617.332	513.603	0.084	-0.196
-616.317	-200.000	0.030	-0.206
-615.303	779.365	0.031	0.085
-614.288	199.663	0.162	-0.249
-613.273	85.922	-0.050	-0.055
-612.259	-60.075	0.285	0.122
-611.244	-200.000	0.043	0.225
-610.230	-72.789	0.211	0.078
-609.215	-103.439	-0.176	0.041
-608.201	-200.000	-0.155	0.811
-607.186	637.647	-0.102	0.259
-606.171	-104.060	-0.237	0.055
-605.157	-67.480	0.250	0.098
-604.142	437.414	-0.049	-0.108
-603.128	-79.980	0.362	0.121
-602.113	-56.442	-0.146	0.065
-601.098	226.603	0.055	-0.089
-600.084	-108.626	-0.140	-0.030
-599.069	501.364	-0.091	-0.210
-598.055	-61.152	0.389	-0.164
-597.040	197.127	-0.068	0.104
-596.025	-80.916	0.223	-0.074
-595.011	-32.034	0.128	0.071
-593.996	-200.000	0.165	0.000
-592.982	21.185	0.159	-0.129
-591.967	-6.587	-0.183	0.124
-590.952	-176.043	-0.228	-0.006
-589.938	-200.000	-0.009	-0.214
-588.923	-10.107	-0.251	0.166
-587.909	-62.815	-0.208	0.086
-586.894	-200.000	0.019	-0.123
-585.879	-200.000	0.018	-0.107
-584.865	229.407	-0.158	-0.257
-583.850	-32.212	-0.337	0.188
-582.836	-200.000	-0.018	0.093
-581.821	-200.000	-0.014	-0.122
-580.806	57.075	0.183	0.178
-579.792	220.143	0.062	-0.099
-578.777	800.000	0.041	-0.152
-577.763	723.297	0.135	-0.357
-576.748	-19.227	0.254	0.157
-575.733	-200.000	0.032	-0.178
-574.719	-112.061	-0.330	0.066
-573.704	-200.000	-0.019	0.336
-572.690	-200.000	-0.158	0.000
-571.675	27.739	-0.168	0.141
-570.661	800.000	0.144	-0.551
-569.646	213.246	-0.180	-0.284
-568.631	-49.406	0.247	0.117
-567.617	-200.000	0.046	-0.302
-566.602	-4.977	-0.191	0.131
-565.588	-164.334	0.081	0.004
-564.573	800.000	-0.063	-0.191
-563.558	280.846	-0.067	0.120
-562.544	-200.000	0.005	-0.108
-561.529	-123.389	-0.204	-0.032
-560.515	800.000	-0.117	-0.363
-559.500	191.752	0.175	-0.262
-558.485	-47.600	-0.117	-0.057
-557.471	-114.648	0.095	-0.018
-556.456	-0.053	-0.149	0.106
-555.442	173.214	-0.189	-0.272
-554.427	-11.414	0.293	0.192
-553.412	220.576	-0.152	-0.242
-552.398	79.389	-0.207	0.221
-551.383	-168.209	-0.265	-0.010
-550.369	170.771	-0.165	-0.235
-549.354	25.030	-0.200	0.165
-548.339	312.095	-0.157	-0.293
-547.325	180.256	0.174	-0.255
-546.310	106.907	-0.094	-0.111
-545.296	-2.234	0.156	-0.109
-544.281	58.973	0.032	-0.031
-543.266	-200.000	0.043	-0.196
-542.252	-200.000	0.065	-0.304
-541.237	-174.950	0.292	-0.008
-540.223	-200.000	-0.058	0.591
-539.208	85.197	0.225	-0.246
-538.193	271.049	-0.061	0.107
-537.179	-25.350	0.160	0.094
-536.164	172.187	-0.179	-0.257
-535.150	281.974	0.090	-0.160
-534.135	139.173	-0.052	0.068
-533.121	202.694	-0.176	-0.271
-532.106	-6.932	-0.123	0.083
-531.091	-200.000	0.007	0.141
-530.077	-200.000	-0.051	-0.244
-529.062	-200.000	0.046	-0.285
-528.048	106.722	-0.068	-0.080
-527.033	164.291	-0.217	-0.305
-526.018	-79.945	0.244	0.081
-525.004	130.218	0.197	0.252
-523.989	22.735	-0.114	0.093
-522.975	-120.524	-0.159	-0.027
-521.960	-200.000	0.006	-0.495
-520.945	800.000	0.019	-0.083
-519.931	-72.774	0.334	-0.122
-518.916	420.764	-0.144	0.308
-517.902	-103.758	0.181	0.042
-516.887	-84.083	-0.129	-0.041
-515.872	-200.000	0.037	-0.229
-514.858	469.392	0.015	0.032
-513.843	-62.063	-0.266	0.111
-512.829	800.000	0.079	0.291
-511.814	-153.877	-0.053	-0.004
-510.799	-181.312	-0.182	0.004
-509.785	-104.149	0.366	0.085
-508.770	-200.000	0.009	0.096
-507.756	114.018	-0.206	-0.250
-506.741	-103.887	-0.209	-0.049
-505.726	203.077	0.044	0.068
-504.712	63.615	0.124	0.124
-503.697	800.000	-0.063	-0.211
-502.683	197.318	-0.138	-0.209
-501.668	52.089	-0.076	-0.072
-500.653	-200.000	-0.066	-0.343
-499.639	81.546	0.353	-0.380
-498.624	-34.864	-0.134	-0.073
-497.610	188.560	0.081	-0.121
-496.595	-40.476	0.287	-0.148
-495.581	-200.000	-0.075	-0.384
-494.566	-88.718	0.039	0.012
-493.551	699.187	-0.115	0.301
-492.537	-83.657	0.075	0.024
-491.522	118.407	-0.028	0.034
-490.508	-200.000	-0.014	-0.134
-489.493	64.094	-0.106	0.106
-488.478	561.511	0.046	0.109
-487.464	800.000	0.070	0.199
-486.449	8.502	-0.137	0.102
-485.435	-179.398	-0.511	0.011
-484.420	-23.375	0.066	0.040
-483.405	-200.000	0.010	0.355
-482.391	-102.606	-0.234	0.056
-481.376	800.000	-0.024	-0.089
-480.362	-132.904	-0.205	-0.026
-479.347	-110.000	-0.197	-0.041
-478.332	-139.073	0.030	0.003
-477.318	27.634	-0.344	0.287
-476.303	353.594	-0.072	-0.141
-475.289	-200.000	-0.012	-0.101
-474.274	100.433	-0.130	0.150
-473.259	-91.519	-0.201	-0.057
-472.245	-147.987	0.198	0.016
-471.230	-89.047	0.367	-0.108
-470.216	-200.000	0.019	-0.138
-469.201	-131.968	0.328	-0.042
-468.186	-107.189	-0.172	-0.038
-467.172	-200.000	-0.067	0.303
-466.157	800.000	-0.083	-0.249
-465.143	732.262	-0.127	0.337
-464.128	800.000	-0.091	0.375
-463.113	-200.000	0.036	0.386
-462.099	-23.610	-0.296	0.176
-461.084	11.016	0.145	-0.110
-460.070	800.000	-0.110	-0.402
-459.055	-21.899	0.109	0.066
-458.040	603.164	-0.010	-0.026
-457.026	470.331	0.091	0.202
-456.011	28.896	-0.191	0.161
-454.997	-200.000	-0.020	-0.128
-453.982	-200.000	-0.031	0.169
-452.968	-147.363	-0.152	0.013
-451.953	108.167	0.106	0.125
-450.938	86.624	0.143	-0.156
-449.924	-163.112	-0.226	0.011
-448.909	-43.037	-0.209	0.105
-447.895	-119.412	0.344	-0.059
-446.880	279.556	0.072	-0.128
-445.865	-6.598	-0.091	0.061
-444.851	-81.946	-0.366	0.119
-443.836	-165.696	0.300	-0.013
-442.822	-133.134	-0.188	-0.024
-441.807	562.261	-0.070	-0.168
-440.792	240.867	0.101	0.166
-439.778	-155.928	-0.482	-0.030
-438.763	-142.903	-0.105	-0.010
-437.749	800.000	-0.039	-0.142
-436.734	-35.070	-0.136	0.073
-435.719	-165.475	0.216	0.009
-434.705	-200.000	0.001	0.144
-433.690	-107.480	-0.145	0.031
-432.676	171.729	-0.227	-0.323
-431.661	-2.782	0.319	-0.221
-430.646	-200.000	-0.085	-0.387
-429.632	-200.000	-0.011	-0.063
-428.617	-107.981	0.293	-0.063
-427.603	360.703	-0.078	0.155
-426.588	-124.777	0.274	0.042
-425.573	-106.999	-0.337	0.074
-424.559	-200.000	0.003	0.058
-423.544	45.146	-0.221	0.202
-422.530	256.162	0.266	0.452
-421.515	69.541	0.097	-0.099
-420.500	74.735	-0.171	-0.178
-419.486	-200.000	0.006	0.423
-418.471	-159.330	0.279	-0.015
-417.457	-177.402	-0.098	0.002
-416.442	-133.273	-0.154	-0.019
-415.428	-127.286	-0.053	-0.008
-414.413	-200.000	-0.038	0.189
-413.398	-200.000	0.060	0.333
-412.384	-173.061	-0.090	-0.003
-411.369	-89.583	0.208	-0.060
-410.355	-29.652	0.445	0.252
-409.340	-41.061	0.353	0.181
-408.325	-87.043	-0.286	0.086
-407.311	-96.328	-0.226	-0.059
-406.296	-151.234	0.125	0.009
-405.282	391.352	-0.131	0.269
-404.267	-77.685	-0.197	0.068
-403.252	30.969	0.183	-0.156
-402.238	75.291	0.268	-0.280
-401.223	250.642	-0.198	0.334
-400.209	789.513	-0.118	0.321
-399.194	-57.399	-0.225	0.098
-398.179	350.598	-0.168	-0.329
-397.165	-200.000	0.031	-0.169
-396.150	-104.081	-0.448	-0.103
-395.136	-200.000	0.018	0.282
-394.121	-83.756	0.098	0.031
-393.106	-63.630	0.320	0.130
-392.092	-34.354	0.230	0.125
-391.077	800.000	-0.131	-0.447
-390.063	-39.620	0.081	0.042
-389.048	258.716	-0.107	0.183
-388.033	217.447	-0.158	0.249
-387.019	174.554	0.141	-0.201
-386.004	-22.702	-0.145	-0.087
-384.990	-78.389	0.073	0.025
-383.975	-19.826	0.237	-0.145
-382.960	800.000	-0.061	0.232
-381.946	-116.933	-0.230	-0.042
-380.931	-172.871	-0.164	-0.005
-379.917	-1.983	-0.127	-0.088
-378.902	-200.000	0.065	0.479
-377.888	72.565	0.140	0.144
-376.873	-101.521	-0.389	0.094
-375.858	-170.623	-0.140	0.005
-374.844	-200.000	0.042	0.296
-373.829	366.790	-0.110	0.220
-372.815	98.114	0.151	0.172
-371.800	-40.027	0.272	0.141
-370.785	800.000	0.052	0.172
-369.771	-200.000	-0.020	0.208
-368.756	-47.459	-0.287	-0.138
-367.742	-58.506	0.104	-0.045
-366.727	-15.843	0.146	-0.092
-365.712	553.768	0.077	-0.184
-364.698	-200.000	0.058	-0.298
-363.683	354.761	-0.054	-0.106
-362.669	-55.556	-0.466	-0.207
-361.654	800.000	0.149	0.407
-360.639	-41.981	-0.256	0.129
-359.625	396.273	0.249	0.513
-358.610	79.949	-0.169	0.180
-357.596	-95.365	-0.179	-0.048
-356.581	9.309	0.308	0.230
-355.566	104.929	0.083	-0.097
-354.552	-154.592	0.099	0.007
-353.537	-200.000	0.015	-0.072
-352.523	-145.133	0.332	0.030
-351.508	-146.568	-0.318	-0.027
-350.493	227.231	-0.168	0.270
-349.479	-40.992	-0.305	0.156
-348.464	674.968	0.120	-0.308
-347.450	106.709	0.201	0.236
-346.435	63.862	-0.095	0.094
-345.420	-35.463	0.268	0.144
-344.406	2.763	0.200	-0.144
-343.391	40.653	-0.094	-0.083
-342.377	-84.798	-0.268	0.083
-341.362	-44.695	-0.268	-0.132
-340.348	-186.796	0.139	-0.002
-339.333	-200.000	-0.006	0.061
-338.318	-74.077	-0.289	0.104
-337.304	-200.000	0.037	0.232
-336.289	-200.000	0.019	-0.196
-335.275	543.701	-0.127	-0.299
-334.260	-200.000	-0.016	-0.207
-333.245	-82.539	-0.258	-0.083
-332.231	237.477	-0.190	0.311
-331.216	-165.654	0.268	-0.011
-330.202	59.669	0.271	0.265
-329.187	-200.000	-0.030	-0.190
-328.172	206.984	0.302	-0.465
-327.158	12.045	-0.057	-0.044
-326.143	800.000	0.019	0.061
-325.129	155.094	-0.069	-0.094
-324.114	-194.680	-0.171	-0.001
-323.099	-89.614	0.179	0.052
-322.085	99.168	0.195	0.222
-321.070	197.936	-0.126	0.191
-320.056	-2.067	0.192	-0.133
-319.041	-200.000	-0.002	-0.165
-318.026	-15.820	0.152	0.095
-317.012	332.594	0.061	0.116
-315.997	-85.175	0.295	-0.091
-314.983	197.293	0.007	-0.011
-313.968	800.000	0.105	-0.336
-312.953	-98.872	0.392	-0.098
-311.939	70.943	0.200	-0.204
-310.924	-42.444	-0.142	0.071
-309.910	141.592	-0.121	0.159
-308.895	-64.380	0.269	-0.108
-307.880	115.520	0.205	-0.248
-306.866	-8.179	-0.308	0.205
-305.851	720.504	0.171	0.448
-304.837	254.833	0.071	0.120
-303.822	381.250	0.113	0.229
-302.807	27.317	-0.014	0.011
-301.793	51.335	-0.069	-0.064
-300.778	235.559	-0.080	-0.131
-299.764	42.986	-0.083	0.075
-298.749	74.251	0.157	-0.163
-297.735	36.230	-0.190	0.165
-296.720	-152.699	-0.284	-0.020
-295.705	-50.468	-0.045	0.021
-294.691	-33.690	0.370	0.201
-293.676	-165.119	-0.349	-0.015
-292.662	800.000	-0.115	-0.400
-291.647	800.000	0.084	-0.241
-290.632	-100.650	0.107	-0.026
-289.618	-15.457	0.253	0.160
-288.603	-56.802	0.254	-0.111
-287.589	-114.432	0.145	0.028
-286.574	-152.704	-0.109	0.008
-285.559	-55.450	-0.348	-0.154
-284.545	-114.671	0.148	-0.028
-283.530	-10.931	0.272	-0.177
-282.516	-79.728	0.105	-0.035
-281.501	-106.098	0.281	-0.062
-280.486	539.857	0.029	0.067
-279.472	236.095	-0.039	-0.064
-278.457	-200.000	-0.061	-0.462
-277.443	17.140	0.265	0.207
-276.428	430.175	-0.032	-0.069
-275.413	47.925	-0.039	0.036
-274.399	-129.543	0.189	0.026
-273.384	800.000	0.025	0.071
-272.370	-97.577	0.109	-0.028
-271.355	-168.418	-0.420	0.016
-270.340	-141.340	-0.221	0.022
-269.326	-51.906	-0.079	-0.036
-268.311	-200.000	0.003	0.076
-267.297	319.672	-0.271	-0.506
-266.282	100.150	-0.137	0.157
-265.267	-87.047	0.046	-0.014
-264.253	800.000	-0.073	-0.213
-263.238	-144.816	0.090	-0.008
-262.224	800.000	0.042	-0.120
-261.209	-170.229	0.128	-0.004
-260.195	-52.070	-0.182	-0.083
-259.180	57.853	-0.382	0.368
-258.165	-8.147	0.276	0.183
-257.151	-52.119	-0.249	-0.114
-256.136	-147.142	0.438	-0.037
-255.122	-200.000	-0.034	-0.266
-254.107	-82.086	0.093	-0.030
-253.092	-67.002	0.172	0.067
-252.078	-110.491	-0.154	0.031
-251.063	-116.915	0.170	0.031
-250.049	89.531	0.093	0.102
-249.034	-110.611	-0.084	-0.017
-248.019	-103.922	-0.169	0.039
-247.005	41.867	-0.124	-0.110
-245.990	-50.540	0.148	-0.069
-244.976	-155.712	-0.106	0.007
-243.961	202.207	-0.105	-0.159
-242.946	-109.589	-0.190	0.039
-241.932	-200.000	0.002	0.205
-240.917	800.000	0.017	0.047
-239.903	-77.972	-0.140	-0.047
-238.888	-34.731	-0.035	0.019
-237.873	499.367	0.216	0.491
-236.859	-111.912	-0.149	-0.030
-235.844	593.875	0.115	-0.281
-234.830	199.257	-0.049	-0.073
-233.815	800.000	0.039	-0.123
-232.800	800.000	-0.053	0.201
-231.786	290.464	-0.039	-0.070
-230.771	-55.702	-0.176	0.078
-229.757	800.000	0.070	-0.217
-228.742	400.806	0.182	0.375
-227.727	-200.000	-0.004	0.202
-226.713	254.515	0.182	0.306
-225.698	-149.089	0.159	-0.013
-224.684	-200.000	-0.031	-0.161
-223.669	-30.021	0.342	-0.192
-222.655	-136.017	0.201	0.023
-221.640	800.000	0.091	-0.359
-220.625	-125.792	0.273	-0.041
-219.611	-200.000	0.020	-0.161
-218.596	-182.459	-0.262	0.005
-217.582	-28.256	0.274	0.156
-216.567	20.617	-0.262	0.209
-215.552	48.961	0.133	0.122
-214.538	111.716	-0.230	-0.273
-213.523	-200.000	0.052	-0.272
-212.509	160.279	-0.172	-0.236
-211.494	-57.110	0.236	-0.102
-210.479	-200.000	0.047	-0.490
-209.465	-200.000	-0.124	-0.651
-208.450	370.157	0.120	-0.238
-207.436	36.869	-0.072	0.063
-206.421	-200.000	-0.005	-0.140
-205.406	95.471	-0.131	0.147
-204.392	212.866	0.202	-0.313
-203.377	-176.930	0.176	0.004
-202.363	-200.000	0.008	0.208
-201.348	141.610	-0.060	0.077
-200.333	241.389	0.151	0.248
-199.319	-200.000	-0.043	0.191
-198.304	137.700	-0.020	-0.025
-197.290	-20.802	0.158	-0.095
-196.275	317.091	0.081	-0.150
-195.260	-0.700	-0.109	0.076
-194.246	-200.000	-0.011	0.188
-193.231	-109.135	0.061	0.013
-192.217	-67.944	0.264	0.101
-191.202	-116.362	-0.037	0.007
-190.187	328.498	-0.046	-0.087
-189.173	-200.000	-0.008	0.107
-188.158	-200.000	0.003	0.198
-187.144	800.000	-0.059	0.237
-186.129	165.307	-0.043	0.060
-185.114	107.707	-0.109	-0.128
-184.100	800.000	0.040	-0.153
-183.085	109.795	0.199	-0.234
-182.071	6.462	0.193	0.141
-181.056	-200.000	-0.030	-0.148
-180.042	800.000	-0.028	-0.117
-179.027	-71.869	0.290	-0.106
-178.012	800.000	-0.062	0.204
-176.998	-200.000	-0.055	0.265
-175.983	275.407	0.111	0.194
-174.969	292.867	0.153	0.275
-173.954	-48.370	0.382	0.181
-172.939	166.580	0.134	0.186
-171.925	13.472	0.255	-0.194
-170.910	664.144	-0.089	0.224
-169.896	-51.079	0.115	-0.053
-168.881	-200.000	0.000	-0.259
-167.866	23.007	0.159	0.128
-166.852	21.183	0.283	0.226
-165.837	-58.397	0.411	-0.175
-164.823	-200.000	-0.021	0.350
-163.808	-186.948	0.306	0.004
-162.793	800.000	0.054	-0.151
-161.779	18.329	0.161	-0.126
-160.764	109.959	-0.214	0.252
-159.750	78.566	0.061	0.063
-158.735	-0.935	0.363	-0.252
-157.720	73.270	-0.100	0.103
-156.706	305.121	-0.080	-0.145
-155.691	98.962	0.003	0.004
-154.677	-124.583	0.093	-0.014
-153.662	17.243	0.322	0.251
-152.647	-79.705	0.174	0.057
-151.633	-133.263	0.214	-0.027
-150.618	-8.808	-0.198	0.130
-149.604	102.058	-0.165	-0.189
-148.589	-62.833	-0.044	-0.018
-147.574	-200.000	-0.015	0.277
-146.560	339.913	0.086	0.164
-145.545	-200.000	0.035	0.264
-144.531	133.977	-0.072	0.091
-143.516	-200.000	0.011	-0.049
-142.502	-46.396	0.130	0.063
-141.487	448.030	0.097	0.210
-140.472	-200.000	0.022	-0.152
-139.458	-151.583	-0.209	0.015
-138.443	-200.000	0.011	0.062
-137.429	-200.000	-0.007	0.234
-136.414	-85.269	0.244	0.075
-135.399	75.231	0.126	-0.130
-134.385	800.000	0.037	0.146
-133.370	-200.000	0.004	-0.081
-132.356	-79.277	-0.276	0.092
-131.341	-46.253	-0.231	-0.111
-130.326	-14.270	-0.045	0.029
-129.312	-137.117	0.136	-0.015
-128.297	52.371	-0.181	0.169
-127.283	695.030	0.091	0.233
-126.268	238.668	-0.199	-0.325
-125.253	-48.139	-0.087	-0.041
-124.239	-200.000	0.019	0.100
-123.224	-200.000	-0.002	0.264
-122.210	-120.335	-0.357	0.060
-121.195	-47.662	0.206	0.098
-120.180	137.078	0.093	-0.119
-119.166	-200.000	-0.003	-0.104
-118.151	281.063	0.090	-0.158
-117.137	800.000	0.051	-0.193
-116.122	-52.288	-0.225	-0.102
-115.107	28.211	0.136	0.112
-114.093	-200.000	-0.066	0.299
-113.078	306.721	-0.015	-0.028
-112.064	18.507	0.171	0.134
-111.049	-200.000	0.116	0.557
-110.034	-200.000	0.020	0.204
-109.020	-200.000	0.419	-0.001
-108.005	159.774	-0.042	0.058
-106.991	-200.000	0.018	0.232
-105.976	-200.000	0.052	0.323
-104.962	-45.394	-0.209	-0.102
-103.947	-46.629	0.433	-0.208
-102.932	-93.309	0.262	0.071
-101.918	-88.797	-0.154	-0.045
-100.903	-11.635	0.123	0.079
-99.889	-76.596	-0.455	0.157
-98.874	-57.232	0.118	0.051
-97.859	547.804	-0.076	-0.179
-96.845	-63.250	0.217	0.087
-95.830	-155.429	0.280	0.018
-94.816	46.450	-0.203	0.185
-93.801	481.936	0.146	0.324
-92.786	-36.336	0.318	0.168
-91.772	-65.185	-0.313	0.124
-90.757	-115.070	0.129	0.024
-89.743	-20.924	-0.264	0.159
-88.728	337.742	-0.097	-0.185
-87.713	-129.596	0.274	-0.037
-86.699	-200.000	0.013	0.206
-85.684	-94.726	0.092	-0.025
-84.670	-69.900	0.248	-0.092
-83.655	-25.431	-0.169	0.098
-82.640	-21.336	0.320	-0.191
-81.626	-85.253	-0.187	0.057
-80.611	-7.335	-0.243	-0.161
-79.597	-200.000	0.024	-0.189
-78.582	45.012	-0.110	-0.099
-77.567	-200.000	-0.034	0.163
-76.553	564.535	0.174	0.413
-75.538	234.870	-0.146	-0.236
-74.524	89.682	-0.018	-0.019
-73.509	-200.000	0.005	0.288
-72.494	350.715	-0.052	0.101
-71.480	-72.935	-0.291	-0.105
-70.465	800.000	-0.101	0.324
-69.451	773.877	-0.022	0.060
-68.436	116.913	-0.111	-0.133
-67.422	-157.611	0.174	0.010
-66.407	-38.503	-0.260	-0.134
-65.392	-82.820	-0.153	-0.048
-64.378	-43.025	0.146	0.073
-63.363	45.094	0.299	0.269
-62.349	229.518	-0.108	-0.173
-61.334	56.342	-1.094	-1.039
-60.319	453.182	0.419	0.906
-59.305	-200.000	-0.227	-1.088
-58.290	133.994	0.760	0.962
-57.276	654.575	0.555	1.393
-56.261	-200.000	113.188	606.880
-55.246	439.075	1520.114	3244.109
-54.232	142.960	2713.329	3526.796
-53.217	93.842	2320.243	2570.862
-52.203	35.376	1925.287	1650.987
-51.188	29.539	1713.093	1424.107
-50.173	27.125	1670.764	1370.677
-49.159	47.585	1724.304	1571.804
-48.144	46.329	1738.992	1575.524
-47.130	29.306	1697.892	1409.461
-46.115	26.711	1683.204	1377.516
-45.100	26.476	1678.813	1372.085
-44.086	26.424	1676.051	1369.379
-43.071	26.443	1673.081	1367.046
-42.057	26.330	1671.176	1364.582
-41.042	26.444	1668.623	1363.306
-40.027	26.404	1666.939	1361.570
-39.013	26.375	1665.070	1359.773
-37.998	26.258	1663.874	1357.864
-36.984	26.432	1661.798	1357.421
-35.969	26.516	1660.376	1356.837
-34.954	26.603	1658.999	1356.306
-33.940	26.540	1657.087	1354.219
-32.925	26.587	1655.193	1352.972
-31.911	26.508	1653.722	1351.124
-30.896	26.539	1651.881	1349.796
-29.881	26.562	1650.551	1348.827
-28.867	26.574	1648.796	1347.432
-27.852	26.460	1647.513	1345.477
-26.838	26.585	1645.810	1344.963
-25.823	26.541	1644.582	1343.581
-24.809	26.706	1642.813	1343.301
-23.794	26.650	1641.450	1341.719
-22.779	26.665	1639.985	1340.580
-21.765	26.543	1638.731	1338.599
-20.750	26.565	1636.520	1336.906
-19.736	26.634	1635.462	1336.493
-18.721	26.612	1634.017	1335.098
-17.706	26.540	1632.775	1333.504
-16.692	26.586	1630.634	1332.040
-15.677	26.629	1629.411	1331.302
-14.663	26.675	1627.793	1330.266
-13.648	26.697	1626.280	1329.140
-12.633	26.620	1624.901	1327.393
-11.619	26.607	1623.191	1325.851
-10.604	26.591	1622.015	1324.719
-9.590	26.634	1620.491	1323.734
-8.575	26.606	1619.401	1322.589
-7.560	26.624	1618.091	1321.602
-6.546	26.572	1617.213	1320.448
-5.531	26.522	1616.050	1319.085
-4.517	26.505	1614.758	1317.855
-3.502	26.631	1613.314	1317.538
-2.487	26.632	1612.039	1316.452
-1.473	26.500	1600.368	1305.915
-0.458	24.261	1581.519	1274.495
0.556	19.477	1584.202	1247.348
1.571	17.388	1609.534	1251.824
2.586	17.131	1622.422	1259.830
3.600	15.793	1568.279	1208.080
4.615	8.764	1456.458	1074.822
5.629	1.700	1393.291	982.637
6.644	0.376	1385.599	968.626
7.659	0.246	1384.439	966.896
8.673	0.263	1383.419	966.203
9.688	0.205	1381.370	964.317
10.702	0.048	1378.525	961.241
11.717	3.340	1382.925	985.305
12.731	10.972	1395.024	1042.923
13.746	16.064	1401.722	1080.556
14.761	16.753	1401.780	1084.923
15.775	16.136	1399.731	1079.292
16.790	15.116	1397.419	1070.895
17.804	14.465	1395.038	1064.818
18.819	14.101	1393.770	1061.435
19.834	13.793	1392.339	1058.287
20.848	13.561	1390.919	1055.637
21.863	13.255	1390.051	1052.937
22.877	13.146	1388.491	1050.964
23.892	13.070	1387.343	1049.520
24.907	13.121	1386.528	1049.134
25.921	13.119	1385.753	1048.444
26.936	13.147	1385.001	1047.956
27.950	13.057	1384.292	1046.759
28.965	13.234	1382.918	1046.750
29.980	13.275	1381.762	1046.041
30.994	13.246	1381.045	1045.224
32.009	13.337	1380.261	1045.113
33.023	13.271	1379.016	1043.659
34.038	13.229	1377.804	1042.383
35.053	13.251	1376.580	1041.503
36.067	13.264	1375.824	1040.924
37.082	13.323	1374.494	1040.196
38.096	13.431	1373.219	1039.816
39.111	13.267	1373.112	1038.617
40.126	13.226	1371.687	1037.187
41.140	13.111	1371.434	1036.182
42.155	13.095	1370.703	1035.436
43.169	13.080	1371.280	1035.688
44.184	13.180	1370.342	1035.512
45.199	13.089	1369.995	1034.589
46.213	13.124	1369.513	1034.355
47.228	13.203	1368.462	1033.964
48.242	13.276	1366.700	1032.996
49.257	13.172	1365.681	1031.487
50.271	13.142	1364.225	1030.106
51.286	13.168	1363.143	1029.361
52.301	13.241	1361.621	1028.578
53.315	13.160	1360.447	1027.093
54.330	13.210	1359.891	1026.896
55.344	13.090	1358.332	1024.882
56.359	13.157	1356.999	1024.202
57.374	13.170	1356.131	1023.534
58.388	13.011	1356.110	1022.442
59.403	13.142	1355.106	1022.405
60.417	13.139	1354.201	1021.614
61.432	13.111	1353.392	1020.741
62.447	12.942	1352.836	1019.187
63.461	13.050	1350.876	1018.288
64.476	12.881	1350.402	1016.798
65.490	12.969	1349.214	1016.356
66.505	13.062	1346.835	1015.048
67.520	13.038	1346.398	1014.481
68.534	13.088	1344.838	1013.520
69.549	13.078	1343.937	1012.692
70.563	13.102	1343.038	1012.073
71.578	13.036	1341.673	1010.549
72.593	12.945	1341.387	1009.686
73.607	12.909	1340.508	1008.716
74.622	13.029	1339.484	1008.591
75.636	12.977	1338.850	1007.703
76.651	12.960	1338.174	1007.002
77.666	12.915	1337.397	1006.054
78.680	13.029	1336.530	1006.011
79.695	13.028	1335.908	1005.446
80.709	13.081	1334.551	1004.659
81.724	12.988	1334.373	1003.869
82.739	13.113	1333.468	1003.859
83.753	13.188	1332.320	1003.361
84.768	13.172	1331.155	1002.299
85.782	13.257	1330.173	1001.987
86.797	13.249	1328.794	1000.809
87.812	13.116	1327.293	998.786
88.826	13.106	1326.355	997.929
89.841	13.230	1325.466	997.920
90.855	13.248	1324.073	996.894
91.870	13.264	1323.228	996.264
92.884	13.265	1322.595	995.705
93.899	13.285	1321.633	995.014
94.914	13.367	1320.778	994.776
95.928	13.318	1320.156	993.928
96.943	13.225	1319.310	992.642
97.957	13.251	1318.397	992.024
98.972	13.222	1317.653	991.203
99.987	13.268	1316.262	990.346
101.001	13.239	1315.089	989.198
102.016	13.287	1313.836	988.458
103.030	13.351	1312.757	987.942
104.045	13.282	1312.227	987.044
105.060	13.257	1311.173	986.014
106.074	13.187	1309.615	984.336
107.089	13.175	1308.586	983.407
108.103	13.133	1307.361	982.146
109.118	13.067	1306.069	980.700
110.133	13.137	1304.824	980.093
111.147	13.083	1303.459	978.659
112.162	13.113	1302.585	978.093
113.176	13.157	1300.993	977.071
114.191	13.155	1300.259	976.422
115.206	13.251	1298.655	975.702
116.220	13.193	1297.525	974.421
117.235	13.116	1296.258	972.931
118.249	13.210	1295.557	972.870
119.264	13.139	1294.347	971.462
120.279	13.120	1293.000	970.250
121.293	13.117	1291.871	969.300
122.308	13.096	1291.295	968.658
123.322	13.194	1289.779	968.010
124.337	13.064	1288.945	966.540
125.352	13.041	1288.091	965.677
126.366	13.150	1286.688	965.176
127.381	13.171	1285.601	964.402
128.395	13.122	1284.672	963.332
129.410	13.184	1283.695	962.875
130.424	13.230	1282.751	962.348
131.439	13.215	1282.209	961.771
132.454	13.178	1281.295	960.782
133.468	13.084	1280.446	959.519
134.483	13.237	1279.234	959.413
135.497	13.219	1278.242	958.480
136.512	13.232	1276.895	957.461
137.527	13.233	1275.165	956.085
138.541	13.183	1274.171	954.961
139.556	13.324	1272.929	954.761
140.570	13.298	1271.683	953.596
141.585	13.357	1270.442	952.917
142.600	13.318	1269.573	951.958
143.614	13.286	1268.654	950.997
144.629	13.378	1267.419	950.521
145.643	13.369	1266.015	949.328
146.658	13.274	1264.617	947.654
147.673	13.337	1262.862	946.616
148.687	13.304	1262.516	946.084
149.702	13.352	1260.796	944.987
150.716	13.340	1259.564	943.908
151.731	13.343	1258.551	943.084
152.746	13.287	1257.124	941.610
153.760	13.470	1255.362	941.249
154.775	13.428	1255.203	940.809
155.789	13.458	1254.090	940.061
156.804	13.421	1252.661	938.700
157.819	13.521	1251.835	938.563
158.833	13.606	1250.751	938.149
159.848	13.469	1249.618	936.441
160.862	13.488	1249.034	936.030
161.877	13.456	1247.947	934.948
162.892	13.416	1247.101	934.006
163.906	13.331	1246.290	932.837
164.921	13.446	1244.983	932.424
165.935	13.495	1244.235	932.060
166.950	13.472	1243.712	931.453
167.964	13.549	1242.672	931.027
168.979	13.499	1241.783	929.998
169.994	13.587	1241.105	929.899
171.008	13.515	1240.212	928.743
172.023	13.584	1239.783	928.726
173.037	13.546	1238.934	927.799
174.052	13.602	1237.574	927.007
175.067	13.661	1236.510	926.462
176.081	13.577	1235.985	925.513
177.096	13.543	1234.928	924.455
178.110	13.494	1233.547	923.064
179.125	13.570	1232.426	922.568
180.140	13.547	1231.276	921.494
181.154	13.625	1229.914	920.829
182.169	13.613	1228.686	919.761
183.183	13.599	1227.512	918.726
184.198	13.714	1226.057	918.191
185.213	13.716	1225.012	917.338
186.227	13.731	1224.358	916.851
187.242	13.849	1222.783	916.240
188.256	13.879	1222.219	915.904
189.271	13.782	1221.334	914.625
190.286	13.708	1220.344	913.393
191.300	13.619	1219.472	912.168
192.315	13.658	1218.714	911.735
193.329	13.827	1217.633	911.775
194.344	13.755	1216.858	910.720
195.359	13.652	1216.955	910.145
196.373	13.792	1216.431	910.440
197.388	13.803	1215.843	909.980
198.402	13.834	1215.608	909.894
199.417	13.888	1214.575	909.335
200.432	13.960	1213.936	909.172
201.446	14.021	1212.980	908.712
202.461	14.112	1211.830	908.267
203.475	14.038	1210.813	907.018
204.490	13.903	1209.351	905.110
205.504	13.991	1207.934	904.445
206.519	13.980	1206.933	903.556
207.534	13.977	1206.071	902.816
208.548	13.915	1204.825	901.465
209.563	14.027	1204.179	901.511
210.577	13.906	1203.488	900.257
211.592	14.029	1202.240	899.908
212.607	14.092	1201.246	899.426
213.621	14.127	1200.407	898.909
214.636	14.164	1199.571	898.401
215.650	14.115	1198.887	897.544
216.665	14.146	1198.180	897.105
217.680	14.224	1196.944	896.519
218.694	14.262	1196.321	896.179
219.709	14.257	1195.471	895.434
220.723	14.186	1194.484	894.237
221.738	14.216	1193.965	893.928
222.753	14.247	1193.420	893.607
223.767	14.198	1192.655	892.691
224.782	14.354	1191.997	892.961
225.796	14.448	1190.816	892.501
226.811	14.406	1189.950	891.543
227.826	14.319	1190.035	891.064
228.840	14.347	1188.576	890.041
229.855	14.298	1188.262	889.469
230.869	14.339	1187.203	888.816
231.884	14.328	1186.826	888.398
232.899	14.370	1185.190	887.317
233.913	14.362	1184.881	886.966
234.928	14.306	1184.038	885.958
235.942	14.308	1183.601	885.561
236.957	14.249	1182.658	884.464
237.972	14.293	1181.923	884.070
238.986	14.353	1181.077	883.675
240.001	14.326	1180.457	882.990
241.015	14.497	1179.245	882.910
242.030	14.536	1178.585	882.547
243.045	14.542	1178.006	882.067
244.059	14.471	1176.843	880.745
245.074	14.505	1176.141	880.319
246.088	14.546	1175.345	879.861
247.103	14.500	1174.503	878.911
248.117	14.541	1173.999	878.670
249.132	14.668	1172.995	878.512
250.147	14.574	1172.630	877.665
251.161	14.704	1171.618	877.513
252.176	14.671	1171.360	877.070
253.190	14.818	1170.590	877.185
254.205	14.750	1169.589	876.005
255.220	14.807	1169.615	876.245
256.234	14.862	1168.676	875.749
257.249	14.822	1168.032	874.983
258.263	14.793	1167.345	874.238
259.278	14.778	1166.514	873.459
260.293	14.884	1166.109	873.634
261.307	14.894	1165.730	873.322
262.322	14.949	1164.519	872.627
263.336	14.935	1164.046	872.122
264.351	14.992	1163.563	871.979
265.366	14.980	1162.685	871.184
266.380	15.080	1162.128	871.210
267.395	14.853	1161.564	869.527
268.409	14.998	1160.660	869.525
269.424	14.981	1159.762	868.687
270.439	15.011	1159.743	868.755
271.453	14.969	1158.567	867.577
272.468	14.992	1157.609	866.903
273.482	14.955	1157.158	866.298
274.497	15.100	1156.415	866.416
275.512	15.033	1155.858	865.573
276.526	15.001	1155.023	864.709
277.541	15.051	1154.213	864.280
278.555	15.103	1153.462	863.913
279.570	15.171	1152.452	863.430
280.585	15.117	1151.746	862.545
281.599	15.033	1150.927	861.423
282.614	15.177	1150.192	861.538
283.628	15.232	1148.592	860.548
284.643	15.130	1147.870	859.405
285.657	15.303	1147.118	859.653
286.672	15.208	1146.036	858.278
287.687	15.243	1145.349	857.867
288.701	15.261	1144.431	857.198
289.716	15.277	1143.505	856.509
290.730	15.336	1143.171	856.483
291.745	15.280	1142.479	855.602
292.760	15.274	1142.012	855.149
293.774	15.324	1141.399	854.871
294.789	15.423	1140.578	854.682
295.803	15.432	1139.921	854.158
296.818	15.365	1139.437	853.379
297.833	15.346	1138.499	852.505
298.847	15.437	1137.360	852.038
299.862	15.339	1136.541	850.853
300.876	15.468	1136.107	851.110
301.891	15.450	1135.808	850.718
302.906	15.449	1134.794	849.880
303.920	15.425	1134.454	849.425
304.935	15.525	1133.485	849.128
305.949	15.569	1132.847	848.801
306.964	15.488	1131.921	847.622
307.979	15.672	1130.710	847.568
308.993	15.654	1130.016	846.883
310.008	15.708	1129.315	846.553
311.022	15.692	1128.780	846.000
312.037	15.525	1128.406	844.805
313.052	15.523	1127.184	843.802
314.066	15.564	1126.111	843.129
315.081	15.617	1125.297	842.714
316.095	15.630	1124.358	841.998
317.110	15.654	1123.720	841.566
318.125	15.564	1123.136	840.607
319.139	15.654	1122.573	840.559
320.154	15.689	1121.841	840.115
321.168	15.678	1121.145	839.463
322.183	15.733	1120.808	839.409
323.197	15.710	1120.070	838.667
324.212	15.768	1119.088	838.146
325.227	15.791	1118.510	837.753
326.241	15.758	1118.338	837.390
327.256	15.801	1117.134	836.625
328.270	15.724	1116.228	835.491
329.285	15.717	1115.552	834.879
330.300	15.786	1114.392	834.278
331.314	15.722	1113.766	833.416
332.329	15.783	1112.574	832.754
333.343	15.877	1111.545	832.375
334.358	15.779	1111.106	831.486
335.373	15.903	1110.449	831.537
336.387	15.950	1109.889	831.276
337.402	15.908	1108.963	830.298
338.416	15.896	1108.219	829.607
339.431	15.964	1107.682	829.472
340.446	15.922	1107.164	828.800
341.460	15.997	1106.579	828.659
342.475	16.083	1105.187	827.967
343.489	16.159	1104.156	827.493
344.504	16.169	1103.250	826.790
345.519	16.170	1102.522	826.177
346.533	16.181	1101.986	825.754
347.548	16.206	1101.638	825.545
348.562	16.278	1100.358	824.863
349.577	16.234	1099.426	823.878
350.592	16.246	1098.607	823.249
351.606	16.093	1097.879	821.882
352.621	15.995	1098.003	821.426
353.635	16.112	1097.100	821.249
354.650	16.228	1095.925	820.862
355.665	16.169	1095.535	820.207
356.679	16.163	1094.785	819.544
357.694	16.168	1094.611	819.366
358.708	16.198	1093.616	818.694
359.723	16.242	1092.755	818.191
360.738	16.443	1092.028	818.550
361.752	16.263	1091.581	817.270
362.767	16.388	1091.086	817.432
363.781	16.249	1090.727	816.417
364.796	16.502	1089.601	816.727
365.810	16.420	1088.982	815.795
366.825	16.394	1088.634	815.332
367.840	16.475	1088.235	815.354
368.854	16.532	1087.973	815.363
369.869	16.509	1087.015	814.462
370.883	16.614	1085.719	813.923
371.898	16.459	1085.306	812.794
372.913	16.447	1085.040	812.468
373.927	16.624	1084.051	812.502
374.942	16.586	1083.880	812.120
375.956	16.619	1082.941	811.504
376.971	16.595	1082.438	810.940
377.986	16.616	1081.835	810.515
379.000	16.597	1081.484	810.091
380.015	16.762	1080.478	810.054
381.029	16.736	1079.915	809.437
382.044	16.761	1079.278	809.007
383.059	16.726	1078.839	808.440
384.073	16.811	1077.732	807.946
385.088	16.694	1076.840	806.645
386.102	16.811	1075.796	806.349
387.117	16.797	1075.214	805.774
388.132	16.645	1074.164	804.193
389.146	16.701	1073.306	803.749
390.161	16.725	1072.745	803.368
391.175	16.815	1071.743	802.977
392.190	16.862	1071.096	802.644
393.205	16.877	1070.337	802.073
394.219	16.874	1069.481	801.346
395.234	16.938	1068.682	800.980
396.248	16.943	1067.993	800.415
397.263	16.846	1066.779	798.978
398.278	16.791	1066.410	798.370
399.292	16.896	1065.614	798.202
400.307	16.835	1064.834	797.257
401.321	16.879	1064.384	797.060
402.336	16.981	1063.819	797.045
403.350	17.029	1062.898	796.505
404.365	16.891	1061.998	795.114
405.380	17.052	1061.476	795.410
406.394	16.965	1060.498	794.198
407.409	17.042	1060.229	794.287
408.423	17.073	1059.130	793.539
409.438	17.197	1058.284	793.415
410.453	17.210	1058.050	793.228
411.467	17.118	1057.342	792.197
412.482	17.157	1056.601	791.757
413.496	17.130	1055.805	790.962
414.511	17.198	1055.157	790.725
415.526	17.225	1054.957	790.630
416.540	17.407	1054.172	790.818
417.555	17.272	1053.663	789.737
418.569	17.243	1053.439	789.365
419.584	17.331	1052.893	789.296
420.599	17.335	1052.520	788.965
421.613	104.957	1328.312	1479.148
422.628	96.609	1368.464	1479.240
