DTS Sentinel unit serial number:	SN413079Multiplexer serial number:	ORYXHardware model number:	OX4-SRSoftware version number:	ORYX F/W v4.00 Oryx Data Collector v3.7.2.0data status	okinstallation	princeton_trtdifferential loss correction	single-endedforward channel	channel 2reverse channel	N/Adate	2019/09/14time	10:59:35forward acquisition time	60.00reverse acquisition time	0.00gamma	496.2192k internal	0.2313k external	0.2313temperature offset calibration	1.0145default loss term (dB/km)	0.3790temperature slope calibration	1.0000multiplexer offset coefficient	1.0000multiplexer slope coefficient	1.0000fibre end	0.00T internal ref (°C)	35.97T ext. ref 1 (°C)	4.36T ext. ref 2 (°C)	33.81length (m)	temperature (°C)	Stokes	anti-Stokes-747.200	-200.000	-0.028	0.183
-746.185	286.392	0.139	0.255
-745.171	-108.540	0.241	0.053
-744.156	-200.000	-0.023	0.196
-743.142	-93.238	0.228	-0.064
-742.127	185.148	-0.037	0.056
-741.112	215.928	-0.054	-0.087
-740.098	-41.766	-0.160	0.083
-739.083	-102.570	0.230	-0.056
-738.069	215.697	0.101	0.163
-737.054	66.591	-0.074	0.076
-736.039	-41.375	-0.206	-0.107
-735.025	242.005	0.126	0.214
-734.010	-42.914	-0.401	-0.206
-732.996	-19.281	-0.340	-0.214
-731.981	314.286	0.124	0.237
-730.966	800.000	-0.048	0.204
-729.952	800.000	-0.047	-0.173
-728.937	-17.680	-0.288	0.183
-727.923	-200.000	0.010	0.185
-726.908	-52.555	0.114	-0.054
-725.894	-200.000	0.001	-0.253
-724.879	104.471	-0.091	0.108
-723.864	800.000	-0.124	0.361
-722.850	360.233	-0.075	-0.152
-721.835	-114.088	-0.240	-0.047
-720.821	-25.377	-0.179	-0.107
-719.806	-78.359	0.068	-0.023
-718.791	-116.365	0.116	0.022
-717.777	60.956	-0.201	-0.202
-716.762	-53.625	-0.515	-0.239
-715.748	-91.449	0.237	0.069
-714.733	-11.945	-0.198	0.131
-713.718	-74.288	-0.190	-0.070
-712.704	44.549	-0.276	0.256
-711.689	-127.230	-0.288	0.043
-710.675	9.800	0.096	-0.073
-709.660	-87.655	-0.234	0.071
-708.645	88.208	0.141	0.158
-707.631	64.669	0.319	0.326
-706.616	800.000	0.052	0.162
-705.602	-24.136	0.139	-0.084
-704.587	131.893	-0.260	-0.339
-703.572	103.604	0.068	0.080
-702.558	-200.000	-0.020	-0.287
-701.543	-85.106	0.237	-0.075
-700.529	-190.729	0.351	0.004
-699.514	196.360	-0.108	-0.167
-698.499	-200.000	0.024	-0.138
-697.485	-49.014	-0.140	0.068
-696.470	113.646	0.084	0.104
-695.456	158.726	0.141	0.199
-694.441	-200.000	-0.007	0.139
-693.426	315.720	-0.029	0.056
-692.412	287.745	0.117	-0.214
-691.397	72.466	0.121	0.128
-690.383	75.668	0.094	-0.100
-689.368	-125.832	-0.061	-0.009
-688.354	486.989	-0.150	-0.346
-687.339	800.000	-0.120	-0.398
-686.324	24.478	-0.304	0.255
-685.310	106.677	0.064	0.076
-684.295	-200.000	-0.038	-0.235
-683.281	-132.953	-0.486	-0.062
-682.266	-200.000	0.042	0.198
-681.251	-26.048	-0.322	-0.192
-680.237	-74.620	0.225	-0.082
-679.222	-40.688	0.249	0.131
-678.208	-10.102	-0.219	0.147
-677.193	800.000	0.057	-0.234
-676.178	-200.000	0.020	0.186
-675.164	-44.856	-0.142	0.072
-674.149	-200.000	-0.076	-0.496
-673.135	-121.201	-0.045	0.008
-672.120	-63.642	-0.174	-0.072
-671.105	-200.000	0.012	-0.323
-670.091	-98.776	0.402	0.104
-669.076	239.219	-0.264	0.445
-668.062	210.536	-0.198	0.314
-667.047	497.672	-0.130	-0.301
-666.032	-164.105	0.176	0.008
-665.018	-200.000	-0.041	0.326
-664.003	299.858	-0.172	0.321
-662.989	273.192	0.018	-0.032
-661.974	-111.789	-0.087	-0.018
-660.959	800.000	0.063	0.180
-659.945	37.651	0.139	0.125
-658.930	31.839	0.074	0.065
-657.916	-161.208	0.402	0.021
-656.901	-107.776	-0.227	0.050
-655.886	-200.000	-0.031	-0.142
-654.872	-89.121	0.118	0.035
-653.857	106.974	0.269	-0.322
-652.843	172.558	0.133	0.193
-651.828	-195.515	-0.350	0.003
-650.814	-200.000	0.101	0.465
-649.799	-200.000	0.007	0.192
-648.784	-32.225	-0.235	-0.133
-647.770	-91.896	0.132	0.038
-646.755	743.749	-0.192	-0.521
-645.741	800.000	0.056	0.219
-644.726	-14.029	0.144	-0.094
-643.711	468.208	0.029	-0.065
-642.697	800.000	0.028	0.102
-641.682	-200.000	-0.019	0.188
-640.668	800.000	0.086	0.258
-639.653	-178.715	0.029	0.001
-638.638	620.434	0.027	-0.068
-637.624	231.220	0.125	-0.208
-636.609	-137.432	-0.101	0.012
-635.595	149.540	-0.019	-0.026
-634.580	-59.413	0.082	-0.036
-633.565	47.083	-0.166	-0.156
-632.551	182.365	-0.081	0.120
-631.536	277.744	-0.093	-0.167
-630.522	0.169	0.160	0.115
-629.507	-200.000	-0.009	-0.151
-628.492	800.000	-0.088	0.264
-627.478	-65.666	0.322	-0.130
-626.463	301.327	-0.092	-0.172
-625.449	-48.918	0.218	0.106
-624.434	68.966	-0.068	-0.071
-623.419	437.437	-0.138	-0.304
-622.405	-121.357	-0.402	0.068
-621.390	-123.471	0.316	-0.051
-620.376	-200.000	0.027	-0.249
-619.361	-105.514	0.206	0.047
-618.346	-200.000	-0.024	-0.276
-617.332	800.000	0.063	0.185
-616.317	26.341	-0.118	-0.100
-615.303	-153.364	-0.153	-0.011
-614.288	-151.551	-0.340	-0.025
-613.273	800.000	0.047	-0.189
-612.259	175.240	0.064	0.093
-611.244	145.013	0.064	-0.087
-610.230	-42.889	0.232	0.119
-609.215	-101.605	-0.141	0.034
-608.201	669.894	0.033	-0.085
-607.186	-200.000	0.012	0.067
-606.171	482.043	0.284	-0.652
-605.157	-140.501	0.183	0.019
-604.142	-30.549	0.163	-0.093
-603.128	-51.497	-0.272	0.128
-602.113	-69.080	-0.295	0.115
-601.098	-57.870	0.138	-0.061
-600.084	-30.411	-0.292	0.167
-599.069	-14.683	0.142	0.092
-598.055	-146.856	0.126	0.011
-597.040	302.023	-0.127	0.236
-596.025	67.146	-0.071	0.073
-595.011	696.396	-0.093	0.246
-593.996	-200.000	0.008	0.124
-592.982	-187.473	-0.082	-0.001
-591.967	800.000	0.083	0.328
-590.952	800.000	-0.024	0.089
-589.938	-40.034	-0.365	0.192
-588.923	785.363	-0.073	0.203
-587.909	99.254	-0.097	-0.113
-586.894	183.338	-0.077	0.115
-585.879	-200.000	0.005	0.150
-584.865	-61.945	0.166	-0.070
-583.850	319.548	-0.143	0.273
-582.836	-65.845	0.262	-0.106
-581.821	-106.319	0.037	0.008
-580.806	170.919	-0.196	-0.283
-579.792	312.202	0.184	-0.349
-578.777	-144.190	-0.371	-0.035
-577.763	115.071	0.144	0.177
-576.748	800.000	-0.036	0.112
-575.733	69.673	0.070	0.072
-574.719	-200.000	-0.043	-0.315
-573.704	-76.851	0.125	0.044
-572.690	-200.000	0.016	-0.106
-571.675	448.009	0.095	0.210
-570.661	-176.206	0.171	0.005
-569.646	735.195	0.017	-0.045
-568.631	115.423	-0.030	-0.037
-567.617	-170.707	-0.263	0.009
-566.602	402.935	0.094	-0.198
-565.588	-172.938	-0.168	-0.005
-564.573	-143.941	0.174	-0.017
-563.558	-26.140	0.051	0.030
-562.544	525.293	0.078	-0.186
-561.529	-153.689	-0.111	0.008
-560.515	-160.580	0.250	-0.013
-559.500	207.441	0.105	0.164
-558.485	-200.000	0.013	-0.249
-557.471	-200.000	0.016	-0.280
-556.456	85.213	0.191	0.211
-555.442	800.000	0.114	0.336
-554.427	423.415	-0.029	0.064
-553.412	-39.224	-0.275	-0.145
-552.398	800.000	-0.109	-0.345
-551.383	-200.000	0.019	-0.186
-550.369	-48.870	0.055	-0.027
-549.354	24.561	-0.078	0.065
-548.339	-200.000	0.072	0.422
-547.325	-148.699	0.091	-0.007
-546.310	-200.000	-0.040	0.427
-545.296	56.851	-0.164	-0.161
-544.281	80.086	0.316	-0.341
-543.266	244.610	-0.077	0.130
-542.252	-46.520	0.207	0.102
-541.237	-133.430	0.312	-0.040
-540.223	800.000	0.039	0.159
-539.208	-10.063	0.176	0.118
-538.193	430.285	0.193	-0.421
-537.179	-83.233	-0.075	0.024
-536.164	-106.548	-0.390	-0.087
-535.150	719.671	-0.033	-0.088
-534.135	-118.197	0.109	0.020
-533.121	166.795	-0.048	0.069
-532.106	-99.658	-0.124	-0.031
-531.091	-54.059	0.415	0.190
-530.077	-71.753	0.136	-0.051
-529.062	-186.305	0.149	0.002
-528.048	-200.000	0.007	-0.135
-527.033	161.847	-0.080	-0.113
-526.018	290.405	0.097	0.177
-525.004	-200.000	0.041	-0.237
-523.989	187.937	0.056	0.084
-522.975	-35.867	-0.168	0.091
-521.960	184.892	0.186	-0.278
-520.945	-123.384	-0.090	-0.014
-519.931	-104.570	0.237	-0.055
-518.916	-200.000	-0.018	0.148
-517.902	800.000	-0.084	-0.320
-516.887	-66.684	-0.257	-0.103
-515.872	800.000	0.052	-0.185
-514.858	-154.594	0.289	-0.019
-513.843	27.230	-0.115	0.097
-512.829	272.111	-0.095	0.169
-511.814	208.053	0.204	-0.321
-510.799	-159.153	0.080	0.005
-509.785	-45.880	-0.318	0.158
-508.770	-14.713	-0.104	0.067
-507.756	-95.151	-0.138	0.037
-506.741	-27.744	0.245	0.143
-505.726	56.887	-0.214	-0.210
-504.712	-143.649	-0.257	0.025
-503.697	-42.240	0.184	-0.095
-502.683	211.482	0.030	0.048
-501.668	-200.000	0.000	0.165
-500.653	-200.000	-0.005	0.143
-499.639	-200.000	-0.006	-0.065
-498.624	63.800	0.273	0.276
-497.610	30.298	0.045	0.039
-496.595	777.209	-0.016	0.045
-495.581	-180.302	0.286	0.006
-494.566	-200.000	0.010	0.109
-493.551	96.357	-0.348	-0.400
-492.537	368.397	-0.039	0.080
-491.522	-24.073	0.308	0.185
-490.508	800.000	-0.043	0.127
-489.493	-3.707	-0.148	0.103
-488.478	-200.000	-0.025	0.117
-487.464	-85.842	-0.050	-0.016
-486.449	800.000	0.030	-0.108
-485.435	455.348	0.074	0.165
-484.420	-12.927	0.180	0.118
-483.405	238.161	0.058	-0.097
-482.391	500.234	-0.085	-0.198
-481.376	402.848	0.076	-0.160
-480.362	-200.000	-0.038	0.243
-479.347	57.775	0.223	0.219
-478.332	539.209	0.135	-0.323
-477.318	1.609	-0.319	-0.230
-476.303	183.530	-0.142	0.210
-475.289	-200.000	-0.000	-0.219
-474.274	37.983	-0.244	-0.217
-473.259	6.272	-0.124	-0.092
-472.245	-200.000	-0.000	-0.152
-471.230	-129.153	-0.451	0.063
-470.216	-104.306	0.161	-0.037
-469.201	78.832	0.015	-0.016
-468.186	-66.863	-0.352	0.140
-467.172	800.000	0.030	-0.090
-466.157	-19.302	-0.251	-0.156
-465.143	67.796	-0.090	-0.092
-464.128	-123.273	-0.232	-0.037
-463.113	-74.872	0.059	0.021
-462.099	128.938	-0.212	0.271
-461.084	-82.658	-0.269	0.087
-460.070	-158.576	-0.275	-0.016
-459.055	-91.608	0.363	-0.104
-458.040	20.889	-0.269	-0.219
-457.026	-200.000	0.063	-0.280
-456.011	-200.000	-0.010	-0.228
-454.997	800.000	0.042	0.126
-453.982	52.259	0.122	0.117
-452.968	-133.994	0.119	-0.015
-451.953	732.609	-0.079	-0.211
-450.938	-200.000	-0.011	0.114
-449.924	-110.261	0.133	0.028
-448.909	-82.046	0.317	0.104
-447.895	-200.000	0.034	-0.161
-446.880	76.178	-0.353	0.375
-445.865	-27.799	-0.151	0.088
-444.851	-135.682	0.286	-0.034
-443.836	148.140	0.133	0.180
-442.822	-200.000	0.061	-0.299
-441.807	-200.000	-0.035	0.219
-440.792	-200.000	0.014	-0.084
-439.778	-200.000	-0.021	-0.138
-438.763	-125.230	0.326	-0.050
-437.749	-61.138	-0.045	-0.019
-436.734	800.000	0.025	-0.094
-435.719	800.000	0.026	-0.097
-434.705	180.245	-0.085	0.126
-433.690	-98.592	-0.098	0.025
-432.676	192.763	0.086	0.131
-431.661	-200.000	-0.001	0.165
-430.646	-5.101	0.181	0.124
-429.632	70.515	0.106	-0.110
-428.617	2.575	-0.303	0.220
-427.603	625.047	0.008	0.020
-426.588	-145.298	0.107	0.010
-425.573	-64.344	0.330	-0.134
-424.559	3.594	0.034	-0.025
-423.544	-12.779	-0.229	0.150
-422.530	-98.142	0.119	0.031
-421.515	-101.838	0.120	0.029
-420.500	198.575	0.053	-0.081
-419.486	-182.093	0.152	-0.003
-418.471	-23.639	-0.136	-0.082
-417.457	-200.000	-0.017	-0.412
-416.442	19.414	0.135	-0.109
-415.428	7.277	0.208	-0.155
-414.413	-101.656	0.099	0.024
-413.398	-99.411	0.066	0.017
-412.384	-200.000	-0.007	0.167
-411.369	-200.000	0.004	0.039
-410.355	20.887	0.183	0.148
-409.340	-28.832	0.164	0.094
-408.325	-61.427	-0.121	-0.051
-407.311	-200.000	0.027	-0.365
-406.296	-38.769	-0.319	0.169
-405.282	-75.386	-0.101	0.036
-404.267	800.000	-0.029	-0.080
-403.252	-200.000	-0.007	-0.237
-402.238	404.341	-0.073	0.155
-401.223	59.261	0.226	-0.223
-400.209	-28.628	0.134	0.077
-399.194	-200.000	0.002	-0.172
-398.179	-38.503	-0.246	0.130
-397.165	-73.173	0.115	-0.042
-396.150	286.446	-0.078	-0.140
-395.136	-91.974	0.222	-0.063
-394.121	647.837	0.159	0.405
-393.106	-87.355	-0.178	0.054
-392.092	-200.000	-0.030	-0.143
-391.077	-28.525	-0.144	0.083
-390.063	-29.731	-0.223	-0.127
-389.048	32.785	0.125	0.108
-388.033	194.211	-0.219	0.332
-387.019	-28.187	-0.114	0.066
-386.004	-200.000	-0.006	0.172
-384.990	164.440	-0.122	0.172
-383.975	-200.000	0.000	-0.123
-382.960	56.470	0.226	-0.220
-381.946	-200.000	-0.034	0.369
-380.931	-200.000	-0.017	-0.330
-379.917	56.868	0.167	-0.163
-378.902	322.802	0.142	0.270
-377.888	-5.633	0.224	-0.153
-376.873	535.253	0.148	0.350
-375.858	6.519	0.035	-0.026
-374.844	599.468	-0.233	0.578
-373.829	-200.000	-0.024	0.299
-372.815	334.292	0.122	0.237
-371.800	800.000	-0.057	0.204
-370.785	109.997	-0.122	-0.146
-369.771	800.000	-0.068	0.241
-368.756	76.244	0.036	0.038
-367.742	800.000	-0.102	0.294
-366.727	259.013	0.118	-0.204
-365.712	-60.659	0.057	0.024
-364.698	74.855	-0.188	-0.198
-363.683	-51.685	0.069	-0.032
-362.669	137.511	0.146	0.190
-361.654	249.985	-0.062	0.105
-360.639	132.539	0.127	0.164
-359.625	-70.886	-0.316	0.119
-358.610	-61.888	0.285	-0.119
-357.596	-23.545	0.286	0.171
-356.581	136.221	0.055	-0.072
-355.566	-86.619	0.343	-0.105
-354.552	-200.000	0.003	-0.136
-353.537	396.473	0.088	-0.183
-352.523	-96.794	0.038	0.010
-351.508	66.140	-0.048	-0.048
-350.493	-64.180	-0.330	0.134
-349.479	-44.744	-0.089	0.044
-348.464	-200.000	-0.023	0.163
-347.450	-200.000	-0.036	-0.173
-346.435	8.154	-0.153	0.114
-345.420	-158.866	-0.202	-0.011
-344.406	800.000	-0.044	0.142
-343.391	-200.000	-0.001	0.361
-342.377	165.838	-0.097	-0.137
-341.362	800.000	-0.083	-0.269
-340.348	-136.423	0.080	0.009
-339.333	-79.485	0.132	0.044
-338.318	56.138	-0.043	-0.042
-337.304	155.224	-0.084	-0.116
-336.289	800.000	-0.042	0.152
-335.275	284.411	-0.109	-0.197
-334.260	-89.485	-0.130	-0.038
-333.245	-75.608	0.226	0.080
-332.231	800.000	0.058	0.228
-331.216	-200.000	-0.001	0.064
-330.202	800.000	0.085	-0.297
-329.187	78.957	-0.273	-0.291
-328.172	97.319	0.160	-0.183
-327.158	95.685	-0.020	0.022
-326.143	-130.588	-0.350	0.047
-325.129	-112.533	-0.082	-0.016
-324.114	57.555	-0.212	-0.206
-323.099	-200.000	0.009	-0.242
-322.085	800.000	0.044	-0.139
-321.070	214.280	-0.071	0.112
-320.056	731.531	-0.087	0.232
-319.041	-200.000	0.029	-0.181
-318.026	-4.367	-0.022	-0.015
-317.012	-75.095	0.210	-0.075
-315.997	374.182	-0.226	0.459
-314.983	-200.000	-0.009	0.152
-313.968	-178.143	0.216	-0.005
-312.953	49.472	-0.194	0.182
-311.939	378.827	-0.108	-0.220
-310.924	-200.000	0.018	-0.118
-309.910	474.937	0.187	0.420
-308.895	407.870	-0.188	0.397
-307.880	-84.317	-0.126	-0.040
-306.866	-49.754	-0.009	-0.004
-305.851	102.945	0.227	0.266
-304.837	800.000	0.043	-0.138
-303.822	-200.000	-0.002	0.194
-302.807	-104.741	0.162	-0.037
-301.793	-200.000	0.040	0.484
-300.778	-61.155	0.243	0.102
-299.764	-200.000	0.030	-0.229
-298.749	800.000	-0.049	0.155
-297.735	-10.408	0.335	-0.221
-296.720	-117.968	0.354	-0.063
-295.705	100.334	-0.149	0.173
-294.691	610.216	-0.125	-0.310
-293.676	281.006	-0.051	-0.091
-292.662	592.207	-0.094	0.232
-291.647	-100.452	0.237	0.059
-290.632	647.267	-0.027	0.068
-289.618	430.469	0.064	-0.139
-288.603	-18.267	0.163	-0.102
-287.589	-200.000	-0.010	-0.046
-286.574	800.000	0.031	-0.122
-285.559	800.000	-0.118	-0.376
-284.545	-37.557	0.298	0.158
-283.530	143.440	0.047	0.063
-282.516	-107.434	-0.209	0.046
-281.501	-200.000	0.030	-0.184
-280.486	-59.595	-0.163	-0.070
-279.472	800.000	-0.042	0.122
-278.457	-56.425	0.121	0.054
-277.443	125.782	0.101	-0.126
-276.428	56.928	0.092	0.089
-275.413	-200.000	0.010	0.343
-274.399	109.073	0.080	-0.095
-273.384	551.741	-0.101	-0.242
-272.370	-200.000	-0.042	-0.234
-271.355	-200.000	0.011	-0.228
-270.340	23.156	0.237	-0.193
-269.326	110.830	-0.168	-0.201
-268.311	-185.467	0.044	0.001
-267.297	1.982	0.182	-0.131
-266.282	800.000	-0.110	0.326
-265.267	800.000	-0.131	0.445
-264.253	-182.637	0.184	0.003
-263.238	197.957	-0.230	-0.349
-262.224	-65.490	-0.086	-0.034
-261.209	246.493	-0.080	0.134
-260.195	-188.496	-0.162	0.002
-259.180	-200.000	0.029	0.158
-258.165	-23.137	0.337	-0.202
-257.151	-193.958	0.316	0.003
-256.136	-116.208	-0.462	-0.085
-255.122	-46.845	-0.337	0.164
-254.107	-75.487	-0.108	0.038
-253.092	-200.000	0.020	0.214
-252.078	800.000	-0.064	0.194
-251.063	-20.365	-0.285	0.174
-250.049	74.333	-0.258	0.270
-249.034	-116.832	-0.354	0.065
-248.019	-200.000	0.010	0.127
-247.005	-166.920	0.099	-0.004
-245.990	19.665	-0.109	0.087
-244.976	-200.000	0.010	-0.351
-243.961	-81.571	-0.302	-0.099
-242.946	-200.000	0.005	-0.093
-241.932	-200.000	0.030	-0.154
-240.917	-18.563	-0.298	-0.185
-239.903	52.489	-0.218	-0.207
-238.888	800.000	0.103	0.368
-237.873	800.000	0.039	-0.142
-236.859	-90.328	-0.065	0.019
-235.844	-7.612	-0.200	0.134
-234.830	-24.554	0.323	-0.191
-233.815	43.561	-0.146	0.133
-232.800	63.876	0.216	-0.216
-231.786	-21.924	-0.288	-0.174
-230.771	-200.000	0.003	-0.197
-229.757	800.000	-0.059	-0.182
-228.742	668.957	0.081	-0.208
-227.727	-127.458	-0.319	-0.046
-226.713	342.123	0.073	0.143
-225.698	-86.839	0.312	0.095
-224.684	-200.000	0.018	-0.080
-223.669	19.222	-0.355	0.283
-222.655	274.499	0.098	0.172
-221.640	-42.069	0.115	0.059
-220.625	-176.241	0.224	-0.006
-219.611	7.974	-0.102	-0.076
-218.596	29.084	0.177	0.150
-217.582	107.986	0.274	0.324
-216.567	527.362	0.099	0.233
-215.552	-200.000	-0.030	0.133
-214.538	32.225	0.196	-0.168
-213.523	277.764	0.074	-0.132
-212.509	800.000	0.088	-0.268
-211.494	103.904	0.077	-0.090
-210.479	-34.233	-0.075	0.041
-209.465	-200.000	0.096	0.451
-208.450	314.035	0.060	0.112
-207.436	538.288	0.011	-0.026
-206.421	-198.044	0.236	-0.001
-205.406	80.529	0.097	0.104
-204.392	107.044	0.300	-0.353
-203.377	282.957	0.216	-0.384
-202.363	-200.000	0.016	-0.094
-201.348	800.000	-0.132	0.410
-200.333	-3.164	-0.273	-0.189
-199.319	-146.219	0.072	-0.006
-198.304	166.542	-0.078	-0.110
-197.290	271.381	-0.062	0.109
-196.275	-41.529	0.495	-0.253
-195.260	-131.070	0.066	-0.009
-194.246	-89.835	0.248	0.072
-193.231	114.030	0.120	-0.145
-192.217	198.863	0.115	-0.175
-191.202	-94.752	-0.448	-0.121
-190.187	-108.740	-0.223	-0.047
-189.173	-59.788	-0.314	-0.133
-188.158	144.300	0.116	0.154
-187.144	191.467	0.217	-0.324
-186.129	-102.478	-0.085	-0.020
-185.114	-32.679	0.165	-0.091
-184.100	-48.000	-0.154	0.074
-183.085	-75.065	-0.204	0.072
-182.071	-14.707	-0.226	0.144
-181.056	-133.033	-0.134	-0.017
-180.042	-46.918	0.080	0.039
-179.027	-101.200	-0.224	0.054
-178.012	99.068	-0.248	0.285
-176.998	97.009	0.041	0.046
-175.983	126.759	-0.187	0.235
-174.969	-91.116	-0.255	-0.073
-173.954	5.325	0.282	0.206
-172.939	-122.155	0.105	0.017
-171.925	800.000	0.062	0.207
-170.910	-113.580	-0.297	-0.058
-169.896	61.632	-0.033	-0.033
-168.881	778.255	0.065	-0.176
-167.866	601.088	0.189	-0.465
-166.852	-200.000	-0.003	-0.185
-165.837	-165.545	0.270	0.012
-164.823	800.000	-0.085	0.333
-163.808	-113.922	-0.298	-0.057
-162.793	-71.158	-0.293	0.109
-161.779	305.672	0.032	-0.059
-160.764	-200.000	0.236	-0.001
-159.750	107.272	0.080	0.094
-158.735	-33.219	-0.123	0.067
-157.720	-79.953	0.176	-0.058
-156.706	-200.000	0.000	0.110
-155.691	294.745	-0.058	-0.105
-154.677	-123.180	0.240	0.038
-153.662	52.629	-0.205	0.194
-152.647	109.478	-0.112	-0.133
-151.633	-200.000	0.067	-0.438
-150.618	800.000	-0.085	0.255
-149.604	-34.580	0.093	-0.050
-148.589	67.733	-0.040	-0.041
-147.574	403.858	0.055	-0.115
-146.560	-200.000	0.038	-0.197
-145.545	-120.427	0.196	0.033
-144.531	-200.000	-0.002	0.067
-143.516	31.467	0.071	0.060
-142.502	624.180	0.181	0.452
-141.487	-200.000	0.022	0.225
-140.472	47.890	0.225	0.208
-139.458	800.000	0.047	0.201
-138.443	-47.802	-0.254	-0.122
-137.429	534.295	0.059	-0.137
-136.414	-51.643	0.330	-0.153
-135.399	800.000	-0.046	-0.137
-134.385	301.493	0.118	-0.215
-133.370	-96.366	0.160	-0.042
-132.356	-13.153	-0.162	0.104
-131.341	34.483	-0.168	0.145
-130.326	-200.000	-0.062	0.401
-129.312	-121.349	-0.078	-0.013
-128.297	-79.041	0.196	0.066
-127.283	403.133	0.045	-0.093
-126.268	-69.319	0.124	0.047
-125.253	800.000	0.113	0.374
-124.239	-200.000	0.044	0.510
-123.224	-200.000	-0.007	0.099
-122.210	-83.519	-0.151	-0.048
-121.195	-48.617	-0.082	0.039
-120.180	-200.000	-0.042	0.246
-119.166	-150.783	0.103	-0.008
-118.151	-134.465	0.222	0.027
-117.137	-135.259	-0.350	-0.042
-116.122	-23.336	-0.114	-0.068
-115.107	-19.350	-0.241	-0.148
-114.093	800.000	-0.044	-0.147
-113.078	389.968	0.111	0.227
-112.064	-29.016	0.192	-0.109
-111.049	192.930	-0.188	-0.281
-110.034	-7.730	-0.124	-0.083
-109.020	-200.000	-0.049	-0.309
-108.005	-106.393	-0.145	-0.032
-106.991	46.675	-0.082	-0.075
-105.976	-200.000	-0.015	0.124
-104.962	-126.964	-0.232	-0.034
-103.947	295.340	0.072	-0.131
-102.932	-63.872	0.408	0.165
-101.918	654.214	0.159	-0.402
-100.903	-200.000	0.027	-0.301
-99.889	-92.031	0.139	-0.039
-98.874	-125.568	0.339	0.051
-97.859	159.654	-0.032	-0.044
-96.845	261.523	0.063	0.108
-95.830	385.654	0.051	-0.104
-94.816	-112.811	-0.179	0.035
-93.801	69.586	-0.205	-0.209
-92.786	-200.000	0.035	-0.189
-91.772	384.887	0.089	-0.182
-90.757	-73.335	-0.165	-0.060
-89.743	595.925	-0.034	-0.084
-88.728	-4.008	-0.168	0.115
-87.713	-162.436	0.062	-0.003
-86.699	68.149	-0.188	-0.190
-85.684	-67.824	-0.258	-0.100
-84.670	57.149	-0.181	-0.174
-83.655	-18.014	-0.034	-0.021
-82.640	-110.538	-0.074	0.015
-81.626	-102.443	-0.249	0.059
-80.611	-13.895	0.210	0.134
-79.597	-200.000	0.043	0.211
-78.582	298.087	0.245	-0.445
-77.567	-70.574	0.214	0.080
-76.553	-181.597	0.297	-0.006
-75.538	-47.967	0.218	-0.104
-74.524	-10.425	0.093	0.061
-73.509	-12.014	0.095	0.061
-72.494	150.435	-0.123	-0.164
-71.480	-200.000	-0.019	-0.434
-70.465	-200.000	-0.003	-0.109
-69.451	-90.740	0.120	0.034
-68.436	800.000	0.039	-0.129
-67.422	-18.096	-0.136	0.084
-66.407	800.000	-0.109	-0.339
-65.392	-111.786	0.098	-0.020
-64.378	-39.406	0.339	0.176
-63.363	-64.387	-0.223	0.090
-62.349	-56.661	0.237	0.103
-61.334	29.856	-0.958	-0.806
-60.319	-200.000	0.044	0.452
-59.305	625.523	-0.268	-0.668
-58.290	85.130	0.569	0.616
-57.276	800.000	0.351	1.283
-56.261	-200.000	89.904	506.131
-55.246	530.812	1406.118	3280.825
-54.232	181.386	2639.521	3831.784
-53.217	111.487	2361.263	2810.882
-52.203	45.060	1965.796	1787.558
-51.188	39.207	1749.712	1545.187
-50.173	36.382	1704.582	1483.604
-49.159	51.839	1749.139	1642.939
-48.144	55.089	1767.908	1685.797
-47.130	38.948	1726.185	1522.159
-46.115	36.012	1710.928	1486.038
-45.100	35.866	1705.998	1480.569
-44.086	35.884	1702.950	1478.007
-43.071	35.797	1701.171	1475.735
-42.057	35.840	1698.024	1473.279
-41.042	35.833	1696.425	1471.777
-40.027	35.799	1694.574	1469.850
-39.013	35.820	1692.450	1468.113
-37.998	35.809	1690.922	1466.642
-36.984	35.827	1689.747	1465.707
-35.969	35.902	1688.317	1464.976
-34.954	36.047	1686.140	1464.129
-33.940	36.021	1684.557	1462.500
-32.925	36.024	1682.612	1460.776
-31.911	35.888	1681.322	1458.566
-30.896	35.991	1678.856	1457.150
-29.881	35.906	1677.821	1455.551
-28.867	35.918	1676.266	1454.237
-27.852	35.975	1674.622	1453.185
-26.838	35.908	1673.412	1451.570
-25.823	36.037	1671.589	1450.904
-24.809	35.980	1670.580	1449.542
-23.794	36.093	1668.660	1448.666
-22.779	35.984	1667.327	1446.636
-21.765	36.004	1665.489	1445.127
-20.750	35.894	1664.064	1443.014
-19.736	36.026	1662.163	1442.297
-18.721	36.056	1660.557	1441.070
-17.706	36.027	1659.376	1439.769
-16.692	35.973	1657.510	1437.689
-15.677	36.009	1656.309	1436.863
-14.663	36.032	1654.944	1435.787
-13.648	35.967	1653.746	1434.207
-12.633	35.968	1651.879	1432.545
-11.619	36.000	1650.528	1431.552
-10.604	36.024	1648.677	1430.066
-9.590	36.058	1647.254	1429.026
-8.575	36.058	1646.102	1427.972
-7.560	35.993	1645.183	1426.635
-6.546	35.962	1643.938	1425.269
-5.531	36.009	1642.553	1424.363
-4.517	36.003	1641.748	1423.564
-3.502	35.984	1640.387	1422.183
-2.487	36.182	1638.365	1421.837
-1.473	36.038	1628.102	1411.814
-0.458	33.869	1608.943	1379.422
0.556	31.876	1609.438	1347.892
1.571	29.495	1634.693	1351.511
2.586	28.497	1648.279	1355.247
3.600	24.425	1591.616	1279.420
4.615	14.196	1473.816	1116.347
5.629	5.865	1405.210	1010.798
6.644	4.481	1396.587	995.638
7.659	4.325	1395.220	993.580
8.673	4.267	1394.302	992.466
9.688	4.377	1392.284	991.647
10.702	4.340	1389.600	989.412
11.717	8.038	1397.216	1018.414
12.731	17.109	1414.200	1089.147
13.746	21.851	1421.605	1125.253
14.761	21.158	1418.051	1117.904
15.775	20.077	1415.614	1108.965
16.790	18.961	1413.007	1099.696
17.804	18.215	1410.253	1092.693
18.819	17.731	1409.114	1088.623
19.834	17.540	1408.197	1086.597
20.848	17.285	1406.644	1083.677
21.863	17.088	1405.453	1081.409
22.877	17.024	1404.093	1079.862
23.892	16.899	1404.001	1078.899
24.907	16.908	1402.546	1077.741
25.921	16.951	1401.398	1077.042
26.936	17.003	1400.687	1076.729
27.950	16.965	1400.166	1075.988
28.965	17.069	1398.721	1075.446
29.980	17.197	1398.022	1075.624
30.994	17.249	1396.545	1074.718
32.009	17.286	1395.271	1073.876
33.023	17.283	1394.130	1072.884
34.038	17.186	1393.237	1071.488
35.053	17.183	1391.507	1070.047
36.067	17.081	1390.108	1068.234
37.082	17.171	1389.598	1068.312
38.096	17.247	1388.263	1067.670
39.111	17.226	1387.794	1067.084
40.126	17.147	1386.583	1065.560
41.140	16.941	1385.871	1063.627
42.155	16.789	1385.126	1062.008
43.169	16.733	1385.357	1061.746
44.184	16.815	1384.340	1061.380
45.199	16.846	1384.019	1061.239
46.213	16.927	1383.924	1061.580
47.228	17.003	1382.873	1061.153
48.242	17.101	1381.212	1060.398
49.257	17.054	1379.812	1058.936
50.271	17.018	1378.696	1057.761
51.286	17.046	1377.130	1056.637
52.301	17.029	1376.189	1055.718
53.315	16.993	1374.904	1054.413
54.330	16.874	1374.178	1053.027
55.344	16.797	1372.394	1051.088
56.359	16.915	1371.440	1050.996
57.374	16.861	1370.802	1050.079
58.388	16.844	1369.574	1048.943
59.403	16.714	1369.258	1047.800
60.417	16.732	1368.890	1047.541
61.432	16.764	1367.522	1046.596
62.447	16.737	1366.333	1045.430
63.461	16.701	1365.135	1044.199
64.476	16.680	1364.058	1043.149
65.490	16.580	1363.120	1041.727
66.505	16.733	1360.897	1040.875
67.520	16.724	1359.811	1039.899
68.534	16.764	1359.170	1039.558
69.549	16.707	1358.197	1038.373
70.563	16.592	1357.349	1036.932
71.578	16.645	1355.895	1036.054
72.593	16.457	1354.901	1034.048
73.607	16.439	1354.391	1033.461
74.622	16.420	1353.415	1032.504
75.636	16.496	1352.374	1032.088
76.651	16.632	1351.982	1032.522
77.666	16.581	1351.338	1031.629
78.680	16.553	1351.178	1031.244
79.695	16.693	1350.011	1031.118
80.709	16.690	1348.916	1030.172
81.724	16.784	1348.358	1030.226
82.739	16.837	1347.657	1029.923
83.753	16.955	1347.106	1030.127
84.768	16.976	1345.854	1029.206
85.782	17.145	1344.658	1029.223
86.797	17.112	1343.599	1028.125
87.812	16.980	1342.210	1026.169
88.826	17.027	1340.617	1025.145
89.841	17.015	1340.012	1024.522
90.855	17.114	1338.728	1024.046
91.870	17.249	1337.650	1023.943
92.884	17.127	1336.944	1022.574
93.899	17.169	1336.368	1022.298
94.914	17.219	1335.440	1021.798
95.928	17.352	1334.413	1021.720
96.943	17.127	1333.828	1019.830
97.957	17.090	1332.924	1018.828
98.972	17.169	1331.774	1018.333
99.987	17.159	1330.754	1017.400
101.001	17.160	1330.056	1016.783
102.016	17.169	1328.754	1015.754
103.030	17.182	1327.947	1015.121
104.045	17.094	1327.328	1014.035
105.060	17.057	1325.824	1012.579
106.074	16.952	1323.903	1010.397
107.089	16.779	1322.776	1008.416
108.103	16.662	1321.836	1006.914
109.118	16.658	1319.946	1005.359
110.133	16.725	1318.889	1004.864
111.147	16.745	1317.587	1003.902
112.162	16.725	1316.404	1002.794
113.176	16.715	1315.519	1001.974
114.191	16.844	1314.328	1001.739
115.206	16.851	1313.185	1000.820
116.220	16.835	1311.633	999.451
117.235	16.869	1310.447	998.660
118.249	16.799	1309.544	997.471
119.264	16.728	1308.509	996.177
120.279	16.608	1307.652	994.736
121.293	16.759	1305.943	994.233
122.308	16.678	1305.186	993.095
123.322	16.581	1304.100	991.607
124.337	16.582	1303.166	990.815
125.352	16.589	1301.950	989.847
126.366	16.598	1300.802	988.938
127.381	16.690	1299.845	988.662
128.395	16.593	1299.102	987.444
129.410	16.628	1298.327	986.968
130.424	16.686	1297.509	986.601
131.439	16.727	1296.676	986.119
132.454	16.876	1295.317	985.863
133.468	16.849	1294.830	985.248
134.483	16.866	1293.816	984.486
135.497	16.919	1293.043	984.117
136.512	16.892	1291.689	982.847
137.527	16.929	1290.308	981.923
138.541	16.929	1288.779	980.671
139.556	16.994	1287.779	980.198
140.570	17.022	1286.865	979.582
141.585	17.106	1285.698	979.088
142.600	17.135	1284.515	978.266
143.614	17.214	1283.886	978.158
144.629	17.179	1283.042	977.227
145.643	17.112	1281.589	975.649
146.658	17.055	1280.524	974.421
147.673	16.949	1278.710	972.351
148.687	16.961	1276.957	971.001
149.702	16.880	1275.920	969.662
150.716	16.879	1274.591	968.560
151.731	16.849	1273.702	967.627
152.746	16.891	1272.229	966.660
153.760	16.965	1271.086	966.128
154.775	17.033	1270.476	965.965
155.789	17.146	1269.209	965.560
156.804	17.096	1268.481	964.637
157.819	17.083	1267.481	963.720
158.833	17.196	1266.577	963.588
159.848	17.247	1265.380	962.882
160.862	17.376	1264.488	962.844
161.877	16.988	1263.692	959.962
162.892	17.003	1262.039	958.704
163.906	17.044	1261.240	958.243
164.921	16.938	1260.213	956.778
165.935	17.013	1259.174	956.329
166.950	17.036	1259.112	956.328
167.964	17.232	1257.544	956.158
168.979	17.144	1256.909	955.093
169.994	16.980	1256.673	953.905
171.008	17.114	1255.524	953.705
172.023	17.114	1254.954	953.186
173.037	17.243	1254.186	953.241
174.052	17.254	1253.071	952.370
175.067	17.168	1251.782	950.824
176.081	17.111	1250.863	949.724
177.096	16.954	1249.967	948.085
178.110	17.109	1248.719	947.920
179.125	17.124	1247.492	946.985
180.140	17.193	1246.216	946.318
181.154	17.178	1245.084	945.292
182.169	17.315	1244.030	945.172
183.183	17.298	1243.096	944.284
184.198	17.415	1241.762	943.834
185.213	17.295	1240.610	942.210
186.227	17.271	1239.724	941.324
187.242	17.439	1238.812	941.474
188.256	17.544	1237.389	940.888
189.271	17.465	1236.594	939.767
190.286	17.375	1235.567	938.408
191.300	17.025	1234.598	935.655
192.315	16.955	1234.236	934.914
193.329	17.050	1233.216	934.584
194.344	17.046	1232.879	934.224
195.359	17.239	1232.102	934.614
196.373	17.349	1231.764	934.878
197.388	17.412	1231.263	934.762
198.402	17.512	1230.693	934.796
199.417	17.660	1229.588	934.686
200.432	17.749	1228.689	934.408
201.446	17.747	1228.471	934.147
202.461	17.756	1227.568	933.429
203.475	17.791	1226.292	932.566
204.490	17.769	1224.888	931.296
205.504	17.573	1223.699	929.240
206.519	17.633	1221.999	928.195
207.534	17.569	1221.116	927.091
208.548	17.445	1220.388	925.782
209.563	17.556	1219.605	925.712
210.577	17.593	1218.520	925.006
211.592	17.606	1218.302	924.828
212.607	17.706	1216.922	924.244
213.621	17.782	1216.202	924.023
214.636	17.693	1215.438	922.882
215.650	17.759	1214.166	922.190
216.665	17.768	1213.836	921.908
217.680	17.820	1212.686	921.235
218.694	17.930	1211.600	920.920
219.709	17.966	1210.891	920.496
220.723	17.855	1209.948	919.099
221.738	17.861	1209.562	918.756
222.753	17.872	1208.496	917.922
223.767	17.955	1207.977	917.896
224.782	17.965	1207.512	917.515
225.796	17.965	1207.057	917.088
226.811	18.026	1205.812	916.385
227.826	17.915	1204.878	914.999
228.840	17.983	1204.309	914.850
229.855	17.981	1203.323	914.010
230.869	17.893	1202.899	913.137
231.884	17.828	1202.263	912.224
232.899	17.845	1201.078	911.335
233.913	17.864	1200.226	910.710
234.928	17.751	1199.544	909.513
235.942	17.701	1198.815	908.613
236.957	17.662	1198.390	908.000
237.972	17.779	1197.370	907.771
238.986	17.773	1196.525	907.019
240.001	17.745	1195.812	906.246
241.015	17.854	1194.768	905.953
242.030	17.894	1194.043	905.536
243.045	17.896	1193.752	905.247
244.059	17.986	1192.441	904.649
245.074	18.048	1191.896	904.483
246.088	17.979	1191.155	903.476
247.103	18.077	1190.191	903.184
248.117	18.212	1189.350	903.177
249.132	18.263	1188.747	902.908
250.147	18.390	1188.163	903.054
251.161	18.410	1187.594	902.648
252.176	18.485	1186.829	902.382
253.190	18.410	1186.606	901.740
254.205	18.508	1185.841	901.591
255.220	18.572	1184.915	901.146
256.234	18.480	1184.736	900.444
257.249	18.587	1183.637	900.092
258.263	18.621	1182.870	899.607
259.278	18.581	1182.356	898.929
260.293	18.614	1181.677	898.502
261.307	18.707	1180.932	898.346
262.322	18.712	1180.495	897.957
263.336	18.769	1179.622	897.512
264.351	18.752	1179.070	896.924
265.366	18.642	1178.979	896.201
266.380	18.767	1177.787	895.871
267.395	18.739	1176.806	894.899
268.409	18.610	1176.231	893.710
269.424	18.620	1175.033	892.772
270.439	18.618	1175.085	892.720
271.453	18.611	1174.226	891.953
272.468	18.473	1173.493	890.604
273.482	18.542	1172.399	890.053
274.497	18.667	1171.549	889.976
275.512	18.677	1170.845	889.411
276.526	18.610	1170.257	888.542
277.541	18.573	1169.334	887.572
278.555	18.632	1168.933	887.494
279.570	18.844	1168.246	887.989
280.585	18.937	1167.171	887.574
281.599	18.871	1165.970	886.243
282.614	18.803	1165.262	885.273
283.628	18.733	1164.046	883.911
284.643	18.679	1163.382	883.049
285.657	18.789	1162.398	882.791
286.672	18.808	1161.434	882.076
287.687	18.807	1160.644	881.395
288.701	18.839	1159.963	880.965
289.716	18.857	1159.070	880.298
290.730	18.839	1158.183	879.458
291.745	18.824	1157.921	879.101
292.760	18.923	1157.221	879.001
293.774	18.949	1156.524	878.524
294.789	19.101	1155.923	878.768
295.803	19.004	1155.298	877.720
296.818	18.919	1154.408	876.534
297.833	19.008	1153.629	876.317
298.847	18.992	1152.873	875.582
299.862	19.026	1151.780	874.847
300.876	18.989	1151.393	874.288
301.891	18.982	1150.859	873.771
302.906	19.161	1150.169	874.078
303.920	19.183	1149.518	873.616
304.935	19.196	1148.847	873.094
305.949	19.254	1148.539	873.080
306.964	19.300	1147.368	872.345
307.979	19.177	1146.568	871.038
308.993	19.192	1145.703	870.380
310.008	19.318	1144.974	870.382
311.022	19.313	1144.694	870.066
312.037	19.236	1143.658	868.817
313.052	19.193	1142.550	867.681
314.066	19.172	1141.751	866.889
315.081	19.115	1140.737	865.756
316.095	18.937	1139.810	864.083
317.110	19.159	1138.821	864.373
318.125	19.098	1138.342	863.626
319.139	18.998	1137.491	862.403
320.154	19.122	1136.865	862.473
321.168	19.213	1136.612	862.662
322.183	19.167	1135.896	861.811
323.197	19.210	1135.278	861.478
324.212	19.261	1134.658	861.191
325.227	19.200	1134.003	860.309
326.241	19.213	1133.403	859.845
327.256	19.143	1132.532	858.756
328.270	19.178	1131.800	858.303
329.285	19.164	1130.582	857.233
330.300	19.039	1130.346	856.357
331.314	19.137	1128.692	855.513
332.329	19.205	1127.703	855.024
333.343	19.270	1126.754	854.553
334.358	19.305	1126.116	854.167
335.373	19.497	1125.543	854.607
336.387	19.386	1124.912	853.501
337.402	19.446	1124.303	853.264
338.416	19.463	1123.056	852.323
339.431	19.514	1122.505	852.081
340.446	19.543	1122.351	852.032
341.460	19.482	1121.791	851.231
342.475	19.824	1120.147	851.594
343.489	19.813	1119.300	850.820
344.504	19.799	1118.467	850.044
345.519	19.837	1117.916	849.736
346.533	19.868	1117.357	849.386
347.548	19.874	1116.521	848.706
348.562	19.832	1115.810	847.885
349.577	19.737	1114.458	846.319
350.592	19.724	1113.629	845.550
351.606	19.678	1112.728	844.565
352.621	19.638	1112.118	843.832
353.635	19.517	1111.645	842.809
354.650	19.642	1111.055	842.896
355.665	19.596	1110.342	842.058
356.679	19.695	1109.777	842.037
357.694	19.667	1109.226	841.407
358.708	19.798	1108.116	841.126
359.723	19.803	1107.652	840.724
360.738	19.758	1107.138	840.044
361.752	19.741	1106.505	839.405
362.767	19.732	1105.932	838.851
363.781	19.942	1105.099	839.166
364.796	19.795	1105.156	838.420
365.810	19.886	1104.553	838.330
366.825	20.039	1103.818	838.439
367.840	20.119	1103.565	838.558
368.854	20.180	1102.780	838.184
369.869	20.141	1101.918	837.267
370.883	20.174	1100.999	836.651
371.898	20.063	1100.134	835.385
372.913	20.099	1099.528	835.025
373.927	20.154	1098.915	834.752
374.942	20.059	1098.795	834.129
375.956	20.180	1098.191	834.180
376.971	20.234	1097.413	833.773
377.986	20.169	1096.852	832.962
379.000	20.290	1096.118	832.912
380.015	20.349	1095.832	832.904
381.029	20.447	1094.832	832.541
382.044	20.420	1094.170	831.835
383.059	20.432	1093.500	831.308
384.073	20.254	1093.017	830.012
385.088	20.392	1091.892	829.745
386.102	20.516	1090.655	829.323
387.117	20.291	1089.823	827.547
388.132	20.269	1088.877	826.651
389.146	20.235	1087.709	825.529
390.161	20.197	1087.476	825.100
391.175	20.312	1086.292	824.671
392.190	20.240	1086.150	824.148
393.205	20.454	1085.271	824.427
394.219	20.377	1084.343	823.281
395.234	20.366	1083.580	822.580
396.248	20.317	1082.441	821.408
397.263	20.282	1081.202	820.231
398.278	20.197	1081.164	819.726
399.292	20.200	1080.018	818.799
400.307	20.122	1079.242	817.773
401.321	20.249	1078.489	817.726
402.336	20.231	1077.642	816.930
403.350	20.277	1076.958	816.553
404.365	20.289	1076.525	816.209
405.380	20.362	1075.888	815.998
406.394	20.388	1075.133	815.473
407.409	20.499	1074.194	815.211
408.423	20.665	1073.686	815.530
409.438	20.695	1073.089	815.148
410.453	20.709	1072.133	814.413
411.467	20.749	1071.742	814.230
412.482	20.665	1071.028	813.225
413.496	20.727	1070.268	812.867
414.511	20.879	1069.481	812.905
415.526	20.862	1069.409	812.697
416.540	20.888	1068.841	812.318
417.555	20.933	1068.200	811.966
418.569	20.765	1067.597	810.653
419.584	20.892	1066.862	810.615
420.599	20.869	1066.250	809.970
421.613	150.513	1401.656	1784.455
422.628	138.519	1450.532	1784.567
