DTS Sentinel unit serial number:	SN413079Multiplexer serial number:	ORYXHardware model number:	OX4-SRSoftware version number:	ORYX F/W v4.00 Oryx Data Collector v3.7.2.0data status	okinstallation	princeton_trtdifferential loss correction	single-endedforward channel	channel 2reverse channel	N/Adate	2019/09/15time	06:15:34forward acquisition time	60.00reverse acquisition time	0.00gamma	496.2192k internal	0.2326k external	0.2326temperature offset calibration	1.0033default loss term (dB/km)	0.3790temperature slope calibration	1.0000multiplexer offset coefficient	1.0000multiplexer slope coefficient	1.0000fibre end	0.00T internal ref (°C)	30.56T ext. ref 1 (°C)	4.83T ext. ref 2 (°C)	25.08length (m)	temperature (°C)	Stokes	anti-Stokes-747.200	70.558	-0.164	-0.171
-746.185	-80.906	-0.071	0.024
-745.171	-90.566	-0.175	0.051
-744.156	800.000	0.007	-0.028
-743.142	-69.685	0.292	0.113
-742.127	-166.823	-0.083	-0.003
-741.112	-13.389	0.181	0.119
-740.098	291.180	-0.156	0.286
-739.083	769.558	0.040	-0.109
-738.069	800.000	0.087	0.331
-737.054	-137.618	-0.108	0.012
-736.039	11.749	-0.186	0.144
-735.025	760.636	0.127	0.347
-734.010	206.019	0.215	0.338
-732.996	242.714	-0.201	0.340
-731.981	-77.578	-0.157	-0.055
-730.966	9.550	-0.294	-0.225
-729.952	-200.000	0.012	-0.075
-728.937	19.758	-0.207	-0.168
-727.923	-19.046	-0.209	-0.131
-726.908	308.607	-0.068	0.128
-725.894	-200.000	-0.030	0.198
-724.879	48.250	-0.095	0.090
-723.864	-168.317	0.250	-0.010
-722.850	318.144	0.123	-0.236
-721.835	-200.000	0.007	-0.208
-720.821	-200.000	-0.009	0.200
-719.806	29.373	-0.134	0.114
-718.791	41.434	0.328	-0.299
-717.777	501.031	0.044	-0.103
-716.762	-20.796	0.292	-0.180
-715.748	800.000	-0.070	0.224
-714.733	25.833	-0.104	0.087
-713.718	-55.826	-0.148	0.067
-712.704	-23.072	0.086	-0.052
-711.689	-200.000	0.031	-0.342
-710.675	261.204	0.058	-0.101
-709.660	-200.000	0.009	0.140
-708.645	241.989	-0.164	0.276
-707.631	-200.000	0.040	-0.230
-706.616	573.757	-0.100	-0.246
-705.602	355.276	-0.094	0.188
-704.587	12.878	-0.341	0.266
-703.572	87.452	-0.061	0.068
-702.558	-200.000	-0.006	0.148
-701.543	-152.536	0.036	0.003
-700.529	-159.548	-0.209	0.012
-699.514	104.959	0.200	-0.237
-698.499	800.000	-0.144	0.544
-697.485	-119.789	0.066	0.011
-696.470	602.890	0.122	0.305
-695.456	-49.736	0.204	-0.097
-694.441	-50.006	0.072	-0.034
-693.426	-122.559	-0.194	-0.032
-692.412	10.163	0.207	0.158
-691.397	101.155	0.226	0.265
-690.383	-200.000	0.011	-0.184
-689.368	-171.067	-0.271	-0.009
-688.354	-29.797	-0.220	-0.126
-687.339	-172.906	-0.182	-0.006
-686.324	45.052	-0.445	-0.413
-685.310	-98.724	0.232	-0.060
-684.295	87.336	-0.188	-0.209
-683.281	800.000	-0.055	-0.153
-682.266	-113.023	-0.172	0.034
-681.251	-150.816	0.083	0.006
-680.237	-35.597	-0.259	0.141
-679.222	-13.723	-0.219	0.142
-678.208	326.447	0.176	-0.338
-677.193	-200.000	-0.072	-0.353
-676.178	134.028	-0.141	-0.184
-675.164	-11.477	-0.229	-0.151
-674.149	591.143	0.088	0.220
-673.135	4.680	-0.119	-0.088
-672.120	222.898	-0.113	-0.183
-671.105	374.286	0.200	0.410
-670.091	800.000	-0.044	0.124
-669.076	-55.062	0.105	-0.048
-668.062	21.443	0.154	0.126
-667.047	-47.255	-0.208	-0.102
-666.032	800.000	0.011	0.048
-665.018	800.000	0.071	-0.222
-664.003	-89.838	0.219	0.064
-662.989	-200.000	-0.014	-0.187
-661.974	166.558	0.094	-0.134
-660.959	223.247	-0.077	-0.125
-659.945	44.652	0.126	-0.116
-658.930	-52.330	-0.116	0.054
-657.916	108.897	-0.018	0.021
-656.901	39.472	-0.142	-0.127
-655.886	-82.862	0.229	-0.074
-654.872	-154.488	0.096	-0.006
-653.857	-127.848	-0.186	-0.027
-652.843	-95.811	-0.202	0.054
-651.828	-58.124	0.201	0.088
-650.814	91.410	-0.194	-0.218
-649.799	293.863	0.062	-0.114
-648.784	172.070	-0.121	0.174
-647.770	70.240	0.063	0.066
-646.755	15.539	0.165	-0.130
-645.741	52.711	0.211	0.203
-644.726	523.260	0.036	0.085
-643.711	-200.000	-0.032	0.220
-642.697	-155.727	-0.015	0.001
-641.682	-121.886	0.061	-0.010
-640.668	-67.125	0.311	0.123
-639.653	114.057	0.260	0.318
-638.638	212.107	-0.192	-0.305
-637.624	562.832	0.022	-0.053
-636.609	-200.000	0.005	-0.096
-635.595	81.464	0.207	-0.225
-634.580	-147.705	-0.658	0.055
-633.565	-200.000	0.076	0.387
-632.551	-43.062	-0.081	0.041
-631.536	-115.436	0.306	-0.058
-630.522	171.236	0.266	-0.384
-629.507	-200.000	0.029	-0.177
-628.492	-28.792	0.131	0.076
-627.478	-185.134	0.149	0.002
-626.463	25.961	0.103	0.086
-625.449	-200.000	0.031	-0.192
-624.434	800.000	0.053	-0.183
-623.419	190.122	0.157	0.236
-622.405	42.291	0.191	-0.175
-621.390	59.555	0.114	0.112
-620.376	465.218	-0.061	-0.138
-619.361	17.625	-0.098	-0.078
-618.346	-181.092	0.276	-0.006
-617.332	578.653	-0.075	0.184
-616.317	178.118	-0.091	-0.134
-615.303	495.271	0.121	-0.279
-614.288	197.822	0.220	0.338
-613.273	522.427	-0.082	-0.193
-612.259	-49.518	-0.155	0.074
-611.244	-79.508	-0.234	0.079
-610.230	91.808	0.372	-0.420
-609.215	-93.670	-0.100	-0.028
-608.201	-200.000	-0.026	-0.329
-607.186	-200.000	-0.050	0.451
-606.171	34.684	0.062	0.054
-605.157	47.409	0.045	0.042
-604.142	-200.000	-0.017	0.165
-603.128	-33.752	0.112	-0.062
-602.113	-200.000	-0.001	0.041
-601.098	-200.000	-0.036	0.172
-600.084	-200.000	-0.024	-0.115
-599.069	-42.291	-0.130	-0.066
-598.055	-200.000	-0.034	-0.211
-597.040	287.656	-0.078	-0.141
-596.025	36.068	0.220	0.195
-595.011	201.774	-0.185	0.286
-593.996	800.000	-0.139	0.488
-592.982	-200.000	0.129	-0.575
-591.967	-63.128	0.448	-0.185
-590.952	221.878	-0.214	-0.345
-589.938	-119.506	-0.311	-0.054
-588.923	-125.551	-0.179	0.027
-587.909	301.896	0.031	-0.058
-586.894	415.871	0.104	0.223
-585.879	663.719	-0.140	0.361
-584.865	-200.000	-0.030	-0.267
-583.850	-200.000	0.043	-0.323
-582.836	320.255	0.081	-0.154
-581.821	-72.596	-0.226	0.083
-580.806	64.058	0.206	0.207
-579.792	239.387	-0.216	-0.359
-578.777	137.761	-0.129	0.169
-577.763	-200.000	0.017	0.311
-576.748	-139.357	-0.097	-0.010
-575.733	68.060	-0.246	-0.252
-574.719	105.310	-0.186	-0.220
-573.704	-95.102	-0.187	-0.051
-572.690	-73.217	0.267	0.098
-571.675	-200.000	-0.013	0.083
-570.661	800.000	-0.052	-0.179
-569.646	-2.361	-0.184	0.129
-568.631	128.592	-0.122	-0.155
-567.617	-128.677	0.462	0.065
-566.602	-88.562	-0.030	0.009
-565.588	19.489	-0.183	-0.147
-564.573	539.319	0.058	0.139
-563.558	-200.000	-0.004	-0.248
-562.544	-89.727	-0.251	0.074
-561.529	184.614	0.128	-0.189
-560.515	-4.993	-0.160	-0.110
-559.500	-37.073	-0.224	-0.120
-558.485	321.203	0.130	0.247
-557.471	-74.266	-0.186	0.067
-556.456	276.150	0.103	-0.182
-555.442	-105.332	-0.325	0.074
-554.427	-200.000	-0.001	-0.185
-553.412	-60.847	-0.126	0.053
-552.398	800.000	0.045	0.164
-551.383	-91.000	-0.085	0.024
-550.369	-23.019	0.081	0.049
-549.354	95.643	-0.141	-0.161
-548.339	4.203	-0.041	-0.030
-547.325	-200.000	-0.025	0.122
-546.310	-41.924	-0.295	0.151
-545.296	800.000	0.019	0.065
-544.281	40.833	0.171	0.154
-543.266	131.118	-0.070	0.091
-542.252	-131.077	0.129	0.017
-541.237	-200.000	-0.077	-0.412
-540.223	-12.281	0.105	-0.069
-539.208	-120.958	-0.090	0.015
-538.193	800.000	-0.106	-0.300
-537.179	-110.003	-0.056	-0.012
-536.164	-35.700	0.170	-0.092
-535.150	350.482	-0.087	0.172
-534.135	-130.954	0.159	-0.021
-533.121	510.831	0.034	0.079
-532.106	-200.000	0.047	0.251
-531.091	52.604	-0.271	0.259
-530.077	117.732	0.149	0.183
-529.062	-200.000	-0.021	-0.332
-528.048	800.000	-0.021	-0.091
-527.033	313.251	-0.117	0.220
-526.018	391.183	-0.089	0.186
-525.004	-193.097	0.089	-0.001
-523.989	521.686	-0.107	-0.251
-522.975	369.076	-0.046	0.092
-521.960	-135.860	-0.132	-0.016
-520.945	50.208	-0.233	0.220
-519.931	67.362	-0.224	0.228
-518.916	155.457	0.121	0.166
-517.902	-50.457	0.139	-0.066
-516.887	168.386	-0.133	-0.189
-515.872	800.000	-0.050	-0.199
-514.858	-40.075	-0.320	-0.167
-513.843	-78.823	-0.170	-0.058
-512.829	-76.278	-0.165	-0.058
-511.814	-192.089	-0.119	0.001
-510.799	-200.000	0.014	-0.316
-509.785	-200.000	0.027	-0.240
-508.770	78.723	-0.222	-0.238
-507.756	-37.223	0.200	-0.107
-506.741	241.435	0.147	-0.245
-505.726	735.763	-0.050	-0.133
-504.712	-200.000	0.030	-0.245
-503.697	98.761	-0.193	0.223
-502.683	-200.000	-0.008	-0.054
-501.668	63.142	0.121	-0.121
-500.653	186.154	0.108	-0.160
-499.639	-140.784	-0.308	-0.032
-498.624	-138.180	-0.354	-0.039
-497.610	-50.315	0.303	-0.143
-496.595	800.000	0.057	-0.232
-495.581	-86.741	0.329	0.101
-494.566	-32.945	0.038	-0.021
-493.551	-102.693	-0.570	0.136
-492.537	137.365	0.106	-0.139
-491.522	32.680	-0.381	-0.329
-490.508	53.036	0.107	0.103
-489.493	800.000	-0.100	0.298
-488.478	332.945	0.109	0.210
-487.464	-130.458	0.152	-0.021
-486.449	61.041	0.217	0.215
-485.435	800.000	-0.059	-0.234
-484.420	800.000	0.042	0.121
-483.405	106.777	0.131	-0.156
-482.391	-200.000	0.079	-0.430
-481.376	-136.114	0.100	0.012
-480.362	253.264	0.109	-0.186
-479.347	-97.852	0.395	0.102
-478.332	-90.800	0.431	-0.124
-477.318	254.415	-0.112	-0.191
-476.303	800.000	0.046	0.142
-475.289	31.509	0.296	0.254
-474.274	-24.005	0.036	0.021
-473.259	-93.245	-0.192	-0.053
-472.245	-46.386	-0.133	-0.065
-471.230	-133.788	0.255	-0.032
-470.216	341.805	0.157	-0.307
-469.201	56.353	-0.108	-0.105
-468.186	-200.000	0.038	0.211
-467.172	-200.000	-0.004	0.135
-466.157	-22.645	0.154	-0.093
-465.143	-134.151	0.318	0.039
-464.128	675.337	-0.086	-0.222
-463.113	800.000	-0.070	0.261
-462.099	-35.956	0.197	-0.106
-461.084	25.150	0.220	0.182
-460.070	-28.155	0.236	-0.136
-459.055	-21.201	-0.251	-0.153
-458.040	-46.406	0.171	0.084
-457.026	-93.718	-0.180	-0.050
-456.011	-65.365	-0.202	0.081
-454.997	-192.564	-0.236	0.002
-453.982	595.398	0.072	0.177
-452.968	-100.171	-0.145	0.036
-451.953	-113.585	0.548	0.107
-450.938	43.904	-0.235	-0.214
-449.924	141.903	-0.106	-0.140
-448.909	-168.289	-0.136	-0.005
-447.895	-200.000	0.014	-0.259
-446.880	121.635	-0.037	0.047
-445.865	800.000	0.044	-0.143
-444.851	800.000	-0.018	-0.072
-443.836	1.654	-0.241	0.173
-442.822	71.298	-0.245	0.253
-441.807	82.659	-0.218	0.236
-440.792	-40.963	0.170	-0.088
-439.778	-200.000	-0.151	0.000
-438.763	-200.000	0.014	-0.087
-437.749	478.036	0.055	0.123
-436.734	-60.727	-0.448	-0.189
-435.719	98.036	0.217	-0.249
-434.705	-96.324	-0.388	-0.102
-433.690	-200.000	0.031	0.387
-432.676	393.804	-0.167	0.346
-431.661	117.350	-0.326	0.400
-430.646	-144.613	-0.151	0.014
-429.632	-182.407	0.231	0.004
-428.617	171.378	-0.352	0.503
-427.603	349.040	0.078	0.153
-426.588	-36.568	0.047	0.025
-425.573	-200.000	0.065	0.353
-424.559	-13.887	-0.307	0.198
-423.544	800.000	0.063	0.176
-422.530	-16.162	-0.204	-0.129
-421.515	114.201	0.079	0.096
-420.500	-63.425	0.244	-0.100
-419.486	398.420	0.027	0.056
-418.471	-110.259	0.176	-0.037
-417.457	-134.816	0.476	-0.057
-416.442	15.296	-0.265	0.207
-415.428	-105.940	0.356	-0.080
-414.413	-200.000	0.015	-0.296
-413.398	753.619	-0.091	-0.245
-412.384	-200.000	0.023	0.191
-411.369	-25.901	0.031	-0.018
-410.355	17.369	0.359	-0.284
-409.340	-200.000	-0.040	-0.185
-408.325	33.775	-0.237	0.206
-407.311	-200.000	0.059	-0.282
-406.296	-200.000	-0.017	-0.132
-405.282	44.897	0.184	0.169
-404.267	800.000	-0.015	0.055
-403.252	-133.728	-0.261	-0.032
-402.238	800.000	-0.053	-0.201
-401.223	-6.714	-0.044	0.030
-400.209	-89.725	-0.063	0.018
-399.194	800.000	-0.083	-0.288
-398.179	-200.000	-0.033	-0.156
-397.165	-97.375	0.179	-0.046
-396.150	-33.025	-0.268	0.148
-395.136	-200.000	-0.049	0.240
-394.121	142.710	0.126	-0.167
-393.106	-17.623	0.305	0.191
-392.092	-147.264	0.309	-0.026
-391.077	21.900	-0.129	0.105
-390.063	-163.508	0.078	0.004
-389.048	-200.000	0.045	-0.315
-388.033	61.091	0.152	0.150
-387.019	-48.901	-0.161	-0.077
-386.004	800.000	-0.062	0.243
-384.990	166.963	-0.186	-0.263
-383.975	-184.321	-0.106	0.002
-382.960	-200.000	-0.010	0.197
-381.946	-10.042	0.189	-0.125
-380.931	-156.944	-0.267	0.016
-379.917	-146.900	0.347	-0.030
-378.902	558.979	0.069	-0.165
-377.888	-200.000	0.033	0.394
-376.873	-200.000	-0.067	-0.359
-375.858	-184.760	-0.059	-0.001
-374.844	-19.056	0.148	0.091
-373.829	-79.615	-0.231	-0.077
-372.815	-190.670	-0.159	-0.002
-371.800	5.084	-0.243	0.178
-370.785	-0.038	0.125	-0.088
-369.771	800.000	-0.060	-0.233
-368.756	-26.357	-0.273	-0.159
-367.742	-60.227	-0.063	-0.027
-366.727	-64.380	-0.172	0.069
-365.712	800.000	-0.045	-0.168
-364.698	-120.993	-0.174	-0.029
-363.683	292.325	-0.143	-0.258
-362.669	-143.226	-0.457	0.044
-361.654	-168.061	-0.121	0.005
-360.639	36.389	0.028	-0.025
-359.625	354.972	-0.037	0.074
-358.610	-108.275	-0.128	0.027
-357.596	-79.452	0.395	-0.133
-356.581	91.564	-0.138	0.154
-355.566	-153.070	-0.110	0.008
-354.552	246.301	-0.082	-0.137
-353.537	223.762	0.108	0.173
-352.523	58.358	-0.314	-0.306
-351.508	80.745	0.180	0.193
-350.493	5.993	-0.319	0.235
-349.479	53.856	-0.188	-0.179
-348.464	-33.916	0.235	-0.128
-347.450	31.176	-0.179	-0.153
-346.435	-3.615	-0.108	0.074
-345.420	800.000	0.024	0.088
-344.406	-200.000	0.008	0.085
-343.391	57.889	-0.105	-0.102
-342.377	-81.409	-0.183	0.060
-341.362	682.949	-0.139	0.360
-340.348	-200.000	-0.003	0.108
-339.333	131.258	0.191	-0.243
-338.318	54.551	0.158	0.151
-337.304	-78.031	-0.211	0.072
-336.289	-200.000	-0.016	-0.075
-335.275	-121.782	-0.069	-0.011
-334.260	-200.000	-0.026	0.134
-333.245	-103.067	-0.435	0.102
-332.231	-133.044	0.224	0.028
-331.216	5.269	0.120	-0.088
-330.202	800.000	0.126	-0.374
-329.187	37.369	-0.206	0.182
-328.172	204.992	-0.160	0.246
-327.158	662.705	0.124	-0.317
-326.143	186.385	0.123	0.182
-325.129	382.676	0.110	0.224
-324.114	153.860	-0.134	0.182
-323.099	-30.714	0.380	0.214
-322.085	28.928	0.018	-0.015
-321.070	-115.286	0.057	-0.011
-320.056	11.940	-0.095	0.072
-319.041	63.421	-0.239	-0.238
-318.026	-87.118	-0.157	0.047
-317.012	-200.000	0.013	-0.119
-315.997	150.701	0.199	0.268
-314.983	-148.845	-0.247	0.020
-313.968	80.397	-0.158	0.169
-312.953	16.259	0.045	0.035
-311.939	-167.683	-0.168	0.007
-310.924	-200.000	0.017	0.094
-309.910	-200.000	0.002	0.111
-308.895	-178.257	0.391	-0.009
-307.880	-153.681	-0.051	-0.003
-306.866	261.003	-0.164	-0.282
-305.851	319.546	0.149	0.280
-304.837	-200.000	0.009	-0.278
-303.822	-45.825	-0.125	-0.061
-302.807	-136.399	0.297	-0.034
-301.793	63.048	-0.053	0.053
-300.778	171.834	-0.184	-0.262
-299.764	-74.834	-0.351	-0.125
-298.749	800.000	-0.101	-0.319
-297.735	-34.129	0.075	-0.041
-296.720	-9.423	0.165	0.109
-295.705	800.000	-0.142	-0.390
-294.691	-200.000	-0.006	-0.204
-293.676	-68.006	0.120	-0.046
-292.662	124.745	0.224	0.280
-291.647	-78.013	-0.287	-0.098
-290.632	191.649	-0.179	-0.267
-289.618	175.645	-0.119	0.171
-288.603	-200.000	0.032	0.280
-287.589	6.637	0.120	-0.088
-286.574	-181.383	-0.287	0.006
-285.559	-200.000	0.047	-0.250
-284.545	-175.693	0.368	-0.010
-283.530	-94.152	0.239	-0.065
-282.516	45.516	-0.130	0.119
-281.501	-153.821	-0.169	-0.011
-280.486	206.556	0.078	-0.121
-279.472	188.070	0.170	-0.251
-278.457	-107.192	0.081	0.018
-277.443	-43.507	0.069	-0.034
-276.428	-76.850	0.131	0.045
-275.413	-42.757	-0.064	0.032
-274.399	168.379	0.127	0.180
-273.384	800.000	0.095	-0.334
-272.370	17.826	-0.104	0.082
-271.355	31.148	0.165	0.141
-270.340	800.000	0.052	-0.183
-269.326	-75.302	0.061	-0.021
-268.311	-91.378	0.167	-0.047
-267.297	323.221	-0.094	-0.177
-266.282	242.894	-0.099	-0.164
-265.267	205.741	-0.198	0.304
-264.253	-200.000	0.010	0.106
-263.238	3.530	-0.193	0.139
-262.224	-148.395	-0.264	0.021
-261.209	-93.425	-0.586	0.161
-260.195	-114.465	0.313	0.059
-259.180	-42.968	0.171	-0.086
-258.165	-66.796	0.124	-0.049
-257.151	8.041	-0.310	0.230
-256.136	20.956	-0.065	-0.052
-255.122	286.800	0.052	-0.093
-254.107	-200.000	-0.002	0.144
-253.092	154.003	-0.048	0.066
-252.078	-141.740	-0.052	0.005
-251.063	-200.000	0.042	0.190
-250.049	-200.000	0.045	0.503
-249.034	13.624	0.351	0.269
-248.019	102.510	0.180	-0.208
-247.005	579.427	0.091	0.221
-245.990	-200.000	0.005	0.024
-244.976	800.000	-0.114	0.327
-243.961	-150.006	0.309	0.024
-242.946	-79.882	0.094	-0.031
-241.932	138.703	0.116	-0.151
-240.917	-103.171	0.363	0.085
-239.903	-200.000	0.049	-0.284
-238.888	800.000	-0.106	0.304
-237.873	543.166	0.017	-0.040
-236.859	-36.165	0.089	0.048
-235.844	-200.000	0.001	-0.254
-234.830	-99.752	0.178	-0.044
-233.815	554.596	0.093	0.221
-232.800	-200.000	0.013	0.169
-231.786	224.628	-0.016	-0.026
-230.771	198.926	0.264	-0.400
-229.757	-173.068	-0.226	-0.007
-228.742	113.754	0.123	-0.148
-227.727	800.000	0.085	0.355
-226.713	340.462	0.117	0.225
-225.698	-200.000	-0.001	-0.116
-224.684	657.564	-0.047	0.120
-223.669	152.582	-0.154	0.208
-222.655	-57.089	-0.193	0.084
-221.640	-62.264	0.270	0.111
-220.625	-200.000	0.007	0.134
-219.611	-200.000	-0.001	-0.304
-218.596	-102.129	0.059	-0.014
-217.582	-31.627	0.197	0.110
-216.567	108.987	0.158	0.187
-215.552	9.612	0.064	-0.048
-214.538	-19.713	0.121	-0.074
-213.523	-146.520	0.163	-0.014
-212.509	132.856	0.258	0.329
-211.494	-59.494	-0.222	0.094
-210.479	-77.693	0.084	0.029
-209.465	433.314	-0.057	0.121
-208.450	-200.000	0.004	0.390
-207.436	-75.369	0.266	0.094
-206.421	-149.593	0.157	0.012
-205.406	-12.437	0.323	-0.208
-204.392	800.000	-0.085	0.305
-203.377	-105.286	-0.345	-0.078
-202.363	-64.177	0.181	0.073
-201.348	-64.723	-0.258	0.103
-200.333	-95.595	-0.262	-0.069
-199.319	-200.000	0.014	0.117
-198.304	800.000	-0.033	-0.091
-197.290	-131.631	0.069	-0.009
-196.275	289.358	0.071	0.126
-195.260	24.313	0.197	0.161
-194.246	-200.000	0.003	-0.040
-193.231	800.000	-0.037	0.104
-192.217	-57.894	0.173	-0.074
-191.202	-128.283	0.214	0.030
-190.187	80.034	-0.169	0.179
-189.173	117.907	-0.259	0.315
-188.158	182.010	0.158	0.229
-187.144	-169.570	-0.242	0.009
-186.129	125.841	0.109	0.136
-185.114	-123.859	-0.149	0.023
-184.100	800.000	0.037	0.120
-183.085	31.834	0.335	-0.285
-182.071	-122.379	-0.166	-0.027
-181.056	-39.888	-0.201	0.104
-180.042	-200.000	0.002	-0.156
-179.027	-106.268	0.179	-0.040
-178.012	-200.000	0.022	0.345
-176.998	145.406	-0.179	0.236
-175.983	114.323	0.258	-0.310
-174.969	-200.000	-0.017	-0.241
-173.954	-188.891	0.265	-0.003
-172.939	59.544	0.263	0.256
-171.925	-26.664	0.036	-0.021
-170.910	-24.829	0.270	-0.158
-169.896	44.133	0.078	0.070
-168.881	800.000	0.026	0.098
-167.866	56.155	0.186	-0.178
-166.852	800.000	-0.073	-0.291
-165.837	-67.317	-0.255	-0.099
-164.823	212.582	-0.095	0.148
-163.808	496.720	0.047	-0.105
-162.793	74.481	-0.158	-0.164
-161.779	-91.905	0.085	0.024
-160.764	15.037	0.050	-0.038
-159.750	-200.000	0.012	-0.094
-158.735	-66.138	0.315	0.124
-157.720	160.685	0.041	0.056
-156.706	800.000	-0.083	0.343
-155.691	737.557	-0.099	-0.261
-154.677	-181.859	0.266	0.005
-153.662	185.844	0.087	-0.128
-152.647	800.000	0.066	-0.240
-151.633	-38.647	0.290	0.151
-150.618	424.446	-0.096	0.204
-149.604	-117.313	0.108	0.019
-148.589	20.291	0.126	0.100
-147.574	-110.452	-0.252	0.052
-146.560	240.639	-0.091	0.150
-145.545	-12.992	0.035	-0.023
-144.531	-151.698	-0.240	-0.017
-143.516	237.614	0.047	-0.077
-142.502	-116.859	-0.010	0.002
-141.487	-200.000	0.165	0.001
-140.472	75.919	0.445	-0.463
-139.458	32.441	0.070	-0.060
-138.443	386.177	-0.056	-0.113
-137.429	-75.401	0.175	-0.061
-136.414	46.758	-0.157	-0.144
-135.399	-140.131	0.216	0.022
-134.385	-200.000	-0.011	-0.339
-133.370	-200.000	-0.010	-0.145
-132.356	151.321	-0.030	-0.040
-131.341	-85.915	0.226	0.069
-130.326	-0.698	-0.271	0.189
-129.312	166.274	0.181	0.252
-128.297	211.026	-0.150	-0.233
-127.283	625.191	0.079	0.197
-126.268	-58.427	-0.111	0.047
-125.253	-200.000	0.068	-0.547
-124.239	40.690	-0.177	0.157
-123.224	-4.417	-0.094	0.064
-122.210	800.000	-0.063	0.212
-121.195	-200.000	-0.000	0.091
-120.180	77.782	-0.141	0.148
-119.166	673.334	0.029	0.074
-118.151	543.515	0.033	0.076
-117.137	800.000	-0.109	-0.297
-116.122	17.878	0.287	-0.225
-115.107	737.044	-0.125	0.331
-114.093	163.609	-0.102	-0.142
-113.078	256.283	0.252	0.425
-112.064	287.027	-0.084	-0.150
-111.049	-18.509	-0.026	0.016
-110.034	-200.000	0.005	-0.292
-109.020	-80.347	0.381	0.125
-108.005	431.857	-0.118	-0.252
-106.991	-76.385	-0.100	-0.034
-105.976	253.427	-0.003	-0.005
-104.962	-200.000	-0.030	-0.194
-103.947	-6.120	-0.186	0.125
-102.932	-200.000	-0.031	0.304
-101.918	-97.847	0.172	0.044
-100.903	-200.000	-0.009	0.303
-99.889	-56.133	0.055	0.024
-98.874	64.940	-0.167	-0.166
-97.859	-138.581	0.459	0.049
-96.845	84.355	-0.219	0.236
-95.830	41.912	0.033	-0.030
-94.816	-119.883	-0.096	0.016
-93.801	354.712	0.094	-0.184
-92.786	-134.109	0.236	0.029
-91.772	-102.537	0.107	-0.025
-90.757	-200.000	-0.051	-0.286
-89.743	105.054	0.189	-0.219
-88.728	-200.000	-0.006	-0.262
-87.713	189.781	0.155	-0.228
-86.699	3.790	-0.237	-0.170
-85.684	115.184	-0.006	0.007
-84.670	-27.822	-0.272	0.155
-83.655	800.000	-0.063	-0.210
-82.640	-200.000	0.009	-0.121
-81.626	-200.000	0.002	-0.165
-80.611	37.815	0.094	0.082
-79.597	800.000	0.112	-0.473
-78.582	800.000	0.070	-0.271
-77.567	255.427	-0.167	-0.281
-76.553	-141.184	0.184	0.018
-75.538	-126.268	0.174	-0.026
-74.524	17.584	-0.071	-0.056
-73.509	118.854	-0.316	-0.384
-72.494	21.454	0.355	-0.283
-71.480	-35.756	0.253	-0.135
-70.465	800.000	0.064	-0.219
-69.451	98.358	-0.076	0.086
-68.436	150.303	-0.158	0.211
-67.422	-167.489	0.365	0.014
-66.407	377.330	-0.132	0.266
-65.392	94.865	-0.134	0.150
-64.378	-49.284	0.158	-0.074
-63.363	800.000	-0.053	0.157
-62.349	800.000	-0.015	0.052
-61.334	61.819	-0.967	-0.946
-60.319	-28.891	0.762	0.430
-59.305	800.000	-0.418	-1.287
-58.290	103.066	0.971	1.117
-57.276	344.366	0.843	1.624
-56.261	-200.000	103.346	592.782
-55.246	553.684	1439.602	3397.998
-54.232	185.440	2636.785	3843.678
-53.217	109.980	2282.296	2688.263
-52.203	39.919	1897.894	1672.922
-51.188	33.724	1686.888	1440.051
-50.173	31.227	1642.913	1383.970
-49.159	50.171	1694.524	1570.460
-48.144	50.780	1710.687	1589.960
-47.130	33.475	1668.602	1422.346
-46.115	30.694	1655.009	1389.958
-45.100	30.564	1649.563	1384.363
-44.086	30.529	1647.727	1382.508
-43.071	30.476	1644.902	1379.685
-42.057	30.400	1642.549	1377.097
-41.042	30.483	1640.434	1375.883
-40.027	30.512	1638.474	1374.398
-39.013	30.470	1636.448	1372.331
-37.998	30.479	1635.154	1371.264
-36.984	30.429	1633.955	1369.834
-35.969	30.557	1632.214	1369.262
-34.954	30.592	1630.749	1368.237
-33.940	30.538	1629.261	1366.538
-32.925	30.622	1627.409	1365.542
-31.911	30.576	1625.665	1363.686
-30.896	30.572	1624.041	1362.245
-29.881	30.493	1622.497	1360.320
-28.867	30.668	1620.272	1359.679
-27.852	30.582	1618.742	1357.708
-26.838	30.505	1618.192	1356.630
-25.823	30.537	1616.790	1355.637
-24.809	30.648	1614.870	1354.783
-23.794	30.565	1613.688	1353.130
-22.779	30.573	1612.112	1351.818
-21.765	30.530	1610.518	1350.114
-20.750	30.606	1608.459	1348.883
-19.736	30.528	1607.855	1347.759
-18.721	30.520	1606.532	1346.541
-17.706	30.522	1604.890	1345.122
-16.692	30.567	1603.000	1343.812
-15.677	30.549	1601.759	1342.586
-14.663	30.630	1600.590	1342.137
-13.648	30.636	1598.782	1340.616
-12.633	30.658	1596.944	1339.177
-11.619	30.563	1595.744	1337.433
-10.604	30.554	1594.377	1336.170
-9.590	30.566	1593.655	1335.602
-8.575	30.702	1592.143	1335.258
-7.560	30.620	1591.071	1333.715
-6.546	30.608	1589.817	1332.523
-5.531	30.594	1588.956	1331.647
-4.517	30.622	1586.843	1330.029
-3.502	30.573	1586.238	1329.118
-2.487	30.648	1584.772	1328.369
-1.473	30.326	1573.015	1316.180
-0.458	27.423	1553.904	1279.767
0.556	23.279	1554.898	1249.153
1.571	21.100	1579.154	1252.900
2.586	20.641	1592.451	1260.016
3.600	18.526	1539.186	1202.934
4.615	11.422	1432.822	1073.151
5.629	5.691	1372.203	991.481
6.644	4.998	1364.510	981.476
7.659	4.794	1363.255	979.199
8.673	4.762	1362.681	978.501
9.688	4.776	1360.321	976.809
10.702	4.749	1357.352	974.417
11.717	7.379	1362.677	994.671
12.731	14.240	1375.164	1046.986
13.746	18.744	1381.763	1080.321
14.761	18.696	1381.000	1079.329
15.775	17.702	1378.132	1070.751
16.790	16.677	1375.486	1062.168
17.804	15.867	1372.787	1054.919
18.819	15.471	1371.758	1051.557
19.834	15.231	1370.296	1048.840
20.848	15.091	1369.249	1047.070
21.863	14.785	1367.922	1044.051
22.877	14.602	1366.866	1042.011
23.892	14.529	1366.340	1041.061
24.907	14.622	1365.254	1040.724
25.921	14.573	1364.473	1039.728
26.936	14.603	1363.116	1038.789
27.950	14.626	1362.691	1038.515
28.965	14.657	1361.606	1037.789
29.980	14.858	1359.945	1037.678
30.994	14.915	1359.165	1037.345
32.009	14.990	1357.971	1036.809
33.023	14.943	1356.393	1035.224
34.038	14.867	1354.740	1033.400
35.053	14.773	1354.033	1032.185
36.067	14.774	1352.758	1031.130
37.082	14.779	1352.234	1030.668
38.096	14.878	1351.063	1030.295
39.111	14.813	1350.210	1029.153
40.126	14.811	1349.271	1028.338
41.140	14.637	1348.483	1026.573
42.155	14.455	1348.445	1025.338
43.169	14.579	1347.707	1025.444
44.184	14.536	1347.676	1025.066
45.199	14.590	1346.680	1024.550
46.213	14.577	1346.738	1024.423
47.228	14.687	1345.806	1024.301
48.242	14.764	1344.176	1023.442
49.257	14.688	1342.690	1021.750
50.271	14.735	1341.138	1020.769
51.286	14.643	1340.722	1019.798
52.301	14.792	1338.384	1018.837
53.315	14.621	1337.806	1017.267
54.330	14.550	1337.341	1016.390
55.344	14.557	1335.457	1014.909
56.359	14.593	1334.980	1014.679
57.374	14.652	1333.450	1013.781
58.388	14.540	1333.485	1013.043
59.403	14.505	1332.734	1012.170
60.417	14.533	1331.947	1011.648
61.432	14.529	1331.116	1010.906
62.447	14.324	1330.213	1008.885
63.461	14.330	1329.022	1007.931
64.476	14.267	1328.023	1006.702
65.490	14.417	1326.789	1006.589
66.505	14.410	1325.189	1005.239
67.520	14.438	1323.819	1004.281
68.534	14.518	1322.482	1003.658
69.549	14.512	1321.718	1002.956
70.563	14.436	1320.430	1001.432
71.578	14.354	1319.560	1000.189
72.593	14.239	1318.730	998.783
73.607	14.363	1317.685	998.646
74.622	14.432	1316.523	998.091
75.636	14.360	1316.186	997.315
76.651	14.358	1315.659	996.815
77.666	14.377	1315.744	996.908
78.680	14.413	1314.932	996.421
79.695	14.455	1314.077	995.935
80.709	14.501	1313.112	995.392
81.724	14.546	1312.295	994.948
82.739	14.512	1311.548	994.094
83.753	14.645	1311.024	994.398
84.768	14.732	1309.958	994.020
85.782	14.809	1308.624	993.379
86.797	14.786	1307.579	992.363
87.812	14.714	1306.101	990.722
88.826	14.608	1305.131	989.270
89.841	14.664	1303.974	988.643
90.855	14.771	1302.691	988.213
91.870	14.760	1302.720	988.085
92.884	14.717	1301.731	986.993
93.899	14.717	1301.021	986.365
94.914	14.789	1300.045	985.960
95.928	14.961	1299.119	986.185
96.943	14.817	1298.220	984.567
97.957	14.737	1297.555	983.509
98.972	14.824	1296.513	983.143
99.987	14.771	1295.155	981.713
101.001	14.734	1294.374	980.816
102.016	14.674	1293.426	979.658
103.030	14.780	1292.481	979.477
104.045	14.767	1291.373	978.475
105.060	14.774	1290.305	977.621
106.074	14.622	1288.997	975.659
107.089	14.530	1287.343	973.782
108.103	14.521	1286.073	972.682
109.118	14.445	1284.987	971.328
110.133	14.429	1283.869	970.309
111.147	14.617	1281.995	969.897
112.162	14.516	1280.885	968.383
113.176	14.537	1280.313	967.987
114.191	14.567	1279.396	967.384
115.206	14.598	1278.081	966.483
116.220	14.579	1276.874	965.377
117.235	14.597	1275.775	964.565
118.249	14.493	1275.262	963.486
119.264	14.517	1273.281	962.044
120.279	14.490	1272.438	961.165
121.293	14.399	1271.951	960.189
122.308	14.395	1270.609	959.067
123.322	14.442	1269.401	958.342
124.337	14.373	1268.322	957.045
125.352	14.530	1267.086	956.933
126.366	14.457	1266.272	955.812
127.381	14.497	1265.173	955.127
128.395	14.493	1264.093	954.205
129.410	14.489	1263.431	953.596
130.424	14.597	1261.950	953.013
131.439	14.574	1261.351	952.344
132.454	14.664	1260.289	951.972
133.468	14.647	1259.786	951.410
134.483	14.583	1259.001	950.369
135.497	14.602	1257.945	949.599
136.512	14.748	1256.137	948.979
137.527	14.637	1255.172	947.532
138.541	14.635	1253.913	946.492
139.556	14.765	1252.487	946.067
140.570	14.715	1251.955	945.294
141.585	14.763	1250.840	944.645
142.600	14.753	1249.738	943.669
143.614	14.935	1248.610	943.761
144.629	14.927	1247.528	942.815
145.643	14.832	1246.266	941.244
146.658	14.779	1244.796	939.751
147.673	14.679	1243.461	938.100
148.687	14.680	1242.538	937.328
149.702	14.668	1241.316	936.252
150.716	14.697	1239.551	935.001
151.731	14.750	1238.622	934.512
152.746	14.648	1237.909	933.323
153.760	14.775	1236.448	932.848
154.775	14.759	1235.411	931.897
155.789	14.968	1234.430	932.240
156.804	14.877	1233.536	930.973
157.819	14.820	1233.016	930.182
158.833	14.880	1232.415	929.978
159.848	14.999	1231.030	929.515
160.862	15.035	1229.628	928.571
161.877	14.779	1228.881	926.505
162.892	14.822	1227.618	925.708
163.906	14.836	1226.716	925.026
164.921	14.859	1225.706	924.308
165.935	14.814	1225.213	923.608
166.950	14.802	1224.350	922.810
167.964	14.829	1223.519	922.248
168.979	14.912	1222.745	922.042
169.994	14.929	1221.933	921.443
171.008	14.938	1221.321	920.949
172.023	14.994	1220.539	920.586
173.037	15.143	1219.196	920.308
174.052	15.071	1218.411	919.237
175.067	14.996	1217.773	918.264
176.081	14.871	1216.803	916.769
177.096	14.920	1215.842	916.230
178.110	14.866	1215.070	915.272
179.125	14.988	1213.667	914.802
180.140	15.012	1212.336	913.849
181.154	15.029	1211.051	912.892
182.169	15.122	1209.653	912.263
183.183	14.967	1209.411	911.154
184.198	15.124	1207.948	910.825
185.213	15.051	1206.468	909.237
186.227	15.151	1205.643	909.073
187.242	15.250	1204.688	908.808
188.256	15.231	1203.605	907.812
189.271	15.253	1202.408	906.946
190.286	14.987	1201.629	904.843
191.300	14.874	1200.509	903.306
192.315	14.832	1199.819	902.483
193.329	15.007	1199.197	902.875
194.344	15.071	1198.267	902.441
195.359	15.046	1197.941	901.982
196.373	15.132	1197.651	902.145
197.388	15.126	1197.463	901.894
198.402	15.266	1197.133	902.316
199.417	15.375	1196.285	902.188
200.432	15.457	1195.508	901.962
201.446	15.488	1194.464	901.260
202.461	15.481	1194.061	900.837
203.475	15.569	1192.487	900.041
204.490	15.525	1191.254	898.798
205.504	15.280	1190.393	896.756
206.519	15.344	1189.141	896.075
207.534	15.399	1187.755	895.249
208.548	15.363	1186.940	894.359
209.563	15.362	1186.318	893.810
210.577	15.449	1185.566	893.627
211.592	15.452	1184.376	892.667
212.607	15.566	1183.579	892.594
213.621	15.502	1182.919	891.673
214.636	15.571	1181.994	891.268
215.650	15.550	1180.929	890.271
216.665	15.592	1180.142	889.825
217.680	15.704	1179.242	889.659
218.694	15.639	1178.760	888.874
219.709	15.576	1177.951	887.851
220.723	15.713	1176.940	887.733
221.738	15.584	1176.444	886.601
222.753	15.703	1175.324	886.304
223.767	15.763	1174.708	886.076
224.782	15.759	1174.327	885.688
225.796	15.833	1173.823	885.623
226.811	15.759	1173.012	884.542
227.826	15.739	1172.200	883.746
228.840	15.673	1171.358	882.684
229.855	15.700	1170.983	882.466
230.869	15.699	1169.522	881.285
231.884	15.669	1168.763	880.478
232.899	15.586	1168.614	879.853
233.913	15.632	1167.545	879.210
234.928	15.592	1166.965	878.486
235.942	15.689	1165.885	878.103
236.957	15.647	1164.864	877.037
237.972	15.765	1164.269	877.128
238.986	15.613	1164.152	876.170
240.001	15.624	1163.269	875.485
241.015	15.767	1162.000	875.192
242.030	15.743	1161.831	874.864
243.045	15.874	1160.575	874.521
244.059	15.807	1160.304	873.890
245.074	15.781	1159.076	872.753
246.088	15.907	1158.317	872.758
247.103	15.801	1157.952	871.859
248.117	15.965	1157.048	871.952
249.132	16.047	1156.317	871.744
250.147	16.331	1155.555	872.562
251.161	16.260	1154.994	871.694
252.176	16.352	1154.296	871.562
253.190	16.297	1153.372	870.507
254.205	16.348	1153.266	870.611
255.220	16.258	1152.826	869.741
256.234	16.326	1151.779	869.224
257.249	16.275	1151.769	868.874
258.263	16.403	1150.757	868.692
259.278	16.370	1150.399	868.179
260.293	16.483	1149.321	867.865
261.307	16.430	1148.639	867.000
262.322	16.467	1147.735	866.434
263.336	16.436	1147.218	865.807
264.351	16.535	1146.730	865.872
265.366	16.525	1145.837	865.068
266.380	16.454	1145.377	864.283
267.395	16.415	1144.862	863.618
268.409	16.320	1144.251	862.595
269.424	16.415	1143.341	862.317
270.439	16.457	1142.650	861.932
271.453	16.446	1141.976	861.290
272.468	16.517	1140.821	860.705
273.482	16.401	1140.298	859.646
274.497	16.325	1140.116	859.045
275.512	16.484	1139.016	858.947
276.526	16.385	1138.502	857.981
277.541	16.497	1137.440	857.676
278.555	16.526	1136.895	857.332
279.570	16.565	1136.231	856.954
280.585	16.640	1135.406	856.637
281.599	16.563	1134.360	855.385
282.614	16.516	1133.526	854.441
283.628	16.512	1132.119	853.285
284.643	16.593	1131.364	853.046
285.657	16.641	1130.491	852.556
286.672	16.609	1129.451	851.535
287.687	16.663	1128.487	851.005
288.701	16.676	1128.044	850.661
289.716	16.727	1127.160	850.174
290.730	16.701	1126.776	849.679
291.745	16.798	1125.890	849.421
292.760	16.696	1125.102	848.243
293.774	16.793	1124.689	848.339
294.789	16.899	1124.465	848.629
295.803	16.850	1123.522	847.598
296.818	16.852	1122.835	847.013
297.833	16.746	1122.095	845.849
298.847	16.833	1121.027	845.403
299.862	16.779	1120.356	844.555
300.876	16.767	1120.018	844.165
301.891	16.966	1118.778	844.145
302.906	16.980	1118.261	843.749
303.920	17.004	1117.769	843.424
304.935	17.079	1116.908	843.072
305.949	17.191	1116.464	843.217
306.964	17.137	1115.744	842.334
307.979	17.072	1114.999	841.371
308.993	17.115	1114.243	840.944
310.008	17.195	1113.137	840.427
311.022	17.267	1112.559	840.273
312.037	17.129	1112.067	839.145
313.052	17.131	1110.645	838.009
314.066	17.055	1109.753	836.886
315.081	16.987	1109.160	836.029
316.095	16.985	1108.469	835.423
317.110	17.034	1107.836	835.113
318.125	16.974	1107.092	834.186
319.139	16.938	1106.431	833.438
320.154	17.060	1105.673	833.389
321.168	16.915	1105.612	832.562
322.183	17.016	1104.558	832.186
323.197	16.939	1104.470	831.671
324.212	17.045	1103.583	831.450
325.227	16.961	1103.285	830.738
326.241	17.050	1102.476	830.493
327.256	17.051	1101.622	829.779
328.270	17.137	1100.587	829.349
329.285	17.016	1099.471	827.843
330.300	17.225	1098.464	828.028
331.314	17.142	1097.638	826.926
332.329	17.088	1096.844	825.997
333.343	17.151	1095.894	825.513
334.358	17.195	1095.386	825.272
335.373	17.198	1094.691	824.686
336.387	17.321	1093.445	824.271
337.402	17.281	1093.030	823.692
338.416	17.420	1092.137	823.622
339.431	17.325	1092.134	823.087
340.446	17.356	1091.265	822.507
341.460	17.454	1090.786	822.548
342.475	17.584	1090.111	822.595
343.489	17.520	1089.378	821.658
344.504	17.589	1088.505	821.259
345.519	17.725	1086.972	820.687
346.533	17.615	1086.339	819.605
347.548	17.656	1085.900	819.398
348.562	17.667	1085.004	818.704
349.577	17.677	1084.154	818.037
350.592	17.523	1083.120	816.447
351.606	17.582	1082.359	816.086
352.621	17.428	1081.649	814.741
353.635	17.402	1081.297	814.278
354.650	17.583	1080.582	814.533
355.665	17.474	1080.178	813.633
356.679	17.449	1079.399	812.857
357.694	17.499	1079.058	812.767
358.708	17.618	1078.333	812.717
359.723	17.724	1077.270	812.350
360.738	17.514	1076.854	810.962
361.752	17.620	1076.316	810.990
362.767	17.608	1075.993	810.620
363.781	17.598	1075.457	810.095
364.796	17.818	1074.509	810.353
365.810	17.991	1073.777	810.551
366.825	17.917	1073.030	809.566
367.840	18.141	1072.627	810.249
368.854	17.960	1072.238	809.030
369.869	17.994	1071.531	808.582
370.883	17.936	1070.825	807.705
371.898	17.907	1069.857	806.765
372.913	18.023	1069.163	806.721
373.927	17.969	1068.857	806.163
374.942	18.003	1068.403	805.910
375.956	17.998	1068.218	805.673
376.971	17.947	1067.292	804.664
377.986	18.093	1066.605	804.761
379.000	17.989	1066.647	804.234
380.015	18.128	1065.416	803.890
381.029	18.344	1064.846	804.402
382.044	18.195	1064.140	803.096
383.059	18.149	1063.344	802.211
384.073	18.271	1062.740	802.254
385.088	18.255	1061.850	801.436
386.102	18.292	1060.895	800.817
387.117	18.237	1059.707	799.595
388.132	18.131	1058.699	798.267
389.146	18.055	1058.293	797.537
390.161	18.091	1057.839	797.293
391.175	18.138	1056.892	796.726
392.190	18.256	1055.983	796.518
393.205	18.147	1055.392	795.495
394.219	18.385	1054.432	795.809
395.234	18.226	1053.453	794.262
396.248	18.254	1052.546	793.636
397.263	18.254	1051.397	792.700
398.278	18.224	1050.973	792.173
399.292	18.159	1050.535	791.471
400.307	18.161	1049.675	790.762
401.321	18.194	1048.701	790.110
402.336	18.159	1048.107	789.430
403.350	18.191	1047.576	789.110
404.365	18.193	1046.915	788.554
405.380	18.229	1046.092	788.028
406.394	18.430	1045.402	788.361
407.409	18.390	1044.994	787.802
408.423	18.568	1043.851	787.686
409.438	18.551	1043.549	787.311
410.453	18.499	1043.031	786.612
411.467	18.685	1041.861	786.515
412.482	18.537	1041.627	785.590
413.496	18.710	1040.991	785.831
414.511	18.581	1040.627	784.899
415.526	18.801	1039.842	785.241
416.540	18.795	1039.560	784.931
417.555	18.796	1038.890	784.360
418.569	18.769	1038.573	783.931
419.584	18.731	1037.893	783.172
420.599	18.820	1036.989	782.828
421.613	150.660	1402.584	1796.364
422.628	137.636	1455.849	1796.477
