DTS Sentinel unit serial number:	SN413079Multiplexer serial number:	ORYXHardware model number:	OX4-SRSoftware version number:	ORYX F/W v4.00 Oryx Data Collector v3.7.2.0data status	okinstallation	princeton_trtdifferential loss correction	single-endedforward channel	channel 2reverse channel	N/Adate	2019/09/13time	23:19:34forward acquisition time	60.00reverse acquisition time	0.00gamma	496.2192k internal	0.2337k external	0.2337temperature offset calibration	1.0131default loss term (dB/km)	0.3790temperature slope calibration	1.0000multiplexer offset coefficient	1.0000multiplexer slope coefficient	1.0000fibre end	0.00T internal ref (°C)	27.00T ext. ref 1 (°C)	3.18T ext. ref 2 (°C)	20.94length (m)	temperature (°C)	Stokes	anti-Stokes-747.200	800.000	0.030	0.084
-746.185	-200.000	0.032	0.317
-745.171	-91.105	0.395	-0.114
-744.156	-200.000	0.003	0.356
-743.142	86.904	-0.210	0.233
-742.127	178.553	0.256	0.375
-741.112	-111.511	0.444	0.091
-740.098	270.651	-0.162	0.286
-739.083	193.212	0.174	0.263
-738.069	-75.187	-0.029	0.010
-737.054	118.303	-0.125	-0.154
-736.039	-164.960	-0.355	0.016
-735.025	-124.985	0.557	0.086
-734.010	29.121	-0.454	-0.386
-732.996	371.551	0.091	-0.186
-731.981	800.000	-0.031	0.104
-730.966	-200.000	-0.079	-0.420
-729.952	-200.000	-0.032	-0.424
-728.937	-96.536	-0.187	0.049
-727.923	-38.682	-0.140	-0.074
-726.908	-64.938	0.133	0.054
-725.894	25.456	-0.374	-0.312
-724.879	473.031	0.048	-0.109
-723.864	-200.000	0.042	0.260
-722.850	-67.535	-0.072	-0.028
-721.835	-61.136	-0.252	-0.107
-720.821	78.328	-0.173	-0.186
-719.806	8.609	0.170	-0.128
-718.791	-200.000	-0.023	-0.278
-717.777	64.128	0.190	0.192
-716.762	-195.307	0.021	0.000
-715.748	-134.543	-0.076	0.009
-714.733	-200.000	-0.050	0.227
-713.718	-164.303	0.084	0.004
-712.704	173.859	-0.244	0.353
-711.689	-118.860	-0.128	-0.023
-710.675	47.590	0.179	-0.168
-709.660	-64.767	0.305	-0.124
-708.645	800.000	0.026	-0.097
-707.631	-44.747	0.232	0.116
-706.616	-200.000	-0.016	0.118
-705.602	-82.891	0.447	0.145
-704.587	-185.000	0.386	0.006
-703.572	800.000	0.076	0.322
-702.558	-200.000	-0.010	-0.227
-701.543	-101.506	0.151	-0.037
-700.529	144.700	0.230	-0.308
-699.514	-125.450	-0.231	-0.035
-698.499	-39.419	-0.215	-0.113
-697.485	297.747	0.106	-0.196
-696.470	14.834	0.330	-0.258
-695.456	-200.000	-0.014	0.301
-694.441	-200.000	0.004	0.046
-693.426	-75.490	0.270	0.096
-692.412	695.120	0.035	-0.091
-691.397	138.268	0.163	0.214
-690.383	-74.397	-0.233	-0.084
-689.368	-200.000	-0.007	-0.104
-688.354	73.919	-0.094	0.099
-687.339	-113.914	0.368	0.072
-686.324	140.184	-0.133	-0.176
-685.310	85.310	-0.035	0.039
-684.295	421.755	0.070	-0.151
-683.281	-200.000	-0.026	-0.187
-682.266	-84.517	-0.191	0.061
-681.251	-60.601	0.232	0.099
-680.237	-112.846	-0.505	-0.100
-679.222	-200.000	-0.023	-0.271
-678.208	-200.000	-0.010	-0.321
-677.193	660.846	-0.090	-0.233
-676.178	-200.000	0.062	-0.277
-675.164	305.516	0.099	-0.185
-674.149	-194.201	0.235	-0.002
-673.135	-200.000	0.011	0.092
-672.120	242.246	-0.188	-0.315
-671.105	219.054	-0.168	0.269
-670.091	-68.141	0.204	-0.080
-669.076	371.967	0.075	0.152
-668.062	-200.000	0.001	0.023
-667.047	-200.000	0.010	-0.089
-666.032	13.606	-0.310	-0.241
-665.018	312.515	0.151	0.284
-664.003	-200.000	0.015	-0.331
-662.989	-200.000	-0.014	-0.233
-661.974	47.740	-0.101	-0.094
-660.959	-200.000	-0.016	0.125
-659.945	800.000	-0.034	-0.113
-658.930	-43.619	0.225	-0.114
-657.916	800.000	0.011	0.045
-656.901	120.390	0.313	-0.389
-655.886	132.805	0.143	-0.185
-654.872	-4.199	0.143	0.099
-653.857	628.958	-0.191	-0.484
-652.843	-99.277	0.446	-0.113
-651.828	-60.234	-0.181	0.077
-650.814	54.650	-0.117	-0.112
-649.799	159.332	-0.254	-0.353
-648.784	-45.819	-0.112	-0.055
-647.770	-141.632	-0.134	-0.013
-646.755	24.832	-0.140	-0.116
-645.741	-200.000	-0.022	-0.172
-644.726	154.760	0.135	-0.186
-643.711	-62.849	-0.240	0.099
-642.697	800.000	-0.083	-0.302
-641.682	-31.732	0.086	0.048
-640.668	71.333	0.089	-0.092
-639.653	64.460	-0.103	0.104
-638.638	-135.593	-0.431	0.051
-637.624	-200.000	0.009	0.252
-636.609	257.988	0.126	0.217
-635.595	6.250	0.111	-0.082
-634.580	709.050	-0.062	0.163
-633.565	-128.167	0.088	0.013
-632.551	121.609	0.188	-0.234
-631.536	-137.894	0.198	0.022
-630.522	-81.383	-0.213	0.070
-629.507	-162.136	-0.133	0.007
-628.492	300.619	-0.096	-0.176
-627.478	-200.000	-0.015	0.094
-626.463	118.549	0.098	0.121
-625.449	663.631	-0.088	0.228
-624.434	475.389	-0.112	-0.253
-623.419	800.000	-0.050	0.162
-622.405	29.710	-0.181	0.154
-621.390	-132.796	-0.198	0.025
-620.376	59.446	-0.121	0.119
-619.361	800.000	0.059	0.182
-618.346	-200.000	-0.024	-0.285
-617.332	675.476	0.043	-0.112
-616.317	51.321	-0.082	0.078
-615.303	-134.953	-0.248	0.030
-614.288	178.881	-0.192	-0.281
-613.273	800.000	0.064	-0.177
-612.259	741.688	0.090	0.241
-611.244	-142.993	-0.365	-0.035
-610.230	-136.165	0.318	-0.037
-609.215	-132.374	-0.151	0.019
-608.201	-200.000	0.035	-0.323
-607.186	50.739	0.300	-0.284
-606.171	-70.613	0.335	-0.127
-605.157	-44.194	-0.087	-0.044
-604.142	-8.675	-0.175	0.117
-603.128	-136.133	-0.195	-0.023
-602.113	-64.064	-0.060	0.025
-601.098	-137.395	0.135	0.015
-600.084	-55.163	-0.035	0.016
-599.069	82.207	-0.295	0.319
-598.055	-48.883	-0.301	-0.144
-597.040	217.902	0.070	0.112
-596.025	-200.000	0.014	0.219
-595.011	-200.000	-0.025	-0.192
-593.996	47.478	0.287	-0.267
-592.982	-161.988	-0.071	0.004
-591.967	119.769	-0.135	-0.167
-590.952	-83.182	-0.175	-0.056
-589.938	-81.131	0.217	-0.072
-588.923	-200.000	0.005	0.083
-587.909	-112.717	-0.261	-0.052
-586.894	-19.370	-0.394	-0.244
-585.879	-179.916	0.196	0.004
-584.865	-64.596	-0.138	0.056
-583.850	373.401	0.119	0.241
-582.836	119.443	0.117	0.144
-581.821	-200.000	0.035	-0.281
-580.806	-200.000	0.013	-0.141
-579.792	-200.000	-0.004	0.171
-578.777	-200.000	0.027	-0.211
-577.763	61.702	-0.010	0.010
-576.748	800.000	-0.061	0.179
-575.733	-200.000	0.011	0.155
-574.719	110.066	0.154	0.184
-573.704	689.663	0.077	-0.202
-572.690	81.759	0.255	-0.275
-571.675	121.229	-0.088	-0.109
-570.661	111.095	0.093	-0.111
-569.646	-169.592	-0.320	0.012
-568.631	276.694	0.096	0.170
-567.617	-162.657	-0.208	-0.010
-566.602	28.920	0.024	-0.020
-565.588	-146.583	-0.129	0.011
-564.573	-0.196	-0.217	0.154
-563.558	-114.366	-0.174	-0.033
-562.544	-7.974	0.293	0.197
-561.529	170.963	-0.148	0.211
-560.515	-42.919	-0.297	0.150
-559.500	114.023	0.116	0.141
-558.485	800.000	-0.072	0.299
-557.471	800.000	0.025	0.088
-556.456	-140.986	0.120	-0.012
-555.442	-200.000	0.020	0.277
-554.427	58.185	-0.158	-0.154
-553.412	-200.000	0.031	0.276
-552.398	46.592	-0.089	-0.082
-551.383	309.533	-0.073	-0.136
-550.369	107.866	-0.113	-0.134
-549.354	-200.000	0.045	-0.208
-548.339	103.393	-0.093	0.108
-547.325	209.250	-0.139	-0.217
-546.310	220.055	-0.054	0.086
-545.296	167.083	0.227	-0.320
-544.281	-13.527	-0.067	-0.043
-543.266	-200.000	-0.046	0.394
-542.252	-63.221	-0.156	0.064
-541.237	-188.119	0.432	0.006
-540.223	-86.328	0.326	0.100
-539.208	-200.000	-0.052	-0.340
-538.193	140.183	0.244	-0.321
-537.179	-200.000	-0.031	-0.331
-536.164	-200.000	-0.019	-0.504
-535.150	246.500	-0.025	0.042
-534.135	-200.000	0.005	0.134
-533.121	141.725	0.212	0.279
-532.106	-34.827	0.152	0.083
-531.091	225.644	-0.129	0.209
-530.077	-144.729	-0.169	0.015
-529.062	332.467	-0.100	0.192
-528.048	800.000	-0.042	0.149
-527.033	-109.362	0.219	-0.046
-526.018	-200.000	0.047	-0.281
-525.004	-200.000	0.073	-0.370
-523.989	83.133	0.092	0.100
-522.975	-175.164	0.209	-0.006
-521.960	82.608	-0.116	0.125
-520.945	-200.000	0.053	0.248
-519.931	-99.120	-0.164	0.041
-518.916	-77.210	-0.187	-0.065
-517.902	161.015	-0.228	0.318
-516.887	-9.491	0.097	0.065
-515.872	225.675	0.128	0.207
-514.858	94.368	-0.200	0.226
-513.843	800.000	-0.044	-0.154
-512.829	255.658	0.165	0.282
-511.814	-92.404	-0.299	-0.084
-510.799	184.380	-0.113	-0.167
-509.785	-200.000	-0.005	0.051
-508.770	-86.244	-0.041	0.012
-507.756	36.446	-0.036	0.032
-506.741	10.514	-0.177	0.134
-505.726	-200.000	0.044	-0.246
-504.712	-12.996	0.265	0.172
-503.697	-93.013	0.367	-0.102
-502.683	-155.630	-0.026	0.002
-501.668	-101.889	-0.423	0.102
-500.653	-22.033	-0.187	-0.113
-499.639	800.000	0.070	-0.202
-498.624	204.119	0.107	-0.165
-497.610	-200.000	-0.028	0.136
-496.595	-200.000	-0.031	0.322
-495.581	330.368	0.077	0.147
-494.566	74.655	-0.092	0.096
-493.551	800.000	-0.043	-0.183
-492.537	-176.451	0.116	0.003
-491.522	8.093	-0.295	-0.220
-490.508	-189.363	-0.074	-0.001
-489.493	284.440	0.082	-0.148
-488.478	159.421	0.122	0.169
-487.464	-80.962	-0.082	0.027
-486.449	54.021	0.262	0.250
-485.435	-30.043	-0.035	0.020
-484.420	0.825	-0.270	-0.192
-483.405	163.807	0.249	0.348
-482.391	-200.000	0.032	0.275
-481.376	-99.170	0.169	0.043
-480.362	128.544	0.130	0.164
-479.347	800.000	-0.052	0.158
-478.332	-61.360	-0.185	-0.077
-477.318	-102.576	0.202	0.048
-476.303	-27.346	0.291	-0.168
-475.289	135.484	-0.067	0.086
-474.274	252.099	0.082	-0.139
-473.259	302.576	-0.125	-0.229
-472.245	-51.056	0.146	0.068
-471.230	602.126	-0.070	-0.172
-470.216	-32.529	-0.211	-0.117
-469.201	240.607	0.021	-0.035
-468.186	-65.231	0.103	-0.041
-467.172	470.106	0.122	0.272
-466.157	-200.000	-0.058	0.293
-465.143	-200.000	-0.008	0.110
-464.128	-105.944	-0.457	-0.102
-463.113	424.160	0.079	-0.169
-462.099	-154.180	-0.292	0.020
-461.084	800.000	0.020	0.078
-460.070	125.217	-0.178	-0.223
-459.055	-73.985	-0.278	-0.100
-458.040	800.000	-0.092	-0.338
-457.026	-200.000	-0.013	-0.100
-456.011	304.752	-0.073	0.134
-454.997	-27.035	-0.148	-0.086
-453.982	-112.572	-0.215	-0.043
-452.968	-9.888	0.394	-0.260
-451.953	-42.774	0.165	-0.083
-450.938	800.000	-0.020	-0.057
-449.924	-200.000	-0.040	-0.286
-448.909	-40.768	-0.065	0.034
-447.895	-23.006	0.128	-0.076
-446.880	-25.931	-0.314	-0.184
-445.865	800.000	0.047	0.165
-444.851	-83.478	0.159	0.050
-443.836	7.235	-0.210	-0.156
-442.822	800.000	-0.051	-0.157
-441.807	800.000	-0.048	0.163
-440.792	179.361	0.063	0.091
-439.778	146.168	0.191	-0.254
-438.763	-103.312	-0.177	-0.041
-437.749	-200.000	-0.032	0.240
-436.734	524.045	0.077	0.179
-435.719	800.000	0.094	0.298
-434.705	-108.475	0.108	0.023
-433.690	33.946	-0.117	-0.101
-432.676	722.756	0.072	-0.189
-431.661	-48.569	-0.442	0.211
-430.646	800.000	0.061	-0.188
-429.632	-53.230	0.227	-0.103
-428.617	800.000	0.114	0.345
-427.603	317.428	-0.065	-0.121
-426.588	255.239	0.188	0.320
-425.573	14.700	0.308	0.239
-424.559	-153.842	-0.133	0.009
-423.544	800.000	-0.104	0.348
-422.530	89.750	0.010	0.011
-421.515	-200.000	-0.105	-0.467
-420.500	-93.215	-0.284	0.078
-419.486	-54.087	-0.122	-0.055
-418.471	-87.731	-0.136	0.041
-417.457	94.302	-0.101	0.114
-416.442	742.266	0.051	0.135
-415.428	-120.337	-0.251	0.042
-414.413	-200.000	-0.015	-0.207
-413.398	-120.935	0.380	-0.063
-412.384	-43.600	0.110	0.055
-411.369	583.006	0.101	0.246
-410.355	-200.000	0.007	0.083
-409.340	12.450	0.220	-0.168
-408.325	327.763	0.110	-0.210
-407.311	-200.000	-0.005	-0.106
-406.296	301.340	-0.025	-0.046
-405.282	219.051	0.077	0.122
-404.267	-75.878	-0.068	-0.024
-403.252	110.359	0.044	0.053
-402.238	-155.201	-0.257	-0.017
-401.223	-0.916	0.052	-0.037
-400.209	-61.463	-0.184	0.077
-399.194	83.641	0.107	0.115
-398.179	58.805	0.163	-0.159
-397.165	-200.000	0.018	-0.202
-396.150	6.211	0.243	-0.178
-395.136	51.575	0.287	0.270
-394.121	-19.034	0.151	0.093
-393.106	-19.449	0.253	-0.155
-392.092	72.239	-0.280	0.288
-391.077	483.553	0.071	-0.159
-390.063	123.101	0.104	-0.128
-389.048	800.000	-0.090	-0.316
-388.033	-176.919	-0.178	0.004
-387.019	192.386	0.120	-0.179
-386.004	-200.000	-0.038	-0.384
-384.990	453.647	-0.067	0.147
-383.975	-49.335	-0.113	-0.053
-382.960	-81.424	0.121	0.039
-381.946	113.237	0.088	-0.105
-380.931	-62.442	0.278	-0.114
-379.917	800.000	0.026	0.092
-378.902	800.000	0.108	0.363
-377.888	18.290	-0.221	-0.175
-376.873	-108.643	0.094	0.020
-375.858	-90.990	0.412	-0.117
-374.844	77.123	-0.262	-0.276
-373.829	-14.010	0.230	0.147
-372.815	-142.799	0.267	0.026
-371.800	61.362	0.174	-0.171
-370.785	-83.937	0.189	-0.060
-369.771	24.516	0.211	-0.173
-368.756	-200.000	0.009	-0.168
-367.742	321.465	0.092	-0.173
-366.727	331.100	-0.101	-0.192
-365.712	19.717	-0.137	0.109
-364.698	-110.401	-0.120	0.025
-363.683	45.255	-0.386	0.352
-362.669	299.602	0.144	-0.263
-361.654	178.353	0.127	-0.183
-360.639	-94.050	-0.314	0.085
-359.625	-200.000	-0.002	0.229
-358.610	146.608	-0.096	0.127
-357.596	200.813	-0.027	0.042
-356.581	-194.190	0.296	0.002
-355.566	-38.887	0.239	-0.124
-354.552	800.000	-0.089	0.357
-353.537	-153.946	0.411	-0.028
-352.523	-200.000	0.002	-0.356
-351.508	-200.000	0.049	0.283
-350.493	-138.006	0.139	0.015
-349.479	-81.518	-0.499	0.162
-348.464	748.333	0.100	0.265
-347.450	-178.552	-0.305	-0.007
-346.435	472.086	0.084	-0.186
-345.420	800.000	-0.090	-0.339
-344.406	-200.000	0.010	0.203
-343.391	-200.000	-0.041	0.215
-342.377	-200.000	0.021	0.261
-341.362	132.255	0.134	-0.171
-340.348	-10.055	-0.378	-0.248
-339.333	164.084	-0.126	0.175
-338.318	458.211	-0.132	-0.290
-337.304	-200.000	-0.034	0.165
-336.289	-107.502	0.220	0.048
-335.275	-21.033	0.163	0.099
-334.260	-27.693	-0.148	0.085
-333.245	-200.000	-0.000	0.299
-332.231	-200.000	-0.019	-0.166
-331.216	800.000	0.020	0.062
-330.202	65.861	-0.151	0.151
-329.187	-1.938	0.072	-0.050
-328.172	-200.000	-0.031	-0.373
-327.158	505.038	-0.094	-0.214
-326.143	-200.000	-0.006	0.094
-325.129	178.666	0.202	0.292
-324.114	-200.000	-0.022	0.397
-323.099	-50.595	0.196	0.091
-322.085	-51.158	-0.046	-0.021
-321.070	479.161	-0.080	-0.179
-320.056	512.693	-0.030	0.070
-319.041	-191.365	0.073	-0.001
-318.026	85.422	0.095	0.103
-317.012	-91.558	-0.317	0.089
-315.997	-200.000	0.012	-0.457
-314.983	-200.000	0.014	-0.203
-313.968	105.354	-0.089	-0.103
-312.953	-200.000	-0.026	-0.138
-311.939	-63.994	0.107	0.043
-310.924	-44.395	0.284	0.140
-309.910	30.892	-0.088	0.074
-308.895	-165.934	-0.256	0.011
-307.880	5.595	0.030	-0.022
-306.866	800.000	0.008	0.029
-305.851	-65.278	0.176	-0.070
-304.837	-200.000	-0.057	0.313
-303.822	-119.466	0.327	0.056
-302.807	292.932	-0.064	0.115
-301.793	-200.000	0.007	0.045
-300.778	647.842	-0.026	-0.065
-299.764	-119.523	-0.252	-0.043
-298.749	-195.234	0.141	0.001
-297.735	-197.073	0.214	0.001
-296.720	38.384	-0.214	0.188
-295.705	-172.800	-0.328	0.010
-294.691	86.012	-0.111	0.121
-293.676	84.296	-0.074	-0.080
-292.662	55.734	-0.255	0.244
-291.647	-121.516	0.611	0.100
-290.632	304.399	0.113	-0.207
-289.618	-60.096	-0.170	-0.072
-288.603	7.169	-0.122	0.090
-287.589	800.000	-0.023	-0.095
-286.574	-200.000	-0.001	0.120
-285.559	321.425	0.118	0.220
-284.545	89.436	0.095	-0.104
-283.530	-63.146	0.294	0.119
-282.516	-112.399	-0.143	0.028
-281.501	105.507	0.077	0.090
-280.486	-200.000	0.068	-0.302
-279.472	-95.299	0.228	0.061
-278.457	11.487	-0.152	-0.115
-277.443	742.675	0.041	-0.108
-276.428	327.910	0.011	0.022
-275.413	547.013	0.137	0.322
-274.399	-200.000	-0.005	-0.072
-273.384	-22.328	0.174	-0.104
-272.370	67.245	-0.089	-0.090
-271.355	-115.519	0.345	-0.064
-270.340	-200.000	0.009	-0.053
-269.326	800.000	0.070	-0.249
-268.311	-44.667	-0.252	0.124
-267.297	-10.692	-0.417	0.272
-266.282	-200.000	-0.019	0.305
-265.267	-81.345	-0.274	-0.089
-264.253	-131.733	0.159	-0.021
-263.238	-200.000	-0.030	0.355
-262.224	314.958	0.169	0.314
-261.209	-46.164	-0.163	-0.079
-260.195	-137.418	0.283	0.032
-259.180	-200.000	-0.030	-0.151
-258.165	-67.373	-0.109	0.042
-257.151	702.070	-0.054	0.140
-256.136	-79.359	0.249	-0.083
-255.122	359.460	-0.103	0.203
-254.107	43.080	0.066	0.059
-253.092	-128.446	-0.324	0.045
-252.078	-137.333	-0.016	-0.002
-251.063	156.665	-0.105	0.143
-250.049	-191.478	-0.463	-0.005
-249.034	108.706	0.119	-0.140
-248.019	2.415	0.139	-0.099
-247.005	21.500	0.299	0.240
-245.990	290.290	0.128	0.228
-244.976	-51.246	0.165	-0.076
-243.961	-122.626	0.231	-0.037
-242.946	-34.362	-0.157	0.085
-241.932	33.099	-0.075	-0.064
-240.917	298.820	-0.121	0.220
-239.903	37.048	-0.286	-0.249
-238.888	800.000	0.041	0.173
-237.873	800.000	0.102	0.324
-236.859	-3.292	0.051	0.035
-235.844	-22.581	-0.104	-0.062
-234.830	-181.485	-0.431	-0.008
-233.815	-200.000	0.003	-0.060
-232.800	-126.082	-0.349	0.051
-231.786	17.945	0.066	0.052
-230.771	-200.000	0.000	-0.088
-229.757	88.887	-0.169	0.185
-228.742	2.538	-0.057	-0.041
-227.727	231.171	0.137	-0.221
-226.713	457.093	0.095	-0.208
-225.698	-170.635	-0.008	-0.000
-224.684	-73.095	-0.347	0.125
-223.669	445.612	0.101	-0.218
-222.655	-62.467	-0.003	-0.001
-221.640	-146.396	0.318	0.027
-220.625	273.431	0.183	-0.319
-219.611	-51.525	0.328	-0.151
-218.596	-200.000	-0.032	-0.233
-217.582	-177.971	0.139	-0.003
-216.567	-32.688	-0.186	0.102
-215.552	24.249	-0.103	0.084
-214.538	-200.000	-0.007	-0.093
-213.523	95.820	0.094	0.106
-212.509	-49.420	-0.250	-0.117
-211.494	153.284	0.163	-0.220
-210.479	63.621	0.141	0.139
-209.465	-102.977	-0.192	0.045
-208.450	58.741	0.219	0.211
-207.436	-59.591	0.384	0.162
-206.421	100.541	0.093	-0.106
-205.406	-82.318	-0.183	-0.059
-204.392	-117.909	0.284	-0.050
-203.377	-90.765	-0.108	0.031
-202.363	-11.982	-0.257	-0.165
-201.348	55.231	0.016	-0.015
-200.333	-136.547	-0.099	0.011
-199.319	-200.000	0.039	-0.195
-198.304	-200.000	-0.018	-0.211
-197.290	800.000	-0.026	-0.106
-196.275	-32.910	0.499	0.272
-195.260	-200.000	0.002	-0.101
-194.246	-200.000	-0.017	0.183
-193.231	276.717	0.143	-0.250
-192.217	-121.911	-0.044	-0.007
-191.202	221.915	-0.220	0.348
-190.187	-74.278	0.216	-0.077
-189.173	-43.190	0.457	-0.227
-188.158	-200.000	0.016	0.077
-187.144	-26.025	0.061	0.035
-186.129	-52.181	-0.224	-0.102
-185.114	61.329	0.289	-0.282
-184.100	800.000	-0.013	-0.043
-183.085	-200.000	-0.042	-0.314
-182.071	-59.694	0.298	-0.125
-181.056	-130.778	0.319	0.042
-180.042	-103.673	-0.150	0.035
-179.027	-200.000	-0.051	0.263
-178.012	-3.171	-0.277	0.190
-176.998	64.084	0.077	-0.076
-175.983	-146.211	0.256	0.022
-174.969	212.781	0.056	0.087
-173.954	352.249	-0.055	0.107
-172.939	222.757	-0.035	-0.055
-171.925	-57.016	0.118	0.051
-170.910	374.391	-0.105	-0.210
-169.896	445.984	0.083	0.180
-168.881	800.000	-0.062	0.252
-167.866	7.620	0.338	0.248
-166.852	-103.128	-0.137	0.032
-165.837	-53.383	-0.125	-0.056
-164.823	-62.991	0.471	0.191
-163.808	-200.000	0.002	0.013
-162.793	-61.068	-0.137	-0.057
-161.779	174.490	-0.059	0.084
-160.764	-200.000	-0.008	0.073
-159.750	12.328	-0.156	-0.118
-158.735	-24.199	0.105	0.062
-157.720	-200.000	-0.036	-0.321
-156.706	11.218	-0.146	-0.110
-155.691	-162.214	-0.257	0.013
-154.677	-56.177	0.470	-0.205
-153.662	-79.037	0.024	0.008
-152.647	-39.080	0.351	-0.181
-151.633	6.898	0.126	0.092
-150.618	257.002	-0.166	0.280
-149.604	472.423	-0.144	-0.317
-148.589	800.000	0.082	-0.228
-147.574	-38.235	-0.040	0.021
-146.560	2.989	0.162	-0.116
-145.545	-116.242	-0.135	0.025
-144.531	-36.155	0.234	0.124
-143.516	-35.455	0.299	0.159
-142.502	-67.833	-0.318	-0.122
-141.487	-167.528	0.228	0.009
-140.472	800.000	0.008	0.033
-139.458	54.657	-0.294	-0.278
-138.443	-134.268	0.205	0.025
-137.429	217.778	-0.133	0.207
-136.414	-200.000	0.003	0.059
-135.399	-79.538	-0.223	-0.074
-134.385	89.723	-0.167	-0.183
-133.370	322.559	-0.057	-0.107
-132.356	70.355	0.147	0.149
-131.341	100.503	-0.022	0.025
-130.326	51.867	-0.250	-0.233
-129.312	287.032	-0.196	0.348
-128.297	-200.000	0.023	0.126
-127.283	-28.366	0.093	-0.053
-126.268	-119.085	-0.160	-0.027
-125.253	298.308	0.058	-0.104
-124.239	-100.192	-0.332	0.081
-123.224	-97.504	0.050	0.013
-122.210	167.801	-0.202	-0.282
-121.195	328.389	0.070	-0.132
-120.180	-64.580	0.103	0.041
-119.166	-200.000	-0.025	-0.243
-118.151	184.443	0.227	-0.329
-117.137	-185.490	0.210	0.003
-116.122	-121.777	-0.072	-0.012
-115.107	-89.146	0.198	0.057
-114.093	-108.957	0.206	-0.043
-113.078	-30.943	0.221	-0.122
-112.064	-182.888	-0.195	0.003
-111.049	71.444	-0.134	-0.137
-110.034	229.249	0.057	0.091
-109.020	-106.160	0.242	0.053
-108.005	-122.665	-0.190	0.030
-106.991	-131.779	0.118	0.015
-105.976	-78.092	0.154	-0.052
-104.962	-42.165	0.380	-0.190
-103.947	-56.230	-0.220	-0.096
-102.932	-160.975	-0.070	0.004
-101.918	208.009	-0.072	0.110
-100.903	277.074	-0.064	0.112
-99.889	-200.000	0.006	-0.037
-98.874	-200.000	-0.011	-0.054
-97.859	-66.965	-0.183	0.071
-96.845	-151.562	0.156	0.011
-95.830	8.389	0.075	0.055
-94.816	-200.000	-0.012	0.073
-93.801	-200.000	0.024	-0.161
-92.786	17.920	-0.374	-0.292
-91.772	0.252	-0.125	-0.087
-90.757	352.160	-0.086	0.166
-89.743	97.295	0.249	0.279
-88.728	-95.064	-0.100	-0.027
-87.713	-22.027	0.144	0.085
-86.699	53.370	0.224	-0.210
-85.684	-57.949	-0.255	-0.109
-84.670	122.162	0.114	-0.139
-83.655	-10.558	0.166	0.108
-82.640	150.477	-0.191	-0.254
-81.626	244.065	0.188	0.309
-80.611	34.482	0.117	0.100
-79.597	-200.000	0.031	-0.385
-78.582	-200.000	0.036	-0.175
-77.567	-163.514	0.256	-0.012
-76.553	34.016	0.076	-0.064
-75.538	-62.098	0.303	-0.124
-74.524	-164.381	0.225	-0.010
-73.509	-143.818	0.284	0.026
-72.494	-200.000	0.004	0.207
-71.480	-3.008	-0.128	-0.087
-70.465	-200.000	-0.002	-0.406
-69.451	-67.269	-0.202	-0.078
-68.436	-161.342	-0.135	0.007
-67.422	-12.326	0.095	-0.060
-66.407	-200.000	-0.033	-0.211
-65.392	-14.249	-0.196	0.123
-64.378	97.158	0.162	0.182
-63.363	6.603	0.068	0.049
-62.349	-100.766	0.297	0.072
-61.334	13.815	-1.389	-1.056
-60.319	-50.681	0.777	0.358
-59.305	800.000	-0.286	-1.202
-58.290	165.885	0.747	1.033
-57.276	607.100	0.578	1.409
-56.261	-200.000	115.627	654.242
-55.246	527.096	1524.835	3512.319
-54.232	177.072	2701.141	3841.804
-53.217	100.256	2285.106	2590.646
-52.203	36.002	1894.413	1629.321
-51.188	30.127	1687.437	1406.825
-50.173	27.711	1645.606	1353.985
-49.159	48.391	1702.652	1557.639
-48.144	47.194	1715.988	1560.749
-47.130	29.763	1673.629	1392.350
-46.115	27.074	1659.507	1360.439
-45.100	26.877	1654.647	1354.929
-44.086	26.951	1651.873	1353.159
-43.071	26.818	1649.717	1350.346
-42.057	26.788	1647.773	1348.480
-41.042	26.879	1645.477	1347.222
-40.027	26.894	1643.456	1345.625
-39.013	26.864	1641.161	1343.467
-37.998	26.857	1639.927	1342.357
-36.984	26.837	1639.195	1341.556
-35.969	26.997	1636.893	1340.795
-34.954	27.035	1635.110	1339.562
-33.940	27.031	1633.827	1338.429
-32.925	26.979	1632.060	1336.544
-31.911	27.026	1630.055	1335.200
-30.896	26.987	1628.323	1333.439
-29.881	26.952	1627.100	1332.131
-28.867	27.002	1625.722	1331.314
-27.852	26.929	1623.961	1329.282
-26.838	26.975	1622.290	1328.201
-25.823	26.973	1621.088	1327.149
-24.809	27.072	1619.624	1326.621
-23.794	27.034	1618.505	1325.377
-22.779	27.144	1616.571	1324.540
-21.765	26.990	1615.105	1322.165
-20.750	26.992	1613.694	1320.969
-19.736	26.984	1612.358	1319.769
-18.721	27.111	1610.842	1319.399
-17.706	26.948	1610.062	1317.524
-16.692	27.051	1608.019	1316.548
-15.677	27.052	1606.923	1315.600
-14.663	27.171	1604.790	1314.663
-13.648	27.075	1604.275	1313.496
-12.633	27.020	1602.574	1311.657
-11.619	27.076	1600.613	1310.400
-10.604	27.079	1599.006	1309.055
-9.590	26.993	1598.620	1308.070
-8.575	27.027	1596.780	1306.752
-7.560	27.002	1595.621	1305.574
-6.546	27.035	1594.189	1304.588
-5.531	26.946	1593.645	1303.453
-4.517	27.065	1592.114	1302.999
-3.502	27.048	1591.317	1302.177
-2.487	27.110	1589.497	1301.076
-1.473	26.663	1577.640	1288.148
-0.458	23.558	1558.213	1250.389
0.556	20.806	1559.637	1217.994
1.571	18.424	1582.593	1218.890
2.586	17.904	1595.239	1224.786
3.600	15.655	1540.607	1167.139
4.615	9.215	1434.798	1045.113
5.629	4.078	1376.259	970.270
6.644	3.264	1368.934	959.948
7.659	3.086	1368.294	958.303
8.673	3.124	1367.543	957.934
9.688	3.256	1365.340	957.124
10.702	3.242	1361.608	954.337
11.717	5.687	1366.729	973.041
12.731	12.768	1379.991	1026.660
13.746	19.056	1389.703	1073.131
14.761	20.518	1391.557	1083.592
15.775	19.933	1389.403	1078.176
16.790	18.970	1386.790	1070.063
17.804	18.117	1384.802	1063.131
18.819	17.694	1383.810	1059.647
19.834	17.652	1382.591	1058.361
20.848	17.417	1381.940	1056.313
21.863	17.275	1379.742	1053.656
22.877	17.198	1379.067	1052.573
23.892	17.093	1378.281	1051.228
24.907	16.990	1377.430	1049.850
25.921	17.078	1376.303	1049.441
26.936	17.073	1375.688	1048.850
27.950	17.180	1374.630	1048.608
28.965	17.230	1373.413	1047.893
29.980	17.289	1372.895	1047.773
30.994	17.417	1371.614	1047.490
32.009	17.414	1370.556	1046.568
33.023	17.396	1368.928	1045.123
34.038	17.299	1367.692	1043.495
35.053	17.282	1366.606	1042.469
36.067	17.327	1365.535	1041.833
37.082	17.303	1364.811	1041.043
38.096	17.316	1363.382	1039.941
39.111	17.480	1362.749	1040.369
40.126	17.196	1361.867	1037.867
41.140	17.158	1360.347	1036.387
42.155	16.976	1359.795	1034.763
43.169	16.930	1359.862	1034.440
44.184	16.917	1359.477	1033.975
45.199	16.961	1358.899	1033.714
46.213	16.983	1358.747	1033.644
47.228	17.236	1357.609	1034.226
48.242	17.255	1356.620	1033.496
49.257	17.159	1355.469	1031.944
50.271	17.122	1353.798	1030.356
51.286	17.217	1352.846	1030.119
52.301	17.143	1351.351	1028.440
53.315	17.112	1350.106	1027.212
54.330	17.013	1349.289	1025.902
55.344	16.950	1348.589	1024.895
56.359	16.958	1347.200	1023.798
57.374	16.982	1346.650	1023.438
58.388	16.814	1345.866	1021.734
59.403	16.854	1345.477	1021.591
60.417	16.934	1344.465	1021.215
61.432	16.798	1343.546	1019.606
62.447	16.722	1342.479	1018.249
63.461	16.636	1341.130	1016.624
64.476	16.686	1340.220	1016.144
65.490	16.677	1338.793	1014.918
66.505	16.868	1336.916	1014.549
67.520	16.760	1335.829	1012.988
68.534	16.852	1335.015	1012.832
69.549	16.720	1334.198	1011.333
70.563	16.740	1333.072	1010.510
71.578	16.575	1332.060	1008.670
72.593	16.577	1330.706	1007.567
73.607	16.594	1330.301	1007.268
74.622	16.729	1328.822	1006.866
75.636	16.721	1328.861	1006.758
76.651	16.651	1328.582	1006.041
77.666	16.641	1327.479	1005.058
78.680	16.707	1327.165	1005.119
79.695	16.714	1326.569	1004.625
80.709	16.821	1325.792	1004.580
81.724	16.976	1324.825	1004.676
82.739	17.044	1324.677	1004.880
83.753	17.126	1323.619	1004.470
84.768	17.254	1322.464	1004.263
85.782	17.354	1321.760	1004.226
86.797	17.408	1320.303	1003.351
87.812	17.309	1318.737	1001.488
88.826	17.115	1317.880	999.611
89.841	17.211	1317.044	999.449
90.855	17.362	1315.801	999.306
91.870	17.428	1314.814	998.857
92.884	17.397	1314.102	998.043
93.899	17.459	1313.649	997.974
94.914	17.392	1312.929	996.949
95.928	17.360	1311.879	995.876
96.943	17.286	1311.126	994.783
97.957	17.312	1309.568	993.663
98.972	17.358	1308.938	993.366
99.987	17.329	1307.762	992.215
101.001	17.263	1307.217	991.332
102.016	17.311	1306.219	990.769
103.030	17.354	1305.207	990.158
104.045	17.329	1303.976	988.992
105.060	17.191	1303.177	987.502
106.074	17.062	1301.027	985.033
107.089	16.864	1299.476	982.623
108.103	16.817	1298.671	981.659
109.118	16.796	1297.081	980.246
110.133	16.817	1295.816	979.325
111.147	16.691	1294.547	977.554
112.162	16.852	1293.535	977.628
113.176	16.843	1292.602	976.786
114.191	16.867	1291.893	976.301
115.206	17.018	1290.165	975.781
116.220	17.010	1289.004	974.768
117.235	16.848	1288.191	973.140
118.249	16.926	1286.762	972.418
119.264	16.792	1285.924	970.933
120.279	16.767	1284.934	969.957
121.293	16.767	1283.392	968.703
122.308	16.640	1282.065	966.892
123.322	16.635	1280.634	965.700
124.337	16.735	1279.810	965.565
125.352	16.689	1278.931	964.553
126.366	16.651	1277.777	963.382
127.381	16.596	1276.820	962.258
128.395	16.675	1275.660	961.751
129.410	16.788	1274.342	961.312
130.424	16.743	1274.373	960.995
131.439	16.867	1273.352	960.846
132.454	16.768	1272.408	959.488
133.468	16.742	1272.029	958.965
134.483	16.868	1270.494	958.441
135.497	16.932	1269.692	958.112
136.512	16.832	1268.431	956.508
137.527	16.899	1266.948	955.685
138.541	16.918	1265.783	954.830
139.556	17.043	1264.870	954.760
140.570	17.026	1264.043	953.955
141.585	17.093	1262.890	953.376
142.600	17.201	1261.558	952.892
143.614	17.316	1260.331	952.526
144.629	17.373	1259.447	952.094
145.643	17.326	1258.412	950.961
146.658	17.273	1257.064	949.565
147.673	17.175	1255.363	947.650
148.687	17.067	1254.353	946.199
149.702	16.973	1253.038	944.601
150.716	17.009	1251.605	943.634
151.731	17.004	1250.564	942.740
152.746	17.069	1249.681	942.350
153.760	17.098	1248.567	941.590
154.775	17.149	1248.058	941.406
155.789	17.149	1246.902	940.447
156.804	17.241	1245.600	939.892
157.819	17.362	1244.506	939.652
158.833	17.358	1243.743	938.970
159.848	17.487	1242.588	938.730
160.862	17.356	1242.324	937.726
161.877	17.285	1240.398	935.794
162.892	17.129	1239.353	934.068
163.906	16.978	1238.864	932.783
164.921	17.094	1237.414	932.246
165.935	17.140	1237.039	932.134
166.950	17.179	1236.053	931.524
167.964	17.209	1235.420	931.130
168.979	17.082	1234.921	929.975
169.994	17.022	1234.017	928.882
171.008	17.322	1232.839	929.553
172.023	17.317	1231.945	928.773
173.037	17.551	1231.061	929.299
174.052	17.314	1230.660	927.621
175.067	17.286	1229.312	926.368
176.081	17.006	1228.427	924.099
177.096	17.072	1227.377	923.587
178.110	17.119	1226.072	922.777
179.125	17.239	1224.958	922.509
180.140	17.244	1223.762	921.552
181.154	17.452	1222.518	921.662
182.169	17.391	1221.895	920.780
183.183	17.456	1220.454	919.963
184.198	17.440	1219.742	919.261
185.213	17.496	1218.340	918.422
186.227	17.496	1217.417	917.647
187.242	17.629	1216.351	917.477
188.256	17.658	1215.567	916.963
189.271	17.619	1214.774	916.071
190.286	17.461	1213.620	914.271
191.300	17.120	1212.441	911.471
192.315	17.020	1211.948	910.484
193.329	17.042	1210.965	909.785
194.344	17.229	1210.319	910.221
195.359	17.278	1210.264	910.359
196.373	17.425	1209.522	910.507
197.388	17.433	1209.369	910.356
198.402	17.745	1208.462	911.257
199.417	17.813	1208.036	911.220
200.432	17.818	1207.495	910.759
201.446	17.900	1206.857	910.634
202.461	17.976	1205.654	910.049
203.475	18.010	1204.705	909.435
204.490	17.770	1203.483	907.155
205.504	17.787	1201.878	905.957
206.519	17.595	1200.946	904.155
207.534	17.623	1199.726	903.302
208.548	17.639	1198.741	902.568
209.563	17.644	1198.052	901.994
210.577	17.553	1197.442	900.973
211.592	17.743	1196.401	901.115
212.607	17.873	1195.605	901.126
213.621	17.807	1195.184	900.379
214.636	17.813	1193.931	899.385
215.650	17.816	1193.107	898.703
216.665	17.991	1192.597	899.158
217.680	18.076	1191.303	898.552
218.694	18.074	1190.266	897.677
219.709	17.966	1189.704	896.610
220.723	17.838	1189.613	895.787
221.738	18.027	1187.937	895.440
222.753	17.980	1187.217	894.569
223.767	17.967	1186.654	893.999
224.782	18.184	1186.101	894.636
225.796	18.086	1186.011	893.979
226.811	18.262	1184.795	893.902
227.826	18.074	1183.685	892.005
228.840	18.042	1183.002	891.243
229.855	17.960	1182.627	890.453
230.869	17.969	1181.620	889.663
231.884	17.867	1180.851	888.473
232.899	17.823	1179.974	887.512
233.913	17.751	1179.648	886.812
234.928	17.734	1178.530	885.803
235.942	17.719	1177.964	885.223
236.957	17.839	1176.839	884.920
237.972	17.803	1176.399	884.322
238.986	17.762	1175.745	883.544
240.001	17.889	1174.923	883.506
241.015	17.983	1173.662	882.965
242.030	17.984	1173.163	882.514
243.045	18.023	1172.386	882.055
244.059	17.956	1171.916	881.276
245.074	18.053	1171.133	881.109
246.088	18.108	1170.456	880.806
247.103	18.244	1169.448	880.667
248.117	18.289	1168.723	880.276
249.132	18.466	1168.428	880.886
250.147	18.548	1167.942	880.864
251.161	18.698	1166.949	880.804
252.176	18.639	1166.661	880.209
253.190	18.792	1165.769	880.240
254.205	18.669	1165.644	879.440
255.220	18.694	1164.605	878.704
256.234	18.850	1163.919	878.907
257.249	18.864	1162.957	878.173
258.263	18.793	1162.443	877.345
259.278	18.813	1161.650	876.771
260.293	18.869	1161.342	876.751
261.307	18.839	1160.860	876.157
262.322	18.807	1160.329	875.514
263.336	18.943	1159.144	875.233
264.351	18.916	1158.751	874.722
265.366	19.047	1157.892	874.660
266.380	18.948	1157.540	873.817
267.395	18.840	1156.862	872.678
268.409	18.762	1155.931	871.503
269.424	18.746	1155.164	870.765
270.439	18.796	1154.462	870.415
271.453	18.775	1153.585	869.569
272.468	18.707	1152.398	868.253
273.482	18.612	1151.985	867.383
274.497	18.603	1151.665	867.023
275.512	18.720	1150.835	866.914
276.526	18.666	1150.171	866.062
277.541	18.685	1149.171	865.329
278.555	18.918	1148.074	865.598
279.570	18.850	1148.254	865.316
280.585	19.030	1147.223	865.365
281.599	19.069	1146.141	864.670
282.614	18.896	1144.758	862.681
283.628	18.779	1143.799	861.297
284.643	18.867	1142.753	860.871
285.657	18.783	1142.092	859.877
286.672	18.931	1141.387	860.010
287.687	18.918	1140.441	859.159
288.701	18.908	1139.696	858.469
289.716	18.956	1138.716	857.896
290.730	18.874	1138.555	857.290
291.745	19.000	1137.752	857.236
292.760	18.984	1136.996	856.513
293.774	19.044	1136.745	856.546
294.789	19.138	1136.153	856.492
295.803	19.176	1135.025	855.757
296.818	18.996	1134.672	854.518
297.833	18.906	1133.569	853.167
298.847	19.038	1133.084	853.383
299.862	19.024	1131.965	852.390
300.876	18.995	1131.255	851.642
301.891	19.015	1130.968	851.446
302.906	19.161	1130.409	851.673
303.920	19.257	1129.721	851.555
304.935	19.375	1129.167	851.642
305.949	19.426	1128.540	851.347
306.964	19.441	1127.489	850.553
307.979	19.304	1126.808	849.288
308.993	19.302	1125.976	848.577
310.008	19.359	1125.389	848.340
311.022	19.550	1124.427	848.481
312.037	19.391	1123.536	846.951
313.052	19.276	1122.818	845.770
314.066	19.144	1121.915	844.368
315.081	19.103	1120.752	843.215
316.095	19.145	1120.055	842.822
317.110	19.094	1119.787	842.297
318.125	19.069	1118.681	841.269
319.139	19.135	1117.768	840.831
320.154	19.112	1117.129	840.162
321.168	19.165	1116.481	839.860
322.183	19.039	1116.281	839.018
323.197	19.172	1115.673	839.138
324.212	19.241	1114.724	838.687
325.227	19.156	1114.581	838.088
326.241	19.337	1113.704	838.238
327.256	19.287	1112.681	837.147
328.270	19.189	1111.842	835.967
329.285	19.259	1110.872	835.503
330.300	19.231	1110.139	834.744
331.314	19.248	1109.214	834.055
332.329	19.250	1108.252	833.269
333.343	19.283	1107.210	832.571
334.358	19.388	1106.705	832.626
335.373	19.500	1106.427	832.884
336.387	19.480	1105.123	831.731
337.402	19.486	1104.547	831.253
338.416	19.499	1104.010	830.835
339.431	19.642	1103.357	830.959
340.446	19.783	1102.612	831.003
341.460	19.784	1102.303	830.703
342.475	19.872	1101.450	830.406
343.489	19.809	1100.595	829.389
344.504	19.920	1099.733	829.196
345.519	19.946	1098.813	828.552
346.533	20.014	1098.024	828.210
347.548	20.066	1097.242	827.795
348.562	19.907	1096.780	826.614
349.577	19.853	1095.942	825.651
350.592	19.688	1094.726	823.876
351.606	19.731	1093.785	823.301
352.621	19.551	1093.296	822.004
353.635	19.591	1092.242	821.326
354.650	19.693	1091.568	821.234
355.665	19.674	1091.301	820.869
356.679	19.738	1090.718	820.660
357.694	19.787	1090.073	820.337
358.708	19.943	1089.176	820.329
359.723	19.898	1088.826	819.780
360.738	19.922	1088.203	819.349
361.752	19.825	1087.488	818.281
362.767	19.953	1086.851	818.334
363.781	20.060	1086.112	818.210
364.796	20.011	1086.043	817.856
365.810	20.170	1085.616	818.211
366.825	20.278	1084.942	818.142
367.840	20.316	1084.548	817.951
368.854	20.318	1084.016	817.485
369.869	20.365	1083.315	817.105
370.883	20.177	1082.248	815.345
371.898	20.173	1081.438	814.641
372.913	20.160	1080.815	814.039
373.927	20.272	1080.219	814.044
374.942	20.368	1079.900	814.181
375.956	20.305	1079.250	813.324
376.971	20.364	1078.629	813.061
377.986	20.365	1078.298	812.745
379.000	20.541	1077.710	813.054
380.015	20.500	1076.950	812.217
381.029	20.565	1076.603	812.188
382.044	20.557	1075.927	811.570
383.059	20.454	1075.218	810.479
384.073	20.505	1074.278	809.940
385.088	20.578	1073.286	809.456
386.102	20.560	1072.277	808.544
387.117	20.397	1071.546	807.161
388.132	20.367	1070.224	805.957
389.146	20.258	1069.454	804.798
390.161	20.292	1068.878	804.453
391.175	20.231	1067.971	803.417
392.190	20.328	1067.482	803.426
393.205	20.513	1067.060	803.894
394.219	20.588	1065.980	803.353
395.234	20.385	1065.064	801.658
396.248	20.449	1063.777	800.911
397.263	20.283	1062.949	799.451
398.278	20.227	1062.297	798.633
399.292	20.289	1061.324	798.117
400.307	20.217	1060.911	797.404
401.321	20.301	1060.263	797.231
402.336	20.219	1059.665	796.334
403.350	20.353	1058.898	796.304
404.365	20.423	1057.961	795.851
405.380	20.379	1057.391	795.146
406.394	20.457	1056.804	794.991
407.409	20.585	1056.192	795.048
408.423	20.676	1055.201	794.650
409.438	20.752	1054.647	794.508
410.453	20.662	1054.658	794.033
411.467	20.664	1054.011	793.486
412.482	20.841	1052.760	793.279
413.496	20.824	1052.487	792.926
414.511	20.829	1052.014	792.522
415.526	21.018	1051.498	792.924
416.540	21.133	1050.916	792.936
417.555	21.130	1050.236	792.342
418.569	20.979	1049.860	791.299
419.584	20.950	1049.186	790.593
420.599	20.965	1049.014	790.461
421.613	155.305	1404.688	1796.316
422.628	142.367	1456.475	1796.412
