DTS Sentinel unit serial number:	SN413079Multiplexer serial number:	ORYXHardware model number:	OX4-SRSoftware version number:	ORYX F/W v4.00 Oryx Data Collector v3.7.2.0data status	okinstallation	princeton_trtdifferential loss correction	single-endedforward channel	channel 2reverse channel	N/Adate	2019/09/13time	04:39:34forward acquisition time	60.00reverse acquisition time	0.00gamma	496.2192k internal	0.2336k external	0.2336temperature offset calibration	1.0193default loss term (dB/km)	0.3790temperature slope calibration	1.0000multiplexer offset coefficient	1.0000multiplexer slope coefficient	1.0000fibre end	0.00T internal ref (°C)	26.62T ext. ref 1 (°C)	4.06T ext. ref 2 (°C)	21.22length (m)	temperature (°C)	Stokes	anti-Stokes-747.200	-200.000	0.009	0.107
-746.185	92.441	-0.150	-0.170
-745.171	-30.324	-0.259	0.148
-744.156	-82.405	0.462	0.151
-743.142	93.782	-0.109	0.124
-742.127	-200.000	-0.032	0.153
-741.112	484.625	-0.059	-0.135
-740.098	-130.563	-0.442	0.060
-739.083	-104.203	0.146	0.034
-738.069	-7.312	-0.261	-0.178
-737.054	-167.018	0.286	0.012
-736.039	436.634	-0.036	-0.079
-735.025	-128.582	0.169	0.024
-734.010	586.956	0.107	-0.265
-732.996	-200.000	0.004	-0.181
-731.981	-72.745	0.264	-0.098
-730.966	578.323	-0.012	-0.029
-729.952	91.424	-0.161	-0.181
-728.937	478.644	0.065	-0.147
-727.923	-128.817	-0.241	-0.034
-726.908	800.000	0.098	-0.271
-725.894	800.000	-0.196	-0.558
-724.879	-87.593	0.266	0.081
-723.864	-200.000	-0.056	0.249
-722.850	1.963	0.180	-0.130
-721.835	800.000	-0.064	-0.241
-720.821	153.791	-0.167	0.230
-719.806	162.958	0.115	-0.161
-718.791	-38.047	0.144	0.077
-717.777	185.703	-0.084	0.126
-716.762	800.000	-0.028	-0.088
-715.748	221.341	-0.086	-0.139
-714.733	162.291	-0.128	-0.179
-713.718	347.777	0.084	-0.166
-712.704	772.607	0.117	0.319
-711.689	-25.217	-0.115	0.069
-710.675	440.838	0.069	0.151
-709.660	-40.632	0.258	-0.134
-708.645	-99.913	-0.426	0.107
-707.631	-72.357	-0.003	-0.001
-706.616	-56.767	0.191	0.085
-705.602	124.030	0.189	-0.238
-704.587	800.000	0.095	-0.270
-703.572	168.227	0.082	0.117
-702.558	-193.089	-0.034	-0.000
-701.543	-27.255	-0.247	-0.144
-700.529	-38.315	-0.075	0.040
-699.514	-143.799	-0.133	0.013
-698.499	730.073	0.055	0.147
-697.485	800.000	-0.106	0.328
-696.470	97.855	0.133	-0.154
-695.456	764.412	-0.028	0.075
-694.441	-200.000	-0.059	-0.586
-693.426	4.674	-0.151	-0.111
-692.412	9.992	0.182	0.139
-691.397	78.542	-0.165	0.177
-690.383	-200.000	-0.066	0.385
-689.368	72.821	-0.356	0.372
-688.354	415.484	-0.235	0.501
-687.339	-1.109	-0.141	0.100
-686.324	-200.000	-0.002	-0.088
-685.310	-200.000	-0.066	-0.350
-684.295	137.380	0.244	-0.320
-683.281	-108.700	0.118	-0.025
-682.266	-200.000	-0.030	-0.325
-681.251	254.536	0.078	0.135
-680.237	-200.000	0.001	-0.053
-679.222	-18.202	0.202	0.127
-678.208	800.000	-0.130	-0.366
-677.193	-200.000	0.025	-0.126
-676.178	136.985	-0.149	-0.195
-675.164	-117.564	-0.182	-0.033
-674.149	-102.737	0.247	0.059
-673.135	41.459	0.205	0.185
-672.120	550.999	-0.109	0.262
-671.105	800.000	-0.043	-0.167
-670.091	-80.137	0.120	0.040
-669.076	678.180	0.145	0.378
-668.062	-53.197	-0.048	-0.022
-667.047	470.760	-0.074	-0.168
-666.032	348.584	-0.165	-0.325
-665.018	-54.330	-0.390	-0.177
-664.003	-200.000	-0.020	-0.201
-662.989	41.685	-0.108	0.098
-661.974	-60.864	0.435	-0.184
-660.959	148.414	-0.125	-0.169
-659.945	355.409	-0.014	-0.028
-658.930	23.422	0.296	-0.243
-657.916	800.000	-0.021	0.080
-656.901	-128.448	-0.173	-0.025
-655.886	513.866	0.132	0.307
-654.872	-13.713	-0.150	0.097
-653.857	61.987	-0.144	-0.143
-652.843	-117.901	-0.132	0.024
-651.828	800.000	-0.061	-0.186
-650.814	800.000	0.038	0.112
-649.799	224.057	0.151	0.245
-648.784	800.000	0.019	0.057
-647.770	297.194	-0.103	-0.190
-646.755	126.327	0.115	0.146
-645.741	66.464	-0.208	-0.211
-644.726	99.347	0.118	-0.137
-643.711	-18.168	-0.283	-0.177
-642.697	272.717	0.088	-0.156
-641.682	745.060	0.082	0.220
-640.668	69.430	-0.251	0.258
-639.653	442.155	0.057	-0.125
-638.638	105.142	0.027	-0.032
-637.624	-200.000	-0.024	-0.170
-636.609	709.285	-0.002	0.005
-635.595	-200.000	0.140	0.000
-634.580	-200.000	0.021	-0.500
-633.565	112.453	-0.151	0.183
-632.551	-200.000	0.002	0.201
-631.536	51.398	-0.152	0.144
-630.522	157.352	0.241	-0.333
-629.507	543.002	-0.135	-0.322
-628.492	-74.119	0.115	0.042
-627.478	-152.690	-0.323	-0.023
-626.463	243.070	0.190	-0.318
-625.449	-56.454	-0.179	-0.079
-624.434	-73.447	-0.217	-0.079
-623.419	-200.000	-0.073	0.431
-622.405	141.151	-0.182	0.241
-621.390	412.081	0.129	0.274
-620.376	19.135	-0.025	-0.020
-619.361	800.000	-0.002	-0.006
-618.346	-200.000	-0.012	0.214
-617.332	800.000	-0.081	-0.296
-616.317	56.097	-0.074	-0.071
-615.303	-200.000	0.038	-0.247
-614.288	-117.910	-0.340	0.061
-613.273	800.000	-0.082	0.354
-612.259	-200.000	0.000	-0.323
-611.244	800.000	-0.009	0.031
-610.230	96.959	-0.110	-0.126
-609.215	-54.450	-0.165	0.075
-608.201	-200.000	-0.142	-0.001
-607.186	106.174	0.161	0.191
-606.171	154.652	-0.068	0.094
-605.157	-147.459	-0.179	0.015
-604.142	40.513	-0.148	0.133
-603.128	-104.220	0.143	-0.033
-602.113	85.736	0.145	0.159
-601.098	-76.797	-0.099	0.035
-600.084	-107.222	-0.127	-0.028
-599.069	-54.532	0.467	0.211
-598.055	124.637	0.084	0.105
-597.040	-101.637	-0.113	-0.027
-596.025	-91.154	-0.251	0.072
-595.011	-117.577	0.121	0.022
-593.996	-169.736	-0.247	-0.009
-592.982	574.663	0.129	-0.315
-591.967	-200.000	0.011	-0.231
-590.952	429.733	0.039	0.084
-589.938	-122.689	-0.300	0.048
-588.923	-88.991	-0.273	0.081
-587.909	274.482	-0.162	0.287
-586.894	30.429	0.070	0.060
-585.879	-200.000	0.011	0.239
-584.865	-200.000	0.013	0.083
-583.850	-115.537	-0.294	0.055
-582.836	5.072	0.080	0.059
-581.821	-200.000	0.010	-0.337
-580.806	-34.599	0.168	-0.092
-579.792	8.806	0.334	0.251
-578.777	656.317	0.100	0.258
-577.763	-44.851	-0.139	0.069
-576.748	-200.000	0.054	-0.309
-575.733	-102.152	0.083	0.020
-574.719	203.372	0.080	-0.123
-573.704	339.118	0.151	0.293
-572.690	1.024	-0.206	-0.147
-571.675	-71.239	0.393	-0.147
-570.661	262.247	0.078	0.135
-569.646	-200.000	0.024	-0.255
-568.631	205.068	0.137	-0.212
-567.617	792.577	-0.086	0.237
-566.602	-122.998	-0.250	-0.040
-565.588	-116.166	-0.283	0.052
-564.573	45.935	-0.080	0.073
-563.558	31.864	0.194	-0.167
-562.544	-200.000	0.040	-0.256
-561.529	49.051	0.092	-0.086
-560.515	-3.573	-0.160	-0.111
-559.500	800.000	0.049	-0.213
-558.485	-200.000	0.051	-0.312
-557.471	302.551	0.062	-0.115
-556.456	655.828	-0.146	0.373
-555.442	-12.880	0.141	0.092
-554.427	-200.000	0.044	-0.434
-553.412	-200.000	0.021	-0.106
-552.398	-14.041	0.126	0.081
-551.383	72.106	-0.048	-0.050
-550.369	-200.000	0.022	-0.270
-549.354	153.794	0.099	-0.136
-548.339	-13.711	-0.336	-0.217
-547.325	-101.622	-0.189	0.046
-546.310	-94.238	0.222	-0.061
-545.296	496.589	-0.083	0.190
-544.281	49.452	0.221	0.207
-543.266	70.831	-0.211	0.217
-542.252	106.585	-0.073	0.086
-541.237	-200.000	-0.011	-0.099
-540.223	800.000	-0.061	0.183
-539.208	-12.755	0.058	-0.037
-538.193	416.097	0.069	-0.146
-537.179	191.049	-0.094	-0.140
-536.164	363.787	0.044	0.088
-535.150	37.740	-0.166	-0.147
-534.135	-200.000	-0.007	-0.071
-533.121	-200.000	0.001	0.147
-532.106	-200.000	-0.017	-0.162
-531.091	93.947	0.306	-0.346
-530.077	129.382	0.158	0.201
-529.062	-153.317	-0.173	0.012
-528.048	-23.916	0.162	-0.097
-527.033	-200.000	-0.024	-0.155
-526.018	-79.516	0.154	-0.052
-525.004	-81.378	0.153	-0.050
-523.989	790.290	-0.125	-0.343
-522.975	-117.337	0.025	-0.004
-521.960	-112.059	0.157	0.031
-520.945	66.829	-0.210	-0.213
-519.931	139.963	0.076	0.100
-518.916	101.063	-0.210	-0.243
-517.902	-200.000	-0.007	0.184
-516.887	86.411	0.129	-0.142
-515.872	-54.926	0.154	-0.069
-514.858	-52.951	-0.256	0.117
-513.843	113.008	-0.162	0.195
-512.829	-200.000	-0.016	0.449
-511.814	800.000	0.054	-0.206
-510.799	105.560	-0.137	0.161
-509.785	-84.378	-0.099	-0.031
-508.770	204.652	0.028	0.044
-507.756	281.523	0.072	0.129
-506.741	-200.000	-0.037	0.291
-505.726	219.449	0.091	-0.145
-504.712	-109.018	0.243	-0.052
-503.697	471.023	0.098	0.220
-502.683	-107.904	-0.203	-0.044
-501.668	275.349	0.040	-0.071
-500.653	-45.971	0.159	0.078
-499.639	-200.000	0.026	-0.128
-498.624	-35.572	0.102	0.055
-497.610	-134.893	0.172	0.021
-496.595	-87.765	0.245	-0.073
-495.581	-64.524	-0.370	0.149
-494.566	53.663	-0.065	0.062
-493.551	-0.818	0.262	-0.185
-492.537	-200.000	0.004	0.103
-491.522	118.256	-0.223	-0.273
-490.508	-55.589	0.458	0.204
-489.493	-101.132	-0.082	0.020
-488.478	-1.150	0.125	-0.088
-487.464	-3.029	-0.026	-0.018
-486.449	-107.494	-0.211	0.046
-485.435	-11.238	0.090	-0.059
-484.420	-72.578	0.410	0.150
-483.405	-102.151	-0.080	-0.019
-482.391	-129.245	0.118	-0.016
-481.376	541.878	-0.123	-0.290
-480.362	76.323	0.084	-0.088
-479.347	800.000	-0.123	-0.349
-478.332	-15.581	0.078	0.050
-477.318	-176.112	-0.244	-0.006
-476.303	-172.934	0.279	-0.009
-475.289	-138.042	-0.163	0.018
-474.274	-200.000	-0.081	-0.382
-473.259	89.004	-0.100	-0.111
-472.245	-36.243	0.119	0.064
-471.230	43.143	-0.270	0.245
-470.216	-200.000	-0.013	-0.122
-469.201	-77.972	0.143	-0.049
-468.186	295.348	0.039	0.072
-467.172	-129.328	-0.161	0.022
-466.157	48.467	-0.066	-0.061
-465.143	800.000	-0.073	0.230
-464.128	20.873	0.217	-0.175
-463.113	227.561	-0.161	0.260
-462.099	151.668	-0.167	-0.226
-461.084	103.384	0.182	-0.212
-460.070	6.510	-0.033	-0.024
-459.055	56.719	-0.122	-0.118
-458.040	-200.000	-0.005	-0.053
-457.026	632.830	-0.014	-0.034
-456.011	-158.022	-0.180	0.011
-454.997	-200.000	0.025	0.213
-453.982	55.439	0.058	0.055
-452.968	-7.848	-0.042	0.028
-451.953	-90.592	-0.261	-0.075
-450.938	800.000	-0.025	0.089
-449.924	-127.340	-0.127	0.018
-448.909	-31.957	-0.127	0.070
-447.895	-200.000	0.369	0.001
-446.880	-96.846	0.408	-0.106
-445.865	-125.307	-0.281	0.043
-444.851	-117.832	0.311	0.055
-443.836	-129.431	0.140	-0.019
-442.822	-103.100	0.269	0.063
-441.807	17.840	-0.181	-0.143
-440.792	-105.242	0.014	0.003
-439.778	800.000	-0.051	-0.205
-438.763	657.573	0.061	0.155
-437.749	223.765	0.147	-0.235
-436.734	170.390	0.163	0.231
-435.719	-200.000	0.033	0.370
-434.705	-200.000	0.043	0.347
-433.690	108.996	0.174	0.206
-432.676	-200.000	0.059	-0.312
-431.661	438.251	0.147	0.318
-430.646	800.000	-0.017	-0.069
-429.632	-104.167	0.415	-0.096
-428.617	463.330	0.077	-0.170
-427.603	-41.622	-0.322	0.164
-426.588	-200.000	0.008	-0.192
-425.573	-151.236	0.252	0.019
-424.559	182.375	-0.194	-0.284
-423.544	88.125	0.018	0.019
-422.530	20.796	-0.103	-0.083
-421.515	-200.000	0.018	-0.146
-420.500	150.216	-0.176	0.236
-419.486	-200.000	-0.038	-0.244
-418.471	-200.000	0.015	0.290
-417.457	-33.231	0.237	-0.130
-416.442	354.965	0.048	-0.094
-415.428	-115.478	0.176	0.033
-414.413	-12.443	-0.046	0.030
-413.398	-200.000	-0.032	0.321
-412.384	-77.044	-0.191	0.066
-411.369	28.485	-0.334	0.280
-410.355	222.521	-0.167	-0.267
-409.340	272.738	-0.005	-0.008
-408.325	-93.381	-0.146	0.040
-407.311	-189.619	-0.337	-0.004
-406.296	37.852	-0.345	0.304
-405.282	230.050	0.100	0.162
-404.267	1.947	-0.126	0.090
-403.252	91.413	0.170	-0.189
-402.238	279.471	-0.225	0.397
-401.223	-75.388	-0.080	-0.028
-400.209	-106.544	-0.187	0.041
-399.194	388.234	-0.030	-0.062
-398.179	697.788	0.117	0.304
-397.165	-74.432	0.150	0.054
-396.150	150.230	-0.190	0.256
-395.136	-125.883	0.130	0.019
-394.121	-26.627	0.027	-0.016
-393.106	8.799	0.212	0.158
-392.092	288.220	-0.077	-0.137
-391.077	30.780	-0.122	0.103
-390.063	-200.000	0.005	0.220
-389.048	417.941	0.049	0.104
-388.033	-162.529	0.167	-0.008
-387.019	298.099	-0.160	-0.291
-386.004	-165.893	0.171	0.007
-384.990	-65.555	-0.113	0.045
-383.975	-119.946	-0.164	-0.028
-382.960	-200.000	0.007	0.204
-381.946	-200.000	0.007	0.297
-380.931	-200.000	-0.020	0.107
-379.917	-75.319	-0.153	0.054
-378.902	-22.782	0.179	0.107
-377.888	-152.700	0.259	-0.018
-376.873	-79.258	-0.047	0.016
-375.858	-200.000	0.021	-0.096
-374.844	-31.155	0.113	-0.063
-373.829	-43.738	-0.244	-0.122
-372.815	669.152	-0.082	0.209
-371.800	74.098	0.090	-0.093
-370.785	-84.216	-0.221	-0.069
-369.771	6.887	-0.157	-0.115
-368.756	-126.642	-0.356	-0.052
-367.742	-26.244	0.110	0.064
-366.727	-120.759	0.290	0.048
-365.712	548.257	-0.047	0.112
-364.698	-48.583	-0.232	0.110
-363.683	143.300	0.182	0.239
-362.669	-83.469	-0.327	0.104
-361.654	-104.719	0.283	0.065
-360.639	67.893	-0.166	0.168
-359.625	-166.596	-0.310	0.013
-358.610	750.853	0.013	0.035
-357.596	-155.053	-0.222	0.014
-356.581	175.849	0.238	0.341
-355.566	-200.000	0.071	0.408
-354.552	297.344	-0.089	-0.162
-353.537	-200.000	-0.024	0.129
-352.523	414.482	0.075	-0.158
-351.508	-200.000	-0.004	-0.268
-350.493	-200.000	-0.025	0.177
-349.479	-109.404	0.286	0.060
-348.464	-141.826	-0.196	0.019
-347.450	-200.000	0.038	-0.185
-346.435	37.463	-0.159	0.139
-345.420	-0.599	0.085	0.059
-344.406	275.021	0.121	0.212
-343.391	248.330	0.073	0.122
-342.377	18.702	0.217	0.171
-341.362	800.000	0.030	0.120
-340.348	68.549	0.181	0.184
-339.333	-13.628	0.147	0.094
-338.318	6.700	-0.136	-0.100
-337.304	124.009	-0.083	-0.103
-336.289	706.946	-0.121	0.315
-335.275	136.474	-0.151	-0.195
-334.260	265.617	-0.104	-0.179
-333.245	232.516	0.116	-0.189
-332.231	165.839	0.136	0.190
-331.216	10.839	0.159	0.120
-330.202	129.410	-0.151	-0.191
-329.187	-126.271	0.123	-0.018
-328.172	712.239	-0.077	0.201
-327.158	-37.736	0.206	0.109
-326.143	570.795	0.028	0.067
-325.129	800.000	0.048	-0.158
-324.114	-26.126	-0.202	-0.117
-323.099	800.000	-0.057	0.161
-322.085	495.293	-0.133	0.303
-321.070	135.300	0.109	-0.140
-320.056	-99.008	-0.168	-0.042
-319.041	-200.000	-0.063	0.414
-318.026	55.107	0.170	0.162
-317.012	-95.061	-0.248	0.066
-315.997	408.926	0.094	-0.198
-314.983	-145.055	0.257	0.023
-313.968	-200.000	-0.006	-0.198
-312.953	301.863	0.094	0.171
-311.939	17.455	-0.157	0.124
-310.924	-55.134	-0.297	0.132
-309.910	144.950	-0.142	-0.188
-308.895	800.000	-0.162	-0.497
-307.880	800.000	0.086	-0.294
-306.866	44.177	0.102	0.092
-305.851	178.370	0.089	-0.128
-304.837	-200.000	0.029	0.490
-303.822	-200.000	0.016	-0.153
-302.807	800.000	0.088	-0.261
-301.793	-121.272	0.150	0.025
-300.778	43.080	0.096	-0.087
-299.764	-129.152	-0.181	0.025
-298.749	800.000	-0.028	-0.105
-297.735	-85.205	-0.105	-0.032
-296.720	-68.309	0.274	-0.105
-295.705	289.366	-0.214	-0.383
-294.691	-115.134	-0.170	-0.032
-293.676	-118.383	-0.234	0.041
-292.662	40.113	-0.462	-0.410
-291.647	361.514	0.063	0.124
-290.632	-15.434	-0.335	0.211
-289.618	267.472	0.156	0.269
-288.603	800.000	0.073	-0.248
-287.589	800.000	0.078	-0.319
-286.574	249.365	0.074	-0.123
-285.559	-9.125	-0.122	-0.081
-284.545	76.550	0.238	-0.249
-283.530	185.389	0.306	0.448
-282.516	-45.939	-0.240	-0.117
-281.501	174.543	-0.118	-0.168
-280.486	333.857	-0.108	0.206
-279.472	-1.447	-0.024	-0.017
-278.457	13.267	-0.154	0.117
-277.443	202.310	-0.125	-0.190
-276.428	514.888	0.144	-0.332
-275.413	403.128	0.129	-0.268
-274.399	66.654	0.170	-0.171
-273.384	148.255	0.107	0.143
-272.370	242.488	-0.109	0.180
-271.355	-200.000	0.029	-0.165
-270.340	38.880	-0.197	0.173
-269.326	114.242	0.182	0.219
-268.311	-200.000	0.018	-0.087
-267.297	-200.000	-0.002	-0.242
-266.282	-139.314	-0.099	-0.011
-265.267	-124.498	-0.237	-0.036
-264.253	-200.000	-0.017	-0.149
-263.238	800.000	0.056	-0.238
-262.224	489.052	0.105	0.236
-261.209	-80.387	-0.243	-0.080
-260.195	-92.571	-0.168	0.046
-259.180	124.085	0.167	0.207
-258.165	6.678	-0.156	0.114
-257.151	26.959	0.202	-0.167
-256.136	403.406	-0.029	0.059
-255.122	-125.561	-0.232	0.035
-254.107	108.205	0.308	0.362
-253.092	160.486	-0.069	-0.095
-252.078	100.498	0.077	-0.088
-251.063	-3.275	0.267	-0.183
-250.049	142.006	0.131	-0.172
-249.034	-47.064	0.027	0.013
-248.019	-200.000	-0.001	-0.125
-247.005	-95.658	-0.304	0.080
-245.990	0.640	-0.044	0.031
-244.976	-200.000	0.062	0.468
-243.961	520.392	0.063	-0.145
-242.946	123.539	-0.123	0.152
-241.932	-200.000	0.048	-0.240
-240.917	171.457	0.082	0.117
-239.903	95.176	0.063	0.070
-238.888	-118.252	0.273	0.048
-237.873	800.000	0.110	0.346
-236.859	-146.317	0.203	-0.017
-235.844	-200.000	-0.002	0.424
-234.830	9.501	0.359	-0.268
-233.815	671.548	-0.048	-0.122
-232.800	800.000	0.104	-0.291
-231.786	-121.745	0.146	-0.024
-230.771	142.531	0.186	0.243
-229.757	-200.000	0.041	0.263
-228.742	800.000	0.063	0.184
-227.727	-118.010	0.062	-0.011
-226.713	419.893	0.110	0.232
-225.698	-125.614	-0.216	0.032
-224.684	-83.427	-0.365	0.115
-223.669	35.298	0.286	0.247
-222.655	-118.614	-0.308	0.054
-221.640	-200.000	-0.002	-0.074
-220.625	57.839	-0.151	0.145
-219.611	83.205	-0.231	0.247
-218.596	216.250	-0.196	-0.307
-217.582	-33.159	0.119	-0.065
-216.567	-11.979	-0.035	-0.023
-215.552	-200.000	0.051	-0.257
-214.538	-75.963	-0.239	-0.083
-213.523	-200.000	-0.059	0.384
-212.509	800.000	0.143	-0.388
-211.494	800.000	-0.022	-0.080
-210.479	800.000	0.016	-0.047
-209.465	-73.591	0.120	0.043
-208.450	800.000	0.053	-0.148
-207.436	-145.135	-0.134	0.012
-206.421	-200.000	0.018	0.184
-205.406	145.709	0.286	-0.377
-204.392	178.092	0.211	0.303
-203.377	-200.000	-0.018	-0.178
-202.363	-156.199	0.410	-0.025
-201.348	800.000	0.026	-0.087
-200.333	-115.945	-0.241	-0.044
-199.319	559.864	0.112	0.266
-198.304	-184.607	-0.346	0.005
-197.290	-200.000	0.050	0.231
-196.275	-25.491	0.150	-0.087
-195.260	344.424	-0.116	0.223
-194.246	-115.351	0.050	0.009
-193.231	402.835	0.115	0.237
-192.217	-116.836	-0.052	-0.009
-191.202	800.000	0.064	0.210
-190.187	-151.295	-0.202	-0.015
-189.173	-200.000	0.037	-0.191
-188.158	-8.602	-0.179	0.118
-187.144	-200.000	0.032	-0.340
-186.129	53.599	0.104	-0.098
-185.114	206.102	0.135	0.206
-184.100	-147.885	0.423	-0.035
-183.085	800.000	0.011	-0.033
-182.071	59.386	0.103	-0.099
-181.056	-51.919	-0.152	0.070
-180.042	29.287	0.104	-0.087
-179.027	-137.001	-0.063	0.007
-178.012	94.977	0.110	-0.123
-176.998	315.747	-0.155	-0.288
-175.983	800.000	0.096	-0.371
-174.969	800.000	0.041	-0.174
-173.954	-28.060	0.374	-0.212
-172.939	97.993	0.302	-0.342
-171.925	-93.428	-0.296	0.081
-170.910	2.064	0.154	-0.109
-169.896	-200.000	-0.011	0.062
-168.881	800.000	0.031	-0.122
-167.866	-53.628	0.067	0.030
-166.852	800.000	0.039	0.164
-165.837	-80.082	-0.237	-0.078
-164.823	-35.037	0.392	-0.210
-163.808	800.000	0.038	-0.102
-162.793	315.678	0.192	-0.356
-161.779	800.000	-0.044	0.122
-160.764	-146.092	0.197	-0.017
-159.750	-81.136	0.006	-0.002
-158.735	161.339	-0.018	-0.025
-157.720	87.333	-0.125	0.136
-156.706	-200.000	-0.020	0.131
-155.691	800.000	-0.028	0.096
-154.677	66.424	-0.082	0.082
-153.662	-162.146	0.310	-0.015
-152.647	124.604	-0.288	-0.355
-151.633	-73.710	0.105	0.038
-150.618	173.995	0.199	0.282
-149.604	143.717	0.272	0.356
-148.589	-67.750	-0.177	0.068
-147.574	285.132	-0.151	-0.267
-146.560	-86.678	-0.212	-0.064
-145.545	-62.566	0.278	0.113
-144.531	506.559	-0.077	0.175
-143.516	-56.696	-0.254	-0.110
-142.502	-200.000	0.010	0.067
-141.487	197.809	0.174	-0.260
-140.472	19.684	0.132	-0.104
-139.458	-200.000	0.039	-0.208
-138.443	263.007	0.153	0.261
-137.429	800.000	-0.061	0.187
-136.414	-149.393	0.255	-0.020
-135.399	-93.622	-0.084	-0.023
-134.385	-122.750	0.210	0.033
-133.370	-200.000	-0.007	-0.050
-132.356	-162.942	0.224	0.011
-131.341	800.000	-0.144	0.578
-130.326	-17.400	-0.032	0.020
-129.312	127.493	0.211	-0.262
-128.297	-200.000	-0.037	0.162
-127.283	421.510	0.147	0.309
-126.268	102.958	-0.149	0.171
-125.253	-156.931	0.188	-0.011
-124.239	69.083	-0.267	0.269
-123.224	-173.857	0.240	-0.007
-122.210	-200.000	0.037	-0.166
-121.195	413.774	-0.136	0.284
-120.180	-72.100	0.104	-0.038
-119.166	-25.970	-0.172	0.099
-118.151	-54.739	-0.188	-0.083
-117.137	-124.081	0.280	0.043
-116.122	2.739	-0.228	0.162
-115.107	-200.000	0.049	-0.286
-114.093	33.910	-0.124	-0.106
-113.078	-92.998	0.230	0.063
-112.064	-59.506	0.312	0.131
-111.049	800.000	0.077	0.231
-110.034	-12.207	-0.098	-0.063
-109.020	-23.760	-0.090	-0.053
-108.005	-109.549	-0.210	-0.043
-106.991	-76.676	-0.207	-0.071
-105.976	593.180	0.087	-0.212
-104.962	-52.743	0.128	-0.058
-103.947	-200.000	0.013	0.266
-102.932	-39.135	0.119	0.061
-101.918	16.491	0.105	0.081
-100.903	88.272	-0.048	-0.052
-99.889	518.004	0.087	0.199
-98.874	-200.000	0.026	0.303
-97.859	800.000	-0.072	0.220
-96.845	517.874	0.061	0.140
-95.830	-200.000	0.106	-0.549
-94.816	-155.560	-0.085	0.005
-93.801	800.000	0.094	0.340
-92.786	373.698	-0.105	0.208
-91.772	800.000	0.050	0.141
-90.757	561.626	0.130	0.308
-89.743	-200.000	0.016	0.281
-88.728	199.763	-0.167	0.250
-87.713	-92.963	-0.187	0.051
-86.699	113.468	0.283	0.336
-85.684	-21.028	-0.108	-0.065
-84.670	87.467	-0.077	0.083
-83.655	397.473	-0.107	-0.219
-82.640	291.020	-0.126	-0.225
-81.626	288.335	0.088	-0.157
-80.611	-18.801	0.137	0.083
-79.597	-28.961	0.282	0.158
-78.582	73.281	-0.139	0.143
-77.567	290.974	-0.174	0.310
-76.553	-58.281	0.102	0.043
-75.538	-95.342	0.446	-0.117
-74.524	91.524	0.040	0.044
-73.509	-137.187	0.198	0.022
-72.494	575.485	-0.050	-0.120
-71.480	800.000	-0.085	-0.278
-70.465	-200.000	0.023	-0.155
-69.451	800.000	-0.067	0.223
-68.436	616.074	0.045	-0.111
-67.422	-62.699	0.133	0.054
-66.407	800.000	0.020	0.074
-65.392	800.000	0.087	-0.305
-64.378	113.911	0.172	0.204
-63.363	643.778	0.111	0.277
-62.349	-65.648	-0.271	-0.106
-61.334	58.917	-1.247	-1.199
-60.319	254.673	0.431	0.722
-59.305	800.000	-0.364	-1.168
-58.290	295.242	0.691	1.236
-57.276	357.726	0.785	1.532
-56.261	-200.000	116.626	652.818
-55.246	514.602	1540.643	3514.971
-54.232	174.504	2718.760	3843.553
-53.217	100.010	2290.524	2595.233
-52.203	35.813	1896.875	1630.292
-51.188	29.742	1689.488	1405.994
-50.173	27.244	1648.002	1352.857
-49.159	47.977	1704.473	1556.629
-48.144	46.642	1718.170	1558.988
-47.130	29.317	1675.852	1391.220
-46.115	26.679	1661.616	1359.583
-45.100	26.508	1656.594	1354.139
-44.086	26.510	1653.508	1351.578
-43.071	26.506	1651.551	1349.891
-42.057	26.467	1649.199	1347.623
-41.042	26.479	1647.389	1346.186
-40.027	26.497	1644.869	1344.205
-39.013	26.466	1642.738	1342.179
-37.998	26.526	1641.137	1341.261
-36.984	26.465	1640.053	1339.875
-35.969	26.580	1638.434	1339.345
-34.954	26.617	1637.060	1338.444
-33.940	26.584	1635.512	1336.883
-32.925	26.641	1633.377	1335.506
-31.911	26.677	1632.012	1334.598
-30.896	26.640	1630.149	1332.748
-29.881	26.670	1628.820	1331.832
-28.867	26.596	1627.262	1329.964
-27.852	26.668	1625.518	1329.013
-26.838	26.627	1624.274	1327.645
-25.823	26.608	1622.828	1326.265
-24.809	26.649	1621.532	1325.459
-23.794	26.633	1620.269	1324.254
-22.779	26.725	1618.299	1323.262
-21.765	26.629	1617.151	1321.573
-20.750	26.620	1615.354	1319.988
-19.736	26.568	1614.442	1318.805
-18.721	26.584	1612.942	1317.651
-17.706	26.586	1611.272	1316.242
-16.692	26.615	1609.846	1315.239
-15.677	26.666	1608.167	1314.187
-14.663	26.690	1607.074	1313.416
-13.648	26.697	1605.301	1311.967
-12.633	26.640	1603.892	1310.349
-11.619	26.607	1602.791	1309.157
-10.604	26.743	1600.800	1308.462
-9.590	26.668	1599.460	1306.776
-8.575	26.743	1597.940	1306.016
-7.560	26.672	1596.903	1304.612
-6.546	26.697	1595.389	1303.497
-5.531	26.698	1595.062	1303.192
-4.517	26.652	1593.688	1301.687
-3.502	26.567	1592.863	1300.351
-2.487	26.766	1590.617	1299.889
-1.473	26.382	1578.985	1287.598
-0.458	23.547	1558.896	1251.203
0.556	21.909	1561.228	1219.814
1.571	19.408	1584.508	1220.224
2.586	18.922	1597.656	1226.771
3.600	17.330	1543.569	1174.154
4.615	10.893	1437.769	1052.050
5.629	5.087	1378.001	972.133
6.644	3.967	1371.248	960.339
7.659	4.049	1370.437	960.197
8.673	4.055	1368.989	959.131
9.688	4.159	1367.359	958.546
10.702	4.106	1364.174	955.904
11.717	6.799	1369.163	975.973
12.731	14.435	1382.912	1033.188
13.746	20.998	1393.959	1082.219
14.761	22.877	1396.461	1095.738
15.775	22.364	1394.018	1090.543
16.790	21.409	1392.275	1083.174
17.804	20.703	1390.064	1076.989
18.819	20.400	1388.434	1073.758
19.834	20.330	1387.723	1072.682
20.848	20.297	1386.789	1071.658
21.863	20.285	1385.724	1070.670
22.877	20.155	1384.482	1068.812
23.892	20.022	1383.798	1067.371
24.907	20.038	1382.236	1066.172
25.921	19.961	1381.682	1065.174
26.936	19.935	1381.050	1064.432
27.950	20.011	1379.626	1063.704
28.965	20.169	1378.578	1063.776
29.980	20.265	1377.936	1063.774
30.994	20.499	1377.228	1064.564
32.009	20.550	1376.108	1063.918
33.023	20.493	1374.587	1062.303
34.038	20.331	1373.506	1060.380
35.053	20.232	1371.972	1058.501
36.067	20.107	1371.450	1057.239
37.082	20.282	1370.064	1057.147
38.096	20.293	1369.189	1056.443
39.111	20.164	1368.866	1055.315
40.126	20.091	1367.979	1054.093
41.140	19.856	1366.441	1051.388
42.155	19.685	1365.672	1049.667
43.169	19.614	1365.558	1049.052
44.184	19.676	1365.379	1049.200
45.199	19.754	1365.158	1049.412
46.213	19.995	1364.933	1050.607
47.228	20.140	1364.040	1050.706
48.242	20.095	1363.320	1049.781
49.257	20.060	1361.703	1048.237
50.271	20.013	1360.647	1047.043
51.286	20.127	1359.058	1046.418
52.301	20.021	1358.040	1044.902
53.315	19.954	1356.461	1043.192
54.330	19.893	1355.359	1041.884
55.344	19.751	1354.089	1039.962
56.359	19.766	1352.786	1038.958
57.374	19.649	1352.346	1037.824
58.388	19.647	1351.490	1037.063
59.403	19.511	1351.012	1035.788
60.417	19.561	1349.811	1035.077
61.432	19.523	1349.194	1034.286
62.447	19.346	1348.686	1032.745
63.461	19.159	1347.466	1030.597
64.476	19.346	1345.773	1030.329
65.490	19.350	1344.514	1029.299
66.505	19.363	1342.990	1028.118
67.520	19.243	1342.388	1026.854
68.534	19.365	1341.363	1026.705
69.549	19.295	1340.174	1025.289
70.563	19.294	1338.685	1024.049
71.578	19.082	1337.750	1021.987
72.593	19.178	1336.265	1021.330
73.607	19.053	1336.079	1020.359
74.622	19.096	1335.283	1019.916
75.636	19.126	1334.968	1019.759
76.651	19.335	1333.679	1019.925
77.666	19.267	1333.415	1019.228
78.680	19.350	1333.345	1019.578
79.695	19.382	1332.351	1018.913
80.709	19.620	1331.767	1019.781
81.724	19.692	1331.428	1019.856
82.739	19.790	1330.333	1019.505
83.753	20.038	1329.476	1020.219
84.768	20.267	1328.798	1020.955
85.782	20.396	1327.888	1020.930
86.797	20.310	1327.095	1019.722
87.812	20.189	1325.568	1017.747
88.826	20.253	1323.996	1016.826
89.841	20.245	1323.451	1016.268
90.855	20.265	1322.895	1015.871
91.870	20.265	1322.190	1015.242
92.884	20.390	1321.235	1015.145
93.899	20.395	1320.453	1014.487
94.914	20.396	1319.880	1013.961
95.928	20.336	1319.119	1012.935
96.943	20.392	1317.649	1012.042
97.957	20.165	1317.325	1010.384
98.972	20.321	1315.560	1009.849
99.987	20.278	1315.046	1009.116
101.001	20.316	1313.817	1008.304
102.016	20.278	1313.196	1007.516
103.030	20.352	1312.300	1007.172
104.045	20.266	1311.234	1005.765
105.060	19.984	1310.300	1003.327
106.074	19.645	1307.968	999.488
107.089	19.474	1306.277	997.122
108.103	19.455	1304.857	995.841
109.118	19.322	1303.945	994.291
110.133	19.357	1302.937	993.631
111.147	19.373	1301.998	992.924
112.162	19.513	1299.475	991.716
113.176	19.559	1299.080	991.588
114.191	19.539	1298.654	991.061
115.206	19.592	1297.133	990.117
116.220	19.522	1295.748	988.569
117.235	19.559	1295.404	988.434
118.249	19.538	1293.939	987.107
119.264	19.364	1292.976	985.293
120.279	19.351	1291.193	983.770
121.293	19.239	1290.050	982.173
122.308	19.034	1289.589	980.569
123.322	19.150	1287.691	979.700
124.337	19.011	1287.339	978.556
125.352	19.127	1285.680	977.864
126.366	19.112	1284.860	977.071
127.381	19.075	1284.089	976.185
128.395	18.957	1282.880	974.513
129.410	19.111	1282.205	974.784
130.424	19.307	1281.260	975.089
131.439	19.475	1280.210	975.157
132.454	19.396	1279.974	974.441
133.468	19.472	1278.946	974.000
134.483	19.403	1278.652	973.301
135.497	19.514	1277.514	972.977
136.512	19.583	1276.275	972.337
137.527	19.565	1274.738	970.979
138.541	19.582	1273.970	970.401
139.556	19.714	1272.344	969.817
140.570	19.826	1271.543	969.752
141.585	19.965	1270.600	969.724
142.600	20.128	1269.837	969.964
143.614	20.129	1268.848	969.129
144.629	20.214	1267.894	968.789
145.643	20.225	1266.906	968.012
146.658	19.990	1265.522	965.559
147.673	19.813	1263.827	963.196
148.687	19.721	1262.659	961.706
149.702	19.636	1261.230	960.062
150.716	19.526	1260.405	958.739
151.731	19.519	1258.719	957.332
152.746	19.524	1257.929	956.675
153.760	19.735	1256.518	956.686
154.775	19.784	1256.083	956.540
155.789	19.945	1254.885	956.434
156.804	19.935	1253.660	955.361
157.819	19.932	1253.029	954.779
158.833	20.194	1251.906	955.281
159.848	20.185	1251.977	955.200
160.862	20.175	1250.563	953.982
161.877	19.899	1249.169	951.319
162.892	19.680	1247.260	948.580
163.906	19.541	1246.856	947.424
164.921	19.573	1245.968	946.840
165.935	19.654	1245.028	946.486
166.950	19.719	1244.254	946.169
167.964	19.784	1243.614	945.955
168.979	19.781	1242.421	944.947
169.994	19.674	1242.127	944.053
171.008	19.753	1241.044	943.578
172.023	19.903	1240.861	944.173
173.037	20.048	1240.273	944.433
174.052	20.104	1239.268	943.891
175.067	19.747	1237.889	940.815
176.081	19.461	1236.963	938.471
177.096	19.597	1235.714	938.181
178.110	19.675	1234.915	937.913
179.125	19.639	1233.609	936.646
180.140	19.825	1232.637	936.833
181.154	19.992	1231.689	936.933
182.169	20.097	1230.600	936.589
183.183	20.177	1229.840	936.356
184.198	20.163	1228.542	935.211
185.213	20.226	1227.404	934.604
186.227	20.210	1226.361	933.641
187.242	20.283	1225.687	933.437
188.256	20.415	1224.433	933.109
189.271	20.377	1223.989	932.483
190.286	20.114	1222.483	929.842
191.300	19.699	1221.007	926.415
192.315	19.593	1220.429	925.323
193.329	19.628	1219.823	924.974
194.344	19.746	1219.260	925.093
195.359	19.779	1218.814	924.850
196.373	19.877	1218.485	925.045
197.388	20.028	1218.388	925.692
198.402	20.224	1218.100	926.439
199.417	20.473	1217.393	927.147
200.432	20.583	1216.762	927.175
201.446	20.642	1216.279	927.040
202.461	20.717	1215.464	926.735
203.475	20.783	1214.311	926.124
204.490	20.446	1212.625	922.967
205.504	20.218	1211.239	920.621
206.519	20.259	1209.829	919.682
207.534	20.132	1208.668	918.046
208.548	20.113	1208.319	917.602
209.563	20.143	1207.334	916.929
210.577	20.228	1206.320	916.527
211.592	20.228	1206.026	916.224
212.607	20.507	1205.152	916.948
213.621	20.458	1204.326	915.982
214.636	20.376	1203.121	914.551
215.650	20.395	1202.074	913.777
216.665	20.503	1201.787	914.045
217.680	20.700	1200.961	914.371
218.694	20.684	1200.392	913.771
219.709	20.653	1199.632	912.952
220.723	20.692	1198.347	912.100
221.738	20.753	1197.312	911.546
222.753	20.565	1197.045	910.280
223.767	20.505	1196.420	909.408
224.782	20.692	1195.730	909.784
225.796	20.916	1195.377	910.604
226.811	20.723	1194.742	909.034
227.826	20.602	1194.158	907.878
228.840	20.529	1192.596	906.226
229.855	20.436	1192.249	905.400
230.869	20.354	1191.598	904.396
231.884	20.351	1190.536	903.496
232.899	20.227	1189.160	901.728
233.913	20.141	1188.698	900.851
234.928	20.153	1187.793	900.145
235.942	20.014	1187.307	898.978
236.957	20.064	1186.238	898.346
237.972	20.092	1185.292	897.697
238.986	20.106	1184.978	897.453
240.001	20.229	1184.371	897.547
241.015	20.203	1183.410	896.606
242.030	20.367	1182.711	896.846
243.045	20.527	1181.714	896.834
244.059	20.416	1181.388	895.935
245.074	20.477	1180.757	895.691
246.088	20.590	1180.033	895.644
247.103	20.762	1179.253	895.858
248.117	20.921	1178.885	896.317
249.132	21.100	1178.021	896.504
250.147	21.298	1178.054	897.466
251.161	21.490	1177.342	897.827
252.176	21.457	1176.917	897.254
253.190	21.600	1176.302	897.441
254.205	21.623	1175.985	897.239
255.220	21.605	1175.226	896.488
256.234	21.653	1174.456	896.065
257.249	21.520	1173.858	894.851
258.263	21.505	1173.021	894.058
259.278	21.442	1172.660	893.383
260.293	21.548	1172.059	893.386
261.307	21.594	1171.523	893.133
262.322	21.582	1170.986	892.583
263.336	21.798	1169.910	892.783
264.351	21.678	1169.181	891.536
265.366	21.752	1168.610	891.399
266.380	21.803	1167.954	891.081
267.395	21.701	1166.749	889.563
268.409	21.379	1166.162	887.404
269.424	21.480	1165.609	887.414
270.439	21.506	1164.797	886.848
271.453	21.439	1163.947	885.786
272.468	21.111	1163.421	883.646
273.482	21.288	1162.066	883.436
274.497	21.190	1161.277	882.259
275.512	21.195	1160.725	881.788
276.526	21.204	1160.150	881.318
277.541	21.270	1159.124	880.795
278.555	21.288	1159.004	880.716
279.570	21.481	1158.349	881.113
280.585	21.633	1158.225	881.705
281.599	21.693	1156.868	880.899
282.614	21.474	1155.794	878.899
283.628	21.324	1154.295	876.932
284.643	21.388	1153.481	876.554
285.657	21.384	1152.506	875.717
286.672	21.370	1151.569	874.857
287.687	21.411	1150.608	874.257
288.701	21.479	1149.976	874.035
289.716	21.453	1149.094	873.159
290.730	21.405	1148.365	872.288
291.745	21.378	1148.408	872.111
292.760	21.453	1147.566	871.765
293.774	21.599	1146.827	871.856
294.789	21.914	1146.390	873.015
295.803	21.747	1145.771	871.634
296.818	21.490	1144.894	869.612
297.833	21.409	1143.743	868.257
298.847	21.468	1143.455	868.258
299.862	21.387	1142.154	866.789
300.876	21.510	1141.737	867.005
301.891	21.623	1141.301	867.158
302.906	21.805	1141.028	867.776
303.920	21.910	1140.329	867.686
304.935	21.891	1140.094	867.336
305.949	21.978	1139.790	867.461
306.964	22.016	1138.636	866.691
307.979	22.027	1137.147	865.535
308.993	21.777	1136.707	863.890
310.008	22.006	1136.076	864.465
311.022	22.048	1135.210	863.937
312.037	21.949	1134.190	862.596
313.052	21.738	1133.254	860.773
314.066	21.643	1131.625	858.992
315.081	21.278	1131.139	856.758
316.095	21.195	1130.927	856.115
317.110	21.401	1129.636	856.068
318.125	21.367	1128.802	855.194
319.139	21.394	1128.026	854.667
320.154	21.431	1127.201	854.142
321.168	21.333	1127.053	853.477
322.183	21.441	1126.230	853.308
323.197	21.489	1126.090	853.360
324.212	21.501	1125.328	852.764
325.227	21.625	1124.475	852.645
326.241	21.680	1124.014	852.491
327.256	21.571	1122.885	851.027
328.270	21.406	1121.934	849.432
329.285	21.479	1121.315	849.243
330.300	21.551	1120.172	848.647
331.314	21.533	1119.335	847.850
332.329	21.504	1118.437	846.956
333.343	21.577	1117.827	846.773
334.358	21.729	1116.999	846.807
335.373	21.819	1116.396	846.706
336.387	21.804	1116.032	846.284
337.402	22.006	1114.926	846.344
338.416	22.130	1114.467	846.519
339.431	22.138	1114.119	846.217
340.446	22.325	1113.269	846.399
341.460	22.468	1113.285	847.020
342.475	22.532	1112.553	846.701
343.489	22.468	1111.508	845.523
344.504	22.604	1110.491	845.323
345.519	22.733	1109.270	844.939
346.533	22.774	1108.800	844.701
347.548	22.793	1108.195	844.256
348.562	22.731	1107.426	843.302
349.577	22.369	1105.863	840.307
350.592	22.203	1104.915	838.721
351.606	21.896	1104.745	837.053
352.621	21.906	1103.751	836.273
353.635	21.925	1102.893	835.642
354.650	21.925	1101.993	834.883
355.665	21.938	1101.543	834.529
356.679	22.174	1100.702	834.943
357.694	22.077	1100.789	834.471
358.708	22.263	1100.074	834.739
359.723	22.364	1099.362	834.606
360.738	22.362	1098.757	834.063
361.752	22.295	1098.009	833.100
362.767	22.251	1097.625	832.531
363.781	22.352	1097.277	832.672
364.796	22.498	1096.568	832.749
365.810	22.618	1096.234	832.987
366.825	22.937	1095.668	833.988
367.840	22.908	1095.720	833.820
368.854	23.000	1094.953	833.594
369.869	22.951	1093.987	832.557
370.883	22.762	1093.063	830.888
371.898	22.703	1092.251	829.921
372.913	22.673	1091.467	829.108
373.927	22.864	1090.631	829.298
374.942	22.905	1090.912	829.631
375.956	22.892	1089.701	828.576
376.971	22.770	1089.714	827.939
377.986	22.809	1089.071	827.564
379.000	23.017	1088.376	827.935
380.015	23.103	1088.239	828.161
381.029	23.139	1087.634	827.794
382.044	23.121	1086.809	827.010
383.059	23.105	1085.492	825.858
384.073	22.999	1084.883	824.827
385.088	23.196	1083.790	824.841
386.102	23.019	1083.052	823.385
387.117	22.956	1081.825	822.084
388.132	22.597	1080.794	819.559
389.146	22.546	1080.169	818.775
390.161	22.621	1079.618	818.635
391.175	22.653	1078.652	817.978
392.190	22.706	1078.407	817.966
393.205	22.938	1077.595	818.354
394.219	22.915	1076.818	817.584
395.234	22.784	1075.764	816.104
396.248	22.696	1074.815	814.904
397.263	22.725	1073.526	813.993
398.278	22.635	1072.845	812.988
399.292	22.509	1071.526	811.336
400.307	22.442	1071.157	810.676
401.321	22.564	1070.286	810.504
402.336	22.311	1069.979	809.040
403.350	22.461	1069.012	808.924
404.365	22.527	1068.244	808.573
405.380	22.621	1068.192	808.895
406.394	22.624	1067.700	808.463
407.409	22.883	1066.863	808.948
408.423	23.050	1066.747	809.550
409.438	23.179	1065.832	809.376
410.453	23.310	1065.188	809.415
411.467	23.210	1064.934	808.692
412.482	23.302	1064.279	808.543
413.496	23.364	1063.325	808.031
414.511	23.371	1063.179	807.877
415.526	23.523	1062.928	808.308
416.540	23.559	1062.420	808.014
417.555	23.608	1061.514	807.476
418.569	23.328	1061.005	805.746
419.584	23.303	1060.460	805.147
420.599	23.384	1059.919	805.031
421.613	157.952	1404.092	1797.844
422.628	145.246	1454.227	1797.914
