DTS Sentinel unit serial number:	SN413079Multiplexer serial number:	ORYXHardware model number:	OX4-SRSoftware version number:	ORYX F/W v4.00 Oryx Data Collector v3.7.2.0data status	okinstallation	princeton_trtdifferential loss correction	single-endedforward channel	channel 2reverse channel	N/Adate	2019/09/15time	01:39:35forward acquisition time	60.00reverse acquisition time	0.00gamma	496.2192k internal	0.2324k external	0.2324temperature offset calibration	1.0035default loss term (dB/km)	0.3790temperature slope calibration	1.0000multiplexer offset coefficient	1.0000multiplexer slope coefficient	1.0000fibre end	0.00T internal ref (°C)	31.81T ext. ref 1 (°C)	4.53T ext. ref 2 (°C)	26.73length (m)	temperature (°C)	Stokes	anti-Stokes-747.200	680.240	-0.076	0.200
-746.185	-200.000	-0.017	0.097
-745.171	-37.192	0.098	-0.053
-744.156	85.674	-0.244	0.271
-743.142	211.574	0.102	-0.163
-742.127	-149.759	-0.341	-0.027
-741.112	564.140	0.157	0.385
-740.098	-200.000	-0.000	-0.008
-739.083	96.103	-0.214	-0.247
-738.069	800.000	0.036	-0.153
-737.054	141.892	0.242	-0.324
-736.039	279.064	-0.095	-0.170
-735.025	701.885	0.079	0.211
-734.010	240.480	-0.203	0.341
-732.996	-59.099	-0.159	0.069
-731.981	-23.991	0.166	-0.100
-730.966	-117.058	0.181	0.033
-729.952	293.425	0.057	0.105
-728.937	-200.000	0.001	0.307
-727.923	8.403	-0.048	-0.036
-726.908	730.232	-0.051	-0.139
-725.894	-95.831	0.192	0.052
-724.879	469.282	-0.054	-0.122
-723.864	800.000	-0.069	-0.226
-722.850	-111.628	-0.262	0.054
-721.835	343.195	-0.106	-0.209
-720.821	59.765	-0.214	0.213
-719.806	199.017	-0.136	-0.210
-718.791	20.256	-0.286	-0.233
-717.777	-177.523	-0.031	-0.001
-716.762	173.805	0.105	0.153
-715.748	175.754	0.063	-0.093
-714.733	542.128	0.044	0.106
-713.718	-200.000	0.159	0.000
-712.704	182.426	-0.138	0.205
-711.689	107.651	0.173	-0.207
-710.675	-22.653	-0.149	0.091
-709.660	-200.000	0.012	-0.224
-708.645	60.521	0.091	-0.091
-707.631	685.119	-0.054	-0.141
-706.616	-168.069	-0.057	0.002
-705.602	94.000	0.182	0.208
-704.587	-200.000	-0.050	-0.359
-703.572	-200.000	-0.001	-0.146
-702.558	-27.397	-0.235	0.138
-701.543	348.373	0.161	-0.319
-700.529	22.367	-0.128	-0.105
-699.514	323.039	-0.136	-0.260
-698.499	-1.721	0.259	0.184
-697.485	-48.107	0.188	-0.092
-696.470	271.887	-0.055	-0.097
-695.456	206.001	-0.098	-0.154
-694.441	-51.644	-0.137	0.064
-693.426	138.588	0.036	0.048
-692.412	-200.000	-0.015	0.086
-691.397	2.710	0.223	0.163
-690.383	-200.000	-0.048	0.279
-689.368	-45.098	-0.319	0.160
-688.354	-175.646	0.153	0.004
-687.339	-103.009	0.191	-0.046
-686.324	559.787	-0.073	-0.176
-685.310	-90.657	0.240	-0.070
-684.295	-21.086	0.057	0.035
-683.281	-8.145	0.137	0.093
-682.266	67.097	0.068	0.069
-681.251	36.532	-0.089	-0.079
-680.237	5.647	-0.229	-0.170
-679.222	-0.035	-0.132	-0.095
-678.208	-90.985	-0.215	0.062
-677.193	-200.000	-0.002	-0.238
-676.178	55.188	-0.325	-0.316
-675.164	-47.055	0.271	-0.133
-674.149	-59.524	0.311	0.134
-673.135	-28.663	0.097	0.056
-672.120	-200.000	0.015	-0.267
-671.105	-200.000	0.006	-0.045
-670.091	-124.648	0.101	-0.016
-669.076	65.248	-0.101	0.103
-668.062	51.551	-0.068	-0.065
-667.047	-200.000	0.007	-0.149
-666.032	800.000	-0.054	-0.237
-665.018	800.000	0.086	-0.293
-664.003	21.865	-0.175	-0.144
-662.989	-114.425	0.330	0.064
-661.974	-21.460	-0.070	0.043
-660.959	250.869	-0.086	-0.147
-659.945	394.276	-0.206	-0.432
-658.930	-124.627	-0.058	-0.009
-657.916	-64.583	-0.208	-0.085
-656.901	102.084	0.133	-0.156
-655.886	-157.217	-0.348	-0.021
-654.872	-53.502	-0.369	-0.170
-653.857	-87.912	0.215	-0.065
-652.843	-17.478	-0.194	-0.123
-651.828	-200.000	-0.016	-0.577
-650.814	-33.865	0.205	-0.114
-649.799	800.000	0.047	-0.131
-648.784	344.156	0.059	-0.116
-647.770	800.000	-0.087	-0.357
-646.755	-37.460	0.157	0.084
-645.741	14.641	0.248	0.195
-644.726	153.257	-0.166	-0.229
-643.711	503.066	0.176	-0.410
-642.697	605.839	-0.077	-0.194
-641.682	800.000	-0.086	0.322
-640.668	-200.000	0.072	-0.417
-639.653	-88.520	0.306	-0.092
-638.638	279.264	-0.137	-0.246
-637.624	69.826	-0.172	-0.178
-636.609	-200.000	0.011	0.118
-635.595	800.000	-0.091	-0.317
-634.580	-124.048	0.125	-0.020
-633.565	-200.000	-0.027	-0.336
-632.551	-144.880	-0.108	0.010
-631.536	-200.000	0.028	-0.174
-630.522	-174.023	-0.227	-0.007
-629.507	-122.590	0.307	0.050
-628.492	43.060	-0.171	0.156
-627.478	-178.815	0.234	0.005
-626.463	-200.000	-0.000	-0.069
-625.449	-69.363	0.046	-0.018
-624.434	-8.590	0.120	0.081
-623.419	-45.871	-0.181	-0.090
-622.405	-84.147	-0.062	0.020
-621.390	97.647	-0.074	-0.085
-620.376	800.000	-0.073	-0.218
-619.361	-68.363	-0.137	0.053
-618.346	-83.218	0.199	0.064
-617.332	-184.505	-0.181	-0.003
-616.317	-15.804	0.278	0.178
-615.303	1.819	0.059	0.042
-614.288	119.609	-0.137	0.171
-613.273	-200.000	-0.019	0.096
-612.259	-98.749	-0.571	-0.146
-611.244	-200.000	0.014	-0.119
-610.230	268.359	-0.086	0.152
-609.215	-76.049	-0.385	0.137
-608.201	-37.084	0.284	-0.153
-607.186	-55.413	0.026	-0.012
-606.171	-200.000	-0.007	-0.206
-605.157	100.724	0.134	-0.157
-604.142	-81.650	-0.136	-0.045
-603.128	174.395	-0.028	0.041
-602.113	800.000	-0.064	-0.221
-601.098	-127.754	-0.207	-0.030
-600.084	139.107	0.203	-0.268
-599.069	43.081	-0.239	0.219
-598.055	-128.762	0.229	0.032
-597.040	-200.000	-0.045	-0.245
-596.025	16.706	0.104	0.083
-595.011	101.688	-0.106	-0.125
-593.996	52.048	0.253	0.242
-592.982	-200.000	-0.004	0.187
-591.967	-200.000	0.036	0.238
-590.952	-129.967	-0.475	0.065
-589.938	-6.932	-0.241	-0.164
-588.923	51.566	0.067	-0.064
-587.909	-114.482	-0.219	-0.042
-586.894	-200.000	0.040	0.194
-585.879	223.560	-0.199	-0.322
-584.865	366.231	0.052	0.104
-583.850	-200.000	0.032	-0.265
-582.836	-0.039	-0.088	0.063
-581.821	746.793	-0.087	-0.236
-580.806	6.532	0.107	-0.079
-579.792	-37.610	-0.094	0.050
-578.777	69.622	-0.072	0.075
-577.763	800.000	0.058	0.206
-576.748	-127.731	0.368	0.053
-575.733	-3.819	0.212	-0.148
-574.719	800.000	-0.092	-0.353
-573.704	48.678	0.220	-0.207
-572.690	272.974	-0.046	-0.081
-571.675	172.283	-0.055	0.079
-570.661	31.058	0.053	-0.046
-569.646	-110.038	-0.232	0.049
-568.631	800.000	-0.055	-0.220
-567.617	-129.571	-0.183	0.025
-566.602	155.215	-0.121	-0.166
-565.588	747.314	-0.030	0.081
-564.573	800.000	-0.042	0.148
-563.558	134.192	-0.338	0.438
-562.544	-200.000	-0.018	0.080
-561.529	71.470	-0.315	0.328
-560.515	-38.814	-0.186	0.098
-559.500	261.931	-0.132	0.229
-558.485	-39.361	0.080	-0.042
-557.471	58.728	-0.139	-0.137
-556.456	-113.927	-0.340	0.066
-555.442	584.618	-0.082	0.203
-554.427	-123.652	0.168	-0.027
-553.412	-200.000	0.016	0.134
-552.398	-124.147	-0.197	0.031
-551.383	-44.359	0.094	-0.047
-550.369	-110.202	0.490	0.102
-549.354	800.000	0.061	0.263
-548.339	238.278	0.063	0.104
-547.325	-200.000	-0.007	-0.134
-546.310	-77.787	-0.191	0.066
-545.296	800.000	0.123	0.378
-544.281	800.000	0.103	-0.316
-543.266	800.000	-0.090	-0.283
-542.252	23.105	0.248	0.204
-541.237	-189.602	-0.011	0.000
-540.223	24.039	-0.153	-0.127
-539.208	-65.130	-0.214	0.086
-538.193	176.692	0.166	0.242
-537.179	116.947	0.094	-0.115
-536.164	177.915	0.092	-0.134
-535.150	-51.679	-0.021	-0.010
-534.135	331.089	-0.088	0.169
-533.121	-200.000	-0.029	-0.180
-532.106	-200.000	0.096	0.439
-531.091	-87.711	0.294	0.089
-530.077	-51.016	0.186	0.088
-529.062	-200.000	0.052	0.429
-528.048	105.345	0.278	-0.328
-527.033	36.617	-0.257	0.227
-526.018	106.561	0.233	0.277
-525.004	800.000	-0.103	0.292
-523.989	119.560	-0.084	0.104
-522.975	-15.096	-0.273	-0.175
-521.960	125.711	-0.190	-0.240
-520.945	467.243	0.055	0.124
-519.931	322.876	0.092	0.176
-518.916	160.891	0.161	-0.225
-517.902	3.462	-0.206	-0.150
-516.887	-87.291	0.182	-0.055
-515.872	-181.572	-0.328	0.006
-514.858	407.187	-0.098	0.207
-513.843	105.621	0.113	-0.133
-512.829	-31.023	0.458	0.259
-511.814	800.000	0.033	-0.097
-510.799	-85.153	0.193	-0.060
-509.785	-102.458	-0.454	0.109
-508.770	-20.132	-0.273	0.168
-507.756	-24.692	0.147	-0.087
-506.741	-34.390	-0.291	-0.159
-505.726	10.218	-0.023	0.017
-504.712	800.000	-0.138	0.409
-503.697	-35.667	0.204	0.111
-502.683	-130.051	-0.303	0.041
-501.668	-156.201	0.115	-0.007
-500.653	-200.000	-0.007	0.154
-499.639	55.354	-0.175	0.170
-498.624	-83.522	0.168	0.054
-497.610	800.000	-0.080	0.338
-496.595	117.021	0.227	0.279
-495.581	800.000	-0.058	-0.192
-494.566	342.797	0.072	-0.142
-493.551	-11.563	-0.143	-0.094
-492.537	234.936	-0.137	-0.226
-491.522	-32.517	0.172	-0.096
-490.508	474.234	0.197	-0.443
-489.493	114.928	0.131	-0.160
-488.478	297.283	-0.159	0.291
-487.464	96.356	-0.157	-0.179
-486.449	-157.236	-0.378	-0.023
-485.435	-24.636	-0.072	0.043
-484.420	-86.126	-0.127	0.039
-483.405	34.386	-0.208	-0.182
-482.391	362.143	0.198	-0.398
-481.376	-14.618	-0.239	0.153
-480.362	78.572	0.208	-0.222
-479.347	-165.367	0.108	0.005
-478.332	-200.000	0.005	-0.107
-477.318	800.000	-0.021	-0.060
-476.303	-200.000	-0.036	0.217
-475.289	23.485	0.146	0.120
-474.274	-11.174	0.349	-0.230
-473.259	-51.288	-0.175	0.082
-472.245	194.062	-0.134	0.203
-471.230	-105.480	-0.120	0.027
-470.216	187.394	-0.014	0.020
-469.201	-103.782	0.317	0.074
-468.186	36.486	0.207	0.183
-467.172	138.046	0.096	-0.125
-466.157	-200.000	0.067	-0.372
-465.143	-124.639	-0.091	0.014
-464.128	144.241	0.093	-0.124
-463.113	-91.743	-0.198	0.056
-462.099	-98.430	-0.287	-0.073
-461.084	25.337	0.159	0.132
-460.070	-200.000	0.025	0.321
-459.055	-188.187	0.186	-0.002
-458.040	529.305	0.094	0.221
-457.026	-6.018	-0.004	0.003
-456.011	4.572	-0.095	-0.070
-454.997	21.864	-0.173	0.141
-453.982	-112.208	-0.179	-0.036
-452.968	183.303	0.073	-0.108
-451.953	0.759	-0.210	-0.150
-450.938	-122.510	0.080	-0.013
-449.924	109.240	-0.023	-0.028
-448.909	311.116	0.203	0.379
-447.895	-200.000	-0.016	0.091
-446.880	-139.496	0.200	-0.021
-445.865	64.663	-0.097	0.097
-444.851	-200.000	0.301	0.000
-443.836	169.713	-0.125	-0.178
-442.822	276.762	0.063	0.111
-441.807	431.472	0.047	0.101
-440.792	215.159	0.121	-0.191
-439.778	-88.698	-0.242	0.072
-438.763	16.083	0.135	0.106
-437.749	-200.000	0.050	-0.310
-436.734	-65.334	0.249	-0.100
-435.719	31.596	-0.313	0.269
-434.705	-88.563	-0.128	-0.038
-433.690	146.336	0.131	-0.176
-432.676	-66.537	-0.274	-0.108
-431.661	-109.424	0.129	-0.027
-430.646	-33.193	0.361	-0.199
-429.632	242.369	-0.157	0.262
-428.617	-104.783	0.066	0.015
-427.603	463.427	0.096	0.213
-426.588	-74.220	0.069	-0.025
-425.573	76.006	-0.180	0.190
-424.559	302.656	0.077	-0.141
-423.544	800.000	-0.015	-0.050
-422.530	-200.000	0.004	0.205
-421.515	-200.000	0.029	-0.130
-420.500	165.023	0.163	-0.230
-419.486	-200.000	0.037	0.222
-418.471	-162.357	0.281	0.014
-417.457	800.000	-0.046	-0.197
-416.442	-200.000	-0.030	-0.378
-415.428	800.000	-0.023	0.084
-414.413	-32.387	-0.062	-0.035
-413.398	-36.722	0.232	-0.124
-412.384	-22.182	-0.064	0.039
-411.369	-7.430	0.172	-0.116
-410.355	403.795	-0.122	-0.257
-409.340	177.350	0.051	-0.074
-408.325	800.000	0.058	-0.217
-407.311	-174.114	0.072	-0.002
-406.296	-148.749	-0.116	-0.009
-405.282	-200.000	-0.008	0.212
-404.267	-200.000	0.006	0.147
-403.252	-200.000	-0.062	0.369
-402.238	191.111	-0.080	0.120
-401.223	-200.000	0.035	-0.226
-400.209	288.562	0.116	0.210
-399.194	-18.724	-0.321	-0.199
-398.179	-116.783	0.403	0.074
-397.165	288.440	-0.206	0.371
-396.150	-156.399	0.176	0.011
-395.136	-38.642	0.309	-0.162
-394.121	341.510	0.069	0.134
-393.106	-200.000	0.030	-0.211
-392.092	186.523	-0.061	-0.090
-391.077	111.176	0.143	0.172
-390.063	-161.856	0.358	-0.018
-389.048	24.202	0.184	0.152
-388.033	-200.000	-0.028	-0.196
-387.019	-200.000	0.023	0.119
-386.004	-105.652	-0.279	-0.063
-384.990	73.874	0.302	0.315
-383.975	-114.459	0.180	-0.034
-382.960	-12.692	0.151	0.098
-381.946	800.000	0.016	0.069
-380.931	-83.899	-0.323	0.102
-379.917	-159.919	-0.300	0.016
-378.902	17.147	-0.280	-0.221
-377.888	-146.576	0.211	-0.018
-376.873	60.506	-0.168	-0.165
-375.858	141.977	0.191	0.253
-374.844	-0.175	0.100	0.071
-373.829	67.398	0.135	-0.137
-372.815	38.164	-0.354	-0.313
-371.800	800.000	-0.114	0.383
-370.785	-151.308	-0.257	0.019
-369.771	-67.575	-0.315	-0.123
-368.756	22.303	0.295	-0.240
-367.742	-200.000	-0.006	0.310
-366.727	3.669	0.163	-0.118
-365.712	-200.000	-0.039	0.218
-364.698	-200.000	-0.001	0.072
-363.683	-98.172	-0.317	-0.081
-362.669	-10.554	-0.289	-0.191
-361.654	800.000	0.056	0.199
-360.639	-200.000	0.004	-0.320
-359.625	46.182	-0.079	-0.073
-358.610	24.237	0.172	0.141
-357.596	-200.000	0.006	-0.160
-356.581	5.446	0.125	-0.092
-355.566	-200.000	-0.000	0.082
-354.552	114.682	0.180	0.218
-353.537	498.026	0.053	-0.121
-352.523	-141.653	-0.270	-0.027
-351.508	-200.000	-0.022	0.406
-350.493	302.417	-0.025	0.046
-349.479	-129.651	-0.080	0.011
-348.464	503.583	0.072	0.165
-347.450	-105.101	-0.199	-0.045
-346.435	-134.111	0.212	-0.026
-345.420	-200.000	0.034	0.276
-344.406	-121.220	0.224	0.037
-343.391	152.029	0.305	-0.413
-342.377	-200.000	0.039	0.517
-341.362	14.009	-0.193	-0.149
-340.348	800.000	0.047	0.141
-339.333	-38.093	0.030	-0.016
-338.318	-200.000	0.013	-0.155
-337.304	-32.050	0.086	-0.048
-336.289	-18.362	-0.263	0.163
-335.275	-1.650	0.006	-0.004
-334.260	-74.666	0.061	-0.022
-333.245	71.445	0.172	0.177
-332.231	186.737	-0.252	-0.372
-331.216	800.000	-0.044	-0.125
-330.202	-200.000	-0.024	-0.208
-329.187	800.000	-0.148	0.449
-328.172	-9.200	0.268	-0.178
-327.158	-120.362	-0.137	0.023
-326.143	-200.000	-0.038	-0.322
-325.129	104.699	-0.203	-0.238
-324.114	-170.754	0.382	-0.013
-323.099	17.578	-0.076	0.060
-322.085	-200.000	-0.089	0.424
-321.070	-58.202	-0.081	0.035
-320.056	-200.000	0.001	-0.266
-319.041	259.350	0.103	0.177
-318.026	251.433	-0.054	0.091
-317.012	-200.000	0.017	-0.109
-315.997	371.552	0.069	0.139
-314.983	19.449	-0.088	-0.070
-313.968	-57.882	0.174	-0.076
-312.953	327.509	-0.040	0.075
-311.939	77.510	0.161	-0.170
-310.924	-200.000	0.046	0.280
-309.910	72.980	-0.268	-0.277
-308.895	-125.601	-0.060	-0.009
-307.880	-158.028	-0.303	-0.018
-306.866	800.000	-0.048	-0.151
-305.851	185.798	-0.142	0.210
-304.837	-58.281	-0.251	0.108
-303.822	-121.112	-0.287	-0.048
-302.807	-177.154	0.198	0.005
-301.793	800.000	0.059	0.220
-300.778	-200.000	-0.000	-0.261
-299.764	9.254	0.300	0.225
-298.749	800.000	0.062	-0.256
-297.735	-22.684	0.242	-0.145
-296.720	-79.770	0.340	0.114
-295.705	800.000	0.022	0.089
-294.691	212.104	-0.061	0.095
-293.676	669.216	0.080	-0.206
-292.662	6.362	0.175	-0.129
-291.647	4.108	-0.350	0.254
-290.632	-78.175	0.305	-0.104
-289.618	187.907	0.151	-0.224
-288.603	118.885	0.213	0.261
-287.589	-41.432	0.269	0.137
-286.574	800.000	0.062	-0.215
-285.559	-200.000	0.019	-0.087
-284.545	-102.525	-0.089	-0.021
-283.530	167.583	0.079	0.111
-282.516	-100.725	0.222	0.054
-281.501	120.918	0.065	0.081
-280.486	-88.639	0.221	-0.065
-279.472	131.954	0.073	0.093
-278.457	712.804	0.054	-0.141
-277.443	-122.938	0.148	-0.024
-276.428	94.764	0.105	-0.118
-275.413	744.315	-0.052	-0.138
-274.399	800.000	0.051	-0.215
-273.384	-66.933	-0.183	-0.072
-272.370	28.558	0.232	0.194
-271.355	-68.466	0.120	0.046
-270.340	143.676	0.106	-0.140
-269.326	-200.000	0.001	0.135
-268.311	30.673	0.249	-0.211
-267.297	800.000	-0.076	0.263
-266.282	-133.480	0.270	0.034
-265.267	-25.057	0.139	-0.082
-264.253	-200.000	-0.019	-0.165
-263.238	-71.879	0.420	-0.155
-262.224	-35.982	0.385	-0.206
-261.209	302.310	-0.077	-0.140
-260.195	36.148	0.124	-0.109
-259.180	-40.930	-0.430	-0.220
-258.165	-200.000	-0.036	-0.167
-257.151	-200.000	-0.011	0.233
-256.136	-96.493	-0.558	-0.146
-255.122	-130.740	0.241	0.032
-254.107	800.000	0.109	-0.302
-253.092	604.016	-0.049	0.120
-252.078	472.804	0.085	-0.191
-251.063	382.192	-0.110	-0.223
-250.049	800.000	-0.095	0.409
-249.034	4.856	-0.076	0.055
-248.019	-21.976	0.177	0.106
-247.005	-154.822	0.215	0.014
-245.990	325.682	-0.063	-0.118
-244.976	-7.727	-0.186	-0.124
-243.961	-54.973	-0.356	-0.159
-242.946	-96.919	0.153	-0.040
-241.932	-147.237	-0.505	0.043
-240.917	-200.000	-0.003	-0.086
-239.903	800.000	0.078	0.297
-238.888	25.965	0.155	0.128
-237.873	-100.662	-0.125	0.031
-236.859	800.000	0.018	-0.055
-235.844	70.408	-0.334	-0.341
-234.830	-17.783	-0.284	-0.176
-233.815	-8.819	0.205	0.136
-232.800	38.274	-0.067	0.059
-231.786	-200.000	-0.061	0.301
-230.771	-36.694	0.260	0.138
-229.757	58.028	0.067	0.065
-228.742	-12.642	0.139	0.090
-227.727	-134.814	-0.260	0.031
-226.713	-41.378	0.289	0.147
-225.698	-200.000	0.024	0.168
-224.684	-165.340	0.130	-0.006
-223.669	-90.216	0.176	-0.051
-222.655	-37.991	0.092	-0.048
-221.640	251.621	0.119	-0.199
-220.625	-200.000	0.025	0.215
-219.611	-127.541	-0.476	0.068
-218.596	800.000	0.041	0.142
-217.582	204.486	-0.141	0.215
-216.567	4.380	0.230	-0.167
-215.552	297.811	-0.099	0.180
-214.538	-167.234	-0.164	-0.007
-213.523	28.696	0.206	0.172
-212.509	192.670	0.225	-0.337
-211.494	231.729	-0.115	0.186
-210.479	-6.074	0.250	-0.169
-209.465	800.000	-0.198	0.584
-208.450	-133.600	-0.140	0.017
-207.436	200.821	-0.123	-0.187
-206.421	-88.624	-0.255	0.075
-205.406	-93.158	-0.140	0.039
-204.392	187.188	0.077	0.114
-203.377	-100.683	-0.117	0.028
-202.363	-200.000	-0.041	0.325
-201.348	601.445	-0.054	-0.131
-200.333	-57.859	0.117	-0.051
-199.319	114.374	-0.172	0.207
-198.304	-100.286	-0.272	0.067
-197.290	-93.742	-0.422	-0.115
-196.275	214.003	0.167	0.262
-195.260	261.521	0.104	0.178
-194.246	772.868	-0.086	0.233
-193.231	-90.482	0.436	0.125
-192.217	61.832	0.165	-0.163
-191.202	-118.267	-0.300	-0.053
-190.187	-88.743	-0.180	-0.053
-189.173	77.577	0.141	0.148
-188.158	-200.000	-0.017	0.288
-187.144	-7.916	0.149	0.100
-186.129	-3.264	0.178	-0.122
-185.114	111.295	-0.128	-0.152
-184.100	-200.000	-0.004	-0.217
-183.085	27.148	-0.153	-0.127
-182.071	-200.000	0.002	0.044
-181.056	-73.859	-0.082	0.030
-180.042	-200.000	-0.016	-0.233
-179.027	22.085	-0.317	0.256
-178.012	-49.518	0.253	0.119
-176.998	-146.990	0.305	-0.026
-175.983	800.000	-0.073	0.211
-174.969	800.000	0.093	-0.309
-173.954	199.157	-0.081	-0.123
-172.939	800.000	-0.050	-0.184
-171.925	-41.310	0.294	-0.150
-170.910	153.259	-0.024	-0.032
-169.896	74.358	-0.130	-0.134
-168.881	524.025	-0.096	-0.224
-167.866	800.000	-0.012	-0.040
-166.852	-200.000	0.000	0.071
-165.837	-200.000	0.000	-0.263
-164.823	177.562	0.119	0.171
-163.808	-21.778	-0.373	0.224
-162.793	440.427	-0.151	0.325
-161.779	-65.638	-0.081	-0.032
-160.764	-60.524	0.240	-0.101
-159.750	104.791	0.302	-0.352
-158.735	2.534	-0.186	0.133
-157.720	9.743	0.125	-0.094
-156.706	105.532	-0.176	0.206
-155.691	800.000	-0.040	-0.135
-154.677	-144.788	0.088	-0.008
-153.662	-126.072	-0.127	-0.019
-152.647	-104.747	-0.313	0.071
-151.633	-19.477	0.136	-0.083
-150.618	800.000	-0.109	0.323
-149.604	800.000	0.113	-0.403
-148.589	10.255	-0.048	-0.036
-147.574	-178.119	0.234	0.005
-146.560	-84.216	0.221	0.069
-145.545	-136.018	0.175	0.020
-144.531	-200.000	0.493	0.002
-143.516	-59.628	-0.312	-0.132
-142.502	531.780	0.084	0.197
-141.487	364.223	0.081	0.161
-140.472	122.195	0.071	0.088
-139.458	-122.513	-0.456	0.073
-138.443	234.372	0.111	-0.180
-137.429	354.334	-0.146	0.285
-136.414	-135.562	-0.237	-0.028
-135.399	96.171	-0.171	-0.193
-134.385	-58.084	-0.088	-0.038
-133.370	1.326	-0.243	0.172
-132.356	-102.199	0.156	0.037
-131.341	-200.000	-0.005	0.202
-130.326	800.000	-0.048	0.172
-129.312	-200.000	-0.162	-0.000
-128.297	-66.410	-0.202	0.079
-127.283	-200.000	-0.021	-0.151
-126.268	271.747	0.131	-0.227
-125.253	-50.805	0.159	-0.074
-124.239	-200.000	0.016	-0.107
-123.224	159.755	0.067	0.092
-122.210	-64.336	-0.098	-0.039
-121.195	-0.799	-0.174	-0.121
-120.180	-38.916	0.071	0.037
-119.166	-200.000	0.023	-0.368
-118.151	-67.041	-0.268	0.104
-117.137	800.000	0.105	-0.364
-116.122	-200.000	0.017	0.090
-115.107	-90.886	-0.481	0.136
-114.093	297.011	-0.150	-0.271
-113.078	257.876	0.109	-0.185
-112.064	250.418	0.147	0.246
-111.049	492.220	0.108	0.244
-110.034	69.843	-0.400	0.406
-109.020	24.785	0.057	-0.047
-108.005	24.379	-0.070	0.057
-106.991	-194.288	0.164	0.001
-105.976	438.795	-0.118	0.254
-104.962	-200.000	-0.021	0.190
-103.947	-45.457	-0.268	0.131
-102.932	-75.419	0.221	0.078
-101.918	277.234	0.010	-0.017
-100.903	-83.128	-0.194	0.061
-99.889	469.100	-0.025	0.055
-98.874	136.800	0.155	-0.200
-97.859	255.208	-0.164	-0.277
-96.845	76.992	0.164	-0.172
-95.830	270.742	0.099	0.171
-94.816	105.472	-0.221	-0.257
-93.801	-99.647	0.254	-0.063
-92.786	10.074	-0.250	-0.187
-91.772	-49.132	-0.101	-0.047
-90.757	147.751	-0.067	0.089
-89.743	-200.000	-0.008	0.121
-88.728	136.727	-0.050	-0.064
-87.713	7.519	-0.075	-0.055
-86.699	260.129	0.078	-0.132
-85.684	-200.000	0.124	0.000
-84.670	-200.000	-0.048	-0.258
-83.655	-24.182	-0.060	-0.035
-82.640	243.007	0.037	-0.061
-81.626	6.468	-0.037	0.027
-80.611	-60.616	-0.093	-0.039
-79.597	-122.827	0.351	-0.056
-78.582	-79.968	0.090	-0.030
-77.567	53.448	-0.171	0.161
-76.553	-18.518	-0.246	0.151
-75.538	-147.677	0.264	-0.022
-74.524	-68.318	-0.255	-0.097
-73.509	121.742	-0.139	-0.171
-72.494	432.782	-0.057	-0.122
-71.480	-76.856	-0.146	-0.050
-70.465	-200.000	-0.018	0.203
-69.451	10.105	-0.049	-0.037
-68.436	-138.185	0.081	0.009
-67.422	-200.000	-0.058	0.442
-66.407	800.000	0.030	0.091
-65.392	-200.000	0.216	0.001
-64.378	472.092	-0.123	0.272
-63.363	-184.095	-0.308	0.005
-62.349	56.015	-0.224	0.213
-61.334	125.636	-0.926	-1.148
-60.319	-4.249	0.408	0.278
-59.305	463.875	-0.328	-0.720
-58.290	487.463	0.396	0.888
-57.276	488.850	0.780	1.750
-56.261	-200.000	95.941	594.467
-55.246	652.476	1373.437	3458.865
-54.232	198.218	2557.720	3842.295
-53.217	113.629	2267.305	2705.470
-52.203	41.295	1896.008	1684.161
-51.188	35.052	1685.826	1450.291
-50.173	32.367	1642.263	1392.912
-49.159	50.308	1688.497	1567.070
-48.144	51.970	1704.990	1594.768
-47.130	34.658	1665.925	1429.994
-46.115	31.927	1651.858	1397.546
-45.100	31.836	1646.620	1392.383
-44.086	31.659	1644.725	1389.419
-43.071	31.809	1641.213	1387.505
-42.057	31.772	1639.275	1385.535
-41.042	31.818	1637.091	1383.977
-40.027	31.632	1636.065	1381.681
-39.013	31.630	1633.841	1379.735
-37.998	31.687	1631.681	1378.276
-36.984	31.752	1630.679	1377.852
-35.969	31.839	1629.077	1377.080
-34.954	31.814	1627.296	1375.340
-33.940	31.856	1625.775	1374.307
-32.925	31.818	1624.555	1372.940
-31.911	31.786	1622.083	1370.565
-30.896	31.802	1620.457	1369.251
-29.881	31.761	1619.131	1367.778
-28.867	31.825	1616.919	1366.324
-27.852	31.852	1615.156	1364.975
-26.838	31.792	1614.153	1363.635
-25.823	31.792	1613.028	1362.636
-24.809	31.957	1611.171	1362.206
-23.794	31.926	1609.958	1360.907
-22.779	31.828	1608.265	1358.711
-21.765	31.732	1607.181	1357.043
-20.750	31.768	1604.855	1355.282
-19.736	31.779	1604.077	1354.653
-18.721	31.937	1602.196	1354.150
-17.706	31.845	1600.855	1352.299
-16.692	31.809	1599.537	1350.873
-15.677	31.924	1597.730	1350.123
-14.663	31.853	1597.331	1349.219
-13.648	31.898	1595.854	1348.243
-12.633	31.919	1593.640	1346.470
-11.619	31.805	1592.300	1344.471
-10.604	31.766	1590.974	1343.016
-9.590	31.764	1589.956	1342.088
-8.575	31.820	1588.483	1341.191
-7.560	31.796	1587.564	1340.193
-6.546	31.921	1585.815	1339.553
-5.531	31.808	1585.001	1338.007
-4.517	31.870	1583.654	1337.259
-3.502	31.822	1582.669	1336.032
-2.487	31.879	1581.053	1335.019
-1.473	31.591	1569.665	1323.319
-0.458	28.857	1550.341	1287.849
0.556	24.651	1550.633	1255.986
1.571	22.320	1573.784	1257.977
2.586	21.833	1585.879	1264.023
3.600	19.338	1533.184	1204.507
4.615	11.753	1425.450	1070.319
5.629	5.440	1364.534	984.836
6.644	4.663	1356.841	974.335
7.659	4.518	1355.453	972.345
8.673	4.425	1354.675	971.119
9.688	4.514	1352.334	969.908
10.702	4.386	1349.712	967.145
11.717	7.275	1355.222	989.058
12.731	14.499	1368.397	1043.967
13.746	19.032	1374.932	1077.308
14.761	18.901	1373.202	1075.037
15.775	17.836	1370.842	1066.443
16.790	16.750	1367.997	1057.361
17.804	15.969	1365.763	1050.667
18.819	15.572	1364.331	1047.002
19.834	15.127	1363.674	1043.630
20.848	15.077	1361.852	1041.836
21.863	14.916	1360.567	1039.755
22.877	14.654	1359.779	1037.435
23.892	14.703	1358.376	1036.580
24.907	14.644	1358.055	1035.872
25.921	14.728	1357.199	1035.654
26.936	14.751	1356.079	1034.845
27.950	14.748	1355.487	1034.286
28.965	14.786	1354.585	1033.742
29.980	15.001	1352.888	1033.682
30.994	15.031	1351.692	1032.865
32.009	15.009	1350.732	1031.900
33.023	14.942	1349.493	1030.453
34.038	15.009	1347.987	1029.623
35.053	14.893	1346.880	1027.971
36.067	14.874	1346.066	1027.141
37.082	14.852	1344.689	1025.865
38.096	14.938	1343.789	1025.618
39.111	14.939	1343.243	1025.114
40.126	14.877	1342.148	1023.807
41.140	14.645	1341.671	1021.934
42.155	14.629	1341.073	1021.289
43.169	14.600	1340.639	1020.693
44.184	14.597	1340.748	1020.668
45.199	14.633	1339.850	1020.111
46.213	14.703	1338.975	1019.786
47.228	14.797	1338.508	1019.911
48.242	14.852	1337.057	1019.053
49.257	14.809	1335.786	1017.733
50.271	14.858	1334.057	1016.623
51.286	14.880	1333.124	1015.956
52.301	14.829	1332.015	1014.710
53.315	14.739	1330.868	1013.199
54.330	14.702	1330.020	1012.237
55.344	14.709	1328.662	1011.160
56.359	14.655	1327.445	1009.818
57.374	14.696	1326.673	1009.386
58.388	14.599	1325.974	1008.181
59.403	14.551	1325.459	1007.410
60.417	14.586	1324.968	1007.160
61.432	14.503	1323.870	1005.734
62.447	14.474	1322.800	1004.658
63.461	14.412	1322.044	1003.623
64.476	14.487	1321.090	1003.260
65.490	14.538	1319.393	1002.187
66.505	14.494	1318.168	1000.907
67.520	14.455	1316.987	999.689
68.534	14.531	1315.640	999.034
69.549	14.628	1314.249	998.470
70.563	14.369	1313.887	996.554
71.578	14.387	1312.815	995.763
72.593	14.429	1311.155	994.667
73.607	14.416	1310.762	994.202
74.622	14.365	1309.743	993.035
75.636	14.434	1308.763	992.615
76.651	14.470	1308.242	992.349
77.666	14.333	1308.016	991.271
78.680	14.459	1307.569	991.596
79.695	14.457	1306.861	990.958
80.709	14.505	1306.225	990.675
81.724	14.643	1304.887	990.388
82.739	14.620	1304.217	989.660
83.753	14.802	1302.845	989.609
84.768	14.863	1302.349	989.504
85.782	14.931	1301.588	989.241
86.797	14.883	1300.127	987.757
87.812	14.795	1299.296	986.523
88.826	14.755	1297.923	985.153
89.841	14.787	1297.023	984.574
90.855	14.948	1295.911	984.591
91.870	14.887	1294.677	983.207
92.884	14.912	1294.240	982.937
93.899	14.845	1293.732	982.072
94.914	15.037	1292.676	982.306
95.928	14.982	1291.591	981.073
96.943	14.933	1290.956	980.217
97.957	14.897	1289.840	979.074
98.972	14.870	1289.012	978.200
99.987	14.925	1287.847	977.549
101.001	14.868	1286.869	976.389
102.016	14.799	1286.401	975.542
103.030	14.815	1285.478	974.851
104.045	14.860	1283.923	973.849
105.060	14.813	1282.818	972.651
106.074	14.804	1281.319	971.375
107.089	14.613	1279.811	969.036
108.103	14.545	1278.974	967.921
109.118	14.590	1277.324	966.852
110.133	14.466	1276.328	965.292
111.147	14.546	1275.140	964.768
112.162	14.608	1273.612	963.889
113.176	14.676	1272.527	963.374
114.191	14.617	1272.166	962.672
115.206	14.693	1270.554	961.804
116.220	14.697	1269.073	960.626
117.235	14.585	1268.021	959.097
118.249	14.602	1267.515	958.729
119.264	14.670	1265.649	957.622
120.279	14.616	1264.937	956.688
121.293	14.544	1264.134	955.587
122.308	14.629	1262.911	955.065
123.322	14.518	1262.059	953.701
124.337	14.473	1261.053	952.600
125.352	14.567	1259.512	951.884
126.366	14.550	1258.391	950.860
127.381	14.632	1257.069	950.240
128.395	14.553	1256.656	949.393
129.410	14.660	1255.621	949.139
130.424	14.615	1254.949	948.288
131.439	14.717	1253.478	947.675
132.454	14.659	1252.826	946.766
133.468	14.646	1252.504	946.368
134.483	14.619	1251.867	945.650
135.497	14.664	1250.768	944.992
136.512	14.701	1248.804	943.630
137.527	14.653	1247.790	942.513
138.541	14.746	1246.540	942.006
139.556	14.741	1245.239	940.913
140.570	14.909	1244.272	941.047
141.585	14.809	1242.999	939.435
142.600	14.938	1241.921	939.261
143.614	14.997	1241.042	938.845
144.629	14.961	1240.178	937.908
145.643	14.939	1238.759	936.627
146.658	14.887	1237.575	935.362
147.673	14.805	1236.071	933.680
148.687	14.751	1235.098	932.565
149.702	14.738	1233.677	931.332
150.716	14.754	1232.093	930.144
151.731	14.758	1231.463	929.609
152.746	14.766	1230.246	928.653
153.760	14.863	1228.849	928.054
154.775	14.856	1228.124	927.389
155.789	14.860	1227.471	926.835
156.804	14.971	1225.637	925.979
157.819	14.955	1225.341	925.586
158.833	15.034	1224.422	925.249
159.848	15.183	1223.010	924.921
160.862	15.077	1222.561	923.915
161.877	14.950	1221.069	922.005
162.892	14.823	1220.222	920.585
163.906	14.761	1219.302	919.467
164.921	14.931	1217.934	919.291
165.935	14.990	1217.209	918.986
166.950	14.997	1216.723	918.577
167.964	14.973	1215.635	917.541
168.979	15.020	1215.193	917.386
169.994	15.044	1214.486	916.902
171.008	15.005	1213.449	915.824
172.023	15.030	1212.964	915.511
173.037	15.173	1211.941	915.444
174.052	15.088	1211.055	914.228
175.067	15.002	1209.983	912.870
176.081	14.931	1208.926	911.601
177.096	14.827	1208.437	910.589
178.110	14.925	1207.255	910.147
179.125	14.980	1206.093	909.494
180.140	15.100	1204.926	909.185
181.154	15.029	1203.580	907.699
182.169	15.079	1202.444	907.036
183.183	15.172	1201.251	906.559
184.198	15.224	1200.078	905.875
185.213	15.179	1199.290	904.957
186.227	15.217	1198.425	904.428
187.242	15.339	1196.891	903.849
188.256	15.310	1196.291	903.158
189.271	15.405	1194.771	902.440
190.286	15.105	1194.253	900.362
191.300	14.934	1193.467	898.767
192.315	14.882	1192.737	897.861
193.329	14.954	1192.158	897.731
194.344	14.953	1191.164	896.895
195.359	15.131	1190.473	897.249
196.373	15.278	1189.960	897.570
197.388	15.293	1189.542	897.256
198.402	15.351	1189.399	897.380
199.417	15.399	1188.815	897.118
200.432	15.513	1187.918	896.969
201.446	15.565	1187.500	896.852
202.461	15.496	1186.532	895.676
203.475	15.637	1184.738	894.993
204.490	15.524	1183.657	893.496
205.504	15.453	1182.546	892.199
206.519	15.480	1180.877	891.003
207.534	15.406	1180.251	890.061
208.548	15.434	1179.243	889.373
209.563	15.389	1178.677	888.626
210.577	15.522	1177.413	888.296
211.592	15.448	1177.184	887.654
212.607	15.477	1176.425	887.159
213.621	15.615	1175.048	886.769
214.636	15.617	1174.582	886.348
215.650	15.500	1173.588	884.908
216.665	15.694	1172.192	884.794
217.680	15.763	1171.594	884.626
218.694	15.807	1170.670	884.084
219.709	15.815	1169.804	883.395
220.723	15.739	1169.091	882.381
221.738	15.692	1168.775	881.815
222.753	15.609	1168.181	880.854
223.767	15.673	1167.341	880.479
224.782	15.879	1166.463	880.816
225.796	15.865	1166.107	880.396
226.811	15.864	1165.178	879.613
227.826	15.820	1164.538	878.819
228.840	15.706	1163.654	877.482
229.855	15.878	1162.524	877.448
230.869	15.837	1162.106	876.841
231.884	15.707	1161.299	875.477
232.899	15.700	1160.516	874.772
233.913	15.774	1160.408	874.997
234.928	15.728	1159.380	873.909
235.942	15.704	1158.308	872.896
236.957	15.720	1157.442	872.249
237.972	15.581	1156.998	871.118
238.986	15.718	1156.361	871.274
240.001	15.762	1155.462	870.747
241.015	15.663	1154.731	869.605
242.030	15.839	1153.907	869.815
243.045	15.833	1153.465	869.375
244.059	15.849	1152.794	868.877
245.074	15.865	1151.901	868.209
246.088	15.893	1151.012	867.605
247.103	15.997	1150.154	867.416
248.117	16.093	1149.209	867.122
249.132	16.145	1148.988	867.147
250.147	16.231	1148.562	867.191
251.161	16.255	1147.531	866.457
252.176	16.297	1147.012	866.206
253.190	16.315	1146.737	866.012
254.205	16.378	1145.805	865.558
255.220	16.480	1144.890	865.311
256.234	16.386	1144.467	864.430
257.249	16.405	1143.858	863.992
258.263	16.444	1143.512	863.852
259.278	16.418	1142.620	862.971
260.293	16.452	1142.121	862.692
261.307	16.527	1141.379	862.437
262.322	16.505	1140.869	861.866
263.336	16.498	1140.308	861.327
264.351	16.514	1139.449	860.684
265.366	16.571	1138.831	860.431
266.380	16.554	1138.138	859.745
267.395	16.634	1137.078	859.275
268.409	16.476	1136.424	857.903
269.424	16.394	1135.817	856.951
270.439	16.508	1135.230	857.013
271.453	16.508	1134.358	856.278
272.468	16.294	1134.003	854.851
273.482	16.372	1132.792	854.254
274.497	16.565	1131.829	854.429
275.512	16.536	1131.121	853.675
276.526	16.456	1130.850	852.988
277.541	16.535	1129.972	852.648
278.555	16.596	1129.381	852.434
279.570	16.731	1128.559	852.418
280.585	16.805	1127.945	852.254
281.599	16.708	1127.048	851.011
282.614	16.744	1125.826	850.194
283.628	16.698	1124.586	848.954
284.643	16.636	1123.834	847.998
285.657	16.709	1122.945	847.617
286.672	16.567	1122.289	846.336
287.687	16.673	1121.337	846.076
288.701	16.759	1120.776	846.008
289.716	16.660	1120.166	844.975
290.730	16.695	1119.118	844.284
291.745	16.669	1118.191	843.385
292.760	16.817	1117.515	843.534
293.774	16.841	1117.301	843.416
294.789	16.911	1116.756	843.281
295.803	16.923	1115.928	842.640
296.818	16.876	1115.324	841.874
297.833	16.890	1114.426	841.194
298.847	16.896	1113.438	840.401
299.862	16.798	1113.281	839.722
300.876	16.917	1112.421	839.588
301.891	16.941	1111.976	839.299
302.906	16.891	1111.675	838.752
303.920	17.111	1110.243	838.684
304.935	17.114	1109.861	838.336
305.949	17.159	1109.076	837.890
306.964	17.128	1108.634	837.329
307.979	17.177	1107.705	836.793
308.993	17.038	1106.978	835.484
310.008	17.079	1106.126	834.973
311.022	17.119	1105.524	834.642
312.037	17.197	1104.263	833.997
313.052	17.077	1103.807	832.991
314.066	17.112	1102.654	832.217
315.081	17.056	1101.550	831.034
316.095	17.001	1101.129	830.375
317.110	17.079	1100.244	830.015
318.125	17.082	1099.307	829.249
319.139	17.053	1099.063	828.851
320.154	17.018	1098.126	827.903
321.168	17.132	1097.878	828.198
322.183	17.126	1097.119	827.523
323.197	17.083	1096.426	826.717
324.212	17.176	1095.997	826.775
325.227	17.037	1095.735	825.823
326.241	17.096	1094.804	825.337
327.256	17.137	1094.030	824.878
328.270	17.098	1093.207	823.999
329.285	17.085	1092.220	823.118
330.300	17.184	1091.469	822.956
331.314	17.062	1090.454	821.530
332.329	17.271	1089.121	821.465
333.343	17.139	1088.813	820.520
334.358	17.265	1087.917	820.381
335.373	17.278	1087.363	819.954
336.387	17.377	1085.777	819.163
337.402	17.416	1085.696	819.217
338.416	17.495	1085.185	819.138
339.431	17.449	1084.530	818.352
340.446	17.368	1084.050	817.527
341.460	17.533	1083.206	817.610
342.475	17.571	1082.062	816.854
343.489	17.595	1081.352	816.362
344.504	17.650	1080.611	815.994
345.519	17.617	1079.959	815.269
346.533	17.776	1078.978	815.221
347.548	17.749	1078.250	814.469
348.562	17.810	1077.315	813.983
349.577	17.590	1077.104	812.702
350.592	17.526	1076.232	811.663
351.606	17.562	1075.202	810.988
352.621	17.548	1074.473	810.299
353.635	17.532	1073.913	809.730
354.650	17.526	1073.167	809.068
355.665	17.602	1072.572	808.908
356.679	17.766	1071.844	809.063
357.694	17.576	1071.541	807.862
358.708	17.575	1070.992	807.374
359.723	17.702	1070.080	807.215
360.738	17.666	1069.592	806.606
361.752	17.627	1069.020	805.917
362.767	17.831	1067.945	806.002
363.781	17.680	1067.935	805.209
364.796	17.825	1067.254	805.308
365.810	17.824	1066.811	804.900
366.825	17.884	1066.277	804.708
367.840	17.964	1065.579	804.487
368.854	18.015	1065.079	804.275
369.869	18.040	1064.638	803.989
370.883	18.040	1063.271	802.885
371.898	18.006	1062.321	801.940
372.913	17.997	1061.897	801.504
373.927	18.043	1061.370	801.254
374.942	18.045	1061.341	801.168
375.956	18.165	1060.122	800.741
376.971	18.065	1059.649	799.843
377.986	18.078	1059.144	799.454
379.000	18.211	1058.666	799.643
380.015	18.221	1058.310	799.351
381.029	18.279	1057.614	799.022
382.044	18.344	1056.504	798.420
383.059	18.410	1055.708	798.054
384.073	18.269	1055.376	797.076
385.088	18.216	1054.441	796.051
386.102	18.313	1053.433	795.671
387.117	18.247	1052.384	794.503
388.132	18.111	1051.610	793.216
389.146	18.167	1051.071	792.998
390.161	18.089	1050.378	792.045
391.175	18.164	1049.464	791.634
392.190	18.274	1048.654	791.461
393.205	18.367	1047.676	791.081
394.219	18.233	1047.489	790.251
395.234	18.235	1046.547	789.478
396.248	18.322	1045.298	788.868
397.263	18.218	1044.256	787.533
398.278	18.166	1044.039	787.062
399.292	18.201	1042.969	786.348
400.307	18.048	1042.443	785.177
401.321	18.200	1041.610	785.179
402.336	18.136	1041.132	784.454
403.350	18.136	1040.252	783.721
404.365	18.269	1039.677	783.829
405.380	18.300	1039.013	783.400
406.394	18.269	1038.064	782.472
407.409	18.367	1037.330	782.299
408.423	18.447	1037.022	782.365
409.438	18.502	1036.062	781.819
410.453	18.438	1035.960	781.385
411.467	18.700	1034.878	781.691
412.482	18.616	1034.315	780.812
413.496	18.781	1033.582	780.941
414.511	18.657	1033.137	779.972
415.526	18.787	1032.166	779.760
416.540	18.906	1032.222	780.274
417.555	18.791	1031.499	779.136
418.569	18.728	1031.160	778.526
419.584	18.772	1030.686	778.300
420.599	18.792	1029.929	777.748
421.613	150.561	1401.172	1794.941
422.628	137.337	1455.250	1795.035
