DTS Sentinel unit serial number:	SN413079Multiplexer serial number:	ORYXHardware model number:	OX4-SRSoftware version number:	ORYX F/W v4.00 Oryx Data Collector v3.7.2.0data status	okinstallation	princeton_trtdifferential loss correction	single-endedforward channel	channel 2reverse channel	N/Adate	2019/09/18time	13:19:35forward acquisition time	60.00reverse acquisition time	0.00gamma	496.2192k internal	0.2319k external	0.2319temperature offset calibration	0.9994default loss term (dB/km)	0.3790temperature slope calibration	1.0000multiplexer offset coefficient	1.0000multiplexer slope coefficient	1.0000fibre end	0.00T internal ref (°C)	34.08T ext. ref 1 (°C)	0.60T ext. ref 2 (°C)	29.60length (m)	temperature (°C)	Stokes	anti-Stokes-747.200	-110.333	-0.089	0.019
-746.185	-43.742	-0.150	0.077
-745.171	-122.128	0.184	0.031
-744.156	229.623	0.033	0.054
-743.142	-28.023	0.385	-0.225
-742.127	465.688	-0.098	0.221
-741.112	73.278	-0.162	0.172
-740.098	603.684	-0.116	0.293
-739.083	-200.000	-0.000	0.208
-738.069	-171.752	0.174	-0.006
-737.054	160.679	-0.081	-0.114
-736.039	-200.000	-0.063	-0.349
-735.025	-200.000	-0.021	-0.231
-734.010	208.705	-0.032	0.051
-732.996	646.796	-0.103	0.266
-731.981	-157.682	0.328	-0.020
-730.966	-63.409	-0.209	-0.087
-729.952	-155.105	-0.202	-0.013
-728.937	800.000	-0.066	-0.231
-727.923	-200.000	-0.040	-0.235
-726.908	-200.000	0.037	0.272
-725.894	800.000	0.084	0.238
-724.879	-200.000	-0.015	0.084
-723.864	-93.037	0.074	0.021
-722.850	-81.798	-0.140	-0.046
-721.835	-82.556	-0.528	-0.173
-720.821	-71.432	0.528	0.200
-719.806	-200.000	-0.026	0.165
-718.791	-200.000	-0.014	0.142
-717.777	406.077	-0.025	-0.054
-716.762	25.638	-0.062	-0.052
-715.748	-63.582	0.272	0.113
-714.733	-74.611	0.090	0.033
-713.718	-200.000	-0.023	0.172
-712.704	568.102	0.144	-0.353
-711.689	-93.995	-0.269	0.075
-710.675	46.916	0.363	0.341
-709.660	18.468	0.103	-0.083
-708.645	-136.129	0.132	-0.016
-707.631	-74.146	-0.306	0.112
-706.616	11.560	-0.055	-0.042
-705.602	-200.000	-0.049	-0.354
-704.587	210.049	0.076	0.120
-703.572	51.259	-0.125	-0.120
-702.558	-132.081	-0.071	0.009
-701.543	-18.771	-0.395	0.248
-700.529	-41.196	0.137	-0.071
-699.514	-200.000	-0.021	-0.170
-698.499	185.821	-0.194	-0.291
-697.485	112.290	-0.249	-0.305
-696.470	-200.000	-0.016	0.089
-695.456	-12.427	0.073	0.048
-694.441	397.042	0.040	-0.084
-693.426	-81.289	-0.268	0.089
-692.412	-8.594	-0.092	-0.062
-691.397	-100.442	0.085	-0.021
-690.383	-200.000	0.003	-0.063
-689.368	-191.799	-0.511	0.005
-688.354	-200.000	0.002	-0.084
-687.339	-165.401	-0.063	-0.003
-686.324	-200.000	-0.008	-0.054
-685.310	-200.000	-0.019	-0.246
-684.295	-40.122	-0.090	0.047
-683.281	-110.382	0.108	0.023
-682.266	334.290	-0.091	0.179
-681.251	-18.869	-0.225	-0.141
-680.237	108.772	-0.181	-0.219
-679.222	-200.000	0.009	0.255
-678.208	-23.037	-0.466	0.283
-677.193	701.205	-0.083	0.221
-676.178	-82.906	-0.180	-0.059
-675.164	-200.000	0.052	0.257
-674.149	197.416	-0.258	0.398
-673.135	-110.600	0.257	-0.054
-672.120	-200.000	0.041	-0.213
-671.105	800.000	-0.045	0.144
-670.091	-200.000	0.014	-0.142
-669.076	800.000	-0.029	0.120
-668.062	160.555	-0.133	-0.187
-667.047	122.103	-0.065	-0.082
-666.032	48.932	0.208	-0.197
-665.018	74.228	-0.215	0.227
-664.003	-130.078	0.159	0.022
-662.989	4.381	-0.333	-0.246
-661.974	637.502	0.123	-0.314
-660.959	-99.654	0.322	0.082
-659.945	67.482	0.123	-0.127
-658.930	23.764	-0.076	0.063
-657.916	181.978	-0.146	-0.216
-656.901	270.374	-0.215	0.382
-655.886	-200.000	-0.002	-0.012
-654.872	-103.173	0.041	0.010
-653.857	-106.094	-0.083	0.019
-652.843	800.000	-0.095	0.404
-651.828	-165.074	0.168	0.008
-650.814	74.267	0.214	0.227
-649.799	-200.000	-0.007	-0.103
-648.784	800.000	-0.080	-0.243
-647.770	-200.000	0.043	-0.315
-646.755	800.000	-0.047	-0.144
-645.741	201.008	-0.081	0.125
-644.726	800.000	-0.041	0.126
-643.711	66.281	0.087	0.089
-642.697	-200.000	0.055	-0.244
-641.682	71.758	0.196	-0.205
-640.668	69.953	-0.129	-0.134
-639.653	-200.000	0.036	0.284
-638.638	52.938	0.130	-0.125
-637.624	-70.940	-0.204	-0.077
-636.609	407.396	0.079	0.167
-635.595	-200.000	0.000	0.279
-634.580	800.000	0.082	0.266
-633.565	-183.936	0.225	0.004
-632.551	-122.791	-0.508	-0.083
-631.536	40.671	-0.372	-0.338
-630.522	317.066	-0.159	0.303
-629.507	-1.707	-0.194	0.138
-628.492	182.774	-0.190	0.282
-627.478	-48.142	0.243	0.118
-626.463	404.692	0.062	-0.132
-625.449	-134.497	-0.248	0.031
-624.434	23.706	0.047	-0.039
-623.419	16.106	-0.200	0.158
-622.405	-200.000	-0.003	-0.088
-621.390	216.229	-0.090	-0.144
-620.376	81.873	0.078	-0.085
-619.361	800.000	-0.019	-0.073
-618.346	800.000	0.072	-0.219
-617.332	16.619	0.281	0.224
-616.317	-200.000	-0.032	-0.315
-615.303	800.000	-0.098	-0.291
-614.288	-141.071	0.368	-0.038
-613.273	78.458	-0.016	-0.018
-612.259	8.891	-0.124	-0.094
-611.244	77.523	0.054	0.057
-610.230	41.878	-0.178	0.162
-609.215	-200.000	-0.002	0.215
-608.201	-200.000	0.030	0.319
-607.186	585.708	-0.124	0.307
-606.171	24.223	0.361	-0.300
-605.157	-82.176	0.398	-0.131
-604.142	111.912	-0.223	-0.270
-603.128	-36.527	-0.159	-0.086
-602.113	-103.805	0.223	-0.052
-601.098	38.402	-0.363	-0.325
-600.084	749.032	-0.074	-0.201
-599.069	-128.611	0.481	0.068
-598.055	-110.910	-0.268	-0.055
-597.040	593.021	0.091	-0.226
-596.025	-71.324	0.197	-0.074
-595.011	-144.954	0.214	-0.020
-593.996	129.883	-0.118	-0.152
-592.982	-39.880	0.342	-0.180
-591.967	107.962	0.159	-0.191
-590.952	-9.071	0.212	-0.143
-589.938	419.641	-0.096	0.207
-588.923	-91.324	-0.249	0.072
-587.909	-27.250	-0.323	0.189
-586.894	-200.000	0.015	-0.295
-585.879	800.000	-0.087	-0.248
-584.865	112.334	0.037	-0.046
-583.850	18.686	-0.212	-0.170
-582.836	-159.338	0.027	-0.002
-581.821	-200.000	-0.016	0.150
-580.806	-103.795	-0.412	0.097
-579.792	-171.075	-0.062	0.002
-578.777	-186.679	0.153	0.002
-577.763	455.831	-0.127	0.284
-576.748	-44.126	-0.086	0.043
-575.733	-97.350	0.388	0.101
-574.719	47.461	-0.157	-0.147
-573.704	161.604	0.107	0.151
-572.690	440.598	0.051	0.112
-571.675	463.215	0.054	-0.120
-570.661	59.793	-0.173	0.171
-569.646	-200.000	0.026	0.279
-568.631	-200.000	0.064	-0.510
-567.617	-122.959	0.249	0.040
-566.602	800.000	0.037	0.129
-565.588	102.662	0.055	-0.064
-564.573	800.000	0.019	-0.080
-563.558	75.996	-0.119	-0.127
-562.544	-200.000	-0.039	-0.215
-561.529	-200.000	-0.050	0.239
-560.515	726.235	0.170	0.456
-559.500	160.925	0.131	-0.184
-558.485	45.289	-0.142	0.132
-557.471	-200.000	0.006	-0.095
-556.456	-200.000	0.021	-0.248
-555.442	-109.784	-0.207	-0.044
-554.427	-81.553	-0.540	-0.178
-553.412	-152.315	0.257	0.019
-552.398	800.000	-0.052	-0.147
-551.383	6.035	0.022	0.017
-550.369	88.389	-0.121	0.135
-549.354	-25.397	0.145	-0.086
-548.339	-200.000	0.040	0.291
-547.325	-4.737	-0.108	0.074
-546.310	-150.111	0.083	0.006
-545.296	-78.856	-0.198	-0.068
-544.281	56.901	0.124	0.121
-543.266	55.672	-0.155	-0.151
-542.252	800.000	0.122	-0.365
-541.237	31.601	-0.157	-0.136
-540.223	800.000	0.056	-0.243
-539.208	-107.649	-0.323	0.071
-538.193	-200.000	0.006	0.043
-537.179	-128.605	0.008	-0.001
-536.164	2.759	-0.141	0.102
-535.150	15.656	0.124	0.098
-534.135	800.000	-0.091	-0.262
-533.121	311.581	-0.097	-0.183
-532.106	-131.945	0.300	0.039
-531.091	-200.000	0.015	0.197
-530.077	800.000	-0.053	-0.194
-529.062	-83.045	0.082	-0.026
-528.048	618.956	-0.055	0.139
-527.033	-200.000	0.057	-0.269
-526.018	182.376	0.124	0.183
-525.004	-59.889	-0.110	0.047
-523.989	-81.289	-0.350	0.116
-522.975	68.124	0.186	-0.191
-521.960	-200.000	-0.029	-0.309
-520.945	-144.512	0.277	0.026
-519.931	-108.834	0.314	-0.067
-518.916	-109.534	0.259	-0.055
-517.902	269.431	-0.046	0.081
-516.887	-77.315	-0.191	-0.067
-515.872	463.223	-0.018	-0.041
-514.858	202.750	-0.137	0.212
-513.843	59.065	0.368	-0.363
-512.829	524.453	0.041	0.097
-511.814	-125.805	-0.279	-0.042
-510.799	94.740	-0.166	-0.189
-509.785	22.991	0.182	-0.150
-508.770	-95.172	0.181	0.049
-507.756	-82.640	-0.304	-0.099
-506.741	-125.655	-0.337	0.051
-505.726	630.187	-0.068	-0.172
-504.712	115.521	-0.185	0.227
-503.697	121.183	-0.141	-0.175
-502.683	-65.195	0.187	-0.075
-501.668	-88.397	0.093	0.028
-500.653	800.000	0.072	-0.305
-499.639	-106.183	-0.316	0.071
-498.624	-151.950	-0.189	0.014
-497.610	-200.000	0.014	-0.145
-496.595	143.908	0.119	-0.159
-495.581	485.034	-0.058	0.132
-494.566	51.093	0.177	0.168
-493.551	67.544	-0.152	0.156
-492.537	-97.015	-0.258	-0.068
-491.522	-57.723	-0.245	0.108
-490.508	51.497	-0.283	-0.269
-489.493	41.790	0.141	-0.128
-488.478	-200.000	0.021	-0.165
-487.464	286.152	0.065	0.117
-486.449	-161.303	0.441	0.023
-485.435	303.727	-0.164	0.305
-484.420	355.653	-0.154	0.307
-483.405	-55.892	0.103	0.046
-482.391	-38.092	0.241	0.128
-481.376	-122.652	-0.052	0.008
-480.362	-9.458	0.088	-0.059
-479.347	431.103	-0.104	0.225
-478.332	-200.000	-0.010	0.085
-477.318	6.621	-0.078	0.058
-476.303	276.378	0.125	0.222
-475.289	-107.443	0.104	-0.023
-474.274	194.295	0.054	-0.082
-473.259	348.361	-0.084	-0.166
-472.245	53.315	0.209	0.200
-471.230	-146.494	-0.285	-0.025
-470.216	-68.463	-0.137	-0.053
-469.201	-37.152	-0.188	0.101
-468.186	42.587	-0.302	0.275
-467.172	800.000	0.092	0.401
-466.157	-200.000	0.047	-0.226
-465.143	-200.000	0.057	-0.328
-464.128	-200.000	0.008	0.303
-463.113	-97.545	0.335	0.087
-462.099	800.000	-0.028	0.084
-461.084	800.000	0.060	0.238
-460.070	-109.650	0.063	-0.013
-459.055	-182.188	0.417	0.008
-458.040	-162.569	-0.253	-0.012
-457.026	-199.347	0.103	0.001
-456.011	-38.144	0.222	-0.118
-454.997	6.790	-0.122	0.091
-453.982	79.607	0.183	-0.196
-452.968	185.839	-0.081	-0.120
-451.953	392.114	-0.047	-0.097
-450.938	-162.953	-0.158	0.008
-449.924	561.967	-0.091	-0.220
-448.909	709.923	0.042	-0.112
-447.895	64.729	-0.189	-0.190
-446.880	-200.000	-0.018	-0.112
-445.865	-108.571	0.413	-0.089
-444.851	800.000	0.105	-0.322
-443.836	800.000	0.063	-0.242
-442.822	-200.000	0.034	-0.197
-441.807	-41.263	-0.183	-0.094
-440.792	-122.387	-0.113	-0.018
-439.778	-120.968	0.123	-0.021
-438.763	-134.418	-0.095	0.012
-437.749	423.888	-0.062	-0.134
-436.734	-85.921	0.200	-0.062
-435.719	-60.713	-0.120	0.051
-434.705	235.933	0.186	-0.307
-433.690	-191.358	-0.261	-0.003
-432.676	90.267	-0.184	-0.206
-431.661	339.395	0.144	0.281
-430.646	96.634	0.125	-0.143
-429.632	-200.000	-0.008	-0.123
-428.617	800.000	-0.072	0.274
-427.603	502.294	-0.072	-0.166
-426.588	-42.649	0.055	0.028
-425.573	-58.663	-0.196	-0.085
-424.559	800.000	-0.107	-0.362
-423.544	147.239	0.043	0.058
-422.530	435.339	-0.045	-0.098
-421.515	-99.281	0.138	0.035
-420.500	800.000	-0.085	-0.332
-419.486	-119.945	-0.197	0.034
-418.471	-161.352	-0.470	0.024
-417.457	75.047	0.178	0.187
-416.442	114.507	-0.078	0.095
-415.428	-75.263	-0.186	0.066
-414.413	-64.223	-0.098	0.040
-413.398	-128.074	0.143	0.021
-412.384	-149.980	-0.257	0.020
-411.369	800.000	0.063	-0.202
-410.355	-47.125	0.141	0.069
-409.340	282.500	-0.227	-0.407
-408.325	-200.000	0.008	-0.298
-407.311	170.520	-0.080	-0.115
-406.296	172.563	0.216	0.311
-405.282	-137.752	-0.102	0.011
-404.267	-14.208	0.114	0.073
-403.252	33.628	-0.090	0.078
-402.238	-83.560	-0.304	0.097
-401.223	-91.709	0.262	0.074
-400.209	-73.453	-0.125	0.046
-399.194	-100.911	-0.079	0.019
-398.179	313.986	0.034	0.065
-397.165	800.000	-0.067	-0.204
-396.150	-200.000	0.043	0.229
-395.136	-200.000	0.044	-0.231
-394.121	800.000	0.096	0.348
-393.106	-200.000	-0.006	-0.122
-392.092	-138.021	-0.062	-0.007
-391.077	-71.912	-0.361	-0.134
-390.063	-45.019	-0.082	0.041
-389.048	-133.061	-0.158	-0.020
-388.033	-59.124	-0.144	0.062
-387.019	259.728	0.059	0.101
-386.004	800.000	0.073	-0.209
-384.990	178.811	-0.128	0.187
-383.975	-2.381	0.255	-0.178
-382.960	71.471	0.085	-0.088
-381.946	583.648	-0.172	0.422
-380.931	-105.216	0.129	0.029
-379.917	-51.292	-0.294	-0.137
-378.902	-200.000	0.000	-0.093
-377.888	-200.000	-0.034	0.287
-376.873	49.506	-0.147	0.138
-375.858	155.625	-0.192	-0.264
-374.844	-12.077	0.139	-0.091
-373.829	-111.790	-0.358	0.072
-372.815	475.839	0.122	-0.275
-371.800	294.364	0.044	0.080
-370.785	-94.151	0.106	0.029
-369.771	37.248	-0.297	-0.262
-368.756	-83.459	0.276	0.088
-367.742	-200.000	-0.026	0.289
-366.727	-65.519	0.212	0.085
-365.712	800.000	-0.003	0.010
-364.698	-81.387	0.159	-0.052
-363.683	-15.838	-0.187	-0.119
-362.669	800.000	0.097	-0.361
-361.654	800.000	0.057	-0.230
-360.639	-200.000	-0.037	0.327
-359.625	800.000	0.083	-0.311
-358.610	-200.000	-0.001	0.106
-357.596	154.136	0.081	0.111
-356.581	-117.992	-0.083	0.015
-355.566	472.407	0.148	0.333
-354.552	800.000	-0.032	-0.137
-353.537	-21.706	-0.253	0.153
-352.523	-66.053	0.272	0.108
-351.508	7.115	-0.069	-0.051
-350.493	194.348	-0.413	0.624
-349.479	-195.449	-0.518	0.004
-348.464	800.000	0.067	0.240
-347.450	327.084	-0.070	0.133
-346.435	-200.000	0.025	-0.336
-345.420	-143.068	-0.273	0.026
-344.406	125.087	-0.172	-0.216
-343.391	522.810	0.116	-0.272
-342.377	-45.271	-0.025	-0.012
-341.362	-64.023	-0.044	0.018
-340.348	-200.000	0.009	0.074
-339.333	-15.490	0.398	-0.253
-338.318	-5.203	0.178	-0.122
-337.304	-115.604	-0.184	-0.034
-336.289	-112.948	0.128	0.025
-335.275	228.874	0.081	-0.132
-334.260	800.000	0.065	0.276
-333.245	55.385	0.094	0.091
-332.231	98.010	0.081	0.093
-331.216	-200.000	-0.007	-0.294
-330.202	-86.100	-0.154	0.047
-329.187	-200.000	-0.035	0.155
-328.172	195.995	-0.141	0.214
-327.158	-89.363	0.324	0.095
-326.143	-106.387	-0.164	-0.036
-325.129	16.249	-0.188	-0.147
-324.114	800.000	0.032	0.121
-323.099	-46.069	0.220	0.108
-322.085	32.528	-0.195	0.167
-321.070	-16.480	0.181	-0.114
-320.056	143.393	-0.142	-0.188
-319.041	-200.000	0.033	-0.272
-318.026	-200.000	-0.013	0.281
-317.012	-136.030	0.275	-0.032
-315.997	438.394	0.170	0.370
-314.983	-47.932	0.293	-0.141
-313.968	207.280	0.140	-0.217
-312.953	99.654	-0.107	-0.123
-311.939	103.021	-0.229	0.267
-310.924	506.044	0.033	-0.076
-309.910	-183.468	0.148	0.003
-308.895	-200.000	-0.077	0.346
-307.880	-83.003	-0.062	-0.020
-306.866	-200.000	-0.027	-0.324
-305.851	-200.000	-0.007	-0.310
-304.837	-200.000	-0.047	0.246
-303.822	227.542	-0.079	0.127
-302.807	-18.273	0.050	0.031
-301.793	-200.000	-0.015	0.123
-300.778	-102.320	0.320	0.076
-299.764	800.000	-0.043	0.182
-298.749	594.404	-0.031	0.075
-297.735	-81.168	0.216	0.071
-296.720	194.559	0.265	0.400
-295.705	800.000	0.059	-0.173
-294.691	-24.354	-0.143	0.085
-293.676	800.000	-0.119	0.332
-292.662	-98.842	-0.032	-0.008
-291.647	19.793	0.266	0.213
-290.632	54.406	-0.061	0.058
-289.618	-187.361	0.409	-0.005
-288.603	587.148	-0.151	0.370
-287.589	77.094	0.137	0.145
-286.574	-38.357	-0.064	-0.034
-285.559	100.597	0.183	0.211
-284.545	-57.797	-0.168	0.073
-283.530	107.475	-0.070	0.082
-282.516	96.961	0.023	-0.026
-281.501	475.097	-0.125	0.280
-280.486	595.714	-0.016	-0.038
-279.472	-108.956	-0.055	0.012
-278.457	357.124	-0.066	0.130
-277.443	-79.914	0.122	-0.041
-276.428	-47.059	0.270	-0.131
-275.413	-109.923	0.210	-0.044
-274.399	12.580	-0.102	-0.078
-273.384	-60.196	0.086	-0.036
-272.370	800.000	0.012	0.044
-271.355	90.329	-0.283	-0.314
-270.340	-43.373	0.158	0.079
-269.326	-101.046	0.136	0.033
-268.311	56.233	-0.162	-0.157
-267.297	180.473	0.234	0.341
-266.282	800.000	0.074	0.212
-265.267	-142.450	-0.120	-0.012
-264.253	148.136	0.199	-0.266
-263.238	135.110	0.187	0.242
-262.224	110.120	-0.199	-0.237
-261.209	-60.307	0.337	0.143
-260.195	-90.186	-0.188	-0.054
-259.180	211.146	-0.120	0.187
-258.165	-46.944	0.330	0.160
-257.151	-200.000	0.000	0.288
-256.136	199.272	-0.061	-0.093
-255.122	-105.411	-0.352	0.080
-254.107	-200.000	0.027	0.264
-253.092	-164.631	0.043	-0.002
-252.078	415.079	-0.185	-0.391
-251.063	-200.000	0.046	0.482
-250.049	61.814	0.068	0.067
-249.034	-4.645	-0.134	-0.092
-248.019	-200.000	0.040	0.237
-247.005	-16.914	-0.226	0.142
-245.990	535.307	0.128	0.302
-244.976	-116.821	-0.355	0.065
-243.961	-159.356	-0.298	-0.017
-242.946	45.054	-0.113	0.103
-241.932	-126.220	-0.116	-0.017
-240.917	-200.000	0.037	0.172
-239.903	390.766	-0.093	0.191
-238.888	-131.411	-0.296	0.039
-237.873	-94.435	0.423	0.114
-236.859	127.356	-0.124	0.156
-235.844	77.563	0.148	0.157
-234.830	-200.000	0.015	-0.111
-233.815	29.980	0.075	-0.063
-232.800	-73.762	-0.069	-0.025
-231.786	202.329	0.181	0.277
-230.771	-200.000	-0.015	0.085
-229.757	-110.403	-0.340	0.070
-228.742	-13.858	0.198	-0.127
-227.727	79.919	0.119	-0.127
-226.713	185.180	0.074	-0.108
-225.698	800.000	-0.044	-0.179
-224.684	800.000	-0.128	0.417
-223.669	-110.917	-0.278	-0.057
-222.655	800.000	-0.110	-0.338
-221.640	222.263	-0.081	0.130
-220.625	-62.929	0.236	-0.097
-219.611	2.806	0.212	0.153
-218.596	-200.000	0.026	0.145
-217.582	-200.000	-0.007	0.056
-216.567	800.000	-0.103	-0.328
-215.552	-59.828	0.263	-0.111
-214.538	-200.000	-0.075	0.385
-213.523	-40.566	0.214	-0.110
-212.509	-14.779	0.142	-0.090
-211.494	75.963	-0.373	-0.391
-210.479	-39.229	0.076	0.040
-209.465	-93.556	0.172	0.047
-208.450	-104.419	0.218	0.050
-207.436	-200.000	-0.013	-0.093
-206.421	581.904	0.103	-0.251
-205.406	33.369	0.259	-0.223
-204.392	-85.132	-0.276	-0.085
-203.377	-200.000	-0.036	-0.256
-202.363	-101.321	-0.216	-0.052
-201.348	-195.326	0.249	-0.002
-200.333	-45.164	0.486	-0.239
-199.319	-200.000	-0.024	-0.154
-198.304	236.747	0.091	-0.149
-197.290	234.791	0.164	0.268
-196.275	177.932	0.086	-0.124
-195.260	161.114	-0.137	0.189
-194.246	-24.059	0.387	-0.229
-193.231	-12.923	0.078	-0.050
-192.217	-91.703	-0.145	-0.041
-191.202	-200.000	-0.007	-0.236
-190.187	176.252	-0.091	-0.131
-189.173	63.145	0.187	0.185
-188.158	-200.000	-0.024	-0.189
-187.144	-118.261	0.316	0.056
-186.129	657.422	0.056	-0.143
-185.114	56.645	0.082	0.079
-184.100	25.976	0.225	0.186
-183.085	800.000	0.054	0.159
-182.071	-30.233	-0.306	0.172
-181.056	506.929	0.142	0.325
-180.042	-200.000	-0.034	-0.364
-179.027	-200.000	-0.071	0.488
-178.012	400.174	0.165	0.343
-176.998	95.751	-0.070	0.079
-175.983	-200.000	-0.005	-0.060
-174.969	441.526	0.032	-0.069
-173.954	393.587	-0.027	0.056
-172.939	-156.839	0.226	0.014
-171.925	800.000	-0.117	-0.432
-170.910	800.000	0.048	0.183
-169.896	-48.110	0.225	0.108
-168.881	63.997	0.149	0.148
-167.866	-65.482	0.157	0.062
-166.852	480.364	0.005	0.011
-165.837	74.839	-0.045	0.047
-164.823	155.317	0.156	0.212
-163.808	-200.000	-0.002	0.109
-162.793	-158.353	0.182	-0.010
-161.779	-200.000	0.061	-0.329
-160.764	800.000	-0.056	0.236
-159.750	-138.937	-0.314	0.034
-158.735	334.265	-0.175	0.336
-157.720	-112.241	-0.088	0.018
-156.706	106.593	0.128	0.150
-155.691	-120.556	-0.257	0.043
-154.677	148.346	0.231	-0.308
-153.662	800.000	0.065	-0.240
-152.647	-200.000	0.009	-0.044
-151.633	65.978	0.267	0.267
-150.618	587.355	-0.040	0.097
-149.604	365.161	-0.173	0.344
-148.589	68.521	-0.205	0.207
-147.574	116.489	-0.208	0.252
-146.560	-200.000	-0.045	-0.296
-145.545	-200.000	-0.078	-0.418
-144.531	37.652	0.373	0.327
-143.516	12.228	0.175	-0.133
-142.502	-5.558	-0.119	0.081
-141.487	120.880	0.159	-0.196
-140.472	-44.974	-0.248	0.122
-139.458	-200.000	0.020	0.124
-138.443	-161.906	-0.355	-0.018
-137.429	282.990	0.054	-0.097
-136.414	120.393	0.058	-0.071
-135.399	-200.000	-0.028	0.182
-134.385	-108.184	0.413	0.088
-133.370	-63.758	0.099	-0.040
-132.356	-200.000	0.004	0.150
-131.341	-41.698	-0.276	0.140
-130.326	83.489	-0.240	0.259
-129.312	-81.850	-0.482	-0.156
-128.297	-46.099	-0.035	-0.017
-127.283	-200.000	-0.022	0.145
-126.268	-42.089	-0.060	0.030
-125.253	-200.000	-0.014	0.076
-124.239	-200.000	0.034	-0.438
-123.224	-37.946	-0.112	-0.059
-122.210	74.646	-0.214	0.222
-121.195	-49.201	-0.166	-0.078
-120.180	303.248	-0.128	0.234
-119.166	800.000	0.043	-0.187
-118.151	180.362	-0.164	0.237
-117.137	-200.000	-0.026	-0.233
-116.122	67.936	0.088	0.088
-115.107	-200.000	0.000	0.117
-114.093	-200.000	-0.049	0.366
-113.078	312.068	0.018	-0.033
-112.064	161.369	0.052	0.072
-111.049	-200.000	0.040	-0.287
-110.034	-39.136	0.242	0.126
-109.020	553.946	0.180	0.426
-108.005	34.168	-0.172	0.148
-106.991	-96.428	0.117	0.030
-105.976	-162.396	-0.386	-0.019
-104.962	-82.403	-0.414	-0.133
-103.947	543.539	0.064	0.150
-102.932	-200.000	-0.014	-0.079
-101.918	153.528	-0.016	-0.022
-100.903	-117.029	-0.348	0.063
-99.889	413.889	0.120	-0.253
-98.874	-96.883	-0.204	-0.053
-97.859	558.234	0.051	0.121
-96.845	135.781	0.039	-0.051
-95.830	-67.634	0.208	-0.080
-94.816	800.000	-0.020	-0.081
-93.801	-58.796	0.065	0.028
-92.786	158.061	-0.080	0.110
-91.772	249.968	-0.121	-0.202
-90.757	-142.914	-0.110	-0.011
-89.743	-17.925	-0.307	0.190
-88.728	19.651	0.124	-0.098
-87.713	564.797	-0.051	0.121
-86.699	-200.000	-0.019	-0.089
-85.684	-18.332	0.037	0.023
-84.670	147.984	-0.149	0.199
-83.655	800.000	0.050	-0.211
-82.640	800.000	0.016	0.045
-81.626	42.877	0.145	0.131
-80.611	89.610	0.178	-0.196
-79.597	-91.572	-0.351	0.098
-78.582	98.121	0.116	-0.132
-77.567	29.107	-0.123	-0.103
-76.553	-2.771	-0.095	0.066
-75.538	800.000	-0.034	0.137
-74.524	-200.000	-0.010	-0.177
-73.509	377.173	-0.025	-0.050
-72.494	800.000	-0.053	0.192
-71.480	434.006	0.049	-0.105
-70.465	444.866	-0.086	0.185
-69.451	-200.000	0.012	-0.259
-68.436	309.312	-0.011	-0.020
-67.422	239.669	0.041	0.067
-66.407	-200.000	-0.082	-0.434
-65.392	-200.000	-0.013	0.234
-64.378	-41.860	-0.301	0.152
-63.363	-15.819	-0.232	0.146
-62.349	14.208	0.319	0.245
-61.334	61.625	-0.879	-0.862
-60.319	80.986	0.573	0.609
-59.305	800.000	-0.274	-1.066
-58.290	490.201	0.473	1.065
-57.276	800.000	0.404	1.568
-56.261	-200.000	95.101	534.995
-55.246	489.011	1427.128	3211.312
-54.232	144.064	2660.713	3494.801
-53.217	102.678	2355.942	2714.504
-52.203	43.032	1961.760	1761.913
-51.188	37.276	1746.698	1523.699
-50.173	34.514	1701.955	1463.459
-49.159	50.048	1748.392	1624.500
-48.144	52.621	1765.541	1660.383
-47.130	36.907	1723.355	1500.242
-46.115	34.071	1708.415	1465.371
-45.100	33.916	1703.698	1460.073
-44.086	33.981	1700.810	1458.037
-43.071	33.957	1697.625	1455.066
-42.057	33.906	1695.599	1452.886
-41.042	33.999	1693.106	1451.402
-40.027	33.859	1691.497	1448.892
-39.013	33.926	1689.868	1447.953
-37.998	33.865	1687.563	1445.455
-36.984	33.975	1686.131	1445.006
-35.969	34.057	1684.859	1444.486
-34.954	34.086	1683.183	1443.210
-33.940	34.049	1681.403	1441.345
-32.925	34.047	1679.070	1439.277
-31.911	34.040	1677.267	1437.620
-30.896	34.070	1675.696	1436.444
-29.881	34.140	1674.130	1435.572
-28.867	34.174	1671.604	1433.602
-27.852	34.080	1670.660	1432.026
-26.838	34.074	1669.591	1431.006
-25.823	34.122	1667.835	1429.808
-24.809	34.159	1666.254	1428.672
-23.794	34.125	1665.022	1427.308
-22.779	34.080	1663.661	1425.748
-21.765	34.040	1661.992	1423.960
-20.750	34.090	1660.204	1422.742
-19.736	34.109	1658.510	1421.377
-18.721	34.189	1657.139	1420.741
-17.706	34.105	1655.872	1418.973
-16.692	34.015	1654.395	1416.979
-15.677	34.058	1652.558	1415.669
-14.663	34.145	1651.002	1414.935
-13.648	34.168	1650.030	1414.210
-12.633	34.104	1648.090	1412.022
-11.619	34.124	1646.503	1410.749
-10.604	34.098	1644.905	1409.131
-9.590	34.046	1643.978	1407.901
-8.575	34.158	1642.612	1407.500
-7.560	34.201	1641.188	1406.544
-6.546	34.146	1640.203	1405.236
-5.531	34.038	1639.610	1403.875
-4.517	34.177	1637.758	1403.262
-3.502	34.169	1636.378	1401.962
-2.487	34.245	1634.740	1401.062
-1.473	34.029	1623.570	1389.859
-0.458	31.158	1602.902	1351.356
0.556	25.504	1600.952	1311.420
1.571	22.383	1624.488	1307.439
2.586	21.192	1636.253	1307.878
3.600	18.873	1583.022	1248.390
4.615	10.682	1468.840	1102.814
5.629	2.431	1400.273	997.629
6.644	0.761	1391.450	980.432
7.659	0.593	1390.552	978.624
8.673	0.609	1388.848	977.441
9.688	0.438	1388.073	975.703
10.702	0.287	1384.506	972.134
11.717	3.922	1390.320	999.655
12.731	12.358	1404.073	1064.308
13.746	17.266	1410.064	1100.610
14.761	17.264	1408.821	1099.531
15.775	16.436	1406.722	1092.444
16.790	15.443	1404.216	1083.995
17.804	14.677	1402.250	1077.438
18.819	14.288	1400.254	1073.303
19.834	14.037	1398.703	1070.399
20.848	13.763	1397.685	1067.765
21.863	13.463	1396.283	1064.672
22.877	13.326	1394.850	1062.605
23.892	13.263	1394.055	1061.498
24.907	13.257	1393.545	1060.978
25.921	13.368	1392.146	1060.531
26.936	13.369	1391.645	1060.058
27.950	13.390	1390.293	1059.075
28.965	13.428	1389.578	1058.674
29.980	13.433	1388.618	1057.884
30.994	13.483	1387.686	1057.397
32.009	13.609	1386.331	1057.075
33.023	13.487	1385.552	1055.609
34.038	13.523	1384.086	1054.629
35.053	13.488	1383.018	1053.500
36.067	13.476	1382.141	1052.662
37.082	13.442	1380.827	1051.353
38.096	13.426	1380.532	1050.934
39.111	13.494	1379.042	1050.140
40.126	13.390	1378.342	1048.853
41.140	13.314	1377.689	1047.784
42.155	13.271	1377.208	1047.052
43.169	13.301	1377.249	1047.178
44.184	13.341	1376.583	1046.835
45.199	13.328	1376.243	1046.403
46.213	13.361	1375.533	1045.975
47.228	13.346	1374.565	1045.054
48.242	13.373	1373.538	1044.347
49.257	13.367	1371.897	1042.971
50.271	13.386	1370.359	1041.830
51.286	13.388	1369.090	1040.784
52.301	13.364	1368.003	1039.716
53.315	13.310	1367.011	1038.531
54.330	13.358	1365.982	1037.958
55.344	13.293	1364.953	1036.680
56.359	13.359	1363.451	1035.862
57.374	13.347	1362.838	1035.229
58.388	13.248	1361.567	1033.552
59.403	13.367	1361.310	1034.007
60.417	13.247	1360.432	1032.498
61.432	13.238	1359.673	1031.776
62.447	13.245	1358.294	1030.681
63.461	13.201	1357.235	1029.515
64.476	13.217	1356.552	1029.002
65.490	13.252	1355.071	1028.009
66.505	13.275	1353.566	1026.914
67.520	13.195	1352.807	1025.756
68.534	13.393	1351.008	1025.526
69.549	13.297	1350.546	1024.489
70.563	13.349	1348.819	1023.414
71.578	13.283	1347.415	1021.847
72.593	13.138	1347.134	1020.649
73.607	13.068	1346.002	1019.271
74.622	13.153	1345.250	1019.131
75.636	13.214	1344.582	1018.911
76.651	13.258	1343.765	1018.471
77.666	13.150	1343.322	1017.382
78.680	13.167	1342.687	1016.915
79.695	13.277	1341.702	1016.755
80.709	13.076	1341.354	1015.166
81.724	13.166	1340.721	1015.152
82.739	13.366	1338.954	1014.952
83.753	13.288	1338.330	1013.910
84.768	13.385	1337.000	1013.406
85.782	13.366	1335.885	1012.355
86.797	13.348	1334.691	1011.254
87.812	13.365	1333.239	1010.165
88.826	13.414	1331.891	1009.355
89.841	13.287	1331.484	1008.185
90.855	13.354	1330.178	1007.510
91.870	13.426	1328.986	1006.958
92.884	13.438	1328.557	1006.618
93.899	13.488	1327.589	1006.099
94.914	13.482	1326.667	1005.272
95.928	13.547	1325.619	1004.784
96.943	13.424	1324.976	1003.464
97.957	13.387	1324.237	1002.593
98.972	13.472	1322.938	1002.035
99.987	13.460	1321.742	1000.966
101.001	13.480	1321.154	1000.554
102.016	13.501	1319.557	999.382
103.030	13.432	1319.153	998.573
104.045	13.418	1318.411	997.834
105.060	13.453	1317.047	996.927
106.074	13.361	1316.177	995.627
107.089	13.382	1314.168	994.142
108.103	13.354	1313.441	993.341
109.118	13.356	1312.033	992.199
110.133	13.300	1310.635	990.718
111.147	13.360	1308.955	989.717
112.162	13.289	1308.204	988.640
113.176	13.462	1306.596	988.367
114.191	13.364	1305.771	987.074
115.206	13.375	1305.041	986.502
116.220	13.317	1303.483	984.889
117.235	13.432	1302.349	984.629
118.249	13.388	1301.165	983.386
119.264	13.371	1300.256	982.510
120.279	13.397	1298.935	981.578
121.293	13.330	1298.396	980.691
122.308	13.257	1297.448	979.456
123.322	13.284	1295.874	978.338
124.337	13.232	1295.149	977.397
125.352	13.312	1293.538	976.568
126.366	13.314	1292.935	976.039
127.381	13.386	1291.120	975.007
128.395	13.287	1290.374	973.770
129.410	13.469	1288.936	973.670
130.424	13.360	1288.761	972.812
131.439	13.400	1287.604	972.088
132.454	13.414	1286.958	971.593
133.468	13.488	1285.723	971.014
134.483	13.494	1284.981	970.403
135.497	13.503	1283.648	969.360
136.512	13.443	1282.673	968.190
137.527	13.348	1281.544	966.696
138.541	13.464	1279.485	965.732
139.556	13.381	1278.658	964.541
140.570	13.432	1277.543	963.911
141.585	13.391	1276.522	962.818
142.600	13.500	1274.831	962.090
143.614	13.565	1274.201	961.907
144.629	13.608	1272.923	961.105
145.643	13.558	1271.595	959.727
146.658	13.529	1270.575	958.706
147.673	13.456	1269.244	957.194
148.687	13.461	1268.140	956.305
149.702	13.522	1266.527	955.354
150.716	13.419	1265.524	953.921
151.731	13.387	1264.263	952.701
152.746	13.464	1263.021	952.126
153.760	13.596	1261.708	951.809
154.775	13.529	1260.850	950.696
155.789	13.542	1259.622	949.761
156.804	13.537	1258.678	948.935
157.819	13.614	1257.694	948.551
158.833	13.712	1256.126	947.844
159.848	13.729	1255.348	947.268
160.862	13.773	1254.382	946.707
161.877	13.653	1253.377	945.182
162.892	13.612	1252.168	943.952
163.906	13.612	1251.685	943.506
164.921	13.575	1250.583	942.379
165.935	13.550	1249.955	941.678
166.950	13.687	1248.998	941.652
167.964	13.661	1248.484	941.036
168.979	13.680	1247.640	940.422
169.994	13.690	1247.040	939.947
171.008	13.704	1246.183	939.298
172.023	13.801	1245.181	939.006
173.037	13.767	1244.445	938.174
174.052	13.756	1243.569	937.372
175.067	13.860	1242.434	937.016
176.081	13.645	1241.974	935.376
177.096	13.787	1240.871	935.263
178.110	13.689	1239.582	933.659
179.125	13.716	1238.175	932.667
180.140	13.811	1236.969	932.208
181.154	13.835	1235.744	931.337
182.169	13.855	1234.977	930.791
183.183	13.835	1233.573	929.539
184.198	13.768	1232.608	928.354
185.213	13.911	1231.158	927.977
186.227	14.011	1229.698	927.355
187.242	14.003	1228.992	926.694
188.256	13.873	1228.904	925.821
189.271	13.934	1227.456	924.986
190.286	13.933	1226.124	923.898
191.300	13.791	1225.516	922.567
192.315	13.872	1224.376	922.078
193.329	13.871	1223.746	921.515
194.344	13.919	1223.319	921.378
195.359	13.859	1222.981	920.707
196.373	13.888	1222.180	920.188
197.388	13.967	1221.823	920.275
198.402	14.046	1221.400	920.312
199.417	14.129	1220.163	919.756
200.432	14.104	1219.631	919.139
201.446	14.063	1218.748	918.160
202.461	14.223	1217.756	918.217
203.475	14.195	1216.751	917.224
204.490	14.101	1215.885	915.971
205.504	14.201	1214.133	915.123
206.519	14.284	1213.274	914.848
207.534	14.232	1211.689	913.286
208.548	14.246	1210.863	912.661
209.563	14.067	1210.886	911.615
210.577	14.267	1209.212	911.370
211.592	14.287	1208.702	911.012
212.607	14.315	1207.582	910.242
213.621	14.298	1206.746	909.437
214.636	14.292	1206.124	908.855
215.650	14.314	1204.666	907.797
216.665	14.320	1204.047	907.284
217.680	14.316	1203.396	906.689
218.694	14.314	1202.714	906.086
219.709	14.447	1201.545	905.851
220.723	14.384	1200.444	904.594
221.738	14.398	1200.147	904.370
222.753	14.402	1199.407	903.755
223.767	14.400	1198.711	903.138
224.782	14.406	1198.033	902.580
225.796	14.568	1196.694	902.367
226.811	14.501	1196.967	902.128
227.826	14.481	1195.808	901.070
228.840	14.433	1194.951	900.086
229.855	14.518	1193.825	899.616
230.869	14.568	1193.332	899.434
231.884	14.390	1192.708	897.925
232.899	14.533	1191.762	897.905
233.913	14.469	1191.092	896.977
234.928	14.529	1190.559	896.817
235.942	14.474	1189.670	895.770
236.957	14.436	1189.334	895.234
237.972	14.472	1188.138	894.451
238.986	14.484	1187.449	893.915
240.001	14.555	1186.931	893.825
241.015	14.533	1185.659	892.671
242.030	14.644	1184.910	892.622
243.045	14.546	1184.492	891.703
244.059	14.684	1183.145	891.347
245.074	14.636	1182.732	890.702
246.088	14.646	1181.985	890.115
247.103	14.683	1180.846	889.376
248.117	14.776	1180.190	889.297
249.132	14.775	1179.365	888.592
250.147	14.696	1178.825	887.689
251.161	14.838	1178.260	887.936
252.176	14.888	1177.166	887.297
253.190	14.851	1176.532	886.547
254.205	14.975	1176.013	886.732
255.220	14.980	1175.525	886.316
256.234	14.972	1174.313	885.280
257.249	15.005	1173.816	885.002
258.263	15.004	1173.168	884.431
259.278	14.843	1173.076	883.431
260.293	15.070	1172.188	883.882
261.307	15.052	1171.447	883.150
262.322	15.078	1170.759	882.691
263.336	15.103	1170.245	882.358
264.351	15.146	1169.538	881.972
265.366	15.100	1168.831	881.120
266.380	15.204	1168.091	881.031
267.395	15.200	1167.107	880.187
268.409	15.125	1166.458	879.229
269.424	15.207	1165.845	879.117
270.439	15.075	1165.675	878.220
271.453	15.140	1164.865	877.874
272.468	15.207	1163.470	877.096
273.482	15.076	1163.234	876.153
274.497	15.166	1162.419	875.932
275.512	15.101	1161.712	874.980
276.526	15.202	1160.542	874.551
277.541	15.141	1160.177	873.880
278.555	15.172	1159.494	873.449
279.570	15.326	1158.599	873.499
280.585	15.294	1158.228	872.979
281.599	15.287	1156.893	871.857
282.614	15.359	1156.095	871.552
283.628	15.249	1154.985	870.070
284.643	15.314	1154.017	869.600
285.657	15.380	1152.967	869.071
286.672	15.412	1152.041	868.461
287.687	15.419	1151.170	867.765
288.701	15.508	1150.139	867.374
289.716	15.420	1149.662	866.482
290.730	15.521	1148.527	866.072
291.745	15.498	1148.189	865.621
292.760	15.335	1148.031	864.584
293.774	15.607	1147.122	865.224
294.789	15.518	1146.402	864.148
295.803	15.575	1145.653	863.799
296.818	15.585	1144.882	863.191
297.833	15.521	1144.629	862.597
298.847	15.581	1143.246	861.783
299.862	15.570	1143.009	861.475
300.876	15.681	1142.156	861.324
301.891	15.706	1141.365	860.780
302.906	15.649	1140.753	859.951
303.920	15.639	1139.892	859.171
304.935	15.745	1139.199	859.115
305.949	15.845	1138.327	858.893
306.964	15.852	1137.829	858.477
307.979	15.797	1137.090	857.562
308.993	15.781	1136.800	857.186
310.008	15.881	1135.684	856.776
311.022	15.896	1134.587	855.951
312.037	15.891	1133.585	855.093
313.052	15.747	1133.242	854.028
314.066	15.746	1132.399	853.312
315.081	15.707	1131.207	852.139
316.095	15.842	1130.559	852.260
317.110	15.767	1129.547	851.044
318.125	15.760	1129.207	850.677
319.139	15.637	1128.920	849.765
320.154	15.779	1127.958	849.684
321.168	15.726	1127.583	849.055
322.183	15.839	1126.486	848.725
323.197	15.857	1126.157	848.490
324.212	15.853	1125.084	847.587
325.227	15.881	1125.100	847.665
326.241	15.869	1124.198	846.853
327.256	15.926	1122.865	846.057
328.270	15.879	1122.118	845.186
329.285	15.901	1121.119	844.468
330.300	15.952	1120.179	843.940
331.314	15.852	1119.282	842.690
332.329	15.996	1118.131	842.472
333.343	16.087	1117.229	842.172
334.358	15.992	1116.699	841.223
335.373	16.119	1115.967	841.229
336.387	15.955	1115.481	839.973
337.402	16.109	1114.043	839.580
338.416	16.009	1113.706	838.755
339.431	15.944	1113.317	838.066
340.446	16.146	1112.251	838.190
341.460	16.249	1111.619	838.150
342.475	16.264	1110.663	837.431
343.489	16.290	1110.026	837.009
344.504	16.210	1108.858	835.657
345.519	16.357	1108.123	835.757
346.533	16.269	1107.533	834.799
347.548	16.349	1106.557	834.385
348.562	16.356	1105.674	833.681
349.577	16.422	1104.631	833.146
350.592	16.228	1104.462	831.990
351.606	16.250	1103.786	831.514
352.621	16.239	1102.827	830.663
353.635	16.293	1102.375	830.515
354.650	16.227	1101.732	829.636
355.665	16.409	1100.712	829.684
356.679	16.411	1100.125	829.178
357.694	16.335	1099.694	828.410
358.708	16.313	1098.928	827.653
359.723	16.427	1098.169	827.564
360.738	16.513	1097.354	827.299
361.752	16.449	1097.050	826.685
362.767	16.457	1096.418	826.174
363.781	16.584	1095.210	825.809
364.796	16.547	1094.648	825.131
365.810	16.562	1094.651	825.133
366.825	16.524	1094.196	824.534
367.840	16.642	1093.218	824.297
368.854	16.702	1092.707	824.133
369.869	16.701	1091.972	823.497
370.883	16.614	1091.122	822.363
371.898	16.622	1090.361	821.757
372.913	16.645	1089.880	821.429
373.927	16.589	1089.692	820.944
374.942	16.731	1088.795	820.887
375.956	16.778	1087.823	820.308
376.971	16.779	1087.720	820.164
377.986	16.709	1087.333	819.461
379.000	16.798	1086.812	819.426
380.015	16.906	1085.835	819.137
381.029	16.896	1085.387	818.679
382.044	16.903	1084.357	817.863
383.059	16.901	1083.664	817.260
384.073	16.986	1082.995	817.092
385.088	16.936	1081.922	815.967
386.102	16.914	1081.387	815.385
387.117	16.928	1080.241	814.517
388.132	17.006	1078.794	813.730
389.146	16.952	1078.613	813.261
390.161	16.810	1078.072	812.101
391.175	16.922	1077.176	811.892
392.190	17.130	1076.114	812.011
393.205	17.100	1075.626	811.429
394.219	17.079	1075.073	810.841
395.234	17.016	1074.088	809.724
396.248	16.987	1073.062	808.740
397.263	17.028	1071.944	808.023
398.278	17.038	1071.426	807.608
399.292	17.008	1070.555	806.738
400.307	17.021	1069.836	806.188
401.321	17.040	1069.360	805.843
402.336	16.993	1068.512	804.915
403.350	17.035	1067.763	804.476
404.365	17.197	1067.147	804.710
405.380	17.037	1066.472	803.370
406.394	17.149	1065.681	803.233
407.409	17.196	1064.912	802.808
408.423	17.241	1064.176	802.391
409.438	17.175	1063.629	801.597
410.453	17.145	1063.011	800.919
411.467	17.338	1062.176	801.129
412.482	17.256	1061.537	800.191
413.496	17.367	1060.575	799.914
414.511	17.269	1060.594	799.397
415.526	17.384	1059.912	799.354
416.540	17.451	1059.473	799.266
417.555	17.397	1059.071	798.638
418.569	17.554	1058.074	798.551
419.584	17.574	1057.646	798.251
420.599	17.362	1057.575	797.136
421.613	99.499	1317.410	1446.798
422.628	91.785	1355.229	1446.895
