DTS Sentinel unit serial number:	SN413079Multiplexer serial number:	ORYXHardware model number:	OX4-SRSoftware version number:	ORYX F/W v4.00 Oryx Data Collector v3.7.2.0data status	okinstallation	princeton_trtdifferential loss correction	single-endedforward channel	channel 2reverse channel	N/Adate	2019/09/15time	20:47:35forward acquisition time	60.00reverse acquisition time	0.00gamma	496.2192k internal	0.2332k external	0.2332temperature offset calibration	0.9939default loss term (dB/km)	0.3790temperature slope calibration	1.0000multiplexer offset coefficient	1.0000multiplexer slope coefficient	1.0000fibre end	0.00T internal ref (°C)	32.44T ext. ref 1 (°C)	7.96T ext. ref 2 (°C)	24.51length (m)	temperature (°C)	Stokes	anti-Stokes-747.200	129.731	-0.097	-0.124
-746.185	-63.361	-0.267	0.111
-745.171	324.793	0.114	-0.218
-744.156	153.940	0.196	0.270
-743.142	139.195	-0.123	0.163
-742.127	800.000	-0.027	0.100
-741.112	227.930	0.099	0.161
-740.098	462.722	0.025	0.055
-739.083	56.047	-0.203	0.198
-738.069	331.443	-0.073	0.142
-737.054	7.057	0.038	-0.029
-736.039	76.059	-0.130	-0.138
-735.025	-72.104	0.255	-0.095
-734.010	402.318	-0.059	0.125
-732.996	100.115	-0.016	0.019
-731.981	51.292	0.263	0.251
-730.966	-48.017	-0.154	-0.075
-729.952	-200.000	-0.104	-0.470
-728.937	-31.042	0.279	-0.158
-727.923	800.000	-0.078	-0.223
-726.908	-36.126	0.201	0.109
-725.894	-155.116	-0.395	0.026
-724.879	68.874	0.130	0.134
-723.864	-110.519	0.195	0.041
-722.850	-46.730	0.113	0.055
-721.835	-200.000	-0.005	-0.185
-720.821	577.810	-0.074	0.182
-719.806	-200.000	-0.012	-0.070
-718.791	-37.501	0.202	-0.108
-717.777	-63.243	0.060	0.025
-716.762	-95.929	0.053	0.014
-715.748	-43.103	0.189	0.096
-714.733	53.297	0.166	0.160
-713.718	800.000	0.124	0.371
-712.704	89.487	0.103	-0.116
-711.689	1.350	0.177	0.127
-710.675	-77.388	-0.131	-0.046
-709.660	-44.890	-0.279	0.140
-708.645	547.509	0.063	0.152
-707.631	0.759	-0.161	0.116
-706.616	-200.000	0.046	0.297
-705.602	-138.033	-0.182	0.020
-704.587	-11.255	-0.148	0.098
-703.572	-60.828	-0.274	-0.116
-702.558	-200.000	-0.008	0.297
-701.543	162.850	0.057	-0.080
-700.529	-104.458	0.271	0.063
-699.514	-53.853	0.266	0.122
-698.499	800.000	-0.062	-0.201
-697.485	-200.000	0.034	-0.304
-696.470	406.418	0.076	-0.161
-695.456	107.852	-0.199	-0.238
-694.441	-43.618	0.224	-0.113
-693.426	-8.662	-0.191	-0.129
-692.412	109.096	0.090	0.108
-691.397	14.824	0.271	0.213
-690.383	-109.341	0.209	-0.044
-689.368	-66.646	0.170	-0.068
-688.354	-200.000	0.012	-0.159
-687.339	326.254	0.089	-0.171
-686.324	-200.000	-0.023	-0.279
-685.310	-39.443	-0.205	0.108
-684.295	-158.552	-0.172	-0.010
-683.281	122.791	0.105	-0.131
-682.266	186.078	-0.057	-0.086
-681.251	-78.925	-0.242	0.083
-680.237	-70.177	0.085	0.032
-679.222	123.828	0.113	0.143
-678.208	10.997	0.255	-0.195
-677.193	-200.000	-0.001	-0.171
-676.178	21.410	-0.267	0.218
-675.164	800.000	-0.052	-0.196
-674.149	-149.095	-0.489	0.039
-673.135	-41.764	0.214	0.110
-672.120	-144.429	-0.208	0.019
-671.105	-200.000	-0.058	-0.312
-670.091	800.000	-0.098	0.329
-669.076	-200.000	0.022	0.107
-668.062	-118.708	0.252	-0.045
-667.047	88.455	-0.385	0.428
-666.032	-34.292	0.187	-0.103
-665.018	-71.639	0.121	0.045
-664.003	-200.000	0.005	0.072
-662.989	-30.081	-0.158	-0.090
-661.974	-48.705	-0.177	0.085
-660.959	-126.423	0.463	0.069
-659.945	81.786	0.332	0.361
-658.930	302.403	0.241	-0.447
-657.916	-200.000	0.039	-0.263
-656.901	-48.184	0.288	0.139
-655.886	-34.085	-0.300	0.165
-654.872	61.781	0.060	-0.060
-653.857	172.316	-0.173	-0.249
-652.843	605.318	-0.065	-0.162
-651.828	454.453	-0.087	-0.193
-650.814	-52.696	0.175	0.081
-649.799	121.341	-0.080	0.099
-648.784	800.000	0.087	-0.345
-647.770	-136.221	-0.255	-0.030
-646.755	-34.456	-0.282	-0.155
-645.741	-56.063	-0.184	-0.082
-644.726	371.665	0.211	0.429
-643.711	-200.000	-0.059	0.343
-642.697	-28.511	-0.198	-0.114
-641.682	1.638	-0.063	0.046
-640.668	-127.949	0.049	0.007
-639.653	-200.000	-0.006	-0.166
-638.638	-137.267	-0.082	-0.009
-637.624	-81.470	0.139	0.046
-636.609	50.123	0.209	-0.198
-635.595	800.000	0.056	0.189
-634.580	232.006	0.127	0.209
-633.565	-11.749	-0.096	0.063
-632.551	800.000	-0.084	0.278
-631.536	-114.751	-0.174	0.033
-630.522	6.520	0.093	-0.069
-629.507	32.327	-0.214	-0.185
-628.492	205.987	-0.109	-0.169
-627.478	-91.758	-0.035	-0.010
-626.463	-131.163	-0.261	-0.035
-625.449	-0.512	0.294	-0.209
-624.434	-149.231	-0.195	0.016
-623.419	-132.095	-0.109	0.014
-622.405	8.243	0.210	0.158
-621.390	627.736	0.058	-0.146
-620.376	-112.964	0.170	0.034
-619.361	-183.861	-0.322	0.005
-618.346	-200.000	0.295	0.001
-617.332	195.430	0.071	0.108
-616.317	-159.852	-0.125	0.007
-615.303	800.000	0.016	-0.063
-614.288	-31.051	-0.332	-0.187
-613.273	-85.003	-0.077	-0.024
-612.259	-138.195	-0.032	-0.003
-611.244	-36.857	-0.173	-0.093
-610.230	98.024	-0.040	0.046
-609.215	58.960	-0.220	0.217
-608.201	-70.019	0.320	-0.122
-607.186	11.386	0.119	-0.092
-606.171	7.747	-0.131	-0.098
-605.157	390.254	0.086	-0.179
-604.142	-44.619	-0.308	0.154
-603.128	76.990	0.107	-0.113
-602.113	157.538	0.137	-0.190
-601.098	427.889	-0.140	-0.302
-600.084	89.746	-0.172	-0.192
-599.069	-33.086	-0.186	0.103
-598.055	-200.000	-0.036	0.264
-597.040	-129.808	-0.180	0.025
-596.025	800.000	0.025	0.094
-595.011	11.962	-0.188	0.145
-593.996	-83.764	-0.091	0.029
-592.982	-76.151	-0.335	0.118
-591.967	-200.000	0.039	-0.214
-590.952	-200.000	0.008	-0.089
-589.938	-16.073	-0.108	-0.069
-588.923	266.992	0.141	0.247
-587.909	-28.542	-0.114	0.066
-586.894	101.399	-0.141	0.164
-585.879	-200.000	-0.020	-0.088
-584.865	-9.942	0.187	-0.124
-583.850	-20.132	0.132	-0.081
-582.836	-200.000	-0.067	-0.602
-581.821	118.527	0.197	0.244
-580.806	-200.000	0.039	0.214
-579.792	191.034	-0.248	0.372
-578.777	167.494	0.073	-0.104
-577.763	-70.288	-0.065	0.025
-576.748	-104.547	0.188	0.043
-575.733	402.514	-0.127	-0.267
-574.719	-161.614	-0.128	-0.007
-573.704	-35.053	0.114	-0.062
-572.690	-200.000	-0.010	0.056
-571.675	-8.845	-0.187	-0.125
-570.661	-139.488	0.182	-0.019
-569.646	-200.000	-0.021	0.217
-568.631	-67.093	0.214	-0.084
-567.617	-161.764	-0.150	0.008
-566.602	256.979	0.177	0.305
-565.588	59.206	-0.081	-0.080
-564.573	-5.976	0.166	0.113
-563.558	273.093	-0.100	-0.176
-562.544	-42.650	-0.054	-0.027
-561.529	800.000	-0.113	0.437
-560.515	482.871	-0.066	-0.150
-559.500	-69.456	-0.373	0.143
-558.485	154.709	0.113	-0.155
-557.471	-70.032	-0.093	0.036
-556.456	-95.894	-0.285	0.076
-555.442	80.684	0.308	-0.331
-554.427	-76.738	0.258	0.090
-553.412	-86.960	-0.047	0.014
-552.398	-70.608	0.314	0.119
-551.383	513.931	-0.094	-0.218
-550.369	284.822	-0.061	0.110
-549.354	137.084	0.118	0.154
-548.339	800.000	-0.030	0.111
-547.325	47.644	-0.091	-0.084
-546.310	-200.000	0.017	-0.095
-545.296	-76.631	0.314	-0.110
-544.281	800.000	0.068	-0.226
-543.266	-200.000	-0.038	-0.598
-542.252	-200.000	0.018	0.159
-541.237	-56.485	0.358	0.158
-540.223	101.910	-0.166	-0.193
-539.208	-87.074	-0.509	0.155
-538.193	800.000	-0.032	0.104
-537.179	800.000	0.054	0.206
-536.164	160.121	0.076	0.106
-535.150	-11.559	-0.149	-0.098
-534.135	113.517	-0.019	0.023
-533.121	-200.000	-0.025	-0.213
-532.106	800.000	0.047	0.193
-531.091	-74.936	0.112	0.040
-530.077	80.622	0.144	-0.155
-529.062	-200.000	0.008	0.255
-528.048	-60.341	0.053	-0.022
-527.033	-127.040	-0.175	0.026
-526.018	-77.159	0.132	0.046
-525.004	113.845	0.197	0.239
-523.989	-200.000	-0.042	0.189
-522.975	-200.000	-0.049	-0.280
-521.960	800.000	-0.081	-0.303
-520.945	-111.815	-0.041	-0.008
-519.931	-200.000	0.014	0.193
-518.916	-200.000	0.005	0.137
-517.902	26.355	-0.200	0.167
-516.887	-164.802	-0.316	-0.014
-515.872	-200.000	0.022	0.174
-514.858	-47.892	-0.211	-0.102
-513.843	-200.000	-0.005	-0.065
-512.829	3.492	0.174	-0.127
-511.814	-140.167	0.219	0.023
-510.799	34.026	-0.101	-0.088
-509.785	-200.000	0.059	-0.372
-508.770	281.817	0.027	-0.048
-507.756	-200.000	-0.027	0.428
-506.741	60.382	0.084	-0.082
-505.726	800.000	0.079	-0.236
-504.712	-200.000	-0.011	0.071
-503.697	19.477	-0.217	0.174
-502.683	-64.407	0.287	-0.116
-501.668	800.000	-0.032	-0.104
-500.653	248.632	0.135	0.228
-499.639	-73.297	0.445	-0.162
-498.624	-110.106	-0.078	-0.016
-497.610	-200.000	-0.030	-0.169
-496.595	491.224	0.138	0.316
-495.581	37.223	-0.422	-0.373
-494.566	-173.349	0.208	0.006
-493.551	-200.000	0.060	0.305
-492.537	-41.944	-0.174	0.089
-491.522	35.343	0.102	-0.089
-490.508	-200.000	-0.011	0.306
-489.493	-67.102	-0.287	0.113
-488.478	10.988	-0.163	-0.124
-487.464	800.000	0.048	0.203
-486.449	-79.565	0.235	-0.079
-485.435	-200.000	-0.007	-0.254
-484.420	421.748	-0.032	-0.068
-483.405	46.796	0.049	0.045
-482.391	-112.774	-0.060	0.012
-481.376	277.164	-0.147	-0.261
-480.362	104.802	-0.136	0.159
-479.347	134.831	-0.177	0.229
-478.332	666.774	-0.106	-0.273
-477.318	-12.110	-0.163	-0.106
-476.303	440.822	0.238	-0.517
-475.289	22.724	0.029	0.023
-474.274	-38.427	-0.271	0.143
-473.259	-52.598	-0.147	0.068
-472.245	800.000	0.007	0.031
-471.230	-200.000	-0.136	0.000
-470.216	633.633	-0.137	-0.345
-469.201	-200.000	0.058	-0.000
-468.186	-70.912	0.168	-0.063
-467.172	-75.452	0.077	0.027
-466.157	35.678	-0.110	0.096
-465.143	-160.154	-0.325	-0.018
-464.128	40.591	0.187	-0.168
-463.113	-16.003	0.155	-0.098
-462.099	-67.667	0.249	0.097
-461.084	-140.664	0.282	0.029
-460.070	237.718	0.081	0.134
-459.055	800.000	-0.082	0.337
-458.040	-17.068	-0.262	-0.165
-457.026	62.902	-0.040	-0.040
-456.011	-128.583	0.282	0.040
-454.997	-167.742	0.427	-0.017
-453.982	-200.000	0.025	-0.194
-452.968	-78.358	0.143	-0.049
-451.953	-162.903	0.136	0.007
-450.938	-49.162	-0.166	0.079
-449.924	103.080	0.092	0.107
-448.909	-152.641	0.229	0.016
-447.895	-200.000	-0.035	-0.399
-446.880	-145.480	0.166	-0.015
-445.865	48.236	0.125	0.116
-444.851	-98.630	-0.220	-0.056
-443.836	607.187	0.031	0.077
-442.822	-200.000	0.018	0.170
-441.807	452.902	0.098	-0.216
-440.792	-35.683	-0.063	0.034
-439.778	102.955	-0.208	0.243
-438.763	-35.949	-0.333	0.179
-437.749	47.611	-0.228	-0.211
-436.734	225.647	-0.067	0.108
-435.719	-6.196	-0.086	0.058
-434.705	-35.874	-0.016	-0.008
-433.690	137.758	-0.183	-0.238
-432.676	597.747	-0.044	-0.108
-431.661	-12.857	-0.184	0.119
-430.646	96.312	-0.195	-0.222
-429.632	62.801	-0.197	-0.196
-428.617	356.990	-0.133	0.264
-427.603	52.951	0.275	0.262
-426.588	146.233	-0.027	0.036
-425.573	22.412	-0.250	-0.203
-424.559	130.969	0.074	-0.095
-423.544	15.042	0.273	0.212
-422.530	-143.303	-0.096	0.009
-421.515	608.248	-0.152	-0.377
-420.500	38.925	0.048	0.043
-419.486	96.454	0.163	0.185
-418.471	800.000	-0.030	-0.126
-417.457	-200.000	0.039	-0.220
-416.442	94.418	-0.154	0.174
-415.428	202.961	0.161	0.247
-414.413	-101.008	-0.176	-0.043
-413.398	-121.322	0.188	0.031
-412.384	-200.000	0.021	-0.173
-411.369	-154.660	-0.165	0.011
-410.355	800.000	-0.085	-0.275
-409.340	-200.000	0.015	0.328
-408.325	-69.634	0.275	0.105
-407.311	-200.000	0.002	-0.107
-406.296	-200.000	-0.083	0.443
-405.282	39.742	0.356	-0.317
-404.267	-200.000	-0.061	-0.284
-403.252	800.000	-0.033	0.141
-402.238	-51.559	0.220	-0.102
-401.223	-78.709	0.366	0.124
-400.209	-146.391	-0.298	-0.026
-399.194	-200.000	-0.008	-0.262
-398.179	-71.886	0.096	-0.036
-397.165	23.883	-0.324	0.265
-396.150	-200.000	0.103	0.000
-395.136	706.297	0.125	0.327
-394.121	-101.684	-0.241	0.058
-393.106	-160.312	0.099	-0.005
-392.092	-200.000	-0.006	-0.177
-391.077	683.390	-0.033	-0.085
-390.063	-200.000	0.011	0.122
-389.048	-200.000	0.016	-0.186
-388.033	29.656	-0.170	0.144
-387.019	160.302	-0.165	0.228
-386.004	420.128	0.128	0.273
-384.990	-2.023	0.309	0.216
-383.975	-47.036	-0.337	0.163
-382.960	158.158	-0.141	0.194
-381.946	24.090	-0.224	-0.183
-380.931	-82.393	-0.311	0.100
-379.917	-55.583	-0.127	0.057
-378.902	-92.637	0.283	-0.079
-377.888	-24.438	0.213	0.126
-376.873	513.770	0.029	-0.068
-375.858	46.858	0.102	0.094
-374.844	800.000	0.027	0.085
-373.829	-89.852	-0.112	0.032
-372.815	429.869	0.139	-0.297
-371.800	21.404	0.106	-0.086
-370.785	58.759	0.056	0.055
-369.771	-200.000	0.080	0.476
-368.756	-64.717	-0.243	-0.098
-367.742	-64.838	0.260	0.104
-366.727	4.614	-0.242	0.176
-365.712	-148.410	0.212	-0.017
-364.698	-64.047	0.091	0.037
-363.683	-125.668	0.319	0.048
-362.669	266.065	-0.126	0.217
-361.654	-200.000	-0.024	0.175
-360.639	-113.343	0.177	-0.034
-359.625	304.982	0.056	-0.104
-358.610	-60.570	0.282	0.118
-357.596	-56.801	-0.308	0.135
-356.581	-200.000	-0.007	-0.080
-355.566	-60.783	-0.114	0.048
-354.552	96.510	0.246	-0.279
-353.537	-168.784	0.283	-0.011
-352.523	-81.435	0.279	-0.091
-351.508	-200.000	0.003	-0.215
-350.493	-140.594	-0.273	0.028
-349.479	800.000	-0.035	-0.122
-348.464	-0.243	-0.289	0.203
-347.450	-7.860	0.168	0.112
-346.435	-77.106	0.319	0.110
-345.420	-170.469	-0.175	0.006
-344.406	396.089	-0.040	-0.083
-343.391	-200.000	0.040	-0.261
-342.377	-200.000	-0.006	-0.281
-341.362	2.568	0.103	-0.074
-340.348	-77.923	0.093	-0.032
-339.333	800.000	0.055	0.217
-338.318	293.956	0.115	0.209
-337.304	-200.000	0.033	0.202
-336.289	147.458	0.117	-0.156
-335.275	-200.000	-0.053	-0.478
-334.260	630.265	0.076	0.190
-333.245	109.130	-0.032	0.037
-332.231	166.134	-0.126	0.176
-331.216	39.602	0.058	0.051
-330.202	68.564	0.109	0.111
-329.187	134.938	-0.059	0.076
-328.172	60.010	-0.055	0.054
-327.158	1.443	-0.376	0.267
-326.143	-78.026	0.108	-0.037
-325.129	-83.398	0.108	0.034
-324.114	-22.602	-0.069	0.041
-323.099	196.960	0.120	0.180
-322.085	-43.149	-0.153	-0.077
-321.070	-99.803	0.212	0.053
-320.056	-200.000	-0.025	0.254
-319.041	-26.128	-0.234	-0.136
-318.026	-186.439	-0.454	0.006
-317.012	360.794	-0.078	-0.154
-315.997	123.725	0.125	-0.155
-314.983	-73.521	0.153	-0.055
-313.968	-140.785	0.290	0.030
-312.953	44.032	-0.197	0.178
-311.939	800.000	-0.100	-0.295
-310.924	800.000	0.045	0.141
-309.910	-38.762	-0.148	0.077
-308.895	-114.366	-0.267	-0.051
-307.880	209.395	0.031	0.049
-306.866	274.562	0.061	0.107
-305.851	-200.000	-0.059	-0.263
-304.837	-175.386	-0.272	0.007
-303.822	-86.473	0.336	-0.102
-302.807	-200.000	-0.023	0.192
-301.793	83.394	0.224	0.241
-300.778	64.451	-0.311	-0.310
-299.764	7.671	0.128	-0.094
-298.749	-107.743	-0.326	-0.070
-297.735	53.971	-0.218	0.207
-296.720	-56.931	0.224	0.098
-295.705	-200.000	0.026	-0.328
-294.691	51.186	0.169	0.158
-293.676	-104.696	-0.092	-0.021
-292.662	-200.000	0.047	-0.298
-291.647	181.237	0.181	0.263
-290.632	115.419	0.248	0.299
-289.618	-27.315	0.206	0.118
-288.603	-101.243	0.258	0.062
-287.589	142.904	-0.111	0.146
-286.574	-200.000	0.011	-0.061
-285.559	256.397	0.129	0.219
-284.545	-47.736	0.134	-0.064
-283.530	-200.000	-0.010	-0.420
-282.516	800.000	0.086	-0.238
-281.501	327.975	-0.118	-0.223
-280.486	545.840	0.037	0.087
-279.472	-61.102	-0.248	0.103
-278.457	44.185	-0.212	-0.192
-277.443	191.611	0.072	-0.106
-276.428	65.862	0.222	-0.222
-275.413	-62.640	0.417	0.171
-274.399	54.920	-0.079	0.075
-273.384	800.000	0.036	0.150
-272.370	121.287	-0.036	0.045
-271.355	-43.207	0.179	-0.089
-270.340	-27.263	0.119	0.068
-269.326	-66.588	0.111	0.044
-268.311	573.146	0.131	-0.315
-267.297	-200.000	-0.010	-0.084
-266.282	-200.000	-0.016	-0.140
-265.267	-200.000	0.043	-0.248
-264.253	-121.949	-0.403	-0.065
-263.238	-200.000	-0.024	-0.131
-262.224	-9.408	-0.040	-0.026
-261.209	800.000	0.046	-0.137
-260.195	-3.178	0.196	0.135
-259.180	-200.000	0.035	0.178
-258.165	-200.000	0.006	0.078
-257.151	85.366	-0.188	0.204
-256.136	517.710	0.160	-0.369
-255.122	14.283	0.081	-0.063
-254.107	19.304	-0.049	-0.039
-253.092	-74.233	0.102	-0.036
-252.078	-9.446	-0.298	0.196
-251.063	-38.747	-0.297	0.155
-250.049	22.648	-0.044	-0.036
-249.034	129.925	-0.193	0.244
-248.019	-89.303	-0.239	0.069
-247.005	-131.492	-0.103	0.013
-245.990	800.000	0.084	-0.347
-244.976	-80.560	-0.072	-0.024
-243.961	-50.592	-0.074	0.035
-242.946	-200.000	0.046	-0.213
-241.932	44.388	0.197	-0.178
-240.917	-29.446	0.164	-0.093
-239.903	-121.943	0.112	-0.018
-238.888	114.828	-0.101	-0.121
-237.873	417.413	-0.115	-0.242
-236.859	-200.000	-0.047	0.207
-235.844	-116.471	0.130	0.024
-234.830	-200.000	-0.036	0.268
-233.815	-9.918	0.210	-0.138
-232.800	-47.510	-0.274	-0.131
-231.786	57.775	-0.149	0.144
-230.771	-51.100	0.118	-0.055
-229.757	-89.915	0.068	-0.020
-228.742	-60.052	0.224	-0.094
-227.727	-200.000	-0.009	-0.341
-226.713	42.889	-0.104	0.093
-225.698	371.301	0.099	0.198
-224.684	-46.641	-0.078	0.038
-223.669	-200.000	0.016	0.088
-222.655	-109.211	0.158	-0.033
-221.640	-109.863	0.044	-0.009
-220.625	-91.765	-0.190	-0.053
-219.611	-200.000	0.013	0.066
-218.596	-97.661	-0.238	-0.061
-217.582	-114.652	-0.047	0.009
-216.567	76.089	-0.257	-0.268
-215.552	49.180	0.171	-0.158
-214.538	-126.964	0.082	-0.012
-213.523	8.559	0.234	-0.174
-212.509	-192.569	-0.139	-0.001
-211.494	-83.594	0.211	-0.066
-210.479	14.504	-0.190	-0.146
-209.465	-13.613	0.215	-0.137
-208.450	800.000	0.048	-0.133
-207.436	-200.000	-0.029	-0.282
-206.421	-31.093	-0.135	-0.075
-205.406	147.746	0.066	-0.088
-204.392	-200.000	-0.032	-0.182
-203.377	-45.233	0.136	-0.066
-202.363	-78.437	-0.285	0.096
-201.348	-48.702	0.147	-0.070
-200.333	-200.000	0.022	-0.229
-199.319	43.015	0.114	-0.102
-198.304	559.089	-0.166	-0.394
-197.290	-63.489	0.159	0.064
-196.275	-200.000	-0.026	0.236
-195.260	-200.000	0.099	0.479
-194.246	-200.000	0.029	0.331
-193.231	800.000	-0.102	-0.294
-192.217	578.426	0.100	0.241
-191.202	800.000	0.058	0.183
-190.187	99.355	-0.313	0.356
-189.173	-3.674	0.078	0.053
-188.158	-165.495	-0.133	-0.006
-187.144	-133.214	-0.114	0.014
-186.129	-157.517	-0.197	-0.012
-185.114	-20.378	-0.184	-0.111
-184.100	-109.489	0.333	0.069
-183.085	150.751	-0.095	-0.127
-182.071	-32.267	-0.244	0.134
-181.056	800.000	-0.059	0.205
-180.042	-200.000	-0.021	0.116
-179.027	800.000	-0.077	0.294
-178.012	589.660	0.089	0.216
-176.998	-87.263	-0.074	-0.022
-175.983	64.805	0.158	-0.157
-174.969	-200.000	-0.029	0.145
-173.954	-200.000	0.012	-0.072
-172.939	19.492	0.258	-0.204
-171.925	-114.729	0.319	0.060
-170.910	-127.649	-0.218	-0.031
-169.896	-64.153	0.224	0.090
-168.881	-32.534	0.059	0.032
-167.866	-81.881	0.155	0.050
-166.852	-200.000	-0.025	0.146
-165.837	213.641	-0.162	0.253
-164.823	61.869	0.093	0.091
-163.808	12.833	0.204	-0.155
-162.793	-200.000	-0.000	-0.051
-161.779	-145.930	0.244	0.021
-160.764	-173.224	0.076	-0.002
-159.750	-200.000	0.011	-0.054
-158.735	252.468	0.139	-0.233
-157.720	-5.903	0.264	-0.178
-156.706	101.176	0.223	0.255
-155.691	286.434	0.075	0.133
-154.677	-77.913	0.408	0.138
-153.662	800.000	0.066	0.255
-152.647	-4.544	-0.084	-0.057
-151.633	248.793	0.068	0.113
-150.618	166.573	-0.092	-0.128
-149.604	-200.000	0.060	0.341
-148.589	762.012	-0.015	0.039
-147.574	101.298	0.342	-0.391
-146.560	-3.019	0.193	-0.132
-145.545	298.205	-0.051	0.091
-144.531	-100.599	0.267	0.065
-143.516	6.996	0.064	-0.047
-142.502	112.446	0.113	-0.134
-141.487	39.795	-0.040	0.036
-140.472	-200.000	0.015	-0.321
-139.458	-200.000	-0.009	0.111
-138.443	800.000	-0.095	0.320
-137.429	-200.000	-0.044	-0.207
-136.414	-117.564	0.204	0.036
-135.399	7.663	-0.154	0.113
-134.385	-76.729	-0.210	0.072
-133.370	800.000	0.085	-0.305
-132.356	243.973	0.157	0.258
-131.341	251.578	-0.201	0.336
-130.326	-155.302	0.440	-0.028
-129.312	-200.000	0.018	0.220
-128.297	800.000	-0.038	-0.115
-127.283	-104.768	0.325	-0.073
-126.268	270.742	-0.267	-0.462
-125.253	456.596	0.106	-0.231
-124.239	476.806	-0.034	0.076
-123.224	-102.691	-0.147	-0.034
-122.210	-200.000	0.010	0.092
-121.195	-19.914	-0.203	0.123
-120.180	66.421	-0.170	0.170
-119.166	156.763	-0.035	-0.047
-118.151	-200.000	-0.025	0.169
-117.137	282.925	-0.166	0.292
-116.122	-200.000	0.024	-0.108
-115.107	-18.872	0.115	0.070
-114.093	-92.719	0.136	0.037
-113.078	597.302	0.144	0.349
-112.064	92.335	0.193	-0.213
-111.049	202.099	0.090	-0.136
-110.034	159.701	-0.140	0.191
-109.020	183.872	-0.227	0.329
-108.005	800.000	-0.037	-0.110
-106.991	-200.000	0.016	0.256
-105.976	714.912	0.134	0.348
-104.962	-136.765	-0.224	0.025
-103.947	-200.000	-0.048	-0.233
-102.932	-91.144	-0.341	0.096
-101.918	-18.316	0.086	0.053
-100.903	-151.369	0.218	0.016
-99.889	-0.114	-0.297	0.207
-98.874	406.083	0.108	-0.224
-97.859	-75.507	0.324	-0.113
-96.845	53.059	0.113	-0.106
-95.830	-101.405	0.164	0.039
-94.816	26.662	-0.098	0.080
-93.801	96.891	0.133	-0.149
-92.786	-30.025	-0.367	0.205
-91.772	327.599	0.138	0.260
-90.757	-105.392	-0.155	-0.034
-89.743	687.853	0.014	0.036
-88.728	419.967	-0.116	0.244
-87.713	800.000	-0.081	0.303
-86.699	53.893	-0.065	0.061
-85.684	406.354	-0.067	-0.138
-84.670	-171.944	-0.170	-0.005
-83.655	-102.899	0.068	-0.016
-82.640	-66.410	0.203	-0.079
-81.626	-200.000	-0.012	-0.264
-80.611	800.000	0.118	-0.341
-79.597	25.312	-0.085	0.070
-78.582	265.590	0.181	0.310
-77.567	-158.204	-0.168	0.010
-76.553	-27.464	0.229	0.131
-75.538	31.035	0.363	-0.305
-74.524	39.541	-0.223	0.196
-73.509	-103.720	-0.144	-0.033
-72.494	105.872	0.212	-0.245
-71.480	45.591	-0.096	0.087
-70.465	206.887	0.161	-0.246
-69.451	175.183	0.104	-0.148
-68.436	-94.968	0.337	-0.089
-67.422	168.523	-0.174	-0.243
-66.407	-200.000	-0.325	0.001
-65.392	374.277	0.031	0.063
-64.378	-200.000	0.060	-0.290
-63.363	210.743	-0.067	-0.102
-62.349	-200.000	0.025	0.131
-61.334	25.677	-1.021	-0.832
-60.319	649.144	0.290	0.725
-59.305	-200.000	-0.250	-1.265
-58.290	800.000	0.346	1.210
-57.276	800.000	0.634	1.721
-56.261	-200.000	95.587	585.155
-55.246	553.419	1367.234	3217.951
-54.232	164.725	2539.014	3507.083
-53.217	107.205	2254.636	2623.680
-52.203	41.636	1888.183	1674.334
-51.188	35.628	1681.303	1445.796
-50.173	32.990	1638.377	1389.449
-49.159	50.563	1685.937	1561.235
-48.144	52.105	1702.280	1587.801
-47.130	35.272	1663.713	1427.795
-46.115	32.522	1649.563	1395.250
-45.100	32.417	1644.673	1390.281
-44.086	32.419	1642.058	1388.032
-43.071	32.354	1639.034	1384.945
-42.057	32.349	1637.317	1383.402
-41.042	32.323	1635.161	1381.331
-40.027	32.347	1633.036	1379.659
-39.013	32.322	1631.386	1378.026
-37.998	32.276	1629.794	1376.292
-36.984	32.378	1628.301	1375.717
-35.969	32.398	1627.056	1374.761
-34.954	32.507	1625.111	1373.855
-33.940	32.387	1623.649	1371.694
-32.925	32.320	1622.025	1369.780
-31.911	32.372	1620.417	1368.743
-30.896	32.422	1618.275	1367.247
-29.881	32.428	1617.177	1366.306
-28.867	32.359	1615.613	1364.430
-27.852	32.443	1613.925	1363.561
-26.838	32.349	1612.833	1361.898
-25.823	32.386	1611.494	1360.984
-24.809	32.451	1609.681	1359.866
-23.794	32.467	1608.288	1358.754
-22.779	32.448	1607.086	1357.544
-21.765	32.464	1605.352	1356.143
-20.750	32.370	1604.259	1354.490
-19.736	32.437	1602.574	1353.491
-18.721	32.437	1601.045	1352.149
-17.706	32.509	1599.253	1351.097
-16.692	32.444	1597.745	1349.304
-15.677	32.401	1596.950	1348.269
-14.663	32.496	1595.553	1347.717
-13.648	32.494	1594.221	1346.529
-12.633	32.499	1592.144	1344.755
-11.619	32.511	1591.150	1343.945
-10.604	32.576	1589.107	1342.634
-9.590	32.545	1587.848	1341.294
-8.575	32.601	1586.619	1340.604
-7.560	32.565	1585.390	1339.255
-6.546	32.525	1584.596	1338.248
-5.531	32.529	1583.815	1337.563
-4.517	32.415	1582.786	1335.830
-3.502	32.490	1581.168	1334.945
-2.487	32.483	1579.595	1333.515
-1.473	31.987	1567.011	1319.351
-0.458	28.451	1545.845	1276.901
0.556	21.608	1544.903	1237.627
1.571	18.798	1567.294	1235.277
2.586	18.161	1580.169	1240.695
3.600	16.808	1530.621	1192.170
4.615	12.812	1431.515	1088.538
5.629	8.800	1373.397	1018.783
6.644	8.078	1365.670	1008.392
7.659	7.958	1364.582	1006.741
8.673	7.955	1363.139	1005.565
9.688	7.860	1361.061	1003.347
10.702	7.723	1358.101	1000.217
11.717	9.747	1361.160	1015.128
12.731	14.039	1369.436	1048.338
13.746	16.967	1373.804	1070.084
14.761	17.105	1372.373	1069.748
15.775	15.973	1369.715	1060.460
16.790	14.925	1367.558	1052.101
17.804	14.183	1364.660	1045.125
18.819	13.659	1363.230	1040.644
19.834	13.434	1362.097	1038.279
20.848	13.172	1360.840	1035.583
21.863	12.929	1359.685	1033.095
22.877	12.799	1358.435	1031.241
23.892	12.792	1357.347	1030.276
24.907	12.812	1356.610	1029.751
25.921	12.813	1355.906	1029.129
26.936	12.879	1354.612	1028.468
27.950	12.922	1353.735	1027.980
28.965	12.833	1352.869	1026.677
29.980	12.942	1351.870	1026.510
30.994	13.167	1350.551	1026.814
32.009	13.076	1349.298	1025.204
33.023	12.995	1348.492	1023.999
34.038	12.971	1346.919	1022.567
35.053	12.973	1345.659	1021.532
36.067	12.901	1345.221	1020.662
37.082	12.948	1343.419	1019.494
38.096	13.094	1342.544	1019.641
39.111	13.070	1341.639	1018.719
40.126	12.901	1340.752	1016.913
41.140	12.792	1340.244	1015.764
42.155	12.769	1339.956	1015.317
43.169	12.747	1339.957	1015.088
44.184	12.780	1339.550	1014.897
45.199	12.775	1338.798	1014.207
46.213	12.841	1338.253	1014.111
47.228	12.909	1337.637	1013.971
48.242	12.875	1336.667	1012.935
49.257	12.935	1334.471	1011.550
50.271	12.841	1333.460	1010.121
51.286	12.973	1331.752	1009.541
52.301	12.913	1331.018	1008.529
53.315	12.840	1330.099	1007.298
54.330	12.886	1328.449	1006.241
55.344	12.853	1327.216	1005.015
56.359	12.787	1326.560	1004.028
57.374	12.736	1326.089	1003.272
58.388	12.716	1325.147	1002.349
59.403	12.747	1324.202	1001.736
60.417	12.715	1323.767	1001.122
61.432	12.661	1323.327	1000.373
62.447	12.627	1322.413	999.388
63.461	12.570	1321.430	998.212
64.476	12.560	1319.963	996.951
65.490	12.599	1318.638	996.101
66.505	12.718	1317.096	995.567
67.520	12.657	1315.622	993.997
68.534	12.698	1314.759	993.505
69.549	12.755	1313.641	992.915
70.563	12.619	1312.975	991.503
71.578	12.616	1311.837	990.536
72.593	12.578	1310.663	989.338
73.607	12.482	1310.217	988.333
74.622	12.545	1309.540	988.118
75.636	12.628	1308.618	987.833
76.651	12.575	1308.335	987.212
77.666	12.513	1307.616	986.211
78.680	12.685	1307.346	986.951
79.695	12.763	1306.005	986.316
80.709	12.649	1305.759	985.363
81.724	12.772	1304.369	984.958
82.739	12.784	1303.601	984.369
83.753	12.863	1302.663	984.041
84.768	12.901	1301.724	983.469
85.782	12.931	1300.418	982.574
86.797	12.865	1299.127	981.123
87.812	12.802	1298.367	980.086
88.826	12.709	1297.455	978.761
89.841	12.939	1295.976	978.921
90.855	12.885	1295.094	977.848
91.870	13.029	1293.999	977.791
92.884	12.970	1293.287	976.812
93.899	12.952	1292.578	976.084
94.914	13.063	1291.571	975.896
95.928	13.035	1290.694	974.983
96.943	13.065	1290.069	974.599
97.957	13.064	1288.817	973.559
98.972	13.095	1287.877	972.947
99.987	12.991	1287.087	971.654
101.001	12.900	1285.894	970.131
102.016	12.972	1285.068	969.845
103.030	13.007	1284.123	969.255
104.045	12.937	1283.442	968.239
105.060	12.958	1282.277	967.400
106.074	12.898	1280.230	965.421
107.089	12.789	1278.743	963.575
108.103	12.730	1277.680	962.344
109.118	12.688	1277.185	961.642
110.133	12.751	1275.606	960.734
111.147	12.711	1274.299	959.434
112.162	12.785	1273.131	958.896
113.176	12.681	1272.530	957.755
114.191	12.829	1271.245	957.562
115.206	12.874	1269.768	956.627
116.220	12.852	1268.355	955.352
117.235	12.850	1267.358	954.503
118.249	12.786	1266.481	953.391
119.264	12.783	1265.401	952.471
120.279	12.743	1264.490	951.471
121.293	12.705	1263.320	950.286
122.308	12.676	1263.026	949.814
123.322	12.647	1261.460	948.389
124.337	12.721	1260.732	948.182
125.352	12.684	1259.282	946.796
126.366	12.690	1258.210	945.939
127.381	12.656	1257.191	944.893
128.395	12.696	1255.849	944.033
129.410	12.795	1254.966	943.852
130.424	12.766	1254.500	943.253
131.439	12.828	1253.675	942.902
132.454	12.832	1252.964	942.306
133.468	12.862	1251.622	941.385
134.483	12.876	1250.839	940.796
135.497	12.746	1250.334	939.589
136.512	12.820	1248.819	938.787
137.527	12.821	1247.370	937.623
138.541	12.907	1245.949	936.959
139.556	12.985	1244.605	936.311
140.570	12.936	1243.663	935.241
141.585	13.094	1242.630	935.276
142.600	12.949	1241.520	933.539
143.614	13.028	1240.661	933.255
144.629	13.100	1239.663	932.828
145.643	13.018	1238.728	931.579
146.658	12.992	1237.508	930.433
147.673	12.909	1236.130	928.848
148.687	13.017	1234.476	928.127
149.702	12.918	1233.772	926.963
150.716	12.924	1232.346	925.840
151.731	12.938	1231.168	924.954
152.746	12.921	1230.266	924.097
153.760	13.037	1228.899	923.641
154.775	13.041	1228.003	922.907
155.789	13.085	1227.150	922.429
156.804	13.057	1226.450	921.668
157.819	13.152	1225.234	921.201
158.833	13.215	1224.268	920.742
159.848	13.230	1223.220	919.957
160.862	13.099	1222.350	918.492
161.877	13.036	1221.316	917.283
162.892	13.098	1220.065	916.611
163.906	13.022	1219.046	915.338
164.921	12.989	1218.282	914.502
165.935	13.118	1217.602	914.627
166.950	13.158	1216.559	913.985
167.964	13.102	1216.156	913.287
168.979	13.109	1215.338	912.630
169.994	13.279	1214.148	912.595
171.008	13.157	1213.581	911.415
172.023	13.227	1213.216	911.450
173.037	13.255	1212.082	910.672
174.052	13.316	1211.575	910.543
175.067	13.144	1210.019	908.350
176.081	13.049	1209.685	907.497
177.096	13.035	1209.000	906.823
178.110	13.134	1207.437	906.113
179.125	13.117	1206.521	905.255
180.140	13.199	1204.901	904.409
181.154	13.245	1203.585	903.591
182.169	13.315	1202.527	903.099
183.183	13.392	1201.274	902.498
184.198	13.357	1200.484	901.634
185.213	13.402	1199.403	900.986
186.227	13.352	1198.269	899.784
187.242	13.430	1197.087	899.238
188.256	13.470	1196.375	898.844
189.271	13.480	1195.371	898.061
190.286	13.303	1194.579	896.431
191.300	13.241	1193.249	895.018
192.315	13.118	1192.806	893.941
193.329	13.082	1192.101	893.135
194.344	13.170	1191.404	893.013
195.359	13.150	1191.154	892.635
196.373	13.310	1190.618	893.021
197.388	13.439	1189.826	893.045
198.402	13.659	1189.062	893.577
199.417	13.637	1188.627	893.054
200.432	13.691	1188.188	892.934
201.446	13.663	1186.652	891.550
202.461	13.779	1185.994	891.601
203.475	13.820	1184.941	890.951
204.490	13.700	1183.439	889.101
205.504	13.465	1182.515	887.067
206.519	13.597	1181.158	886.676
207.534	13.600	1180.140	885.851
208.548	13.583	1179.778	885.409
209.563	13.446	1178.843	883.898
210.577	13.664	1177.537	884.005
211.592	13.780	1176.839	884.019
212.607	13.615	1176.286	882.649
213.621	13.646	1175.021	881.785
214.636	13.824	1173.804	881.736
215.650	13.749	1173.162	880.779
216.665	13.618	1172.745	879.693
217.680	13.739	1171.768	879.523
218.694	13.741	1170.871	878.784
219.709	13.832	1169.805	878.390
220.723	13.816	1169.334	877.870
221.738	13.784	1168.939	877.329
222.753	13.835	1167.999	876.817
223.767	13.879	1167.056	876.264
224.782	13.858	1166.617	875.742
225.796	13.964	1165.678	875.518
226.811	13.947	1165.139	874.946
227.826	13.896	1164.788	874.337
228.840	14.022	1163.819	874.198
229.855	14.024	1162.917	873.454
230.869	13.857	1162.521	872.201
231.884	13.888	1161.031	871.167
232.899	13.963	1160.587	871.150
233.913	13.883	1159.542	869.872
234.928	13.764	1159.337	869.018
235.942	13.858	1158.434	868.754
236.957	13.846	1157.502	867.914
237.972	13.974	1156.786	867.972
238.986	13.884	1156.252	867.024
240.001	13.916	1155.753	866.737
241.015	13.926	1154.711	865.934
242.030	14.000	1153.796	865.556
243.045	14.094	1153.121	865.464
244.059	13.980	1152.619	864.417
245.074	14.067	1151.718	864.118
246.088	14.026	1151.186	863.427
247.103	14.246	1149.640	863.331
248.117	14.245	1149.261	862.968
249.132	14.253	1148.661	862.479
250.147	14.318	1148.100	862.320
251.161	14.341	1147.726	862.084
252.176	14.363	1146.839	861.454
253.190	14.436	1146.091	861.192
254.205	14.611	1145.209	861.357
255.220	14.516	1144.713	860.415
256.234	14.505	1144.383	860.035
257.249	14.554	1143.613	859.632
258.263	14.542	1142.790	858.877
259.278	14.524	1142.360	858.387
260.293	14.419	1141.956	857.466
261.307	14.600	1141.156	857.720
262.322	14.627	1140.715	857.450
263.336	14.519	1140.536	856.686
264.351	14.580	1139.747	856.330
265.366	14.724	1138.616	856.145
266.380	14.710	1138.223	855.701
267.395	14.568	1137.307	854.210
268.409	14.649	1136.429	853.888
269.424	14.557	1135.458	852.611
270.439	14.668	1134.788	852.600
271.453	14.635	1134.187	851.908
272.468	14.702	1133.296	851.502
273.482	14.570	1132.428	850.101
274.497	14.706	1131.910	850.334
275.512	14.707	1130.991	849.571
276.526	14.565	1130.700	848.558
277.541	14.697	1129.920	848.564
278.555	14.682	1129.248	847.912
279.570	14.610	1129.196	847.432
280.585	14.755	1127.790	847.037
281.599	14.853	1126.891	846.784
282.614	14.761	1125.896	845.492
283.628	14.660	1124.901	844.163
284.643	14.803	1123.956	844.096
285.657	14.840	1123.057	843.536
286.672	14.748	1122.317	842.441
287.687	14.824	1121.097	841.836
288.701	14.849	1120.545	841.471
289.716	14.929	1119.716	841.179
290.730	14.932	1119.135	840.680
291.745	14.896	1118.414	839.885
292.760	14.834	1118.296	839.411
293.774	15.000	1117.473	839.550
294.789	15.117	1116.615	839.416
295.803	15.176	1115.277	838.635
296.818	15.023	1115.193	837.732
297.833	14.878	1114.714	836.569
298.847	14.868	1113.846	835.795
299.862	14.966	1113.115	835.661
300.876	15.024	1112.119	835.130
301.891	15.030	1111.892	834.914
302.906	15.075	1110.988	834.385
303.920	15.181	1109.859	833.992
304.935	15.194	1109.845	833.975
305.949	15.231	1109.146	833.560
306.964	15.302	1108.215	833.137
307.979	15.147	1107.860	832.025
308.993	15.219	1106.738	831.466
310.008	15.261	1105.699	830.823
311.022	15.310	1105.207	830.620
312.037	15.238	1104.510	829.667
313.052	15.225	1103.600	828.846
314.066	15.256	1102.568	828.149
315.081	15.118	1101.797	826.817
316.095	15.192	1100.730	826.309
317.110	15.124	1100.513	825.738
318.125	15.204	1099.555	825.338
319.139	15.155	1098.922	824.549
320.154	15.149	1098.045	823.790
321.168	15.096	1097.860	823.316
322.183	15.164	1097.522	823.326
323.197	15.324	1096.618	823.361
324.212	15.319	1096.033	822.821
325.227	15.393	1095.341	822.593
326.241	15.367	1094.844	822.020
327.256	15.320	1093.942	821.040
328.270	15.223	1092.998	819.783
329.285	15.316	1092.218	819.582
330.300	15.204	1091.382	818.337
331.314	15.269	1090.580	817.979
332.329	15.297	1089.331	817.104
333.343	15.342	1088.494	816.627
334.358	15.424	1087.831	816.455
335.373	15.435	1087.300	816.038
336.387	15.416	1086.420	815.213
337.402	15.387	1085.648	814.420
338.416	15.463	1085.023	814.246
339.431	15.546	1084.472	814.164
340.446	15.571	1083.639	813.588
341.460	15.672	1083.012	813.533
342.475	15.620	1082.404	812.754
343.489	15.730	1081.404	812.465
344.504	15.608	1081.027	811.519
345.519	15.834	1079.538	811.417
346.533	15.826	1078.847	810.789
347.548	15.859	1078.440	810.571
348.562	15.985	1077.235	810.197
349.577	15.714	1076.608	808.351
350.592	15.594	1076.260	807.444
351.606	15.625	1075.304	806.802
352.621	15.682	1074.429	806.349
353.635	15.688	1074.116	806.071
354.650	15.780	1073.206	805.757
355.665	15.722	1072.729	805.052
356.679	15.782	1071.897	804.640
357.694	15.794	1071.242	804.135
358.708	15.850	1070.862	804.048
359.723	15.806	1070.107	803.201
360.738	15.852	1069.417	802.830
361.752	15.868	1068.893	802.440
362.767	15.886	1068.658	802.278
363.781	15.906	1067.737	801.614
364.796	15.912	1067.200	801.166
365.810	16.020	1066.840	801.339
366.825	16.111	1065.944	801.026
367.840	16.094	1065.345	800.426
368.854	16.188	1064.852	800.430
369.869	16.207	1064.102	799.885
370.883	16.093	1063.384	798.738
371.898	16.143	1062.010	797.871
372.913	16.145	1061.797	797.652
373.927	16.038	1061.851	797.115
374.942	16.203	1060.960	797.152
375.956	16.180	1060.435	796.581
376.971	16.095	1059.753	795.594
377.986	16.196	1059.526	795.833
379.000	16.302	1058.430	795.436
380.015	16.367	1058.006	795.355
381.029	16.416	1057.490	795.129
382.044	16.399	1056.719	794.398
383.059	16.367	1055.911	793.568
384.073	16.349	1055.539	793.133
385.088	16.323	1054.291	792.005
386.102	16.437	1053.501	791.873
387.117	16.380	1052.549	790.823
388.132	16.223	1052.161	789.727
389.146	16.390	1051.146	789.677
390.161	16.270	1050.414	788.494
391.175	16.427	1049.328	788.341
392.190	16.363	1049.018	787.741
393.205	16.508	1047.972	787.560
394.219	16.451	1047.456	786.840
395.234	16.434	1046.565	786.023
396.248	16.384	1045.635	785.020
397.263	16.429	1044.292	784.152
398.278	16.312	1044.050	783.359
399.292	16.295	1043.226	782.592
400.307	16.287	1042.473	781.921
401.321	16.384	1042.008	781.953
402.336	16.325	1041.457	781.197
403.350	16.463	1040.237	780.849
404.365	16.357	1039.871	780.017
405.380	16.553	1038.912	780.133
406.394	16.487	1038.473	779.431
407.409	16.500	1037.852	778.953
408.423	16.607	1037.013	778.747
409.438	16.755	1036.205	778.750
410.453	16.697	1036.140	778.366
411.467	16.710	1035.127	777.597
412.482	16.794	1034.697	777.594
413.496	16.758	1033.799	776.681
414.511	16.712	1033.143	775.911
415.526	16.811	1032.630	775.909
416.540	16.887	1032.355	775.982
417.555	16.968	1031.534	775.669
418.569	16.979	1030.797	775.094
419.584	16.804	1030.885	774.290
420.599	16.829	1030.350	773.934
421.613	101.590	1319.151	1459.056
422.628	92.960	1361.196	1459.164
