DTS Sentinel unit serial number:	SN413079Multiplexer serial number:	ORYXHardware model number:	OX4-SRSoftware version number:	ORYX F/W v4.00 Oryx Data Collector v3.7.2.0data status	okinstallation	princeton_trtdifferential loss correction	single-endedforward channel	channel 2reverse channel	N/Adate	2019/09/13time	02:19:34forward acquisition time	60.00reverse acquisition time	0.00gamma	496.2192k internal	0.2334k external	0.2334temperature offset calibration	1.0182default loss term (dB/km)	0.3790temperature slope calibration	1.0000multiplexer offset coefficient	1.0000multiplexer slope coefficient	1.0000fibre end	0.00T internal ref (°C)	27.55T ext. ref 1 (°C)	3.93T ext. ref 2 (°C)	22.33length (m)	temperature (°C)	Stokes	anti-Stokes-747.200	-200.000	0.009	0.292
-746.185	-9.271	-0.282	0.189
-745.171	-23.682	0.188	-0.113
-744.156	-75.165	0.252	0.091
-743.142	800.000	0.008	0.033
-742.127	-133.363	-0.117	-0.015
-741.112	-9.794	0.053	0.035
-740.098	-94.663	-0.212	-0.058
-739.083	115.201	0.118	0.145
-738.069	16.376	-0.188	0.149
-737.054	-65.657	0.425	-0.171
-736.039	88.852	0.191	-0.213
-735.025	343.609	-0.074	0.145
-734.010	-159.937	-0.361	-0.020
-732.996	-200.000	0.069	-0.370
-731.981	176.343	0.038	0.055
-730.966	-7.278	-0.258	0.176
-729.952	103.371	-0.169	-0.199
-728.937	-13.812	-0.306	-0.198
-727.923	254.853	0.088	-0.150
-726.908	100.811	-0.189	0.220
-725.894	-123.836	-0.130	0.021
-724.879	-42.043	0.038	0.020
-723.864	713.872	-0.043	0.116
-722.850	127.260	-0.174	0.221
-721.835	-21.228	-0.231	-0.142
-720.821	166.280	0.205	-0.292
-719.806	91.616	-0.036	0.041
-718.791	168.334	0.049	-0.070
-717.777	-26.933	-0.159	0.093
-716.762	25.775	0.314	-0.263
-715.748	-49.574	0.296	-0.141
-714.733	144.655	0.139	-0.186
-713.718	-105.755	-0.497	0.113
-712.704	800.000	-0.010	0.036
-711.689	-158.715	-0.161	-0.009
-710.675	441.294	0.113	0.247
-709.660	800.000	0.073	0.245
-708.645	-18.054	-0.401	-0.252
-707.631	-2.176	-0.215	-0.151
-706.616	-56.616	-0.004	-0.002
-705.602	-31.566	0.053	0.030
-704.587	665.484	0.007	-0.017
-703.572	-107.338	0.117	0.026
-702.558	476.319	0.054	-0.121
-701.543	160.499	-0.054	0.076
-700.529	-200.000	-0.006	0.030
-699.514	-119.944	-0.345	-0.059
-698.499	-200.000	0.017	-0.103
-697.485	-1.298	0.116	0.082
-696.470	34.920	-0.305	0.268
-695.456	800.000	-0.025	-0.102
-694.441	114.085	-0.100	0.121
-693.426	-53.547	0.268	-0.123
-692.412	-60.522	0.270	-0.115
-691.397	-22.637	-0.244	0.148
-690.383	-111.700	-0.535	0.109
-689.368	-200.000	0.045	0.228
-688.354	137.910	0.224	-0.294
-687.339	-80.866	-0.067	-0.022
-686.324	800.000	0.114	-0.369
-685.310	-68.582	0.149	-0.058
-684.295	-200.000	-0.005	0.234
-683.281	267.101	0.174	0.305
-682.266	-33.778	-0.181	-0.100
-681.251	123.759	-0.299	0.376
-680.237	373.885	-0.043	-0.087
-679.222	-40.432	0.058	-0.030
-678.208	82.656	-0.290	-0.316
-677.193	108.980	-0.072	0.086
-676.178	-134.837	0.046	-0.006
-675.164	-24.440	0.145	0.087
-674.149	271.897	-0.227	0.402
-673.135	800.000	-0.120	0.353
-672.120	65.010	0.319	-0.323
-671.105	324.650	0.070	-0.135
-670.091	-112.480	0.394	-0.079
-669.076	800.000	-0.063	0.214
-668.062	36.128	-0.155	0.137
-667.047	800.000	-0.106	-0.302
-666.032	-200.000	0.004	0.182
-665.018	-141.864	-0.119	-0.012
-664.003	-200.000	-0.023	0.110
-662.989	3.788	-0.160	-0.117
-661.974	-94.524	-0.258	0.070
-660.959	-100.355	0.230	0.057
-659.945	63.435	-0.147	0.148
-658.930	-200.000	-0.022	0.326
-657.916	-116.119	0.418	-0.078
-656.901	178.763	-0.108	0.158
-655.886	334.962	-0.088	0.171
-654.872	-145.295	0.320	0.029
-653.857	-46.733	-0.246	0.120
-652.843	800.000	-0.026	0.100
-651.828	26.231	-0.197	-0.165
-650.814	19.580	0.257	-0.207
-649.799	-51.707	-0.378	-0.177
-648.784	800.000	0.066	0.247
-647.770	-52.568	-0.064	0.030
-646.755	-200.000	-0.010	-0.086
-645.741	-200.000	0.041	0.000
-644.726	800.000	0.055	0.189
-643.711	-200.000	0.032	0.323
-642.697	-200.000	0.027	-0.188
-641.682	800.000	0.079	-0.265
-640.668	212.033	-0.147	0.232
-639.653	-72.706	-0.111	-0.041
-638.638	-114.165	-0.056	-0.011
-637.624	-200.000	-0.008	-0.041
-636.609	-45.550	0.147	-0.073
-635.595	-17.003	-0.165	0.104
-634.580	-200.000	0.001	0.169
-633.565	112.428	-0.153	-0.186
-632.551	-58.376	-0.297	0.129
-631.536	-90.754	0.243	-0.070
-630.522	637.319	0.004	-0.011
-629.507	74.402	0.122	-0.128
-628.492	-44.703	-0.067	-0.033
-627.478	340.157	-0.047	0.093
-626.463	36.460	0.094	-0.083
-625.449	-25.072	-0.292	-0.173
-624.434	737.378	0.063	-0.169
-623.419	90.805	-0.334	0.375
-622.405	216.308	0.088	0.140
-621.390	179.915	-0.060	0.088
-620.376	-200.000	0.080	-0.566
-619.361	-193.993	-0.107	0.001
-618.346	259.103	-0.145	0.250
-617.332	509.579	0.112	-0.260
-616.317	-200.000	-0.013	-0.096
-615.303	26.017	-0.086	-0.072
-614.288	130.770	0.096	-0.123
-613.273	-200.000	0.016	0.171
-612.259	232.233	0.121	0.199
-611.244	-28.233	0.162	-0.093
-610.230	680.231	-0.049	0.127
-609.215	-112.068	-0.391	0.079
-608.201	-58.127	0.166	-0.072
-607.186	462.778	0.123	0.274
-606.171	-46.786	-0.092	-0.045
-605.157	189.455	0.175	-0.263
-604.142	100.085	0.141	-0.164
-603.128	26.579	-0.204	-0.171
-602.113	-136.754	0.182	0.021
-601.098	-91.752	-0.142	0.040
-600.084	102.671	-0.059	0.069
-599.069	-143.817	-0.303	0.029
-598.055	171.157	-0.091	-0.130
-597.040	65.211	0.253	-0.255
-596.025	77.401	0.217	0.231
-595.011	-119.163	0.260	-0.045
-593.996	436.101	-0.134	-0.292
-592.982	800.000	0.076	-0.299
-591.967	-113.582	-0.252	0.049
-590.952	-200.000	0.017	0.196
-589.938	800.000	-0.028	-0.105
-588.923	67.642	-0.173	-0.176
-587.909	800.000	0.155	-0.444
-586.894	-200.000	0.001	0.095
-585.879	-95.957	-0.331	-0.088
-584.865	-200.000	0.047	-0.257
-583.850	-185.250	0.160	-0.002
-582.836	107.793	0.259	0.308
-581.821	-84.034	-0.172	-0.055
-580.806	53.614	-0.150	-0.144
-579.792	-99.154	0.093	-0.023
-578.777	800.000	0.013	0.040
-577.763	800.000	0.069	0.289
-576.748	74.865	0.183	0.192
-575.733	264.929	0.139	0.243
-574.719	-160.081	-0.041	0.002
-573.704	645.274	0.082	-0.210
-572.690	6.279	0.125	-0.092
-571.675	-115.266	-0.096	-0.018
-570.661	-105.245	0.149	-0.034
-569.646	-77.009	-0.171	-0.060
-568.631	577.675	0.068	0.167
-567.617	765.190	0.013	0.035
-566.602	-94.607	-0.051	-0.014
-565.588	-69.965	-0.041	-0.016
-564.573	800.000	0.093	-0.320
-563.558	269.591	-0.145	0.253
-562.544	284.143	0.117	0.209
-561.529	287.402	-0.152	0.273
-560.515	-200.000	-0.032	-0.160
-559.500	-200.000	-0.026	0.137
-558.485	-76.076	-0.113	0.040
-557.471	-200.000	-0.025	-0.131
-556.456	-30.272	0.414	-0.235
-555.442	800.000	-0.049	-0.199
-554.427	544.082	0.072	-0.173
-553.412	-200.000	-0.017	0.096
-552.398	73.620	0.140	0.146
-551.383	-12.049	0.053	0.035
-550.369	146.750	0.145	-0.195
-549.354	-95.340	-0.262	0.070
-548.339	4.209	-0.196	-0.143
-547.325	93.103	0.043	0.049
-546.310	-52.322	0.324	0.150
-545.296	105.370	-0.214	0.252
-544.281	148.150	-0.049	-0.066
-543.266	134.789	-0.070	-0.091
-542.252	-137.829	-0.120	0.013
-541.237	-200.000	-0.019	0.120
-540.223	-73.791	0.265	-0.096
-539.208	88.736	0.077	0.085
-538.193	-166.523	-0.221	0.009
-537.179	-200.000	-0.013	0.092
-536.164	-131.534	-0.037	0.005
-535.150	224.481	-0.161	0.259
-534.135	-106.312	-0.364	-0.081
-533.121	252.813	-0.055	0.093
-532.106	195.705	0.095	-0.144
-531.091	42.604	-0.192	0.174
-530.077	172.886	0.227	0.325
-529.062	8.839	-0.081	-0.061
-528.048	707.394	-0.062	-0.162
-527.033	-19.581	-0.189	-0.117
-526.018	-44.704	0.165	-0.082
-525.004	353.984	-0.101	0.199
-523.989	800.000	0.055	0.153
-522.975	412.064	0.088	0.187
-521.960	0.802	-0.054	-0.039
-520.945	64.855	0.280	-0.282
-519.931	-153.905	0.205	0.014
-518.916	403.779	-0.070	0.146
-517.902	-132.929	0.347	0.044
-516.887	-74.062	-0.086	-0.031
-515.872	-200.000	-0.010	-0.115
-514.858	-86.562	-0.246	0.075
-513.843	-64.734	-0.115	0.046
-512.829	-200.000	-0.074	-0.382
-511.814	800.000	-0.057	-0.156
-510.799	91.747	0.110	0.123
-509.785	-69.712	0.145	0.055
-508.770	108.092	-0.039	-0.046
-507.756	-54.880	0.191	-0.086
-506.741	321.463	0.169	0.320
-505.726	105.384	0.269	0.316
-504.712	207.747	-0.132	-0.205
-503.697	800.000	-0.048	-0.173
-502.683	-124.588	0.312	-0.048
-501.668	373.524	-0.116	0.235
-500.653	-43.994	0.310	-0.155
-499.639	-144.272	0.182	0.017
-498.624	-200.000	-0.004	-0.193
-497.610	-200.000	-0.008	-0.150
-496.595	-200.000	-0.023	0.240
-495.581	-11.635	-0.280	-0.183
-494.566	-68.198	-0.389	-0.150
-493.551	-138.334	-0.304	-0.033
-492.537	181.782	-0.112	-0.164
-491.522	653.582	-0.095	0.242
-490.508	81.109	0.254	-0.273
-489.493	-107.720	-0.401	-0.087
-488.478	800.000	-0.069	-0.296
-487.464	461.404	-0.119	-0.263
-486.449	61.231	0.223	-0.220
-485.435	-200.000	-0.010	0.105
-484.420	153.458	0.123	-0.167
-483.405	-3.174	-0.159	0.110
-482.391	214.890	0.155	-0.245
-481.376	-200.000	0.031	0.230
-480.362	-53.196	0.073	0.033
-479.347	263.676	-0.090	0.156
-478.332	84.341	0.116	0.126
-477.318	50.676	0.146	-0.137
-476.303	800.000	-0.066	-0.196
-475.289	-122.294	0.191	0.031
-474.274	-200.000	-0.001	-0.073
-473.259	504.944	-0.149	-0.343
-472.245	-79.342	-0.151	0.051
-471.230	619.956	-0.024	-0.061
-470.216	800.000	-0.051	0.174
-469.201	17.016	-0.201	-0.159
-468.186	-82.108	-0.153	0.050
-467.172	-105.788	0.093	-0.021
-466.157	254.353	-0.132	-0.225
-465.143	338.132	0.143	-0.277
-464.128	67.438	-0.131	-0.133
-463.113	76.125	0.323	-0.340
-462.099	571.678	-0.068	0.164
-461.084	-200.000	-0.079	0.565
-460.070	-49.931	0.014	0.007
-459.055	-156.296	-0.286	0.018
-458.040	800.000	0.056	-0.154
-457.026	-200.000	0.016	-0.223
-456.011	72.165	0.096	-0.100
-454.997	800.000	0.064	-0.227
-453.982	-54.205	-0.248	-0.112
-452.968	800.000	-0.076	0.252
-451.953	-167.190	0.161	-0.006
-450.938	39.785	-0.238	0.212
-449.924	-50.240	0.088	-0.041
-448.909	-200.000	-0.009	0.092
-447.895	29.939	-0.359	0.304
-446.880	441.161	0.080	-0.174
-445.865	-115.647	0.235	-0.044
-444.851	85.008	-0.133	-0.145
-443.836	-66.472	-0.234	0.092
-442.822	22.778	-0.148	-0.121
-441.807	63.874	0.066	0.066
-440.792	686.815	0.141	-0.365
-439.778	401.878	0.031	0.065
-438.763	-135.794	-0.222	-0.026
-437.749	-60.169	0.061	0.026
-436.734	-38.781	-0.250	-0.131
-435.719	-200.000	0.019	-0.120
-434.705	-200.000	-0.050	-0.437
-433.690	51.963	0.258	0.244
-432.676	219.494	-0.091	0.145
-431.661	212.977	0.136	0.213
-430.646	-200.000	-0.030	0.154
-429.632	-200.000	0.025	0.270
-428.617	-50.049	-0.434	0.204
-427.603	-192.419	0.186	-0.002
-426.588	-65.101	-0.306	0.122
-425.573	-200.000	0.008	-0.151
-424.559	341.344	0.075	0.145
-423.544	169.021	-0.169	0.239
-422.530	-200.000	0.044	0.202
-421.515	-63.848	0.392	-0.159
-420.500	286.856	-0.115	-0.206
-419.486	334.063	-0.165	-0.318
-418.471	800.000	-0.034	0.145
-417.457	-77.529	0.212	0.073
-416.442	230.293	-0.169	-0.274
-415.428	-200.000	0.015	0.110
-414.413	254.534	-0.045	0.076
-413.398	-124.269	0.424	-0.066
-412.384	800.000	-0.029	0.082
-411.369	-97.322	0.242	-0.063
-410.355	-132.659	-0.104	0.013
-409.340	-200.000	0.018	-0.204
-408.325	160.477	-0.093	-0.129
-407.311	-176.935	-0.117	-0.003
-406.296	133.390	0.112	0.144
-405.282	800.000	0.035	0.140
-404.267	42.365	-0.184	-0.166
-403.252	-174.373	-0.252	-0.007
-402.238	361.720	-0.019	0.038
-401.223	12.542	0.162	-0.124
-400.209	-84.755	0.438	0.137
-399.194	100.029	-0.138	-0.158
-398.179	-27.309	-0.259	0.150
-397.165	-200.000	0.106	0.000
-396.150	360.720	0.118	-0.235
-395.136	351.433	-0.067	-0.132
-394.121	-102.422	-0.089	-0.021
-393.106	-5.458	0.222	-0.151
-392.092	-200.000	-0.063	-0.304
-391.077	104.697	0.037	0.044
-390.063	-100.774	0.143	0.035
-389.048	-200.000	0.001	-0.055
-388.033	-200.000	0.025	0.134
-387.019	-47.401	0.037	-0.018
-386.004	149.623	0.181	0.243
-384.990	-28.677	-0.156	-0.089
-383.975	-200.000	0.013	0.189
-382.960	-65.961	-0.156	0.062
-381.946	-91.508	0.462	-0.131
-380.931	32.314	-0.095	-0.082
-379.917	519.688	0.073	-0.169
-378.902	-92.403	0.451	-0.126
-377.888	362.516	-0.071	0.140
-376.873	-139.241	-0.134	-0.014
-375.858	34.137	-0.063	0.055
-374.844	-65.300	-0.218	-0.087
-373.829	-98.229	-0.134	-0.034
-372.815	800.000	0.079	0.270
-371.800	-53.906	-0.227	0.103
-370.785	-88.424	-0.079	-0.023
-369.771	-45.909	0.077	-0.038
-368.756	408.454	0.120	0.251
-367.742	90.765	0.122	-0.135
-366.727	800.000	0.040	0.156
-365.712	-54.700	0.138	-0.062
-364.698	-75.328	0.194	-0.069
-363.683	434.442	-0.245	0.527
-362.669	458.223	0.192	0.422
-361.654	-200.000	0.057	-0.305
-360.639	321.192	-0.040	-0.076
-359.625	800.000	-0.040	-0.168
-358.610	-42.835	0.130	-0.065
-357.596	-89.288	0.332	0.097
-356.581	-200.000	0.005	0.377
-355.566	376.020	-0.204	0.412
-354.552	800.000	-0.039	0.132
-353.537	-115.797	0.392	-0.073
-352.523	193.099	0.178	0.267
-351.508	93.406	0.105	-0.118
-350.493	325.167	-0.276	-0.522
-349.479	-200.000	0.016	0.127
-348.464	-35.949	-0.156	0.083
-347.450	-200.000	0.006	0.230
-346.435	420.464	0.136	-0.289
-345.420	-200.000	0.000	-0.111
-344.406	800.000	-0.098	0.395
-343.391	-40.236	0.420	0.216
-342.377	-26.616	-0.213	0.124
-341.362	-91.165	0.096	0.027
-340.348	800.000	0.132	0.373
-339.333	394.785	0.085	0.175
-338.318	-102.658	0.221	0.052
-337.304	62.029	-0.066	0.065
-336.289	-19.458	-0.060	0.037
-335.275	-200.000	-0.008	-0.190
-334.260	-166.091	-0.094	-0.004
-333.245	388.979	0.110	0.225
-332.231	800.000	-0.074	0.320
-331.216	-21.131	0.335	-0.202
-330.202	132.475	-0.054	-0.069
-329.187	800.000	-0.145	0.447
-328.172	-200.000	-0.003	0.055
-327.158	-36.711	-0.114	-0.060
-326.143	166.966	-0.231	-0.325
-325.129	701.312	0.038	0.100
-324.114	-59.923	-0.268	0.113
-323.099	-127.001	0.181	0.026
-322.085	298.507	0.079	0.144
-321.070	-5.527	0.135	-0.092
-320.056	444.894	0.198	-0.429
-319.041	1.733	-0.297	0.212
-318.026	362.530	-0.120	-0.238
-317.012	341.775	0.010	0.019
-315.997	-27.885	-0.331	0.189
-314.983	-8.000	-0.242	0.161
-313.968	-200.000	0.036	0.187
-312.953	3.838	0.212	0.153
-311.939	143.216	-0.057	-0.075
-310.924	250.189	-0.082	0.138
-309.910	-200.000	0.069	0.451
-308.895	184.694	0.103	0.151
-307.880	12.712	-0.143	0.109
-306.866	-200.000	-0.008	0.117
-305.851	-200.000	-0.040	0.203
-304.837	-200.000	0.009	0.257
-303.822	704.245	-0.100	0.260
-302.807	-92.432	0.039	0.011
-301.793	800.000	0.090	-0.272
-300.778	-62.820	-0.195	0.080
-299.764	784.724	-0.085	0.229
-298.749	241.144	0.072	-0.118
-297.735	151.606	-0.064	-0.087
-296.720	-144.468	-0.063	0.006
-295.705	410.311	-0.049	-0.103
-294.691	-200.000	0.044	0.216
-293.676	-200.000	0.035	0.257
-292.662	-22.757	0.137	-0.082
-291.647	-53.846	0.064	-0.029
-290.632	633.471	0.156	0.391
-289.618	42.362	-0.241	0.216
-288.603	-150.176	-0.136	0.010
-287.589	-200.000	0.003	-0.076
-286.574	139.566	-0.051	-0.067
-285.559	178.741	0.219	-0.316
-284.545	-147.894	-0.317	-0.026
-283.530	330.211	0.096	-0.182
-282.516	-106.369	-0.349	0.077
-281.501	141.851	0.154	-0.201
-280.486	185.747	-0.072	-0.106
-279.472	87.199	-0.259	-0.282
-278.457	-151.922	-0.323	-0.023
-277.443	39.776	-0.229	-0.203
-276.428	410.263	-0.100	-0.208
-275.413	-62.257	-0.165	-0.068
-274.399	800.000	-0.008	-0.026
-273.384	-177.701	0.184	-0.004
-272.370	370.904	0.124	-0.249
-271.355	-200.000	-0.014	-0.133
-270.340	85.472	0.141	-0.153
-269.326	344.534	-0.047	0.091
-268.311	745.733	0.032	0.085
-267.297	512.059	-0.163	-0.375
-266.282	8.763	-0.284	-0.211
-265.267	-82.616	-0.283	0.091
-264.253	-188.044	-0.269	-0.003
-263.238	261.454	-0.130	-0.222
-262.224	-6.263	-0.210	0.141
-261.209	-65.299	-0.208	-0.083
-260.195	36.502	0.120	0.104
-259.180	92.063	-0.177	0.196
-258.165	-176.857	0.089	0.002
-257.151	-111.755	-0.173	0.035
-256.136	120.372	0.197	-0.241
-255.122	-84.498	-0.154	-0.048
-254.107	-113.660	-0.095	-0.018
-253.092	286.458	0.129	0.230
-252.078	259.415	0.122	-0.207
-251.063	800.000	0.056	-0.195
-250.049	-200.000	0.009	-0.048
-249.034	54.846	-0.007	-0.006
-248.019	-119.847	0.257	-0.044
-247.005	80.296	-0.166	-0.176
-245.990	-200.000	-0.013	0.249
-244.976	-4.018	0.361	0.247
-243.961	-114.778	-0.116	-0.022
-242.946	-182.469	0.283	-0.005
-241.932	40.279	0.130	0.116
-240.917	70.436	-0.156	0.158
-239.903	-26.683	0.406	0.234
-238.888	-109.120	0.193	0.041
-237.873	193.107	-0.039	0.059
-236.859	41.471	0.119	0.106
-235.844	507.459	-0.113	-0.259
-234.830	-112.951	-0.360	-0.070
-233.815	-75.913	0.235	-0.082
-232.800	-200.000	-0.023	-0.373
-231.786	-39.761	0.171	0.088
-230.771	37.300	0.366	-0.320
-229.757	-42.738	-0.148	-0.074
-228.742	-200.000	0.010	-0.071
-227.727	38.515	-0.177	0.155
-226.713	-138.342	0.382	0.042
-225.698	-124.673	-0.276	0.042
-224.684	-200.000	0.048	0.342
-223.669	800.000	-0.023	0.073
-222.655	111.557	-0.019	-0.022
-221.640	-200.000	-0.024	-0.122
-220.625	172.409	0.472	-0.669
-219.611	-142.459	0.263	-0.026
-218.596	364.556	-0.126	-0.249
-217.582	-52.565	-0.086	0.039
-216.567	-200.000	0.002	-0.101
-215.552	629.521	-0.056	-0.139
-214.538	14.652	-0.081	0.062
-213.523	-39.115	0.048	0.025
-212.509	-200.000	-0.012	-0.411
-211.494	769.299	-0.115	-0.309
-210.479	188.190	0.025	0.037
-209.465	191.344	-0.156	-0.231
-208.450	-186.599	0.315	-0.004
-207.436	-200.000	-0.021	0.224
-206.421	-86.934	0.567	-0.170
-205.406	-200.000	-0.046	-0.204
-204.392	-200.000	-0.021	0.314
-203.377	800.000	-0.052	-0.170
-202.363	737.112	0.078	-0.205
-201.348	800.000	0.025	-0.079
-200.333	443.729	-0.042	0.091
-199.319	163.167	-0.192	0.265
-198.304	45.707	0.180	-0.164
-197.290	-72.372	0.276	0.100
-196.275	10.370	0.126	0.094
-195.260	-83.870	0.211	-0.066
-194.246	800.000	0.036	0.139
-193.231	-24.457	-0.200	0.117
-192.217	-200.000	-0.021	-0.304
-191.202	-123.599	0.161	0.025
-190.187	85.087	0.176	0.190
-189.173	-96.764	0.278	-0.072
-188.158	-200.000	0.006	0.062
-187.144	-23.948	0.157	0.092
-186.129	-161.571	0.017	-0.001
-185.114	-77.439	0.299	0.102
-184.100	-47.597	0.127	-0.061
-183.085	800.000	0.009	-0.033
-182.071	-200.000	-0.012	-0.094
-181.056	-93.201	-0.103	-0.028
-180.042	340.882	-0.098	0.189
-179.027	800.000	-0.124	-0.364
-178.012	-32.037	-0.196	-0.108
-176.998	-80.859	0.281	-0.091
-175.983	-31.527	0.060	0.033
-174.969	136.927	-0.178	0.229
-173.954	-77.505	-0.310	-0.106
-172.939	210.111	0.184	-0.284
-171.925	-72.560	0.313	0.114
-170.910	800.000	0.048	-0.187
-169.896	671.188	-0.116	0.295
-168.881	249.750	0.156	0.260
-167.866	-63.140	-0.411	0.167
-166.852	-200.000	0.046	0.221
-165.837	158.679	-0.265	0.361
-164.823	-32.701	-0.066	0.036
-163.808	-200.000	-0.002	0.199
-162.793	243.240	0.181	0.298
-161.779	-31.509	0.258	0.143
-160.764	49.318	-0.135	-0.124
-159.750	0.959	-0.179	0.126
-158.735	-22.051	0.195	0.116
-157.720	-59.799	0.191	0.080
-156.706	-49.399	-0.092	0.043
-155.691	-75.422	0.242	0.085
-154.677	-20.037	-0.282	0.171
-153.662	84.694	-0.172	0.185
-152.647	-33.110	0.308	0.167
-151.633	-200.000	0.001	-0.078
-150.618	287.447	-0.058	0.102
-149.604	61.248	0.088	-0.086
-148.589	-35.330	-0.266	-0.142
-147.574	-193.218	-0.148	-0.001
-146.560	147.930	-0.098	0.130
-145.545	-80.818	-0.046	-0.015
-144.531	-146.088	-0.010	-0.001
-143.516	180.856	-0.085	0.123
-142.502	-200.000	0.016	0.363
-141.487	-149.010	0.367	0.029
-140.472	-96.166	-0.334	0.087
-139.458	800.000	-0.087	-0.239
-138.443	-200.000	0.029	0.283
-137.429	45.462	-0.176	0.159
-136.414	800.000	0.063	-0.250
-135.399	38.942	0.291	0.255
-134.385	85.831	0.160	0.172
-133.370	-200.000	0.025	-0.223
-132.356	68.783	-0.077	-0.078
-131.341	-169.345	0.264	0.010
-130.326	-111.392	0.317	-0.063
-129.312	800.000	0.030	-0.091
-128.297	-71.441	0.253	0.093
-127.283	127.402	-0.203	0.253
-126.268	-85.123	-0.179	0.055
-125.253	-28.562	-0.441	-0.249
-124.239	800.000	-0.081	-0.289
-123.224	-200.000	0.035	-0.162
-122.210	-193.104	-0.051	-0.000
-121.195	248.040	0.113	-0.188
-120.180	42.606	0.203	-0.181
-119.166	-63.495	-0.342	0.138
-118.151	-100.933	0.243	0.058
-117.137	15.053	-0.101	-0.078
-116.122	72.476	-0.198	-0.202
-115.107	-61.538	-0.226	0.093
-114.093	-200.000	0.039	0.401
-113.078	-200.000	-0.049	-0.278
-112.064	21.892	-0.167	-0.133
-111.049	-91.099	-0.191	0.054
-110.034	-4.639	-0.121	0.082
-109.020	-159.617	-0.097	0.005
-108.005	-200.000	-0.020	0.192
-106.991	-200.000	-0.022	0.224
-105.976	100.691	-0.057	0.065
-104.962	90.045	-0.155	-0.170
-103.947	-159.077	-0.083	-0.005
-102.932	-155.844	-0.207	0.013
-101.918	-77.580	0.081	0.028
-100.903	-200.000	-0.008	0.193
-99.889	226.095	0.129	0.205
-98.874	800.000	0.018	-0.048
-97.859	-6.508	-0.123	0.082
-96.845	163.867	0.048	0.066
-95.830	354.144	-0.092	0.180
-94.816	53.633	-0.155	0.146
-93.801	800.000	-0.033	-0.120
-92.786	-113.063	0.225	-0.044
-91.772	-92.118	0.410	0.114
-90.757	-200.000	-0.033	0.386
-89.743	-200.000	0.053	0.281
-88.728	-116.763	0.200	-0.036
-87.713	800.000	0.074	0.317
-86.699	-200.000	-0.022	0.476
-85.684	800.000	0.091	0.283
-84.670	-103.433	-0.327	0.075
-83.655	306.469	0.194	0.353
-82.640	-81.031	0.234	-0.076
-81.626	-200.000	0.001	0.094
-80.611	-46.870	0.197	0.094
-79.597	173.487	-0.056	0.079
-78.582	449.814	-0.126	-0.273
-77.567	54.599	-0.175	-0.165
-76.553	-115.892	0.293	-0.054
-75.538	20.867	-0.111	-0.088
-74.524	-65.143	-0.040	0.016
-73.509	-23.348	-0.237	-0.140
-72.494	648.023	0.078	0.196
-71.480	280.652	-0.185	0.323
-70.465	-200.000	0.018	0.141
-69.451	143.475	0.104	0.135
-68.436	-5.361	-0.162	0.109
-67.422	64.510	0.128	-0.126
-66.407	-168.244	-0.136	-0.005
-65.392	-200.000	0.006	-0.133
-64.378	-49.549	0.206	0.096
-63.363	-200.000	-0.037	-0.210
-62.349	800.000	-0.067	0.183
-61.334	50.011	-1.362	-1.258
-60.319	203.524	0.487	0.737
-59.305	800.000	-0.340	-1.142
-58.290	266.404	0.751	1.284
-57.276	800.000	0.588	1.658
-56.261	-200.000	114.263	651.196
-55.246	538.763	1521.939	3540.264
-54.232	177.808	2696.515	3845.653
-53.217	102.440	2286.548	2614.786
-52.203	36.735	1892.950	1635.757
-51.188	30.715	1682.945	1408.819
-50.173	28.250	1640.357	1354.894
-49.159	49.993	1696.218	1565.103
-48.144	48.819	1710.144	1569.078
-47.130	30.257	1668.195	1392.812
-46.115	27.513	1654.359	1360.738
-45.100	27.467	1648.975	1355.919
-44.086	27.465	1646.067	1353.457
-43.071	27.316	1643.895	1350.514
-42.057	27.388	1641.233	1348.804
-41.042	27.421	1638.726	1346.936
-40.027	27.457	1637.212	1345.905
-39.013	27.424	1634.756	1343.582
-37.998	27.366	1633.655	1342.203
-36.984	27.424	1632.442	1341.576
-35.969	27.453	1631.133	1340.664
-34.954	27.580	1628.721	1339.556
-33.940	27.544	1627.557	1338.285
-32.925	27.497	1625.261	1335.999
-31.911	27.480	1623.788	1334.609
-30.896	27.540	1622.102	1333.613
-29.881	27.521	1620.203	1331.861
-28.867	27.552	1618.475	1330.611
-27.852	27.509	1617.069	1329.087
-26.838	27.549	1615.303	1327.874
-25.823	27.536	1614.056	1326.704
-24.809	27.584	1612.679	1325.866
-23.794	27.556	1611.520	1324.658
-22.779	27.535	1610.361	1323.504
-21.765	27.551	1608.318	1321.883
-20.750	27.539	1607.090	1320.738
-19.736	27.583	1605.625	1319.800
-18.721	27.563	1604.168	1318.402
-17.706	27.534	1602.987	1317.174
-16.692	27.624	1600.952	1316.101
-15.677	27.604	1599.530	1314.730
-14.663	27.675	1598.248	1314.135
-13.648	27.507	1597.410	1312.186
-12.633	27.602	1595.612	1311.338
-11.619	27.640	1593.703	1309.991
-10.604	27.646	1592.504	1309.001
-9.590	27.567	1591.408	1307.482
-8.575	27.724	1590.030	1307.423
-7.560	27.625	1589.042	1305.846
-6.546	27.580	1587.960	1304.583
-5.531	27.620	1586.853	1303.906
-4.517	27.599	1585.549	1302.636
-3.502	27.647	1584.167	1301.790
-2.487	27.602	1583.087	1300.534
-1.473	27.321	1570.879	1288.464
-0.458	24.385	1551.877	1252.250
0.556	22.786	1553.478	1221.943
1.571	20.351	1576.945	1223.157
2.586	19.795	1589.581	1228.902
3.600	18.049	1535.386	1174.906
4.615	11.067	1429.280	1048.774
5.629	4.960	1369.662	967.143
6.644	3.896	1361.569	954.779
7.659	3.850	1360.579	953.714
8.673	4.026	1359.671	954.081
9.688	3.958	1357.797	952.262
10.702	3.904	1354.936	949.843
11.717	6.777	1359.988	970.985
12.731	14.699	1374.296	1030.163
13.746	21.400	1385.920	1080.334
14.761	23.104	1387.683	1092.142
15.775	22.642	1385.351	1087.361
16.790	21.666	1383.498	1079.799
17.804	20.997	1381.425	1073.967
18.819	20.770	1380.172	1071.497
19.834	20.691	1379.461	1070.365
20.848	20.691	1378.849	1069.800
21.863	20.583	1377.723	1068.164
22.877	20.434	1376.463	1066.180
23.892	20.447	1374.888	1064.945
24.907	20.281	1374.833	1063.789
25.921	20.300	1373.627	1062.877
26.936	20.316	1372.431	1061.960
27.950	20.426	1371.744	1062.004
28.965	20.597	1370.936	1062.330
29.980	20.698	1369.927	1062.068
30.994	20.766	1368.914	1061.604
32.009	20.838	1367.848	1061.122
33.023	20.772	1366.670	1059.718
34.038	20.616	1365.761	1057.968
35.053	20.548	1364.547	1056.522
36.067	20.618	1362.878	1055.559
37.082	20.562	1361.729	1054.236
38.096	20.680	1361.169	1054.427
39.111	20.726	1360.508	1054.097
40.126	20.552	1359.432	1052.121
41.140	20.185	1358.427	1049.029
42.155	20.075	1357.440	1047.510
43.169	19.952	1357.674	1046.850
44.184	20.031	1357.389	1047.016
45.199	20.063	1357.130	1046.916
46.213	20.263	1357.136	1048.039
47.228	20.531	1356.020	1048.703
48.242	20.508	1355.085	1047.746
49.257	20.485	1353.368	1046.190
50.271	20.402	1352.118	1044.627
51.286	20.428	1350.871	1043.728
52.301	20.333	1349.450	1041.970
53.315	20.241	1348.182	1040.347
54.330	20.116	1347.320	1038.840
55.344	20.168	1345.725	1037.831
56.359	20.016	1345.158	1036.393
57.374	20.048	1344.027	1035.618
58.388	19.952	1343.340	1034.427
59.403	19.971	1342.592	1033.871
60.417	19.851	1342.187	1032.749
61.432	19.670	1341.411	1030.980
62.447	19.685	1340.125	1029.990
63.461	19.663	1338.805	1028.755
64.476	19.640	1338.141	1028.016
65.490	19.663	1336.392	1026.719
66.505	19.717	1335.020	1025.896
67.520	19.740	1333.910	1025.086
68.534	19.747	1332.953	1024.304
69.549	19.780	1331.771	1023.497
70.563	19.616	1330.811	1021.701
71.578	19.374	1330.218	1019.724
72.593	19.390	1329.059	1018.843
73.607	19.328	1328.526	1017.975
74.622	19.466	1327.537	1017.944
75.636	19.493	1326.952	1017.565
76.651	19.546	1326.037	1017.082
77.666	19.572	1325.775	1016.947
78.680	19.615	1325.609	1016.979
79.695	19.575	1325.109	1016.273
80.709	19.854	1323.812	1016.828
81.724	20.025	1323.569	1017.557
82.739	20.057	1323.112	1017.304
83.753	20.286	1322.378	1017.993
84.768	20.483	1321.652	1018.498
85.782	20.657	1320.392	1018.456
86.797	20.677	1318.980	1017.393
87.812	20.527	1317.842	1015.550
88.826	20.495	1316.711	1014.400
89.841	20.480	1316.010	1013.682
90.855	20.647	1314.872	1013.690
91.870	20.581	1314.574	1012.987
92.884	20.644	1313.708	1012.596
93.899	20.815	1312.431	1012.518
94.914	20.824	1311.728	1011.936
95.928	20.798	1311.018	1011.149
96.943	20.709	1310.310	1009.999
97.957	20.534	1309.450	1008.231
98.972	20.623	1308.241	1007.724
99.987	20.718	1307.057	1007.273
101.001	20.682	1306.121	1006.258
102.016	20.645	1305.135	1005.193
103.030	20.568	1304.460	1004.139
104.045	20.515	1303.577	1003.062
105.060	20.400	1302.026	1001.116
106.074	19.938	1300.587	997.265
107.089	19.801	1298.758	994.983
108.103	19.807	1296.944	993.540
109.118	19.709	1295.897	992.088
110.133	19.697	1294.701	991.019
111.147	19.782	1293.329	990.366
112.162	19.836	1292.388	989.867
113.176	19.886	1291.507	989.392
114.191	19.822	1290.403	988.089
115.206	19.885	1289.604	987.754
116.220	19.910	1288.348	986.847
117.235	19.891	1286.878	985.523
118.249	19.794	1285.977	984.194
119.264	19.654	1284.786	982.402
120.279	19.528	1283.947	980.955
121.293	19.537	1282.640	979.923
122.308	19.361	1282.178	978.483
123.322	19.365	1280.513	977.150
124.337	19.316	1279.053	975.671
125.352	19.368	1278.120	975.166
126.366	19.335	1277.030	974.064
127.381	19.170	1276.465	972.612
128.395	19.172	1275.399	971.724
129.410	19.354	1273.948	971.560
130.424	19.442	1273.455	971.594
131.439	19.575	1272.789	971.746
132.454	19.713	1272.319	972.080
133.468	19.823	1271.440	971.941
134.483	19.826	1270.618	971.244
135.497	19.932	1269.819	971.141
136.512	19.859	1268.509	969.645
137.527	19.917	1267.184	968.871
138.541	19.852	1266.314	967.754
139.556	19.970	1265.399	967.629
140.570	20.041	1264.467	967.228
141.585	20.211	1262.836	966.842
142.600	20.429	1262.011	967.340
143.614	20.504	1261.417	967.214
144.629	20.574	1260.780	967.030
145.643	20.606	1259.293	965.983
146.658	20.307	1258.110	963.330
147.673	20.085	1256.334	960.655
148.687	20.015	1254.757	958.976
149.702	19.853	1253.666	957.162
150.716	19.825	1252.307	955.884
151.731	19.805	1251.131	954.790
152.746	19.830	1250.176	954.115
153.760	19.904	1249.159	953.663
154.775	20.060	1248.283	953.771
155.789	20.290	1246.832	953.840
156.804	20.154	1246.873	953.040
157.819	20.155	1245.852	952.181
158.833	20.485	1244.949	953.219
159.848	20.514	1244.775	953.159
160.862	20.537	1243.288	952.062
161.877	20.082	1241.586	948.186
162.892	19.873	1240.075	945.804
163.906	19.792	1239.597	944.916
164.921	19.914	1238.284	944.497
165.935	19.949	1237.714	944.169
166.950	20.067	1237.376	944.471
167.964	20.038	1236.859	943.834
168.979	19.955	1235.736	942.442
169.994	19.845	1235.242	941.386
171.008	20.001	1234.306	941.435
172.023	20.130	1233.900	941.744
173.037	20.344	1233.358	942.409
174.052	20.306	1232.102	941.158
175.067	20.013	1230.758	938.459
176.081	19.790	1229.709	936.373
177.096	19.752	1228.769	935.369
178.110	19.869	1227.381	934.859
179.125	19.886	1226.729	934.372
180.140	20.080	1225.796	934.623
181.154	20.296	1224.892	935.016
182.169	20.398	1223.599	934.497
183.183	20.356	1223.210	933.889
184.198	20.443	1221.613	933.056
185.213	20.425	1220.638	932.132
186.227	20.510	1219.499	931.636
187.242	20.574	1218.480	931.119
188.256	20.562	1218.374	930.892
189.271	20.737	1216.984	930.683
190.286	20.418	1216.011	928.152
191.300	19.998	1214.500	924.673
192.315	19.863	1213.787	923.329
193.329	19.933	1213.153	923.139
194.344	20.012	1212.243	922.786
195.359	20.012	1212.058	922.562
196.373	20.203	1211.053	922.731
197.388	20.238	1211.155	922.915
198.402	20.520	1211.235	924.391
199.417	20.735	1210.798	925.121
200.432	20.838	1210.411	925.292
201.446	20.832	1209.610	924.566
202.461	20.978	1208.852	924.680
203.475	20.964	1207.913	923.806
204.490	20.737	1206.115	921.148
205.504	20.455	1205.129	918.822
206.519	20.398	1203.673	917.327
207.534	20.364	1202.225	915.965
208.548	20.365	1201.574	915.392
209.563	20.386	1201.562	915.411
210.577	20.279	1200.320	913.824
211.592	20.442	1199.367	913.875
212.607	20.762	1198.632	914.915
213.621	20.659	1197.924	913.753
214.636	20.663	1196.689	912.750
215.650	20.618	1196.237	912.089
216.665	20.839	1195.589	912.674
217.680	20.949	1194.742	912.520
218.694	21.007	1194.333	912.431
219.709	20.903	1193.175	910.919
220.723	20.859	1192.589	910.161
221.738	20.953	1191.544	909.775
222.753	20.747	1191.043	908.241
223.767	20.655	1190.211	907.045
224.782	20.911	1190.284	908.355
225.796	21.168	1189.252	908.825
226.811	21.098	1188.389	907.721
227.826	20.922	1187.613	906.131
228.840	20.656	1186.800	904.050
229.855	20.688	1186.160	903.648
230.869	20.694	1185.328	902.963
231.884	20.593	1184.481	901.719
232.899	20.429	1183.213	899.822
233.913	20.295	1182.474	898.487
234.928	20.352	1181.649	898.074
235.942	20.301	1180.765	897.060
236.957	20.355	1179.977	896.659
237.972	20.275	1179.099	895.500
238.986	20.441	1178.679	895.957
240.001	20.307	1178.276	894.885
241.015	20.437	1177.251	894.693
242.030	20.551	1176.591	894.703
243.045	20.664	1175.870	894.656
244.059	20.756	1175.140	894.491
245.074	20.839	1174.284	894.187
246.088	20.849	1173.846	893.828
247.103	20.977	1173.274	893.970
248.117	21.120	1172.151	893.767
249.132	21.313	1172.460	894.912
250.147	21.569	1171.531	895.435
251.161	21.771	1171.012	895.991
252.176	21.739	1170.734	895.535
253.190	21.813	1169.914	895.205
254.205	21.958	1169.726	895.721
255.220	21.887	1169.228	894.897
256.234	22.004	1168.082	894.541
257.249	21.906	1167.458	893.481
258.263	21.774	1166.847	892.267
259.278	21.730	1166.027	891.333
260.293	21.766	1165.884	891.332
261.307	22.060	1164.889	891.986
262.322	21.906	1164.675	890.958
263.336	22.027	1163.371	890.495
264.351	22.041	1162.748	890.012
265.366	22.076	1162.433	889.867
266.380	22.041	1161.497	888.894
267.395	21.938	1160.532	887.557
268.409	21.738	1160.111	886.144
269.424	21.746	1158.876	885.168
270.439	21.538	1159.009	884.138
271.453	21.639	1157.786	883.637
272.468	21.498	1156.768	882.070
273.482	21.385	1156.158	880.957
274.497	21.381	1155.599	880.432
275.512	21.470	1154.914	880.284
276.526	21.470	1154.186	879.652
277.541	21.461	1153.239	878.805
278.555	21.584	1152.878	879.068
279.570	21.722	1152.498	879.394
280.585	22.026	1151.819	880.324
281.599	21.930	1150.805	878.987
282.614	21.788	1149.380	877.115
283.628	21.516	1148.076	874.682
284.643	21.516	1147.538	874.192
285.657	21.545	1147.099	873.926
286.672	21.643	1145.442	873.074
287.687	21.668	1144.625	872.499
288.701	21.718	1144.018	872.208
289.716	21.584	1143.672	871.203
290.730	21.621	1142.713	870.577
291.745	21.710	1142.160	870.520
292.760	21.749	1141.519	870.152
293.774	21.783	1141.493	870.223
294.789	21.892	1140.834	870.182
295.803	21.928	1139.793	869.492
296.818	21.763	1138.943	867.946
297.833	21.702	1137.811	866.708
298.847	21.682	1137.165	866.037
299.862	21.739	1136.909	866.049
300.876	21.677	1136.547	865.392
301.891	21.829	1135.540	865.297
302.906	21.974	1134.822	865.386
303.920	22.273	1134.158	866.279
304.935	22.276	1134.118	866.186
305.949	22.324	1133.765	866.077
306.964	22.365	1132.968	865.592
307.979	22.193	1131.531	863.573
308.993	22.128	1130.977	862.752
310.008	22.189	1130.345	862.494
311.022	22.335	1129.234	862.288
312.037	22.163	1128.893	861.106
313.052	22.038	1127.483	859.345
314.066	21.862	1126.235	857.454
315.081	21.652	1125.335	855.668
316.095	21.568	1124.200	854.319
317.110	21.575	1124.058	854.172
318.125	21.612	1123.047	853.509
319.139	21.551	1122.480	852.706
320.154	21.533	1122.108	852.259
321.168	21.607	1121.289	851.921
322.183	21.599	1120.831	851.458
323.197	21.807	1120.208	851.922
324.212	21.784	1119.669	851.323
325.227	21.811	1119.610	851.337
326.241	21.800	1118.722	850.530
327.256	21.733	1118.114	849.668
328.270	21.631	1116.899	848.174
329.285	21.521	1115.836	846.762
330.300	21.603	1114.722	846.236
331.314	21.667	1113.731	845.721
332.329	21.759	1113.037	845.560
333.343	21.911	1112.184	845.569
334.358	21.881	1111.922	845.151
335.373	22.050	1111.257	845.386
336.387	22.173	1110.118	845.037
337.402	22.238	1109.623	844.899
338.416	22.270	1108.855	844.389
339.431	22.376	1108.692	844.702
340.446	22.562	1108.263	845.194
341.460	22.667	1107.766	845.239
342.475	22.747	1107.086	845.031
343.489	22.896	1105.936	844.789
344.504	22.946	1105.213	844.405
345.519	22.981	1104.764	844.152
346.533	22.959	1103.896	843.312
347.548	22.982	1103.236	842.840
348.562	22.788	1102.328	841.149
349.577	22.556	1101.290	839.178
350.592	22.246	1100.009	836.649
351.606	22.126	1099.194	835.386
352.621	22.228	1098.315	835.128
353.635	22.059	1097.433	833.581
354.650	22.019	1097.034	833.016
355.665	22.105	1096.474	832.927
356.679	22.218	1095.607	832.727
357.694	22.355	1095.459	833.191
358.708	22.539	1094.849	833.524
359.723	22.457	1094.231	832.590
360.738	22.350	1093.477	831.438
361.752	22.431	1093.113	831.471
362.767	22.418	1092.623	830.963
363.781	22.425	1092.190	830.595
364.796	22.715	1091.384	831.272
365.810	22.923	1091.165	832.012
366.825	22.999	1090.787	832.007
367.840	23.238	1090.175	832.591
368.854	23.179	1090.272	832.315
369.869	23.219	1089.107	831.543
370.883	22.988	1088.155	829.656
371.898	22.832	1086.952	827.936
372.913	22.844	1086.388	827.489
373.927	22.972	1085.831	827.591
374.942	23.122	1085.333	827.840
375.956	23.095	1085.331	827.636
376.971	22.970	1084.674	826.478
377.986	23.090	1083.917	826.391
379.000	23.325	1083.368	826.995
380.015	23.272	1083.110	826.476
381.029	23.451	1082.405	826.700
382.044	23.353	1081.550	825.519
383.059	23.358	1080.742	824.852
384.073	23.306	1080.031	823.996
385.088	23.319	1078.705	822.968
386.102	23.261	1077.897	822.012
387.117	23.057	1076.931	820.255
388.132	22.736	1075.742	817.791
389.146	22.740	1075.072	817.229
390.161	22.678	1074.445	816.389
391.175	22.797	1073.651	816.264
392.190	22.965	1073.244	816.659
393.205	23.188	1072.433	817.001
394.219	23.148	1071.511	816.044
395.234	23.024	1070.139	814.352
396.248	22.850	1069.351	812.883
397.263	22.765	1069.078	812.211
398.278	22.668	1067.905	810.800
399.292	22.601	1066.860	809.629
400.307	22.529	1066.166	808.701
401.321	22.546	1065.446	808.161
402.336	22.605	1064.467	807.618
403.350	22.470	1064.236	806.750
404.365	22.693	1063.898	807.445
405.380	22.847	1062.624	807.109
406.394	22.877	1062.587	807.149
407.409	23.039	1061.951	807.334
408.423	23.327	1061.270	808.059
409.438	23.383	1060.711	807.815
410.453	23.452	1060.416	807.836
411.467	23.497	1059.491	807.261
412.482	23.462	1059.236	806.840
413.496	23.756	1058.447	807.502
414.511	23.677	1058.152	806.849
415.526	23.817	1057.473	806.892
416.540	23.876	1057.334	806.985
417.555	23.988	1056.565	806.834
418.569	23.623	1055.586	804.359
419.584	23.608	1055.593	804.226
420.599	23.716	1054.843	804.071
421.613	157.926	1402.890	1799.297
422.628	145.078	1453.585	1799.382
