DTS Sentinel unit serial number:	SN413079Multiplexer serial number:	ORYXHardware model number:	OX4-SRSoftware version number:	ORYX F/W v4.00 Oryx Data Collector v3.7.2.0data status	okinstallation	princeton_trtdifferential loss correction	single-endedforward channel	channel 2reverse channel	N/Adate	2019/09/18time	06:03:34forward acquisition time	60.00reverse acquisition time	0.00gamma	496.2192k internal	0.2349k external	0.2349temperature offset calibration	0.9984default loss term (dB/km)	0.3790temperature slope calibration	1.0000multiplexer offset coefficient	1.0000multiplexer slope coefficient	1.0000fibre end	0.00T internal ref (°C)	23.19T ext. ref 1 (°C)	0.19T ext. ref 2 (°C)	17.65length (m)	temperature (°C)	Stokes	anti-Stokes-747.200	-200.000	0.008	0.178
-746.185	-26.755	-0.146	0.085
-745.171	40.608	0.069	-0.062
-744.156	329.751	-0.173	0.333
-743.142	-26.458	0.188	-0.110
-742.127	35.260	-0.142	0.125
-741.112	-3.111	-0.126	0.088
-740.098	-30.344	-0.352	0.200
-739.083	800.000	-0.088	0.323
-738.069	-78.201	-0.228	0.078
-737.054	457.877	-0.017	-0.038
-736.039	800.000	0.070	0.300
-735.025	-99.301	-0.116	0.029
-734.010	-97.364	0.094	-0.024
-732.996	-142.066	0.031	0.003
-731.981	185.498	0.023	-0.034
-730.966	-83.621	-0.051	0.016
-729.952	-111.470	0.109	0.022
-728.937	148.713	0.131	0.177
-727.923	-131.557	-0.141	0.019
-726.908	64.999	-0.204	0.206
-725.894	-127.775	-0.480	0.069
-724.879	467.700	0.027	-0.061
-723.864	-105.608	-0.219	0.050
-722.850	-79.406	0.099	0.034
-721.835	-54.429	0.036	0.016
-720.821	800.000	-0.135	-0.396
-719.806	21.501	-0.228	0.185
-718.791	-200.000	-0.012	0.088
-717.777	516.326	-0.053	0.124
-716.762	261.276	-0.087	-0.151
-715.748	800.000	0.091	0.295
-714.733	800.000	0.100	-0.328
-713.718	496.661	-0.111	-0.254
-712.704	47.575	0.207	0.193
-711.689	196.180	-0.061	0.093
-710.675	76.033	0.171	-0.180
-709.660	-55.611	-0.107	-0.048
-708.645	140.090	0.163	0.214
-707.631	-48.385	0.312	0.150
-706.616	-80.215	-0.135	-0.045
-705.602	284.107	0.036	0.065
-704.587	-61.568	0.137	-0.057
-703.572	14.672	-0.380	0.296
-702.558	-36.508	0.195	-0.105
-701.543	-200.000	0.004	-0.367
-700.529	-111.874	0.512	-0.103
-699.514	113.230	-0.238	0.287
-698.499	800.000	0.030	0.126
-697.485	44.350	-0.027	0.024
-696.470	79.251	0.224	-0.240
-695.456	69.405	0.091	0.094
-694.441	113.248	0.118	-0.143
-693.426	-34.640	-0.464	-0.253
-692.412	800.000	0.093	-0.361
-691.397	378.339	0.028	-0.057
-690.383	75.521	-0.174	-0.183
-689.368	299.360	-0.069	-0.126
-688.354	358.248	0.008	-0.017
-687.339	-71.577	-0.348	0.130
-686.324	-50.142	0.051	0.024
-685.310	15.881	0.126	0.099
-684.295	177.879	-0.147	-0.214
-683.281	44.576	0.280	-0.256
-682.266	-200.000	-0.019	-0.236
-681.251	800.000	-0.073	-0.221
-680.237	-200.000	0.054	0.357
-679.222	-45.717	0.327	-0.161
-678.208	-15.151	-0.074	-0.047
-677.193	-155.111	0.073	-0.005
-676.178	336.318	0.091	0.176
-675.164	-117.017	-0.193	-0.035
-674.149	62.219	-0.165	0.164
-673.135	-129.484	0.267	0.037
-672.120	-42.436	-0.282	-0.143
-671.105	800.000	-0.035	-0.118
-670.091	375.289	-0.013	0.026
-669.076	29.190	-0.095	-0.080
-668.062	-59.260	-0.136	0.058
-667.047	-67.245	-0.164	0.064
-666.032	-200.000	0.081	-0.363
-665.018	288.271	0.129	-0.233
-664.003	302.624	0.111	0.204
-662.989	36.020	0.037	-0.032
-661.974	-5.540	-0.291	0.199
-660.959	-200.000	0.042	-0.251
-659.945	-200.000	0.048	-0.389
-658.930	-0.580	-0.305	-0.215
-657.916	800.000	-0.130	-0.389
-656.901	-43.645	-0.113	-0.057
-655.886	91.580	0.013	-0.015
-654.872	-100.353	0.037	0.009
-653.857	-111.327	0.314	0.064
-652.843	-155.809	-0.143	-0.009
-651.828	-97.137	-0.261	-0.068
-650.814	13.096	0.120	-0.092
-649.799	47.405	-0.375	-0.348
-648.784	-79.590	-0.228	0.077
-647.770	-156.371	-0.050	-0.003
-646.755	21.475	-0.180	-0.146
-645.741	-110.296	0.074	-0.015
-644.726	140.603	-0.143	0.188
-643.711	117.636	0.069	0.085
-642.697	332.200	-0.042	0.080
-641.682	192.100	0.019	0.029
-640.668	-91.645	-0.158	-0.045
-639.653	-138.010	-0.234	0.026
-638.638	417.362	0.050	0.107
-637.624	800.000	0.044	0.154
-636.609	316.020	-0.086	0.162
-635.595	-3.310	-0.199	-0.138
-634.580	800.000	0.172	-0.537
-633.565	-200.000	-0.035	-0.167
-632.551	-50.354	-0.253	-0.119
-631.536	-55.018	-0.225	-0.101
-630.522	800.000	-0.060	0.249
-629.507	-64.346	0.282	0.114
-628.492	164.788	0.160	-0.225
-627.478	87.047	-0.280	-0.308
-626.463	-200.000	0.062	-0.397
-625.449	800.000	0.073	-0.273
-624.434	140.934	0.184	-0.241
-623.419	-48.181	0.245	0.117
-622.405	476.901	0.126	0.283
-621.390	476.295	0.068	-0.153
-620.376	800.000	-0.039	-0.163
-619.361	81.822	0.225	0.242
-618.346	78.847	0.019	-0.020
-617.332	-163.552	-0.343	0.016
-616.317	-30.530	-0.289	0.163
-615.303	-102.738	-0.128	0.030
-614.288	-200.000	-0.037	0.187
-613.273	-84.833	0.156	0.049
-612.259	46.199	-0.060	0.055
-611.244	-121.887	-0.278	0.046
-610.230	-16.372	-0.303	-0.191
-609.215	643.226	0.117	0.297
-608.201	-51.915	-0.141	-0.065
-607.186	14.730	-0.161	0.125
-606.171	68.685	-0.082	0.084
-605.157	154.990	0.331	-0.452
-604.142	-99.940	0.540	0.134
-603.128	-91.125	-0.303	0.086
-602.113	-120.309	0.081	0.014
-601.098	-200.000	0.013	0.219
-600.084	-158.034	-0.221	-0.013
-599.069	155.555	-0.085	-0.117
-598.055	-4.033	0.137	0.094
-597.040	29.600	-0.097	-0.082
-596.025	255.634	-0.076	-0.130
-595.011	800.000	-0.026	0.075
-593.996	-64.923	-0.210	0.084
-592.982	800.000	0.026	-0.089
-591.967	141.779	-0.246	-0.324
-590.952	69.176	0.323	0.330
-589.938	800.000	0.137	0.454
-588.923	-136.889	0.403	-0.046
-587.909	33.914	-0.259	0.224
-586.894	-95.015	-0.340	-0.091
-585.879	62.397	0.132	-0.131
-584.865	-200.000	0.020	-0.090
-583.850	151.772	0.058	-0.079
-582.836	-170.782	0.248	0.008
-581.821	-69.870	-0.117	-0.044
-580.806	-145.704	0.059	-0.005
-579.792	380.648	-0.094	0.191
-578.777	-55.389	0.383	0.171
-577.763	-130.847	-0.167	0.022
-576.748	-99.599	0.064	0.016
-575.733	-200.000	-0.055	0.326
-574.719	-90.046	-0.146	0.042
-573.704	62.294	0.198	0.196
-572.690	794.214	0.051	0.140
-571.675	273.350	0.072	-0.127
-570.661	-200.000	-0.061	-0.319
-569.646	-200.000	0.016	-0.231
-568.631	50.077	0.047	-0.044
-567.617	181.333	0.066	0.096
-566.602	-100.854	-0.090	-0.022
-565.588	12.271	0.123	0.094
-564.573	-200.000	-0.053	-0.423
-563.558	-35.620	0.200	-0.107
-562.544	-13.351	0.102	0.065
-561.529	-109.568	-0.210	0.044
-560.515	34.275	0.133	-0.115
-559.500	-149.712	0.348	-0.027
-558.485	189.061	-0.189	0.281
-557.471	-9.026	0.135	0.090
-556.456	-200.000	-0.045	-0.239
-555.442	-26.313	0.069	-0.040
-554.427	144.345	-0.069	-0.092
-553.412	32.627	0.267	0.229
-552.398	-39.826	-0.013	0.007
-551.383	-200.000	-0.041	-0.264
-550.369	12.494	0.148	0.113
-549.354	84.807	-0.109	-0.118
-548.339	-39.445	0.097	-0.051
-547.325	274.047	-0.210	-0.368
-546.310	-200.000	-0.018	-0.253
-545.296	-68.070	0.305	0.118
-544.281	-108.131	0.288	0.062
-543.266	128.978	0.114	0.144
-542.252	379.306	-0.088	-0.179
-541.237	-200.000	0.031	0.172
-540.223	-200.000	-0.041	0.241
-539.208	-81.390	-0.355	0.116
-538.193	-200.000	0.012	-0.195
-537.179	-58.166	0.311	0.134
-536.164	358.035	-0.076	-0.150
-535.150	-200.000	-0.015	0.471
-534.135	-29.662	0.228	-0.129
-533.121	-22.579	0.233	-0.140
-532.106	-200.000	0.003	0.168
-531.091	-87.258	0.096	0.029
-530.077	148.407	-0.229	-0.306
-529.062	-200.000	0.017	-0.284
-528.048	-162.125	-0.534	0.027
-527.033	-117.667	-0.224	-0.040
-526.018	-136.148	-0.173	0.020
-525.004	54.531	0.162	0.155
-523.989	-200.000	0.037	0.458
-522.975	315.227	0.120	-0.224
-521.960	588.118	-0.038	-0.093
-520.945	208.882	0.154	0.239
-519.931	328.453	-0.022	0.041
-518.916	-50.609	0.301	-0.140
-517.902	-91.802	0.090	-0.025
-516.887	-11.877	-0.074	-0.048
-515.872	-72.585	-0.110	-0.040
-514.858	-42.438	-0.056	0.028
-513.843	526.526	-0.077	0.180
-512.829	14.842	-0.278	0.215
-511.814	-50.041	0.286	0.134
-510.799	370.199	-0.071	0.142
-509.785	800.000	-0.025	0.086
-508.770	-77.400	0.043	0.015
-507.756	-200.000	0.008	0.283
-506.741	-32.581	0.224	-0.123
-505.726	586.130	-0.056	0.135
-504.712	56.579	0.143	0.137
-503.697	800.000	0.051	0.175
-502.683	-66.531	-0.340	-0.133
-501.668	463.058	-0.010	0.021
-500.653	300.324	-0.120	0.218
-499.639	-149.092	-0.368	0.029
-498.624	-30.119	0.052	-0.030
-497.610	-200.000	-0.031	-0.320
-496.595	-200.000	-0.031	-0.218
-495.581	-200.000	0.058	0.328
-494.566	84.265	0.208	0.225
-493.551	800.000	-0.079	0.238
-492.537	181.790	0.090	-0.131
-491.522	-101.384	-0.195	0.047
-490.508	800.000	0.023	0.088
-489.493	18.559	0.257	0.204
-488.478	-26.831	0.245	0.141
-487.464	-33.097	0.263	0.144
-486.449	433.193	-0.005	-0.010
-485.435	-14.530	0.191	0.122
-484.420	-100.990	-0.125	-0.030
-483.405	227.246	0.044	0.071
-482.391	-23.305	-0.359	0.214
-481.376	203.752	0.039	0.060
-480.362	240.029	0.169	-0.278
-479.347	-98.354	0.075	-0.019
-478.332	-74.649	-0.390	0.139
-477.318	75.009	-0.356	-0.370
-476.303	70.155	0.146	-0.149
-475.289	-101.211	-0.465	-0.112
-474.274	177.789	0.127	-0.183
-473.259	707.462	0.100	-0.261
-472.245	37.006	-0.280	-0.245
-471.230	-92.061	0.266	-0.074
-470.216	97.732	0.079	0.089
-469.201	454.910	-0.044	-0.097
-468.186	144.431	-0.244	0.322
-467.172	109.745	0.170	0.201
-466.157	-200.000	0.041	0.000
-465.143	37.530	-0.212	0.186
-464.128	326.417	-0.109	0.207
-463.113	0.169	-0.014	-0.010
-462.099	51.303	-0.296	0.278
-461.084	-61.050	-0.098	-0.041
-460.070	122.053	-0.161	0.198
-459.055	800.000	-0.113	-0.353
-458.040	-37.231	0.277	-0.146
-457.026	-200.000	0.019	0.119
-456.011	423.945	-0.052	0.111
-454.997	-81.766	0.269	-0.087
-453.982	188.645	0.064	-0.094
-452.968	373.776	-0.151	-0.304
-451.953	247.171	0.099	-0.165
-450.938	-79.298	0.271	0.091
-449.924	28.931	-0.521	0.436
-448.909	-76.343	0.058	0.020
-447.895	221.285	0.089	0.142
-446.880	55.830	0.185	0.177
-445.865	-17.119	-0.164	-0.102
-444.851	-43.639	0.215	0.107
-443.836	-115.904	0.120	-0.022
-442.822	135.550	0.097	0.125
-441.807	419.383	-0.013	-0.027
-440.792	221.814	0.168	0.266
-439.778	240.348	-0.081	-0.133
-438.763	28.926	-0.152	0.127
-437.749	37.337	-0.040	-0.035
-436.734	445.162	-0.041	-0.090
-435.719	-78.329	0.293	-0.099
-434.705	297.764	0.076	0.137
-433.690	-90.125	0.441	0.127
-432.676	4.883	-0.109	0.079
-431.661	-16.985	-0.344	0.215
-430.646	39.217	-0.062	-0.054
-429.632	-151.026	0.249	0.019
-428.617	-200.000	-0.020	-0.193
-427.603	-78.278	-0.092	-0.031
-426.588	83.904	-0.124	0.133
-425.573	-200.000	-0.017	0.348
-424.559	109.024	-0.141	-0.167
-423.544	248.470	-0.072	0.120
-422.530	-47.192	-0.288	-0.138
-421.515	12.581	-0.235	0.179
-420.500	546.891	-0.156	0.368
-419.486	-200.000	0.005	0.201
-418.471	-148.517	-0.039	-0.003
-417.457	117.023	-0.132	-0.160
-416.442	-112.445	0.303	-0.060
-415.428	-200.000	-0.066	0.295
-414.413	30.747	0.191	0.162
-413.398	-70.234	0.112	-0.042
-412.384	-109.934	0.075	0.015
-411.369	-94.863	0.144	-0.038
-410.355	633.587	-0.052	0.131
-409.340	468.666	0.129	-0.284
-408.325	394.534	-0.083	0.171
-407.311	329.201	-0.094	-0.178
-406.296	-77.471	-0.150	-0.051
-405.282	-200.000	0.072	-0.386
-404.267	22.739	-0.289	0.233
-403.252	434.770	-0.078	-0.167
-402.238	-200.000	0.016	-0.147
-401.223	-39.810	-0.114	-0.059
-400.209	-200.000	-0.040	-0.291
-399.194	461.334	-0.133	-0.292
-398.179	800.000	-0.046	0.149
-397.165	-21.903	-0.194	0.116
-396.150	113.017	0.036	0.043
-395.136	800.000	-0.057	-0.197
-394.121	168.391	0.094	-0.132
-393.106	-178.520	0.111	-0.003
-392.092	-107.495	0.347	-0.075
-391.077	249.747	-0.104	-0.174
-390.063	20.364	0.112	0.089
-389.048	-39.047	0.260	0.135
-388.033	-200.000	0.028	0.322
-387.019	-132.490	0.272	-0.034
-386.004	36.653	0.168	-0.146
-384.990	196.798	-0.151	-0.226
-383.975	800.000	0.130	-0.383
-382.960	-87.144	-0.157	0.047
-381.946	800.000	-0.058	-0.181
-380.931	341.617	0.126	-0.242
-379.917	-115.188	0.198	-0.037
-378.902	-200.000	0.145	-0.001
-377.888	-170.703	-0.179	0.006
-376.873	-200.000	0.035	0.210
-375.858	-62.179	0.173	-0.071
-374.844	-146.297	-0.058	0.005
-373.829	-11.249	0.281	0.182
-372.815	98.259	0.117	-0.132
-371.800	-200.000	-0.096	-0.434
-370.785	-177.438	0.251	0.006
-369.771	800.000	0.021	0.072
-368.756	-200.000	0.016	-0.079
-367.742	-200.000	0.027	0.259
-366.727	0.222	-0.035	0.025
-365.712	-113.863	-0.122	-0.023
-364.698	3.695	-0.073	0.053
-363.683	-95.479	-0.033	-0.009
-362.669	-123.262	-0.171	0.027
-361.654	55.045	-0.185	0.176
-360.639	97.107	0.192	-0.216
-359.625	-118.357	0.167	0.029
-358.610	800.000	0.049	-0.133
-357.596	167.427	-0.064	-0.089
-356.581	-72.047	-0.149	-0.054
-355.566	185.480	-0.301	0.439
-354.552	-200.000	0.030	0.503
-353.537	-72.507	-0.239	-0.087
-352.523	800.000	-0.031	0.119
-351.508	800.000	-0.057	0.161
-350.493	50.983	-0.198	0.184
-349.479	146.145	0.120	0.158
-348.464	-3.164	0.082	-0.056
-347.450	28.870	0.185	0.154
-346.435	800.000	0.081	0.322
-345.420	210.796	0.114	0.177
-344.406	-200.000	-0.043	-0.302
-343.391	-96.950	-0.221	-0.057
-342.377	-59.383	-0.093	0.039
-341.362	108.635	0.149	0.175
-340.348	19.720	0.281	-0.223
-339.333	-63.185	0.135	-0.055
-338.318	-45.032	-0.154	0.075
-337.304	458.449	0.043	-0.093
-336.289	-29.382	0.152	0.085
-335.275	686.099	-0.077	0.198
-334.260	269.608	-0.244	-0.421
-333.245	-91.998	-0.264	-0.073
-332.231	42.083	0.385	-0.344
-331.216	177.535	0.086	0.123
-330.202	-200.000	-0.012	0.259
-329.187	-0.987	0.035	-0.024
-328.172	-31.988	-0.038	0.021
-327.158	213.980	-0.141	0.219
-326.143	175.016	-0.154	-0.219
-325.129	-48.129	0.176	0.083
-324.114	800.000	0.060	0.247
-323.099	450.547	0.090	-0.195
-322.085	169.268	0.185	-0.259
-321.070	-127.556	0.008	-0.001
-320.056	136.810	-0.122	0.156
-319.041	249.086	0.206	0.342
-318.026	223.663	0.388	0.615
-317.012	-113.217	-0.165	0.032
-315.997	-100.993	0.039	-0.010
-314.983	-190.764	0.143	-0.001
-313.968	429.774	0.076	-0.161
-312.953	99.470	-0.101	-0.114
-311.939	105.473	-0.094	-0.109
-310.924	800.000	0.105	-0.313
-309.910	-58.502	0.323	0.138
-308.895	-138.185	0.323	0.035
-307.880	3.202	0.186	0.133
-306.866	65.450	0.311	-0.309
-305.851	93.239	-0.106	-0.118
-304.837	-36.929	-0.135	0.071
-303.822	-166.779	-0.143	-0.006
-302.807	681.111	-0.110	0.282
-301.793	-200.000	-0.004	-0.109
-300.778	-186.765	-0.312	0.004
-299.764	69.313	-0.162	-0.164
-298.749	-94.216	-0.044	0.012
-297.735	200.416	-0.092	0.139
-296.720	-64.282	-0.140	-0.056
-295.705	-115.747	0.301	0.055
-294.691	89.979	0.026	-0.028
-293.676	98.832	-0.157	0.178
-292.662	595.909	0.144	-0.350
-291.647	-140.381	-0.236	0.024
-290.632	54.776	-0.247	-0.234
-289.618	102.739	0.107	0.123
-288.603	-158.462	0.146	-0.008
-287.589	10.658	-0.060	0.045
-286.574	-24.695	0.111	0.065
-285.559	-56.588	-0.168	-0.073
-284.545	532.361	0.025	-0.058
-283.530	373.079	-0.062	-0.123
-282.516	375.850	-0.094	-0.189
-281.501	-143.862	0.351	-0.032
-280.486	-72.880	0.283	-0.102
-279.472	-200.000	0.018	-0.282
-278.457	-42.397	0.146	-0.073
-277.443	-200.000	-0.017	-0.221
-276.428	470.526	0.141	0.312
-275.413	-47.010	-0.334	0.160
-274.399	60.086	-0.090	0.088
-273.384	-146.422	-0.440	-0.038
-272.370	16.878	0.120	0.093
-271.355	-91.443	0.310	-0.087
-270.340	-51.647	-0.197	-0.090
-269.326	41.095	0.282	-0.250
-268.311	800.000	-0.099	-0.295
-267.297	-11.496	0.297	-0.191
-266.282	402.872	-0.098	-0.201
-265.267	-14.467	0.262	0.165
-264.253	-200.000	0.021	-0.164
-263.238	-200.000	0.013	-0.129
-262.224	800.000	0.135	-0.547
-261.209	-134.312	-0.303	0.036
-260.195	172.553	0.084	-0.119
-259.180	104.733	-0.203	0.235
-258.165	-200.000	0.013	-0.194
-257.151	-200.000	0.002	0.316
-256.136	32.344	-0.232	-0.196
-255.122	800.000	0.046	-0.164
-254.107	-200.000	-0.004	-0.038
-253.092	-21.939	0.239	0.142
-252.078	-128.563	-0.195	-0.027
-251.063	-200.000	-0.006	-0.133
-250.049	144.473	-0.187	-0.245
-249.034	7.963	-0.247	0.181
-248.019	314.687	0.097	0.180
-247.005	420.835	-0.120	0.252
-245.990	53.370	0.256	0.240
-244.976	800.000	-0.057	-0.187
-243.961	-200.000	0.044	0.232
-242.946	-139.715	-0.169	0.018
-241.932	-126.161	0.186	-0.027
-240.917	-150.913	-0.076	0.006
-239.903	117.895	0.203	-0.245
-238.888	-200.000	-0.002	-0.168
-237.873	-137.110	0.070	-0.008
-236.859	107.525	0.259	-0.301
-235.844	33.770	-0.264	0.225
-234.830	332.887	0.053	0.100
-233.815	-79.433	0.388	0.129
-232.800	142.846	-0.184	0.239
-231.786	-1.026	0.212	-0.147
-230.771	-29.954	-0.145	0.081
-229.757	144.137	0.254	0.331
-228.742	21.184	-0.041	-0.033
-227.727	-24.977	-0.080	-0.047
-226.713	76.717	0.259	-0.269
-225.698	-148.512	0.326	-0.026
-224.684	-200.000	0.014	-0.091
-223.669	78.961	-0.175	0.183
-222.655	-200.000	-0.100	0.466
-221.640	78.441	-0.066	0.069
-220.625	26.908	-0.177	-0.145
-219.611	800.000	0.089	0.295
-218.596	-132.621	0.173	-0.022
-217.582	411.521	-0.130	0.270
-216.567	-200.000	0.032	0.143
-215.552	800.000	0.033	-0.126
-214.538	-42.773	0.254	0.126
-213.523	422.635	-0.016	0.033
-212.509	175.395	0.103	0.145
-211.494	24.068	-0.225	0.182
-210.479	-200.000	-0.005	0.176
-209.465	343.785	0.159	-0.305
-208.450	54.448	0.097	0.092
-207.436	32.752	0.163	-0.138
-206.421	200.856	0.233	-0.350
-205.406	-71.120	-0.073	0.027
-204.392	800.000	0.059	-0.162
-203.377	-69.716	0.212	0.079
-202.363	-24.472	-0.390	0.227
-201.348	-200.000	-0.047	0.538
-200.333	166.206	0.126	-0.174
-199.319	-112.603	-0.106	-0.021
-198.304	48.107	0.275	0.251
-197.290	-84.776	0.153	-0.047
-196.275	-200.000	0.055	-0.526
-195.260	30.962	-0.151	-0.126
-194.246	0.275	-0.035	-0.024
-193.231	114.711	-0.100	-0.119
-192.217	-200.000	-0.014	-0.066
-191.202	-200.000	-0.060	-0.285
-190.187	-40.005	-0.257	-0.131
-189.173	9.080	-0.156	-0.115
-188.158	-153.279	-0.050	-0.003
-187.144	-200.000	-0.044	0.467
-186.129	-68.039	-0.233	0.089
-185.114	-139.136	-0.181	0.019
-184.100	-135.277	-0.215	0.025
-183.085	-108.232	0.212	0.045
-182.071	248.219	0.218	-0.361
-181.056	-14.992	-0.132	0.082
-180.042	374.072	0.047	-0.093
-179.027	800.000	0.026	-0.093
-178.012	233.451	-0.124	-0.199
-176.998	133.380	0.090	0.114
-175.983	-200.000	-0.002	0.071
-174.969	-36.338	-0.213	-0.112
-173.954	77.329	0.096	-0.100
-172.939	314.267	-0.045	0.082
-171.925	-137.974	0.138	-0.015
-170.910	-67.685	-0.193	-0.074
-169.896	57.524	0.220	-0.210
-168.881	318.718	0.224	0.414
-167.866	-200.000	-0.007	0.394
-166.852	800.000	-0.097	-0.403
-165.837	14.949	-0.246	0.188
-164.823	-125.639	-0.246	0.036
-163.808	210.164	-0.145	-0.223
-162.793	285.600	-0.233	-0.410
-161.779	-200.000	0.067	-0.312
-160.764	-200.000	-0.004	0.234
-159.750	-22.060	0.239	0.142
-158.735	-200.000	0.044	-0.225
-157.720	14.523	-0.311	-0.237
-156.706	138.994	-0.230	-0.295
-155.691	250.217	0.163	0.270
-154.677	123.375	0.121	-0.148
-153.662	178.822	-0.088	0.125
-152.647	-160.066	-0.212	-0.011
-151.633	800.000	0.040	-0.164
-150.618	92.459	0.110	-0.121
-149.604	100.660	-0.137	-0.156
-148.589	71.109	-0.246	-0.249
-147.574	800.000	0.108	-0.413
-146.560	-200.000	0.028	0.229
-145.545	452.592	-0.106	0.228
-144.531	754.782	0.091	-0.239
-143.516	-48.866	-0.309	-0.144
-142.502	-60.337	0.305	-0.127
-141.487	-79.584	0.402	0.132
-140.472	40.074	-0.227	0.199
-139.458	800.000	-0.012	-0.035
-138.443	96.540	0.152	0.170
-137.429	-46.138	0.236	-0.113
-136.414	272.690	-0.096	0.166
-135.399	-80.738	-0.196	0.064
-134.385	82.806	-0.223	-0.236
-133.370	-200.000	-0.038	-0.226
-132.356	-38.282	-0.242	-0.125
-131.341	-200.000	0.028	-0.131
-130.326	-48.957	-0.315	-0.147
-129.312	-200.000	0.032	-0.381
-128.297	-29.037	0.231	0.129
-127.283	-200.000	0.058	-0.299
-126.268	42.455	0.109	-0.097
-125.253	-190.802	-0.260	-0.003
-124.239	-34.837	-0.272	-0.145
-123.224	39.254	0.317	-0.277
-122.210	50.737	-0.223	0.206
-121.195	-99.322	0.177	-0.044
-120.180	-200.000	-0.022	0.097
-119.166	187.544	0.192	0.279
-118.151	-91.680	0.379	-0.105
-117.137	-18.937	0.083	-0.050
-116.122	-200.000	0.002	0.024
-115.107	-19.507	-0.184	-0.111
-114.093	-200.000	-0.030	-0.173
-113.078	-58.891	0.160	0.067
-112.064	-95.211	-0.222	-0.058
-111.049	800.000	0.057	0.181
-110.034	800.000	0.060	0.201
-109.020	32.034	0.067	0.056
-108.005	-69.041	-0.220	0.083
-106.991	3.864	-0.274	0.195
-105.976	585.163	0.007	-0.018
-104.962	-200.000	0.075	-0.327
-103.947	708.456	0.111	0.285
-102.932	-172.858	0.181	0.005
-101.918	-200.000	-0.026	-0.127
-100.903	44.639	0.346	0.310
-99.889	-17.169	-0.148	-0.091
-98.874	18.911	-0.136	-0.106
-97.859	785.188	-0.034	-0.091
-96.845	15.257	-0.146	-0.111
-95.830	-70.443	-0.096	0.035
-94.816	160.225	0.141	-0.192
-93.801	-122.634	0.166	-0.026
-92.786	152.918	0.322	0.429
-91.772	-103.509	-0.049	-0.011
-90.757	-41.282	-0.116	-0.058
-89.743	-21.498	-0.010	-0.006
-88.728	-14.626	-0.038	0.024
-87.713	118.536	0.042	-0.051
-86.699	76.848	-0.111	-0.114
-85.684	-35.768	0.208	0.110
-84.670	800.000	-0.086	0.238
-83.655	780.442	0.085	0.227
-82.640	-165.410	-0.171	-0.007
-81.626	-68.442	-0.297	-0.112
-80.611	800.000	0.067	-0.222
-79.597	465.406	-0.025	0.055
-78.582	-127.824	0.125	-0.018
-77.567	169.738	0.066	-0.092
-76.553	-200.000	0.025	-0.251
-75.538	800.000	-0.144	0.450
-74.524	789.628	0.029	-0.078
-73.509	27.787	-0.026	-0.021
-72.494	-28.392	0.060	0.034
-71.480	-200.000	-0.028	0.260
-70.465	144.145	-0.055	-0.072
-69.451	-185.844	0.174	0.003
-68.436	-76.106	-0.318	0.109
-67.422	-63.070	0.134	0.054
-66.407	-200.000	0.039	0.273
-65.392	247.695	0.141	0.232
-64.378	454.132	0.142	0.305
-63.363	-200.000	-0.019	-0.133
-62.349	128.763	0.263	0.326
-61.334	33.532	-1.180	-0.997
-60.319	275.575	0.500	0.863
-59.305	265.840	-0.677	-1.149
-58.290	263.534	0.959	1.620
-57.276	800.000	0.405	1.710
-56.261	-200.000	124.692	647.167
-55.246	408.235	1578.872	3247.125
-54.232	140.890	2751.165	3535.358
-53.217	89.125	2310.346	2501.515
-52.203	32.341	1916.376	1608.484
-51.188	26.134	1711.750	1389.089
-50.173	24.010	1673.005	1341.599
-49.159	45.877	1742.129	1566.375
-48.144	43.278	1753.747	1556.744
-47.130	25.811	1704.708	1380.676
-46.115	23.290	1689.255	1348.933
-45.100	23.114	1684.446	1343.704
-44.086	23.152	1681.610	1341.672
-43.071	23.087	1679.981	1339.827
-42.057	23.077	1677.332	1337.591
-41.042	23.017	1675.572	1335.675
-40.027	23.031	1673.496	1334.076
-39.013	23.081	1671.501	1332.808
-37.998	23.120	1669.980	1331.837
-36.984	23.065	1669.175	1330.729
-35.969	23.202	1667.279	1330.191
-34.954	23.225	1665.668	1329.030
-33.940	23.222	1663.441	1327.175
-32.925	23.157	1662.306	1325.730
-31.911	23.122	1661.045	1324.412
-30.896	23.144	1658.962	1322.864
-29.881	23.186	1657.359	1321.847
-28.867	23.167	1656.076	1320.623
-27.852	23.154	1654.551	1319.263
-26.838	23.222	1652.921	1318.419
-25.823	23.105	1652.051	1316.801
-24.809	23.162	1650.676	1316.072
-23.794	23.302	1648.753	1315.532
-22.779	23.241	1647.534	1314.054
-21.765	23.147	1646.179	1312.223
-20.750	23.166	1644.296	1310.805
-19.736	23.250	1642.787	1310.173
-18.721	23.216	1641.698	1309.003
-17.706	23.136	1640.040	1307.040
-16.692	23.220	1638.262	1306.187
-15.677	23.187	1637.088	1304.960
-14.663	23.338	1635.722	1304.927
-13.648	23.184	1634.798	1303.010
-12.633	23.256	1632.881	1301.954
-11.619	23.260	1631.453	1300.796
-10.604	23.315	1629.548	1299.626
-9.590	23.246	1628.692	1298.392
-8.575	23.241	1627.194	1297.107
-7.560	23.155	1626.214	1295.641
-6.546	23.172	1625.321	1295.003
-5.531	23.230	1623.984	1294.314
-4.517	23.278	1622.781	1293.655
-3.502	23.169	1621.758	1291.991
-2.487	23.281	1619.751	1291.154
-1.473	22.915	1607.102	1278.374
-0.458	20.052	1587.294	1242.077
0.556	15.088	1589.891	1212.157
1.571	13.160	1613.536	1215.899
2.586	13.031	1626.634	1224.706
3.600	12.089	1571.700	1176.483
4.615	6.651	1463.391	1058.897
5.629	1.244	1404.551	981.334
6.644	0.329	1396.954	970.050
7.659	0.165	1396.290	968.446
8.673	0.134	1395.754	967.793
9.688	0.112	1392.936	965.612
10.702	-0.035	1389.875	962.460
11.717	2.627	1393.499	981.956
12.731	9.439	1404.138	1033.222
13.746	15.221	1412.008	1076.156
14.761	16.656	1413.673	1086.546
15.775	16.158	1411.614	1081.672
16.790	15.154	1409.306	1073.382
17.804	14.504	1406.806	1067.220
18.819	14.039	1405.828	1063.414
19.834	13.774	1404.769	1060.821
20.848	13.680	1402.744	1058.601
21.863	13.419	1401.476	1055.884
22.877	13.193	1400.355	1053.505
23.892	13.068	1399.805	1052.200
24.907	13.195	1398.630	1052.035
25.921	13.186	1397.554	1051.071
26.936	13.126	1397.139	1050.289
27.950	13.233	1396.204	1050.171
28.965	13.334	1394.725	1049.605
29.980	13.382	1393.623	1048.986
30.994	13.436	1392.766	1048.591
32.009	13.435	1391.981	1047.903
33.023	13.298	1391.049	1046.240
34.038	13.349	1389.880	1045.594
35.053	13.287	1388.757	1044.266
36.067	13.274	1387.539	1043.175
37.082	13.388	1385.711	1042.423
38.096	13.407	1385.806	1042.526
39.111	13.323	1384.654	1041.037
40.126	13.360	1383.557	1040.351
41.140	13.231	1382.807	1038.886
42.155	13.198	1382.624	1038.446
43.169	13.191	1382.628	1038.315
44.184	13.063	1381.983	1036.932
45.199	13.155	1381.710	1037.219
46.213	13.182	1380.943	1036.717
47.228	13.264	1379.956	1036.398
48.242	13.301	1378.210	1035.229
49.257	13.205	1377.523	1034.018
50.271	13.244	1375.664	1032.775
51.286	13.294	1374.100	1031.825
52.301	13.345	1372.838	1031.099
53.315	13.227	1371.666	1029.399
54.330	13.224	1370.538	1028.440
55.344	13.178	1369.943	1027.618
56.359	13.209	1368.239	1026.442
57.374	13.121	1367.464	1025.223
58.388	13.062	1366.675	1024.174
59.403	13.142	1366.195	1024.216
60.417	13.133	1365.546	1023.586
61.432	13.065	1364.586	1022.355
62.447	13.112	1363.115	1021.450
63.461	13.056	1362.419	1020.493
64.476	13.077	1361.309	1019.706
65.490	13.095	1360.318	1018.979
66.505	13.011	1358.182	1016.772
67.520	13.032	1357.237	1016.105
68.534	13.092	1356.679	1015.965
69.549	13.044	1355.439	1014.656
70.563	13.093	1354.227	1013.957
71.578	13.101	1353.276	1013.202
72.593	13.018	1351.835	1011.529
73.607	12.930	1351.014	1010.281
74.622	12.892	1350.394	1009.500
75.636	12.991	1349.614	1009.433
76.651	13.076	1348.339	1008.909
77.666	12.923	1348.324	1007.871
78.680	13.020	1347.959	1008.101
79.695	12.992	1346.808	1006.981
80.709	12.950	1345.743	1005.839
81.724	13.077	1344.897	1005.892
82.739	13.161	1343.543	1005.305
83.753	13.210	1342.687	1004.869
84.768	13.264	1341.721	1004.391
85.782	13.197	1340.492	1002.973
86.797	13.310	1339.123	1002.546
87.812	13.250	1337.746	1001.062
88.826	13.153	1336.996	999.822
89.841	13.156	1336.243	999.189
90.855	13.193	1334.980	998.379
91.870	13.187	1334.300	997.751
92.884	13.226	1333.198	997.074
93.899	13.354	1332.084	996.922
94.914	13.385	1331.462	996.552
95.928	13.367	1330.660	995.761
96.943	13.341	1329.907	994.950
97.957	13.377	1328.434	993.978
98.972	13.322	1327.510	992.868
99.987	13.337	1326.462	992.085
101.001	13.366	1325.438	991.405
102.016	13.254	1324.490	989.938
103.030	13.230	1324.014	989.352
104.045	13.364	1322.440	988.887
105.060	13.246	1321.848	987.653
106.074	13.297	1320.098	986.561
107.089	13.131	1318.835	984.542
108.103	13.031	1318.292	983.455
109.118	13.129	1316.256	982.429
110.133	13.104	1314.870	981.160
111.147	13.155	1313.550	980.389
112.162	13.146	1312.401	979.394
113.176	13.237	1311.123	978.893
114.191	13.183	1310.477	978.002
115.206	13.084	1309.458	976.571
116.220	13.164	1307.793	975.718
117.235	13.287	1306.652	975.507
118.249	13.310	1305.722	974.859
119.264	13.137	1304.523	972.857
120.279	13.243	1303.420	972.573
121.293	13.166	1302.504	971.352
122.308	13.214	1301.006	970.432
123.322	13.096	1300.400	969.201
124.337	13.163	1298.911	968.396
125.352	13.138	1298.277	967.694
126.366	13.150	1297.142	966.832
127.381	13.172	1295.803	965.878
128.395	13.179	1294.764	965.059
129.410	13.200	1293.728	964.323
130.424	13.223	1292.863	963.725
131.439	13.142	1291.813	962.385
132.454	13.277	1290.590	962.174
133.468	13.264	1289.744	961.382
134.483	13.167	1289.432	960.501
135.497	13.167	1288.211	959.507
136.512	13.301	1286.287	958.768
137.527	13.215	1284.950	957.189
138.541	13.177	1283.951	956.139
139.556	13.200	1282.757	955.298
140.570	13.266	1281.408	954.588
141.585	13.332	1280.550	954.249
142.600	13.353	1279.293	953.349
143.614	13.434	1278.364	953.037
144.629	13.526	1277.089	952.531
145.643	13.431	1275.900	951.012
146.658	13.353	1274.800	949.664
147.673	13.410	1273.226	948.734
148.687	13.364	1272.192	947.616
149.702	13.292	1271.153	946.346
150.716	13.250	1269.790	945.008
151.731	13.347	1268.406	944.448
152.746	13.373	1267.098	943.537
153.760	13.414	1266.153	942.982
154.775	13.427	1264.877	942.025
155.789	13.519	1263.906	941.742
156.804	13.481	1262.703	940.547
157.819	13.415	1261.988	939.555
158.833	13.484	1261.328	939.373
159.848	13.677	1259.507	939.027
160.862	13.512	1259.225	937.801
161.877	13.393	1257.829	936.004
162.892	13.453	1256.897	935.564
163.906	13.490	1255.533	934.676
164.921	13.488	1254.879	934.096
165.935	13.538	1254.111	933.721
166.950	13.516	1253.470	933.039
167.964	13.608	1252.499	932.752
168.979	13.530	1251.531	931.509
169.994	13.580	1250.713	931.099
171.008	13.526	1250.085	930.246
172.023	13.626	1249.082	929.977
173.037	13.667	1248.163	929.440
174.052	13.652	1247.463	928.751
175.067	13.699	1246.531	928.242
176.081	13.573	1245.103	926.393
177.096	13.693	1244.492	926.523
178.110	13.692	1243.275	925.533
179.125	13.623	1241.745	923.928
180.140	13.485	1241.092	922.590
181.154	13.654	1240.228	922.806
182.169	13.713	1238.938	922.094
183.183	13.792	1237.529	921.404
184.198	13.655	1236.612	919.878
185.213	13.757	1235.325	919.402
186.227	13.831	1233.973	918.725
187.242	13.788	1233.181	917.817
188.256	13.857	1231.984	917.226
189.271	13.926	1231.029	916.816
190.286	13.727	1230.199	915.019
191.300	13.672	1229.066	913.793
192.315	13.777	1228.367	913.767
193.329	13.621	1228.303	912.783
194.344	13.707	1227.462	912.550
195.359	13.841	1226.969	912.839
196.373	13.882	1226.281	912.473
197.388	13.979	1225.599	912.418
198.402	13.831	1225.673	911.577
199.417	13.957	1224.818	911.551
200.432	14.098	1223.348	911.153
201.446	14.009	1222.570	910.004
202.461	14.129	1221.307	909.640
203.475	14.015	1220.613	908.416
204.490	14.021	1219.405	907.469
205.504	13.979	1218.278	906.325
206.519	14.120	1216.525	905.706
207.534	14.066	1216.132	905.042
208.548	14.076	1215.033	904.196
209.563	14.052	1214.491	903.582
210.577	14.109	1213.139	902.808
211.592	14.206	1212.640	902.884
212.607	14.214	1211.465	901.969
213.621	14.305	1210.266	901.490
214.636	14.109	1210.042	900.183
215.650	14.183	1208.883	899.642
216.665	14.150	1208.548	899.135
217.680	14.239	1207.270	898.587
218.694	14.290	1206.138	897.938
219.709	14.322	1205.324	897.425
220.723	14.287	1204.785	896.758
221.738	14.343	1203.932	896.344
222.753	14.332	1203.291	895.727
223.767	14.368	1202.204	895.034
224.782	14.567	1201.386	895.413
225.796	14.467	1201.040	894.538
226.811	14.436	1200.345	893.776
227.826	14.384	1199.926	893.104
228.840	14.451	1199.237	892.870
229.855	14.392	1198.613	892.015
230.869	14.360	1197.637	891.036
231.884	14.426	1196.263	890.289
232.899	14.414	1195.604	889.657
233.913	14.333	1195.164	888.819
234.928	14.353	1194.201	888.129
235.942	14.369	1193.701	887.761
236.957	14.410	1192.793	887.227
237.972	14.411	1191.866	886.463
238.986	14.394	1191.474	886.004
240.001	14.401	1190.964	885.583
241.015	14.434	1189.732	884.764
242.030	14.517	1188.214	884.000
243.045	14.504	1188.208	883.846
244.059	14.489	1187.712	883.318
245.074	14.495	1186.844	882.628
246.088	14.508	1185.941	881.946
247.103	14.633	1184.557	881.497
248.117	14.443	1184.527	880.395
249.132	14.673	1183.253	880.581
250.147	14.745	1182.970	880.677
251.161	14.803	1181.847	880.064
252.176	14.835	1181.298	879.747
253.190	14.803	1180.463	878.880
254.205	14.896	1179.996	878.945
255.220	14.961	1179.307	878.693
256.234	14.835	1178.991	877.720
257.249	14.944	1178.032	877.502
258.263	14.931	1177.438	876.911
259.278	14.907	1177.104	876.458
260.293	14.898	1176.407	875.816
261.307	14.976	1175.699	875.619
262.322	15.003	1175.127	875.255
263.336	15.128	1174.065	875.040
264.351	14.992	1174.009	874.212
265.366	15.152	1173.240	874.397
266.380	15.081	1172.182	873.163
267.395	14.978	1171.534	872.066
268.409	15.010	1170.812	871.616
269.424	15.033	1170.021	871.072
270.439	15.047	1169.440	870.635
271.453	15.024	1168.651	869.849
272.468	15.007	1167.731	869.001
273.482	15.143	1166.515	868.722
274.497	15.142	1166.473	868.608
275.512	15.104	1165.791	867.829
276.526	15.017	1165.280	866.920
277.541	15.174	1164.102	866.782
278.555	15.129	1163.782	866.233
279.570	15.175	1162.627	865.533
280.585	15.171	1161.821	864.834
281.599	15.176	1161.085	864.236
282.614	15.296	1159.689	863.742
283.628	15.259	1158.999	862.960
284.643	15.241	1157.813	861.905
285.657	15.292	1156.995	861.486
286.672	15.283	1156.163	860.741
287.687	15.272	1155.260	859.937
288.701	15.382	1154.406	859.790
289.716	15.286	1154.088	858.982
290.730	15.264	1152.980	857.973
291.745	15.364	1152.522	858.065
292.760	15.252	1152.012	857.038
293.774	15.367	1151.290	857.012
294.789	15.437	1150.660	856.827
295.803	15.452	1150.176	856.463
296.818	15.542	1148.852	855.862
297.833	15.513	1148.186	855.145
298.847	15.469	1147.486	854.321
299.862	15.464	1146.731	853.660
300.876	15.484	1146.226	853.308
301.891	15.577	1145.487	853.154
302.906	15.653	1144.640	852.837
303.920	15.578	1143.844	851.788
304.935	15.663	1143.288	851.725
305.949	15.651	1142.695	851.152
306.964	15.736	1141.961	850.959
307.979	15.687	1141.710	850.446
308.993	15.695	1140.394	849.433
310.008	15.770	1139.706	849.223
311.022	15.774	1138.758	848.462
312.037	15.755	1138.109	847.805
313.052	15.661	1137.479	846.788
314.066	15.675	1136.414	845.994
315.081	15.613	1135.728	845.093
316.095	15.598	1134.941	844.361
317.110	15.674	1134.056	844.010
318.125	15.727	1133.183	843.550
319.139	15.688	1132.658	842.887
320.154	15.683	1132.055	842.341
321.168	15.673	1131.176	841.563
322.183	15.772	1130.340	841.362
323.197	15.751	1130.186	841.065
324.212	15.794	1129.336	840.574
325.227	15.815	1129.062	840.400
326.241	15.745	1128.208	839.338
327.256	15.777	1127.251	838.715
328.270	15.769	1126.195	837.815
329.285	15.819	1125.599	837.545
330.300	15.880	1124.440	836.914
331.314	15.944	1123.394	836.378
332.329	15.889	1122.759	835.556
333.343	15.849	1121.700	834.496
334.358	15.899	1121.165	834.275
335.373	15.897	1120.465	833.668
336.387	16.054	1119.294	833.499
337.402	15.930	1118.681	832.355
338.416	15.952	1118.001	831.888
339.431	15.953	1117.091	831.142
340.446	16.114	1116.478	831.407
341.460	16.072	1115.633	830.496
342.475	16.080	1115.305	830.217
343.489	16.147	1114.388	829.790
344.504	16.170	1113.053	828.836
345.519	16.186	1112.561	828.473
346.533	16.278	1111.551	828.099
347.548	16.155	1110.805	826.868
348.562	16.289	1110.064	826.903
349.577	16.292	1109.208	826.205
350.592	16.251	1108.221	825.197
351.606	16.251	1107.695	824.733
352.621	16.227	1106.989	824.015
353.635	16.209	1106.670	823.616
354.650	16.184	1105.962	822.898
355.665	16.113	1105.374	822.039
356.679	16.248	1104.490	821.968
357.694	16.275	1103.714	821.447
358.708	16.324	1103.115	821.168
359.723	16.309	1102.571	820.617
360.738	16.424	1101.608	820.383
361.752	16.356	1101.581	819.964
362.767	16.456	1100.898	819.866
363.781	16.340	1100.322	818.803
364.796	16.495	1099.456	818.834
365.810	16.346	1099.192	817.845
366.825	16.436	1098.521	817.711
367.840	16.625	1097.982	818.149
368.854	16.552	1097.180	817.126
369.869	16.530	1096.468	816.419
370.883	16.583	1095.635	815.982
371.898	16.568	1094.791	815.210
372.913	16.593	1094.227	814.835
373.927	16.573	1093.949	814.460
374.942	16.697	1093.290	814.498
375.956	16.682	1092.771	813.963
376.971	16.693	1091.980	813.355
377.986	16.745	1091.569	813.226
379.000	16.727	1090.828	812.516
380.015	16.760	1090.379	812.269
381.029	16.883	1089.473	812.113
382.044	16.799	1088.953	811.250
383.059	16.856	1088.283	810.951
384.073	16.881	1087.674	810.548
385.088	16.893	1086.487	809.648
386.102	16.954	1085.626	809.223
387.117	16.876	1084.693	808.087
388.132	16.827	1083.463	806.865
389.146	16.859	1082.984	806.590
390.161	16.886	1082.447	806.248
391.175	16.853	1081.721	805.479
392.190	16.921	1080.379	804.731
393.205	16.956	1080.080	804.601
394.219	16.988	1079.342	804.135
395.234	16.919	1078.408	803.039
396.248	16.973	1077.275	802.378
397.263	16.960	1076.535	801.694
398.278	16.837	1076.017	800.658
399.292	16.977	1075.050	800.529
400.307	16.977	1073.958	799.646
401.321	16.977	1073.527	799.252
402.336	16.882	1072.993	798.337
403.350	16.939	1072.544	798.201
404.365	17.046	1071.349	797.742
405.380	17.098	1070.539	797.313
406.394	17.118	1070.180	797.072
407.409	17.127	1069.520	796.551
408.423	17.188	1068.412	795.942
409.438	17.150	1068.172	795.512
410.453	17.245	1066.873	794.919
411.467	17.226	1066.210	794.265
412.482	17.160	1066.218	793.892
413.496	17.314	1065.035	793.662
414.511	17.284	1064.752	793.240
415.526	17.326	1064.512	793.186
416.540	17.400	1063.861	792.975
417.555	17.329	1063.074	791.991
418.569	17.269	1063.163	791.705
419.584	17.451	1062.044	791.648
420.599	17.478	1061.918	791.610
421.613	107.780	1331.940	1488.154
422.628	99.503	1371.228	1488.228
