DTS Sentinel unit serial number:	SN413079Multiplexer serial number:	ORYXHardware model number:	OX4-SRSoftware version number:	ORYX F/W v4.00 Oryx Data Collector v3.7.2.0data status	okinstallation	princeton_trtdifferential loss correction	single-endedforward channel	channel 2reverse channel	N/Adate	2019/09/16time	16:43:34forward acquisition time	60.00reverse acquisition time	0.00gamma	496.2192k internal	0.2304k external	0.2304temperature offset calibration	0.9942default loss term (dB/km)	0.3790temperature slope calibration	1.0000multiplexer offset coefficient	1.0000multiplexer slope coefficient	1.0000fibre end	0.00T internal ref (°C)	39.77T ext. ref 1 (°C)	15.17T ext. ref 2 (°C)	33.87length (m)	temperature (°C)	Stokes	anti-Stokes-747.200	-200.000	-0.028	-0.154
-746.185	-12.980	-0.468	0.310
-745.171	279.724	-0.076	0.139
-744.156	-200.000	0.029	0.333
-743.142	-200.000	0.058	-0.279
-742.127	-103.937	-0.209	-0.050
-741.112	147.943	0.050	-0.069
-740.098	-200.000	0.013	0.273
-739.083	-153.324	-0.163	-0.012
-738.069	-6.353	0.032	0.022
-737.054	-138.235	-0.286	0.032
-736.039	-196.460	-0.079	0.001
-735.025	-93.119	-0.189	0.054
-734.010	800.000	-0.140	-0.512
-732.996	-200.000	0.026	-0.263
-731.981	24.447	-0.150	0.127
-730.966	122.171	-0.140	-0.177
-729.952	-38.836	-0.211	-0.113
-728.937	-58.178	-0.338	0.150
-727.923	-200.000	0.016	0.219
-726.908	-13.100	-0.212	-0.140
-725.894	-93.910	-0.219	-0.061
-724.879	-200.000	0.010	-0.349
-723.864	-16.730	0.203	-0.131
-722.850	-200.000	-0.046	0.209
-721.835	-30.494	-0.300	-0.173
-720.821	-43.768	-0.202	-0.104
-719.806	336.613	0.018	-0.035
-718.791	524.000	0.188	-0.449
-717.777	651.303	0.152	-0.396
-716.762	222.674	-0.200	-0.328
-715.748	-38.262	-0.086	0.046
-714.733	-66.200	-0.095	0.038
-713.718	129.642	0.162	-0.211
-712.704	-79.337	0.069	0.024
-711.689	220.706	-0.204	-0.332
-710.675	-48.556	-0.212	-0.104
-709.660	-17.372	0.290	0.186
-708.645	61.431	-0.158	-0.159
-707.631	182.225	0.197	0.296
-706.616	158.874	0.024	-0.034
-705.602	32.435	0.282	-0.247
-704.587	125.609	0.073	0.094
-703.572	-103.487	0.147	-0.035
-702.558	-149.643	-0.207	-0.017
-701.543	147.022	-0.217	-0.297
-700.529	-45.120	0.045	-0.023
-699.514	111.879	-0.061	0.075
-698.499	158.693	-0.151	-0.213
-697.485	-157.819	-0.153	-0.009
-696.470	134.618	-0.231	-0.304
-695.456	270.530	-0.125	-0.223
-694.441	200.804	-0.167	-0.260
-693.426	-51.420	0.253	0.120
-692.412	80.999	0.073	0.080
-691.397	-200.000	-0.017	0.153
-690.383	52.422	-0.212	-0.205
-689.368	-65.353	-0.306	-0.125
-688.354	-11.450	0.246	-0.165
-687.339	110.847	-0.151	-0.184
-686.324	-200.000	0.014	0.181
-685.310	800.000	0.081	0.229
-684.295	800.000	-0.067	0.284
-683.281	31.645	-0.089	0.078
-682.266	127.489	-0.096	-0.123
-681.251	15.954	-0.345	-0.276
-680.237	-18.238	0.355	0.226
-679.222	211.743	-0.083	-0.132
-678.208	123.062	0.072	-0.092
-677.193	-200.000	0.004	0.345
-676.178	-68.519	0.252	-0.099
-675.164	160.829	0.156	-0.221
-674.149	-35.481	-0.433	0.239
-673.135	79.228	0.056	0.060
-672.120	800.000	0.075	-0.226
-671.105	-131.265	-0.454	-0.061
-670.091	-34.862	0.107	-0.059
-669.076	152.470	0.246	-0.341
-668.062	-99.660	0.066	0.017
-667.047	800.000	-0.050	-0.177
-666.032	36.239	-0.284	0.254
-665.018	-59.472	0.306	-0.134
-664.003	-69.099	-0.134	0.052
-662.989	14.227	0.158	-0.125
-661.974	28.927	-0.257	0.221
-660.959	19.703	0.085	-0.069
-659.945	800.000	0.026	-0.090
-658.930	-190.442	0.274	-0.003
-657.916	84.091	0.058	-0.064
-656.901	800.000	-0.145	-0.441
-655.886	-119.907	0.338	-0.059
-654.872	-200.000	-0.002	0.067
-653.857	800.000	0.037	-0.153
-652.843	-126.209	-0.220	-0.033
-651.828	-50.881	-0.256	0.122
-650.814	648.679	-0.196	-0.508
-649.799	67.282	-0.191	-0.198
-648.784	286.550	-0.024	-0.044
-647.770	-85.891	0.035	0.011
-646.755	-185.901	0.082	-0.001
-645.741	-184.627	-0.064	0.001
-644.726	30.302	-0.218	0.189
-643.711	514.869	-0.080	0.189
-642.697	-126.548	-0.231	-0.035
-641.682	291.594	-0.080	-0.148
-640.668	-200.000	-0.011	0.126
-639.653	67.967	-0.054	0.057
-638.638	-200.000	-0.004	-0.021
-637.624	-200.000	-0.009	0.100
-636.609	698.814	0.028	0.075
-635.595	-52.447	0.097	-0.046
-634.580	646.973	0.152	-0.394
-633.565	-63.228	0.317	-0.133
-632.551	-90.572	-0.330	0.097
-631.536	-200.000	-0.000	-0.003
-630.522	-109.222	-0.211	-0.045
-629.507	-200.000	-0.050	-0.281
-628.492	800.000	0.074	0.242
-627.478	1.317	0.219	-0.159
-626.463	15.462	-0.278	0.221
-625.449	800.000	0.050	-0.147
-624.434	800.000	0.062	-0.200
-623.419	-200.000	-0.005	-0.045
-622.405	-200.000	0.003	-0.136
-621.390	-200.000	-0.057	0.342
-620.376	-200.000	0.024	0.165
-619.361	-39.389	-0.209	-0.111
-618.346	800.000	-0.048	0.207
-617.332	-88.459	0.248	-0.075
-616.317	44.679	-0.251	0.234
-615.303	-128.618	0.156	-0.022
-614.288	-200.000	-0.046	-0.422
-613.273	-138.183	-0.088	-0.010
-612.259	-134.703	-0.114	0.014
-611.244	-69.106	-0.333	-0.130
-610.230	235.533	-0.071	0.118
-609.215	-63.430	0.261	0.109
-608.201	157.167	-0.141	-0.197
-607.186	-200.000	-0.052	-0.239
-606.171	543.771	-0.092	0.222
-605.157	-200.000	-0.055	0.307
-604.142	27.419	-0.221	-0.188
-603.128	-74.871	-0.034	0.012
-602.113	-123.418	0.180	0.029
-601.098	-169.665	-0.283	0.010
-600.084	416.199	0.153	-0.331
-599.069	26.981	-0.126	-0.107
-598.055	-120.165	-0.583	0.101
-597.040	29.563	-0.130	-0.112
-596.025	-163.155	0.028	-0.001
-595.011	-200.000	-0.041	0.219
-593.996	242.522	-0.045	0.077
-592.982	-133.732	0.048	-0.006
-591.967	-200.000	-0.057	-0.326
-590.952	800.000	0.097	0.333
-589.938	758.733	-0.101	0.278
-588.923	569.666	0.071	0.176
-587.909	286.480	-0.088	-0.160
-586.894	630.794	0.081	-0.208
-585.879	-97.731	-0.165	0.043
-584.865	-120.585	-0.241	0.041
-583.850	126.483	-0.025	-0.032
-582.836	483.801	-0.067	-0.154
-581.821	-60.373	0.112	0.048
-580.806	-64.017	0.241	-0.100
-579.792	-49.410	-0.330	0.159
-578.777	-79.405	-0.248	0.085
-577.763	0.059	-0.187	0.135
-576.748	800.000	0.028	-0.117
-575.733	-185.339	0.102	0.002
-574.719	587.145	0.087	-0.216
-573.704	-16.875	-0.203	0.130
-572.690	-3.897	0.112	-0.079
-571.675	39.812	-0.235	-0.213
-570.661	-56.101	0.202	-0.091
-569.646	55.977	0.133	0.131
-568.631	-96.060	-0.137	-0.037
-567.617	-200.000	0.046	0.242
-566.602	-99.258	-0.116	0.030
-565.588	-200.000	-0.003	0.054
-564.573	188.589	-0.114	0.172
-563.558	-200.000	-0.006	-0.235
-562.544	-92.043	-0.146	-0.042
-561.529	800.000	-0.020	-0.082
-560.515	-132.908	0.240	-0.031
-559.500	-200.000	-0.013	-0.162
-558.485	-113.679	-0.323	-0.064
-557.471	30.473	0.237	-0.205
-556.456	434.227	0.027	-0.059
-555.442	-19.363	0.054	0.034
-554.427	-131.049	0.260	-0.035
-553.412	93.159	0.072	-0.083
-552.398	-200.000	0.004	-0.334
-551.383	458.313	-0.089	-0.201
-550.369	-200.000	-0.022	0.307
-549.354	6.545	0.051	-0.039
-548.339	-71.052	-0.016	0.006
-547.325	31.770	-0.051	-0.045
-546.310	26.076	0.191	-0.161
-545.296	-125.821	-0.390	-0.060
-544.281	293.275	0.035	-0.065
-543.266	-200.000	0.010	-0.057
-542.252	-3.865	0.186	-0.131
-541.237	-50.444	-0.271	-0.129
-540.223	-143.331	0.274	-0.027
-539.208	274.533	0.093	-0.167
-538.193	41.419	0.105	-0.096
-537.179	-97.526	0.074	-0.019
-536.164	800.000	-0.091	0.391
-535.150	-177.298	0.212	0.005
-534.135	796.965	-0.120	0.335
-533.121	508.023	0.066	0.154
-532.106	-13.661	0.229	0.150
-531.091	532.778	0.138	0.329
-530.077	-47.019	0.260	0.128
-529.062	200.491	-0.064	0.099
-528.048	-200.000	0.018	0.218
-527.033	119.592	0.104	-0.129
-526.018	10.376	0.174	0.134
-525.004	25.876	-0.186	0.156
-523.989	251.969	-0.148	-0.255
-522.975	800.000	-0.034	-0.123
-521.960	-165.367	0.198	0.009
-520.945	224.418	0.124	-0.202
-519.931	-110.457	0.306	-0.064
-518.916	73.002	0.209	-0.220
-517.902	-200.000	-0.002	-0.070
-516.887	701.381	0.022	-0.059
-515.872	120.932	-0.131	-0.164
-514.858	56.446	0.282	0.277
-513.843	27.496	-0.259	0.220
-512.829	-83.875	0.221	-0.071
-511.814	-52.291	0.129	0.060
-510.799	497.590	-0.187	0.434
-509.785	219.603	0.217	-0.350
-508.770	-200.000	-0.005	-0.324
-507.756	-5.183	-0.152	0.106
-506.741	-75.854	0.204	-0.073
-505.726	-146.914	0.084	-0.007
-504.712	800.000	-0.023	0.088
-503.697	-25.336	-0.213	0.127
-502.683	-63.351	-0.219	0.091
-501.668	401.029	0.034	-0.072
-500.653	-135.456	0.259	-0.031
-499.639	-33.082	0.341	0.191
-498.624	416.993	0.105	-0.226
-497.610	-11.293	0.066	0.044
-496.595	291.013	-0.066	-0.121
-495.581	231.668	-0.090	0.149
-494.566	94.930	-0.160	-0.184
-493.551	9.723	0.151	-0.115
-492.537	306.113	-0.251	-0.471
-491.522	-76.573	-0.091	-0.032
-490.508	-200.000	0.001	0.010
-489.493	-118.060	0.249	0.045
-488.478	-139.816	-0.351	0.037
-487.464	502.541	0.180	0.419
-486.449	-200.000	-0.014	-0.069
-485.435	800.000	0.035	-0.100
-484.420	122.432	0.205	0.258
-483.405	-68.024	0.329	0.129
-482.391	800.000	-0.034	-0.140
-481.376	477.315	-0.061	-0.138
-480.362	311.303	0.103	-0.194
-479.347	324.987	0.135	0.260
-478.332	208.006	0.033	-0.052
-477.318	-16.679	-0.299	-0.191
-476.303	-38.226	0.312	-0.167
-475.289	-107.316	0.255	0.056
-474.274	800.000	-0.131	0.387
-473.259	-138.723	-0.210	0.023
-472.245	351.403	0.068	0.136
-471.230	147.269	-0.114	0.154
-470.216	386.493	-0.250	0.520
-469.201	-21.160	0.176	-0.108
-468.186	-88.012	0.075	0.023
-467.172	70.361	0.074	-0.077
-466.157	800.000	0.095	0.289
-465.143	554.924	0.102	-0.248
-464.128	-95.838	0.186	-0.050
-463.113	1.220	0.078	-0.056
-462.099	20.682	0.264	0.215
-461.084	-200.000	-0.011	0.086
-460.070	-143.189	0.053	0.005
-459.055	56.198	-0.277	-0.271
-458.040	-200.000	0.033	-0.203
-457.026	-119.750	-0.458	-0.080
-456.011	-92.926	-0.096	0.027
-454.997	-105.348	0.467	-0.107
-453.982	176.018	0.045	-0.065
-452.968	54.686	-0.093	0.090
-451.953	-200.000	-0.009	-0.051
-450.938	800.000	-0.082	-0.360
-449.924	32.203	-0.190	0.165
-448.909	368.294	-0.036	0.073
-447.895	-200.000	-0.026	-0.152
-446.880	36.875	-0.305	-0.271
-445.865	-200.000	0.004	0.192
-444.851	-200.000	-0.034	-0.293
-443.836	29.202	-0.150	0.128
-442.822	64.306	0.015	0.015
-441.807	-113.667	-0.144	-0.028
-440.792	-2.910	0.153	-0.107
-439.778	-70.194	0.269	0.103
-438.763	-152.119	-0.412	-0.030
-437.749	344.514	-0.008	-0.015
-436.734	-200.000	0.044	-0.222
-435.719	-200.000	0.026	-0.311
-434.705	-37.824	0.269	0.144
-433.690	174.078	-0.105	-0.153
-432.676	25.325	-0.171	0.143
-431.661	65.142	0.294	-0.299
-430.646	406.701	0.068	-0.144
-429.632	160.646	0.063	-0.088
-428.617	-119.567	-0.089	0.015
-427.603	-200.000	0.001	0.422
-426.588	-200.000	-0.026	-0.168
-425.573	-21.068	-0.203	0.125
-424.559	800.000	0.058	-0.165
-423.544	-60.955	0.103	0.044
-422.530	240.407	-0.167	0.279
-421.515	28.767	0.197	-0.168
-420.500	-170.921	-0.294	-0.010
-419.486	800.000	-0.025	0.101
-418.471	-102.488	0.152	-0.036
-417.457	-200.000	0.020	0.399
-416.442	800.000	-0.083	-0.256
-415.428	683.233	-0.140	0.366
-414.413	-85.201	-0.195	-0.061
-413.398	121.511	-0.127	-0.159
-412.384	-176.299	-0.113	0.003
-411.369	-55.067	0.158	0.072
-410.355	-200.000	-0.002	-0.076
-409.340	800.000	0.020	0.068
-408.325	-200.000	-0.004	0.087
-407.311	-200.000	-0.036	-0.233
-406.296	21.855	-0.288	-0.236
-405.282	40.922	0.073	0.066
-404.267	555.796	-0.134	0.324
-403.252	-200.000	0.031	0.139
-402.238	800.000	0.020	0.061
-401.223	-73.081	0.133	-0.049
-400.209	85.324	-0.117	0.129
-399.194	754.651	-0.035	-0.096
-398.179	191.999	0.107	-0.162
-397.165	111.632	0.113	0.137
-396.150	146.925	0.170	0.229
-395.136	-200.000	0.059	0.333
-394.121	-200.000	-0.025	-0.157
-393.106	-94.357	-0.535	-0.147
-392.092	-19.750	0.174	-0.108
-391.077	-156.160	0.172	-0.011
-390.063	-21.120	-0.181	-0.111
-389.048	-78.223	0.150	0.052
-388.033	-154.932	0.280	-0.019
-387.019	-54.811	0.085	0.038
-386.004	139.086	0.129	0.171
-384.990	-141.177	0.239	0.024
-383.975	13.188	-0.018	-0.014
-382.960	60.613	0.163	0.163
-381.946	132.434	-0.062	0.080
-380.931	800.000	0.041	0.170
-379.917	-200.000	-0.008	-0.234
-378.902	-125.024	0.127	-0.020
-377.888	-33.194	-0.300	-0.167
-376.873	-133.889	0.235	0.029
-375.858	-89.929	-0.163	0.048
-374.844	-200.000	-0.061	0.328
-373.829	-154.991	0.238	-0.016
-372.815	57.831	-0.242	0.238
-371.800	-135.314	0.072	-0.009
-370.785	24.267	0.209	-0.173
-369.771	133.078	-0.131	0.170
-368.756	-200.000	0.006	-0.075
-367.742	-59.965	0.258	-0.111
-366.727	-200.000	-0.013	-0.248
-365.712	-130.265	0.067	0.009
-364.698	-80.374	-0.279	0.093
-363.683	82.014	-0.027	-0.029
-362.669	-68.894	0.194	0.075
-361.654	-144.771	-0.156	0.014
-360.639	44.191	0.079	-0.072
-359.625	-93.444	-0.157	-0.044
-358.610	-117.268	-0.439	0.080
-357.596	127.615	0.134	-0.171
-356.581	-32.002	-0.261	0.147
-355.566	79.124	-0.021	0.023
-354.552	138.730	-0.126	-0.166
-353.537	31.572	0.054	-0.046
-352.523	500.179	-0.018	-0.041
-351.508	225.481	0.129	0.210
-350.493	-82.293	0.117	-0.038
-349.479	-96.012	0.087	-0.023
-348.464	800.000	0.070	-0.205
-347.450	-51.982	-0.099	-0.046
-346.435	588.128	0.127	-0.314
-345.420	201.669	-0.160	-0.247
-344.406	-78.093	-0.278	0.096
-343.391	800.000	-0.061	0.261
-342.377	-200.000	-0.021	0.258
-341.362	247.289	0.183	0.310
-340.348	180.870	0.301	-0.443
-339.333	-70.934	0.031	0.012
-338.318	149.640	-0.147	-0.199
-337.304	7.093	-0.140	0.105
-336.289	-200.000	-0.071	-0.425
-335.275	404.245	0.190	0.402
-334.260	77.987	-0.085	0.091
-333.245	-200.000	-0.010	0.160
-332.231	-200.000	-0.003	0.025
-331.216	-200.000	-0.028	0.413
-330.202	40.846	0.230	-0.208
-329.187	40.419	-0.115	0.104
-328.172	-118.903	-0.117	0.021
-327.158	255.679	0.166	0.284
-326.143	-200.000	0.049	-0.277
-325.129	800.000	-0.042	-0.152
-324.114	-64.563	0.227	-0.092
-323.099	22.768	-0.303	0.249
-322.085	190.041	-0.145	0.218
-321.070	-132.921	0.106	-0.013
-320.056	-200.000	0.001	-0.047
-319.041	-163.948	-0.468	-0.022
-318.026	-104.789	0.182	0.042
-317.012	4.049	-0.200	-0.147
-315.997	151.296	0.110	0.149
-314.983	228.776	-0.119	-0.194
-313.968	-48.826	0.343	0.165
-312.953	236.128	-0.128	0.212
-311.939	800.000	-0.057	-0.203
-310.924	74.636	-0.128	-0.135
-309.910	367.352	0.031	0.062
-308.895	10.055	-0.053	0.041
-307.880	571.560	-0.120	0.293
-306.866	-200.000	0.026	0.127
-305.851	533.602	0.117	0.277
-304.837	-2.661	-0.226	0.158
-303.822	64.753	-0.076	-0.077
-302.807	4.488	-0.098	-0.072
-301.793	800.000	-0.041	0.141
-300.778	-82.680	0.183	-0.059
-299.764	73.332	0.139	0.146
-298.749	-59.606	-0.228	0.098
-297.735	-78.034	-0.130	-0.045
-296.720	-184.735	0.278	-0.004
-295.705	0.766	0.132	0.095
-294.691	102.263	0.101	-0.118
-293.676	-61.374	-0.178	0.075
-292.662	38.847	0.115	0.103
-291.647	133.796	-0.106	-0.137
-290.632	-134.166	0.303	-0.037
-289.618	800.000	0.087	-0.275
-288.603	-24.628	0.138	0.082
-287.589	110.780	0.195	-0.234
-286.574	800.000	0.087	0.273
-285.559	-144.595	0.402	-0.037
-284.545	-164.034	-0.205	0.009
-283.530	-129.697	0.094	-0.013
-282.516	69.793	0.030	0.031
-281.501	-148.079	0.302	0.025
-280.486	720.587	-0.073	0.194
-279.472	30.609	0.186	-0.159
-278.457	-186.314	-0.257	-0.004
-277.443	-112.931	-0.453	0.090
-276.428	-20.957	-0.275	-0.168
-275.413	450.408	0.063	0.139
-274.399	800.000	-0.072	0.227
-273.384	-50.624	0.157	0.074
-272.370	-200.000	-0.059	0.269
-271.355	-46.494	0.210	-0.103
-270.340	8.732	0.247	0.186
-269.326	264.399	0.127	-0.221
-268.311	17.734	0.349	-0.278
-267.297	-7.713	-0.123	0.083
-266.282	-123.237	-0.231	-0.037
-265.267	351.674	-0.038	-0.074
-264.253	-31.710	-0.211	0.118
-263.238	20.116	-0.330	0.266
-262.224	-29.799	-0.207	-0.118
-261.209	800.000	0.079	-0.246
-260.195	-200.000	0.008	-0.242
-259.180	-200.000	0.096	-0.432
-258.165	800.000	0.094	0.354
-257.151	4.349	0.244	-0.179
-256.136	31.656	0.057	-0.049
-255.122	199.635	0.197	0.301
-254.107	-200.000	-0.010	-0.189
-253.092	92.693	-0.133	-0.150
-252.078	-172.515	-0.056	0.002
-251.063	-104.910	-0.210	-0.048
-250.049	800.000	-0.060	-0.198
-249.034	137.755	0.073	-0.096
-248.019	-200.000	-0.000	-0.171
-247.005	800.000	-0.075	0.279
-245.990	-174.609	0.376	0.011
-244.976	-200.000	0.049	0.254
-243.961	-181.345	0.204	-0.004
-242.946	-78.646	0.268	-0.091
-241.932	-90.794	-0.083	-0.024
-240.917	-200.000	-0.218	-0.000
-239.903	212.627	-0.181	0.286
-238.888	78.793	-0.106	0.113
-237.873	-200.000	0.011	-0.381
-236.859	-200.000	-0.038	0.184
-235.844	-200.000	0.016	-0.238
-234.830	-200.000	0.005	-0.045
-233.815	-37.848	-0.233	0.124
-232.800	261.669	0.074	0.128
-231.786	78.425	0.030	0.032
-230.771	10.327	0.187	0.142
-229.757	-156.737	-0.357	0.022
-228.742	-124.770	0.161	-0.025
-227.727	-200.000	-0.025	-0.223
-226.713	-5.079	-0.092	0.063
-225.698	19.950	-0.194	-0.156
-224.684	-69.737	-0.085	-0.033
-223.669	-94.967	-0.076	-0.020
-222.655	-200.000	-0.038	-0.335
-221.640	-162.833	0.165	-0.008
-220.625	-38.659	-0.120	0.063
-219.611	41.186	0.147	-0.133
-218.596	145.997	0.162	0.216
-217.582	26.273	-0.111	0.093
-216.567	-167.683	-0.366	0.014
-215.552	-95.852	-0.267	-0.071
-214.538	25.520	-0.039	0.032
-213.523	-200.000	-0.015	-0.196
-212.509	161.807	0.159	0.222
-211.494	-14.669	0.012	-0.008
-210.479	-200.000	0.035	-0.266
-209.465	90.692	0.189	-0.211
-208.450	-200.000	-0.007	0.353
-207.436	-200.000	-0.004	-0.150
-206.421	-200.000	-0.002	0.249
-205.406	-25.684	0.140	-0.082
-204.392	-99.683	-0.018	-0.005
-203.377	-200.000	0.047	-0.296
-202.363	8.955	0.278	-0.209
-201.348	-2.560	0.278	-0.194
-200.333	21.882	0.074	0.060
-199.319	800.000	0.044	0.136
-198.304	22.236	0.189	-0.154
-197.290	-28.698	0.242	0.139
-196.275	-19.499	-0.114	-0.070
-195.260	-140.768	-0.081	-0.008
-194.246	-200.000	0.047	0.337
-193.231	-62.910	-0.221	-0.091
-192.217	-161.312	0.090	-0.005
-191.202	9.124	-0.084	-0.063
-190.187	205.891	-0.150	0.233
-189.173	108.458	0.278	0.330
-188.158	9.823	0.125	0.095
-187.144	6.436	0.284	-0.210
-186.129	-83.655	-0.263	-0.084
-185.114	-200.000	0.025	0.201
-184.100	-14.505	0.266	0.171
-183.085	7.450	0.219	-0.163
-182.071	91.287	-0.184	-0.206
-181.056	-200.000	-0.077	0.422
-180.042	-126.974	0.249	-0.036
-179.027	65.318	-0.280	-0.282
-178.012	-155.699	0.054	-0.003
-176.998	46.240	0.168	0.155
-175.983	183.358	-0.144	-0.211
-174.969	800.000	-0.134	0.406
-173.954	-200.000	0.020	0.112
-172.939	218.624	0.107	0.171
-171.925	35.554	0.129	0.112
-170.910	70.493	0.188	0.194
-169.896	496.901	-0.094	0.216
-168.881	312.425	-0.116	0.218
-167.866	-200.000	0.018	0.210
-166.852	76.046	0.182	0.192
-165.837	-200.000	0.022	-0.196
-164.823	137.231	0.067	0.087
-163.808	-200.000	0.013	-0.295
-162.793	-124.899	0.295	-0.045
-161.779	-200.000	0.082	-0.402
-160.764	-200.000	0.031	0.228
-159.750	-200.000	-0.008	-0.179
-158.735	-2.864	0.091	0.063
-157.720	-47.945	-0.111	-0.053
-156.706	-107.891	-0.226	-0.049
-155.691	444.971	0.060	-0.132
-154.677	-86.889	0.024	0.007
-153.662	-106.716	-0.361	-0.080
-152.647	209.488	-0.113	-0.176
-151.633	28.644	-0.064	0.054
-150.618	114.776	0.032	-0.038
-149.604	800.000	0.067	-0.221
-148.589	-200.000	-0.002	-0.104
-147.574	-141.199	-0.126	-0.013
-146.560	-200.000	0.008	-0.110
-145.545	138.180	0.287	-0.374
-144.531	162.168	-0.149	0.208
-143.516	177.199	-0.017	0.024
-142.502	-83.598	-0.364	-0.116
-141.487	102.825	-0.055	0.063
-140.472	-200.000	0.011	0.051
-139.458	374.016	-0.093	0.188
-138.443	-66.911	0.168	-0.066
-137.429	-200.000	-0.005	0.439
-136.414	-76.776	-0.046	0.016
-135.399	694.985	-0.184	-0.480
-134.385	187.806	0.091	-0.136
-133.370	310.698	0.150	-0.280
-132.356	-200.000	0.004	-0.145
-131.341	-200.000	0.020	-0.297
-130.326	-200.000	0.030	0.135
-129.312	-72.295	0.394	0.145
-128.297	-148.216	-0.145	0.012
-127.283	135.000	0.148	0.191
-126.268	-200.000	-0.078	-0.448
-125.253	-30.393	-0.356	0.201
-124.239	-5.665	-0.151	-0.103
-123.224	81.305	0.215	0.231
-122.210	132.553	0.080	0.102
-121.195	-59.067	-0.064	0.027
-120.180	120.680	-0.238	-0.294
-119.166	-48.732	-0.297	0.142
-118.151	-200.000	-0.005	0.278
-117.137	6.972	0.064	-0.048
-116.122	800.000	0.054	-0.220
-115.107	-76.309	0.317	0.111
-114.093	800.000	-0.092	-0.277
-113.078	-70.357	0.168	-0.063
-112.064	151.710	-0.105	0.142
-111.049	-154.168	0.098	-0.007
-110.034	-200.000	0.008	0.057
-109.020	30.102	-0.164	0.139
-108.005	-44.488	-0.122	0.061
-106.991	800.000	-0.027	-0.086
-105.976	353.437	0.175	0.346
-104.962	15.708	0.139	0.109
-103.947	-200.000	-0.014	-0.302
-102.932	-35.635	-0.023	0.012
-101.918	195.499	0.106	0.161
-100.903	800.000	0.050	-0.204
-99.889	-29.442	0.200	-0.114
-98.874	41.409	-0.163	0.146
-97.859	463.372	0.095	-0.211
-96.845	7.933	-0.063	-0.047
-95.830	-77.852	0.217	-0.074
-94.816	-42.335	0.166	-0.084
-93.801	-173.599	-0.090	-0.003
-92.786	595.192	0.063	-0.155
-91.772	-92.530	0.117	0.032
-90.757	-170.872	0.252	0.009
-89.743	-21.700	-0.268	0.162
-88.728	-46.698	0.217	-0.106
-87.713	273.445	-0.110	-0.192
-86.699	18.170	-0.142	0.113
-85.684	334.059	-0.154	0.295
-84.670	163.095	-0.087	-0.121
-83.655	640.784	-0.076	0.191
-82.640	56.825	0.244	-0.235
-81.626	757.140	0.056	-0.151
-80.611	-76.048	-0.091	-0.032
-79.597	164.224	-0.226	0.316
-78.582	-200.000	-0.138	0.000
-77.567	-37.144	0.248	-0.132
-76.553	-200.000	0.001	0.161
-75.538	-200.000	-0.008	0.085
-74.524	800.000	-0.090	0.314
-73.509	-200.000	0.009	-0.169
-72.494	-13.029	0.101	0.065
-71.480	499.548	0.162	0.369
-70.465	148.046	0.084	-0.113
-69.451	-33.354	0.110	0.061
-68.436	-136.455	0.094	-0.011
-67.422	20.957	0.100	-0.080
-66.407	-157.725	0.127	0.008
-65.392	-117.025	-0.257	0.047
-64.378	-12.021	-0.089	0.058
-63.363	800.000	0.114	0.394
-62.349	-115.673	0.325	-0.060
-61.334	41.226	-0.764	-0.685
-60.319	-200.000	-0.014	0.332
-59.305	139.915	-0.407	-0.532
-58.290	800.000	0.240	0.794
-57.276	800.000	0.630	1.875
-56.261	-200.000	80.092	509.548
-55.246	523.268	1322.931	3080.983
-54.232	151.805	2547.085	3440.695
-53.217	108.277	2337.864	2763.969
-52.203	48.698	1955.204	1816.766
-51.188	42.985	1742.909	1574.936
-50.173	40.195	1697.389	1512.460
-49.159	54.483	1735.870	1657.273
-48.144	58.919	1754.521	1709.251
-47.130	42.945	1715.690	1549.788
-46.115	39.890	1701.869	1513.872
-45.100	39.732	1696.826	1508.120
-44.086	39.706	1694.541	1505.828
-43.071	39.663	1691.540	1502.774
-42.057	39.597	1689.554	1500.449
-41.042	39.595	1687.354	1498.423
-40.027	39.565	1686.031	1496.959
-39.013	39.656	1683.749	1495.565
-37.998	39.667	1681.774	1493.832
-36.984	39.663	1680.697	1492.787
-35.969	39.749	1679.099	1491.956
-34.954	39.908	1677.182	1491.398
-33.940	39.767	1675.347	1488.641
-32.925	39.750	1673.657	1486.953
-31.911	39.724	1671.959	1485.189
-30.896	39.740	1669.847	1483.373
-29.881	39.670	1668.988	1482.027
-28.867	39.758	1666.973	1480.842
-27.852	39.729	1665.622	1479.360
-26.838	39.697	1664.381	1477.960
-25.823	39.780	1662.834	1477.152
-24.809	39.833	1661.329	1476.152
-23.794	39.800	1660.128	1474.780
-22.779	39.793	1658.265	1473.012
-21.765	39.833	1656.479	1471.670
-20.750	39.842	1655.024	1470.382
-19.736	39.790	1653.384	1468.480
-18.721	39.794	1652.328	1467.513
-17.706	39.806	1650.368	1465.802
-16.692	39.700	1649.308	1464.020
-15.677	39.849	1647.779	1463.703
-14.663	39.820	1646.457	1462.258
-13.648	39.818	1645.250	1461.113
-12.633	39.779	1643.565	1459.273
-11.619	39.784	1641.462	1457.385
-10.604	39.784	1640.470	1456.442
-9.590	39.827	1638.748	1455.179
-8.575	39.833	1637.667	1454.200
-7.560	39.815	1636.641	1453.101
-6.546	39.769	1635.480	1451.672
-5.531	39.766	1634.445	1450.678
-4.517	39.809	1632.785	1449.465
-3.502	39.763	1631.683	1448.091
-2.487	39.804	1629.969	1446.812
-1.473	39.530	1617.744	1433.904
-0.458	36.253	1596.822	1391.718
0.556	29.502	1594.228	1350.441
1.571	26.606	1617.537	1348.528
2.586	25.674	1631.035	1352.661
3.600	24.227	1582.912	1302.073
4.615	20.266	1480.167	1190.331
5.629	16.134	1417.953	1112.984
6.644	15.255	1408.993	1100.086
7.659	15.184	1408.005	1098.751
8.673	15.186	1406.578	1097.553
9.688	15.046	1404.561	1094.968
10.702	14.966	1401.846	1092.233
11.717	16.808	1404.816	1106.489
12.731	19.993	1410.345	1131.593
13.746	19.879	1408.476	1129.248
14.761	17.639	1403.135	1110.289
15.775	16.168	1400.053	1098.185
16.790	15.157	1397.207	1089.284
17.804	14.259	1395.104	1081.715
18.819	13.746	1393.060	1076.707
19.834	13.376	1391.860	1073.283
20.848	13.165	1390.624	1070.867
21.863	12.982	1389.352	1068.608
22.877	12.786	1387.968	1066.180
23.892	12.704	1387.115	1064.897
24.907	12.726	1385.792	1063.932
25.921	12.793	1384.936	1063.615
26.936	12.818	1384.021	1062.975
27.950	12.843	1383.584	1062.709
28.965	12.921	1382.186	1062.044
29.980	12.965	1380.746	1061.128
30.994	12.905	1379.622	1059.782
32.009	13.038	1378.365	1059.575
33.023	13.054	1377.146	1058.650
34.038	12.915	1375.648	1056.512
35.053	12.946	1374.615	1055.827
36.067	12.926	1373.593	1054.820
37.082	12.884	1372.454	1053.581
38.096	12.895	1371.642	1052.938
39.111	12.921	1371.063	1052.564
40.126	12.910	1369.901	1051.512
41.140	12.808	1369.016	1050.088
42.155	12.663	1368.462	1048.648
43.169	12.673	1368.365	1048.542
44.184	12.808	1367.471	1048.621
45.199	12.625	1367.479	1047.373
46.213	12.845	1366.972	1048.292
47.228	12.809	1366.083	1047.290
48.242	12.890	1364.803	1046.728
49.257	12.845	1363.329	1045.216
50.271	12.799	1362.037	1043.847
51.286	12.832	1360.833	1043.036
52.301	12.885	1359.465	1042.231
53.315	12.842	1358.202	1040.901
54.330	12.762	1357.140	1039.493
55.344	12.696	1356.051	1038.150
56.359	12.701	1355.153	1037.398
57.374	12.782	1353.866	1036.832
58.388	12.720	1353.332	1035.940
59.403	12.704	1352.674	1035.243
60.417	12.728	1352.106	1034.871
61.432	12.664	1351.280	1033.744
62.447	12.617	1350.228	1032.551
63.461	12.650	1348.969	1031.709
64.476	12.613	1347.645	1030.368
65.490	12.573	1347.004	1029.536
66.505	12.623	1344.922	1028.166
67.520	12.596	1343.771	1027.033
68.534	12.595	1343.014	1026.355
69.549	12.669	1341.631	1025.667
70.563	12.713	1340.389	1024.902
71.578	12.602	1339.099	1023.133
72.593	12.509	1338.578	1022.067
73.607	12.533	1338.022	1021.701
74.622	12.535	1337.266	1021.044
75.636	12.584	1336.179	1020.432
76.651	12.552	1335.789	1019.843
77.666	12.505	1335.327	1019.109
78.680	12.600	1334.724	1019.147
79.695	12.608	1333.575	1018.227
80.709	12.613	1332.999	1017.729
81.724	12.664	1332.419	1017.510
82.739	12.787	1331.277	1017.308
83.753	12.759	1330.855	1016.723
84.768	12.811	1329.414	1015.852
85.782	12.815	1328.422	1015.028
86.797	12.891	1326.654	1014.059
87.812	12.804	1325.460	1012.524
88.826	12.774	1324.608	1011.598
89.841	12.873	1323.130	1010.988
90.855	12.864	1322.392	1010.274
91.870	12.915	1321.202	1009.591
92.884	12.939	1320.717	1009.278
93.899	12.937	1319.730	1008.421
94.914	12.874	1319.154	1007.509
95.928	13.030	1318.003	1007.490
96.943	12.989	1316.982	1006.369
97.957	12.927	1316.277	1005.363
98.972	12.879	1315.616	1004.477
99.987	12.927	1314.082	1003.508
101.001	12.975	1313.177	1003.026
102.016	12.897	1311.757	1001.378
103.030	12.889	1311.247	1000.851
104.045	12.801	1310.323	999.521
105.060	12.920	1308.943	999.103
106.074	12.832	1307.410	997.311
107.089	12.643	1306.227	995.177
108.103	12.693	1304.888	994.371
109.118	12.729	1303.798	993.671
110.133	12.691	1302.148	992.096
111.147	12.601	1300.870	990.492
112.162	12.531	1300.185	989.463
113.176	12.756	1298.314	989.304
114.191	12.808	1297.420	988.848
115.206	12.779	1296.345	987.764
116.220	12.713	1295.047	986.292
117.235	12.801	1294.251	986.127
118.249	12.808	1293.091	985.195
119.264	12.671	1291.757	983.276
120.279	12.745	1290.538	982.701
121.293	12.804	1289.203	981.950
122.308	12.703	1288.532	980.752
123.322	12.615	1287.558	979.397
124.337	12.729	1286.106	978.887
125.352	12.581	1285.507	977.464
126.366	12.641	1284.362	976.863
127.381	12.777	1282.991	976.541
128.395	12.665	1281.730	974.829
129.410	12.781	1280.825	974.742
130.424	12.868	1280.008	974.547
131.439	12.729	1279.297	973.101
132.454	12.765	1278.100	972.316
133.468	12.818	1277.420	972.023
134.483	12.742	1276.867	971.072
135.497	12.786	1275.844	970.468
136.512	12.858	1274.074	969.454
137.527	12.861	1273.063	968.617
138.541	12.929	1271.142	967.471
139.556	12.908	1270.168	966.518
140.570	12.846	1269.423	965.504
141.585	12.950	1268.072	965.003
142.600	12.956	1266.806	963.989
143.614	13.028	1266.132	963.809
144.629	13.008	1264.936	962.695
145.643	12.989	1263.676	961.542
146.658	13.041	1262.125	960.577
147.673	13.041	1260.758	959.454
148.687	12.917	1259.781	957.908
149.702	12.865	1258.734	956.726
150.716	12.786	1257.504	955.246
151.731	12.795	1256.084	954.134
152.746	12.824	1254.987	953.384
153.760	12.919	1253.938	953.054
154.775	12.984	1252.745	952.440
155.789	12.992	1251.580	951.511
156.804	12.967	1250.529	950.483
157.819	12.946	1249.696	949.649
158.833	12.974	1248.500	948.817
159.848	13.012	1247.965	948.545
160.862	13.110	1246.615	947.997
161.877	13.090	1245.450	946.911
162.892	12.928	1244.488	945.169
163.906	12.968	1243.404	944.493
164.921	12.973	1242.927	944.070
165.935	12.997	1241.692	943.187
166.950	12.907	1241.314	942.305
167.964	13.057	1240.223	942.247
168.979	13.084	1239.613	941.854
169.994	13.095	1238.518	941.002
171.008	13.062	1237.704	940.111
172.023	13.060	1237.305	939.716
173.037	13.190	1235.985	939.368
174.052	13.236	1235.435	939.132
175.067	13.073	1234.663	937.532
176.081	13.073	1233.564	936.617
177.096	13.048	1232.654	935.701
178.110	13.114	1231.211	934.894
179.125	13.181	1230.025	934.295
180.140	13.260	1228.773	933.704
181.154	13.168	1227.777	932.348
182.169	13.285	1226.615	932.040
183.183	13.153	1225.636	930.473
184.198	13.251	1224.642	930.184
185.213	13.198	1223.098	928.633
186.227	13.200	1222.528	928.129
187.242	13.254	1221.398	927.489
188.256	13.336	1220.355	927.080
189.271	13.341	1219.210	926.151
190.286	13.304	1217.907	924.874
191.300	13.181	1217.235	923.595
192.315	13.080	1216.712	922.551
193.329	13.062	1215.944	921.790
194.344	13.080	1215.440	921.426
195.359	13.274	1214.196	921.480
196.373	13.269	1214.201	921.376
197.388	13.302	1213.727	921.116
198.402	13.430	1213.123	921.294
199.417	13.434	1212.270	920.587
200.432	13.544	1211.672	920.663
201.446	13.624	1210.526	920.153
202.461	13.576	1209.828	919.275
203.475	13.555	1208.805	918.300
204.490	13.548	1207.479	917.172
205.504	13.477	1206.151	915.688
206.519	13.513	1205.164	915.058
207.534	13.560	1203.797	914.197
208.548	13.501	1203.099	913.263
209.563	13.478	1202.381	912.507
210.577	13.584	1201.382	912.256
211.592	13.579	1200.785	911.694
212.607	13.580	1199.720	910.808
213.621	13.702	1198.624	910.564
214.636	13.677	1197.801	909.723
215.650	13.689	1196.692	908.864
216.665	13.759	1195.579	908.321
217.680	13.652	1195.476	907.578
218.694	13.760	1194.370	907.250
219.709	13.807	1193.141	906.490
220.723	13.781	1192.330	905.657
221.738	13.742	1191.988	905.104
222.753	13.771	1191.038	904.456
223.767	13.680	1190.719	903.639
224.782	13.833	1189.715	903.634
225.796	13.963	1188.958	903.686
226.811	13.895	1188.282	902.722
227.826	13.846	1187.884	902.072
228.840	13.974	1186.802	901.863
229.855	13.870	1186.343	900.871
230.869	13.787	1185.575	899.757
231.884	13.719	1184.755	898.686
232.899	13.775	1183.733	898.136
233.913	13.777	1182.875	897.418
234.928	13.854	1181.872	896.996
235.942	13.848	1181.330	896.468
236.957	13.878	1179.995	895.540
237.972	13.768	1179.553	894.534
238.986	13.759	1179.126	894.081
240.001	13.857	1178.496	894.052
241.015	13.941	1177.319	893.533
242.030	14.065	1176.377	893.402
243.045	13.883	1176.026	892.080
244.059	13.924	1175.255	891.635
245.074	13.958	1174.234	890.967
246.088	14.132	1173.190	891.029
247.103	14.109	1172.501	890.303
248.117	14.143	1171.888	889.942
249.132	14.192	1170.888	889.365
250.147	14.304	1170.032	889.231
251.161	14.289	1169.689	888.814
252.176	14.306	1169.013	888.312
253.190	14.358	1168.236	887.922
254.205	14.377	1167.776	887.590
255.220	14.412	1167.131	887.211
256.234	14.281	1166.621	886.047
257.249	14.412	1165.597	885.889
258.263	14.413	1165.038	885.388
259.278	14.466	1164.239	884.986
260.293	14.451	1163.844	884.527
261.307	14.467	1163.319	884.135
262.322	14.461	1162.673	883.532
263.336	14.498	1161.657	882.880
264.351	14.510	1161.145	882.475
265.366	14.545	1161.033	882.496
266.380	14.580	1159.966	881.794
267.395	14.572	1158.763	880.758
268.409	14.505	1157.964	879.720
269.424	14.552	1157.088	879.223
270.439	14.556	1156.773	878.928
271.453	14.500	1156.305	878.198
272.468	14.466	1155.409	877.262
273.482	14.488	1154.663	876.733
274.497	14.481	1154.029	876.139
275.512	14.615	1153.117	876.069
276.526	14.553	1152.536	875.230
277.541	14.585	1152.101	874.985
278.555	14.668	1151.115	874.598
279.570	14.702	1150.522	874.248
280.585	14.694	1149.629	873.450
281.599	14.754	1148.444	872.787
282.614	14.737	1147.684	872.040
283.628	14.741	1146.465	871.057
284.643	14.799	1144.934	870.123
285.657	14.846	1144.393	869.878
286.672	14.708	1143.804	868.635
287.687	14.776	1142.634	868.022
288.701	14.762	1142.201	867.544
289.716	14.790	1141.662	867.203
290.730	14.760	1140.922	866.411
291.745	14.704	1140.048	865.379
292.760	14.904	1139.061	865.586
293.774	14.841	1138.680	864.893
294.789	14.868	1138.303	864.670
295.803	14.934	1137.593	864.399
296.818	14.819	1136.698	863.048
297.833	14.857	1135.976	862.620
298.847	14.970	1135.039	862.412
299.862	14.885	1134.354	861.378
300.876	14.933	1133.414	860.835
301.891	14.910	1132.975	860.308
302.906	15.030	1132.427	860.431
303.920	15.017	1131.623	859.677
304.935	15.098	1131.128	859.642
305.949	15.185	1130.248	859.344
306.964	15.162	1129.573	858.635
307.979	15.196	1128.864	858.195
308.993	15.219	1127.905	857.510
310.008	15.156	1127.262	856.622
311.022	15.096	1126.747	855.849
312.037	15.150	1126.024	855.497
313.052	15.172	1124.482	854.364
314.066	15.084	1124.114	853.562
315.081	15.025	1123.136	852.439
316.095	15.108	1122.471	852.286
317.110	15.105	1121.642	851.565
318.125	15.106	1120.979	850.989
319.139	15.197	1119.980	850.618
320.154	15.155	1119.589	850.031
321.168	15.084	1118.930	849.098
322.183	15.153	1118.034	848.694
323.197	15.132	1117.469	848.080
324.212	15.295	1116.943	848.432
325.227	15.158	1116.872	847.612
326.241	15.167	1116.259	847.113
327.256	15.278	1114.982	846.631
328.270	15.241	1113.916	845.559
329.285	15.207	1113.158	844.737
330.300	15.273	1112.116	844.205
331.314	15.201	1111.364	843.198
332.329	15.326	1110.224	842.887
333.343	15.213	1109.769	841.898
334.358	15.403	1108.252	841.626
335.373	15.442	1107.728	841.349
336.387	15.403	1107.194	840.676
337.402	15.336	1105.957	839.326
338.416	15.340	1105.847	839.187
339.431	15.401	1104.995	838.773
340.446	15.607	1104.470	839.329
341.460	15.541	1103.635	838.289
342.475	15.543	1102.750	837.553
343.489	15.722	1101.557	837.467
344.504	15.565	1100.805	836.036
345.519	15.737	1099.502	835.829
346.533	15.661	1099.409	835.309
347.548	15.674	1098.856	834.877
348.562	15.619	1098.234	834.060
349.577	15.738	1096.922	833.579
350.592	15.603	1096.330	832.388
351.606	15.666	1095.663	832.120
352.621	15.667	1094.558	831.208
353.635	15.550	1094.314	830.374
354.650	15.643	1093.361	830.033
355.665	15.553	1093.045	829.276
356.679	15.697	1091.965	829.097
357.694	15.687	1091.497	828.615
358.708	15.746	1090.815	828.315
359.723	15.752	1090.132	827.752
360.738	15.750	1089.185	826.951
361.752	15.741	1088.831	826.568
362.767	15.766	1088.006	825.989
363.781	15.794	1087.515	825.683
364.796	15.851	1087.219	825.664
365.810	15.811	1087.062	825.276
366.825	15.978	1086.005	825.218
367.840	15.907	1086.007	824.799
368.854	15.995	1085.109	824.470
369.869	15.959	1084.296	823.607
370.883	15.902	1083.031	822.293
371.898	15.931	1082.566	822.009
372.913	16.070	1081.880	822.095
373.927	15.956	1081.535	821.202
374.942	16.041	1080.828	821.007
375.956	16.005	1080.505	820.515
376.971	16.133	1079.593	820.374
377.986	16.098	1079.252	819.871
379.000	16.153	1078.705	819.648
380.015	16.262	1077.748	819.379
381.029	16.155	1077.565	818.648
382.044	16.297	1076.544	818.487
383.059	16.205	1076.154	817.672
384.073	16.249	1075.092	817.005
385.088	16.347	1073.906	816.505
386.102	16.384	1073.135	816.030
387.117	16.272	1072.549	814.970
388.132	16.194	1071.317	813.584
389.146	16.240	1070.503	813.115
390.161	16.110	1070.335	812.292
391.175	16.221	1069.289	811.958
392.190	16.173	1068.742	811.242
393.205	16.325	1067.833	811.208
394.219	16.384	1066.747	810.594
395.234	16.327	1066.218	809.849
396.248	16.239	1065.275	808.639
397.263	16.350	1063.786	807.969
398.278	16.218	1063.245	806.853
399.292	16.304	1062.687	806.771
400.307	16.309	1061.935	806.153
401.321	16.365	1061.490	806.013
402.336	16.312	1060.812	805.172
403.350	16.268	1060.121	804.368
404.365	16.329	1059.468	804.090
405.380	16.374	1058.434	803.449
406.394	16.460	1057.490	803.068
407.409	16.443	1057.262	802.744
408.423	16.491	1056.834	802.575
409.438	16.524	1056.001	802.028
410.453	16.562	1055.178	801.511
411.467	16.730	1053.685	801.103
412.482	16.636	1053.609	800.528
413.496	16.551	1053.178	799.730
414.511	16.674	1052.342	799.603
415.526	16.747	1051.975	799.602
416.540	16.821	1050.994	799.133
417.555	16.716	1051.164	798.697
418.569	16.686	1050.687	798.122
419.584	16.769	1050.119	798.008
420.599	16.835	1049.373	797.681
421.613	89.124	1302.254	1392.674
422.628	81.934	1339.092	1392.776
