DTS Sentinel unit serial number:	SN413079Multiplexer serial number:	ORYXHardware model number:	OX4-SRSoftware version number:	ORYX F/W v4.00 Oryx Data Collector v3.7.2.0data status	okinstallation	princeton_trtdifferential loss correction	single-endedforward channel	channel 2reverse channel	N/Adate	2019/09/17time	03:43:35forward acquisition time	60.00reverse acquisition time	0.00gamma	496.2192k internal	0.2327k external	0.2327temperature offset calibration	0.9971default loss term (dB/km)	0.3790temperature slope calibration	1.0000multiplexer offset coefficient	1.0000multiplexer slope coefficient	1.0000fibre end	0.00T internal ref (°C)	30.00T ext. ref 1 (°C)	0.14T ext. ref 2 (°C)	24.46length (m)	temperature (°C)	Stokes	anti-Stokes-747.200	-44.437	0.247	0.124
-746.185	-119.451	-0.106	-0.019
-745.171	-64.568	-0.286	-0.117
-744.156	-200.000	0.003	-0.034
-743.142	-1.977	0.156	-0.111
-742.127	-200.000	-0.020	0.239
-741.112	142.565	0.043	-0.058
-740.098	95.956	-0.167	0.192
-739.083	253.977	0.067	-0.116
-738.069	378.264	-0.094	0.193
-737.054	5.857	0.125	-0.093
-736.039	-132.991	-0.080	0.010
-735.025	291.294	0.163	0.299
-734.010	-115.339	-0.147	-0.028
-732.996	-200.000	-0.021	-0.526
-731.981	1.956	-0.048	0.035
-730.966	251.095	-0.087	-0.148
-729.952	800.000	-0.146	-0.428
-728.937	-126.442	-0.135	-0.020
-727.923	-29.055	0.139	-0.081
-726.908	83.268	-0.071	0.078
-725.894	-118.009	-0.334	-0.060
-724.879	-160.796	-0.273	-0.015
-723.864	-40.537	-0.298	0.156
-722.850	-101.853	0.297	-0.072
-721.835	-173.856	-0.204	-0.006
-720.821	-38.756	-0.110	0.059
-719.806	8.609	0.109	0.083
-718.791	-200.000	0.044	0.279
-717.777	89.138	-0.217	-0.243
-716.762	-75.351	0.145	0.052
-715.748	-74.436	-0.468	-0.170
-714.733	800.000	-0.108	0.305
-713.718	439.003	0.101	0.222
-712.704	465.620	0.031	-0.070
-711.689	65.874	0.120	-0.122
-710.675	626.382	0.051	0.130
-709.660	52.460	-0.114	0.110
-708.645	-37.481	0.075	0.040
-707.631	323.756	-0.085	-0.163
-706.616	-65.746	0.285	-0.115
-705.602	-100.295	0.121	-0.030
-704.587	-1.153	0.280	0.199
-703.572	30.683	-0.174	0.150
-702.558	-200.000	0.021	-0.191
-701.543	25.678	-0.113	-0.095
-700.529	10.668	-0.211	0.162
-699.514	62.821	0.040	-0.041
-698.499	-21.142	0.342	0.211
-697.485	107.643	-0.039	0.047
-696.470	-105.838	-0.185	-0.042
-695.456	333.538	0.044	0.086
-694.441	-52.105	-0.266	-0.124
-693.426	800.000	-0.072	-0.247
-692.412	513.132	-0.129	-0.303
-691.397	-84.624	-0.186	-0.059
-690.383	-200.000	0.034	-0.185
-689.368	151.774	0.116	-0.158
-688.354	-24.342	-0.351	0.211
-687.339	125.396	-0.065	0.082
-686.324	-200.000	-0.023	-0.170
-685.310	-143.047	-0.180	0.018
-684.295	-127.301	-0.167	0.025
-683.281	53.583	-0.136	-0.132
-682.266	-6.919	0.130	0.089
-681.251	800.000	0.073	-0.263
-680.237	-54.387	0.116	-0.053
-679.222	-0.059	-0.132	0.095
-678.208	-104.277	0.308	0.072
-677.193	-6.954	-0.190	0.130
-676.178	-64.872	-0.149	0.061
-675.164	-78.745	0.185	-0.064
-674.149	-200.000	0.006	0.394
-673.135	-200.000	-0.040	0.338
-672.120	-6.054	0.103	-0.071
-671.105	60.121	-0.095	0.095
-670.091	790.276	-0.142	-0.392
-669.076	-110.617	0.313	0.065
-668.062	-148.221	-0.204	-0.017
-667.047	800.000	-0.022	0.071
-666.032	22.170	-0.119	-0.098
-665.018	800.000	0.082	-0.247
-664.003	-200.000	0.006	0.244
-662.989	-85.681	-0.144	0.045
-661.974	800.000	0.097	-0.287
-660.959	113.227	-0.213	-0.259
-659.945	-200.000	-0.022	0.106
-658.930	310.644	0.074	0.140
-657.916	37.078	0.186	-0.165
-656.901	-109.045	0.310	-0.066
-655.886	800.000	0.043	-0.153
-654.872	-143.649	0.394	0.038
-653.857	656.723	0.056	0.144
-652.843	-126.825	-0.110	-0.016
-651.828	-200.000	-0.073	-0.333
-650.814	-5.330	0.517	-0.357
-649.799	800.000	-0.031	-0.114
-648.784	800.000	-0.046	-0.172
-647.770	20.641	0.190	-0.155
-646.755	-200.000	-0.022	-0.177
-645.741	589.295	-0.032	-0.080
-644.726	-200.000	0.031	-0.223
-643.711	-200.000	-0.023	-0.152
-642.697	-200.000	0.072	0.341
-641.682	14.888	0.035	0.027
-640.668	-9.931	0.154	0.103
-639.653	28.115	0.203	0.172
-638.638	-184.739	0.268	0.004
-637.624	65.690	0.082	-0.083
-636.609	217.650	-0.055	-0.089
-635.595	-200.000	-0.023	0.118
-634.580	-200.000	-0.007	0.098
-633.565	156.251	-0.101	-0.140
-632.551	237.474	-0.060	0.100
-631.536	-70.252	-0.175	0.067
-630.522	135.593	-0.073	0.095
-629.507	208.188	0.144	0.226
-628.492	800.000	-0.099	0.289
-627.478	-200.000	0.021	0.292
-626.463	-34.785	-0.172	-0.094
-625.449	-108.673	-0.259	-0.056
-624.434	-116.423	0.066	-0.012
-623.419	-200.000	0.005	-0.107
-622.405	-84.872	-0.270	-0.085
-621.390	-185.120	-0.266	0.004
-620.376	800.000	-0.078	-0.259
-619.361	-106.717	-0.138	0.031
-618.346	-56.417	-0.284	0.127
-617.332	-50.126	0.162	0.077
-616.317	-19.361	-0.046	-0.028
-615.303	-48.551	0.249	-0.120
-614.288	206.601	-0.013	-0.021
-613.273	62.425	0.044	0.044
-612.259	-118.822	-0.295	0.052
-611.244	-121.939	0.155	-0.026
-610.230	51.047	-0.106	-0.101
-609.215	-137.415	0.174	0.020
-608.201	1.607	0.271	-0.196
-607.186	-116.640	-0.326	0.060
-606.171	24.213	0.066	-0.054
-605.157	-57.490	-0.415	-0.183
-604.142	-108.741	0.187	0.040
-603.128	111.072	0.102	0.123
-602.113	-44.966	0.123	-0.061
-601.098	-200.000	0.018	-0.101
-600.084	63.787	-0.083	0.083
-599.069	17.286	0.165	0.131
-598.055	37.262	-0.118	0.105
-597.040	800.000	-0.025	-0.098
-596.025	-200.000	0.034	0.294
-595.011	800.000	-0.036	0.105
-593.996	250.515	-0.096	-0.164
-592.982	330.726	0.131	0.253
-591.967	-60.152	0.045	-0.019
-590.952	-200.000	0.054	-0.289
-589.938	-71.912	0.157	0.059
-588.923	64.273	0.173	0.175
-587.909	-98.452	0.252	-0.065
-586.894	157.350	-0.052	0.072
-585.879	179.837	-0.238	0.349
-584.865	43.755	-0.288	-0.264
-583.850	-9.210	-0.245	-0.164
-582.836	-200.000	0.051	-0.386
-581.821	-92.798	0.110	-0.031
-580.806	-136.735	-0.139	-0.016
-579.792	-79.101	-0.292	0.100
-578.777	-46.196	-0.132	0.065
-577.763	340.453	-0.083	-0.161
-576.748	132.442	-0.209	0.270
-575.733	-119.822	-0.156	-0.027
-574.719	9.049	-0.102	-0.077
-573.704	11.637	-0.199	-0.153
-572.690	-32.458	0.311	0.174
-571.675	-200.000	-0.032	0.206
-570.661	35.539	0.111	0.098
-569.646	-96.693	-0.202	0.053
-568.631	-92.645	-0.173	-0.049
-567.617	800.000	-0.042	-0.158
-566.602	136.236	-0.282	-0.368
-565.588	318.745	-0.097	0.183
-564.573	316.577	-0.231	-0.437
-563.558	29.347	-0.253	-0.216
-562.544	-12.817	0.188	-0.122
-561.529	-103.571	-0.120	-0.028
-560.515	-151.549	-0.130	-0.010
-559.500	-58.462	-0.375	-0.163
-558.485	-200.000	-0.019	-0.312
-557.471	178.827	0.157	-0.230
-556.456	-200.000	-0.036	0.311
-555.442	0.403	0.181	0.129
-554.427	-120.663	0.054	0.009
-553.412	-14.700	0.173	0.111
-552.398	525.325	-0.086	-0.202
-551.383	-152.733	0.230	0.016
-550.369	-35.099	-0.255	0.139
-549.354	167.199	0.225	-0.320
-548.339	-200.000	-0.007	0.064
-547.325	800.000	-0.100	0.428
-546.310	-95.363	-0.104	-0.028
-545.296	24.757	-0.174	-0.144
-544.281	34.098	0.158	0.138
-543.266	168.287	0.100	-0.143
-542.252	786.433	0.109	0.300
-541.237	36.621	-0.206	0.182
-540.223	-159.525	-0.120	-0.007
-539.208	-200.000	-0.047	0.248
-538.193	281.012	-0.233	-0.418
-537.179	-48.796	-0.251	-0.121
-536.164	-200.000	-0.025	0.194
-535.150	-97.655	0.338	0.088
-534.135	31.470	0.101	-0.087
-533.121	-200.000	0.046	-0.261
-532.106	800.000	-0.045	0.138
-531.091	-118.926	0.123	-0.022
-530.077	-200.000	-0.007	0.034
-529.062	72.753	0.109	-0.113
-528.048	-71.716	-0.203	-0.076
-527.033	57.708	-0.272	-0.266
-526.018	-24.724	0.214	-0.127
-525.004	-2.934	-0.369	-0.258
-523.989	403.514	-0.104	-0.219
-522.975	582.006	-0.113	0.277
-521.960	55.746	-0.226	0.219
-520.945	-200.000	0.051	0.463
-519.931	800.000	-0.097	-0.275
-518.916	-200.000	0.006	0.199
-517.902	-96.554	-0.210	-0.055
-516.887	25.304	0.111	0.092
-515.872	-131.239	0.245	-0.033
-514.858	-162.919	0.162	0.008
-513.843	-87.008	-0.252	-0.077
-512.829	84.717	0.206	0.226
-511.814	800.000	0.084	-0.325
-510.799	-200.000	-0.017	-0.215
-509.785	120.049	0.154	-0.191
-508.770	-90.201	-0.352	-0.102
-507.756	137.362	-0.193	0.252
-506.741	-58.644	-0.229	0.099
-505.726	-154.367	0.325	0.022
-504.712	98.735	-0.129	-0.149
-503.697	443.509	-0.103	-0.226
-502.683	24.969	-0.053	0.044
-501.668	219.856	-0.197	-0.316
-500.653	181.557	0.165	0.243
-499.639	153.293	-0.142	0.194
-498.624	352.214	-0.218	0.432
-497.610	108.261	0.180	0.214
-496.595	-200.000	-0.009	-0.190
-495.581	316.110	0.094	0.177
-494.566	367.785	-0.078	-0.158
-493.551	476.481	0.021	0.047
-492.537	-89.141	0.185	-0.054
-491.522	-95.601	0.104	0.028
-490.508	-12.926	-0.325	0.211
-489.493	-14.453	-0.346	-0.222
-488.478	64.740	-0.313	-0.315
-487.464	800.000	0.059	-0.187
-486.449	89.626	0.185	-0.206
-485.435	157.462	0.222	-0.306
-484.420	2.734	-0.324	0.234
-483.405	-200.000	0.019	-0.289
-482.391	-29.986	0.186	0.106
-481.376	-55.844	0.228	0.101
-480.362	-159.558	-0.359	-0.020
-479.347	-52.543	-0.169	0.078
-478.332	336.840	0.101	0.196
-477.318	-77.106	0.025	-0.009
-476.303	13.101	-0.211	0.163
-475.289	-200.000	0.013	-0.218
-474.274	286.306	-0.161	0.290
-473.259	-70.424	0.264	0.100
-472.245	800.000	-0.093	0.320
-471.230	278.304	0.155	-0.275
-470.216	-17.997	0.068	-0.043
-469.201	222.652	0.136	-0.218
-468.186	800.000	-0.053	-0.157
-467.172	440.536	-0.083	0.181
-466.157	-200.000	0.033	-0.170
-465.143	-200.000	0.024	-0.193
-464.128	-200.000	0.010	0.123
-463.113	729.696	-0.138	0.368
-462.099	-174.642	-0.246	-0.007
-461.084	159.926	-0.035	0.048
-460.070	-26.173	-0.518	0.303
-459.055	316.244	-0.081	-0.153
-458.040	-200.000	-0.008	-0.168
-457.026	216.437	-0.072	0.114
-456.011	800.000	-0.116	0.422
-454.997	-200.000	0.025	0.128
-453.982	-200.000	-0.031	-0.168
-452.968	-6.528	0.151	0.102
-451.953	-99.854	0.114	-0.028
-450.938	-200.000	0.006	-0.071
-449.924	-138.001	0.211	-0.023
-448.909	-88.763	0.252	0.075
-447.895	421.240	0.130	0.277
-446.880	-200.000	-0.041	-0.271
-445.865	566.154	0.086	-0.208
-444.851	141.088	0.171	-0.225
-443.836	-200.000	0.022	0.446
-442.822	-200.000	-0.038	0.352
-441.807	-45.887	-0.272	0.134
-440.792	5.025	0.028	0.020
-439.778	-148.966	-0.059	0.005
-438.763	-48.023	-0.136	0.065
-437.749	-61.505	0.241	-0.101
-436.734	800.000	-0.062	0.271
-435.719	-200.000	0.017	-0.285
-434.705	261.882	-0.080	-0.139
-433.690	213.171	0.352	0.554
-432.676	146.679	-0.154	0.206
-431.661	-200.000	0.003	-0.061
-430.646	34.945	-0.157	-0.137
-429.632	-200.000	-0.050	-0.224
-428.617	800.000	-0.130	0.450
-427.603	-85.004	-0.068	0.021
-426.588	-117.414	-0.067	-0.012
-425.573	-200.000	0.035	0.344
-424.559	-200.000	-0.003	-0.255
-423.544	178.710	0.045	0.065
-422.530	800.000	-0.036	0.100
-421.515	-200.000	-0.031	-0.422
-420.500	-200.000	0.012	-0.374
-419.486	17.871	0.239	-0.189
-418.471	22.239	0.195	-0.159
-417.457	25.857	0.187	0.155
-416.442	-14.905	0.291	0.186
-415.428	-200.000	0.040	-0.313
-414.413	63.936	-0.110	0.110
-413.398	324.843	-0.085	-0.161
-412.384	738.072	-0.028	-0.074
-411.369	83.284	-0.060	-0.065
-410.355	-146.767	0.112	0.010
-409.340	-27.452	0.302	0.175
-408.325	290.081	0.035	0.062
-407.311	-97.944	0.186	-0.048
-406.296	547.956	0.072	0.172
-405.282	-200.000	-0.042	-0.204
-404.267	-144.050	-0.110	0.010
-403.252	98.257	-0.236	-0.270
-402.238	200.560	0.194	0.297
-401.223	800.000	-0.041	-0.129
-400.209	-20.352	0.254	-0.155
-399.194	-101.729	-0.246	-0.059
-398.179	-75.181	0.131	-0.046
-397.165	17.542	0.159	0.126
-396.150	1.235	-0.055	-0.039
-395.136	42.972	0.109	0.098
-394.121	-200.000	0.036	0.173
-393.106	549.837	0.052	-0.123
-392.092	169.466	-0.044	-0.063
-391.077	-44.330	0.172	-0.086
-390.063	-200.000	-0.031	-0.164
-389.048	-49.059	-0.181	0.086
-388.033	-200.000	-0.001	0.029
-387.019	-26.748	0.291	0.169
-386.004	127.379	-0.254	0.320
-384.990	220.374	0.027	-0.044
-383.975	58.977	-0.191	-0.187
-382.960	-135.604	0.362	-0.043
-381.946	84.885	0.225	-0.245
-380.931	-164.380	-0.261	0.012
-379.917	272.973	0.144	0.253
-378.902	-101.135	-0.201	-0.049
-377.888	72.914	0.263	0.273
-376.873	238.555	0.198	0.326
-375.858	28.517	0.217	0.183
-374.844	421.054	0.140	-0.297
-373.829	-92.042	-0.196	0.055
-372.815	-7.213	-0.069	-0.047
-371.800	-74.802	0.054	0.019
-370.785	-79.646	0.079	-0.027
-369.771	421.710	-0.060	0.127
-368.756	-27.540	-0.124	0.072
-367.742	-141.662	-0.489	0.049
-366.727	800.000	0.022	0.071
-365.712	-115.732	-0.284	-0.053
-364.698	-20.672	-0.091	-0.055
-363.683	236.197	-0.205	-0.337
-362.669	-12.585	0.174	-0.113
-361.654	-27.038	-0.059	-0.034
-360.639	113.868	0.079	0.095
-359.625	800.000	-0.065	0.221
-358.610	196.485	-0.128	-0.193
-357.596	12.544	0.114	0.087
-356.581	-48.336	-0.083	0.040
-355.566	303.648	0.113	0.208
-354.552	-52.716	-0.124	0.057
-353.537	-95.376	0.234	-0.062
-352.523	-108.609	-0.324	0.069
-351.508	-81.154	0.109	0.036
-350.493	-200.000	-0.003	-0.034
-349.479	-200.000	-0.008	-0.185
-348.464	-200.000	0.011	0.098
-347.450	-100.080	-0.256	0.063
-346.435	-63.740	0.359	0.146
-345.420	774.324	-0.114	0.308
-344.406	-53.908	-0.187	0.085
-343.391	-200.000	0.057	-0.352
-342.377	-200.000	-0.004	-0.279
-341.362	-8.478	0.122	-0.082
-340.348	-34.172	0.170	-0.093
-339.333	49.031	0.025	0.023
-338.318	-200.000	-0.006	0.107
-337.304	-12.271	0.126	-0.082
-336.289	341.471	0.057	-0.110
-335.275	-139.118	-0.299	-0.032
-334.260	267.946	0.083	0.144
-333.245	-200.000	0.038	0.207
-332.231	69.729	-0.145	0.148
-331.216	-200.000	0.014	0.101
-330.202	180.291	0.068	0.099
-329.187	800.000	-0.026	-0.079
-328.172	127.639	0.161	-0.203
-327.158	114.895	0.164	0.199
-326.143	344.665	0.106	0.207
-325.129	602.280	-0.055	0.136
-324.114	71.332	-0.143	-0.147
-323.099	800.000	0.099	-0.319
-322.085	-200.000	0.009	-0.153
-321.070	722.980	-0.031	-0.081
-320.056	409.526	0.124	0.260
-319.041	-200.000	-0.233	0.000
-318.026	223.581	0.139	-0.223
-317.012	78.140	-0.252	0.267
-315.997	41.203	0.276	-0.248
-314.983	-87.577	0.216	-0.065
-313.968	-62.443	0.262	0.108
-312.953	-127.524	-0.352	-0.051
-311.939	133.084	0.150	-0.192
-310.924	-122.280	-0.379	-0.061
-309.910	250.950	0.151	0.255
-308.895	-94.047	-0.169	-0.046
-307.880	-200.000	-0.012	-0.414
-306.866	800.000	0.072	0.275
-305.851	-138.612	0.092	0.010
-304.837	-29.142	-0.087	0.049
-303.822	358.149	0.105	0.208
-302.807	-200.000	-0.054	0.276
-301.793	-154.908	0.205	0.013
-300.778	62.334	0.187	-0.185
-299.764	294.415	-0.182	0.329
-298.749	200.499	0.028	0.043
-297.735	467.888	-0.042	0.094
-296.720	-200.000	0.019	0.139
-295.705	454.610	0.154	0.337
-294.691	-10.662	0.085	-0.056
-293.676	800.000	0.028	-0.113
-292.662	70.303	0.231	0.236
-291.647	334.276	-0.119	0.228
-290.632	800.000	-0.080	0.249
-289.618	-120.414	-0.113	0.019
-288.603	-180.871	-0.385	-0.008
-287.589	103.245	0.253	-0.294
-286.574	29.413	0.202	0.170
-285.559	-200.000	-0.028	-0.219
-284.545	-200.000	-0.009	-0.045
-283.530	-45.534	-0.326	0.160
-282.516	169.221	-0.081	-0.114
-281.501	800.000	0.012	-0.048
-280.486	330.314	-0.054	0.103
-279.472	58.391	0.083	0.080
-278.457	-200.000	0.016	-0.164
-277.443	-200.000	0.011	0.098
-276.428	443.067	0.012	-0.027
-275.413	-200.000	0.027	0.316
-274.399	-66.299	0.152	-0.060
-273.384	340.772	-0.015	0.029
-272.370	-200.000	-0.046	0.344
-271.355	238.416	0.172	-0.283
-270.340	19.632	-0.059	-0.047
-269.326	67.937	-0.121	0.123
-268.311	429.107	-0.030	-0.064
-267.297	-130.170	-0.211	0.029
-266.282	-200.000	-0.043	0.362
-265.267	-200.000	-0.045	-0.226
-264.253	-64.823	0.106	-0.043
-263.238	800.000	-0.054	-0.156
-262.224	4.096	0.112	-0.081
-261.209	205.676	0.066	0.102
-260.195	106.379	-0.068	0.080
-259.180	-148.402	0.159	0.013
-258.165	278.471	0.029	-0.052
-257.151	-72.284	0.285	-0.104
-256.136	-17.700	0.210	-0.130
-255.122	-17.623	0.133	0.083
-254.107	-38.371	-0.149	-0.078
-253.092	-75.210	0.223	-0.079
-252.078	-91.580	0.254	0.072
-251.063	131.582	-0.076	0.097
-250.049	-55.178	-0.307	0.137
-249.034	-200.000	0.057	0.369
-248.019	233.351	-0.081	0.132
-247.005	-200.000	-0.001	-0.278
-245.990	517.715	-0.024	0.055
-244.976	120.523	0.054	-0.066
-243.961	60.090	0.141	-0.138
-242.946	33.175	-0.242	-0.207
-241.932	-200.000	-0.024	0.202
-240.917	-17.429	-0.369	0.230
-239.903	225.421	-0.183	-0.293
-238.888	94.095	0.137	0.153
-237.873	-138.140	-0.087	0.010
-236.859	-75.915	0.396	-0.139
-235.844	-64.277	0.384	0.155
-234.830	84.010	-0.163	-0.176
-233.815	-200.000	0.020	-0.114
-232.800	-124.722	-0.161	-0.025
-231.786	63.588	0.233	0.231
-230.771	800.000	0.003	0.010
-229.757	-9.630	0.243	-0.160
-228.742	-95.867	0.301	0.079
-227.727	-113.217	0.107	-0.021
-226.713	84.494	-0.159	0.172
-225.698	493.193	-0.072	0.163
-224.684	217.410	0.114	0.179
-223.669	214.325	-0.029	-0.046
-222.655	96.162	0.041	0.047
-221.640	-200.000	-0.024	-0.444
-220.625	-115.327	0.197	0.037
-219.611	-135.144	-0.305	0.036
-218.596	-146.430	0.065	0.006
-217.582	-80.365	0.107	0.035
-216.567	-200.000	-0.049	-0.772
-215.552	-149.877	0.098	0.008
-214.538	-200.000	0.063	0.349
-213.523	5.104	-0.147	-0.107
-212.509	-86.646	-0.027	0.008
-211.494	-200.000	0.039	0.381
-210.479	-135.876	0.275	-0.032
-209.465	590.463	-0.089	0.218
-208.450	97.709	-0.167	0.190
-207.436	136.820	0.068	-0.088
-206.421	-200.000	0.016	-0.618
-205.406	-81.403	0.319	0.104
-204.392	173.972	-0.250	0.357
-203.377	582.392	0.150	-0.362
-202.363	-200.000	-0.014	-0.131
-201.348	489.884	0.157	-0.354
-200.333	96.199	-0.180	-0.203
-199.319	800.000	-0.054	-0.212
-198.304	-80.483	0.285	0.094
-197.290	-200.000	0.004	0.038
-196.275	58.585	0.254	-0.246
-195.260	-200.000	0.067	-0.294
-194.246	-56.189	-0.165	-0.072
-193.231	-133.936	0.620	0.076
-192.217	85.691	0.156	0.169
-191.202	-91.867	0.032	0.009
-190.187	-131.056	0.111	0.015
-189.173	-33.901	-0.122	-0.067
-188.158	-200.000	0.008	-0.109
-187.144	-200.000	0.088	0.538
-186.129	-49.243	-0.308	-0.145
-185.114	-68.172	0.273	0.105
-184.100	-49.477	0.174	0.082
-183.085	-175.624	-0.045	0.001
-182.071	140.109	-0.080	0.104
-181.056	224.407	0.102	-0.163
-180.042	500.746	-0.075	-0.170
-179.027	-2.164	-0.327	-0.226
-178.012	165.271	0.293	-0.408
-176.998	-109.556	-0.148	-0.031
-175.983	-20.783	0.170	-0.103
-174.969	149.570	0.198	-0.264
-173.954	-179.425	0.281	0.006
-172.939	306.206	0.075	0.138
-171.925	-57.741	-0.296	-0.128
-170.910	-54.430	0.093	-0.042
-169.896	-200.000	0.010	0.104
-168.881	-200.000	-0.009	0.251
-167.866	-10.282	-0.082	0.053
-166.852	800.000	0.145	-0.479
-165.837	-200.000	-0.009	0.229
-164.823	-141.564	-0.379	-0.038
-163.808	-200.000	0.018	0.220
-162.793	721.581	0.099	0.260
-161.779	-23.406	0.136	0.081
-160.764	-61.529	0.288	0.119
-159.750	309.161	0.084	-0.154
-158.735	-200.000	-0.009	0.124
-157.720	800.000	0.086	-0.233
-156.706	-70.500	0.254	0.095
-155.691	51.189	0.244	-0.229
-154.677	484.802	0.034	0.077
-153.662	477.853	-0.110	0.245
-152.647	-147.150	-0.161	-0.014
-151.633	800.000	-0.079	-0.290
-150.618	167.755	0.213	-0.298
-149.604	-112.332	0.253	-0.050
-148.589	208.867	0.148	-0.229
-147.574	-140.844	-0.325	-0.033
-146.560	422.953	0.018	0.038
-145.545	800.000	-0.054	-0.185
-144.531	458.747	0.079	-0.172
-143.516	27.719	-0.186	-0.154
-142.502	-15.210	-0.124	-0.078
-141.487	-200.000	-0.003	0.111
-140.472	-121.138	0.223	-0.037
-139.458	800.000	-0.038	0.114
-138.443	-200.000	0.002	0.079
-137.429	25.391	0.073	-0.060
-136.414	217.951	0.071	-0.111
-135.399	36.359	0.223	0.194
-134.385	235.182	-0.224	-0.365
-133.370	-200.000	0.023	0.312
-132.356	-27.235	-0.255	0.146
-131.341	128.438	0.160	0.201
-130.326	-200.000	0.019	-0.110
-129.312	-143.639	0.113	-0.011
-128.297	800.000	-0.040	0.150
-127.283	653.995	0.032	0.080
-126.268	429.228	-0.073	0.156
-125.253	-87.923	0.355	-0.105
-124.239	-200.000	-0.001	-0.153
-123.224	14.456	-0.083	-0.063
-122.210	8.698	-0.092	0.068
-121.195	-92.187	0.224	-0.062
-120.180	-140.335	-0.503	-0.052
-119.166	-100.129	0.124	0.030
-118.151	-200.000	0.062	0.417
-117.137	-3.274	-0.237	0.162
-116.122	-82.418	0.165	-0.053
-115.107	151.795	-0.164	-0.220
-114.093	-16.562	0.219	0.136
-113.078	-200.000	0.016	-0.160
-112.064	119.145	0.107	-0.131
-111.049	42.715	0.306	0.274
-110.034	800.000	-0.101	-0.274
-109.020	-70.015	0.324	-0.121
-108.005	12.343	-0.065	0.049
-106.991	-120.360	-0.305	-0.051
-105.976	-142.625	0.319	0.031
-104.962	-200.000	-0.020	0.169
-103.947	101.455	-0.144	0.165
-102.932	145.688	-0.290	-0.382
-101.918	178.532	0.053	-0.076
-100.903	-200.000	0.003	-0.036
-99.889	337.500	0.149	0.285
-98.874	165.521	0.102	-0.142
-97.859	-27.858	-0.344	-0.196
-96.845	800.000	0.018	0.050
-95.830	-58.350	0.258	0.110
-94.816	-120.846	-0.521	-0.086
-93.801	-129.609	0.076	0.010
-92.786	30.388	0.076	0.064
-91.772	-34.393	0.177	0.095
-90.757	-138.425	-0.155	0.017
-89.743	160.230	0.197	0.270
-88.728	41.707	0.084	-0.075
-87.713	-97.868	-0.122	0.031
-86.699	-124.061	0.115	0.018
-85.684	-200.000	0.009	0.154
-84.670	-84.884	0.254	0.078
-83.655	-131.011	-0.232	-0.030
-82.640	800.000	-0.028	-0.088
-81.626	-141.378	0.443	0.044
-80.611	23.144	0.308	-0.248
-79.597	-59.625	-0.103	-0.043
-78.582	524.393	0.133	0.307
-77.567	-200.000	0.001	0.054
-76.553	-89.615	0.351	0.101
-75.538	140.598	0.137	0.177
-74.524	-46.175	-0.014	-0.007
-73.509	-11.182	-0.206	-0.133
-72.494	108.312	0.090	0.105
-71.480	800.000	0.067	0.192
-70.465	-128.727	-0.277	-0.038
-69.451	96.860	0.241	0.271
-68.436	-200.000	0.032	0.292
-67.422	27.477	-0.175	0.145
-66.407	-200.000	-0.051	0.264
-65.392	284.122	0.072	0.127
-64.378	216.653	0.262	-0.409
-63.363	800.000	-0.047	0.196
-62.349	415.517	0.112	0.234
-61.334	113.370	-1.100	-1.311
-60.319	146.767	0.332	0.439
-59.305	800.000	-0.397	-1.118
-58.290	567.335	0.515	1.226
-57.276	800.000	0.393	1.361
-56.261	-200.000	106.192	578.237
-55.246	458.270	1460.808	3187.670
-54.232	148.400	2654.102	3517.211
-53.217	100.756	2291.445	2613.559
-52.203	39.179	1904.672	1672.224
-51.188	33.335	1693.101	1442.059
-50.173	30.638	1650.069	1385.292
-49.159	48.568	1701.866	1564.889
-48.144	49.244	1717.790	1584.585
-47.130	32.825	1675.698	1423.160
-46.115	30.116	1661.849	1391.048
-45.100	29.998	1656.649	1385.752
-44.086	29.943	1654.282	1383.307
-43.071	29.879	1651.935	1380.816
-42.057	29.816	1649.434	1378.200
-41.042	29.911	1647.007	1376.824
-40.027	29.921	1645.272	1375.390
-39.013	29.845	1643.471	1373.266
-37.998	29.875	1641.756	1372.004
-36.984	29.945	1640.054	1371.044
-35.969	29.989	1638.973	1370.415
-34.954	29.974	1637.455	1368.979
-33.940	30.013	1635.299	1367.410
-32.925	29.994	1633.714	1365.889
-31.911	30.023	1632.057	1364.661
-30.896	30.057	1630.373	1363.451
-29.881	29.946	1628.659	1361.149
-28.867	29.955	1627.029	1359.797
-27.852	29.877	1625.886	1358.214
-26.838	29.931	1624.262	1357.199
-25.823	30.062	1622.600	1356.716
-24.809	30.083	1621.342	1355.764
-23.794	30.054	1619.976	1354.356
-22.779	30.082	1618.547	1353.312
-21.765	29.960	1616.974	1351.052
-20.750	30.006	1615.189	1349.842
-19.736	30.060	1613.812	1349.031
-18.721	30.091	1612.212	1347.867
-17.706	30.044	1610.911	1346.386
-16.692	29.995	1609.269	1344.605
-15.677	29.998	1608.526	1343.949
-14.663	30.098	1606.713	1343.112
-13.648	29.983	1605.435	1341.153
-12.633	29.970	1604.000	1339.811
-11.619	30.002	1602.196	1338.483
-10.604	29.997	1600.742	1337.178
-9.590	30.036	1599.935	1336.730
-8.575	30.112	1598.074	1335.673
-7.560	30.101	1596.962	1334.605
-6.546	30.058	1596.764	1334.079
-5.531	30.038	1595.437	1332.778
-4.517	30.056	1593.769	1331.458
-3.502	29.994	1593.212	1330.493
-2.487	30.100	1591.376	1329.666
-1.473	29.729	1579.557	1317.098
-0.458	26.733	1560.454	1279.995
0.556	21.472	1560.877	1248.540
1.571	19.167	1585.286	1251.221
2.586	18.905	1598.187	1259.369
3.600	17.399	1545.668	1207.202
4.615	9.781	1435.841	1070.928
5.629	1.853	1370.831	971.941
6.644	0.247	1362.639	955.866
7.659	0.151	1361.104	954.091
8.673	0.108	1360.222	953.117
9.688	0.055	1358.261	951.325
10.702	-0.111	1355.266	948.095
11.717	3.612	1361.055	975.626
12.731	12.211	1374.230	1039.663
13.746	17.251	1381.285	1076.919
14.761	17.356	1379.937	1076.438
15.775	16.327	1376.948	1067.514
16.790	15.242	1374.696	1058.820
17.804	14.463	1372.120	1051.831
18.819	14.088	1371.107	1048.599
19.834	13.795	1369.889	1045.726
20.848	13.560	1368.338	1042.969
21.863	13.352	1367.425	1040.876
22.877	13.222	1365.770	1038.703
23.892	13.060	1365.217	1037.172
24.907	13.084	1364.123	1036.402
25.921	13.095	1363.558	1035.948
26.936	13.181	1362.425	1035.534
27.950	13.245	1361.266	1034.967
28.965	13.250	1360.616	1034.411
29.980	13.356	1359.312	1033.990
30.994	13.406	1358.486	1033.584
32.009	13.353	1358.302	1033.018
33.023	13.385	1356.659	1031.879
34.038	13.386	1355.720	1031.081
35.053	13.237	1354.739	1029.317
36.067	13.337	1353.004	1028.524
37.082	13.381	1352.406	1028.257
38.096	13.332	1351.300	1027.017
39.111	13.347	1350.748	1026.601
40.126	13.345	1349.846	1025.810
41.140	13.197	1349.416	1024.480
42.155	13.144	1348.795	1023.586
43.169	13.065	1348.824	1023.029
44.184	13.179	1348.415	1023.334
45.199	13.207	1347.953	1023.068
46.213	13.193	1347.678	1022.682
47.228	13.226	1346.719	1022.069
48.242	13.280	1345.435	1021.332
49.257	13.150	1344.070	1019.408
50.271	13.320	1342.284	1019.010
51.286	13.137	1341.777	1017.409
52.301	13.325	1340.143	1017.236
53.315	13.302	1338.577	1015.817
54.330	13.250	1337.748	1014.773
55.344	13.268	1336.639	1013.959
56.359	13.223	1336.122	1013.199
57.374	13.171	1334.866	1011.840
58.388	13.148	1333.945	1010.910
59.403	13.022	1333.768	1009.914
60.417	13.111	1333.084	1009.852
61.432	13.098	1331.522	1008.500
62.447	13.038	1331.059	1007.695
63.461	13.028	1329.785	1006.576
64.476	13.125	1328.326	1005.978
65.490	13.094	1327.261	1004.893
66.505	13.103	1325.964	1003.877
67.520	13.077	1324.833	1002.774
68.534	13.067	1323.555	1001.654
69.549	13.144	1322.405	1001.163
70.563	13.087	1321.546	1000.080
71.578	13.060	1319.908	998.588
72.593	13.054	1319.080	997.838
73.607	13.023	1318.769	997.328
74.622	13.008	1318.001	996.567
75.636	13.000	1317.012	995.680
76.651	12.936	1316.610	994.904
77.666	12.962	1316.099	994.586
78.680	13.000	1315.485	994.264
79.695	13.057	1314.330	993.645
80.709	13.031	1313.233	992.569
81.724	13.109	1312.878	992.685
82.739	13.098	1311.685	991.631
83.753	13.197	1310.656	991.357
84.768	13.343	1309.535	991.298
85.782	13.387	1308.515	990.700
86.797	13.287	1307.658	989.363
87.812	13.173	1306.149	987.456
88.826	13.200	1304.823	986.527
89.841	13.236	1303.880	985.941
90.855	13.262	1303.456	985.687
91.870	13.298	1302.412	985.024
92.884	13.375	1301.508	984.714
93.899	13.390	1300.541	983.985
94.914	13.403	1299.608	983.270
95.928	13.411	1298.861	982.663
96.943	13.418	1298.307	982.197
97.957	13.365	1297.100	980.884
98.972	13.310	1296.028	979.661
99.987	13.378	1294.642	978.928
101.001	13.254	1294.282	977.836
102.016	13.319	1293.390	977.458
103.030	13.368	1292.027	976.631
104.045	13.234	1290.952	974.942
105.060	13.341	1289.738	974.575
106.074	13.191	1289.178	973.179
107.089	13.264	1287.185	972.018
108.103	13.136	1286.123	970.377
109.118	13.105	1285.521	969.655
110.133	13.215	1283.317	968.551
111.147	13.176	1282.503	967.624
112.162	13.249	1281.213	966.993
113.176	13.360	1280.104	966.717
114.191	13.273	1279.396	965.590
115.206	13.231	1278.639	964.685
116.220	13.264	1276.883	963.468
117.235	13.180	1276.453	962.571
118.249	13.257	1274.997	961.839
119.264	13.212	1273.668	960.485
120.279	13.159	1273.195	959.736
121.293	13.183	1271.959	958.862
122.308	13.083	1271.278	957.681
123.322	13.075	1270.091	956.655
124.337	13.194	1269.042	956.472
125.352	13.165	1267.777	955.264
126.366	13.076	1266.567	953.755
127.381	13.123	1265.703	953.292
128.395	13.177	1264.431	952.562
129.410	13.200	1263.538	951.938
130.424	13.140	1263.449	951.439
131.439	13.184	1261.972	950.492
132.454	13.212	1261.322	950.083
133.468	13.194	1260.318	949.136
134.483	13.291	1259.235	948.798
135.497	13.247	1258.227	947.698
136.512	13.258	1257.171	946.885
137.527	13.305	1255.547	945.844
138.541	13.282	1254.316	944.704
139.556	13.359	1252.605	943.768
140.570	13.229	1252.533	942.892
141.585	13.348	1250.995	942.330
142.600	13.318	1249.675	941.081
143.614	13.403	1248.523	940.611
144.629	13.422	1247.854	940.131
145.643	13.520	1246.259	939.402
146.658	13.349	1244.924	937.346
147.673	13.418	1243.686	936.721
148.687	13.332	1242.741	935.442
149.702	13.274	1241.508	934.101
150.716	13.346	1239.906	933.222
151.731	13.254	1239.051	931.975
152.746	13.430	1237.415	931.652
153.760	13.317	1236.836	930.500
154.775	13.304	1235.880	929.621
155.789	13.365	1234.519	928.859
156.804	13.288	1234.228	928.127
157.819	13.552	1231.964	927.820
158.833	13.608	1231.246	927.512
159.848	13.601	1230.591	926.899
160.862	13.562	1229.776	925.983
161.877	13.629	1228.370	925.214
162.892	13.494	1227.255	923.543
163.906	13.520	1226.280	922.871
164.921	13.500	1225.434	922.040
165.935	13.444	1225.059	921.364
166.950	13.459	1224.024	920.592
167.964	13.486	1223.480	920.248
168.979	13.515	1222.307	919.445
169.994	13.461	1222.025	918.853
171.008	13.663	1221.120	919.211
172.023	13.620	1220.199	918.202
173.037	13.601	1220.093	917.931
174.052	13.633	1218.747	917.018
175.067	13.655	1217.583	916.179
176.081	13.652	1216.523	915.285
177.096	13.656	1215.896	914.755
178.110	13.668	1214.523	913.705
179.125	13.529	1213.665	912.214
180.140	13.586	1212.653	911.690
181.154	13.631	1211.168	910.738
182.169	13.595	1209.880	909.490
183.183	13.798	1208.888	909.777
184.198	13.757	1207.519	908.444
185.213	13.770	1206.654	907.781
186.227	13.695	1205.772	906.629
187.242	13.821	1204.587	906.343
188.256	13.956	1203.589	906.254
189.271	13.925	1202.772	905.386
190.286	13.617	1201.860	902.940
191.300	13.716	1200.982	902.740
192.315	13.665	1199.959	901.617
193.329	13.647	1199.570	901.147
194.344	13.625	1198.753	900.334
195.359	13.764	1197.871	900.347
196.373	13.784	1197.638	900.198
197.388	13.832	1197.196	900.047
198.402	13.831	1197.008	899.823
199.417	13.973	1196.179	899.890
200.432	14.096	1195.066	899.634
201.446	14.001	1194.146	898.349
202.461	13.940	1193.624	897.550
203.475	14.046	1192.594	897.268
204.490	14.109	1190.854	896.221
205.504	13.966	1189.789	894.568
206.519	14.038	1188.631	894.004
207.534	13.985	1187.696	892.936
208.548	14.054	1186.362	892.226
209.563	14.000	1185.956	891.551
210.577	14.084	1184.947	891.163
211.592	14.034	1184.645	890.592
212.607	14.168	1183.404	890.295
213.621	14.075	1182.830	889.287
214.636	14.102	1181.824	888.598
215.650	14.194	1180.837	888.270
216.665	14.191	1179.839	887.422
217.680	14.196	1178.971	886.715
218.694	14.247	1178.381	886.469
219.709	14.270	1177.193	885.618
220.723	14.279	1176.639	885.168
221.738	14.341	1175.861	884.835
222.753	14.229	1175.436	883.841
223.767	14.359	1174.623	883.841
224.782	14.520	1173.579	883.834
225.796	14.432	1173.171	882.981
226.811	14.389	1172.768	882.374
227.826	14.449	1171.737	881.836
228.840	14.373	1171.121	880.893
229.855	14.316	1170.426	879.991
230.869	14.429	1169.415	879.750
231.884	14.441	1168.574	879.101
232.899	14.298	1168.060	877.884
233.913	14.389	1167.310	877.724
234.928	14.390	1166.519	877.054
235.942	14.290	1165.907	875.991
236.957	14.377	1164.936	875.639
237.972	14.265	1164.634	874.749
238.986	14.379	1163.745	874.603
240.001	14.295	1163.434	873.848
241.015	14.388	1162.026	873.201
242.030	14.441	1161.228	872.804
243.045	14.502	1160.861	872.769
244.059	14.411	1160.267	871.770
245.074	14.573	1158.865	871.484
246.088	14.607	1158.044	870.969
247.103	14.556	1157.230	870.012
248.117	14.581	1156.265	869.340
249.132	14.674	1155.697	869.319
250.147	14.676	1155.132	868.829
251.161	14.881	1154.146	869.074
252.176	14.719	1153.530	867.692
253.190	14.844	1153.361	868.138
254.205	14.954	1152.716	868.146
255.220	14.777	1151.945	866.571
256.234	14.937	1151.420	866.928
257.249	14.890	1150.645	866.024
258.263	14.926	1150.053	865.689
259.278	14.813	1149.476	864.594
260.293	15.001	1148.807	864.985
261.307	15.036	1148.109	864.566
262.322	14.985	1147.561	863.813
263.336	15.178	1146.628	864.030
264.351	15.084	1146.103	863.073
265.366	15.034	1145.811	862.519
266.380	15.159	1145.011	862.482
267.395	15.215	1143.869	861.838
268.409	15.102	1143.388	860.815
269.424	15.021	1142.653	859.771
270.439	15.140	1142.118	859.904
271.453	15.042	1141.431	858.809
272.468	15.113	1140.363	858.292
273.482	15.031	1139.951	857.484
274.497	15.083	1139.388	857.250
275.512	15.077	1138.961	856.826
276.526	15.010	1137.857	855.577
277.541	15.166	1136.937	855.605
278.555	15.052	1136.552	854.659
279.570	15.158	1135.707	854.485
280.585	15.369	1134.506	854.582
281.599	15.261	1133.666	853.325
282.614	15.204	1133.227	852.628
283.628	15.167	1132.145	851.549
284.643	15.203	1130.576	850.478
285.657	15.151	1130.262	849.902
286.672	15.322	1129.089	849.814
287.687	15.371	1128.294	849.385
288.701	15.285	1127.621	848.372
289.716	15.361	1126.628	847.933
290.730	15.286	1126.350	847.271
291.745	15.319	1125.528	846.740
292.760	15.340	1124.627	846.095
293.774	15.439	1124.418	846.364
294.789	15.362	1123.792	845.430
295.803	15.469	1123.095	845.366
296.818	15.385	1122.661	844.544
297.833	15.455	1121.491	843.942
298.847	15.342	1120.796	842.777
299.862	15.473	1120.187	842.900
300.876	15.539	1119.342	842.521
301.891	15.533	1118.605	841.860
302.906	15.560	1117.665	841.216
303.920	15.541	1117.925	841.240
304.935	15.614	1116.568	840.511
305.949	15.776	1115.665	840.565
306.964	15.724	1115.236	839.911
307.979	15.684	1114.701	839.233
308.993	15.738	1113.838	838.776
310.008	15.685	1112.992	837.802
311.022	15.680	1112.354	837.223
312.037	15.755	1111.417	836.815
313.052	15.731	1110.217	835.719
314.066	15.635	1109.844	834.888
315.081	15.657	1109.072	834.344
316.095	15.591	1108.560	833.556
317.110	15.630	1107.553	832.921
318.125	15.690	1107.311	832.960
319.139	15.544	1106.669	831.681
320.154	15.697	1105.504	831.488
321.168	15.763	1105.190	831.504
322.183	15.662	1104.273	830.244
323.197	15.658	1104.086	830.008
324.212	15.728	1103.214	829.625
325.227	15.794	1102.697	829.488
326.241	15.832	1101.818	828.939
327.256	15.697	1101.058	827.633
328.270	15.760	1100.374	827.354
329.285	15.783	1098.979	826.345
330.300	15.767	1098.422	825.775
331.314	15.790	1097.573	825.174
332.329	15.733	1096.927	824.338
333.343	15.863	1095.655	823.947
334.358	15.923	1094.973	823.651
335.373	15.904	1094.356	823.023
336.387	15.910	1093.606	822.415
337.402	15.947	1092.859	821.962
338.416	15.952	1092.390	821.560
339.431	16.016	1091.437	821.081
340.446	16.053	1090.888	820.777
341.460	16.046	1090.182	820.141
342.475	16.115	1089.272	819.719
343.489	16.242	1088.267	819.503
344.504	16.223	1087.529	818.785
345.519	16.150	1086.517	817.596
346.533	16.153	1086.100	817.225
347.548	16.278	1085.246	817.114
348.562	16.275	1084.649	816.577
349.577	16.201	1083.770	815.486
350.592	16.180	1083.013	814.743
351.606	16.258	1082.193	814.433
352.621	16.161	1081.499	813.370
353.635	16.112	1081.176	812.819
354.650	16.154	1080.061	812.111
355.665	16.139	1079.902	811.847
356.679	16.209	1078.752	811.250
357.694	16.285	1078.253	811.167
358.708	16.291	1077.716	810.719
359.723	16.377	1076.637	810.246
360.738	16.280	1076.507	809.614
361.752	16.348	1075.634	809.208
362.767	16.340	1075.317	808.859
363.781	16.357	1074.571	808.309
364.796	16.436	1073.975	808.171
365.810	16.485	1073.795	808.195
366.825	16.602	1072.847	807.969
367.840	16.531	1072.267	807.123
368.854	16.534	1071.961	806.836
369.869	16.562	1070.908	806.105
370.883	16.526	1070.055	805.219
371.898	16.590	1069.369	804.937
372.913	16.663	1068.372	804.464
373.927	16.621	1068.093	803.980
374.942	16.670	1067.648	803.809
375.956	16.647	1067.154	803.257
376.971	16.555	1066.842	802.511
377.986	16.505	1066.007	801.576
379.000	16.659	1065.635	801.954
380.015	16.822	1064.694	801.949
381.029	16.819	1063.983	801.328
382.044	16.806	1063.565	800.879
383.059	16.829	1062.716	800.280
384.073	16.847	1062.110	799.835
385.088	16.868	1061.082	799.091
386.102	16.785	1060.322	798.057
387.117	16.857	1059.099	797.402
388.132	16.762	1058.641	796.541
389.146	16.738	1057.835	795.751
390.161	16.835	1057.210	795.666
391.175	16.762	1056.468	794.695
392.190	16.778	1056.310	794.582
393.205	16.853	1055.249	794.066
394.219	16.940	1053.958	793.432
395.234	16.954	1053.562	793.127
396.248	16.826	1052.322	791.526
397.263	16.910	1051.301	791.078
398.278	16.776	1050.917	790.098
399.292	16.857	1050.158	789.836
400.307	16.794	1049.584	789.037
401.321	16.849	1048.817	788.650
402.336	16.982	1048.079	788.643
403.350	16.958	1047.185	787.789
404.365	16.967	1046.506	787.248
405.380	17.119	1045.518	787.138
406.394	17.045	1045.024	786.357
407.409	17.075	1044.545	786.063
408.423	17.046	1043.936	785.402
409.438	17.189	1043.059	785.337
410.453	17.147	1042.335	784.524
411.467	17.206	1041.849	784.363
412.482	17.230	1041.409	784.074
413.496	17.160	1040.470	782.974
414.511	17.266	1039.597	782.737
415.526	17.227	1039.504	782.419
416.540	17.418	1039.337	783.101
417.555	17.415	1038.633	782.489
418.569	17.394	1037.837	781.721
419.584	17.333	1037.440	781.076
420.599	17.397	1036.832	780.842
421.613	103.106	1322.288	1469.272
422.628	94.521	1363.853	1469.372
