DTS Sentinel unit serial number:	SN413079Multiplexer serial number:	ORYXHardware model number:	OX4-SRSoftware version number:	ORYX F/W v4.00 Oryx Data Collector v3.7.2.0data status	okinstallation	princeton_trtdifferential loss correction	single-endedforward channel	channel 2reverse channel	N/Adate	2019/09/13time	03:59:35forward acquisition time	60.00reverse acquisition time	0.00gamma	496.2192k internal	0.2336k external	0.2336temperature offset calibration	1.0190default loss term (dB/km)	0.3790temperature slope calibration	1.0000multiplexer offset coefficient	1.0000multiplexer slope coefficient	1.0000fibre end	0.00T internal ref (°C)	27.02T ext. ref 1 (°C)	4.07T ext. ref 2 (°C)	21.31length (m)	temperature (°C)	Stokes	anti-Stokes-747.200	-69.040	-0.309	0.120
-746.185	465.284	-0.142	0.320
-745.171	-84.870	0.179	-0.056
-744.156	-90.969	-0.216	0.062
-743.142	12.146	0.228	0.176
-742.127	-34.083	0.325	-0.179
-741.112	-60.580	-0.164	0.070
-740.098	18.785	0.242	0.195
-739.083	-41.810	-0.124	0.064
-738.069	368.209	-0.162	0.329
-737.054	558.339	-0.115	0.278
-736.039	-17.915	0.218	-0.137
-735.025	276.547	0.045	-0.081
-734.010	-60.435	-0.071	0.030
-732.996	-200.000	0.008	-0.173
-731.981	-141.881	-0.117	0.012
-730.966	-57.248	0.047	0.021
-729.952	-46.121	-0.123	0.061
-728.937	-200.000	-0.007	0.066
-727.923	-30.625	0.138	-0.079
-726.908	203.564	0.163	-0.254
-725.894	64.798	-0.517	-0.524
-724.879	42.082	0.084	0.077
-723.864	-123.057	-0.202	-0.032
-722.850	-105.686	-0.238	0.054
-721.835	124.899	-0.186	-0.235
-720.821	800.000	-0.056	-0.175
-719.806	503.934	-0.138	-0.320
-718.791	-146.172	-0.423	0.037
-717.777	-200.000	-0.025	0.502
-716.762	83.388	-0.299	0.327
-715.748	426.179	-0.093	-0.200
-714.733	800.000	-0.056	-0.230
-713.718	271.127	0.088	-0.155
-712.704	563.401	0.064	0.156
-711.689	-35.711	-0.240	-0.131
-710.675	15.213	-0.315	0.248
-709.660	800.000	-0.050	-0.187
-708.645	-43.392	0.192	0.097
-707.631	36.039	-0.165	-0.146
-706.616	-200.000	-0.036	-0.448
-705.602	219.554	0.120	0.192
-704.587	-40.033	-0.088	0.046
-703.572	53.329	0.178	-0.171
-702.558	69.206	0.206	0.213
-701.543	483.505	-0.067	-0.152
-700.529	-128.373	0.048	0.007
-699.514	800.000	0.064	-0.186
-698.499	231.308	0.138	0.227
-697.485	800.000	0.103	-0.313
-696.470	755.230	-0.035	-0.095
-695.456	-128.853	0.176	0.025
-694.441	-200.000	-0.013	-0.226
-693.426	-165.056	-0.220	-0.010
-692.412	-55.782	0.039	0.017
-691.397	-6.043	-0.196	0.134
-690.383	-69.438	-0.046	-0.018
-689.368	-87.947	0.328	0.099
-688.354	-75.547	0.065	0.023
-687.339	23.152	0.391	-0.322
-686.324	-128.487	0.046	0.007
-685.310	69.760	-0.075	-0.077
-684.295	169.478	0.071	-0.102
-683.281	-200.000	0.025	0.108
-682.266	-47.900	0.055	-0.027
-681.251	800.000	-0.032	0.100
-680.237	-71.126	0.185	-0.070
-679.222	-63.301	0.350	0.144
-678.208	-129.464	-0.330	0.046
-677.193	-26.833	0.108	-0.063
-676.178	301.654	-0.134	0.248
-675.164	365.933	-0.104	0.209
-674.149	-88.570	-0.299	0.089
-673.135	-85.250	0.033	-0.010
-672.120	-58.309	0.440	0.192
-671.105	-200.000	0.020	-0.371
-670.091	-200.000	0.062	-0.299
-669.076	-200.000	0.000	-0.292
-668.062	-53.605	-0.065	0.030
-667.047	-115.931	-0.276	-0.052
-666.032	-141.970	-0.314	-0.031
-665.018	439.715	-0.131	0.287
-664.003	-200.000	-0.016	0.098
-662.989	18.016	-0.256	0.204
-661.974	-20.650	0.140	-0.086
-660.959	201.504	0.117	-0.180
-659.945	800.000	0.032	0.090
-658.930	-13.571	0.163	0.106
-657.916	678.495	-0.135	-0.351
-656.901	-200.000	-0.034	-0.286
-655.886	71.835	-0.195	-0.203
-654.872	321.116	0.016	-0.030
-653.857	-125.245	-0.399	-0.061
-652.843	-28.108	0.108	-0.062
-651.828	-37.206	0.199	-0.107
-650.814	800.000	-0.028	-0.118
-649.799	75.812	0.073	0.077
-648.784	-114.255	-0.252	0.049
-647.770	326.950	-0.073	-0.139
-646.755	-158.619	-0.405	-0.023
-645.741	-44.205	-0.088	0.044
-644.726	800.000	0.045	0.146
-643.711	-200.000	0.034	0.186
-642.697	22.945	0.325	-0.267
-641.682	-49.923	-0.333	0.158
-640.668	800.000	0.023	-0.094
-639.653	442.499	-0.036	0.078
-638.638	25.360	-0.038	-0.032
-637.624	-133.686	-0.250	0.031
-636.609	-200.000	0.015	-0.290
-635.595	86.861	-0.166	0.183
-634.580	-41.337	0.123	-0.064
-633.565	-200.000	-0.010	-0.479
-632.551	186.397	-0.190	-0.283
-631.536	54.451	0.023	-0.022
-630.522	117.430	0.090	0.111
-629.507	107.136	-0.180	-0.214
-628.492	-136.549	-0.158	-0.018
-627.478	-193.176	-0.076	0.001
-626.463	-49.723	0.134	0.064
-625.449	-39.699	-0.085	-0.044
-624.434	1.616	-0.117	-0.084
-623.419	-200.000	-0.088	-0.409
-622.405	800.000	-0.078	0.280
-621.390	800.000	-0.072	-0.232
-620.376	-87.337	0.496	0.150
-619.361	-100.206	0.275	-0.068
-618.346	319.109	0.055	-0.105
-617.332	36.899	0.132	-0.117
-616.317	-11.855	0.201	0.132
-615.303	-101.889	0.355	0.086
-614.288	-200.000	-0.010	0.112
-613.273	-125.544	0.325	-0.049
-612.259	-200.000	-0.011	0.322
-611.244	-157.814	-0.299	0.018
-610.230	800.000	0.038	-0.132
-609.215	-133.871	0.304	0.038
-608.201	-200.000	0.042	0.484
-607.186	-200.000	0.023	0.151
-606.171	-94.412	-0.317	0.086
-605.157	-200.000	0.017	-0.135
-604.142	592.012	-0.123	-0.304
-603.128	-3.802	0.296	-0.205
-602.113	310.062	-0.079	-0.148
-601.098	21.493	-0.136	0.111
-600.084	-103.432	-0.051	0.012
-599.069	-200.000	-0.016	-0.338
-598.055	-200.000	-0.019	0.235
-597.040	-112.772	0.099	-0.020
-596.025	545.356	0.079	-0.189
-595.011	-131.048	-0.293	-0.039
-593.996	183.679	-0.212	-0.313
-592.982	-2.130	0.084	0.059
-591.967	-31.954	-0.231	-0.129
-590.952	86.762	0.104	-0.115
-589.938	-105.319	-0.166	0.038
-588.923	369.718	0.085	-0.171
-587.909	109.883	-0.278	-0.333
-586.894	800.000	0.040	-0.120
-585.879	800.000	0.092	-0.309
-584.865	-85.884	-0.023	-0.007
-583.850	-102.061	0.050	-0.012
-582.836	426.883	0.076	-0.164
-581.821	-121.114	-0.374	-0.062
-580.806	167.487	-0.151	-0.214
-579.792	-121.785	0.472	0.078
-578.777	-67.493	-0.234	-0.092
-577.763	281.540	0.089	0.160
-576.748	40.751	0.066	0.059
-575.733	800.000	-0.072	0.228
-574.719	110.868	-0.085	-0.102
-573.704	367.540	-0.112	0.226
-572.690	58.419	-0.246	0.241
-571.675	-200.000	-0.015	0.215
-570.661	340.068	0.038	-0.074
-569.646	-200.000	0.004	-0.133
-568.631	45.193	0.134	-0.123
-567.617	-200.000	-0.007	0.071
-566.602	-200.000	-0.024	0.218
-565.588	409.181	0.094	-0.198
-564.573	104.609	0.208	-0.245
-563.558	-200.000	-0.003	-0.018
-562.544	-93.619	0.214	0.059
-561.529	-12.843	-0.223	0.145
-560.515	-200.000	0.039	0.404
-559.500	-72.447	-0.156	-0.058
-558.485	-96.092	-0.149	-0.039
-557.471	-200.000	-0.039	-0.340
-556.456	-200.000	-0.037	-0.187
-555.442	800.000	0.069	-0.260
-554.427	1.573	0.117	0.084
-553.412	-200.000	-0.020	0.221
-552.398	-200.000	-0.050	0.303
-551.383	-12.211	0.083	-0.054
-550.369	51.637	-0.325	-0.308
-549.354	92.086	0.188	-0.211
-548.339	25.611	0.104	-0.086
-547.325	220.700	-0.172	0.275
-546.310	773.964	0.038	-0.105
-545.296	-146.871	0.429	-0.037
-544.281	-145.991	-0.097	-0.009
-543.266	234.975	-0.214	0.353
-542.252	-166.077	-0.215	0.009
-541.237	34.633	-0.293	0.255
-540.223	379.334	0.030	0.062
-539.208	-126.176	-0.033	0.005
-538.193	-6.124	0.174	0.118
-537.179	-28.933	-0.072	0.041
-536.164	-53.881	0.210	0.096
-535.150	94.845	-0.442	0.500
-534.135	451.381	0.011	0.025
-533.121	295.779	-0.098	0.179
-532.106	-200.000	0.022	-0.109
-531.091	-191.083	0.288	0.003
-530.077	776.080	-0.074	0.200
-529.062	-146.900	-0.147	0.013
-528.048	-110.226	-0.306	0.063
-527.033	21.465	0.086	-0.070
-526.018	-66.439	-0.259	-0.103
-525.004	-61.616	0.023	0.010
-523.989	-115.668	0.307	-0.057
-522.975	-68.803	0.244	-0.094
-521.960	-200.000	-0.071	-0.320
-520.945	160.469	0.070	-0.097
-519.931	-29.677	-0.204	-0.116
-518.916	-176.239	-0.387	-0.010
-517.902	-139.249	0.251	0.027
-516.887	-115.368	-0.062	0.012
-515.872	-27.210	-0.073	0.042
-514.858	86.771	-0.154	0.170
-513.843	800.000	-0.091	-0.326
-512.829	-83.945	0.423	0.134
-511.814	789.492	0.077	-0.210
-510.799	90.896	-0.041	0.045
-509.785	573.688	-0.144	0.348
-508.770	49.264	0.089	-0.083
-507.756	792.919	-0.091	0.248
-506.741	-81.300	0.395	-0.130
-505.726	219.894	0.178	0.284
-504.712	-10.532	-0.382	0.252
-503.697	99.142	0.126	0.145
-502.683	800.000	0.056	-0.156
-501.668	-52.349	0.379	0.175
-500.653	800.000	0.051	-0.175
-499.639	-200.000	-0.024	-0.155
-498.624	-122.051	0.137	0.022
-497.610	203.784	-0.057	-0.087
-496.595	5.815	-0.174	-0.128
-495.581	-200.000	-0.001	0.060
-494.566	-200.000	-0.050	-0.224
-493.551	265.097	0.140	-0.243
-492.537	108.717	0.123	-0.146
-491.522	-118.864	-0.096	0.017
-490.508	720.354	0.168	-0.443
-489.493	278.405	0.140	-0.248
-488.478	-139.810	-0.173	-0.018
-487.464	6.359	-0.255	0.188
-486.449	-52.500	-0.336	-0.154
-485.435	-124.366	0.277	-0.043
-484.420	305.703	0.023	-0.042
-483.405	-92.148	-0.105	0.029
-482.391	67.129	0.137	-0.139
-481.376	-76.055	0.125	0.044
-480.362	414.274	-0.028	-0.060
-479.347	-132.740	0.261	-0.033
-478.332	-86.081	-0.319	0.098
-477.318	714.853	0.087	-0.228
-476.303	-108.468	-0.159	0.034
-475.289	-200.000	-0.019	0.200
-474.274	-67.068	-0.116	0.046
-473.259	109.192	-0.206	0.245
-472.245	-134.911	0.065	-0.008
-471.230	256.232	-0.073	-0.125
-470.216	662.236	-0.107	0.273
-469.201	-150.690	0.244	0.018
-468.186	146.233	0.220	-0.293
-467.172	402.440	-0.018	0.038
-466.157	-74.585	0.190	-0.068
-465.143	67.906	0.152	0.154
-464.128	-94.959	-0.100	-0.027
-463.113	-54.856	0.113	0.051
-462.099	-119.071	-0.303	-0.053
-461.084	-96.136	0.212	0.056
-460.070	-200.000	0.002	-0.293
-459.055	800.000	-0.150	0.419
-458.040	-16.817	-0.246	0.155
-457.026	-73.775	-0.100	-0.036
-456.011	-52.205	0.272	0.125
-454.997	-51.732	0.068	0.031
-453.982	198.117	0.045	-0.069
-452.968	57.082	0.325	0.315
-451.953	587.795	0.163	0.398
-450.938	365.494	0.126	0.253
-449.924	-39.114	-0.019	-0.010
-448.909	-26.802	-0.095	0.055
-447.895	-154.749	-0.185	-0.012
-446.880	240.097	-0.308	0.510
-445.865	800.000	-0.078	0.310
-444.851	-200.000	0.016	0.187
-443.836	-40.070	-0.019	-0.010
-442.822	67.439	-0.019	0.019
-441.807	742.818	0.052	-0.138
-440.792	445.470	-0.033	0.071
-439.778	81.120	-0.099	0.106
-438.763	-200.000	0.020	-0.384
-437.749	-46.309	-0.186	-0.091
-436.734	60.269	0.038	-0.037
-435.719	-81.507	-0.245	0.080
-434.705	-56.985	-0.343	-0.150
-433.690	-200.000	0.019	0.159
-432.676	-76.154	0.121	-0.043
-431.661	800.000	0.040	-0.123
-430.646	-8.339	0.020	0.014
-429.632	384.713	0.156	0.319
-428.617	800.000	-0.103	-0.363
-427.603	-60.258	0.123	-0.052
-426.588	800.000	-0.073	0.268
-425.573	-34.391	0.154	-0.084
-424.559	-14.056	-0.141	-0.090
-423.544	629.371	-0.068	0.172
-422.530	-125.027	-0.238	0.036
-421.515	120.195	0.089	-0.110
-420.500	800.000	-0.147	-0.431
-419.486	800.000	-0.022	0.076
-418.471	-200.000	0.024	-0.264
-417.457	64.305	0.065	-0.065
-416.442	-183.545	-0.265	-0.005
-415.428	126.334	-0.273	0.343
-414.413	241.897	0.077	0.128
-413.398	800.000	-0.038	-0.103
-412.384	-99.921	0.221	0.055
-411.369	-80.761	0.072	-0.024
-410.355	-76.861	-0.165	-0.057
-409.340	800.000	-0.047	0.130
-408.325	800.000	0.057	-0.180
-407.311	22.922	-0.144	-0.117
-406.296	-200.000	0.022	0.162
-405.282	81.922	0.144	0.155
-404.267	-200.000	-0.031	-0.137
-403.252	-200.000	0.007	-0.208
-402.238	29.355	0.218	0.184
-401.223	-200.000	0.023	-0.121
-400.209	394.909	0.079	-0.164
-399.194	528.332	0.077	0.181
-398.179	-11.067	-0.180	-0.118
-397.165	732.523	0.031	-0.082
-396.150	91.898	-0.197	0.220
-395.136	-123.297	-0.259	-0.041
-394.121	359.078	-0.062	-0.123
-393.106	42.852	-0.312	-0.282
-392.092	-111.358	-0.149	-0.030
-391.077	-56.742	-0.076	-0.033
-390.063	-69.553	0.226	0.086
-389.048	285.688	0.176	-0.315
-388.033	-122.269	-0.278	-0.045
-387.019	-44.356	0.576	0.286
-386.004	164.684	-0.058	-0.081
-384.990	800.000	-0.054	0.195
-383.975	-200.000	0.053	-0.266
-382.960	-118.855	0.340	0.059
-381.946	-200.000	0.044	0.229
-380.931	251.921	0.157	0.264
-379.917	41.147	0.233	0.209
-378.902	248.283	0.041	0.069
-377.888	-200.000	0.029	0.000
-376.873	100.507	-0.341	-0.392
-375.858	105.386	-0.053	-0.062
-374.844	210.305	0.126	-0.196
-373.829	2.352	0.091	0.065
-372.815	-41.732	0.196	0.099
-371.800	-105.498	0.280	0.063
-370.785	94.120	-0.039	0.044
-369.771	206.098	0.163	0.251
-368.756	-200.000	-0.011	-0.249
-367.742	3.841	-0.176	-0.128
-366.727	-81.816	-0.196	0.064
-365.712	359.006	0.112	-0.222
-364.698	55.396	0.226	0.216
-363.683	219.563	0.079	-0.126
-362.669	800.000	0.035	-0.128
-361.654	-187.018	0.082	0.001
-360.639	106.527	-0.249	0.292
-359.625	-113.344	-0.168	0.033
-358.610	-105.239	-0.074	0.017
-357.596	-200.000	-0.013	0.065
-356.581	-146.082	0.216	-0.019
-355.566	18.183	0.212	0.167
-354.552	-159.637	0.114	0.006
-353.537	192.375	0.044	0.065
-352.523	800.000	0.070	-0.262
-351.508	-200.000	-0.011	0.133
-350.493	580.196	0.185	-0.449
-349.479	490.709	0.037	0.083
-348.464	288.989	-0.301	0.539
-347.450	623.144	0.102	0.253
-346.435	800.000	-0.018	0.062
-345.420	195.187	-0.061	0.092
-344.406	-19.378	0.086	-0.053
-343.391	126.273	0.071	0.089
-342.377	-178.784	0.125	-0.003
-341.362	800.000	-0.106	-0.314
-340.348	-200.000	-0.009	-0.180
-339.333	107.218	0.194	0.228
-338.318	38.954	0.089	0.078
-337.304	-103.677	-0.351	-0.081
-336.289	238.101	0.062	-0.101
-335.275	-135.219	-0.282	-0.033
-334.260	424.693	-0.099	0.210
-333.245	-127.643	-0.168	-0.024
-332.231	-106.066	0.242	-0.054
-331.216	-200.000	-0.000	-0.280
-330.202	222.298	0.050	-0.080
-329.187	-200.000	-0.069	-0.410
-328.172	800.000	0.065	0.278
-327.158	-200.000	0.029	0.185
-326.143	-108.427	-0.139	-0.030
-325.129	-200.000	-0.100	-0.790
-324.114	-200.000	0.026	-0.122
-323.099	-200.000	0.003	0.138
-322.085	84.043	-0.140	-0.151
-321.070	-126.654	-0.267	-0.039
-320.056	-70.628	0.361	0.135
-319.041	178.306	0.035	-0.051
-318.026	-37.186	0.301	-0.159
-317.012	190.259	0.135	-0.200
-315.997	233.058	-0.150	-0.243
-314.983	-200.000	-0.057	-0.300
-313.968	33.469	-0.170	0.146
-312.953	-200.000	-0.017	0.521
-311.939	-56.515	-0.222	-0.097
-310.924	8.440	-0.111	-0.082
-309.910	-99.931	-0.115	-0.028
-308.895	205.748	-0.086	0.131
-307.880	800.000	0.032	0.090
-306.866	-87.051	0.054	-0.016
-305.851	-200.000	-0.008	0.045
-304.837	-10.046	0.308	-0.202
-303.822	176.935	0.109	-0.157
-302.807	-200.000	0.075	-0.327
-301.793	628.108	0.051	-0.128
-300.778	486.259	-0.080	0.180
-299.764	-35.280	0.237	0.127
-298.749	-99.786	0.244	0.060
-297.735	800.000	-0.058	0.193
-296.720	-27.024	-0.215	0.124
-295.705	-28.761	0.170	0.097
-294.691	305.677	0.102	0.187
-293.676	800.000	0.042	-0.117
-292.662	-75.096	-0.206	0.073
-291.647	-160.570	-0.214	0.011
-290.632	154.326	-0.230	0.312
-289.618	-38.716	0.177	-0.092
-288.603	800.000	-0.046	0.182
-287.589	800.000	0.131	0.380
-286.574	259.398	-0.154	0.262
-285.559	-31.224	0.160	-0.089
-284.545	-11.644	0.276	-0.179
-283.530	24.093	0.054	0.044
-282.516	20.285	-0.080	-0.064
-281.501	-103.305	0.362	-0.084
-280.486	-78.443	-0.341	0.115
-279.472	551.351	0.147	-0.347
-278.457	-200.000	0.007	0.087
-277.443	22.663	0.312	-0.252
-276.428	109.335	-0.235	0.277
-275.413	-59.667	0.367	0.155
-274.399	-148.884	0.332	-0.026
-273.384	-71.856	-0.441	0.162
-272.370	92.287	0.261	-0.290
-271.355	800.000	-0.090	0.290
-270.340	-1.286	0.221	0.154
-269.326	-70.386	0.077	-0.029
-268.311	-126.943	0.054	0.008
-267.297	-117.693	-0.212	-0.038
-266.282	800.000	0.027	0.113
-265.267	307.840	0.145	-0.266
-264.253	-121.157	-0.224	-0.037
-263.238	-20.708	-0.195	0.118
-262.224	55.459	0.179	-0.171
-261.209	126.143	0.081	-0.101
-260.195	-94.949	-0.325	-0.087
-259.180	20.422	-0.174	0.138
-258.165	460.196	-0.041	-0.090
-257.151	127.847	0.141	0.177
-256.136	800.000	-0.111	-0.381
-255.122	226.983	-0.203	-0.325
-254.107	-200.000	-0.030	0.202
-253.092	-200.000	0.019	0.263
-252.078	-200.000	0.030	0.254
-251.063	800.000	-0.062	-0.175
-250.049	445.256	-0.157	-0.339
-249.034	800.000	0.036	-0.154
-248.019	-133.800	0.182	-0.022
-247.005	169.392	0.035	-0.049
-245.990	800.000	-0.045	0.169
-244.976	226.803	-0.111	0.178
-243.961	-115.862	-0.083	-0.015
-242.946	38.185	-0.117	-0.103
-241.932	-162.577	0.286	0.014
-240.917	800.000	0.055	0.178
-239.903	-57.089	-0.101	0.044
-238.888	-80.532	0.420	-0.138
-237.873	548.409	0.031	-0.073
-236.859	224.373	0.203	0.324
-235.844	-22.712	-0.262	0.156
-234.830	48.171	-0.209	0.192
-233.815	172.648	-0.252	-0.358
-232.800	-128.181	0.302	-0.042
-231.786	58.851	0.140	0.136
-230.771	447.937	0.106	0.230
-229.757	182.044	-0.139	-0.201
-228.742	763.926	-0.121	-0.324
-227.727	151.908	0.052	0.070
-226.713	-136.849	-0.287	-0.032
-225.698	-75.201	0.164	-0.058
-224.684	-65.133	-0.239	-0.095
-223.669	-59.260	0.109	0.046
-222.655	30.735	-0.116	0.098
-221.640	-200.000	0.026	0.172
-220.625	670.358	0.009	0.023
-219.611	-16.833	-0.035	-0.022
-218.596	-52.651	0.092	-0.042
-217.582	381.268	-0.021	-0.042
-216.567	197.021	-0.164	-0.245
-215.552	18.569	0.098	0.077
-214.538	800.000	0.104	0.336
-213.523	69.238	0.207	0.209
-212.509	129.242	0.030	-0.038
-211.494	-120.490	-0.271	-0.045
-210.479	800.000	0.039	0.108
-209.465	-61.003	-0.306	0.127
-208.450	-3.549	0.225	0.154
-207.436	800.000	-0.061	0.197
-206.421	-103.151	0.297	-0.069
-205.406	-200.000	-0.019	0.099
-204.392	-97.768	-0.182	0.046
-203.377	-166.188	0.162	-0.007
-202.363	-200.000	-0.021	-0.316
-201.348	-200.000	0.014	0.366
-200.333	-200.000	0.001	0.037
-199.319	-2.022	0.335	0.232
-198.304	176.952	-0.064	0.092
-197.290	-200.000	0.017	-0.146
-196.275	176.476	-0.050	-0.072
-195.260	93.957	0.184	-0.205
-194.246	-79.161	-0.120	0.040
-193.231	708.450	0.097	0.253
-192.217	-96.124	-0.340	-0.089
-191.202	446.790	-0.115	-0.250
-190.187	33.413	-0.126	-0.107
-189.173	198.311	0.231	0.347
-188.158	110.532	0.153	0.180
-187.144	-99.273	0.295	0.073
-186.129	-60.707	0.346	-0.144
-185.114	-19.864	-0.220	-0.134
-184.100	9.456	-0.109	-0.081
-183.085	128.427	-0.173	0.216
-182.071	63.402	-0.198	-0.195
-181.056	-74.450	0.336	-0.119
-180.042	31.976	-0.240	0.203
-179.027	-4.718	0.166	0.113
-178.012	287.649	0.097	-0.172
-176.998	98.017	-0.176	-0.199
-175.983	-200.000	0.007	-0.070
-174.969	-200.000	0.007	0.166
-173.954	717.701	0.011	0.029
-172.939	-93.570	0.062	0.017
-171.925	158.495	0.104	0.142
-170.910	-150.976	0.279	-0.021
-169.896	-22.466	0.195	0.116
-168.881	20.381	-0.352	0.280
-167.866	800.000	-0.019	-0.073
-166.852	-112.139	0.289	-0.057
-165.837	317.146	-0.022	-0.042
-164.823	-79.697	-0.211	-0.070
-163.808	98.991	0.070	0.080
-162.793	-92.860	-0.312	-0.086
-161.779	-137.894	-0.120	0.013
-160.764	159.514	-0.153	-0.210
-159.750	-200.000	-0.204	0.000
-158.735	5.647	0.260	-0.189
-157.720	800.000	0.091	0.250
-156.706	16.653	0.061	0.047
-155.691	-51.456	0.172	-0.079
-154.677	318.962	0.071	0.132
-153.662	768.776	0.023	-0.060
-152.647	-82.666	0.170	0.054
-151.633	66.909	0.138	0.138
-150.618	-200.000	-0.035	0.395
-149.604	-158.557	0.165	0.009
-148.589	54.686	0.228	0.216
-147.574	-190.173	-0.204	-0.002
-146.560	194.193	-0.188	-0.280
-145.545	-120.091	0.150	-0.025
-144.531	-105.195	-0.192	-0.043
-143.516	487.186	0.030	-0.068
-142.502	59.495	-0.128	0.123
-141.487	-200.000	-0.041	-0.395
-140.472	-127.294	-0.192	-0.028
-139.458	6.296	-0.240	-0.175
-138.443	102.628	-0.142	0.162
-137.429	-85.853	-0.227	0.069
-136.414	800.000	-0.089	-0.245
-135.399	-78.289	0.066	0.022
-134.385	237.578	-0.112	0.183
-133.370	272.059	-0.008	0.014
-132.356	390.582	0.092	0.187
-131.341	508.580	0.078	0.178
-130.326	-200.000	-0.016	-0.087
-129.312	-83.740	0.267	0.083
-128.297	-100.224	0.376	0.092
-127.283	-25.016	0.240	0.140
-126.268	-200.000	-0.010	-0.196
-125.253	188.492	-0.128	-0.187
-124.239	-28.958	0.095	-0.054
-123.224	800.000	0.081	-0.227
-122.210	-200.000	-0.004	0.139
-121.195	345.111	0.146	-0.282
-120.180	-200.000	0.006	0.226
-119.166	-200.000	0.064	-0.414
-118.151	-200.000	-0.051	-0.414
-117.137	-141.377	-0.067	-0.007
-116.122	-200.000	0.019	0.190
-115.107	-200.000	-0.035	-0.168
-114.093	-17.457	0.276	0.170
-113.078	326.346	0.087	-0.163
-112.064	-123.957	-0.133	0.021
-111.049	579.321	-0.099	-0.237
-110.034	217.670	-0.215	0.336
-109.020	17.120	0.315	0.245
-108.005	-20.841	-0.151	0.091
-106.991	-14.821	-0.156	0.098
-105.976	-57.028	-0.053	-0.023
-104.962	23.129	-0.159	0.127
-103.947	-200.000	-0.069	0.339
-102.932	-48.996	-0.183	0.086
-101.918	432.878	-0.148	0.315
-100.903	164.612	-0.033	0.045
-99.889	-200.000	-0.464	-0.001
-98.874	-200.000	-0.002	-0.204
-97.859	800.000	-0.087	-0.234
-96.845	124.831	0.269	-0.332
-95.830	-200.000	0.030	0.162
-94.816	-27.791	-0.417	0.237
-93.801	285.523	-0.032	0.057
-92.786	408.732	0.156	-0.323
-91.772	-1.783	0.146	-0.101
-90.757	124.782	0.300	0.370
-89.743	35.543	0.227	0.195
-88.728	800.000	0.136	0.456
-87.713	-200.000	-0.042	-0.318
-86.699	-75.268	-0.178	0.062
-85.684	47.654	0.140	0.127
-84.670	-179.253	0.342	0.007
-83.655	0.745	-0.090	-0.063
-82.640	-200.000	-0.019	-0.161
-81.626	30.419	-0.222	-0.186
-80.611	-67.445	0.289	-0.111
-79.597	73.702	0.119	-0.122
-78.582	-86.471	-0.326	0.098
-77.567	465.956	0.075	-0.164
-76.553	87.929	-0.211	0.229
-75.538	-21.520	-0.241	-0.144
-74.524	109.999	0.201	0.236
-73.509	4.254	0.146	-0.105
-72.494	-108.551	0.035	-0.007
-71.480	127.699	0.103	0.129
-70.465	800.000	-0.061	-0.228
-69.451	131.181	0.206	0.259
-68.436	-7.086	-0.134	0.089
-67.422	-15.252	0.262	0.164
-66.407	775.421	-0.080	0.215
-65.392	-200.000	-0.008	-0.038
-64.378	800.000	-0.088	0.285
-63.363	-200.000	-0.012	-0.188
-62.349	618.104	-0.018	0.044
-61.334	175.751	-0.931	-1.320
-60.319	229.728	0.419	0.670
-59.305	800.000	-0.218	-0.810
-58.290	800.000	0.301	1.191
-57.276	158.563	0.778	1.056
-56.261	-200.000	116.648	661.699
-55.246	528.139	1533.976	3537.381
-54.232	175.893	2710.546	3845.297
-53.217	101.171	2289.611	2605.045
-52.203	36.150	1895.679	1632.198
-51.188	30.200	1686.504	1407.059
-50.173	27.766	1644.280	1353.741
-49.159	49.559	1701.163	1565.497
-48.144	47.835	1714.785	1564.994
-47.130	29.791	1672.699	1392.241
-46.115	27.032	1657.996	1359.325
-45.100	26.922	1653.115	1354.453
-44.086	26.868	1650.803	1352.101
-43.071	26.866	1648.098	1349.816
-42.057	26.756	1646.269	1347.446
-41.042	26.867	1644.131	1346.465
-40.027	26.896	1641.897	1344.802
-39.013	26.860	1639.948	1342.884
-37.998	26.903	1638.053	1341.597
-36.984	26.916	1636.966	1340.746
-35.969	26.947	1635.276	1339.543
-34.954	26.966	1633.921	1338.521
-33.940	26.963	1631.893	1336.779
-32.925	27.097	1629.703	1335.917
-31.911	27.046	1628.410	1334.432
-30.896	26.961	1626.874	1332.497
-29.881	26.989	1624.970	1331.093
-28.867	26.903	1623.866	1329.501
-27.852	27.007	1621.952	1328.641
-26.838	26.976	1620.221	1326.946
-25.823	26.995	1619.300	1326.278
-24.809	27.020	1618.315	1325.603
-23.794	27.054	1616.532	1324.339
-22.779	27.047	1615.392	1323.295
-21.765	27.032	1613.246	1321.378
-20.750	27.006	1611.302	1319.543
-19.736	27.060	1610.587	1319.297
-18.721	27.089	1609.026	1318.181
-17.706	26.965	1608.045	1316.424
-16.692	27.089	1605.855	1315.473
-15.677	27.144	1604.491	1314.702
-14.663	27.091	1603.649	1313.581
-13.648	26.986	1602.281	1311.650
-12.633	27.019	1600.739	1310.570
-11.619	27.042	1599.053	1309.306
-10.604	27.077	1597.389	1308.144
-9.590	27.062	1596.151	1306.972
-8.575	27.155	1594.756	1306.442
-7.560	27.176	1593.341	1305.383
-6.546	27.095	1592.236	1303.847
-5.531	27.040	1591.364	1302.688
-4.517	27.025	1589.981	1301.392
-3.502	27.029	1589.094	1300.644
-2.487	27.182	1587.133	1300.080
-1.473	26.672	1575.831	1287.147
-0.458	23.730	1556.406	1250.555
0.556	22.068	1557.053	1218.049
1.571	19.469	1580.752	1218.157
2.586	18.887	1592.743	1223.149
3.600	17.143	1539.946	1170.488
4.615	10.842	1433.930	1049.249
5.629	5.008	1375.049	969.872
6.644	4.010	1367.067	957.986
7.659	4.056	1365.694	957.222
8.673	4.105	1365.369	957.214
9.688	4.129	1363.303	955.826
10.702	4.066	1360.246	953.215
11.717	6.815	1365.274	973.615
12.731	14.244	1379.820	1030.025
13.746	21.049	1390.691	1080.349
14.761	22.934	1392.463	1093.305
15.775	22.421	1390.229	1088.281
16.790	21.422	1388.272	1080.490
17.804	20.785	1385.778	1074.519
18.819	20.536	1384.551	1071.939
19.834	20.455	1384.027	1070.937
20.848	20.444	1383.141	1070.092
21.863	20.274	1382.069	1068.120
22.877	20.070	1381.224	1066.116
23.892	20.110	1379.667	1065.066
24.907	20.072	1378.848	1064.109
25.921	20.088	1378.144	1063.567
26.936	20.054	1377.040	1062.414
27.950	20.138	1376.242	1062.218
28.965	20.286	1374.988	1062.061
29.980	20.326	1374.500	1061.836
30.994	20.591	1373.395	1062.509
32.009	20.605	1372.421	1061.744
33.023	20.497	1371.302	1060.131
34.038	20.461	1370.068	1058.859
35.053	20.267	1368.579	1056.433
36.067	20.245	1367.573	1055.429
37.082	20.233	1366.817	1054.681
38.096	20.310	1365.921	1054.367
39.111	20.401	1365.211	1054.278
40.126	20.375	1363.739	1052.885
41.140	20.025	1362.588	1049.785
42.155	19.800	1362.148	1047.992
43.169	19.796	1361.972	1047.735
44.184	19.721	1361.904	1047.138
45.199	19.792	1361.834	1047.424
46.213	20.033	1361.447	1048.487
47.228	20.056	1360.811	1048.047
48.242	20.155	1359.559	1047.587
49.257	20.146	1357.704	1046.014
50.271	20.147	1356.625	1045.093
51.286	20.217	1355.037	1044.201
52.301	20.249	1353.517	1043.127
53.315	19.981	1352.700	1040.796
54.330	19.899	1351.904	1039.599
55.344	19.812	1350.720	1038.076
56.359	19.824	1349.214	1036.898
57.374	19.757	1348.292	1035.694
58.388	19.640	1347.734	1034.476
59.403	19.629	1347.361	1034.032
60.417	19.615	1346.560	1033.243
61.432	19.562	1344.995	1031.632
62.447	19.422	1344.347	1030.210
63.461	19.335	1343.528	1028.971
64.476	19.385	1342.418	1028.326
65.490	19.418	1340.747	1027.155
66.505	19.492	1339.278	1026.377
67.520	19.364	1338.223	1024.716
68.534	19.366	1337.448	1024.043
69.549	19.406	1336.330	1023.333
70.563	19.368	1334.922	1021.940
71.578	19.242	1333.524	1020.035
72.593	19.217	1332.636	1019.118
73.607	19.150	1332.420	1018.467
74.622	19.234	1331.753	1018.360
75.636	19.216	1331.077	1017.649
76.651	19.355	1330.432	1017.888
77.666	19.248	1330.192	1016.979
78.680	19.380	1330.055	1017.567
79.695	19.507	1328.688	1017.175
80.709	19.591	1328.360	1017.332
81.724	19.733	1327.859	1017.694
82.739	19.829	1326.978	1017.491
83.753	20.110	1326.237	1018.488
84.768	20.236	1325.875	1018.858
85.782	20.308	1324.567	1018.183
86.797	20.357	1323.433	1017.513
87.812	20.169	1322.548	1015.641
88.826	20.230	1320.695	1014.484
89.841	20.323	1319.244	1013.823
90.855	20.370	1318.510	1013.440
91.870	20.431	1318.106	1013.399
92.884	20.429	1317.342	1012.710
93.899	20.459	1317.216	1012.697
94.914	20.559	1316.040	1012.287
95.928	20.558	1315.137	1011.498
96.943	20.472	1313.828	1009.901
97.957	20.392	1313.147	1008.824
98.972	20.252	1312.419	1007.365
99.987	20.221	1311.604	1006.469
101.001	20.335	1310.224	1005.981
102.016	20.369	1309.509	1005.540
103.030	20.421	1308.188	1004.734
104.045	20.313	1307.874	1003.784
105.060	20.250	1306.117	1001.979
106.074	19.753	1304.670	997.915
107.089	19.645	1302.448	995.504
108.103	19.421	1301.690	993.544
109.118	19.429	1300.016	992.227
110.133	19.485	1298.516	991.318
111.147	19.427	1297.908	990.433
112.162	19.573	1296.790	990.326
113.176	19.628	1295.813	989.807
114.191	19.579	1295.113	988.908
115.206	19.683	1294.034	988.593
116.220	19.681	1292.095	987.010
117.235	19.589	1291.243	985.748
118.249	19.515	1290.299	984.515
119.264	19.450	1288.797	982.913
120.279	19.485	1287.647	982.146
121.293	19.253	1287.057	980.291
122.308	19.124	1285.616	978.372
123.322	19.130	1284.530	977.498
124.337	19.071	1283.928	976.618
125.352	19.224	1282.104	976.007
126.366	19.181	1281.061	974.885
127.381	19.051	1280.288	973.478
128.395	18.966	1279.634	972.413
129.410	19.085	1278.211	971.918
130.424	19.253	1278.163	972.743
131.439	19.414	1276.923	972.622
132.454	19.541	1275.919	972.486
133.468	19.463	1275.407	971.567
134.483	19.510	1274.739	971.238
135.497	19.513	1274.566	971.036
136.512	19.662	1272.716	970.379
137.527	19.662	1271.679	969.502
138.541	19.646	1270.330	968.299
139.556	19.728	1269.587	968.104
140.570	19.905	1268.618	968.270
141.585	20.034	1267.275	967.884
142.600	20.135	1266.325	967.637
143.614	20.253	1265.565	967.629
144.629	20.230	1264.506	966.603
145.643	20.213	1263.372	965.557
146.658	20.023	1262.027	963.387
147.673	19.839	1260.693	961.263
148.687	19.666	1259.461	959.275
149.702	19.616	1257.603	957.498
150.716	19.523	1256.148	955.792
151.731	19.637	1255.194	955.612
152.746	19.567	1254.205	954.389
153.760	19.707	1253.532	954.562
154.775	19.867	1252.236	954.373
155.789	20.033	1251.005	954.269
156.804	19.981	1250.835	953.768
157.819	20.072	1249.616	953.255
158.833	20.084	1248.932	952.714
159.848	20.297	1248.220	953.259
160.862	20.311	1247.013	952.327
161.877	19.961	1245.253	948.981
162.892	19.581	1244.066	945.910
163.906	19.619	1243.441	945.559
164.921	19.630	1242.439	944.773
165.935	19.755	1241.760	944.856
166.950	19.804	1241.133	944.564
167.964	19.866	1240.107	944.040
168.979	19.796	1239.720	943.276
169.994	19.719	1238.904	942.154
171.008	19.749	1238.284	941.761
172.023	19.924	1237.491	942.031
173.037	20.115	1237.368	942.893
174.052	20.069	1236.161	941.640
175.067	19.832	1234.883	939.296
176.081	19.612	1233.695	937.116
177.096	19.657	1232.677	936.502
178.110	19.753	1231.397	935.964
179.125	19.779	1230.470	935.322
180.140	19.960	1229.718	935.644
181.154	20.008	1228.710	935.055
182.169	20.161	1227.437	934.829
183.183	20.175	1226.609	934.191
184.198	20.239	1225.430	933.551
185.213	20.135	1224.794	932.428
186.227	20.381	1223.399	932.603
187.242	20.318	1223.031	931.904
188.256	20.541	1221.850	932.117
189.271	20.480	1220.918	930.996
190.286	20.211	1219.621	928.484
191.300	19.816	1218.375	925.341
192.315	19.640	1217.580	923.715
193.329	19.601	1217.512	923.372
194.344	19.813	1216.258	923.472
195.359	19.758	1215.797	922.748
196.373	19.866	1215.616	923.101
197.388	20.124	1214.996	923.928
198.402	20.390	1215.208	925.423
199.417	20.432	1214.806	925.259
200.432	20.686	1213.849	925.799
201.446	20.776	1213.313	925.787
202.461	20.833	1212.660	925.512
203.475	20.793	1211.908	924.640
204.490	20.491	1210.376	921.791
205.504	20.352	1208.534	919.571
206.519	20.228	1207.332	917.917
207.534	20.209	1205.959	916.691
208.548	20.186	1205.785	916.359
209.563	20.250	1204.848	915.901
210.577	20.091	1204.328	914.585
211.592	20.271	1203.077	914.505
212.607	20.485	1202.506	915.118
213.621	20.545	1201.850	914.854
214.636	20.500	1200.855	913.777
215.650	20.428	1199.634	912.387
216.665	20.638	1199.178	913.063
217.680	20.809	1198.541	913.393
218.694	20.853	1197.614	912.839
219.709	20.724	1196.855	911.504
220.723	20.680	1196.311	910.779
221.738	20.586	1195.447	909.548
222.753	20.556	1194.468	908.564
223.767	20.598	1193.693	908.116
224.782	20.895	1193.177	909.191
225.796	20.809	1193.055	908.570
226.811	20.938	1191.884	908.270
227.826	20.692	1191.042	906.269
228.840	20.490	1190.884	905.016
229.855	20.489	1189.740	904.062
230.869	20.599	1188.756	903.803
231.884	20.528	1187.324	902.267
232.899	20.343	1186.572	900.654
233.913	20.167	1186.515	899.620
234.928	20.229	1185.244	898.899
235.942	20.151	1184.738	898.029
236.957	20.192	1183.359	897.116
237.972	20.131	1182.992	896.443
238.986	20.276	1182.376	896.648
240.001	20.190	1181.847	895.723
241.015	20.228	1180.799	895.047
242.030	20.397	1180.107	895.315
243.045	20.481	1179.871	895.490
244.059	20.587	1178.705	895.068
245.074	20.597	1178.032	894.531
246.088	20.654	1177.613	894.427
247.103	20.834	1176.999	894.805
248.117	21.004	1176.078	894.900
249.132	21.068	1175.914	895.021
250.147	21.391	1175.322	896.148
251.161	21.418	1175.195	896.111
252.176	21.558	1174.075	895.894
253.190	21.634	1173.607	895.850
254.205	21.591	1173.471	895.443
255.220	21.757	1172.587	895.537
256.234	21.657	1171.911	894.432
257.249	21.596	1171.185	893.489
258.263	21.561	1170.075	892.383
259.278	21.666	1169.688	892.546
260.293	21.544	1169.609	891.785
261.307	21.790	1168.869	892.392
262.322	21.824	1167.850	891.710
263.336	21.793	1167.634	891.306
264.351	21.840	1167.126	891.079
265.366	21.839	1166.218	890.305
266.380	21.695	1165.533	888.970
267.395	21.703	1164.611	888.231
268.409	21.609	1163.476	886.809
269.424	21.459	1162.899	885.533
270.439	21.475	1162.440	885.185
271.453	21.482	1161.612	884.512
272.468	21.327	1160.393	882.722
273.482	21.168	1159.761	881.362
274.497	21.115	1159.310	880.672
275.512	21.280	1158.428	880.754
276.526	21.324	1157.502	880.195
277.541	21.331	1157.044	879.804
278.555	21.350	1156.445	879.367
279.570	21.513	1156.006	879.774
280.585	21.792	1155.596	880.787
281.599	21.719	1154.025	879.147
282.614	21.542	1153.098	877.475
283.628	21.453	1151.558	875.780
284.643	21.423	1150.976	875.106
285.657	21.451	1150.081	874.489
286.672	21.523	1148.924	873.896
287.687	21.492	1148.116	873.048
288.701	21.394	1147.740	872.197
289.716	21.439	1146.874	871.682
290.730	21.459	1146.250	871.230
291.745	21.564	1145.578	871.165
292.760	21.556	1145.137	870.714
293.774	21.681	1144.405	870.701
294.789	21.692	1144.514	870.763
295.803	21.722	1143.671	870.191
296.818	21.550	1142.393	868.289
297.833	21.390	1141.861	867.017
298.847	21.497	1140.777	866.648
299.862	21.558	1139.949	866.242
300.876	21.609	1139.328	865.946
301.891	21.749	1138.863	866.209
302.906	21.867	1138.553	866.481
303.920	22.012	1137.749	866.507
304.935	22.095	1137.319	866.510
305.949	22.176	1136.918	866.526
306.964	22.164	1136.164	865.819
307.979	21.931	1135.671	864.219
308.993	21.796	1134.649	862.702
310.008	21.991	1133.568	862.760
311.022	22.113	1132.856	862.742
312.037	22.024	1132.032	861.599
313.052	21.932	1130.734	860.084
314.066	21.761	1129.382	858.142
315.081	21.544	1128.450	856.297
316.095	21.512	1127.498	855.342
317.110	21.391	1127.569	854.728
318.125	21.572	1126.460	854.697
319.139	21.588	1125.449	853.934
320.154	21.578	1124.960	853.436
321.168	21.475	1124.193	852.276
322.183	21.461	1123.836	851.864
323.197	21.533	1123.768	852.086
324.212	21.619	1123.012	851.857
325.227	21.687	1122.533	851.750
326.241	21.759	1121.477	851.221
327.256	21.657	1120.911	850.225
328.270	21.567	1119.926	848.963
329.285	21.521	1119.166	848.091
330.300	21.664	1117.805	847.676
331.314	21.462	1117.286	846.231
332.329	21.551	1116.118	845.701
333.343	21.665	1115.063	845.377
334.358	21.812	1114.740	845.763
335.373	21.941	1114.028	845.771
336.387	21.807	1113.800	844.876
337.402	21.944	1113.001	844.856
338.416	22.024	1112.618	844.879
339.431	22.165	1111.718	844.798
340.446	22.335	1111.502	845.373
341.460	22.392	1110.916	845.127
342.475	22.527	1110.016	845.014
343.489	22.489	1109.438	844.318
344.504	22.628	1108.307	844.049
345.519	22.708	1107.593	843.812
346.533	22.726	1106.543	843.023
347.548	22.846	1105.757	842.925
348.562	22.751	1105.346	842.082
349.577	22.500	1103.944	839.742
350.592	22.155	1103.030	837.332
351.606	21.968	1102.362	835.857
352.621	21.949	1101.239	834.841
353.635	21.921	1100.795	834.299
354.650	21.978	1100.067	833.948
355.665	22.118	1099.138	833.831
356.679	22.188	1098.854	833.875
357.694	22.161	1098.499	833.405
358.708	22.244	1097.811	833.199
359.723	22.229	1097.341	832.699
360.738	22.248	1096.584	832.143
361.752	22.347	1096.163	832.215
362.767	22.388	1095.440	831.785
363.781	22.363	1094.588	830.948
364.796	22.421	1094.844	831.341
365.810	22.648	1093.907	831.631
366.825	22.994	1093.124	832.590
367.840	23.017	1092.957	832.496
368.854	23.094	1092.682	832.576
369.869	23.132	1091.719	831.949
370.883	23.032	1090.395	830.397
371.898	22.673	1090.080	828.399
372.913	22.741	1089.123	827.916
373.927	22.803	1089.217	828.202
374.942	22.979	1088.030	828.055
375.956	22.927	1087.945	827.673
376.971	22.835	1086.958	826.417
377.986	22.872	1086.412	826.102
379.000	23.071	1086.367	826.926
380.015	23.193	1085.719	826.928
381.029	23.309	1085.069	826.904
382.044	23.090	1084.539	825.403
383.059	23.126	1083.513	824.719
384.073	23.065	1082.823	823.836
385.088	23.113	1081.939	823.314
386.102	23.037	1080.961	822.142
387.117	22.756	1080.075	820.091
388.132	22.614	1078.652	818.276
389.146	22.683	1077.825	817.897
390.161	22.580	1077.068	816.772
391.175	22.629	1076.319	816.359
392.190	22.781	1076.350	817.018
393.205	22.914	1075.785	817.128
394.219	22.921	1074.602	816.193
395.234	22.817	1073.300	814.650
396.248	22.658	1072.559	813.283
397.263	22.594	1071.877	812.397
398.278	22.627	1070.428	811.381
399.292	22.605	1069.683	810.644
400.307	22.495	1068.860	809.440
401.321	22.456	1068.195	808.688
402.336	22.415	1067.507	807.906
403.350	22.454	1066.758	807.446
404.365	22.645	1066.189	807.822
405.380	22.638	1065.895	807.493
406.394	22.767	1064.934	807.287
407.409	22.910	1064.876	807.821
408.423	23.176	1064.277	808.514
409.438	23.194	1063.494	807.929
410.453	23.282	1062.845	807.766
411.467	23.347	1062.217	807.513
412.482	23.401	1061.437	807.094
413.496	23.443	1061.129	806.980
414.511	23.707	1060.298	807.479
415.526	23.635	1060.097	806.928
416.540	23.711	1059.588	806.811
417.555	23.753	1059.019	806.499
418.569	23.607	1058.445	805.325
419.584	23.555	1058.045	804.714
420.599	23.472	1057.482	803.839
421.613	157.933	1404.899	1799.366
422.628	145.121	1455.482	1799.409
