DTS Sentinel unit serial number:	SN413079Multiplexer serial number:	ORYXHardware model number:	OX4-SRSoftware version number:	ORYX F/W v4.00 Oryx Data Collector v3.7.2.0data status	okinstallation	princeton_trtdifferential loss correction	single-endedforward channel	channel 2reverse channel	N/Adate	2019/09/17time	07:39:35forward acquisition time	60.00reverse acquisition time	0.00gamma	496.2192k internal	0.2335k external	0.2335temperature offset calibration	0.9973default loss term (dB/km)	0.3790temperature slope calibration	1.0000multiplexer offset coefficient	1.0000multiplexer slope coefficient	1.0000fibre end	0.00T internal ref (°C)	27.19T ext. ref 1 (°C)	0.12T ext. ref 2 (°C)	21.91length (m)	temperature (°C)	Stokes	anti-Stokes-747.200	542.535	-0.063	0.152
-746.185	797.506	0.071	0.197
-745.171	33.391	0.168	0.146
-744.156	-96.102	-0.257	0.069
-743.142	127.040	-0.093	0.118
-742.127	166.175	-0.191	0.272
-741.112	160.107	-0.174	0.244
-740.098	229.774	-0.161	0.264
-739.083	800.000	-0.087	-0.269
-738.069	800.000	0.067	0.281
-737.054	-53.090	-0.155	-0.071
-736.039	76.699	-0.110	0.118
-735.025	-200.000	0.018	0.078
-734.010	-10.044	-0.060	0.040
-732.996	747.625	-0.069	0.186
-731.981	206.503	-0.110	0.172
-730.966	-200.000	0.013	-0.170
-729.952	-122.853	0.219	0.036
-728.937	-200.000	-0.022	-0.162
-727.923	-83.067	0.058	-0.019
-726.908	288.823	-0.063	0.114
-725.894	-200.000	0.005	0.167
-724.879	-79.413	-0.115	0.039
-723.864	194.356	0.085	-0.129
-722.850	18.617	-0.355	-0.285
-721.835	-94.677	-0.270	-0.074
-720.821	674.117	-0.131	-0.342
-719.806	-200.000	0.029	-0.165
-718.791	45.909	-0.048	0.044
-717.777	97.343	0.138	-0.159
-716.762	85.602	-0.224	0.247
-715.748	800.000	-0.047	-0.171
-714.733	-84.979	-0.427	-0.134
-713.718	-200.000	-0.031	-0.365
-712.704	-139.509	-0.032	-0.003
-711.689	111.070	-0.032	-0.039
-710.675	800.000	0.009	-0.029
-709.660	-200.000	0.007	-0.149
-708.645	143.598	0.148	0.198
-707.631	181.858	-0.146	-0.215
-706.616	800.000	0.079	-0.288
-705.602	-200.000	0.019	-0.322
-704.587	191.061	-0.109	-0.165
-703.572	252.203	0.191	0.327
-702.558	-200.000	-0.006	-0.029
-701.543	460.329	0.081	-0.180
-700.529	-200.000	0.005	0.258
-699.514	-33.893	0.168	-0.093
-698.499	186.087	-0.160	0.239
-697.485	800.000	-0.066	-0.250
-696.470	-167.546	-0.110	0.004
-695.456	9.282	0.084	-0.064
-694.441	-109.171	-0.236	0.050
-693.426	-113.602	0.036	0.007
-692.412	232.789	0.089	-0.147
-691.397	-69.817	0.211	0.081
-690.383	262.441	0.093	0.162
-689.368	-200.000	0.007	-0.415
-688.354	574.448	0.036	0.087
-687.339	-148.005	0.227	0.019
-686.324	-200.000	-0.080	-0.427
-685.310	-11.600	-0.277	-0.183
-684.295	-200.000	0.038	0.240
-683.281	70.154	-0.125	-0.130
-682.266	800.000	0.013	-0.051
-681.251	730.318	-0.080	-0.215
-680.237	31.668	-0.230	-0.198
-679.222	-94.189	-0.311	0.085
-678.208	-182.798	-0.396	-0.007
-677.193	454.484	-0.035	-0.077
-676.178	-200.000	-0.187	0.000
-675.164	-93.355	-0.275	0.076
-674.149	-138.880	0.126	-0.014
-673.135	-96.725	-0.179	0.047
-672.120	92.764	-0.095	0.108
-671.105	-117.952	0.341	0.061
-670.091	-200.000	-0.002	-0.023
-669.076	325.796	-0.174	-0.333
-668.062	-200.000	0.021	-0.142
-667.047	239.761	-0.162	0.271
-666.032	-74.958	0.079	0.028
-665.018	-200.000	0.055	0.241
-664.003	58.268	0.082	-0.080
-662.989	255.054	0.075	-0.128
-661.974	45.957	0.165	0.153
-660.959	-20.960	-0.180	-0.111
-659.945	800.000	-0.058	-0.240
-658.930	-50.262	-0.008	0.004
-657.916	-50.955	-0.371	0.175
-656.901	-46.148	-0.076	-0.037
-655.886	-84.192	0.183	0.058
-654.872	257.484	-0.149	-0.257
-653.857	-7.223	-0.147	0.100
-652.843	320.360	0.112	-0.213
-651.828	-138.320	0.080	0.009
-650.814	44.626	0.096	-0.088
-649.799	112.446	-0.146	-0.177
-648.784	402.982	0.149	0.313
-647.770	-200.000	-0.009	0.219
-646.755	-175.361	-0.164	-0.005
-645.741	-200.000	-0.002	-0.147
-644.726	147.207	-0.093	-0.126
-643.711	501.185	0.260	-0.600
-642.697	257.150	0.187	-0.322
-641.682	-131.401	-0.102	-0.014
-640.668	186.741	-0.166	0.247
-639.653	-78.751	0.339	-0.116
-638.638	34.644	-0.160	-0.140
-637.624	356.075	0.121	-0.241
-636.609	127.361	0.145	0.184
-635.595	-47.623	-0.206	0.100
-634.580	-200.000	-0.007	-0.245
-633.565	-200.000	-0.016	-0.093
-632.551	-200.000	-0.029	0.371
-631.536	-156.968	0.383	-0.023
-630.522	-200.000	0.010	0.142
-629.507	-34.049	-0.305	0.168
-628.492	-134.303	0.284	0.035
-627.478	90.896	0.081	0.091
-626.463	-168.067	0.097	0.004
-625.449	-135.461	-0.089	0.011
-624.434	758.076	0.147	-0.397
-623.419	46.829	-0.176	0.163
-622.405	-200.000	-0.036	-0.307
-621.390	210.899	-0.162	-0.255
-620.376	9.523	-0.171	-0.129
-619.361	-33.608	-0.240	-0.132
-618.346	10.741	-0.130	-0.099
-617.332	182.329	-0.041	0.060
-616.317	800.000	-0.086	0.243
-615.303	-102.771	0.103	-0.025
-614.288	420.034	-0.135	0.288
-613.273	-200.000	0.015	-0.197
-612.259	-71.699	0.430	-0.160
-611.244	-14.510	-0.043	-0.028
-610.230	94.218	0.027	0.031
-609.215	154.611	-0.067	-0.092
-608.201	-30.827	-0.193	-0.109
-607.186	800.000	0.041	0.125
-606.171	65.307	-0.065	0.066
-605.157	800.000	0.040	-0.147
-604.142	-200.000	0.000	-0.066
-603.128	-200.000	0.101	-0.452
-602.113	117.172	-0.095	-0.117
-601.098	187.895	-0.089	-0.133
-600.084	800.000	0.160	-0.593
-599.069	-131.362	-0.212	0.028
-598.055	342.595	0.084	0.164
-597.040	64.761	0.075	-0.076
-596.025	107.873	0.057	-0.067
-595.011	-156.055	-0.245	-0.015
-593.996	-56.808	0.037	-0.016
-592.982	-72.782	0.127	-0.047
-591.967	100.180	-0.211	0.245
-590.952	18.694	-0.183	-0.147
-589.938	-148.932	0.066	0.005
-588.923	-94.387	0.208	0.057
-587.909	343.028	-0.085	-0.166
-586.894	5.864	-0.084	-0.062
-585.879	146.323	-0.202	-0.270
-584.865	-67.579	0.242	-0.095
-583.850	25.296	-0.152	-0.126
-582.836	-200.000	0.031	-0.369
-581.821	758.254	-0.116	-0.313
-580.806	223.872	0.234	-0.377
-579.792	-67.522	0.116	-0.046
-578.777	720.571	-0.075	-0.200
-577.763	-159.194	-0.168	0.009
-576.748	-25.866	-0.185	0.109
-575.733	295.992	-0.089	0.164
-574.719	-72.412	-0.092	0.034
-573.704	-200.000	-0.004	-0.038
-572.690	-200.000	0.005	-0.023
-571.675	-200.000	0.064	-0.372
-570.661	-200.000	0.090	-0.502
-569.646	-128.722	-0.201	0.028
-568.631	138.221	0.313	0.409
-567.617	61.110	-0.101	0.100
-566.602	96.553	-0.161	-0.184
-565.588	-111.502	0.210	0.043
-564.573	220.057	-0.129	0.207
-563.558	-66.993	0.266	0.105
-562.544	-73.086	0.122	-0.045
-561.529	-110.380	0.143	0.030
-560.515	-15.575	-0.095	0.061
-559.500	-200.000	-0.015	-0.125
-558.485	-63.036	-0.103	0.042
-557.471	-200.000	0.007	-0.159
-556.456	-200.000	-0.061	-0.291
-555.442	-133.935	-0.084	-0.010
-554.427	-169.942	-0.359	-0.013
-553.412	201.482	0.171	-0.263
-552.398	-200.000	-0.001	-0.066
-551.383	-200.000	-0.068	0.324
-550.369	-200.000	0.006	-0.298
-549.354	-200.000	-0.042	-0.262
-548.339	-83.543	-0.199	-0.064
-547.325	205.476	-0.065	-0.101
-546.310	-200.000	0.002	-0.362
-545.296	-56.679	0.097	0.043
-544.281	-198.374	-0.188	-0.001
-543.266	167.960	0.031	-0.044
-542.252	62.112	0.225	-0.224
-541.237	-146.786	-0.106	0.009
-540.223	33.564	0.164	-0.142
-539.208	800.000	-0.068	0.225
-538.193	278.487	-0.156	-0.278
-537.179	-200.000	0.017	-0.138
-536.164	90.111	-0.141	0.157
-535.150	20.881	0.205	0.166
-534.135	-6.834	0.178	0.120
-533.121	10.851	0.109	-0.083
-532.106	272.066	0.196	-0.345
-531.091	164.939	-0.081	0.113
-530.077	365.165	0.039	-0.078
-529.062	-87.063	-0.098	-0.030
-528.048	800.000	0.080	0.295
-527.033	-10.956	0.062	0.041
-526.018	82.699	0.189	-0.205
-525.004	306.397	0.158	0.292
-523.989	127.085	0.123	-0.155
-522.975	117.754	-0.122	-0.150
-521.960	724.116	-0.029	-0.076
-520.945	305.848	0.140	0.259
-519.931	-44.659	-0.033	-0.017
-518.916	-63.875	0.324	0.132
-517.902	-114.623	-0.153	0.029
-516.887	134.149	-0.179	-0.230
-515.872	163.105	0.099	-0.138
-514.858	63.218	0.096	0.096
-513.843	-200.000	0.028	0.300
-512.829	8.472	-0.123	-0.092
-511.814	299.181	-0.129	0.237
-510.799	7.939	-0.098	0.073
-509.785	112.646	0.266	-0.321
-508.770	800.000	-0.138	0.465
-507.756	78.560	-0.091	0.097
-506.741	-200.000	0.022	0.114
-505.726	41.347	-0.091	0.082
-504.712	-200.000	-0.014	-0.241
-503.697	-200.000	0.017	0.274
-502.683	47.734	-0.124	0.115
-501.668	-104.113	-0.196	-0.045
-500.653	36.353	-0.085	0.075
-499.639	-200.000	-0.015	0.270
-498.624	-200.000	0.022	0.129
-497.610	128.306	-0.059	-0.075
-496.595	-92.754	0.127	-0.035
-495.581	-53.465	-0.356	0.162
-494.566	-163.909	-0.215	-0.010
-493.551	-41.283	-0.068	0.035
-492.537	-25.241	-0.137	-0.080
-491.522	428.697	0.050	-0.108
-490.508	1.105	-0.101	0.072
-489.493	-200.000	-0.002	0.391
-488.478	64.987	-0.079	-0.080
-487.464	-4.263	0.085	-0.058
-486.449	134.301	-0.069	0.088
-485.435	-26.709	-0.079	0.046
-484.420	92.365	-0.228	-0.256
-483.405	-110.327	-0.293	-0.061
-482.391	800.000	-0.162	0.454
-481.376	338.609	0.183	0.353
-480.362	-0.764	0.175	-0.123
-479.347	800.000	-0.159	-0.465
-478.332	119.499	0.302	-0.372
-477.318	-25.443	0.054	-0.032
-476.303	577.431	0.024	-0.058
-475.289	-143.408	0.159	0.015
-474.274	27.643	-0.098	-0.082
-473.259	800.000	0.029	0.090
-472.245	365.645	-0.086	0.173
-471.230	221.294	0.080	0.127
-470.216	-111.341	0.429	-0.087
-469.201	-85.613	-0.089	-0.027
-468.186	38.278	0.118	0.104
-467.172	478.916	-0.028	0.063
-466.157	341.223	-0.067	-0.131
-465.143	100.308	0.177	0.204
-464.128	-100.150	0.348	0.086
-463.113	-91.696	0.201	0.057
-462.099	-130.578	0.125	0.017
-461.084	-72.619	-0.295	-0.108
-460.070	-88.997	-0.296	-0.087
-459.055	-200.000	0.003	0.295
-458.040	-55.884	-0.194	-0.086
-457.026	-200.000	-0.008	0.242
-456.011	219.980	0.112	0.177
-454.997	784.550	-0.040	-0.109
-453.982	-200.000	-0.015	-0.084
-452.968	99.293	0.166	0.191
-451.953	323.973	0.107	0.203
-450.938	145.386	-0.082	-0.109
-449.924	303.776	-0.122	-0.224
-448.909	-27.532	-0.313	-0.180
-447.895	-141.087	0.443	-0.045
-446.880	-132.958	0.197	0.025
-445.865	70.809	0.203	-0.208
-444.851	168.756	-0.248	0.352
-443.836	-83.735	0.296	-0.094
-442.822	4.525	0.139	-0.101
-441.807	-34.224	-0.205	-0.112
-440.792	140.389	0.146	0.191
-439.778	-80.871	-0.097	-0.032
-438.763	-45.760	-0.206	0.101
-437.749	133.539	0.075	-0.096
-436.734	71.177	-0.302	-0.310
-435.719	199.490	0.044	0.067
-434.705	576.493	-0.022	0.053
-433.690	-200.000	0.003	-0.201
-432.676	430.603	-0.051	-0.109
-431.661	198.464	-0.171	0.260
-430.646	201.510	0.111	-0.169
-429.632	222.252	-0.122	0.195
-428.617	-58.725	0.326	0.140
-427.603	208.136	-0.076	-0.118
-426.588	509.435	0.090	0.208
-425.573	-174.293	-0.074	-0.002
-424.559	114.035	0.198	0.239
-423.544	-18.989	-0.058	0.036
-422.530	-102.345	0.305	0.073
-421.515	269.135	0.143	-0.250
-420.500	-55.199	0.063	-0.028
-419.486	-200.000	0.064	-0.404
-418.471	199.129	0.073	-0.111
-417.457	-55.929	0.190	0.084
-416.442	-200.000	-0.025	-0.262
-415.428	-2.769	-0.368	-0.255
-414.413	-147.552	-0.156	0.013
-413.398	274.634	0.237	0.416
-412.384	63.098	-0.353	0.351
-411.369	-17.051	-0.170	0.106
-410.355	273.600	0.155	-0.271
-409.340	800.000	0.033	0.137
-408.325	-53.531	0.088	0.040
-407.311	-137.956	0.393	-0.044
-406.296	-17.613	0.112	0.070
-405.282	-24.394	0.249	0.147
-404.267	800.000	0.029	-0.100
-403.252	126.631	-0.128	0.160
-402.238	-200.000	-0.033	0.176
-401.223	-117.950	0.388	-0.069
-400.209	230.792	0.021	-0.034
-399.194	119.086	-0.234	-0.287
-398.179	247.332	0.081	0.136
-397.165	50.747	-0.095	0.089
-396.150	579.270	0.088	-0.214
-395.136	316.292	0.157	-0.294
-394.121	-45.033	-0.229	0.113
-393.106	352.165	-0.079	-0.156
-392.092	-200.000	0.050	0.227
-391.077	-200.000	0.030	-0.419
-390.063	-200.000	0.042	-0.403
-389.048	-200.000	0.057	-0.268
-388.033	-200.000	-0.034	0.285
-387.019	276.872	0.069	0.121
-386.004	-66.302	-0.531	-0.209
-384.990	124.157	-0.275	-0.343
-383.975	800.000	-0.065	0.188
-382.960	-200.000	-0.074	-0.387
-381.946	-80.492	-0.323	-0.107
-380.931	-67.825	-0.132	-0.051
-379.917	-56.048	-0.096	0.043
-378.902	-200.000	-0.030	0.382
-377.888	-0.534	0.017	0.012
-376.873	-171.221	0.074	0.002
-375.858	-114.945	-0.049	0.009
-374.844	87.016	0.077	0.084
-373.829	-200.000	0.057	0.274
-372.815	-200.000	0.014	-0.146
-371.800	-179.145	0.179	0.004
-370.785	-200.000	0.097	0.503
-369.771	800.000	0.059	0.223
-368.756	800.000	-0.099	-0.330
-367.742	-8.327	-0.047	-0.031
-366.727	800.000	0.069	0.221
-365.712	800.000	0.090	-0.264
-364.698	0.972	-0.096	-0.068
-363.683	303.555	0.197	-0.362
-362.669	800.000	-0.018	-0.069
-361.654	158.805	-0.197	0.271
-360.639	232.551	-0.110	-0.179
-359.625	-200.000	-0.075	0.357
-358.610	-69.278	-0.243	-0.092
-357.596	-200.000	-0.000	0.113
-356.581	-35.970	0.207	0.111
-355.566	-82.647	0.363	-0.116
-354.552	800.000	0.106	-0.302
-353.537	-170.265	0.226	-0.008
-352.523	-43.984	-0.195	-0.097
-351.508	102.329	0.095	0.110
-350.493	-105.652	0.077	0.017
-349.479	800.000	0.125	0.363
-348.464	-109.553	-0.102	0.021
-347.450	-107.674	0.136	0.029
-346.435	-200.000	0.013	0.181
-345.420	562.575	0.061	0.146
-344.406	-200.000	0.027	-0.253
-343.391	-200.000	0.014	0.077
-342.377	156.463	-0.221	-0.302
-341.362	155.111	-0.129	-0.176
-340.348	622.945	0.034	-0.084
-339.333	-115.770	0.015	0.003
-338.318	-200.000	-0.010	-0.246
-337.304	585.549	-0.118	0.286
-336.289	13.087	0.052	-0.040
-335.275	40.836	0.186	0.166
-334.260	-27.851	0.113	0.065
-333.245	-122.890	0.233	0.037
-332.231	-40.834	-0.100	-0.051
-331.216	336.403	0.043	-0.082
-330.202	-200.000	-0.027	0.291
-329.187	158.883	-0.235	-0.323
-328.172	-128.433	-0.119	0.017
-327.158	598.669	-0.118	0.290
-326.143	66.950	-0.165	-0.167
-325.129	98.849	-0.094	0.107
-324.114	156.572	0.063	0.086
-323.099	154.092	-0.053	0.071
-322.085	-80.143	-0.299	-0.099
-321.070	122.761	-0.117	0.145
-320.056	258.533	-0.073	0.124
-319.041	800.000	0.082	-0.248
-318.026	69.495	-0.115	-0.117
-317.012	26.669	0.268	0.222
-315.997	192.891	0.069	0.102
-314.983	279.257	-0.052	0.092
-313.968	800.000	0.044	0.141
-312.953	-66.572	0.232	0.091
-311.939	-200.000	0.045	0.342
-310.924	-200.000	0.032	-0.202
-309.910	-85.386	0.199	0.061
-308.895	800.000	0.071	0.305
-307.880	-200.000	-0.044	-0.217
-306.866	-158.588	0.278	0.016
-305.851	-63.659	-0.095	-0.038
-304.837	-10.161	0.056	0.037
-303.822	-112.115	0.041	0.008
-302.807	-200.000	0.020	-0.342
-301.793	99.147	-0.177	-0.202
-300.778	-36.884	0.183	-0.097
-299.764	411.109	0.106	0.221
-298.749	-107.700	-0.156	-0.034
-297.735	-130.190	0.229	0.031
-296.720	800.000	0.086	0.326
-295.705	71.362	-0.227	-0.233
-294.691	-200.000	0.014	0.095
-293.676	-200.000	0.076	0.373
-292.662	-115.944	0.123	-0.023
-291.647	-100.661	-0.164	0.040
-290.632	-200.000	-0.008	-0.159
-289.618	-200.000	0.031	0.208
-288.603	800.000	0.033	-0.093
-287.589	92.896	0.188	-0.210
-286.574	-162.571	0.121	0.006
-285.559	126.168	-0.142	-0.177
-284.545	83.439	-0.074	-0.080
-283.530	-200.000	-0.000	0.104
-282.516	479.716	-0.028	0.062
-281.501	88.625	-0.168	0.184
-280.486	67.344	-0.251	0.252
-279.472	-82.788	0.202	-0.064
-278.457	800.000	0.093	0.319
-277.443	-96.776	0.304	0.079
-276.428	-200.000	0.023	0.289
-275.413	2.543	-0.219	-0.157
-274.399	-57.402	-0.255	-0.110
-273.384	-15.083	-0.203	0.128
-272.370	-116.946	-0.235	-0.042
-271.355	50.050	-0.178	0.166
-270.340	100.405	-0.190	-0.218
-269.326	117.526	0.119	0.144
-268.311	-77.557	0.442	-0.151
-267.297	800.000	0.027	0.095
-266.282	-141.415	0.129	0.013
-265.267	-92.960	0.081	-0.022
-264.253	800.000	-0.060	0.171
-263.238	-65.661	-0.303	0.120
-262.224	-200.000	-0.048	0.521
-261.209	-200.000	-0.021	0.120
-260.195	800.000	0.074	-0.204
-259.180	119.235	-0.235	0.286
-258.165	274.874	0.123	0.215
-257.151	-200.000	0.011	-0.174
-256.136	110.368	-0.157	-0.186
-255.122	800.000	0.026	-0.094
-254.107	-200.000	-0.036	0.481
-253.092	118.591	0.153	0.186
-252.078	800.000	-0.094	0.373
-251.063	-200.000	0.037	0.371
-250.049	800.000	-0.117	0.398
-249.034	73.318	0.233	0.240
-248.019	165.746	0.097	0.135
-247.005	-200.000	0.028	0.127
-245.990	-76.973	-0.196	0.067
-244.976	-132.083	0.306	0.039
-243.961	-101.171	0.257	0.062
-242.946	-200.000	0.061	0.281
-241.932	12.189	-0.219	-0.166
-240.917	111.962	-0.084	0.100
-239.903	96.520	-0.066	0.075
-238.888	8.215	0.082	0.061
-237.873	466.713	-0.053	0.118
-236.859	202.882	0.124	0.189
-235.844	800.000	-0.071	0.277
-234.830	-22.077	0.101	-0.061
-233.815	-200.000	-0.029	0.157
-232.800	-76.137	-0.250	-0.087
-231.786	-200.000	0.017	-0.176
-230.771	-51.556	0.083	-0.038
-229.757	58.885	0.088	-0.085
-228.742	395.264	-0.082	-0.168
-227.727	-102.974	0.202	-0.047
-226.713	-84.215	0.357	-0.111
-225.698	-150.868	0.123	0.009
-224.684	-7.711	0.159	-0.106
-223.669	-144.051	-0.344	-0.032
-222.655	-33.261	0.107	0.059
-221.640	37.642	0.058	-0.050
-220.625	156.805	-0.173	0.235
-219.611	-200.000	-0.066	-0.376
-218.596	-200.000	0.034	-0.184
-217.582	-53.455	-0.129	0.058
-216.567	116.863	-0.129	0.156
-215.552	-52.001	-0.125	-0.057
-214.538	-134.009	-0.265	0.032
-213.523	800.000	0.105	0.314
-212.509	-200.000	0.040	-0.201
-211.494	-149.679	-0.379	-0.029
-210.479	383.782	0.095	-0.193
-209.465	463.581	-0.155	-0.341
-208.450	-200.000	0.005	-0.386
-207.436	-200.000	-0.049	-0.225
-206.421	-200.000	0.016	-0.109
-205.406	6.864	-0.292	0.214
-204.392	72.630	0.219	0.224
-203.377	-110.872	0.266	0.054
-202.363	341.361	0.113	0.217
-201.348	-54.945	-0.040	-0.018
-200.333	442.688	-0.087	0.188
-199.319	37.255	0.276	-0.241
-198.304	-200.000	-0.017	-0.083
-197.290	-200.000	-0.038	-0.282
-196.275	390.669	-0.013	0.028
-195.260	-73.678	0.047	-0.017
-194.246	-99.367	-0.267	-0.066
-193.231	-91.138	-0.024	0.007
-192.217	-126.267	0.012	0.002
-191.202	112.180	0.284	0.337
-190.187	176.262	0.076	-0.109
-189.173	-200.000	0.058	-0.324
-188.158	-175.981	0.231	0.006
-187.144	-56.351	-0.293	-0.128
-186.129	204.826	-0.119	0.182
-185.114	-200.000	0.050	0.333
-184.100	-191.504	-0.156	-0.002
-183.085	150.861	-0.053	-0.070
-182.071	-58.906	0.078	0.033
-181.056	66.333	0.048	0.048
-180.042	121.603	-0.276	0.338
-179.027	-200.000	-0.025	0.137
-178.012	-99.811	0.194	-0.048
-176.998	-125.635	-0.180	-0.027
-175.983	-167.969	0.190	-0.007
-174.969	444.067	-0.182	0.392
-173.954	141.007	0.119	-0.155
-172.939	800.000	0.045	-0.131
-171.925	-200.000	0.014	0.133
-170.910	77.842	-0.059	-0.061
-169.896	-45.511	-0.101	-0.049
-168.881	-40.287	0.319	-0.163
-167.866	84.728	-0.227	0.244
-166.852	0.556	0.252	-0.177
-165.837	12.240	-0.016	-0.012
-164.823	75.023	-0.071	-0.073
-163.808	238.310	-0.244	0.399
-162.793	43.412	-0.095	0.086
-161.779	-134.533	0.051	-0.006
-160.764	-161.133	0.273	-0.014
-159.750	-200.000	-0.006	0.186
-158.735	-200.000	0.024	-0.283
-157.720	-200.000	-0.018	0.099
-156.706	-52.511	0.172	-0.078
-155.691	-37.850	0.172	0.090
-154.677	42.492	0.207	-0.185
-153.662	-200.000	0.023	0.215
-152.647	-136.335	-0.020	0.002
-151.633	92.839	-0.090	0.099
-150.618	194.377	-0.078	-0.116
-149.604	-67.760	-0.100	-0.038
-148.589	800.000	-0.094	0.274
-147.574	-155.181	-0.249	-0.016
-146.560	-2.042	0.170	0.117
-145.545	-173.584	-0.304	-0.009
-144.531	-55.137	-0.144	-0.063
-143.516	128.591	-0.103	-0.128
-142.502	248.611	0.133	0.222
-141.487	356.142	-0.150	-0.294
-140.472	-200.000	0.017	0.453
-139.458	-200.000	0.033	0.166
-138.443	85.258	-0.193	-0.208
-137.429	13.142	0.052	-0.040
-136.414	-145.066	0.365	0.033
-135.399	366.060	0.056	0.111
-134.385	800.000	-0.037	0.113
-133.370	800.000	-0.047	-0.132
-132.356	3.953	0.157	-0.113
-131.341	800.000	-0.071	0.229
-130.326	-200.000	0.011	0.176
-129.312	547.307	-0.061	0.144
-128.297	-200.000	-0.016	0.071
-127.283	-113.244	-0.278	-0.054
-126.268	213.854	-0.098	0.152
-125.253	19.840	0.094	0.074
-124.239	-119.952	0.172	0.029
-123.224	800.000	0.012	-0.037
-122.210	86.723	0.101	-0.109
-121.195	-101.713	-0.324	0.077
-120.180	122.876	-0.035	0.043
-119.166	-106.671	0.210	-0.046
-118.151	-108.635	0.181	0.038
-117.137	-74.814	0.165	0.058
-116.122	14.364	-0.191	0.146
-115.107	-54.167	0.376	-0.167
-114.093	800.000	0.082	-0.272
-113.078	249.482	-0.231	0.383
-112.064	-40.040	0.076	-0.039
-111.049	-200.000	-0.028	0.153
-110.034	800.000	0.099	0.316
-109.020	-200.000	0.020	-0.309
-108.005	-86.787	-0.210	0.063
-106.991	66.308	0.234	0.232
-105.976	60.769	-0.072	0.070
-104.962	381.212	0.128	0.257
-103.947	-200.000	0.007	-0.208
-102.932	-200.000	-0.009	0.131
-101.918	422.477	0.053	0.112
-100.903	-91.898	-0.102	-0.028
-99.889	-200.000	-0.003	0.145
-98.874	49.859	0.104	-0.096
-97.859	-150.524	0.265	-0.020
-96.845	6.439	0.200	0.146
-95.830	-140.593	0.179	0.018
-94.816	-91.987	-0.288	0.080
-93.801	-200.000	0.010	0.431
-92.786	48.850	0.385	0.354
-91.772	188.414	0.257	0.376
-90.757	800.000	-0.072	0.221
-89.743	-1.611	0.120	0.083
-88.728	288.891	0.093	0.165
-87.713	-12.826	0.306	0.195
-86.699	-200.000	0.025	-0.314
-85.684	54.814	0.171	0.161
-84.670	-5.930	0.175	-0.117
-83.655	-49.760	-0.124	0.058
-82.640	800.000	0.102	0.302
-81.626	-200.000	0.018	-0.085
-80.611	33.529	-0.340	0.290
-79.597	-129.363	-0.049	-0.007
-78.582	-44.913	0.284	-0.138
-77.567	22.705	-0.070	-0.056
-76.553	-91.884	0.261	-0.073
-75.538	-200.000	-0.005	0.450
-74.524	212.305	0.050	0.078
-73.509	-125.045	0.245	0.037
-72.494	725.863	-0.050	-0.129
-71.480	362.669	-0.040	0.079
-70.465	209.980	-0.212	0.326
-69.451	-200.000	-0.005	-0.116
-68.436	800.000	0.059	0.204
-67.422	559.998	-0.061	0.143
-66.407	-119.244	-0.206	-0.035
-65.392	-89.839	0.128	-0.037
-64.378	-200.000	0.085	0.374
-63.363	-200.000	-0.024	0.189
-62.349	-64.247	-0.098	0.039
-61.334	161.541	-0.910	-1.245
-60.319	83.472	0.539	0.575
-59.305	800.000	-0.281	-1.120
-58.290	263.282	0.879	1.493
-57.276	369.633	0.767	1.518
-56.261	-200.000	114.396	646.484
-55.246	473.626	1508.008	3324.650
-54.232	146.910	2680.955	3525.013
-53.217	96.837	2287.118	2562.768
-52.203	36.322	1897.220	1635.404
-51.188	30.284	1688.385	1409.631
-50.173	27.749	1646.917	1356.136
-49.159	49.642	1701.802	1567.110
-48.144	48.159	1716.249	1569.179
-47.130	29.925	1674.881	1395.427
-46.115	27.256	1660.583	1363.476
-45.100	27.146	1655.185	1358.172
-44.086	26.928	1653.374	1354.999
-43.071	26.981	1650.208	1352.746
-42.057	27.086	1647.792	1351.493
-41.042	27.081	1645.733	1349.720
-40.027	27.068	1643.730	1347.927
-39.013	27.086	1641.987	1346.575
-37.998	27.153	1639.992	1345.380
-36.984	27.077	1638.961	1343.921
-35.969	27.074	1637.656	1342.771
-34.954	27.199	1635.967	1342.263
-33.940	27.273	1633.742	1340.929
-32.925	27.179	1632.040	1338.784
-31.911	27.196	1630.879	1337.906
-30.896	27.192	1628.847	1336.156
-29.881	27.265	1627.103	1335.208
-28.867	27.194	1625.850	1333.603
-27.852	27.096	1624.600	1331.805
-26.838	27.211	1622.071	1330.519
-25.823	27.189	1621.584	1329.907
-24.809	27.161	1620.571	1328.822
-23.794	27.223	1618.809	1327.775
-22.779	27.243	1617.495	1326.793
-21.765	27.174	1615.522	1324.616
-20.750	27.089	1614.228	1322.887
-19.736	27.114	1613.353	1322.300
-18.721	27.250	1611.011	1321.318
-17.706	27.191	1610.105	1320.090
-16.692	27.242	1608.249	1318.887
-15.677	27.233	1606.858	1317.631
-14.663	27.262	1605.621	1316.769
-13.648	27.268	1604.040	1315.464
-12.633	27.203	1602.504	1313.682
-11.619	27.206	1601.090	1312.497
-10.604	27.243	1599.598	1311.486
-9.590	27.164	1598.626	1310.069
-8.575	27.225	1597.747	1309.732
-7.560	27.308	1596.059	1308.894
-6.546	27.216	1595.004	1307.320
-5.531	27.203	1594.024	1306.369
-4.517	27.245	1592.521	1305.389
-3.502	27.145	1591.852	1304.069
-2.487	27.366	1589.514	1303.685
-1.473	26.993	1578.214	1291.713
-0.458	24.190	1558.981	1256.187
0.556	18.777	1560.469	1224.208
1.571	16.389	1584.051	1225.300
2.586	15.929	1596.862	1231.736
3.600	14.737	1543.105	1181.734
4.615	8.198	1435.501	1056.064
5.629	1.498	1373.680	967.940
6.644	0.258	1365.782	954.436
7.659	0.081	1364.931	952.636
8.673	0.072	1363.426	951.449
9.688	0.059	1361.364	949.843
10.702	-0.075	1358.983	947.252
11.717	3.175	1363.473	970.824
12.731	10.902	1375.574	1028.387
13.746	16.363	1383.127	1068.579
14.761	17.058	1382.882	1072.685
15.775	16.254	1380.168	1065.417
16.790	15.200	1378.022	1057.019
17.804	14.432	1375.578	1050.215
18.819	14.187	1373.453	1046.958
19.834	13.795	1372.879	1043.962
20.848	13.537	1371.894	1041.499
21.863	13.315	1370.345	1038.834
22.877	13.244	1368.694	1037.048
23.892	13.157	1367.875	1035.789
24.907	13.084	1367.326	1034.822
25.921	13.174	1366.493	1034.666
26.936	13.102	1365.664	1033.495
27.950	13.224	1364.886	1033.574
28.965	13.270	1364.132	1033.203
29.980	13.324	1362.912	1032.526
30.994	13.428	1362.035	1032.414
32.009	13.415	1361.091	1031.526
33.023	13.489	1360.002	1031.072
34.038	13.366	1358.689	1029.220
35.053	13.308	1357.693	1028.015
36.067	13.382	1356.694	1027.629
37.082	13.239	1355.676	1025.878
38.096	13.312	1354.747	1025.534
39.111	13.306	1354.314	1025.084
40.126	13.181	1353.621	1023.692
41.140	13.189	1352.457	1022.770
42.155	13.168	1351.825	1022.069
43.169	13.138	1351.829	1021.801
44.184	13.182	1351.153	1021.468
45.199	13.201	1351.003	1021.384
46.213	13.268	1350.044	1020.980
47.228	13.327	1349.200	1020.617
48.242	13.264	1348.190	1019.373
49.257	13.257	1346.606	1018.042
50.271	13.306	1344.743	1016.846
51.286	13.255	1344.114	1015.964
52.301	13.240	1342.914	1014.877
53.315	13.085	1341.832	1013.017
54.330	13.087	1341.169	1012.443
55.344	13.217	1339.366	1011.787
56.359	13.200	1337.996	1010.559
57.374	13.207	1337.722	1010.303
58.388	13.203	1336.617	1009.356
59.403	13.154	1336.024	1008.518
60.417	13.096	1335.325	1007.550
61.432	13.042	1334.523	1006.528
62.447	13.053	1333.573	1005.788
63.461	13.050	1332.304	1004.723
64.476	13.095	1331.403	1004.226
65.490	13.145	1329.927	1003.327
66.505	13.116	1328.463	1001.961
67.520	13.159	1327.236	1001.210
68.534	13.195	1326.438	1000.734
69.549	13.153	1325.590	999.755
70.563	13.056	1324.242	998.064
71.578	13.110	1322.886	997.277
72.593	13.042	1322.153	996.225
73.607	13.063	1321.413	995.708
74.622	12.981	1320.661	994.554
75.636	12.952	1320.033	993.819
76.651	13.024	1319.135	993.490
77.666	12.943	1318.701	992.590
78.680	12.996	1318.316	992.532
79.695	13.063	1317.148	991.967
80.709	12.994	1316.252	990.788
81.724	13.040	1315.591	990.478
82.739	13.152	1314.633	990.342
83.753	13.252	1313.408	989.929
84.768	13.326	1312.292	989.442
85.782	13.298	1311.739	988.772
86.797	13.193	1310.239	986.926
87.812	13.155	1308.894	985.598
88.826	13.204	1307.415	984.694
89.841	13.232	1306.963	984.430
90.855	13.271	1306.051	983.887
91.870	13.305	1305.000	983.209
92.884	13.347	1304.092	982.688
93.899	13.316	1303.275	981.806
94.914	13.353	1302.621	981.443
95.928	13.378	1301.417	980.597
96.943	13.377	1300.552	979.856
97.957	13.222	1300.082	978.496
98.972	13.336	1298.449	977.851
99.987	13.310	1297.434	976.849
101.001	13.414	1296.209	976.455
102.016	13.285	1295.788	975.290
103.030	13.350	1294.746	974.800
104.045	13.402	1293.455	974.048
105.060	13.331	1292.479	972.809
106.074	13.208	1290.976	970.870
107.089	13.206	1289.874	969.944
108.103	13.072	1288.845	968.300
109.118	13.160	1287.674	967.848
110.133	13.182	1286.195	966.778
111.147	13.159	1285.486	966.029
112.162	13.182	1283.953	964.927
113.176	13.174	1282.438	963.656
114.191	13.133	1282.047	963.037
115.206	13.238	1280.439	962.352
116.220	13.249	1279.402	961.552
117.235	13.134	1278.804	960.352
118.249	13.212	1277.277	959.570
119.264	13.194	1276.271	958.626
120.279	13.202	1274.969	957.610
121.293	13.198	1274.073	956.829
122.308	13.151	1273.023	955.686
123.322	13.127	1272.244	954.876
124.337	13.172	1271.274	954.322
125.352	13.106	1269.825	952.768
126.366	13.079	1269.136	952.016
127.381	13.175	1268.052	951.670
128.395	13.219	1266.626	950.769
129.410	13.121	1266.108	949.733
130.424	13.252	1264.699	949.344
131.439	13.147	1264.134	948.232
132.454	13.247	1263.219	948.037
133.468	13.153	1262.450	946.834
134.483	13.218	1261.607	946.494
135.497	13.254	1260.604	945.863
136.512	13.250	1259.543	944.958
137.527	13.194	1258.277	943.607
138.541	13.123	1256.553	941.823
139.556	13.267	1255.293	941.617
140.570	13.330	1254.347	941.185
141.585	13.278	1253.123	939.888
142.600	13.355	1251.497	939.019
143.614	13.462	1250.421	938.735
144.629	13.436	1249.487	937.804
145.643	13.498	1248.931	937.657
146.658	13.382	1247.998	936.217
147.673	13.388	1246.100	934.744
148.687	13.344	1244.940	933.545
149.702	13.285	1243.601	932.125
150.716	13.226	1242.340	930.762
151.731	13.317	1241.250	930.373
152.746	13.298	1240.207	929.403
153.760	13.403	1238.575	928.690
154.775	13.304	1237.881	927.531
155.789	13.482	1236.563	927.460
156.804	13.470	1235.615	926.597
157.819	13.520	1234.993	926.331
158.833	13.565	1233.682	925.519
159.848	13.514	1233.044	924.670
160.862	13.633	1231.837	924.350
161.877	13.596	1230.410	922.990
162.892	13.492	1229.568	921.700
163.906	13.347	1229.003	920.383
164.921	13.499	1227.489	920.016
165.935	13.466	1227.002	919.385
166.950	13.440	1226.495	918.782
167.964	13.532	1225.582	918.524
168.979	13.537	1224.631	917.760
169.994	13.513	1224.136	917.171
171.008	13.587	1222.992	916.643
172.023	13.577	1222.558	916.183
173.037	13.651	1221.562	915.762
174.052	13.679	1220.577	915.098
175.067	13.584	1219.708	913.840
176.081	13.575	1218.401	912.735
177.096	13.477	1217.779	911.645
178.110	13.662	1216.233	911.426
179.125	13.620	1215.064	910.240
180.140	13.676	1214.246	909.852
181.154	13.593	1213.284	908.596
182.169	13.696	1211.924	908.059
183.183	13.767	1210.500	907.304
184.198	13.718	1209.671	906.331
185.213	13.811	1208.242	905.688
186.227	13.774	1207.135	904.579
187.242	13.819	1206.150	904.005
188.256	13.832	1205.284	903.345
189.271	13.937	1204.100	902.952
190.286	13.878	1203.154	901.842
191.300	13.644	1202.514	900.013
192.315	13.688	1201.699	899.561
193.329	13.565	1201.344	898.547
194.344	13.680	1200.657	898.577
195.359	13.822	1199.763	898.595
196.373	13.824	1199.705	898.483
197.388	13.935	1198.866	898.376
198.402	13.895	1198.474	897.786
199.417	14.041	1197.505	897.770
200.432	13.932	1197.055	896.765
201.446	13.969	1196.429	896.420
202.461	14.073	1195.171	895.954
203.475	14.092	1194.271	895.304
204.490	14.050	1192.515	893.686
205.504	14.067	1191.649	893.044
206.519	14.057	1190.503	892.055
207.534	13.949	1189.751	890.831
208.548	14.074	1188.306	890.341
209.563	14.040	1187.902	889.777
210.577	14.004	1186.993	888.826
211.592	14.136	1186.009	888.716
212.607	14.158	1184.939	887.953
213.621	14.288	1184.166	887.989
214.636	14.141	1183.369	886.532
215.650	14.109	1182.412	885.564
216.665	14.217	1181.553	885.419
217.680	14.180	1180.761	884.547
218.694	14.178	1179.988	883.883
219.709	14.304	1179.018	883.742
220.723	14.281	1178.551	883.193
221.738	14.281	1177.653	882.441
222.753	14.358	1176.704	882.061
223.767	14.385	1176.170	881.727
224.782	14.349	1175.510	880.964
225.796	14.334	1175.133	880.524
226.811	14.399	1174.340	880.196
227.826	14.378	1173.429	879.324
228.840	14.439	1172.657	878.988
229.855	14.315	1172.087	877.829
230.869	14.335	1171.138	877.149
231.884	14.349	1170.536	876.693
232.899	14.471	1169.262	876.302
233.913	14.387	1169.116	875.671
234.928	14.368	1168.199	874.810
235.942	14.337	1167.216	873.834
236.957	14.324	1166.630	873.251
237.972	14.304	1165.987	872.583
238.986	14.344	1165.598	872.424
240.001	14.325	1164.858	871.698
241.015	14.480	1163.572	871.467
242.030	14.449	1163.035	870.823
243.045	14.492	1162.200	870.346
244.059	14.405	1161.302	869.146
245.074	14.478	1160.955	869.190
246.088	14.602	1159.696	868.813
247.103	14.576	1159.132	868.177
248.117	14.569	1158.385	867.506
249.132	14.644	1157.630	867.254
250.147	14.753	1156.827	867.141
251.161	14.781	1155.940	866.548
252.176	14.716	1155.300	865.654
253.190	14.790	1154.805	865.587
254.205	14.970	1154.206	865.995
255.220	14.858	1153.730	864.981
256.234	14.854	1153.311	864.570
257.249	14.906	1152.628	864.248
258.263	14.853	1151.809	863.284
259.278	14.967	1150.948	863.151
260.293	14.883	1150.570	862.360
261.307	14.946	1149.695	861.951
262.322	15.089	1149.291	862.307
263.336	15.008	1148.737	861.400
264.351	15.055	1148.004	861.014
265.366	15.149	1147.265	860.871
266.380	15.045	1146.574	859.742
267.395	15.029	1145.627	858.872
268.409	15.014	1145.152	858.364
269.424	15.105	1144.537	858.292
270.439	15.113	1144.009	857.861
271.453	15.072	1143.106	856.901
272.468	15.052	1141.876	855.797
273.482	14.930	1141.591	854.883
274.497	15.096	1140.760	855.033
275.512	15.141	1140.298	854.843
276.526	15.164	1139.245	854.095
277.541	15.168	1138.510	853.491
278.555	15.069	1138.499	852.899
279.570	15.146	1137.446	852.429
280.585	15.311	1136.198	852.257
281.599	15.250	1135.795	851.570
282.614	15.256	1134.772	850.756
283.628	15.205	1133.252	849.284
284.643	15.302	1132.562	849.182
285.657	15.319	1131.975	848.751
286.672	15.171	1131.169	847.324
287.687	15.217	1129.989	846.599
288.701	15.338	1129.101	846.472
289.716	15.408	1128.394	846.217
290.730	15.381	1127.905	845.639
291.745	15.364	1127.244	844.983
292.760	15.307	1126.573	844.118
293.774	15.270	1126.415	843.738
294.789	15.356	1125.791	843.630
295.803	15.509	1125.086	843.794
296.818	15.335	1124.276	842.243
297.833	15.440	1123.225	841.903
298.847	15.573	1121.981	841.565
299.862	15.452	1121.453	840.487
300.876	15.490	1120.800	840.113
301.891	15.602	1120.162	840.122
302.906	15.506	1119.954	839.410
303.920	15.629	1118.978	839.222
304.935	15.632	1118.098	838.501
305.949	15.732	1117.500	838.475
306.964	15.605	1117.199	837.544
307.979	15.671	1116.240	837.079
308.993	15.741	1115.187	836.564
310.008	15.689	1114.476	835.697
311.022	15.759	1113.985	835.605
312.037	15.712	1112.738	834.361
313.052	15.741	1111.813	833.737
314.066	15.658	1111.226	832.814
315.081	15.603	1110.504	831.927
316.095	15.639	1109.809	831.507
317.110	15.706	1108.909	831.094
318.125	15.576	1108.144	829.804
319.139	15.720	1107.311	829.817
320.154	15.574	1107.011	828.801
321.168	15.741	1106.286	829.007
322.183	15.593	1105.843	827.871
323.197	15.705	1105.026	827.739
324.212	15.676	1104.808	827.358
325.227	15.741	1104.302	827.226
326.241	15.736	1103.438	826.480
327.256	15.727	1102.384	825.575
328.270	15.764	1101.553	825.061
329.285	15.694	1100.778	824.063
330.300	15.838	1099.682	823.874
331.314	15.806	1098.571	822.814
332.329	15.730	1098.143	822.048
333.343	15.899	1096.895	821.868
334.358	15.830	1096.187	820.925
335.373	15.879	1095.442	820.534
336.387	16.066	1094.460	820.639
337.402	15.818	1094.134	819.115
338.416	15.923	1093.370	818.979
339.431	16.038	1092.852	819.076
340.446	16.005	1092.078	818.267
341.460	16.160	1091.687	818.652
342.475	16.201	1090.894	818.183
343.489	16.130	1089.794	816.945
344.504	16.157	1088.905	816.333
345.519	16.197	1087.596	815.475
346.533	16.195	1087.603	815.397
347.548	16.415	1086.210	815.345
348.562	16.353	1085.559	814.485
349.577	16.196	1084.771	813.064
350.592	16.302	1084.249	813.109
351.606	16.197	1083.363	811.869
352.621	16.152	1082.829	811.180
353.635	16.153	1082.357	810.759
354.650	16.047	1081.813	809.773
355.665	16.172	1080.761	809.514
356.679	16.280	1080.125	809.484
357.694	16.251	1079.830	809.052
358.708	16.247	1079.253	808.528
359.723	16.332	1078.343	808.182
360.738	16.312	1077.469	807.357
361.752	16.251	1077.281	806.857
362.767	16.350	1076.746	806.857
363.781	16.396	1075.798	806.292
364.796	16.444	1075.114	805.936
365.810	16.503	1074.596	805.761
366.825	16.408	1074.295	805.011
367.840	16.575	1073.723	805.305
368.854	16.661	1072.955	805.068
369.869	16.605	1071.966	803.990
370.883	16.599	1071.368	803.440
371.898	16.535	1070.719	802.576
372.913	16.575	1070.119	802.248
373.927	16.585	1069.712	801.921
374.942	16.661	1069.197	801.820
375.956	16.734	1068.386	801.489
376.971	16.624	1067.831	800.483
377.986	16.560	1067.636	799.961
379.000	16.759	1066.569	800.032
380.015	16.823	1066.212	799.993
381.029	16.732	1065.542	798.993
382.044	16.737	1064.673	798.291
383.059	16.791	1064.287	798.189
384.073	16.738	1063.405	797.205
385.088	16.860	1062.340	796.911
386.102	16.851	1061.522	796.182
387.117	16.718	1060.345	794.608
388.132	16.745	1059.712	794.188
389.146	16.626	1058.992	793.020
390.161	16.854	1058.029	793.296
391.175	16.782	1057.218	792.283
392.190	16.883	1056.289	791.986
393.205	16.811	1056.221	791.531
394.219	16.764	1055.536	790.729
395.234	16.836	1054.358	790.109
396.248	16.774	1053.545	789.144
397.263	16.922	1052.441	788.935
398.278	16.887	1051.821	788.238
399.292	16.737	1051.076	786.912
400.307	16.873	1050.199	786.815
401.321	16.776	1050.004	786.151
402.336	16.786	1049.358	785.642
403.350	16.857	1048.412	785.198
404.365	16.942	1047.895	785.131
405.380	16.899	1046.847	784.080
406.394	17.006	1046.319	784.110
407.409	17.082	1045.314	783.638
408.423	17.155	1044.829	783.541
409.438	17.039	1044.186	782.453
410.453	17.141	1043.226	782.138
411.467	17.227	1042.813	782.151
412.482	17.174	1042.293	781.448
413.496	17.314	1041.257	781.249
414.511	17.211	1040.697	780.285
415.526	17.243	1040.670	780.344
416.540	17.365	1040.261	780.525
417.555	17.391	1039.900	780.307
418.569	17.346	1039.136	779.457
419.584	17.362	1038.702	779.137
420.599	17.366	1038.056	778.599
421.613	105.100	1325.438	1477.320
422.628	96.385	1367.279	1477.398
