DTS Sentinel unit serial number:	SN413079Multiplexer serial number:	ORYXHardware model number:	OX4-SRSoftware version number:	ORYX F/W v4.00 Oryx Data Collector v3.7.2.0data status	okinstallation	princeton_trtdifferential loss correction	single-endedforward channel	channel 2reverse channel	N/Adate	2019/09/12time	08:37:11forward acquisition time	60.00reverse acquisition time	0.00gamma	496.2192k internal	0.2318k external	0.2318temperature offset calibration	1.0063default loss term (dB/km)	0.3790temperature slope calibration	1.0000multiplexer offset coefficient	1.0000multiplexer slope coefficient	1.0000fibre end	0.00T internal ref (°C)	33.75T ext. ref 1 (°C)	1.72T ext. ref 2 (°C)	30.18length (m)	temperature (°C)	Stokes	anti-Stokes-747.200	-200.000	0.087	0.389
-746.185	-108.660	-0.319	-0.069
-745.171	-200.000	0.018	0.165
-744.156	207.778	0.121	0.191
-743.142	317.645	-0.134	-0.257
-742.127	672.075	-0.046	-0.120
-741.112	-200.000	-0.055	-0.261
-740.098	-200.000	0.002	0.196
-739.083	800.000	0.176	0.610
-738.069	341.219	-0.044	0.086
-737.054	-103.408	0.168	-0.040
-736.039	-200.000	0.041	0.185
-735.025	313.728	0.127	0.241
-734.010	800.000	-0.082	-0.275
-732.996	248.612	0.163	-0.280
-731.981	118.810	-0.198	-0.247
-730.966	-65.005	-0.112	-0.046
-729.952	101.052	0.140	-0.165
-728.937	-200.000	-0.011	0.141
-727.923	367.240	-0.166	0.338
-726.908	151.500	0.066	0.090
-725.894	800.000	0.047	0.161
-724.879	543.432	0.136	0.328
-723.864	30.954	-0.215	-0.186
-722.850	-2.846	-0.299	-0.211
-721.835	203.011	0.036	0.056
-720.821	-60.759	0.213	-0.091
-719.806	-108.811	0.326	-0.070
-718.791	-91.629	0.114	0.033
-717.777	290.104	0.096	0.176
-716.762	150.584	0.120	0.165
-715.748	800.000	-0.021	0.066
-714.733	67.615	-0.185	-0.191
-713.718	-126.435	0.171	0.026
-712.704	800.000	-0.029	-0.096
-711.689	-24.959	-0.385	-0.231
-710.675	-113.621	0.118	-0.023
-709.660	-38.914	0.168	0.090
-708.645	-132.200	0.172	-0.023
-707.631	9.471	0.151	0.115
-706.616	139.282	-0.153	-0.203
-705.602	314.108	0.189	0.359
-704.587	169.260	-0.159	-0.229
-703.572	800.000	0.019	-0.071
-702.558	800.000	0.074	0.259
-701.543	-22.092	-0.243	-0.149
-700.529	-200.000	0.031	0.251
-699.514	-113.726	-0.150	-0.030
-698.499	305.815	-0.111	-0.209
-697.485	53.394	-0.328	0.318
-696.470	-45.018	-0.077	0.038
-695.456	178.792	0.162	-0.240
-694.441	-88.578	-0.052	-0.016
-693.426	327.091	0.052	-0.101
-692.412	35.484	0.191	-0.169
-691.397	-153.434	-0.146	-0.010
-690.383	-200.000	-0.012	-0.179
-689.368	-105.793	-0.107	0.024
-688.354	-200.000	-0.062	0.356
-687.339	92.205	-0.184	-0.210
-686.324	-39.209	-0.188	-0.100
-685.310	-116.905	0.335	0.062
-684.295	100.177	-0.176	0.207
-683.281	-200.000	0.025	-0.227
-682.266	-60.744	0.100	-0.043
-681.251	-15.495	0.430	-0.277
-680.237	112.836	-0.258	-0.316
-679.222	-36.773	0.137	-0.074
-678.208	118.371	-0.119	-0.148
-677.193	550.641	-0.101	-0.243
-676.178	-90.499	0.156	0.046
-675.164	-174.677	-0.217	-0.006
-674.149	-146.201	0.128	0.011
-673.135	182.111	0.076	-0.113
-672.120	800.000	-0.072	0.235
-671.105	-200.000	-0.029	-0.282
-670.091	491.468	0.188	0.434
-669.076	-166.351	-0.139	-0.006
-668.062	-124.904	-0.271	0.042
-667.047	-200.000	-0.013	-0.131
-666.032	143.723	-0.152	0.204
-665.018	31.053	-0.162	-0.140
-664.003	-200.000	-0.104	0.518
-662.989	-29.762	0.283	0.163
-661.974	346.728	0.044	0.086
-660.959	-17.274	-0.226	-0.144
-659.945	-25.621	0.288	-0.172
-658.930	-17.129	0.171	0.109
-657.916	-17.749	-0.311	0.197
-656.901	-150.032	0.391	-0.031
-655.886	106.359	0.156	0.186
-654.872	-63.698	0.297	0.123
-653.857	-200.000	-0.012	-0.072
-652.843	-52.274	0.214	-0.100
-651.828	-4.457	0.101	0.071
-650.814	-84.402	-0.242	-0.077
-649.799	-131.213	0.417	-0.056
-648.784	-143.115	-0.386	0.038
-647.770	166.032	-0.036	0.052
-646.755	684.996	0.060	0.157
-645.741	-19.995	0.283	-0.176
-644.726	-37.711	0.249	-0.134
-643.711	-107.706	0.191	0.042
-642.697	800.000	-0.053	-0.195
-641.682	-200.000	0.010	-0.296
-640.668	-32.188	-0.210	0.119
-639.653	800.000	-0.108	0.328
-638.638	-147.373	-0.155	0.013
-637.624	116.489	0.133	-0.164
-636.609	-200.000	0.028	-0.450
-635.595	-14.848	0.231	-0.149
-634.580	142.283	-0.056	0.075
-633.565	-143.431	-0.247	0.024
-632.551	378.433	-0.070	0.145
-631.536	147.765	-0.077	0.105
-630.522	-141.759	-0.176	0.018
-629.507	-20.235	-0.272	-0.169
-628.492	-79.054	0.086	-0.029
-627.478	-172.525	-0.105	-0.003
-626.463	-129.853	0.299	0.041
-625.449	-29.698	-0.231	-0.133
-624.434	-76.303	0.082	-0.029
-623.419	-43.320	0.522	0.266
-622.405	800.000	-0.038	-0.120
-621.390	179.098	-0.058	-0.086
-620.376	41.414	0.366	0.334
-619.361	-99.232	0.109	-0.028
-618.346	-200.000	-0.008	-0.282
-617.332	44.545	-0.172	-0.159
-616.317	176.509	-0.113	0.165
-615.303	363.996	0.129	-0.261
-614.288	-8.949	0.170	0.115
-613.273	86.297	0.163	0.180
-612.259	-136.470	-0.359	-0.042
-611.244	183.684	-0.191	-0.285
-610.230	-88.848	-0.301	0.090
-609.215	158.534	-0.182	-0.254
-608.201	-126.886	0.032	-0.005
-607.186	91.146	0.187	-0.211
-606.171	34.081	-0.110	-0.096
-605.157	709.505	0.074	-0.197
-604.142	-96.936	0.303	0.080
-603.128	-114.200	-0.322	-0.063
-602.113	21.037	0.211	0.172
-601.098	-77.474	-0.051	0.018
-600.084	-200.000	0.032	0.144
-599.069	29.503	-0.322	0.275
-598.055	-125.579	0.254	-0.039
-597.040	468.462	0.029	0.066
-596.025	-69.972	0.194	-0.074
-595.011	800.000	-0.091	0.360
-593.996	39.020	0.108	-0.097
-592.982	-53.665	-0.202	-0.093
-591.967	-38.439	-0.049	-0.026
-590.952	-86.094	0.195	-0.060
-589.938	800.000	0.093	-0.391
-588.923	154.035	0.107	-0.148
-587.909	-40.757	-0.422	-0.220
-586.894	800.000	-0.033	-0.127
-585.879	-200.000	0.011	-0.058
-584.865	-200.000	0.137	0.000
-583.850	-200.000	0.005	-0.100
-582.836	121.009	-0.119	-0.148
-581.821	654.052	-0.020	0.050
-580.806	800.000	-0.021	-0.085
-579.792	455.451	0.126	0.280
-578.777	683.025	0.091	0.240
-577.763	-200.000	-0.004	-0.233
-576.748	9.949	0.037	-0.029
-575.733	25.600	0.351	-0.294
-574.719	386.902	0.013	0.027
-573.704	-200.000	0.019	-0.102
-572.690	-85.148	-0.120	0.038
-571.675	622.060	-0.143	-0.361
-570.661	800.000	-0.031	-0.090
-569.646	800.000	0.050	-0.178
-568.631	38.876	-0.151	-0.136
-567.617	-116.284	-0.210	-0.039
-566.602	345.742	-0.096	-0.190
-565.588	314.716	-0.042	-0.079
-564.573	298.073	0.065	0.121
-563.558	-43.238	-0.019	-0.010
-562.544	434.424	-0.096	0.209
-561.529	-68.727	-0.281	-0.109
-560.515	55.427	0.086	0.084
-559.500	-55.549	-0.281	-0.127
-558.485	800.000	-0.147	0.465
-557.471	-200.000	-0.007	-0.129
-556.456	272.588	-0.125	0.221
-555.442	-200.000	-0.010	-0.160
-554.427	51.677	0.434	0.415
-553.412	-200.000	0.421	-0.002
-552.398	-200.000	-0.002	0.041
-551.383	61.591	-0.124	0.124
-550.369	103.854	-0.240	0.283
-549.354	77.599	0.089	0.095
-548.339	263.635	0.128	-0.224
-547.325	509.335	0.105	-0.245
-546.310	-31.056	-0.334	-0.189
-545.296	95.504	-0.229	-0.262
-544.281	196.465	-0.127	-0.194
-543.266	258.963	-0.067	-0.116
-542.252	350.194	0.109	-0.217
-541.237	-62.576	0.227	0.095
-540.223	-84.514	0.349	-0.111
-539.208	-200.000	0.053	-0.279
-538.193	425.319	-0.047	-0.101
-537.179	800.000	-0.023	0.091
-536.164	-30.399	-0.323	-0.184
-535.150	-200.000	0.045	0.245
-534.135	338.458	-0.126	-0.247
-533.121	-27.130	0.224	0.131
-532.106	-192.443	0.279	-0.003
-531.091	50.749	-0.073	0.069
-530.077	8.250	0.129	0.097
-529.062	-167.499	-0.082	0.003
-528.048	-112.805	-0.217	0.043
-527.033	-90.112	-0.104	0.030
-526.018	41.500	-0.288	0.261
-525.004	-87.571	0.079	0.024
-523.989	194.526	-0.115	-0.176
-522.975	-44.003	-0.170	0.086
-521.960	-123.654	-0.181	0.029
-520.945	91.603	0.141	0.159
-519.931	-73.730	-0.223	0.081
-518.916	800.000	0.013	0.057
-517.902	55.838	0.178	-0.174
-516.887	111.667	-0.147	0.178
-515.872	-70.116	-0.176	-0.067
-514.858	-31.870	0.358	0.201
-513.843	-14.383	0.195	0.126
-512.829	-21.566	-0.182	-0.112
-511.814	-127.736	-0.251	-0.036
-510.799	290.968	-0.182	0.331
-509.785	317.356	0.096	-0.182
-508.770	-113.813	-0.040	0.008
-507.756	-5.029	-0.163	0.113
-506.741	48.756	-0.121	0.114
-505.726	-145.051	0.323	-0.029
-504.712	-132.672	0.268	-0.034
-503.697	-81.128	-0.297	0.099
-502.683	216.927	0.149	0.238
-501.668	303.335	0.121	0.225
-500.653	800.000	0.024	-0.086
-499.639	-68.027	0.283	0.111
-498.624	-38.431	-0.163	0.087
-497.610	-200.000	0.026	0.308
-496.595	-60.645	-0.273	0.116
-495.581	100.174	0.161	0.187
-494.566	-127.693	0.156	-0.023
-493.551	-161.364	-0.284	0.015
-492.537	229.123	0.100	0.164
-491.522	-200.000	-0.033	0.435
-490.508	227.457	0.123	-0.200
-489.493	-200.000	0.022	0.099
-488.478	-14.101	0.172	0.111
-487.464	-168.853	-0.239	-0.009
-486.449	-20.328	0.080	-0.049
-485.435	-30.243	0.188	0.107
-484.420	127.832	-0.184	0.234
-483.405	6.560	-0.127	0.095
-482.391	-200.000	-0.021	-0.109
-481.376	-62.807	0.472	-0.196
-480.362	298.275	0.072	-0.132
-479.347	355.525	-0.025	0.050
-478.332	-135.298	-0.166	-0.020
-477.318	-70.239	-0.277	-0.105
-476.303	80.825	0.263	-0.284
-475.289	99.485	0.165	0.192
-474.274	-141.323	-0.162	0.016
-473.259	-1.222	-0.183	-0.129
-472.245	-58.777	-0.038	0.016
-471.230	-115.014	0.080	-0.015
-470.216	125.034	-0.106	-0.133
-469.201	445.642	-0.071	-0.155
-468.186	-153.770	-0.159	-0.011
-467.172	-142.416	-0.243	0.024
-466.157	48.380	-0.042	-0.039
-465.143	-0.725	0.170	-0.121
-464.128	-136.994	-0.038	0.004
-463.113	543.424	-0.078	-0.186
-462.099	-147.968	-0.454	-0.038
-461.084	53.696	-0.229	-0.220
-460.070	-119.319	-0.305	-0.053
-459.055	-116.055	-0.091	0.017
-458.040	-200.000	-0.043	0.273
-457.026	240.247	0.128	-0.213
-456.011	-52.426	-0.048	0.022
-454.997	-18.015	-0.144	-0.091
-453.982	196.971	-0.247	0.376
-452.968	-27.943	0.037	-0.022
-451.953	-6.678	-0.142	-0.097
-450.938	-200.000	0.068	0.351
-449.924	-184.951	0.102	-0.002
-448.909	-106.166	0.082	0.018
-447.895	329.722	0.004	0.008
-446.880	800.000	-0.138	0.395
-445.865	500.253	0.032	0.075
-444.851	-50.083	0.071	-0.034
-443.836	800.000	-0.086	0.275
-442.822	120.815	-0.319	-0.397
-441.807	-45.874	-0.033	-0.016
-440.792	51.507	-0.319	0.304
-439.778	-200.000	0.004	-0.295
-438.763	-200.000	0.030	0.317
-437.749	342.179	-0.119	0.232
-436.734	-94.685	-0.238	0.065
-435.719	249.546	-0.155	0.262
-434.705	529.603	-0.138	0.325
-433.690	-200.000	0.014	0.164
-432.676	-80.363	0.260	0.087
-431.661	112.582	-0.164	-0.198
-430.646	70.429	0.128	0.132
-429.632	-35.442	0.139	0.075
-428.617	-200.000	-0.013	0.269
-427.603	-48.605	-0.215	0.103
-426.588	-16.198	-0.023	0.014
-425.573	135.503	-0.091	0.119
-424.559	769.603	-0.074	0.201
-423.544	-200.000	0.028	0.177
-422.530	800.000	0.040	-0.153
-421.515	-200.000	-0.015	0.378
-420.500	79.755	-0.054	0.058
-419.486	-98.859	-0.172	-0.044
-418.471	90.980	-0.183	-0.205
-417.457	456.450	0.189	0.419
-416.442	-16.214	0.257	0.163
-415.428	-200.000	0.066	-0.325
-414.413	800.000	-0.053	0.148
-413.398	219.001	0.113	-0.180
-412.384	-200.000	0.042	0.379
-411.369	-200.000	0.018	0.090
-410.355	26.778	0.025	0.021
-409.340	-146.825	-0.208	-0.018
-408.325	-116.518	-0.271	0.050
-407.311	-130.542	0.190	0.026
-406.296	-200.000	-0.018	-0.195
-405.282	311.849	-0.120	-0.225
-404.267	-114.521	0.274	0.052
-403.252	-49.282	0.175	0.083
-402.238	-6.020	0.062	0.042
-401.223	-65.544	-0.042	-0.017
-400.209	-115.533	-0.274	0.051
-399.194	9.674	-0.217	-0.164
-398.179	559.895	-0.085	0.205
-397.165	-152.515	0.089	-0.006
-396.150	-124.175	-0.148	-0.023
-395.136	180.635	0.055	0.081
-394.121	800.000	-0.054	-0.158
-393.106	512.675	0.138	0.321
-392.092	-200.000	-0.004	0.151
-391.077	-94.409	-0.329	-0.090
-390.063	-200.000	0.061	-0.361
-389.048	-200.000	-0.028	-0.167
-388.033	-200.000	-0.050	0.249
-387.019	-54.849	0.140	0.063
-386.004	800.000	-0.080	0.261
-384.990	56.315	-0.185	-0.180
-383.975	85.779	0.124	-0.136
-382.960	193.168	-0.051	0.076
-381.946	800.000	-0.019	-0.053
-380.931	-200.000	-0.032	-0.180
-379.917	467.201	0.046	-0.102
-378.902	-130.414	0.317	-0.043
-377.888	-97.823	0.393	-0.101
-376.873	96.902	-0.104	-0.119
-375.858	612.726	0.102	-0.256
-374.844	43.813	0.305	0.278
-373.829	-52.464	0.147	0.068
-372.815	204.139	-0.131	-0.202
-371.800	212.282	0.068	-0.106
-370.785	-66.437	0.197	0.078
-369.771	-200.000	0.025	0.198
-368.756	-84.702	0.385	0.121
-367.742	800.000	-0.121	-0.399
-366.727	129.663	0.080	0.102
-365.712	-96.442	-0.204	-0.054
-364.698	116.342	0.134	-0.163
-363.683	200.793	0.035	0.053
-362.669	82.382	-0.049	-0.054
-361.654	-74.858	-0.300	-0.107
-360.639	-96.841	0.480	-0.126
-359.625	800.000	0.045	-0.145
-358.610	228.058	-0.238	-0.387
-357.596	-63.012	0.248	-0.102
-356.581	-200.000	0.054	0.277
-355.566	-200.000	0.010	-0.094
-354.552	-54.509	-0.324	-0.146
-353.537	444.819	-0.097	-0.212
-352.523	-200.000	0.005	-0.345
-351.508	492.318	-0.055	0.126
-350.493	800.000	-0.022	-0.078
-349.479	690.178	-0.139	0.362
-348.464	-200.000	-0.007	-0.175
-347.450	-200.000	0.017	-0.160
-346.435	800.000	-0.085	-0.308
-345.420	234.224	-0.131	-0.214
-344.406	201.278	0.197	-0.302
-343.391	-200.000	-0.021	0.096
-342.377	523.075	-0.072	-0.168
-341.362	-36.419	0.149	-0.080
-340.348	-86.655	-0.184	-0.056
-339.333	109.633	-0.036	-0.043
-338.318	196.015	0.083	-0.126
-337.304	-200.000	-0.048	-0.270
-336.289	-107.962	-0.162	-0.035
-335.275	-35.061	-0.267	0.145
-334.260	502.420	-0.056	-0.129
-333.245	-20.431	-0.143	-0.088
-332.231	46.478	0.163	0.151
-331.216	-188.896	0.340	-0.004
-330.202	24.147	-0.240	0.197
-329.187	673.939	0.035	-0.091
-328.172	-150.977	0.327	-0.025
-327.158	320.077	-0.142	0.269
-326.143	-98.753	0.022	0.006
-325.129	89.604	-0.117	-0.131
-324.114	306.488	0.058	-0.108
-323.099	58.217	0.080	0.078
-322.085	41.509	0.450	0.406
-321.070	101.203	-0.097	-0.112
-320.056	-54.950	-0.270	0.121
-319.041	70.738	-0.105	0.109
-318.026	-140.242	-0.217	-0.023
-317.012	39.432	-0.110	-0.098
-315.997	-78.657	-0.212	0.072
-314.983	-66.604	-0.149	0.059
-313.968	68.191	0.105	0.107
-312.953	800.000	-0.083	-0.307
-311.939	185.220	-0.094	0.139
-310.924	-200.000	-0.001	0.242
-309.910	-200.000	-0.037	-0.264
-308.895	-200.000	0.007	0.040
-307.880	39.645	0.098	-0.087
-306.866	33.712	0.209	0.181
-305.851	43.074	-0.184	0.167
-304.837	-146.531	-0.205	-0.018
-303.822	-200.000	-0.014	-0.102
-302.807	-45.207	0.196	-0.097
-301.793	72.433	0.077	-0.080
-300.778	800.000	-0.027	0.094
-299.764	-11.746	-0.180	0.117
-298.749	-200.000	0.030	0.272
-297.735	-190.457	-0.387	0.004
-296.720	419.814	0.058	-0.124
-295.705	-136.275	0.085	-0.010
-294.691	93.274	0.077	0.087
-293.676	40.793	-0.113	0.101
-292.662	800.000	-0.048	0.184
-291.647	239.236	0.022	0.036
-290.632	-55.230	-0.257	-0.115
-289.618	-200.000	-0.017	0.155
-288.603	436.534	0.095	-0.206
-287.589	800.000	-0.044	-0.183
-286.574	800.000	0.078	0.328
-285.559	-200.000	0.035	0.220
-284.545	-51.493	0.210	-0.098
-283.530	-200.000	-0.053	0.269
-282.516	800.000	-0.013	0.043
-281.501	-92.145	0.172	-0.048
-280.486	62.637	-0.127	0.126
-279.472	-47.231	0.110	0.053
-278.457	-167.897	0.176	0.007
-277.443	-98.837	-0.165	0.042
-276.428	293.095	0.039	0.071
-275.413	716.442	-0.052	0.138
-274.399	-200.000	0.031	-0.346
-273.384	-200.000	-0.000	-0.159
-272.370	409.755	0.139	0.293
-271.355	-170.561	0.443	0.015
-270.340	43.521	0.201	-0.182
-269.326	632.874	0.073	0.183
-268.311	-165.033	0.243	0.011
-267.297	-164.331	0.235	0.011
-266.282	-130.102	0.225	0.030
-265.267	800.000	-0.067	-0.201
-264.253	-54.510	-0.124	-0.056
-263.238	-76.565	0.243	0.085
-262.224	541.910	-0.166	-0.394
-261.209	-162.818	0.190	0.009
-260.195	1.480	0.287	0.205
-259.180	-39.222	0.150	-0.078
-258.165	185.303	-0.042	0.062
-257.151	20.189	-0.096	-0.077
-256.136	-200.000	-0.030	-0.156
-255.122	71.467	0.264	-0.272
-254.107	-9.926	0.473	0.312
-253.092	63.608	0.116	0.115
-252.078	15.821	0.118	0.092
-251.063	-137.936	0.196	0.022
-250.049	800.000	-0.055	-0.234
-249.034	-48.042	-0.129	-0.062
-248.019	-200.000	-0.010	-0.081
-247.005	82.164	0.204	-0.220
-245.990	-104.997	0.225	-0.051
-244.976	788.277	0.132	0.360
-243.961	-109.008	0.098	0.021
-242.946	182.707	-0.120	-0.176
-241.932	800.000	-0.074	-0.204
-240.917	401.271	0.012	-0.025
-239.903	-94.734	-0.179	0.048
-238.888	-200.000	-0.017	0.124
-237.873	-106.271	0.307	0.068
-236.859	303.557	-0.039	0.072
-235.844	64.495	0.094	0.094
-234.830	-103.555	-0.095	-0.022
-233.815	-46.018	0.103	-0.050
-232.800	800.000	0.028	-0.102
-231.786	-100.186	0.274	0.068
-230.771	800.000	0.026	0.093
-229.757	-90.052	0.273	-0.079
-228.742	50.677	0.084	0.079
-227.727	-18.919	-0.382	0.236
-226.713	-14.617	0.345	0.220
-225.698	107.572	0.254	-0.300
-224.684	337.680	0.023	0.044
-223.669	44.407	0.158	0.144
-222.655	800.000	0.053	0.153
-221.640	11.871	0.190	0.145
-220.625	800.000	0.058	0.175
-219.611	-200.000	0.072	-0.491
-218.596	-88.885	0.274	0.080
-217.582	24.533	0.204	0.167
-216.567	40.639	-0.090	0.080
-215.552	326.480	0.143	-0.271
-214.538	-137.593	-0.270	0.030
-213.523	-200.000	-0.027	0.131
-212.509	-200.000	-0.050	-0.391
-211.494	82.344	0.142	-0.153
-210.479	-82.211	-0.057	0.018
-209.465	111.542	0.056	0.067
-208.450	84.389	-0.232	-0.251
-207.436	-122.327	-0.165	0.027
-206.421	25.595	-0.104	0.085
-205.406	-200.000	-0.027	0.125
-204.392	-10.867	-0.056	-0.036
-203.377	-84.314	-0.206	-0.065
-202.363	800.000	-0.095	0.280
-201.348	68.745	0.087	0.088
-200.333	367.483	0.117	0.234
-199.319	388.304	-0.188	0.385
-198.304	-200.000	0.026	-0.140
-197.290	-123.340	-0.441	0.070
-196.275	45.537	-0.178	0.163
-195.260	100.024	0.276	-0.317
-194.246	-177.596	0.100	0.002
-193.231	-48.107	-0.125	0.060
-192.217	-103.066	0.094	0.022
-191.202	101.951	0.129	0.149
-190.187	800.000	-0.019	-0.063
-189.173	-166.795	0.143	0.006
-188.158	36.797	0.111	0.097
-187.144	120.791	0.144	0.178
-186.129	3.882	-0.295	-0.213
-185.114	-200.000	-0.033	0.411
-184.100	800.000	0.063	0.259
-183.085	31.018	-0.353	-0.300
-182.071	182.734	-0.102	-0.149
-181.056	-2.253	-0.121	0.084
-180.042	26.073	0.236	-0.195
-179.027	187.779	0.091	-0.135
-178.012	-125.831	0.361	-0.054
-176.998	-187.389	0.375	-0.005
-175.983	-200.000	-0.009	-0.056
-174.969	-69.004	-0.233	-0.089
-173.954	-120.428	0.170	0.029
-172.939	800.000	0.022	0.067
-171.925	-200.000	-0.052	0.265
-170.910	-35.399	0.225	0.121
-169.896	-117.686	0.181	-0.032
-168.881	269.018	-0.029	-0.050
-167.866	-38.220	-0.212	-0.111
-166.852	270.490	-0.205	-0.356
-165.837	6.889	0.052	0.038
-164.823	-104.791	-0.306	0.070
-163.808	-169.702	0.041	-0.001
-162.793	-10.776	0.176	0.115
-161.779	-124.954	-0.146	-0.022
-160.764	190.874	-0.135	-0.201
-159.750	-36.840	-0.224	-0.119
-158.735	-93.683	0.294	-0.080
-157.720	-200.000	0.058	0.268
-156.706	57.069	-0.134	-0.130
-155.691	-200.000	0.010	-0.105
-154.677	228.000	0.030	0.049
-153.662	21.258	0.110	0.089
-152.647	-200.000	0.106	-0.501
-151.633	-96.445	-0.241	-0.063
-150.618	-200.000	0.007	-0.232
-149.604	-200.000	-0.012	0.401
-148.589	-200.000	0.126	0.615
-147.574	28.858	0.139	-0.116
-146.560	-200.000	0.033	0.159
-145.545	-5.685	0.087	0.059
-144.531	182.560	-0.166	0.243
-143.516	-200.000	0.009	-0.186
-142.502	5.893	0.236	-0.172
-141.487	-200.000	0.033	-0.207
-140.472	4.436	-0.358	0.260
-139.458	-48.840	-0.158	0.075
-138.443	-175.037	0.073	-0.002
-137.429	800.000	0.090	-0.368
-136.414	93.714	-0.243	0.272
-135.399	216.695	0.089	-0.139
-134.385	-115.619	0.244	0.045
-133.370	-200.000	-0.016	0.327
-132.356	-168.288	0.080	-0.003
-131.341	-53.111	0.139	-0.063
-130.326	59.950	-0.139	0.136
-129.312	289.153	0.075	0.135
-128.297	-27.065	0.218	0.126
-127.283	-81.880	0.240	0.077
-126.268	800.000	0.098	0.318
-125.253	-93.884	0.175	0.048
-124.239	800.000	0.103	-0.306
-123.224	-110.311	0.083	-0.017
-122.210	117.162	-0.002	-0.002
-121.195	-22.234	0.350	0.210
-120.180	-114.299	0.293	0.056
-119.166	13.489	0.077	0.059
-118.151	301.606	-0.207	0.379
-117.137	411.956	-0.051	0.106
-116.122	-200.000	-0.022	0.098
-115.107	124.279	0.037	0.045
-114.093	121.150	0.164	0.201
-113.078	-65.582	-0.013	-0.005
-112.064	53.151	-0.273	-0.259
-111.049	227.739	0.073	-0.117
-110.034	5.329	0.221	0.161
-109.020	-32.029	-0.141	-0.078
-108.005	-31.566	-0.195	-0.108
-106.991	-200.000	-0.007	-0.039
-105.976	372.630	0.073	-0.146
-104.962	-69.514	0.310	0.117
-103.947	-200.000	-0.005	0.054
-102.932	-77.073	0.099	-0.034
-101.918	145.865	-0.074	0.098
-100.903	-200.000	-0.089	0.486
-99.889	22.111	0.046	0.037
-98.874	-66.013	0.172	0.068
-97.859	-6.387	-0.288	0.194
-96.845	-47.323	-0.095	0.046
-95.830	680.161	0.055	0.140
-94.816	-112.439	0.104	0.021
-93.801	149.587	0.121	-0.162
-92.786	56.317	0.218	0.209
-91.772	-46.207	-0.201	0.097
-90.757	800.000	0.051	0.189
-89.743	44.746	0.192	-0.174
-88.728	366.859	-0.083	-0.165
-87.713	66.336	0.219	-0.219
-86.699	-0.698	-0.195	-0.137
-85.684	-184.245	0.149	0.002
-84.670	-200.000	-0.017	0.234
-83.655	146.813	0.212	0.281
-82.640	-92.231	0.047	-0.013
-81.626	247.424	-0.227	0.378
-80.611	-200.000	0.023	0.306
-79.597	800.000	0.032	-0.117
-78.582	-102.326	0.233	0.055
-77.567	5.888	0.054	-0.040
-76.553	-7.337	-0.158	-0.105
-75.538	-200.000	-0.053	0.334
-74.524	49.929	-0.111	0.103
-73.509	32.105	-0.209	-0.178
-72.494	771.500	0.049	-0.131
-71.480	400.548	0.115	-0.238
-70.465	-200.000	0.026	0.274
-69.451	-76.855	0.214	0.074
-68.436	-104.536	-0.153	0.035
-67.422	-54.711	-0.289	-0.129
-66.407	480.598	0.124	-0.276
-65.392	43.243	0.200	0.180
-64.378	800.000	0.055	0.223
-63.363	800.000	-0.049	0.179
-62.349	800.000	-0.017	0.051
-61.334	92.313	-0.752	-0.836
-60.319	10.311	0.415	0.311
-59.305	536.035	-0.357	-0.835
-58.290	491.436	0.410	0.926
-57.276	252.628	0.753	1.264
-56.261	-200.000	98.442	590.296
-55.246	537.696	1413.127	3308.550
-54.232	148.444	2627.767	3496.524
-53.217	106.553	2304.418	2692.766
-52.203	43.029	1916.181	1721.977
-51.188	37.002	1704.154	1485.376
-50.173	34.264	1660.076	1426.432
-49.159	52.245	1709.330	1605.717
-48.144	55.215	1726.509	1644.317
-47.130	36.715	1682.658	1464.239
-46.115	33.765	1667.550	1428.867
-45.100	33.576	1662.543	1423.102
-44.086	33.617	1659.933	1421.125
-43.071	33.617	1657.256	1418.771
-42.057	33.649	1654.653	1416.726
-41.042	33.603	1653.120	1415.016
-40.027	33.551	1651.018	1412.771
-39.013	33.605	1648.572	1411.022
-37.998	33.520	1646.923	1408.926
-36.984	33.637	1645.786	1408.769
-35.969	33.780	1644.057	1408.291
-34.954	33.846	1642.351	1407.260
-33.940	33.782	1641.043	1405.615
-32.925	33.699	1639.191	1403.359
-31.911	33.766	1637.434	1402.292
-30.896	33.727	1635.569	1400.354
-29.881	33.623	1634.297	1398.440
-28.867	33.730	1632.408	1397.555
-27.852	33.733	1630.325	1395.738
-26.838	33.791	1628.680	1394.701
-25.823	33.790	1627.394	1393.537
-24.809	33.829	1626.259	1392.798
-23.794	33.732	1624.978	1390.936
-22.779	33.728	1623.278	1389.393
-21.765	33.717	1621.620	1387.837
-20.750	33.703	1619.656	1386.003
-19.736	33.773	1618.616	1385.565
-18.721	33.953	1615.888	1384.486
-17.706	33.773	1615.383	1382.688
-16.692	33.706	1614.270	1381.191
-15.677	33.722	1612.623	1379.847
-14.663	33.796	1610.846	1378.807
-13.648	33.828	1609.579	1377.900
-12.633	33.789	1608.358	1376.522
-11.619	33.816	1606.601	1375.155
-10.604	33.851	1605.233	1374.181
-9.590	33.820	1603.976	1372.827
-8.575	33.856	1602.357	1371.647
-7.560	33.817	1601.614	1370.678
-6.546	33.844	1600.403	1369.779
-5.531	33.678	1599.627	1367.865
-4.517	33.792	1597.979	1367.220
-3.502	33.836	1597.142	1366.772
-2.487	33.818	1595.654	1365.313
-1.473	33.645	1584.195	1354.216
-0.458	31.255	1564.652	1320.580
0.556	27.713	1566.084	1290.510
1.571	25.570	1590.137	1294.801
2.586	25.112	1603.443	1302.194
3.600	21.691	1549.005	1233.827
4.615	11.701	1434.701	1077.184
5.629	3.172	1368.145	973.352
6.644	1.809	1360.060	958.943
7.659	1.730	1358.616	957.343
8.673	1.723	1357.556	956.463
9.688	1.618	1355.477	954.258
10.702	1.377	1352.297	950.428
11.717	4.873	1359.652	977.477
12.731	15.315	1379.465	1057.817
13.746	23.861	1394.325	1123.363
14.761	26.080	1396.908	1139.375
15.775	26.436	1396.867	1141.487
16.790	26.460	1396.450	1141.199
17.804	26.572	1395.609	1141.117
18.819	26.778	1395.579	1142.289
19.834	26.785	1395.289	1141.997
20.848	26.929	1393.922	1141.683
21.863	26.898	1392.966	1140.600
22.877	26.939	1392.094	1140.042
23.892	26.916	1391.518	1139.330
24.907	26.852	1390.922	1138.337
25.921	26.922	1389.513	1137.523
26.936	26.770	1389.075	1136.111
27.950	26.915	1387.885	1135.945
28.965	26.899	1386.478	1134.591
29.980	26.898	1385.308	1133.528
30.994	26.801	1384.670	1132.300
32.009	26.854	1382.892	1131.079
33.023	26.876	1382.183	1130.531
34.038	26.879	1380.910	1129.412
35.053	26.916	1379.906	1128.720
36.067	26.855	1379.201	1127.664
37.082	26.885	1378.148	1126.892
38.096	26.925	1376.853	1125.976
39.111	26.869	1376.939	1125.600
40.126	26.940	1375.876	1125.077
41.140	26.868	1375.149	1123.932
42.155	26.924	1375.231	1124.249
43.169	26.830	1375.324	1123.641
44.184	26.932	1374.780	1123.732
45.199	26.810	1374.112	1122.329
46.213	26.927	1373.600	1122.535
47.228	26.943	1372.446	1121.595
48.242	27.010	1371.253	1120.934
49.257	26.981	1369.746	1119.423
50.271	26.926	1368.351	1117.846
51.286	26.913	1367.257	1116.774
52.301	26.886	1365.836	1115.348
53.315	26.836	1365.416	1114.597
54.330	26.799	1364.567	1113.578
55.344	26.901	1363.228	1113.015
56.359	26.785	1362.739	1111.804
57.374	26.837	1361.857	1111.306
58.388	26.902	1360.974	1110.882
59.403	26.885	1360.716	1110.468
60.417	26.925	1359.894	1109.949
61.432	26.919	1358.932	1109.026
62.447	26.862	1358.078	1107.882
63.461	26.861	1357.232	1107.092
64.476	26.973	1356.173	1106.808
65.490	26.911	1354.784	1105.198
66.505	26.898	1353.654	1104.100
67.520	26.944	1352.375	1103.241
68.534	26.834	1351.481	1101.745
69.549	26.940	1350.326	1101.349
70.563	26.929	1349.673	1100.655
71.578	26.822	1348.789	1099.186
72.593	27.015	1348.119	1099.713
73.607	26.924	1347.162	1098.284
74.622	26.877	1346.327	1097.219
75.636	26.880	1345.889	1096.783
76.651	26.923	1345.179	1096.371
77.666	26.811	1344.954	1095.411
78.680	26.848	1344.243	1094.963
79.695	26.902	1343.134	1094.286
80.709	26.855	1342.470	1093.366
81.724	26.926	1341.297	1092.739
82.739	26.882	1340.643	1091.845
83.753	26.841	1340.007	1090.985
84.768	26.914	1338.399	1090.014
85.782	26.955	1337.344	1089.307
86.797	26.941	1336.445	1088.393
87.812	26.990	1335.293	1087.655
88.826	26.939	1334.339	1086.473
89.841	26.885	1333.416	1085.304
90.855	26.923	1332.155	1084.409
91.870	27.052	1330.755	1083.946
92.884	27.011	1330.653	1083.521
93.899	26.953	1329.479	1082.125
94.914	26.958	1329.234	1081.858
95.928	26.998	1328.180	1081.139
96.943	26.989	1327.434	1080.387
97.957	26.971	1326.820	1079.682
98.972	26.933	1326.069	1078.748
99.987	27.011	1325.111	1078.339
101.001	27.001	1323.531	1076.899
102.016	26.911	1323.046	1075.875
103.030	26.866	1323.099	1075.555
104.045	26.949	1321.803	1074.897
105.060	26.956	1320.493	1073.783
106.074	26.922	1319.744	1072.874
107.089	27.041	1318.605	1072.554
108.103	27.056	1317.436	1071.598
109.118	27.023	1316.471	1070.526
110.133	26.949	1315.599	1069.285
111.147	26.940	1314.130	1067.945
112.162	27.038	1313.059	1067.553
113.176	27.088	1311.956	1066.859
114.191	27.018	1311.353	1065.859
115.206	27.102	1310.065	1065.212
116.220	27.014	1309.030	1063.760
117.235	27.016	1308.237	1063.035
118.249	27.025	1307.380	1062.297
119.264	26.972	1306.500	1061.181
120.279	27.061	1305.931	1061.141
121.293	27.060	1305.284	1060.518
122.308	27.049	1304.463	1059.689
123.322	27.224	1303.204	1059.596
124.337	27.098	1302.836	1058.470
125.352	27.180	1301.803	1058.014
126.366	27.071	1300.978	1056.617
127.381	27.123	1300.098	1056.109
128.395	27.105	1299.426	1055.367
129.410	27.087	1298.534	1054.439
130.424	27.108	1297.772	1053.851
131.439	27.142	1297.260	1053.543
132.454	27.074	1296.246	1052.227
133.468	27.133	1295.692	1052.031
134.483	27.034	1295.227	1050.985
135.497	26.992	1294.645	1050.176
136.512	26.986	1293.448	1049.077
137.527	27.062	1291.783	1048.073
138.541	26.984	1291.116	1046.988
139.556	27.061	1289.259	1045.836
140.570	27.045	1288.750	1045.235
141.585	27.096	1287.488	1044.414
142.600	27.049	1286.465	1043.221
143.614	27.013	1286.233	1042.737
144.629	26.947	1285.141	1041.381
145.643	26.981	1283.710	1040.319
146.658	27.021	1283.037	1039.916
147.673	26.932	1281.986	1038.460
148.687	26.980	1280.902	1037.762
149.702	26.912	1280.010	1036.560
150.716	26.969	1278.994	1035.975
151.731	26.987	1277.872	1035.073
152.746	27.038	1276.598	1034.240
153.760	27.077	1275.739	1033.675
154.775	27.143	1274.849	1033.239
155.789	26.976	1274.049	1031.550
156.804	27.042	1273.008	1030.992
157.819	27.003	1272.508	1030.271
158.833	26.974	1271.635	1029.313
159.848	27.052	1270.553	1028.787
160.862	27.079	1270.175	1028.539
161.877	27.103	1269.056	1027.679
162.892	27.109	1268.240	1026.961
163.906	27.247	1267.412	1026.982
164.921	27.098	1266.916	1025.646
165.935	27.185	1266.234	1025.495
166.950	27.068	1265.587	1024.218
167.964	27.061	1265.202	1023.779
168.979	27.112	1264.900	1023.732
169.994	27.142	1263.837	1022.948
171.008	27.207	1263.086	1022.617
172.023	27.153	1262.239	1021.535
173.037	27.186	1261.886	1021.349
174.052	27.232	1260.462	1020.361
175.067	27.172	1260.371	1019.862
176.081	27.186	1259.404	1019.064
177.096	27.322	1258.434	1018.951
178.110	27.167	1257.731	1017.424
179.125	27.203	1256.479	1016.524
180.140	27.253	1255.656	1016.047
181.154	27.231	1254.673	1015.041
182.169	27.186	1253.412	1013.677
183.183	27.232	1252.256	1012.913
184.198	27.228	1251.433	1012.135
185.213	27.237	1250.511	1011.345
186.227	27.297	1249.685	1010.921
187.242	27.271	1248.813	1009.983
188.256	27.232	1248.255	1009.228
189.271	27.239	1247.232	1008.348
190.286	27.297	1246.479	1007.973
191.300	27.219	1246.034	1007.091
192.315	27.139	1245.923	1006.471
193.329	27.304	1244.833	1006.414
194.344	27.348	1244.178	1006.038
195.359	27.326	1243.875	1005.583
196.373	27.275	1243.415	1004.842
197.388	27.171	1243.238	1004.033
198.402	27.216	1242.464	1003.566
199.417	27.177	1242.560	1003.343
200.432	27.282	1242.015	1003.394
201.446	27.209	1241.349	1002.362
202.461	27.289	1240.233	1001.814
203.475	27.321	1239.287	1001.138
204.490	27.312	1238.321	1000.218
205.504	27.230	1237.451	998.976
206.519	27.419	1236.404	999.082
207.534	27.306	1235.683	997.792
208.548	27.187	1235.189	996.651
209.563	27.327	1234.147	996.490
210.577	27.367	1233.192	995.845
211.592	27.253	1233.092	995.055
212.607	27.365	1231.690	994.448
213.621	27.425	1230.796	993.963
214.636	27.360	1230.298	993.119
215.650	27.368	1229.798	992.672
216.665	27.345	1228.620	991.508
217.680	27.299	1227.492	990.261
218.694	27.445	1226.632	990.275
219.709	27.554	1225.790	990.099
220.723	27.424	1225.397	988.986
221.738	27.446	1224.616	988.386
222.753	27.350	1223.842	987.153
223.767	27.368	1223.749	987.088
224.782	27.377	1223.040	986.480
225.796	27.440	1222.615	986.389
226.811	27.471	1221.748	985.771
227.826	27.457	1221.111	985.094
228.840	27.446	1220.922	984.794
229.855	27.415	1220.114	983.887
230.869	27.489	1219.173	983.446
231.884	27.496	1218.280	982.674
232.899	27.424	1217.983	981.957
233.913	27.461	1217.696	981.840
234.928	27.693	1216.499	982.040
235.942	27.627	1216.252	981.393
236.957	27.556	1215.457	980.288
237.972	27.659	1214.448	979.941
238.986	27.525	1214.104	978.853
240.001	27.615	1213.305	978.607
241.015	27.654	1212.700	978.243
242.030	27.683	1211.847	977.624
243.045	27.703	1211.429	977.303
244.059	27.671	1210.885	976.609
245.074	27.746	1209.643	975.922
246.088	27.696	1208.935	974.998
247.103	27.629	1208.451	974.163
248.117	27.660	1207.149	973.190
249.132	27.731	1206.475	972.942
250.147	27.699	1206.012	972.310
251.161	27.851	1205.019	972.233
252.176	27.795	1204.280	971.254
253.190	27.815	1203.697	970.804
254.205	27.674	1203.466	969.785
255.220	27.761	1202.818	969.638
256.234	27.784	1201.967	968.989
257.249	27.808	1201.334	968.516
258.263	27.794	1200.985	968.076
259.278	27.781	1200.648	967.650
260.293	27.817	1200.032	967.261
261.307	27.794	1199.387	966.534
262.322	27.867	1198.519	966.135
263.336	27.887	1197.649	965.455
264.351	27.673	1197.587	964.187
265.366	27.856	1196.685	964.339
266.380	27.743	1196.077	963.167
267.395	27.846	1195.398	963.081
268.409	27.755	1195.102	962.276
269.424	27.701	1194.619	961.518
270.439	27.877	1193.712	961.631
271.453	27.786	1193.384	960.799
272.468	27.875	1192.297	960.308
273.482	27.874	1191.248	959.374
274.497	27.832	1191.287	959.098
275.512	28.009	1190.418	959.242
276.526	27.910	1190.151	958.422
277.541	27.905	1189.420	957.728
278.555	27.924	1188.814	957.253
279.570	27.877	1188.055	956.309
280.585	27.874	1187.002	955.364
281.599	27.926	1185.980	954.727
282.614	27.911	1185.470	954.156
283.628	27.997	1184.629	953.840
284.643	27.784	1184.614	952.634
285.657	27.941	1182.751	951.871
286.672	27.820	1182.302	950.794
287.687	27.997	1181.236	950.772
288.701	28.049	1180.554	950.412
289.716	28.082	1179.844	949.923
290.730	28.031	1179.152	949.021
291.745	28.062	1178.663	948.701
292.760	27.980	1178.314	947.910
293.774	28.055	1177.766	947.775
294.789	28.040	1177.007	947.001
295.803	28.141	1176.203	946.797
296.818	28.224	1175.478	946.558
297.833	28.188	1174.738	945.695
298.847	28.241	1174.577	945.751
299.862	28.081	1173.551	944.017
300.876	28.107	1172.709	943.392
301.891	28.127	1172.727	943.423
302.906	28.244	1171.787	943.189
303.920	28.288	1170.964	942.670
304.935	28.211	1170.601	941.897
305.949	28.190	1169.959	941.191
306.964	28.275	1169.232	940.957
307.979	28.329	1168.267	940.377
308.993	28.339	1167.720	939.905
310.008	28.223	1167.117	938.741
311.022	28.291	1166.406	938.435
312.037	28.258	1165.647	937.571
313.052	28.160	1164.981	936.452
314.066	28.241	1163.728	935.776
315.081	28.258	1163.060	935.240
316.095	28.228	1162.960	934.923
317.110	28.273	1162.053	934.343
318.125	28.272	1161.606	933.897
319.139	28.313	1161.301	933.778
320.154	28.281	1160.451	932.847
321.168	28.261	1159.682	932.047
322.183	28.298	1159.113	931.694
323.197	28.304	1158.687	931.297
324.212	28.241	1158.109	930.429
325.227	28.446	1157.369	930.797
326.241	28.436	1156.696	930.120
327.256	28.350	1156.532	929.473
328.270	28.397	1155.758	929.003
329.285	28.338	1154.843	927.889
330.300	28.436	1153.698	927.383
331.314	28.492	1152.982	927.006
332.329	28.537	1152.037	926.394
333.343	28.630	1151.416	926.282
334.358	28.627	1150.581	925.514
335.373	28.599	1149.892	924.737
336.387	28.512	1149.425	923.839
337.402	28.485	1148.775	923.100
338.416	28.544	1148.071	922.750
339.431	28.569	1147.605	922.417
340.446	28.459	1147.130	921.401
341.460	28.519	1146.461	921.083
342.475	28.520	1145.695	920.390
343.489	28.479	1144.878	919.451
344.504	28.729	1143.377	919.415
345.519	28.688	1143.082	918.889
346.533	28.588	1142.416	917.772
347.548	28.647	1141.729	917.434
348.562	28.598	1140.666	916.258
349.577	28.685	1140.224	916.251
350.592	28.591	1139.307	914.967
351.606	28.603	1138.846	914.573
352.621	28.615	1138.374	914.176
353.635	28.740	1137.331	913.880
354.650	28.670	1137.168	913.318
355.665	28.588	1136.516	912.308
356.679	28.735	1135.557	912.186
357.694	28.770	1135.071	911.887
358.708	28.795	1134.638	911.585
359.723	28.683	1133.768	910.248
360.738	28.792	1132.723	909.869
361.752	28.906	1132.408	910.102
362.767	28.764	1132.047	909.025
363.781	28.820	1131.493	908.781
364.796	28.819	1130.849	908.176
365.810	28.894	1130.301	908.027
366.825	28.781	1129.779	906.970
367.840	29.008	1128.987	907.371
368.854	28.999	1128.622	906.956
369.869	28.959	1127.936	906.126
370.883	28.889	1127.329	905.211
371.898	28.868	1126.678	904.508
372.913	29.013	1125.490	904.188
373.927	28.999	1125.157	903.770
374.942	28.944	1124.812	903.140
375.956	29.030	1124.036	902.863
376.971	28.994	1123.798	902.413
377.986	29.031	1123.433	902.223
379.000	28.983	1122.729	901.342
380.015	28.986	1122.174	900.832
381.029	28.988	1121.553	900.261
382.044	29.053	1120.737	899.846
383.059	29.173	1120.161	899.890
384.073	29.167	1119.509	899.255
385.088	29.134	1118.790	898.441
386.102	29.084	1117.791	897.315
387.117	29.052	1117.028	896.468
388.132	29.113	1116.137	895.970
389.146	29.183	1115.192	895.472
390.161	29.156	1114.654	894.827
391.175	29.194	1114.170	894.546
392.190	29.098	1113.904	893.787
393.205	29.125	1112.857	892.997
394.219	29.142	1112.599	892.796
395.234	29.229	1111.742	892.448
396.248	29.143	1110.526	890.978
397.263	29.297	1109.359	890.706
398.278	29.188	1109.395	890.131
399.292	29.230	1108.829	889.801
400.307	29.142	1108.065	888.684
401.321	29.330	1106.957	888.620
402.336	29.202	1106.734	887.750
403.350	29.262	1106.393	887.688
404.365	29.264	1105.672	887.037
405.380	29.415	1104.668	886.882
406.394	29.350	1103.757	885.757
407.409	29.430	1102.988	885.447
408.423	29.463	1102.298	884.971
409.438	29.513	1101.157	884.216
410.453	29.371	1101.207	883.497
411.467	29.361	1100.802	883.049
412.482	29.306	1100.026	882.085
413.496	29.387	1098.980	881.557
414.511	29.361	1098.748	881.164
415.526	29.391	1098.188	880.781
416.540	29.468	1098.029	880.944
417.555	29.495	1097.206	880.337
418.569	29.501	1096.947	880.080
419.584	29.501	1096.116	879.334
420.599	29.539	1095.908	879.271
421.613	101.059	1319.902	1448.521
422.628	94.333	1352.542	1448.624
