DTS Sentinel unit serial number:	SN413079Multiplexer serial number:	ORYXHardware model number:	OX4-SRSoftware version number:	ORYX F/W v4.00 Oryx Data Collector v3.7.2.0data status	okinstallation	princeton_trtdifferential loss correction	single-endedforward channel	channel 2reverse channel	N/Adate	2019/09/15time	10:27:35forward acquisition time	60.00reverse acquisition time	0.00gamma	496.2192k internal	0.2316k external	0.2316temperature offset calibration	1.0016default loss term (dB/km)	0.3790temperature slope calibration	1.0000multiplexer offset coefficient	1.0000multiplexer slope coefficient	1.0000fibre end	0.00T internal ref (°C)	34.25T ext. ref 1 (°C)	5.05T ext. ref 2 (°C)	29.45length (m)	temperature (°C)	Stokes	anti-Stokes-747.200	-105.909	0.144	0.033
-746.185	599.444	-0.097	0.245
-745.171	600.802	-0.008	-0.019
-744.156	-200.000	0.031	-0.247
-743.142	497.091	0.106	-0.248
-742.127	23.087	-0.339	0.281
-741.112	800.000	-0.113	0.483
-740.098	-44.626	-0.248	-0.126
-739.083	-200.000	0.023	0.168
-738.069	30.039	0.186	0.161
-737.054	175.155	0.104	-0.152
-736.039	-107.805	-0.267	-0.059
-735.025	-152.701	0.263	0.019
-734.010	159.532	-0.178	-0.251
-732.996	76.312	0.084	0.091
-731.981	-78.578	0.236	0.082
-730.966	-200.000	0.005	-0.241
-729.952	-27.065	-0.131	-0.077
-728.937	137.813	-0.030	0.040
-727.923	-111.944	-0.142	0.029
-726.908	-140.251	-0.242	0.026
-725.894	99.263	0.018	0.021
-724.879	-132.084	0.154	0.020
-723.864	-47.745	-0.207	-0.102
-722.850	-61.082	0.047	-0.020
-721.835	-59.660	-0.123	-0.054
-720.821	-200.000	-0.035	0.300
-719.806	-200.000	-0.019	-0.116
-718.791	800.000	-0.090	-0.262
-717.777	-113.476	0.225	-0.045
-716.762	-200.000	0.022	0.386
-715.748	-200.000	0.019	-0.137
-714.733	-131.744	-0.266	-0.035
-713.718	34.629	0.266	-0.235
-712.704	-105.235	-0.090	0.021
-711.689	41.042	0.181	-0.166
-710.675	-158.345	-0.184	0.011
-709.660	-125.802	-0.318	-0.049
-708.645	-104.726	-0.128	-0.030
-707.631	89.723	0.211	-0.238
-706.616	331.836	0.103	-0.200
-705.602	-200.000	-0.138	0.000
-704.587	95.992	-0.087	-0.100
-703.572	-5.986	-0.031	0.021
-702.558	-131.257	-0.294	-0.039
-701.543	-191.350	0.202	-0.002
-700.529	87.412	0.195	0.218
-699.514	-200.000	-0.056	0.380
-698.499	624.146	-0.059	-0.150
-697.485	-200.000	-0.002	-0.055
-696.470	139.229	-0.141	0.187
-695.456	48.347	-0.141	0.133
-694.441	-103.732	0.107	0.025
-693.426	-200.000	0.003	-0.111
-692.412	143.375	0.123	-0.166
-691.397	-183.681	0.172	0.003
-690.383	-52.459	0.384	-0.179
-689.368	-97.628	-0.144	-0.038
-688.354	-200.000	0.014	-0.067
-687.339	-200.000	0.070	0.000
-686.324	482.231	0.115	0.263
-685.310	-119.014	-0.315	0.056
-684.295	192.660	-0.176	-0.269
-683.281	102.571	0.119	-0.140
-682.266	-131.957	-0.451	-0.059
-681.251	49.524	-0.070	-0.066
-680.237	240.583	0.096	0.162
-679.222	94.356	0.147	0.168
-678.208	598.275	0.092	-0.231
-677.193	21.062	0.297	0.244
-676.178	15.924	0.353	0.281
-675.164	-81.179	-0.521	-0.174
-674.149	373.305	0.097	-0.199
-673.135	462.874	-0.100	0.225
-672.120	-95.231	-0.353	0.096
-671.105	-200.000	0.015	0.072
-670.091	245.119	0.160	0.271
-669.076	-17.651	0.172	-0.109
-668.062	247.415	-0.060	-0.102
-667.047	109.205	-0.049	0.060
-666.032	-74.811	-0.098	-0.035
-665.018	-144.102	0.201	0.019
-664.003	629.617	0.126	-0.322
-662.989	-27.211	-0.119	-0.070
-661.974	28.017	0.132	0.112
-660.959	-80.530	0.180	-0.060
-659.945	-14.654	-0.272	0.176
-658.930	-86.045	-0.179	0.056
-657.916	623.505	-0.089	-0.227
-656.901	-2.484	-0.090	0.063
-655.886	-100.959	-0.130	0.032
-654.872	800.000	-0.068	0.200
-653.857	191.750	0.059	0.089
-652.843	-153.958	-0.289	-0.020
-651.828	-158.663	-0.300	-0.017
-650.814	-103.373	-0.446	0.106
-649.799	800.000	0.092	0.269
-648.784	-22.991	-0.084	0.051
-647.770	-200.000	0.394	-0.001
-646.755	800.000	0.013	0.038
-645.741	1.797	0.153	0.112
-644.726	-200.000	-0.003	0.254
-643.711	80.961	0.141	0.153
-642.697	736.788	-0.070	0.188
-641.682	-90.881	-0.027	0.008
-640.668	-56.946	0.256	-0.114
-639.653	28.451	0.157	0.134
-638.638	321.691	0.154	-0.296
-637.624	56.055	0.197	0.193
-636.609	440.690	-0.069	-0.152
-635.595	16.513	-0.062	0.050
-634.580	-72.917	-0.296	0.110
-633.565	163.608	0.152	-0.216
-632.551	-60.256	-0.196	0.084
-631.536	800.000	0.110	-0.344
-630.522	-200.000	0.019	0.153
-629.507	-55.469	0.023	0.010
-628.492	-140.561	-0.220	0.023
-627.478	147.010	0.208	0.283
-626.463	-200.000	-0.004	0.108
-625.449	-101.710	-0.316	-0.077
-624.434	-39.836	-0.198	0.104
-623.419	36.315	0.115	0.102
-622.405	642.394	-0.038	0.097
-621.390	103.059	0.171	-0.202
-620.376	134.117	0.104	-0.136
-619.361	-146.196	-0.368	-0.033
-618.346	127.841	-0.073	0.094
-617.332	-97.112	0.030	0.008
-616.317	1.840	-0.162	-0.118
-615.303	-53.794	0.101	-0.046
-614.288	-2.926	-0.224	0.157
-613.273	-172.139	-0.032	0.001
-612.259	-200.000	0.036	-0.310
-611.244	149.840	0.066	0.090
-610.230	800.000	0.045	0.131
-609.215	-200.000	0.061	-0.289
-608.201	111.286	0.038	-0.046
-607.186	156.134	-0.279	0.387
-606.171	-54.991	-0.172	0.078
-605.157	-200.000	0.020	0.099
-604.142	800.000	0.052	0.194
-603.128	-146.153	-0.219	-0.019
-602.113	-94.441	0.046	-0.013
-601.098	-14.425	-0.402	0.261
-600.084	-81.155	-0.085	0.028
-599.069	53.203	-0.132	-0.127
-598.055	800.000	0.157	-0.508
-597.040	-14.699	0.240	-0.156
-596.025	-64.366	-0.190	0.078
-595.011	155.863	0.092	-0.127
-593.996	-39.442	0.204	-0.107
-592.982	-55.407	0.125	0.056
-591.967	-88.183	0.041	0.012
-590.952	-200.000	0.003	-0.066
-589.938	107.256	-0.191	0.228
-588.923	-33.986	-0.255	-0.141
-587.909	-200.000	0.045	0.293
-586.894	10.573	0.207	-0.159
-585.879	196.896	0.145	0.223
-584.865	-131.756	-0.188	0.025
-583.850	170.782	0.021	0.031
-582.836	-26.412	0.360	-0.213
-581.821	42.079	0.118	-0.107
-580.806	-44.133	-0.462	0.234
-579.792	294.979	0.048	0.089
-578.777	-194.781	-0.285	-0.002
-577.763	374.572	-0.123	-0.252
-576.748	84.650	0.086	0.095
-575.733	-200.000	0.069	-0.410
-574.719	-98.573	0.186	0.048
-573.704	-117.094	-0.270	0.049
-572.690	-200.000	-0.002	-0.255
-571.675	-72.269	-0.191	0.071
-570.661	49.835	0.204	-0.194
-569.646	2.185	-0.054	-0.039
-568.631	11.560	-0.057	-0.044
-567.617	-200.000	-0.026	-0.198
-566.602	201.378	-0.142	-0.220
-565.588	-45.059	0.246	-0.123
-564.573	0.719	-0.239	0.172
-563.558	-200.000	-0.032	-0.356
-562.544	126.799	-0.174	0.222
-561.529	327.462	0.104	-0.200
-560.515	35.079	-0.239	-0.210
-559.500	-96.930	0.086	0.023
-558.485	-9.076	0.277	-0.187
-557.471	146.911	0.023	-0.032
-556.456	-58.336	-0.221	0.097
-555.442	449.603	-0.127	0.282
-554.427	-39.295	-0.260	0.137
-553.412	119.590	-0.065	-0.081
-552.398	120.149	0.206	-0.258
-551.383	-132.919	-0.158	0.020
-550.369	-100.835	0.373	-0.092
-549.354	572.619	-0.160	-0.392
-548.339	58.193	0.258	-0.255
-547.325	21.714	0.112	0.092
-546.310	-68.031	-0.211	0.083
-545.296	-8.570	-0.243	0.164
-544.281	7.920	-0.113	0.085
-543.266	-54.268	0.237	-0.108
-542.252	773.095	-0.048	-0.132
-541.237	65.210	0.247	-0.251
-540.223	800.000	0.063	-0.176
-539.208	800.000	-0.023	-0.089
-538.193	228.112	-0.085	-0.139
-537.179	-47.154	0.113	-0.056
-536.164	-42.006	-0.157	0.081
-535.150	-94.434	-0.261	0.072
-534.135	8.846	-0.058	0.044
-533.121	-69.385	-0.303	-0.117
-532.106	-58.553	0.170	-0.074
-531.091	228.271	-0.128	0.210
-530.077	-96.745	0.111	-0.029
-529.062	-200.000	-0.028	0.170
-528.048	313.332	-0.163	-0.308
-527.033	282.641	0.238	-0.428
-526.018	179.035	0.162	-0.238
-525.004	-200.000	0.102	-0.485
-523.989	-53.098	-0.221	0.102
-522.975	-6.511	0.222	-0.152
-521.960	-200.000	0.015	0.113
-520.945	340.245	-0.097	-0.191
-519.931	77.523	0.214	-0.229
-518.916	-27.415	-0.101	0.059
-517.902	-67.682	-0.316	0.124
-516.887	-200.000	0.003	-0.137
-515.872	-57.884	-0.171	0.075
-514.858	-200.000	0.054	0.333
-513.843	288.522	-0.154	0.280
-512.829	-104.293	-0.045	0.010
-511.814	504.995	0.086	-0.199
-510.799	800.000	0.085	-0.243
-509.785	-59.498	-0.078	-0.034
-508.770	-75.833	0.101	-0.036
-507.756	-200.000	0.011	-0.181
-506.741	-60.177	-0.178	-0.076
-505.726	-200.000	-0.030	-0.178
-504.712	-198.415	0.154	-0.001
-503.697	-200.000	0.018	0.123
-502.683	234.313	-0.235	0.388
-501.668	461.065	0.092	0.205
-500.653	-26.114	-0.272	-0.160
-499.639	-111.808	0.135	-0.027
-498.624	-28.483	-0.166	0.096
-497.610	-60.775	0.216	-0.092
-496.595	-200.000	0.002	0.047
-495.581	-200.000	0.012	-0.057
-494.566	278.920	-0.099	0.177
-493.551	-3.408	-0.122	0.085
-492.537	-156.410	0.666	-0.042
-491.522	314.205	-0.178	0.335
-490.508	370.386	-0.106	0.216
-489.493	-66.410	0.377	0.150
-488.478	241.655	-0.130	-0.219
-487.464	-67.168	0.124	0.049
-486.449	-200.000	-0.017	-0.091
-485.435	199.270	-0.204	-0.314
-484.420	-178.091	-0.356	-0.008
-483.405	216.059	-0.133	0.212
-482.391	160.544	-0.143	0.200
-481.376	-123.107	-0.293	0.047
-480.362	-200.000	0.021	-0.147
-479.347	239.030	-0.034	0.057
-478.332	-18.949	0.020	-0.013
-477.318	319.839	0.109	0.207
-476.303	125.126	-0.224	0.283
-475.289	-200.000	0.021	-0.195
-474.274	-172.709	-0.231	-0.007
-473.259	-61.480	0.207	0.087
-472.245	-108.237	0.210	0.045
-471.230	-4.784	-0.261	0.180
-470.216	-200.000	-0.006	-0.052
-469.201	21.873	0.269	-0.220
-468.186	-83.749	-0.293	0.094
-467.172	-38.212	-0.135	-0.072
-466.157	160.131	-0.079	0.111
-465.143	-41.251	-0.195	-0.101
-464.128	1.204	-0.214	0.154
-463.113	-83.856	0.164	0.052
-462.099	102.528	-0.259	-0.304
-461.084	-75.871	0.061	-0.022
-460.070	-200.000	-0.025	-0.120
-459.055	-33.704	0.197	-0.109
-458.040	122.124	0.306	0.383
-457.026	261.727	0.127	-0.221
-456.011	4.506	0.179	-0.131
-454.997	116.825	-0.048	0.059
-453.982	481.284	0.180	-0.409
-452.968	-148.384	-0.110	0.009
-451.953	85.833	-0.097	0.107
-450.938	800.000	0.039	0.149
-449.924	150.327	-0.134	-0.182
-448.909	-139.077	0.452	-0.049
-447.895	128.374	0.236	0.301
-446.880	28.253	0.434	-0.367
-445.865	-130.708	0.171	0.023
-444.851	-169.491	-0.040	0.001
-443.836	-40.433	0.205	-0.107
-442.822	72.521	0.153	0.159
-441.807	-200.000	-0.003	-0.176
-440.792	-10.375	0.315	0.209
-439.778	-36.192	0.080	-0.043
-438.763	-56.024	0.026	0.012
-437.749	800.000	0.062	0.221
-436.734	349.643	0.042	0.083
-435.719	-200.000	-0.009	0.207
-434.705	328.560	0.024	-0.046
-433.690	-15.252	-0.051	0.033
-432.676	-200.000	-0.001	-0.142
-431.661	-44.192	-0.190	-0.095
-430.646	575.892	0.209	0.512
-429.632	70.742	0.153	0.158
-428.617	76.858	-0.073	0.078
-427.603	-200.000	0.015	-0.151
-426.588	-124.348	-0.416	0.065
-425.573	34.110	-0.337	-0.294
-424.559	71.633	0.193	0.201
-423.544	91.522	-0.058	-0.065
-422.530	-200.000	-0.010	-0.193
-421.515	-110.636	-0.583	-0.121
-420.500	800.000	0.065	0.210
-419.486	-117.625	-0.255	-0.046
-418.471	179.386	-0.181	0.265
-417.457	-47.691	-0.103	0.050
-416.442	-200.000	-0.012	-0.486
-415.428	800.000	0.067	-0.242
-414.413	-200.000	-0.019	-0.089
-413.398	-78.619	0.050	-0.017
-412.384	70.843	-0.116	0.120
-411.369	72.360	-0.089	0.093
-410.355	-47.772	-0.219	0.106
-409.340	303.284	-0.199	0.368
-408.325	-10.879	-0.367	0.242
-407.311	-200.000	0.015	0.072
-406.296	-81.740	-0.082	-0.027
-405.282	77.610	0.089	-0.095
-404.267	-40.744	0.168	-0.087
-403.252	-200.000	-0.001	0.312
-402.238	-191.819	-0.105	0.001
-401.223	-16.254	0.064	-0.041
-400.209	-200.000	0.012	-0.526
-399.194	86.759	0.072	-0.079
-398.179	-25.131	-0.191	0.113
-397.165	800.000	0.026	-0.113
-396.150	-135.773	-0.245	0.029
-395.136	64.944	-0.119	0.120
-394.121	53.459	0.205	-0.197
-393.106	-96.282	-0.144	-0.038
-392.092	27.140	-0.090	-0.076
-391.077	62.702	-0.133	-0.133
-390.063	800.000	-0.081	0.285
-389.048	200.329	-0.123	0.188
-388.033	-67.103	-0.195	-0.077
-387.019	13.843	0.333	0.259
-386.004	-101.076	-0.364	-0.089
-384.990	800.000	0.120	-0.434
-383.975	59.318	-0.058	0.057
-382.960	91.486	0.165	0.185
-381.946	-82.721	-0.226	0.073
-380.931	-3.433	0.213	0.148
-379.917	-200.000	0.012	0.134
-378.902	1.067	0.214	-0.153
-377.888	-15.841	-0.171	-0.109
-376.873	-200.000	-0.007	-0.184
-375.858	800.000	-0.043	-0.185
-374.844	454.553	-0.063	-0.140
-373.829	-200.000	-0.017	-0.191
-372.815	628.423	0.035	-0.088
-371.800	-149.252	0.199	-0.016
-370.785	-83.867	0.465	-0.148
-369.771	91.973	-0.111	-0.125
-368.756	208.072	0.100	-0.155
-367.742	-200.000	-0.010	0.117
-366.727	479.143	0.023	0.052
-365.712	-125.802	0.118	0.018
-364.698	178.254	0.182	-0.265
-363.683	194.837	0.101	-0.153
-362.669	-91.439	-0.210	0.060
-361.654	-53.980	0.158	0.072
-360.639	-166.367	-0.255	0.011
-359.625	-28.162	-0.423	0.244
-358.610	204.078	0.113	0.174
-357.596	800.000	0.035	-0.127
-356.581	345.967	-0.087	0.171
-355.566	-103.247	0.256	0.060
-354.552	40.072	-0.096	0.086
-353.537	205.356	-0.115	0.178
-352.523	270.966	-0.144	0.253
-351.508	800.000	0.078	-0.229
-350.493	187.222	-0.169	-0.252
-349.479	436.962	0.086	0.187
-348.464	-83.982	0.298	0.094
-347.450	109.555	0.211	0.252
-346.435	-66.120	0.308	-0.122
-345.420	-200.000	0.023	-0.434
-344.406	-169.540	-0.126	-0.005
-343.391	712.968	-0.082	-0.218
-342.377	3.620	0.124	0.090
-341.362	44.846	0.030	-0.028
-340.348	561.166	0.066	0.160
-339.333	-144.371	-0.063	-0.006
-338.318	26.736	0.291	0.243
-337.304	150.398	0.035	-0.047
-336.289	-200.000	-0.011	0.092
-335.275	800.000	-0.032	-0.114
-334.260	524.601	0.064	-0.151
-333.245	201.908	0.131	-0.201
-332.231	106.257	0.061	0.072
-331.216	544.376	-0.058	-0.138
-330.202	61.966	-0.108	0.107
-329.187	-114.056	-0.192	-0.037
-328.172	669.330	-0.054	-0.140
-327.158	447.406	-0.064	0.140
-326.143	-200.000	0.046	-0.222
-325.129	122.766	0.077	-0.095
-324.114	124.936	-0.077	0.097
-323.099	201.405	0.064	-0.099
-322.085	106.235	0.137	0.162
-321.070	292.119	0.193	0.350
-320.056	-170.363	0.196	0.007
-319.041	-200.000	0.018	0.156
-318.026	-148.732	-0.215	0.017
-317.012	-29.479	0.061	0.035
-315.997	-98.715	0.509	-0.129
-314.983	-5.991	0.181	0.123
-313.968	-200.000	-0.035	0.268
-312.953	-105.333	-0.393	-0.089
-311.939	83.566	-0.185	-0.201
-310.924	11.653	-0.120	0.092
-309.910	-56.225	-0.087	-0.039
-308.895	800.000	0.086	0.245
-307.880	625.488	-0.117	0.295
-306.866	104.854	0.123	-0.144
-305.851	-113.710	-0.227	0.044
-304.837	1.864	-0.101	0.073
-303.822	-200.000	0.030	-0.134
-302.807	-106.186	0.046	0.010
-301.793	13.832	-0.067	-0.052
-300.778	-58.374	0.322	-0.140
-299.764	-200.000	-0.004	-0.144
-298.749	139.973	-0.097	-0.127
-297.735	-164.609	0.296	0.013
-296.720	175.933	-0.160	0.231
-295.705	800.000	-0.058	-0.223
-294.691	-94.467	0.096	-0.026
-293.676	-20.220	-0.169	0.103
-292.662	4.996	0.361	0.265
-291.647	-91.796	0.279	0.079
-290.632	-7.612	-0.233	-0.156
-289.618	-25.967	0.205	0.120
-288.603	425.927	-0.216	0.462
-287.589	-46.605	-0.223	0.109
-286.574	46.670	0.164	0.151
-285.559	49.379	-0.013	0.012
-284.545	-200.000	0.029	-0.270
-283.530	-120.632	0.486	0.082
-282.516	-58.115	0.308	-0.133
-281.501	-189.529	-0.257	-0.003
-280.486	-183.613	0.208	0.004
-279.472	-106.744	0.316	0.070
-278.457	42.518	-0.044	0.040
-277.443	-71.616	-0.183	0.068
-276.428	-104.408	0.123	-0.028
-275.413	800.000	-0.032	-0.104
-274.399	388.241	-0.060	-0.124
-273.384	-71.777	-0.342	0.127
-272.370	93.024	0.145	0.163
-271.355	-200.000	0.091	0.523
-270.340	142.073	0.062	0.081
-269.326	800.000	0.102	0.293
-268.311	-134.655	0.335	-0.041
-267.297	72.823	-0.122	0.126
-266.282	304.578	0.205	-0.379
-265.267	-46.410	0.059	-0.029
-264.253	203.427	0.113	0.174
-263.238	132.159	0.120	-0.154
-262.224	800.000	0.073	0.275
-261.209	4.027	0.072	-0.053
-260.195	-200.000	0.008	-0.152
-259.180	368.284	0.120	0.242
-258.165	800.000	-0.071	0.239
-257.151	-200.000	-0.001	-0.256
-256.136	189.719	0.090	0.134
-255.122	363.906	0.044	-0.089
-254.107	127.885	-0.125	0.158
-253.092	-200.000	-0.005	0.209
-252.078	508.351	-0.094	-0.217
-251.063	-96.005	-0.150	0.040
-250.049	-85.800	0.021	0.007
-249.034	328.479	0.109	-0.209
-248.019	800.000	-0.022	0.068
-247.005	-10.995	0.112	-0.073
-245.990	800.000	0.131	-0.381
-244.976	13.792	0.131	-0.101
-243.961	77.121	-0.071	0.075
-242.946	201.856	0.131	-0.201
-241.932	274.942	-0.147	-0.259
-240.917	42.178	-0.044	0.039
-239.903	800.000	0.024	-0.100
-238.888	-61.168	0.240	-0.100
-237.873	-200.000	-0.039	0.251
-236.859	800.000	-0.052	0.188
-235.844	-200.000	0.007	0.082
-234.830	342.719	-0.176	0.343
-233.815	-36.899	-0.040	0.021
-232.800	-121.788	-0.116	0.019
-231.786	-200.000	0.001	0.062
-230.771	129.487	-0.134	-0.170
-229.757	41.646	0.067	0.061
-228.742	-200.000	0.111	0.000
-227.727	183.594	0.157	-0.230
-226.713	-97.943	0.107	-0.027
-225.698	-200.000	-0.033	0.183
-224.684	-43.553	0.291	0.146
-223.669	-200.000	-0.041	0.259
-222.655	-25.588	0.217	0.127
-221.640	-65.310	0.249	-0.100
-220.625	800.000	0.060	-0.170
-219.611	-200.000	-0.008	-0.266
-218.596	800.000	-0.042	0.124
-217.582	-117.915	0.174	-0.031
-216.567	-113.292	0.175	0.034
-215.552	-40.978	0.249	-0.128
-214.538	295.952	0.083	0.150
-213.523	-5.629	-0.086	-0.058
-212.509	-200.000	-0.036	0.237
-211.494	-117.293	-0.196	0.035
-210.479	-94.714	-0.183	-0.049
-209.465	-200.000	-0.064	0.480
-208.450	118.407	-0.176	-0.215
-207.436	401.428	0.080	-0.166
-206.421	-134.813	0.180	-0.022
-205.406	-92.760	-0.252	-0.070
-204.392	-48.949	-0.101	0.048
-203.377	-115.303	-0.270	0.051
-202.363	-64.500	-0.258	-0.104
-201.348	104.568	0.120	-0.141
-200.333	30.246	-0.171	0.145
-199.319	-144.676	0.190	0.017
-198.304	800.000	0.031	-0.107
-197.290	-125.175	-0.190	0.029
-196.275	-30.191	0.346	-0.195
-195.260	-118.425	-0.224	-0.039
-194.246	-200.000	0.072	0.340
-193.231	-30.883	0.201	0.113
-192.217	179.157	-0.159	-0.230
-191.202	-67.713	0.304	0.118
-190.187	5.176	0.163	-0.119
-189.173	-27.452	0.183	0.105
-188.158	-102.962	-0.176	-0.041
-187.144	-132.553	-0.279	0.035
-186.129	-148.220	0.225	0.018
-185.114	328.657	-0.084	-0.161
-184.100	-30.217	-0.236	0.133
-183.085	751.064	-0.098	0.263
-182.071	-70.017	0.082	0.031
-181.056	17.898	-0.083	-0.066
-180.042	320.063	0.173	-0.325
-179.027	588.376	-0.128	0.314
-178.012	-200.000	0.006	0.240
-176.998	26.770	-0.233	-0.194
-175.983	-162.919	0.234	0.011
-174.969	192.787	-0.017	-0.025
-173.954	40.597	-0.452	-0.404
-172.939	166.157	-0.134	0.187
-171.925	-34.787	0.514	0.278
-170.910	-200.000	0.000	-0.003
-169.896	-99.099	0.181	0.045
-168.881	298.774	0.044	0.080
-167.866	98.312	-0.144	0.165
-166.852	22.339	-0.211	0.171
-165.837	800.000	0.027	-0.119
-164.823	800.000	-0.072	0.275
-163.808	-23.426	-0.171	-0.102
-162.793	20.634	0.128	0.102
-161.779	45.926	0.169	-0.155
-160.764	-184.427	-0.349	0.006
-159.750	-114.071	0.229	0.044
-158.735	-38.654	-0.361	-0.189
-157.720	111.168	-0.061	-0.073
-156.706	-152.683	0.238	-0.017
-155.691	390.985	-0.107	0.220
-154.677	521.904	0.170	-0.396
-153.662	164.520	-0.105	-0.147
-152.647	-200.000	-0.005	-0.052
-151.633	800.000	0.067	0.281
-150.618	-108.596	0.168	0.036
-149.604	158.403	0.083	0.114
-148.589	-44.767	0.091	-0.045
-147.574	-200.000	0.014	-0.214
-146.560	-200.000	0.016	-0.150
-145.545	502.505	0.053	-0.121
-144.531	133.874	-0.098	0.126
-143.516	-21.300	-0.488	-0.295
-142.502	-41.285	-0.263	0.134
-141.487	800.000	0.032	-0.111
-140.472	277.689	-0.138	-0.242
-139.458	102.476	0.130	-0.151
-138.443	271.035	-0.075	-0.131
-137.429	-200.000	0.011	-0.353
-136.414	455.273	0.122	-0.267
-135.399	23.019	-0.061	-0.050
-134.385	800.000	0.008	-0.031
-133.370	-114.002	0.276	-0.053
-132.356	322.671	-0.220	-0.415
-131.341	-88.624	0.178	-0.053
-130.326	289.437	0.044	-0.079
-129.312	238.988	0.114	0.187
-128.297	674.945	0.038	0.097
-127.283	-69.830	-0.334	0.126
-126.268	123.906	-0.155	0.192
-125.253	-53.023	-0.190	0.086
-124.239	-200.000	0.011	0.089
-123.224	-57.683	-0.246	0.106
-122.210	120.034	-0.041	-0.050
-121.195	31.741	0.189	0.161
-120.180	-97.869	-0.130	-0.033
-119.166	-66.394	0.205	-0.080
-118.151	-200.000	0.003	0.189
-117.137	15.928	-0.145	-0.113
-116.122	414.900	-0.093	0.196
-115.107	-200.000	0.001	-0.225
-114.093	800.000	-0.121	0.361
-113.078	56.765	-0.287	-0.276
-112.064	-197.715	0.467	0.003
-111.049	-91.301	-0.344	-0.097
-110.034	-124.462	0.058	0.009
-109.020	-122.809	-0.371	-0.059
-108.005	11.052	0.179	-0.135
-106.991	523.239	-0.076	-0.176
-105.976	-136.820	-0.157	0.018
-104.962	-106.913	0.164	0.036
-103.947	20.368	-0.253	0.202
-102.932	-200.000	0.032	0.275
-101.918	-1.172	0.072	-0.050
-100.903	-135.688	-0.194	0.023
-99.889	-192.848	0.165	0.001
-98.874	-200.000	0.035	0.181
-97.859	105.085	0.168	-0.196
-96.845	208.723	0.082	-0.127
-95.830	-200.000	-0.044	-0.213
-94.816	53.238	0.163	0.154
-93.801	46.806	0.212	0.195
-92.786	58.504	0.179	0.174
-91.772	-68.314	-0.208	-0.080
-90.757	281.260	-0.080	0.142
-89.743	382.578	-0.106	0.215
-88.728	317.118	0.061	-0.113
-87.713	800.000	0.122	0.515
-86.699	222.957	-0.080	0.128
-85.684	492.056	-0.149	0.337
-84.670	-16.500	0.247	-0.155
-83.655	14.941	-0.124	0.096
-82.640	-40.344	0.026	-0.014
-81.626	-80.534	-0.278	0.091
-80.611	-200.000	0.040	0.555
-79.597	-16.841	-0.149	-0.093
-78.582	800.000	0.027	0.091
-77.567	-200.000	0.028	-0.260
-76.553	800.000	0.046	0.187
-75.538	145.390	0.078	0.103
-74.524	-55.660	0.099	-0.044
-73.509	-90.277	-0.122	-0.035
-72.494	-90.476	0.132	0.038
-71.480	10.863	0.180	0.136
-70.465	-80.458	-0.142	-0.047
-69.451	-143.905	0.246	-0.023
-68.436	75.110	-0.053	-0.055
-67.422	-125.254	-0.154	0.023
-66.407	-200.000	0.281	0.000
-65.392	-101.634	-0.121	0.029
-64.378	388.865	-0.211	0.430
-63.363	279.842	0.227	-0.400
-62.349	341.373	0.126	-0.243
-61.334	43.872	-0.790	-0.714
-60.319	-43.677	0.452	0.225
-59.305	-200.000	-0.165	-0.937
-58.290	260.979	0.546	0.931
-57.276	471.281	0.844	1.872
-56.261	-200.000	97.575	574.317
-55.246	632.262	1402.595	3503.298
-54.232	186.029	2617.318	3837.738
-53.217	114.778	2310.564	2777.910
-52.203	43.856	1921.899	1735.514
-51.188	37.417	1709.072	1493.988
-50.173	34.698	1664.221	1434.334
-49.159	51.842	1712.353	1606.738
-48.144	55.048	1729.664	1647.301
-47.130	37.147	1686.716	1472.160
-46.115	34.303	1671.133	1437.084
-45.100	34.121	1666.521	1431.690
-44.086	34.166	1663.656	1429.509
-43.071	34.242	1660.606	1427.402
-42.057	33.967	1659.096	1423.993
-41.042	34.200	1656.566	1423.506
-40.027	34.097	1654.960	1421.301
-39.013	34.101	1652.422	1419.094
-37.998	33.967	1651.661	1417.384
-36.984	34.135	1649.682	1416.884
-35.969	34.259	1648.419	1416.663
-34.954	34.331	1646.304	1415.323
-33.940	34.236	1644.384	1412.909
-32.925	34.188	1642.790	1411.131
-31.911	34.185	1641.407	1409.866
-30.896	34.298	1639.120	1408.681
-29.881	34.311	1637.616	1407.427
-28.867	34.304	1635.730	1405.700
-27.852	34.204	1634.656	1403.985
-26.838	34.170	1632.965	1402.221
-25.823	34.226	1632.113	1401.846
-24.809	34.241	1630.257	1400.309
-23.794	34.256	1629.048	1399.323
-22.779	34.281	1627.181	1397.848
-21.765	34.253	1625.708	1396.324
-20.750	34.244	1624.219	1394.920
-19.736	34.352	1622.463	1394.147
-18.721	34.320	1621.385	1392.931
-17.706	34.329	1619.587	1391.402
-16.692	34.310	1617.928	1389.780
-15.677	34.326	1616.359	1388.495
-14.663	34.240	1615.711	1387.257
-13.648	34.216	1614.298	1385.813
-12.633	34.222	1612.882	1384.584
-11.619	34.291	1610.868	1383.305
-10.604	34.328	1608.973	1381.888
-9.590	34.376	1607.673	1381.064
-8.575	34.385	1606.664	1380.210
-7.560	34.231	1605.780	1378.285
-6.546	34.292	1604.633	1377.681
-5.531	34.354	1603.365	1376.988
-4.517	34.272	1602.394	1375.506
-3.502	34.165	1601.203	1373.660
-2.487	34.370	1599.392	1373.531
-1.473	34.114	1588.143	1361.979
-0.458	31.263	1568.317	1324.739
0.556	26.417	1567.905	1289.756
1.571	23.942	1591.414	1291.041
2.586	23.354	1604.634	1297.349
3.600	20.809	1553.001	1237.428
4.615	13.000	1444.052	1098.723
5.629	6.195	1379.901	1006.395
6.644	5.182	1371.959	994.066
7.659	5.074	1370.165	991.990
8.673	4.920	1369.582	990.498
9.688	5.004	1367.566	989.489
10.702	4.847	1364.878	986.458
11.717	8.134	1371.208	1011.834
12.731	15.710	1385.345	1070.585
13.746	19.582	1390.294	1099.000
14.761	18.623	1387.955	1090.961
15.775	17.568	1384.609	1081.537
16.790	16.505	1381.676	1072.412
17.804	15.634	1379.837	1065.371
18.819	15.190	1378.281	1061.264
19.834	14.920	1377.375	1058.765
20.848	14.740	1375.955	1056.438
21.863	14.537	1374.667	1054.073
22.877	14.389	1373.593	1052.223
23.892	14.258	1372.558	1050.510
24.907	14.219	1371.844	1049.624
25.921	14.306	1371.044	1049.469
26.936	14.361	1369.650	1048.658
27.950	14.486	1369.075	1048.911
28.965	14.499	1368.112	1048.157
29.980	14.492	1367.066	1047.223
30.994	14.614	1365.565	1046.748
32.009	14.649	1364.106	1045.754
33.023	14.614	1362.859	1044.486
34.038	14.604	1361.362	1043.185
35.053	14.508	1360.425	1041.773
36.067	14.531	1358.913	1040.670
37.082	14.583	1358.127	1040.298
38.096	14.595	1357.321	1039.666
39.111	14.612	1356.612	1039.134
40.126	14.480	1355.834	1037.625
41.140	14.249	1355.353	1035.726
42.155	14.325	1354.351	1035.344
43.169	14.234	1354.458	1034.769
44.184	14.281	1353.748	1034.423
45.199	14.198	1353.781	1033.846
46.213	14.312	1352.795	1033.704
47.228	14.447	1352.050	1033.885
48.242	14.402	1350.788	1032.550
49.257	14.372	1349.171	1031.034
50.271	14.498	1347.266	1030.263
51.286	14.478	1346.437	1029.418
52.301	14.402	1345.105	1027.837
53.315	14.429	1343.810	1026.926
54.330	14.338	1342.989	1025.645
55.344	14.275	1341.741	1024.212
56.359	14.203	1341.027	1023.135
57.374	14.193	1340.191	1022.344
58.388	14.153	1339.410	1021.413
59.403	14.234	1338.418	1021.066
60.417	14.222	1337.711	1020.362
61.432	14.141	1337.555	1019.658
62.447	14.185	1335.978	1018.632
63.461	14.073	1334.901	1017.035
64.476	14.167	1333.665	1016.578
65.490	14.149	1332.026	1015.127
66.505	14.007	1331.270	1013.595
67.520	14.191	1329.836	1013.536
68.534	14.156	1329.152	1012.713
69.549	14.242	1327.619	1011.982
70.563	14.234	1326.560	1011.032
71.578	14.115	1325.719	1009.583
72.593	14.087	1324.324	1008.259
73.607	13.960	1324.110	1007.237
74.622	14.098	1323.246	1007.326
75.636	14.027	1322.636	1006.343
76.651	14.045	1321.919	1005.817
77.666	13.971	1321.845	1005.221
78.680	14.098	1321.069	1005.310
79.695	14.152	1320.088	1004.807
80.709	14.153	1319.320	1004.139
81.724	14.186	1318.529	1003.646
82.739	14.246	1317.587	1003.202
83.753	14.318	1316.827	1002.966
84.768	14.390	1316.064	1002.729
85.782	14.461	1314.757	1002.071
86.797	14.452	1313.518	1000.987
87.812	14.363	1312.411	999.521
88.826	14.276	1311.692	998.364
89.841	14.375	1310.623	998.052
90.855	14.519	1308.783	997.422
91.870	14.430	1308.241	996.392
92.884	14.465	1307.256	995.762
93.899	14.473	1307.037	995.554
94.914	14.519	1305.605	994.651
95.928	14.740	1304.776	995.248
96.943	14.529	1304.313	993.548
97.957	14.530	1303.241	992.649
98.972	14.501	1301.851	991.331
99.987	14.365	1301.680	990.304
101.001	14.421	1300.456	989.617
102.016	14.436	1299.227	988.688
103.030	14.439	1298.717	988.227
104.045	14.523	1297.246	987.521
105.060	14.428	1296.302	986.152
106.074	14.256	1295.161	984.178
107.089	14.291	1293.128	982.751
108.103	14.280	1292.158	981.865
109.118	14.152	1291.027	980.165
110.133	14.191	1289.428	979.093
111.147	14.188	1288.201	978.057
112.162	14.230	1286.619	977.014
113.176	14.305	1285.672	976.652
114.191	14.287	1284.885	975.863
115.206	14.244	1283.824	974.718
116.220	14.303	1282.296	973.818
117.235	14.254	1281.171	972.591
118.249	14.208	1280.319	971.587
119.264	14.252	1278.908	970.688
120.279	14.255	1277.788	969.766
121.293	14.224	1276.608	968.607
122.308	14.255	1275.524	967.878
123.322	14.159	1274.903	966.762
124.337	14.098	1273.908	965.572
125.352	14.098	1272.502	964.421
126.366	14.243	1271.319	964.276
127.381	14.198	1270.138	963.034
128.395	14.239	1268.986	962.312
129.410	14.241	1268.285	961.706
130.424	14.222	1268.011	961.305
131.439	14.285	1266.674	960.570
132.454	14.318	1265.768	959.991
133.468	14.270	1265.052	959.083
134.483	14.345	1264.579	959.075
135.497	14.335	1263.354	958.001
136.512	14.376	1261.831	956.996
137.527	14.401	1260.785	956.261
138.541	14.443	1259.179	955.201
139.556	14.339	1258.198	953.776
140.570	14.464	1257.002	953.498
141.585	14.580	1255.449	952.900
142.600	14.505	1254.794	951.888
143.614	14.576	1254.001	951.613
144.629	14.472	1252.724	949.964
145.643	14.523	1251.933	949.570
146.658	14.475	1250.429	948.073
147.673	14.426	1249.414	946.943
148.687	14.329	1248.252	945.429
149.702	14.375	1246.652	944.390
150.716	14.348	1245.247	943.091
151.731	14.407	1243.808	942.251
152.746	14.312	1242.953	940.982
153.760	14.415	1241.822	940.626
154.775	14.418	1240.689	939.698
155.789	14.550	1239.762	939.657
156.804	14.466	1238.801	938.377
157.819	14.479	1237.882	937.667
158.833	14.607	1236.704	937.415
159.848	14.691	1235.657	937.006
160.862	14.637	1234.722	935.915
161.877	14.464	1233.806	934.168
162.892	14.451	1233.060	933.447
163.906	14.494	1231.913	932.739
164.921	14.603	1230.641	932.297
165.935	14.527	1229.987	931.295
166.950	14.570	1229.758	931.280
167.964	14.596	1228.630	930.491
168.979	14.558	1228.169	929.848
169.994	14.577	1227.487	929.356
171.008	14.551	1226.426	928.323
172.023	14.666	1225.627	928.278
173.037	14.780	1224.715	928.136
174.052	14.701	1224.190	927.220
175.067	14.561	1222.985	925.448
176.081	14.543	1221.934	924.469
177.096	14.633	1220.946	924.139
178.110	14.588	1219.750	922.904
179.125	14.636	1218.923	922.462
180.140	14.657	1217.752	921.607
181.154	14.670	1216.612	920.736
182.169	14.671	1215.160	919.560
183.183	14.738	1214.036	919.001
184.198	14.849	1212.855	918.631
185.213	14.748	1211.977	917.330
186.227	14.823	1210.596	916.617
187.242	14.892	1209.275	915.913
188.256	14.913	1209.124	915.831
189.271	14.878	1207.808	914.563
190.286	14.766	1206.409	912.810
191.300	14.494	1205.930	910.885
192.315	14.532	1204.957	910.277
193.329	14.608	1203.940	909.839
194.344	14.635	1203.462	909.545
195.359	14.679	1203.097	909.428
196.373	14.733	1202.789	909.411
197.388	14.792	1202.022	909.069
198.402	15.070	1201.397	910.026
199.417	15.022	1200.859	909.282
200.432	15.164	1200.140	909.428
201.446	15.125	1199.419	908.585
202.461	15.054	1198.290	907.270
203.475	15.070	1197.775	906.883
204.490	15.163	1196.165	906.085
205.504	15.007	1194.808	904.134
206.519	15.008	1193.455	903.038
207.534	14.944	1192.391	901.808
208.548	15.069	1191.173	901.481
209.563	15.047	1190.902	901.075
210.577	14.965	1189.885	899.786
211.592	15.123	1188.824	899.756
212.607	15.263	1187.708	899.580
213.621	15.186	1187.297	898.778
214.636	15.105	1186.271	897.484
215.650	15.256	1185.251	897.445
216.665	15.265	1184.139	896.570
217.680	15.265	1183.582	896.071
218.694	15.254	1182.769	895.314
219.709	15.265	1181.823	894.580
220.723	15.334	1180.980	894.230
221.738	15.278	1180.288	893.328
222.753	15.274	1179.663	892.756
223.767	15.332	1178.937	892.434
224.782	15.440	1178.292	892.441
225.796	15.413	1178.000	891.998
226.811	15.532	1176.780	891.631
227.826	15.361	1176.216	890.215
228.840	15.327	1175.242	889.221
229.855	15.446	1174.328	889.077
230.869	15.348	1173.650	887.966
231.884	15.397	1172.963	887.630
232.899	15.464	1171.762	886.995
233.913	15.339	1171.272	885.885
234.928	15.310	1170.226	884.862
235.942	15.258	1170.158	884.456
236.957	15.242	1168.608	883.124
237.972	15.424	1168.203	883.702
238.986	15.316	1167.843	882.781
240.001	15.356	1166.788	882.114
241.015	15.360	1166.223	881.631
242.030	15.344	1165.383	880.832
243.045	15.408	1164.710	880.581
244.059	15.508	1163.806	880.347
245.074	15.473	1162.916	879.410
246.088	15.565	1162.054	879.161
247.103	15.603	1161.666	878.990
248.117	15.573	1161.072	878.308
249.132	15.623	1160.636	878.162
250.147	15.844	1159.205	878.155
251.161	15.777	1159.208	877.727
252.176	16.005	1157.965	877.896
253.190	15.884	1157.589	876.907
254.205	15.923	1157.576	877.021
255.220	15.977	1156.661	876.530
256.234	15.877	1156.140	875.537
257.249	15.972	1155.356	875.361
258.263	16.022	1154.508	874.900
259.278	15.995	1153.620	874.011
260.293	15.995	1153.484	873.829
261.307	16.033	1152.740	873.387
262.322	16.181	1151.763	873.332
263.336	16.002	1151.540	872.159
264.351	16.174	1150.543	872.220
265.366	16.184	1150.268	871.984
266.380	16.091	1149.712	871.006
267.395	16.112	1148.251	869.929
268.409	16.129	1147.319	869.234
269.424	16.000	1147.079	868.310
270.439	16.147	1146.133	868.275
271.453	16.066	1145.540	867.332
272.468	15.991	1144.542	866.112
273.482	16.032	1143.695	865.608
274.497	16.011	1143.337	865.150
275.512	16.096	1142.720	865.044
276.526	16.111	1141.609	864.205
277.541	16.105	1141.337	863.888
278.555	16.126	1140.732	863.464
279.570	16.221	1139.739	863.123
280.585	16.167	1139.070	862.261
281.599	16.294	1138.298	862.250
282.614	16.179	1137.135	860.705
283.628	16.175	1135.815	859.611
284.643	16.216	1135.085	859.190
285.657	16.343	1134.185	859.082
286.672	16.138	1133.705	857.595
287.687	16.360	1132.308	857.593
288.701	16.328	1131.541	856.773
289.716	16.345	1130.957	856.340
290.730	16.381	1130.227	855.894
291.745	16.407	1129.527	855.421
292.760	16.406	1128.741	854.743
293.774	16.466	1128.047	854.446
294.789	16.512	1127.982	854.556
295.803	16.517	1127.276	853.970
296.818	16.377	1126.565	852.646
297.833	16.365	1125.958	852.054
298.847	16.402	1124.726	851.231
299.862	16.405	1124.165	850.748
300.876	16.502	1123.483	850.644
301.891	16.563	1122.508	850.137
302.906	16.656	1121.923	850.084
303.920	16.668	1121.389	849.664
304.935	16.519	1121.259	848.747
305.949	16.746	1120.346	849.118
306.964	16.779	1119.688	848.710
307.979	16.654	1119.142	847.596
308.993	16.684	1117.931	846.751
310.008	16.713	1117.541	846.525
311.022	16.751	1117.158	846.351
312.037	16.803	1115.812	845.515
313.052	16.735	1114.798	844.334
314.066	16.574	1113.601	842.549
315.081	16.592	1113.029	842.133
316.095	16.621	1112.405	841.732
317.110	16.524	1111.848	840.753
318.125	16.641	1111.066	840.666
319.139	16.563	1110.180	839.538
320.154	16.614	1109.800	839.427
321.168	16.687	1109.112	839.197
322.183	16.771	1108.423	839.016
323.197	16.670	1108.097	838.196
324.212	16.660	1107.213	837.404
325.227	16.759	1106.836	837.533
326.241	16.768	1106.171	836.997
327.256	16.784	1105.174	836.251
328.270	16.717	1104.403	835.261
329.285	16.761	1103.118	834.435
330.300	16.889	1101.836	834.018
331.314	16.751	1101.354	832.901
332.329	16.760	1100.150	831.963
333.343	16.733	1099.566	831.316
334.358	16.827	1098.416	830.834
335.373	16.879	1098.362	830.970
336.387	16.797	1097.838	830.103
337.402	16.853	1096.657	829.409
338.416	17.053	1095.752	829.628
339.431	16.969	1095.480	828.937
340.446	17.121	1094.866	829.144
341.460	17.126	1093.985	828.425
342.475	17.250	1093.055	828.254
343.489	17.121	1092.311	826.990
344.504	17.298	1091.029	826.804
345.519	17.262	1090.503	826.160
346.533	17.343	1089.736	825.899
347.548	17.203	1089.171	824.719
348.562	17.284	1088.176	824.285
349.577	17.257	1087.535	823.593
350.592	17.119	1086.725	822.238
351.606	17.012	1086.005	821.102
352.621	17.083	1084.947	820.573
353.635	17.149	1084.351	820.370
354.650	17.143	1084.016	820.014
355.665	17.211	1083.400	819.804
356.679	17.288	1082.445	819.379
357.694	17.182	1082.370	818.741
358.708	17.259	1081.182	818.141
359.723	17.271	1080.476	817.594
360.738	17.273	1080.326	817.414
361.752	17.281	1079.799	816.984
362.767	17.241	1078.979	816.097
363.781	17.291	1078.241	815.708
364.796	17.338	1078.097	815.751
365.810	17.399	1077.467	815.497
366.825	17.578	1076.420	815.487
367.840	17.600	1076.244	815.389
368.854	17.544	1075.878	814.772
369.869	17.584	1074.902	814.150
370.883	17.738	1073.344	813.635
371.898	17.551	1072.856	812.297
372.913	17.520	1072.720	811.975
373.927	17.625	1072.256	812.052
374.942	17.592	1071.831	811.502
375.956	17.588	1071.287	810.998
376.971	17.640	1070.883	810.871
377.986	17.584	1070.275	810.070
379.000	17.754	1069.336	810.095
380.015	17.829	1068.690	809.892
381.029	17.765	1068.271	809.198
382.044	17.876	1067.196	808.840
383.059	17.810	1066.894	808.225
384.073	17.759	1066.289	807.456
385.088	17.772	1065.172	806.597
386.102	17.801	1064.185	805.915
387.117	17.907	1062.795	805.293
388.132	17.750	1061.772	803.707
389.146	17.698	1061.186	802.947
390.161	17.789	1060.628	802.882
391.175	17.729	1060.396	802.352
392.190	17.836	1059.480	802.092
393.205	17.957	1058.587	801.914
394.219	17.916	1057.927	801.151
395.234	17.913	1057.162	800.485
396.248	17.757	1056.457	799.150
397.263	17.826	1054.918	798.240
398.278	17.762	1054.583	797.616
399.292	17.725	1053.898	796.852
400.307	17.841	1053.006	796.651
401.321	17.774	1052.402	795.809
402.336	17.696	1052.109	795.152
403.350	17.718	1050.903	794.275
404.365	17.874	1050.194	794.393
405.380	17.777	1049.871	793.628
406.394	17.902	1049.208	793.638
407.409	18.001	1047.764	792.934
408.423	18.005	1047.564	792.731
409.438	18.124	1046.934	792.737
410.453	18.327	1045.952	792.862
411.467	18.210	1045.399	791.834
412.482	18.252	1044.848	791.541
413.496	18.200	1044.486	790.953
414.511	18.126	1043.887	790.090
415.526	18.290	1043.142	790.212
416.540	18.381	1042.668	790.206
417.555	18.406	1042.291	789.963
418.569	18.301	1042.147	789.300
419.584	18.345	1041.312	788.801
420.599	18.395	1040.843	788.606
421.613	147.834	1400.243	1790.256
422.628	135.166	1452.611	1790.359
