DTS Sentinel unit serial number:	SN413079Multiplexer serial number:	ORYXHardware model number:	OX4-SRSoftware version number:	ORYX F/W v4.00 Oryx Data Collector v3.7.2.0data status	okinstallation	princeton_trtdifferential loss correction	single-endedforward channel	channel 2reverse channel	N/Adate	2019/09/12time	20:03:49forward acquisition time	15.00reverse acquisition time	0.00gamma	496.2192k internal	0.2327k external	0.2327temperature offset calibration	1.0152default loss term (dB/km)	0.3790temperature slope calibration	1.0000multiplexer offset coefficient	1.0000multiplexer slope coefficient	1.0000fibre end	0.00T internal ref (°C)	31.69T ext. ref 1 (°C)	3.43T ext. ref 2 (°C)	26.29length (m)	temperature (°C)	Stokes	anti-Stokes-747.200	41.364	0.474	0.432
-746.185	-19.866	-0.485	-0.302
-745.171	-153.625	0.509	0.035
-744.156	67.430	-0.537	0.552
-743.142	95.227	0.704	0.808
-742.127	-200.000	-0.009	-0.086
-741.112	296.477	0.267	-0.493
-740.098	116.737	-0.883	-1.092
-739.083	-76.544	0.260	0.092
-738.069	331.699	0.129	0.250
-737.054	-80.856	-0.958	0.320
-736.039	-39.788	-0.407	0.214
-735.025	-200.000	0.010	-0.092
-734.010	-44.783	-0.216	-0.109
-732.996	800.000	-0.113	0.430
-731.981	-80.814	-1.126	-0.377
-730.966	-200.000	0.022	0.351
-729.952	279.658	0.094	-0.169
-728.937	135.135	-0.526	-0.688
-727.923	258.590	0.798	-1.385
-726.908	140.928	-0.340	-0.453
-725.894	-38.327	-0.917	0.489
-724.879	-122.637	-0.495	-0.081
-723.864	-71.355	0.988	0.373
-722.850	14.691	0.350	-0.275
-721.835	693.516	-0.198	-0.523
-720.821	-158.175	-0.552	0.033
-719.806	65.685	-0.215	-0.219
-718.791	61.080	-0.086	-0.086
-717.777	-109.942	-0.426	0.090
-716.762	149.676	0.447	0.609
-715.748	5.444	-0.518	-0.385
-714.733	-200.000	0.009	0.666
-713.718	-200.000	-0.079	0.646
-712.704	-149.797	0.298	0.024
-711.689	217.130	-0.383	-0.614
-710.675	-141.439	0.792	-0.081
-709.660	74.929	-0.232	-0.246
-708.645	-200.000	0.007	0.165
-707.631	157.628	-0.201	-0.280
-706.616	-200.000	0.064	-0.376
-705.602	76.455	-0.320	0.342
-704.587	446.958	0.385	-0.852
-703.572	-135.516	0.929	-0.111
-702.558	-140.294	1.326	0.140
-701.543	-200.000	-0.105	0.761
-700.529	-200.000	0.091	-0.488
-699.514	32.628	-1.041	0.906
-698.499	-138.376	0.164	0.018
-697.485	-28.836	-0.647	-0.374
-696.470	-49.255	-0.495	-0.238
-695.456	800.000	0.134	0.466
-694.441	-200.000	0.134	-0.618
-693.426	70.852	-0.406	-0.423
-692.412	-200.000	0.029	-0.869
-691.397	-166.856	-0.602	-0.025
-690.383	105.916	-0.065	-0.078
-689.368	291.477	-0.222	-0.406
-688.354	130.393	-0.320	-0.412
-687.339	-15.829	-0.522	0.335
-686.324	89.441	-0.352	-0.395
-685.310	-200.000	0.007	-1.147
-684.295	753.339	0.127	0.346
-683.281	278.825	-0.063	-0.113
-682.266	-136.425	0.292	-0.034
-681.251	-162.530	0.582	-0.029
-680.237	9.764	0.107	0.081
-679.222	215.854	-0.517	-0.826
-678.208	800.000	0.148	-0.605
-677.193	800.000	0.188	0.678
-676.178	-102.844	-0.553	0.132
-675.164	-200.000	0.044	-0.509
-674.149	-160.577	-0.625	0.034
-673.135	-85.044	-0.391	0.123
-672.120	37.799	-0.748	-0.668
-671.105	-68.673	0.662	-0.257
-670.091	-200.000	0.062	0.402
-669.076	28.520	-0.246	0.209
-668.062	460.176	-0.218	-0.487
-667.047	85.408	-0.115	0.127
-666.032	321.075	-0.217	0.414
-665.018	132.698	-0.176	-0.228
-664.003	47.914	-0.783	-0.735
-662.989	563.336	-0.145	0.353
-661.974	-14.177	0.310	-0.201
-660.959	-200.000	0.029	-0.605
-659.945	-134.227	1.027	-0.127
-658.930	-200.000	-0.002	-1.015
-657.916	509.638	0.364	-0.851
-656.901	-200.000	-0.226	1.154
-655.886	-176.693	-0.485	-0.012
-654.872	-181.703	-0.228	0.004
-653.857	-200.000	-0.025	0.333
-652.843	551.079	0.224	-0.541
-651.828	184.984	0.144	0.214
-650.814	11.502	-0.710	-0.547
-649.799	461.985	-0.246	-0.552
-648.784	-10.922	0.079	0.052
-647.770	-200.000	-0.153	-1.023
-646.755	-87.373	-0.499	0.152
-645.741	-45.963	-0.094	-0.047
-644.726	-200.000	0.026	-0.315
-643.711	-200.000	-0.087	-0.492
-642.697	-200.000	-0.019	-1.187
-641.682	-200.000	-0.105	0.474
-640.668	14.513	-0.390	-0.305
-639.653	204.516	0.198	0.308
-638.638	-38.053	-0.582	0.310
-637.624	302.612	0.403	-0.749
-636.609	113.426	0.225	-0.274
-635.595	-70.083	-0.166	0.063
-634.580	426.985	0.579	1.254
-633.565	800.000	-0.066	0.281
-632.551	-134.761	-0.871	-0.106
-631.536	175.372	0.430	0.625
-630.522	-5.422	-0.287	0.198
-629.507	24.259	0.636	-0.527
-628.492	800.000	-0.239	0.773
-627.478	-138.537	0.687	0.076
-626.463	578.437	-0.404	0.993
-625.449	-93.501	0.432	0.120
-624.434	-5.440	-0.165	0.114
-623.419	-138.630	-1.051	-0.116
-622.405	-7.619	-0.448	-0.304
-621.390	104.697	0.367	-0.434
-620.376	-194.980	-0.963	0.007
-619.361	147.863	-0.306	0.413
-618.346	-63.851	0.472	0.194
-617.332	113.473	0.447	0.545
-616.317	-200.000	-0.005	-0.476
-615.303	-32.622	0.363	0.203
-614.288	800.000	-0.233	0.653
-613.273	199.516	-0.384	0.590
-612.259	-109.375	0.949	0.202
-611.244	-25.922	-0.395	0.233
-610.230	507.602	-0.178	-0.415
-609.215	-135.247	0.124	0.015
-608.201	19.813	-0.875	0.707
-607.186	266.639	-0.224	0.392
-606.171	-108.164	0.997	0.216
-605.157	800.000	0.215	0.764
-604.142	31.212	-0.047	0.040
-603.128	531.083	0.163	0.385
-602.113	-75.367	-0.212	-0.076
-601.098	2.304	0.458	-0.332
-600.084	161.849	0.206	0.288
-599.069	-91.976	0.747	-0.212
-598.055	191.162	-0.198	0.299
-597.040	346.622	-0.224	-0.442
-596.025	27.140	0.249	-0.210
-595.011	-119.628	0.748	-0.130
-593.996	800.000	0.303	-1.014
-592.982	59.432	-0.403	-0.398
-591.967	-95.058	0.232	0.063
-590.952	-96.642	0.249	0.066
-589.938	800.000	-0.177	0.718
-588.923	420.469	-0.081	-0.173
-587.909	-114.304	-0.433	0.084
-586.894	-33.967	-0.379	0.209
-585.879	-36.173	0.310	-0.168
-584.865	800.000	-0.298	-1.036
-583.850	307.726	0.508	-0.950
-582.836	-24.206	0.550	-0.329
-581.821	-200.000	-0.205	0.989
-580.806	54.646	-0.512	0.495
-579.792	-113.666	0.416	0.081
-578.777	800.000	-0.255	0.774
-577.763	-27.335	-0.261	-0.152
-576.748	-200.000	-0.014	-0.146
-575.733	-21.085	-0.168	0.103
-574.719	181.042	0.415	0.611
-573.704	-200.000	-0.018	0.869
-572.690	29.004	-0.324	-0.275
-571.675	800.000	-0.131	-0.538
-570.661	-118.841	0.227	-0.040
-569.646	315.100	-0.222	0.419
-568.631	-100.259	-0.742	0.185
-567.617	-200.000	-0.010	-0.063
-566.602	800.000	0.070	-0.260
-565.588	616.198	-0.112	0.280
-564.573	-16.554	-0.279	0.177
-563.558	-200.000	0.001	0.143
-562.544	244.370	0.349	-0.587
-561.529	34.223	0.258	-0.225
-560.515	800.000	-0.063	0.192
-559.500	151.130	-0.236	0.321
-558.485	-200.000	-0.155	-0.835
-557.471	-125.631	-1.268	-0.192
-556.456	-71.909	1.095	-0.408
-555.442	-20.339	-0.326	-0.201
-554.427	-200.000	0.043	1.084
-553.412	-150.203	0.820	-0.064
-552.398	101.528	0.452	0.527
-551.383	-30.049	-0.361	-0.205
-550.369	-45.928	0.174	0.086
-549.354	211.235	0.407	0.641
-548.339	9.098	-0.633	0.478
-547.325	571.561	-0.251	-0.611
-546.310	-152.328	-0.404	-0.029
-545.296	118.408	0.375	0.463
-544.281	-93.570	0.075	0.021
-543.266	-4.962	0.261	-0.180
-542.252	-114.790	0.255	-0.049
-541.237	490.775	0.293	0.670
-540.223	-167.289	-0.605	0.024
-539.208	37.475	0.323	0.286
-538.193	-60.066	0.293	0.125
-537.179	38.888	0.484	0.432
-536.164	-169.483	-0.635	0.023
-535.150	-137.852	0.674	0.075
-534.135	786.406	0.226	-0.621
-533.121	213.333	-0.302	-0.477
-532.106	-200.000	0.096	0.941
-531.091	94.643	-0.146	-0.166
-530.077	44.898	-0.348	-0.320
-529.062	203.072	0.137	-0.212
-528.048	12.720	0.273	-0.211
-527.033	255.565	-0.400	0.686
-526.018	28.795	0.511	-0.432
-525.004	-113.477	1.368	-0.268
-523.989	-147.989	-0.149	-0.012
-522.975	100.704	0.202	-0.234
-521.960	-99.386	0.321	-0.081
-520.945	-200.000	-0.067	-0.470
-519.931	-200.000	-0.009	-0.336
-518.916	-9.238	0.324	0.216
-517.902	-113.165	-0.189	0.037
-516.887	-200.000	0.102	-0.705
-515.872	-200.000	0.010	0.933
-514.858	-77.925	-0.246	0.085
-513.843	18.056	-0.497	0.396
-512.829	229.723	-0.088	0.144
-511.814	-168.913	0.558	-0.021
-510.799	-200.000	0.234	1.091
-509.785	120.101	-0.220	-0.273
-508.770	-200.000	-0.034	0.573
-507.756	-92.684	0.354	0.099
-506.741	-31.741	-0.477	-0.267
-505.726	-200.000	-0.006	0.378
-504.712	-40.082	0.411	0.214
-503.697	-200.000	-0.016	-0.167
-502.683	25.113	-0.345	-0.286
-501.668	388.085	0.291	0.602
-500.653	26.560	0.131	-0.109
-499.639	12.691	0.385	0.297
-498.624	39.234	-0.348	-0.311
-497.610	135.078	0.141	0.182
-496.595	-66.028	-1.289	0.514
-495.581	800.000	-0.355	1.355
-494.566	-200.000	-0.037	-0.225
-493.551	0.568	-0.601	-0.429
-492.537	39.492	0.808	0.722
-491.522	-93.655	0.502	-0.138
-490.508	-118.643	-0.242	-0.043
-489.493	220.476	-0.612	-0.979
-488.478	-119.877	-0.214	0.037
-487.464	-33.246	-0.790	-0.437
-486.449	26.039	0.537	0.447
-485.435	-137.222	-0.353	-0.040
-484.420	68.901	0.058	0.059
-483.405	800.000	0.215	-0.813
-482.391	-51.343	0.214	-0.100
-481.376	-175.670	0.890	0.024
-480.362	-142.684	0.323	-0.031
-479.347	-57.368	-0.516	-0.226
-478.332	383.205	0.284	-0.582
-477.318	800.000	-0.111	-0.483
-476.303	-138.211	1.250	0.138
-475.289	-76.655	0.288	0.101
-474.274	26.744	-0.484	-0.405
-473.259	-131.719	-0.632	-0.083
-472.245	-18.765	-0.442	0.275
-471.230	-57.727	0.331	0.145
-470.216	193.858	0.454	-0.686
-469.201	733.333	-0.231	-0.617
-468.186	73.881	0.426	-0.446
-467.172	-200.000	0.026	-0.267
-466.157	-15.536	0.291	0.185
-465.143	-129.369	0.165	-0.023
-464.128	-200.000	0.032	0.358
-463.113	-200.000	-0.099	0.613
-462.099	40.738	-0.727	-0.653
-461.084	280.480	-0.468	0.834
-460.070	77.574	0.237	-0.251
-459.055	165.079	0.454	-0.639
-458.040	800.000	-0.238	-0.757
-457.026	98.817	0.399	0.459
-456.011	-117.525	1.377	0.248
-454.997	386.916	0.203	0.419
-453.982	571.214	-0.346	-0.839
-452.968	465.254	0.278	-0.619
-451.953	45.146	-0.399	0.366
-450.938	-53.768	0.571	-0.260
-449.924	-106.060	-0.692	-0.155
-448.909	-22.160	-0.235	0.142
-447.895	-41.498	0.228	-0.117
-446.880	-200.000	-0.002	0.418
-445.865	234.429	0.298	0.489
-444.851	-17.861	0.218	-0.136
-443.836	-200.000	0.019	-1.379
-442.822	337.113	-0.347	0.673
-441.807	-41.881	-0.308	0.157
-440.792	-1.177	-0.380	-0.268
-439.778	75.118	0.650	0.682
-438.763	7.987	-0.315	0.235
-437.749	800.000	-0.081	-0.340
-436.734	130.228	-0.374	-0.477
-435.719	291.802	0.240	0.435
-434.705	-41.381	1.146	0.588
-433.690	283.761	0.400	0.717
-432.676	374.496	0.139	-0.281
-431.661	4.339	-0.903	0.659
-430.646	-189.196	-0.387	-0.005
-429.632	-200.000	0.071	0.648
-428.617	800.000	0.082	0.309
-427.603	-16.083	-0.334	0.211
-426.588	4.789	0.210	-0.153
-425.573	-44.214	-0.533	-0.266
-424.559	66.796	-0.262	0.266
-423.544	44.558	-0.253	-0.231
-422.530	-200.000	-0.118	-0.612
-421.515	-49.464	-0.397	-0.188
-420.500	64.413	0.185	-0.185
-419.486	-200.000	-0.059	-0.605
-418.471	800.000	-0.115	-0.322
-417.457	-63.403	-0.505	-0.207
-416.442	800.000	0.133	-0.384
-415.428	38.392	-0.505	-0.448
-414.413	-48.170	-0.819	-0.394
-413.398	-200.000	-0.074	-0.800
-412.384	559.670	-0.076	0.182
-411.369	160.828	-0.413	0.574
-410.355	-59.029	-0.057	0.025
-409.340	777.151	0.053	0.144
-408.325	377.220	0.089	-0.180
-407.311	-150.901	0.344	-0.026
-406.296	180.908	-0.316	-0.461
-405.282	-200.000	0.183	0.947
-404.267	800.000	-0.229	-0.748
-403.252	800.000	-0.015	-0.056
-402.238	-91.476	0.532	-0.151
-401.223	-200.000	-0.032	-0.308
-400.209	-113.926	-0.385	0.074
-399.194	167.199	-0.097	-0.137
-398.179	-76.637	0.615	-0.214
-397.165	512.114	-0.454	-1.051
-396.150	-110.569	0.505	-0.104
-395.136	-142.411	-0.627	0.061
-394.121	271.690	-0.229	0.401
-393.106	-200.000	-0.044	0.256
-392.092	443.234	0.354	-0.771
-391.077	-200.000	0.052	-0.731
-390.063	13.013	-0.551	0.424
-389.048	-85.294	0.348	0.108
-388.033	52.535	-0.337	-0.320
-387.019	-200.000	-0.027	0.189
-386.004	12.056	0.609	0.465
-384.990	68.180	-0.357	-0.363
-383.975	135.215	-0.626	-0.809
-382.960	351.648	0.212	0.416
-381.946	-82.849	-0.636	0.204
-380.931	-114.619	-0.248	0.047
-379.917	-200.000	0.087	1.082
-378.902	159.354	-0.255	0.353
-377.888	-200.000	0.012	0.848
-376.873	76.094	0.226	0.238
-375.858	800.000	0.111	0.400
-374.844	-7.241	-0.403	-0.272
-373.829	136.172	0.200	0.259
-372.815	48.333	-0.206	-0.192
-371.800	648.202	-0.162	0.412
-370.785	149.501	0.527	-0.709
-369.771	800.000	-0.285	0.836
-368.756	-200.000	0.009	0.159
-367.742	-17.467	0.625	0.390
-366.727	-200.000	0.093	-0.449
-365.712	-15.407	-0.353	0.224
-364.698	-200.000	0.062	-0.291
-363.683	369.359	0.054	-0.109
-362.669	-36.961	-0.212	-0.113
-361.654	204.701	0.416	-0.641
-360.639	-113.012	-0.069	0.014
-359.625	-97.230	-0.518	0.134
-358.610	-128.806	0.443	-0.062
-357.596	-200.000	-0.025	-0.299
-356.581	123.172	-0.119	0.148
-355.566	-142.145	0.475	0.047
-354.552	60.236	-0.218	0.214
-353.537	228.765	0.273	-0.442
-352.523	-200.000	0.163	0.874
-351.508	-135.284	0.062	0.007
-350.493	63.357	0.218	0.217
-349.479	693.847	-0.130	0.338
-348.464	-200.000	0.002	1.010
-347.450	-185.106	0.335	0.005
-346.435	-200.000	-0.106	-0.524
-345.420	-100.961	0.444	0.108
-344.406	-200.000	-0.050	0.422
-343.391	-67.968	0.460	-0.178
-342.377	-108.980	-1.146	0.242
-341.362	-105.344	-0.917	-0.207
-340.348	387.540	0.171	0.351
-339.333	-200.000	-0.023	-0.323
-338.318	3.742	-0.795	-0.576
-337.304	-200.000	0.006	0.405
-336.289	0.664	0.461	0.327
-335.275	209.725	0.130	-0.202
-334.260	-115.372	-0.400	0.075
-333.245	112.604	0.597	0.717
-332.231	463.392	0.360	-0.798
-331.216	-200.000	0.038	0.608
-330.202	129.869	-0.054	0.069
-329.187	-28.733	0.254	0.145
-328.172	-140.416	0.709	-0.073
-327.158	-200.000	-0.012	-0.135
-326.143	732.483	-0.083	0.220
-325.129	-85.893	0.870	-0.267
-324.114	-0.762	0.257	-0.180
-323.099	508.356	0.280	0.644
-322.085	176.651	0.297	0.428
-321.070	-71.718	-0.847	0.313
-320.056	-179.206	0.188	-0.004
-319.041	-10.366	0.385	0.253
-318.026	-200.000	0.013	-0.492
-317.012	-200.000	-0.008	-0.334
-315.997	-200.000	0.157	1.031
-314.983	637.431	-0.203	0.510
-313.968	-200.000	-0.001	-0.334
-312.953	-14.688	-0.586	-0.373
-311.939	24.684	0.424	0.348
-310.924	-71.063	0.376	0.140
-309.910	-71.422	0.334	-0.124
-308.895	-200.000	-0.060	0.611
-307.880	168.399	0.340	0.480
-306.866	-12.355	-0.469	-0.304
-305.851	-200.000	-0.008	0.674
-304.837	-200.000	-0.093	0.547
-303.822	779.120	0.227	-0.614
-302.807	-137.437	-0.723	0.081
-301.793	110.986	0.143	-0.170
-300.778	-157.332	-0.368	-0.022
-299.764	-90.252	-0.241	0.069
-298.749	226.060	-0.571	-0.917
-297.735	131.422	0.268	-0.341
-296.720	-76.617	-0.459	0.160
-295.705	-18.965	-0.318	0.196
-294.691	-158.668	0.726	-0.041
-293.676	-74.849	0.855	0.304
-292.662	151.718	-0.382	0.515
-291.647	-46.479	0.395	-0.192
-290.632	-109.792	0.602	-0.125
-289.618	-66.987	-0.242	-0.095
-288.603	58.213	0.552	-0.535
-287.589	-100.360	-0.408	0.100
-286.574	-99.424	-0.728	-0.182
-285.559	-100.987	0.529	0.129
-284.545	116.086	0.205	0.249
-283.530	-95.364	0.994	-0.265
-282.516	287.393	-0.433	0.774
-281.501	-11.862	0.665	-0.432
-280.486	-68.707	0.283	0.108
-279.472	608.528	-0.301	-0.743
-278.457	84.221	0.714	-0.773
-277.443	-3.893	-0.336	-0.231
-276.428	33.574	-0.198	-0.170
-275.413	-200.000	0.035	-1.350
-274.399	53.102	0.313	0.296
-273.384	-113.211	-0.318	-0.062
-272.370	800.000	0.053	0.151
-271.355	16.914	0.468	-0.367
-270.340	800.000	-0.086	-0.280
-269.326	593.720	0.097	-0.236
-268.311	646.518	0.289	-0.731
-267.297	-200.000	-0.032	0.316
-266.282	393.694	0.111	-0.230
-265.267	800.000	-0.269	0.771
-264.253	-82.883	-0.902	0.288
-263.238	23.463	-0.073	0.059
-262.224	228.042	-0.435	0.701
-261.209	192.312	0.116	-0.172
-260.195	-200.000	0.077	-0.464
-259.180	-129.453	0.144	-0.020
-258.165	70.584	-0.818	-0.837
-257.151	-12.222	-0.337	-0.218
-256.136	222.318	-0.359	-0.572
-255.122	-200.000	0.106	-0.553
-254.107	-200.000	0.116	-1.293
-253.092	-200.000	-0.037	0.287
-252.078	-58.213	0.444	-0.191
-251.063	112.332	-0.504	-0.603
-250.049	-105.866	0.876	-0.195
-249.034	-53.358	-0.276	-0.125
-248.019	-121.871	0.273	-0.044
-247.005	221.779	-0.276	-0.439
-245.990	-158.676	-0.856	0.049
-244.976	84.749	0.296	0.320
-243.961	-151.267	-0.457	0.034
-242.946	-85.221	0.303	-0.094
-241.932	142.745	-0.877	-1.152
-240.917	646.443	0.139	0.351
-239.903	-119.462	-0.840	0.144
-238.888	-54.115	-0.690	0.310
-237.873	374.794	0.172	0.346
-236.859	-100.415	-1.024	0.251
-235.844	221.566	-0.186	0.295
-234.830	56.039	-0.316	-0.303
-233.815	-200.000	-0.038	0.216
-232.800	797.843	-0.085	-0.232
-231.786	-200.000	0.208	-1.192
-230.771	800.000	0.141	0.587
-229.757	662.110	0.311	0.792
-228.742	515.140	-0.220	0.506
-227.727	-128.450	0.259	0.036
-226.713	-100.498	0.534	-0.131
-225.698	-37.337	-0.206	-0.109
-224.684	428.017	-0.133	-0.283
-223.669	-11.523	0.070	-0.046
-222.655	-200.000	0.104	-0.473
-221.640	194.762	0.091	-0.136
-220.625	659.082	-0.268	0.682
-219.611	115.032	0.236	-0.284
-218.596	342.816	-0.387	-0.748
-217.582	-110.506	-0.450	0.092
-216.567	-197.528	0.285	0.002
-215.552	-56.350	0.425	0.187
-214.538	153.205	-0.170	0.230
-213.523	-20.341	-0.505	0.307
-212.509	114.864	0.706	-0.851
-211.494	-200.000	0.062	-0.930
-210.479	-200.000	-0.144	-0.660
-209.465	138.406	0.275	0.356
-208.450	652.648	0.079	0.201
-207.436	5.398	-0.201	0.146
-206.421	752.930	-0.074	-0.197
-205.406	-27.978	-0.284	-0.162
-204.392	47.450	-0.250	-0.230
-203.377	3.668	0.362	0.261
-202.363	-200.000	0.035	-0.537
-201.348	-200.000	-0.006	0.685
-200.333	121.395	0.226	-0.278
-199.319	578.799	-0.159	0.383
-198.304	-155.406	-0.549	0.035
-197.290	800.000	-0.025	-0.069
-196.275	-200.000	0.126	0.900
-195.260	-200.000	0.028	0.445
-194.246	-50.496	-0.295	-0.137
-193.231	282.311	-0.194	-0.343
-192.217	24.709	0.336	0.274
-191.202	-95.721	0.537	-0.142
-190.187	-4.657	-0.555	0.378
-189.173	118.721	-0.123	-0.149
-188.158	743.137	0.295	-0.782
-187.144	133.453	-0.317	0.404
-186.129	25.698	0.388	0.319
-185.114	15.395	0.429	-0.332
-184.100	3.832	0.252	0.182
-183.085	-139.322	-1.321	-0.140
-182.071	-200.000	0.001	-0.283
-181.056	-200.000	0.000	-0.873
-180.042	524.226	0.180	0.418
-179.027	-200.000	-0.070	0.512
-178.012	-192.356	-0.534	0.005
-176.998	505.720	-0.071	0.161
-175.983	-200.000	-0.050	-0.385
-174.969	245.664	-0.343	0.569
-173.954	-117.670	0.670	0.119
-172.939	800.000	0.079	-0.287
-171.925	-41.112	-0.862	0.438
-170.910	111.008	-0.289	-0.343
-169.896	-65.309	0.825	-0.327
-168.881	-43.770	0.464	-0.231
-167.866	86.949	-0.428	0.466
-166.852	338.488	0.308	-0.591
-165.837	-200.000	-0.097	-0.676
-164.823	-103.999	1.316	0.302
-163.808	-64.317	0.681	-0.273
-162.793	-200.000	-0.126	0.909
-161.779	425.388	0.349	0.741
-160.764	800.000	0.105	-0.312
-159.750	-105.896	0.470	-0.105
-158.735	800.000	0.202	0.619
-157.720	718.136	-0.160	-0.419
-156.706	-120.944	-0.355	-0.059
-155.691	71.182	0.411	-0.419
-154.677	-97.680	0.374	0.096
-153.662	-6.863	0.550	0.368
-152.647	-161.758	0.319	-0.016
-151.633	243.958	-0.610	1.008
-150.618	-200.000	-0.031	0.860
-149.604	-10.618	0.608	-0.396
-148.589	298.815	-0.163	-0.295
-147.574	16.180	0.443	0.344
-146.560	52.435	-0.904	0.849
-145.545	237.846	0.349	0.570
-144.531	-200.000	0.095	0.632
-143.516	-79.740	0.711	0.236
-142.502	359.328	-0.102	0.202
-141.487	-200.000	0.065	0.289
-140.472	380.359	0.183	-0.370
-139.458	800.000	0.312	-0.947
-138.443	-200.000	-0.058	0.635
-137.429	-200.000	0.034	-0.264
-136.414	94.410	-0.050	-0.056
-135.399	-44.661	0.462	-0.227
-134.385	-200.000	-0.009	0.399
-133.370	89.036	0.144	0.158
-132.356	504.346	-0.127	0.289
-131.341	-6.283	0.402	-0.270
-130.326	-200.000	0.025	0.552
-129.312	263.427	-0.180	0.308
-128.297	800.000	-0.273	-0.781
-127.283	-150.999	-0.515	-0.038
-126.268	63.082	0.459	0.452
-125.253	-200.000	-0.042	-0.540
-124.239	200.463	0.388	0.586
-123.224	-75.674	0.379	-0.133
-122.210	254.787	-0.264	0.444
-121.195	199.920	0.335	-0.506
-120.180	113.723	-0.090	-0.108
-119.166	-60.650	0.295	0.123
-118.151	800.000	-0.061	-0.255
-117.137	123.769	-0.333	-0.411
-116.122	800.000	-0.085	0.238
-115.107	-200.000	0.090	0.630
-114.093	-149.832	0.834	0.064
-113.078	-200.000	-0.020	-0.278
-112.064	38.552	-0.190	-0.166
-111.049	-99.455	0.382	0.094
-110.034	-200.000	-0.149	-0.787
-109.020	800.000	0.080	-0.292
-108.005	365.360	-0.171	0.339
-106.991	37.118	0.209	-0.182
-105.976	226.579	-0.220	0.351
-104.962	-200.000	0.024	-0.327
-103.947	-32.815	-0.807	-0.441
-102.932	330.487	0.299	0.566
-101.918	-15.172	0.134	0.085
-100.903	-52.168	-0.618	-0.282
-99.889	-167.706	0.554	-0.022
-98.874	-105.771	0.561	-0.125
-97.859	23.067	-0.330	0.266
-96.845	249.540	-0.285	0.474
-95.830	-75.284	0.428	0.150
-94.816	21.791	-0.129	-0.103
-93.801	-30.983	-0.299	0.166
-92.786	-200.000	0.067	0.384
-91.772	-123.929	0.391	-0.061
-90.757	800.000	0.121	-0.388
-89.743	-200.000	-0.095	0.421
-88.728	800.000	-0.229	0.698
-87.713	-120.114	0.752	0.126
-86.699	-30.217	0.328	-0.183
-85.684	413.248	0.224	-0.469
-84.670	-200.000	-0.056	0.800
-83.655	-200.000	0.000	-0.532
-82.640	174.332	0.330	-0.468
-81.626	53.363	0.396	-0.373
-80.611	29.563	-0.384	0.321
-79.597	-163.328	0.286	0.013
-78.582	-200.000	-0.025	-0.237
-77.567	800.000	-0.205	0.604
-76.553	-159.492	-0.939	-0.051
-75.538	328.603	0.382	0.721
-74.524	-20.515	0.191	0.115
-73.509	-83.217	-0.480	-0.152
-72.494	-200.000	0.031	0.580
-71.480	121.929	-0.128	0.157
-70.465	-104.498	-0.416	-0.094
-69.451	71.824	0.334	-0.341
-68.436	169.949	-0.541	-0.759
-67.422	0.984	-0.327	-0.230
-66.407	128.505	0.503	0.629
-65.392	-67.027	0.497	-0.193
-64.378	59.434	0.342	-0.330
-63.363	800.000	0.065	-0.270
-62.349	153.946	0.319	0.429
-61.334	21.157	-1.105	-0.880
-60.319	-76.344	0.754	0.261
-59.305	732.245	-0.444	-1.166
-58.290	46.830	0.541	0.493
-57.276	-200.000	0.289	1.357
-56.261	-200.000	96.302	598.706
-55.246	622.345	1373.182	3392.147
-54.232	199.959	2550.477	3841.465
-53.217	111.570	2249.564	2662.585
-52.203	41.160	1880.828	1667.451
-51.188	35.151	1672.233	1437.539
-50.173	32.480	1629.984	1381.592
-49.159	50.893	1680.700	1562.201
-48.144	51.472	1696.759	1581.377
-47.130	34.416	1657.406	1419.099
-46.115	31.847	1642.612	1387.395
-45.100	31.765	1638.354	1383.135
-44.086	31.590	1635.638	1379.499
-43.071	31.630	1632.342	1376.961
-42.057	31.366	1630.168	1373.133
-41.042	31.705	1627.138	1373.008
-40.027	31.704	1625.762	1371.788
-39.013	31.611	1623.338	1369.004
-37.998	31.482	1622.289	1367.128
-36.984	31.264	1622.143	1365.355
-35.969	31.677	1619.637	1366.202
-34.954	31.822	1616.608	1364.651
-33.940	31.656	1616.043	1362.911
-32.925	31.819	1614.272	1362.548
-31.911	31.771	1612.403	1360.573
-30.896	31.635	1611.156	1358.476
-29.881	31.590	1609.061	1356.333
-28.867	31.641	1607.985	1355.741
-27.852	31.837	1606.047	1355.467
-26.838	31.590	1605.376	1353.064
-25.823	31.624	1604.238	1352.297
-24.809	31.699	1602.944	1351.696
-23.794	31.674	1601.655	1350.368
-22.779	31.754	1599.125	1348.763
-21.765	31.714	1598.716	1348.077
-20.750	31.743	1595.599	1345.603
-19.736	31.403	1595.788	1343.267
-18.721	31.884	1592.787	1344.134
-17.706	31.626	1591.859	1341.448
-16.692	31.626	1590.800	1340.500
-15.677	31.647	1589.736	1339.700
-14.663	31.646	1588.988	1339.014
-13.648	31.803	1586.285	1337.801
-12.633	31.768	1584.942	1336.370
-11.619	31.628	1584.339	1334.805
-10.604	31.734	1582.032	1333.567
-9.590	31.933	1580.208	1333.393
-8.575	31.966	1578.524	1332.152
-7.560	31.779	1578.822	1331.024
-6.546	31.906	1576.763	1330.134
-5.531	31.665	1576.218	1327.909
-4.517	31.809	1575.510	1328.284
-3.502	31.750	1574.521	1326.980
-2.487	31.730	1572.992	1325.495
-1.473	31.472	1560.774	1313.335
-0.458	28.500	1541.664	1276.549
0.556	26.396	1542.136	1245.190
1.571	23.875	1566.278	1246.918
2.586	23.205	1577.899	1251.327
3.600	20.905	1524.079	1192.809
4.615	12.465	1416.348	1054.484
5.629	4.718	1353.859	960.215
6.644	3.409	1346.128	946.608
7.659	3.596	1343.616	945.904
8.673	3.433	1343.709	944.887
9.688	3.284	1342.312	942.909
10.702	3.289	1338.624	940.270
11.717	6.841	1344.503	966.065
12.731	15.734	1361.437	1032.990
13.746	23.026	1372.933	1086.622
14.761	24.689	1374.880	1098.291
15.775	24.334	1373.704	1095.073
16.790	23.871	1372.522	1091.197
17.804	23.451	1371.675	1087.845
18.819	23.615	1370.229	1087.610
19.834	23.830	1368.767	1087.671
20.848	23.749	1368.893	1087.176
21.863	23.948	1367.353	1087.076
22.877	23.662	1366.684	1084.699
23.892	23.646	1366.055	1084.007
24.907	23.599	1365.450	1083.141
25.921	23.535	1364.750	1082.104
26.936	23.608	1363.861	1081.747
27.950	23.701	1363.121	1081.627
28.965	23.519	1362.120	1079.630
29.980	23.437	1360.935	1078.097
30.994	23.656	1360.852	1079.269
32.009	23.661	1359.529	1078.156
33.023	23.908	1357.475	1077.927
34.038	23.651	1357.217	1076.070
35.053	23.445	1356.656	1074.281
36.067	23.761	1354.031	1074.019
37.082	23.672	1353.928	1073.302
38.096	23.595	1352.758	1071.814
39.111	23.954	1351.869	1073.185
40.126	23.706	1351.332	1071.168
41.140	23.353	1350.513	1068.297
42.155	22.981	1350.367	1065.839
43.169	23.171	1349.658	1066.335
44.184	22.971	1349.527	1064.927
45.199	23.042	1349.971	1065.611
46.213	23.404	1349.201	1067.089
47.228	23.455	1348.018	1066.365
48.242	23.610	1345.566	1065.264
49.257	23.716	1345.857	1066.037
50.271	23.626	1344.140	1064.044
51.286	23.734	1342.766	1063.509
52.301	23.429	1341.814	1060.834
53.315	23.596	1340.503	1060.705
54.330	23.453	1340.134	1059.464
55.344	23.639	1337.952	1058.751
56.359	23.475	1336.379	1056.440
57.374	23.298	1336.610	1055.471
58.388	23.234	1335.436	1054.073
59.403	23.193	1335.832	1054.045
60.417	22.916	1335.193	1051.799
61.432	22.955	1334.138	1051.110
62.447	22.996	1333.068	1050.412
63.461	22.910	1331.970	1048.947
64.476	23.240	1330.038	1049.291
65.490	22.726	1330.235	1046.303
66.505	22.839	1329.220	1046.081
67.520	22.923	1326.833	1044.610
68.534	22.971	1327.013	1044.942
69.549	23.009	1325.114	1043.577
70.563	23.118	1323.648	1042.975
71.578	23.110	1321.915	1041.471
72.593	23.119	1321.189	1040.856
73.607	22.734	1321.870	1039.035
74.622	22.896	1319.303	1037.880
75.636	22.635	1319.492	1036.403
76.651	22.624	1319.615	1036.343
77.666	22.853	1318.610	1036.803
78.680	22.910	1319.066	1037.403
79.695	22.711	1318.614	1035.788
80.709	23.008	1317.690	1036.712
81.724	23.271	1316.562	1037.279
82.739	23.173	1316.018	1036.182
83.753	23.447	1315.983	1037.669
84.768	23.865	1314.674	1038.985
85.782	23.863	1313.503	1037.956
86.797	23.898	1313.405	1037.995
87.812	23.467	1312.408	1034.598
88.826	23.582	1310.409	1033.602
89.841	23.676	1309.813	1033.584
90.855	23.761	1309.248	1033.542
91.870	23.561	1308.633	1031.801
92.884	23.926	1307.258	1032.750
93.899	24.094	1305.766	1032.454
94.914	23.680	1306.445	1030.493
95.928	23.715	1305.520	1029.880
96.943	23.977	1303.753	1029.911
97.957	23.709	1303.153	1027.796
98.972	23.856	1302.560	1028.084
99.987	23.780	1300.720	1026.105
101.001	23.604	1301.338	1025.484
102.016	23.519	1300.584	1024.310
103.030	23.626	1298.972	1023.567
104.045	23.582	1298.518	1022.865
105.060	23.637	1295.678	1020.850
106.074	23.243	1294.117	1017.267
107.089	23.130	1292.528	1015.279
108.103	22.970	1291.862	1013.751
109.118	22.904	1291.045	1012.643
110.133	22.975	1288.945	1011.312
111.147	22.910	1287.967	1010.081
112.162	23.224	1286.892	1010.942
113.176	23.234	1287.455	1011.351
114.191	23.391	1285.486	1010.609
115.206	23.105	1284.380	1008.024
116.220	23.122	1283.086	1007.013
117.235	23.253	1282.747	1007.403
118.249	22.876	1281.828	1004.452
119.264	22.547	1280.927	1001.784
120.279	22.938	1279.018	1002.425
121.293	22.645	1279.374	1000.948
122.308	22.621	1278.410	999.974
123.322	22.572	1277.034	998.531
124.337	22.660	1275.716	997.909
125.352	22.496	1275.091	996.400
126.366	22.752	1273.738	996.704
127.381	22.295	1273.822	994.098
128.395	22.486	1271.735	993.462
129.410	22.558	1270.195	992.572
130.424	22.474	1269.817	991.719
131.439	22.867	1269.095	993.276
132.454	22.997	1267.735	992.855
133.468	23.106	1268.299	993.822
134.483	23.097	1267.712	993.225
135.497	23.168	1266.169	992.325
136.512	22.922	1265.676	990.473
137.527	22.999	1265.112	990.374
138.541	22.988	1263.444	988.921
139.556	23.516	1261.352	990.144
140.570	23.300	1260.887	988.484
141.585	23.362	1262.131	989.721
142.600	23.606	1260.584	989.782
143.614	23.828	1259.357	989.968
144.629	23.882	1259.029	989.921
145.643	23.881	1257.024	988.253
146.658	23.368	1256.903	985.216
147.673	23.517	1254.067	983.736
148.687	23.431	1254.118	983.209
149.702	23.135	1252.990	980.596
150.716	23.045	1249.551	977.325
151.731	23.061	1248.702	976.662
152.746	22.991	1247.919	975.573
153.760	23.286	1247.639	976.898
154.775	23.411	1247.038	977.027
155.789	23.526	1246.503	977.158
156.804	23.489	1245.746	976.275
157.819	23.241	1244.910	974.169
158.833	23.635	1242.687	974.506
159.848	23.690	1242.456	974.541
160.862	23.291	1242.927	972.633
161.877	23.273	1240.682	970.691
162.892	23.264	1239.001	969.239
163.906	23.023	1237.312	966.514
164.921	22.865	1237.310	965.563
165.935	23.135	1236.133	966.033
166.950	23.199	1236.538	966.615
167.964	23.003	1236.465	965.402
168.979	23.093	1235.681	965.199
169.994	23.160	1234.091	964.234
171.008	22.925	1233.720	962.577
172.023	23.372	1231.971	963.559
173.037	23.618	1231.640	964.553
174.052	23.538	1231.728	964.103
175.067	23.055	1231.154	960.943
176.081	22.823	1228.782	957.749
177.096	22.934	1227.693	957.417
178.110	23.177	1226.927	958.049
179.125	23.180	1226.118	957.348
180.140	23.314	1225.006	957.123
181.154	23.393	1225.238	957.642
182.169	23.443	1223.659	956.596
183.183	23.556	1222.501	956.216
184.198	23.700	1221.628	956.224
185.213	23.559	1220.298	954.337
186.227	23.533	1220.302	954.118
187.242	23.620	1219.004	953.483
188.256	23.775	1218.137	953.555
189.271	23.510	1217.651	951.670
190.286	23.491	1216.262	950.395
191.300	23.414	1214.779	948.741
192.315	23.101	1215.483	947.529
193.329	23.242	1214.964	947.795
194.344	23.004	1214.247	945.883
195.359	22.916	1212.924	944.298
196.373	22.754	1212.539	943.048
197.388	22.810	1212.487	943.223
198.402	23.215	1212.259	945.124
199.417	23.501	1211.859	946.253
200.432	23.835	1210.562	946.940
201.446	23.646	1211.203	946.351
202.461	23.696	1209.845	945.470
203.475	23.819	1208.541	945.022
204.490	23.963	1205.863	943.609
205.504	23.220	1206.498	940.078
206.519	23.161	1205.166	938.641
207.534	23.224	1202.384	936.727
208.548	23.029	1203.176	936.228
209.563	23.375	1202.180	937.203
210.577	22.812	1200.959	933.188
211.592	23.371	1200.743	935.892
212.607	23.524	1200.969	936.794
213.621	23.781	1199.627	937.019
214.636	23.575	1197.824	934.443
215.650	23.503	1197.860	934.009
216.665	23.903	1197.036	935.391
217.680	23.779	1196.343	934.115
218.694	23.857	1195.765	933.989
219.709	23.739	1195.350	932.964
220.723	23.745	1194.099	931.935
221.738	23.782	1192.811	931.042
222.753	23.500	1191.639	928.566
223.767	23.154	1192.383	927.253
224.782	24.004	1191.111	930.631
225.796	24.162	1190.067	930.555
226.811	24.137	1190.652	930.802
227.826	23.564	1190.578	927.668
228.840	23.427	1189.165	925.766
229.855	23.319	1188.206	924.376
230.869	23.155	1188.078	923.338
231.884	23.454	1186.233	923.378
232.899	22.917	1185.274	919.759
233.913	23.272	1184.328	920.786
234.928	23.479	1182.239	920.156
235.942	23.250	1182.353	918.976
236.957	23.175	1181.900	918.154
237.972	22.943	1181.081	916.231
238.986	23.055	1180.057	915.939
240.001	23.023	1180.043	915.679
241.015	23.069	1178.931	914.973
242.030	23.253	1178.214	915.287
243.045	23.582	1177.739	916.538
244.059	23.430	1177.758	915.684
245.074	23.333	1177.595	914.976
246.088	23.699	1176.314	915.790
247.103	23.801	1176.414	916.313
248.117	23.742	1175.330	915.084
249.132	24.039	1174.311	915.737
250.147	24.395	1174.206	917.403
251.161	24.415	1173.905	917.190
252.176	24.574	1173.646	917.725
253.190	24.378	1172.926	916.073
254.205	24.494	1171.632	915.579
255.220	24.879	1171.944	917.715
256.234	24.802	1170.618	916.199
257.249	24.546	1170.059	914.370
258.263	24.402	1169.703	913.277
259.278	24.638	1168.968	913.828
260.293	24.626	1167.851	912.810
261.307	24.865	1167.525	913.698
262.322	24.664	1167.367	912.467
263.336	24.764	1166.429	912.160
264.351	24.527	1166.149	910.652
265.366	24.699	1165.246	910.745
266.380	24.892	1164.846	911.336
267.395	24.891	1163.519	910.211
268.409	24.627	1161.594	907.283
269.424	24.349	1162.469	906.476
270.439	24.377	1160.695	905.152
271.453	24.447	1160.300	905.117
272.468	24.099	1160.076	903.099
273.482	24.180	1158.427	902.148
274.497	23.971	1158.715	901.233
275.512	24.000	1157.300	900.200
276.526	24.185	1156.750	900.624
277.541	24.107	1156.401	899.881
278.555	24.141	1156.352	899.937
279.570	24.391	1156.085	900.909
280.585	24.717	1154.777	901.457
281.599	24.450	1154.534	899.840
282.614	24.498	1152.377	898.320
283.628	24.382	1150.905	896.511
284.643	24.025	1151.787	895.321
285.657	24.104	1150.937	894.979
286.672	24.276	1148.976	894.239
287.687	24.295	1148.264	893.700
288.701	24.044	1148.262	892.362
289.716	24.147	1147.358	892.093
290.730	24.299	1145.411	891.262
291.745	24.290	1145.333	891.081
292.760	24.486	1143.907	890.867
293.774	24.389	1144.616	890.859
294.789	24.877	1143.388	892.255
295.803	24.592	1144.341	891.499
296.818	24.125	1143.565	888.485
297.833	24.250	1142.531	888.226
298.847	24.311	1140.464	886.844
299.862	24.376	1140.173	886.863
300.876	24.046	1139.435	884.569
301.891	24.399	1139.096	885.983
302.906	24.487	1139.316	886.512
303.920	24.640	1139.496	887.333
304.935	24.972	1137.521	887.363
305.949	24.725	1137.706	886.203
306.964	24.824	1136.666	885.809
307.979	24.594	1136.480	884.443
308.993	24.466	1133.526	881.436
310.008	24.864	1133.255	883.110
311.022	25.025	1132.788	883.462
312.037	24.750	1132.020	881.432
313.052	24.633	1131.319	880.230
314.066	24.286	1130.440	877.760
315.081	24.227	1129.126	876.372
316.095	24.089	1128.484	875.120
317.110	23.862	1128.676	874.072
318.125	24.154	1126.829	873.999
319.139	24.066	1126.245	873.038
320.154	23.893	1126.403	872.231
321.168	24.193	1125.384	872.835
322.183	23.945	1124.837	871.121
323.197	24.331	1123.386	871.807
324.212	24.157	1123.570	871.021
325.227	24.362	1122.541	871.148
326.241	24.322	1122.110	870.542
327.256	24.233	1121.843	869.823
328.270	24.292	1120.380	868.898
329.285	24.114	1120.289	867.887
330.300	24.138	1118.645	866.650
331.314	24.306	1118.884	867.579
332.329	24.162	1117.639	865.837
333.343	24.098	1116.179	864.318
334.358	24.499	1114.849	865.157
335.373	24.813	1115.244	866.908
336.387	24.810	1114.682	866.380
337.402	24.495	1114.919	864.960
338.416	24.561	1114.460	864.849
339.431	24.736	1113.883	865.170
340.446	25.102	1112.905	866.103
341.460	25.289	1112.011	866.234
342.475	25.229	1111.973	865.834
343.489	25.299	1110.618	865.044
344.504	25.257	1110.628	864.770
345.519	25.113	1109.284	862.955
346.533	25.185	1109.278	863.219
347.548	25.654	1107.656	864.134
348.562	25.365	1106.895	862.076
349.577	24.756	1106.131	858.482
350.592	24.426	1104.502	855.562
351.606	24.375	1104.849	855.512
352.621	24.609	1102.563	854.784
353.635	24.323	1102.287	853.129
354.650	24.344	1101.451	852.505
355.665	24.684	1100.865	853.600
356.679	24.837	1100.234	853.766
357.694	24.840	1100.467	853.884
358.708	24.938	1099.531	853.550
359.723	24.662	1098.895	851.665
360.738	24.828	1098.570	852.129
361.752	24.928	1097.938	852.039
362.767	25.000	1096.901	851.503
363.781	24.754	1096.697	850.097
364.796	24.848	1096.648	850.430
365.810	25.233	1096.438	852.022
366.825	25.260	1095.624	851.441
367.840	25.462	1095.539	852.258
368.854	25.415	1095.129	851.644
369.869	25.743	1093.458	851.819
370.883	25.598	1092.666	850.440
371.898	25.486	1091.690	849.078
372.913	25.458	1090.643	848.055
373.927	25.164	1091.319	847.119
374.942	25.184	1091.871	847.568
375.956	25.553	1089.823	847.643
376.971	24.864	1089.779	844.282
377.986	25.602	1088.296	846.535
379.000	25.445	1088.335	845.751
380.015	25.596	1088.353	846.402
381.029	25.512	1088.285	845.875
382.044	25.828	1086.300	845.742
383.059	25.808	1085.349	844.836
384.073	25.509	1084.763	842.902
385.088	25.512	1083.987	842.239
386.102	25.493	1083.410	841.627
387.117	25.372	1082.137	839.999
388.132	25.108	1081.904	838.510
389.146	25.043	1080.573	837.097
390.161	24.866	1079.815	835.610
391.175	24.971	1079.818	836.031
392.190	25.094	1078.793	835.735
393.205	25.623	1078.015	837.523
394.219	25.558	1078.060	837.181
395.234	25.407	1075.504	834.420
396.248	25.038	1075.479	832.612
397.263	25.219	1074.253	832.429
398.278	24.870	1073.501	830.153
399.292	25.134	1073.448	831.263
400.307	25.233	1072.669	831.046
401.321	25.155	1070.832	829.188
402.336	24.624	1070.738	826.588
403.350	24.693	1069.583	825.942
404.365	24.917	1068.347	825.948
405.380	25.381	1068.218	827.914
406.394	25.256	1068.317	827.341
407.409	25.302	1067.993	827.228
408.423	25.584	1066.498	827.295
409.438	25.644	1066.107	827.194
410.453	25.779	1065.996	827.655
411.467	25.739	1065.058	826.670
412.482	25.869	1063.734	826.168
413.496	25.886	1064.025	826.394
414.511	26.116	1063.756	827.167
415.526	26.104	1063.567	826.892
416.540	25.931	1063.836	826.235
417.555	25.953	1062.811	825.466
418.569	25.700	1062.105	823.691
419.584	26.166	1060.409	824.430
420.599	25.757	1060.563	822.609
421.613	154.743	1403.158	1794.979
422.628	142.255	1453.093	1795.011
