DTS Sentinel unit serial number:	SN413079Multiplexer serial number:	ORYXHardware model number:	OX4-SRSoftware version number:	ORYX F/W v4.00 Oryx Data Collector v3.7.2.0data status	okinstallation	princeton_trtdifferential loss correction	single-endedforward channel	channel 2reverse channel	N/Adate	2019/09/15time	02:15:35forward acquisition time	60.00reverse acquisition time	0.00gamma	496.2192k internal	0.2325k external	0.2325temperature offset calibration	1.0034default loss term (dB/km)	0.3790temperature slope calibration	1.0000multiplexer offset coefficient	1.0000multiplexer slope coefficient	1.0000fibre end	0.00T internal ref (°C)	31.62T ext. ref 1 (°C)	4.55T ext. ref 2 (°C)	26.18length (m)	temperature (°C)	Stokes	anti-Stokes-747.200	-200.000	0.014	-0.117
-746.185	-42.878	-0.187	-0.096
-745.171	72.600	-0.085	0.090
-744.156	74.230	0.161	-0.171
-743.142	800.000	0.017	-0.067
-742.127	121.120	0.217	0.273
-741.112	-200.000	0.086	-0.488
-740.098	-200.000	0.023	0.263
-739.083	-108.243	0.090	0.020
-738.069	800.000	0.039	0.160
-737.054	800.000	-0.123	-0.359
-736.039	-87.732	0.238	-0.072
-735.025	2.431	0.069	-0.051
-734.010	-47.410	0.103	-0.051
-732.996	-63.869	-0.202	0.083
-731.981	-46.955	-0.198	-0.098
-730.966	344.477	-0.117	-0.232
-729.952	800.000	0.087	-0.293
-728.937	377.999	-0.121	0.249
-727.923	224.655	-0.054	-0.087
-726.908	158.987	-0.190	-0.266
-725.894	800.000	0.062	0.251
-724.879	-200.000	0.036	0.163
-723.864	-200.000	0.290	0.001
-722.850	133.277	-0.180	-0.234
-721.835	-42.324	0.240	0.123
-720.821	279.829	0.105	-0.188
-719.806	86.873	-0.135	0.151
-718.791	-47.688	-0.134	-0.065
-717.777	-91.043	-0.394	0.114
-716.762	-167.583	-0.198	0.008
-715.748	-57.904	0.084	-0.037
-714.733	110.590	-0.108	-0.131
-713.718	-133.305	-0.137	-0.017
-712.704	197.414	-0.112	-0.173
-711.689	86.547	0.093	-0.103
-710.675	-200.000	-0.014	0.104
-709.660	-10.023	0.105	-0.070
-708.645	-101.821	0.122	-0.030
-707.631	-20.791	-0.262	-0.162
-706.616	24.782	-0.112	0.094
-705.602	-25.371	0.104	0.062
-704.587	-186.704	-0.143	0.002
-703.572	211.171	0.088	0.140
-702.558	34.925	0.015	0.013
-701.543	-137.595	-0.126	-0.014
-700.529	155.157	0.154	0.214
-699.514	-29.422	-0.346	-0.199
-698.499	-50.410	-0.146	-0.069
-697.485	387.102	0.046	-0.096
-696.470	63.606	0.172	-0.174
-695.456	46.232	0.249	-0.232
-694.441	132.261	-0.145	0.188
-693.426	476.735	-0.043	0.097
-692.412	-147.341	-0.145	0.012
-691.397	70.519	-0.034	-0.035
-690.383	147.353	-0.113	0.153
-689.368	800.000	-0.091	-0.395
-688.354	-200.000	-0.009	-0.395
-687.339	-200.000	-0.080	-0.395
-686.324	113.968	-0.015	-0.018
-685.310	-37.815	-0.068	-0.036
-684.295	-63.483	0.361	-0.149
-683.281	269.237	0.226	-0.398
-682.266	40.185	-0.125	0.113
-681.251	226.642	-0.137	-0.223
-680.237	71.786	-0.156	-0.163
-679.222	-200.000	-0.027	-0.141
-678.208	170.440	0.178	-0.256
-677.193	397.695	-0.082	-0.173
-676.178	58.496	-0.178	0.175
-675.164	96.516	0.125	-0.144
-674.149	16.768	0.065	0.052
-673.135	-43.185	-0.314	-0.160
-672.120	30.960	0.058	-0.050
-671.105	2.741	-0.168	-0.122
-670.091	-108.156	-0.118	-0.026
-669.076	-117.240	-0.209	0.038
-668.062	-200.000	0.006	0.055
-667.047	56.900	0.048	0.047
-666.032	-170.828	-0.444	-0.015
-665.018	-168.653	-0.027	0.001
-664.003	380.671	-0.068	-0.141
-662.989	-114.199	0.324	0.063
-661.974	-200.000	0.015	0.256
-660.959	-104.427	-0.293	-0.068
-659.945	104.302	0.139	-0.164
-658.930	-66.027	-0.147	0.059
-657.916	-200.000	-0.001	-0.292
-656.901	87.990	0.072	-0.080
-655.886	800.000	-0.021	-0.090
-654.872	-30.738	-0.377	0.215
-653.857	55.054	0.035	0.034
-652.843	-176.038	-0.172	0.005
-651.828	800.000	0.125	-0.362
-650.814	378.025	-0.164	-0.337
-649.799	800.000	0.017	-0.075
-648.784	-200.000	0.031	0.223
-647.770	-35.465	0.501	-0.274
-646.755	-111.288	-0.066	-0.014
-645.741	-6.230	-0.366	0.251
-644.726	-200.000	0.070	-0.356
-643.711	-33.455	-0.311	0.173
-642.697	-177.888	0.105	-0.003
-641.682	-135.589	-0.334	-0.040
-640.668	-74.442	0.405	0.147
-639.653	-70.166	0.230	-0.088
-638.638	-200.000	0.024	0.118
-637.624	-127.434	0.307	-0.045
-636.609	-60.995	-0.230	0.098
-635.595	-71.256	-0.093	-0.035
-634.580	134.966	-0.203	-0.266
-633.565	-190.553	-0.073	-0.001
-632.551	-19.508	0.114	0.071
-631.536	-64.070	0.471	0.193
-630.522	381.170	0.013	0.026
-629.507	800.000	0.057	-0.230
-628.492	-186.173	-0.264	-0.004
-627.478	-34.433	-0.138	-0.076
-626.463	35.563	-0.175	-0.155
-625.449	-200.000	0.026	-0.191
-624.434	-28.342	-0.132	0.077
-623.419	-89.776	0.023	0.007
-622.405	-35.059	0.367	-0.201
-621.390	0.212	-0.338	-0.242
-620.376	-19.544	-0.264	0.164
-619.361	772.881	0.074	0.202
-618.346	174.948	-0.038	-0.055
-617.332	446.994	0.069	0.153
-616.317	-88.347	0.187	-0.056
-615.303	389.639	0.028	-0.059
-614.288	-155.679	0.168	-0.011
-613.273	-146.457	-0.392	-0.034
-612.259	-9.975	0.245	0.164
-611.244	388.575	0.093	0.193
-610.230	-168.494	-0.228	0.009
-609.215	-200.000	0.067	0.347
-608.201	59.065	0.288	-0.284
-607.186	800.000	-0.037	-0.161
-606.171	-61.353	-0.296	0.125
-605.157	-169.548	-0.287	0.010
-604.142	-52.013	-0.271	-0.127
-603.128	800.000	-0.105	-0.367
-602.113	800.000	-0.032	-0.099
-601.098	10.260	-0.322	-0.246
-600.084	-97.916	0.145	0.038
-599.069	380.751	0.087	-0.180
-598.055	2.205	-0.260	0.189
-597.040	369.473	0.064	-0.130
-596.025	47.498	0.194	0.181
-595.011	-90.648	-0.173	0.050
-593.996	-200.000	-0.005	-0.186
-592.982	258.504	-0.080	-0.138
-591.967	-200.000	-0.004	0.137
-590.952	-176.482	-0.168	-0.004
-589.938	-200.000	0.024	0.163
-588.923	-142.470	0.204	-0.020
-587.909	142.984	-0.230	0.307
-586.894	-28.251	0.232	0.134
-585.879	-88.016	0.383	-0.115
-584.865	-53.949	-0.340	0.155
-583.850	85.627	0.218	-0.240
-582.836	234.738	0.182	-0.302
-581.821	-200.000	0.007	-0.106
-580.806	104.061	-0.060	0.071
-579.792	-141.283	-0.281	-0.029
-578.777	800.000	0.052	-0.180
-577.763	-10.003	-0.135	0.090
-576.748	144.982	-0.196	-0.263
-575.733	-64.410	-0.156	-0.064
-574.719	-134.011	0.269	0.033
-573.704	800.000	0.090	-0.262
-572.690	-200.000	0.021	-0.167
-571.675	-200.000	-0.017	-0.111
-570.661	-98.291	0.158	0.041
-569.646	-34.315	-0.128	0.070
-568.631	757.013	0.021	-0.056
-567.617	-200.000	-0.025	-0.180
-566.602	468.322	0.104	0.235
-565.588	-167.275	-0.088	0.004
-564.573	-162.319	0.103	0.005
-563.558	-3.871	0.146	-0.102
-562.544	-136.211	-0.177	0.021
-561.529	-200.000	-0.036	-0.236
-560.515	64.719	-0.081	-0.081
-559.500	61.483	0.211	-0.211
-558.485	800.000	0.063	-0.207
-557.471	-159.233	0.092	-0.005
-556.456	-200.000	-0.027	0.263
-555.442	84.383	-0.040	-0.043
-554.427	-145.113	-0.365	0.033
-553.412	-197.020	0.204	0.001
-552.398	-24.233	0.209	-0.125
-551.383	35.407	-0.113	0.100
-550.369	221.889	-0.173	-0.278
-549.354	134.367	-0.061	0.079
-548.339	119.915	-0.135	0.167
-547.325	52.263	-0.308	0.294
-546.310	800.000	-0.048	0.169
-545.296	800.000	-0.044	0.155
-544.281	376.258	-0.037	0.075
-543.266	-102.080	-0.190	0.046
-542.252	-200.000	-0.070	0.333
-541.237	71.159	0.069	0.071
-540.223	-66.594	0.278	0.110
-539.208	800.000	-0.024	0.097
-538.193	12.238	-0.148	-0.114
-537.179	536.999	-0.051	-0.120
-536.164	-200.000	-0.063	-0.332
-535.150	555.550	-0.098	0.236
-534.135	-13.359	-0.146	-0.095
-533.121	148.701	-0.163	-0.220
-532.106	800.000	0.101	-0.312
-531.091	800.000	-0.087	0.276
-530.077	462.136	0.064	-0.143
-529.062	33.729	-0.260	-0.226
-528.048	-65.921	0.111	0.044
-527.033	-200.000	-0.076	0.415
-526.018	-131.316	0.506	0.067
-525.004	170.381	-0.182	-0.260
-523.989	291.641	0.259	-0.471
-522.975	-65.478	-0.195	-0.078
-521.960	-103.559	0.132	-0.031
-520.945	130.171	0.024	0.031
-519.931	-18.645	-0.270	0.169
-518.916	22.253	-0.184	0.150
-517.902	659.356	0.123	0.318
-516.887	-78.137	-0.165	-0.057
-515.872	468.448	-0.004	-0.009
-514.858	222.264	-0.071	-0.114
-513.843	105.066	0.171	-0.202
-512.829	-20.113	0.315	0.194
-511.814	800.000	0.027	-0.100
-510.799	-200.000	0.032	0.168
-509.785	310.051	-0.087	0.162
-508.770	-145.158	-0.224	0.020
-507.756	133.934	0.118	0.153
-506.741	-200.000	0.028	0.230
-505.726	97.831	0.239	0.275
-504.712	348.564	-0.107	0.211
-503.697	-46.105	-0.349	-0.172
-502.683	-2.039	0.093	0.065
-501.668	800.000	0.031	-0.102
-500.653	62.807	0.247	-0.247
-499.639	-84.609	-0.026	-0.008
-498.624	-200.000	-0.017	-0.485
-497.610	-200.000	0.041	-0.403
-496.595	-200.000	0.035	0.183
-495.581	-154.839	-0.362	-0.024
-494.566	800.000	-0.028	0.117
-493.551	-200.000	-0.009	-0.060
-492.537	-162.950	0.120	-0.006
-491.522	800.000	-0.103	-0.309
-490.508	268.208	-0.066	-0.116
-489.493	-200.000	0.014	0.144
-488.478	-156.311	0.173	-0.011
-487.464	10.460	-0.070	-0.053
-486.449	-200.000	-0.004	0.075
-485.435	395.543	0.136	0.283
-484.420	800.000	-0.103	0.353
-483.405	134.312	-0.172	0.223
-482.391	-8.851	-0.114	0.076
-481.376	150.677	-0.131	-0.177
-480.362	-200.000	-0.003	-0.253
-479.347	3.417	-0.089	0.064
-478.332	-17.252	-0.141	0.089
-477.318	800.000	-0.024	-0.077
-476.303	-200.000	-0.011	0.108
-475.289	-200.000	0.021	0.116
-474.274	412.085	-0.076	0.161
-473.259	21.311	0.026	0.021
-472.245	-200.000	0.019	-0.219
-471.230	-38.021	-0.318	-0.169
-470.216	190.050	0.198	0.297
-469.201	20.625	-0.180	0.146
-468.186	-200.000	-0.004	0.032
-467.172	-197.816	0.106	-0.001
-466.157	-57.478	0.303	-0.133
-465.143	64.866	-0.162	0.163
-464.128	-200.000	0.047	-0.331
-463.113	339.778	0.056	0.108
-462.099	-190.983	-0.272	-0.003
-461.084	-200.000	-0.084	-0.371
-460.070	763.510	0.048	-0.131
-459.055	110.982	-0.050	-0.060
-458.040	800.000	-0.040	-0.113
-457.026	800.000	-0.021	0.067
-456.011	-200.000	0.021	0.166
-454.997	800.000	-0.033	0.118
-453.982	4.844	0.172	-0.126
-452.968	-200.000	0.029	-0.225
-451.953	800.000	-0.060	-0.243
-450.938	-200.000	-0.002	0.333
-449.924	236.530	0.149	-0.245
-448.909	248.652	-0.118	0.200
-447.895	471.519	0.058	-0.130
-446.880	-200.000	-0.005	-0.186
-445.865	-200.000	0.013	-0.411
-444.851	-86.048	0.062	-0.019
-443.836	-74.140	-0.066	0.024
-442.822	-200.000	0.031	0.437
-441.807	281.837	-0.037	0.066
-440.792	727.097	0.145	0.387
-439.778	800.000	-0.034	0.135
-438.763	-176.004	0.257	0.007
-437.749	-52.211	-0.050	-0.023
-436.734	163.764	0.109	-0.153
-435.719	78.817	-0.263	0.281
-434.705	100.168	-0.049	-0.057
-433.690	-200.000	0.015	0.280
-432.676	374.326	0.084	0.171
-431.661	-102.342	-0.469	0.112
-430.646	-189.240	0.285	0.003
-429.632	-104.472	-0.192	0.044
-428.617	151.223	-0.131	0.178
-427.603	-147.844	0.075	0.006
-426.588	378.475	-0.109	0.222
-425.573	-59.589	0.373	-0.159
-424.559	265.590	-0.022	0.038
-423.544	-123.637	0.119	-0.019
-422.530	800.000	0.054	0.229
-421.515	234.496	-0.128	-0.209
-420.500	800.000	-0.062	-0.175
-419.486	-200.000	-0.047	-0.260
-418.471	800.000	0.036	0.103
-417.457	800.000	0.047	-0.147
-416.442	275.747	0.037	0.066
-415.428	471.145	-0.047	-0.105
-414.413	348.474	0.128	-0.252
-413.398	-85.889	-0.083	0.026
-412.384	-33.055	0.170	-0.094
-411.369	800.000	0.052	0.145
-410.355	86.989	-0.225	-0.247
-409.340	145.746	-0.095	-0.127
-408.325	182.436	0.131	0.192
-407.311	-178.267	0.266	0.006
-406.296	-66.821	-0.292	-0.115
-405.282	-106.523	-0.207	0.046
-404.267	623.801	0.060	-0.150
-403.252	130.720	-0.140	-0.178
-402.238	800.000	0.024	0.096
-401.223	-200.000	0.023	-0.136
-400.209	-67.527	-0.136	0.053
-399.194	-118.039	0.195	0.035
-398.179	-106.208	-0.271	-0.060
-397.165	-200.000	0.010	0.052
-396.150	-10.498	0.351	0.232
-395.136	-84.677	0.366	-0.115
-394.121	800.000	0.027	-0.095
-393.106	-106.133	-0.309	0.069
-392.092	-200.000	-0.082	0.449
-391.077	-200.000	0.033	0.224
-390.063	330.400	-0.126	0.242
-389.048	-58.119	0.120	-0.052
-388.033	-45.306	-0.121	-0.060
-387.019	-200.000	-0.022	-0.220
-386.004	-45.081	0.176	0.087
-384.990	-53.285	-0.164	0.075
-383.975	-19.104	0.114	-0.071
-382.960	-107.736	0.273	0.059
-381.946	800.000	-0.041	-0.135
-380.931	-33.881	0.100	-0.055
-379.917	-78.267	0.259	-0.089
-378.902	-45.394	-0.294	-0.145
-377.888	68.609	-0.315	0.321
-376.873	-74.430	-0.183	0.066
-375.858	-81.508	0.069	-0.022
-374.844	443.083	-0.096	-0.208
-373.829	516.592	-0.131	-0.304
-372.815	-111.142	-0.071	-0.014
-371.800	538.762	0.075	-0.177
-370.785	-32.022	0.092	-0.051
-369.771	767.148	-0.046	-0.124
-368.756	-53.198	-0.018	0.008
-367.742	-200.000	0.025	-0.171
-366.727	75.674	0.020	-0.021
-365.712	-140.901	-0.010	0.001
-364.698	-114.789	0.481	0.091
-363.683	343.605	-0.030	0.058
-362.669	158.093	0.128	0.177
-361.654	-151.931	-0.124	0.009
-360.639	-61.774	0.212	0.088
-359.625	-100.609	-0.047	0.012
-358.610	-149.479	0.190	-0.015
-357.596	171.496	0.190	-0.271
-356.581	29.354	0.131	0.111
-355.566	75.419	0.192	0.202
-354.552	-151.219	-0.265	0.020
-353.537	55.809	0.230	0.221
-352.523	-122.568	0.213	0.034
-351.508	111.664	0.201	0.241
-350.493	1.807	-0.304	-0.218
-349.479	-200.000	-0.034	-0.242
-348.464	42.144	-0.074	0.067
-347.450	-77.724	0.267	-0.092
-346.435	-200.000	-0.069	0.541
-345.420	800.000	0.108	0.305
-344.406	-200.000	-0.017	0.246
-343.391	222.810	-0.112	0.180
-342.377	393.214	-0.115	-0.238
-341.362	-82.903	-0.157	0.050
-340.348	24.199	-0.214	-0.176
-339.333	-200.000	-0.040	-0.321
-338.318	-105.916	0.394	0.088
-337.304	262.708	-0.123	-0.213
-336.289	-73.657	-0.226	-0.082
-335.275	411.333	0.117	-0.246
-334.260	39.853	-0.143	-0.127
-333.245	-200.000	-0.012	0.126
-332.231	-34.113	-0.281	0.153
-331.216	-200.000	0.048	0.299
-330.202	800.000	-0.033	0.104
-329.187	-200.000	0.009	-0.122
-328.172	539.694	-0.077	0.181
-327.158	-98.884	-0.187	0.047
-326.143	-200.000	-0.019	0.226
-325.129	-200.000	0.072	0.456
-324.114	-200.000	0.016	0.427
-323.099	177.685	0.064	-0.092
-322.085	191.491	0.054	-0.080
-321.070	-80.812	-0.409	0.135
-320.056	60.595	0.206	0.203
-319.041	800.000	0.089	0.248
-318.026	800.000	0.039	-0.158
-317.012	222.934	-0.025	0.039
-315.997	97.194	0.111	0.126
-314.983	313.300	-0.090	0.167
-313.968	14.110	-0.233	0.180
-312.953	-200.000	-0.028	0.295
-311.939	-63.471	-0.131	-0.053
-310.924	-200.000	0.083	-0.476
-309.910	-138.020	0.227	-0.025
-308.895	-55.032	0.191	0.085
-307.880	-131.374	0.100	0.013
-306.866	521.189	-0.281	0.654
-305.851	-15.919	0.172	0.109
-304.837	-153.655	0.190	0.013
-303.822	-149.562	-0.136	-0.011
-302.807	-200.000	0.013	0.145
-301.793	-75.361	0.219	0.077
-300.778	68.404	-0.270	-0.274
-299.764	-194.250	0.164	0.001
-298.749	721.638	0.034	0.091
-297.735	442.365	-0.107	-0.232
-296.720	113.868	0.015	-0.018
-295.705	-129.567	0.197	-0.027
-294.691	-200.000	0.036	0.259
-293.676	-200.000	-0.007	0.218
-292.662	360.420	0.149	0.296
-291.647	101.912	0.213	0.247
-290.632	-200.000	-0.002	-0.218
-289.618	726.147	-0.025	0.065
-288.603	84.492	0.091	-0.099
-287.589	-53.170	0.199	-0.090
-286.574	24.047	-0.206	0.168
-285.559	50.720	-0.160	-0.150
-284.545	-200.000	-0.009	-0.056
-283.530	-34.346	-0.253	-0.137
-282.516	-200.000	-0.004	-0.243
-281.501	480.692	0.122	0.275
-280.486	548.214	-0.032	0.075
-279.472	800.000	0.062	-0.181
-278.457	32.985	-0.137	-0.118
-277.443	-40.683	0.388	-0.199
-276.428	-166.386	-0.208	-0.009
-275.413	48.542	-0.167	-0.155
-274.399	134.457	-0.216	0.278
-273.384	489.135	-0.126	0.285
-272.370	-200.000	-0.013	-0.107
-271.355	-193.695	0.231	-0.002
-270.340	-7.732	0.121	0.081
-269.326	-89.201	0.241	0.070
-268.311	-143.270	-0.123	0.012
-267.297	45.681	-0.147	0.134
-266.282	-127.374	-0.266	0.038
-265.267	71.428	0.157	0.161
-264.253	180.485	-0.008	0.012
-263.238	125.037	-0.114	0.142
-262.224	240.614	0.119	-0.197
-261.209	712.432	-0.065	0.171
-260.195	-96.155	0.152	-0.040
-259.180	-200.000	0.023	-0.141
-258.165	85.548	-0.131	0.142
-257.151	10.955	-0.249	0.188
-256.136	800.000	-0.087	0.258
-255.122	800.000	-0.050	0.189
-254.107	-120.196	-0.192	-0.033
-253.092	246.729	-0.158	-0.263
-252.078	331.749	-0.077	-0.146
-251.063	-200.000	0.040	-0.390
-250.049	-103.883	0.068	-0.016
-249.034	113.449	-0.182	-0.218
-248.019	-153.370	-0.357	0.025
-247.005	-38.176	0.076	0.040
-245.990	383.840	0.106	0.217
-244.976	537.599	0.084	-0.197
-243.961	-19.588	0.443	-0.271
-242.946	-86.219	-0.315	0.096
-241.932	226.976	-0.159	-0.256
-240.917	-87.961	0.281	0.084
-239.903	18.238	-0.061	-0.049
-238.888	-200.000	0.003	0.303
-237.873	11.589	0.048	0.037
-236.859	17.499	0.081	-0.063
-235.844	154.215	0.100	-0.135
-234.830	-44.118	-0.224	-0.111
-233.815	-37.690	-0.147	-0.077
-232.800	32.515	0.168	-0.143
-231.786	246.675	-0.070	-0.117
-230.771	-0.405	0.143	-0.100
-229.757	3.302	0.093	0.067
-228.742	-102.175	0.335	0.080
-227.727	-179.986	0.199	-0.004
-226.713	-106.853	0.091	-0.020
-225.698	-65.770	-0.133	0.053
-224.684	229.195	0.037	-0.060
-223.669	-47.193	-0.386	0.186
-222.655	-200.000	0.084	0.388
-221.640	2.764	0.168	0.120
-220.625	70.517	0.044	0.045
-219.611	-88.980	0.166	-0.049
-218.596	-165.862	-0.398	0.017
-217.582	-200.000	0.006	-0.394
-216.567	-200.000	-0.019	-0.123
-215.552	89.874	0.045	-0.050
-214.538	-10.860	-0.093	0.061
-213.523	574.154	0.092	-0.222
-212.509	-162.067	-0.248	-0.012
-211.494	-28.790	-0.243	-0.138
-210.479	-135.384	0.252	0.030
-209.465	-104.293	0.190	0.044
-208.450	-140.073	-0.354	0.037
-207.436	-110.660	0.454	0.093
-206.421	6.837	0.295	-0.217
-205.406	-63.952	0.312	-0.126
-204.392	-200.000	0.006	-0.040
-203.377	-200.000	-0.010	0.211
-202.363	-200.000	0.042	0.242
-201.348	-110.058	0.087	0.018
-200.333	-82.627	0.260	-0.083
-199.319	800.000	-0.044	-0.138
-198.304	-200.000	0.005	-0.237
-197.290	20.705	0.252	0.202
-196.275	-94.786	0.168	-0.045
-195.260	373.527	-0.194	0.389
-194.246	288.754	0.184	0.328
-193.231	-129.376	0.136	-0.019
-192.217	-22.427	0.036	-0.021
-191.202	318.719	0.265	-0.496
-190.187	-36.268	-0.124	-0.066
-189.173	14.952	-0.090	-0.070
-188.158	-130.529	0.227	-0.030
-187.144	-142.826	0.170	-0.016
-186.129	-200.000	-0.141	0.618
-185.114	266.769	-0.186	0.320
-184.100	176.372	-0.061	-0.087
-183.085	-21.866	0.280	-0.168
-182.071	-200.000	-0.003	-0.185
-181.056	278.989	-0.149	-0.262
-180.042	113.635	-0.093	0.112
-179.027	85.125	0.171	-0.185
-178.012	800.000	0.077	-0.214
-176.998	-141.264	0.224	0.023
-175.983	-200.000	-0.016	-0.332
-174.969	115.514	0.057	-0.068
-173.954	14.369	0.097	-0.074
-172.939	-200.000	0.006	-0.259
-171.925	757.481	-0.015	0.041
-170.910	-70.217	0.326	0.122
-169.896	79.974	0.188	-0.200
-168.881	12.104	-0.029	0.022
-167.866	64.824	0.179	-0.178
-166.852	226.905	-0.053	0.085
-165.837	-131.539	0.139	-0.018
-164.823	-172.997	-0.198	0.006
-163.808	306.481	-0.040	-0.073
-162.793	800.000	-0.015	-0.054
-161.779	-36.610	0.260	0.138
-160.764	-114.263	-0.243	0.046
-159.750	399.170	0.094	-0.193
-158.735	339.925	-0.090	0.173
-157.720	31.365	-0.116	0.098
-156.706	-200.000	0.021	0.092
-155.691	-65.691	-0.048	-0.019
-154.677	-1.382	0.196	0.137
-153.662	800.000	-0.082	-0.294
-152.647	72.740	0.152	-0.157
-151.633	-134.113	-0.248	0.030
-150.618	-162.152	-0.380	0.019
-149.604	61.053	0.119	-0.117
-148.589	-83.668	0.181	-0.057
-147.574	-137.401	0.352	-0.039
-146.560	436.855	0.070	-0.150
-145.545	-125.499	-0.072	-0.011
-144.531	-200.000	0.012	-0.228
-143.516	737.366	0.105	-0.277
-142.502	225.873	0.138	0.220
-141.487	65.835	0.212	0.212
-140.472	69.050	-0.130	0.131
-139.458	183.436	0.108	-0.158
-138.443	-12.899	0.225	0.145
-137.429	108.790	0.279	0.328
-136.414	90.225	0.045	0.050
-135.399	800.000	0.098	0.272
-134.385	-6.827	-0.124	0.083
-133.370	-111.092	-0.190	-0.038
-132.356	41.017	-0.153	-0.137
-131.341	532.857	0.044	-0.104
-130.326	280.082	0.076	-0.134
-129.312	128.546	0.089	-0.112
-128.297	-181.413	0.440	-0.009
-127.283	-200.000	0.035	0.211
-126.268	111.822	-0.122	0.146
-125.253	569.246	-0.092	0.221
-124.239	448.541	-0.164	-0.355
-123.224	-40.168	-0.159	-0.081
-122.210	-121.197	0.143	0.024
-121.195	-58.726	0.018	0.008
-120.180	-76.876	0.218	-0.075
-119.166	-151.105	0.299	-0.022
-118.151	71.086	0.232	0.237
-117.137	45.102	-0.196	0.178
-116.122	-187.351	-0.070	-0.001
-115.107	401.100	0.054	0.112
-114.093	800.000	0.085	0.253
-113.078	289.080	0.181	-0.323
-112.064	-136.710	-0.179	0.020
-111.049	14.036	-0.088	0.067
-110.034	-85.381	0.465	0.143
-109.020	44.640	0.331	0.300
-108.005	103.871	-0.179	-0.207
-106.991	-200.000	0.002	0.293
-105.976	-81.727	0.068	-0.022
-104.962	259.824	0.058	-0.099
-103.947	-200.000	-0.004	-0.021
-102.932	330.101	-0.069	0.131
-101.918	38.206	-0.053	-0.046
-100.903	-200.000	0.034	-0.166
-99.889	-132.132	0.276	-0.035
-98.874	-200.000	-0.012	-0.064
-97.859	-8.491	-0.178	0.118
-96.845	22.871	-0.144	0.116
-95.830	331.612	0.076	0.143
-94.816	-108.929	0.125	-0.026
-93.801	-43.047	0.128	0.064
-92.786	-62.043	-0.190	-0.078
-91.772	-83.100	-0.159	-0.050
-90.757	800.000	-0.080	-0.289
-89.743	-200.000	0.025	0.121
-88.728	-200.000	0.004	-0.045
-87.713	-51.388	-0.181	0.083
-86.699	-63.536	-0.230	-0.093
-85.684	-93.739	-0.154	-0.042
-84.670	212.039	-0.054	-0.084
-83.655	-28.249	-0.346	-0.196
-82.640	-179.223	-0.218	-0.005
-81.626	80.832	-0.062	0.066
-80.611	298.613	-0.033	0.059
-79.597	800.000	-0.036	0.148
-78.582	345.605	0.075	-0.145
-77.567	-31.416	-0.169	0.094
-76.553	-122.221	0.117	-0.019
-75.538	-168.236	-0.397	0.015
-74.524	7.618	0.125	-0.092
-73.509	-66.310	0.138	0.054
-72.494	-200.000	0.002	-0.210
-71.480	-200.000	-0.032	-0.331
-70.465	33.504	-0.247	0.211
-69.451	-102.138	-0.181	0.043
-68.436	-150.753	-0.252	0.019
-67.422	-130.317	-0.361	-0.048
-66.407	-31.781	0.290	0.160
-65.392	-144.092	0.113	-0.010
-64.378	800.000	-0.091	0.386
-63.363	6.929	-0.267	-0.195
-62.349	322.335	-0.121	0.227
-61.334	-2.860	-0.896	-0.615
-60.319	172.027	0.525	0.742
-59.305	800.000	-0.331	-0.935
-58.290	26.553	1.002	0.824
-57.276	346.821	0.781	1.511
-56.261	-200.000	97.490	605.415
-55.246	639.173	1382.003	3452.431
-54.232	196.089	2570.465	3842.031
-53.217	113.702	2270.625	2709.372
-52.203	41.253	1896.529	1683.826
-51.188	34.944	1686.244	1449.453
-50.173	32.256	1642.712	1392.108
-49.159	50.493	1689.421	1568.896
-48.144	51.985	1705.894	1595.311
-47.130	34.577	1666.636	1429.625
-46.115	31.809	1652.175	1396.570
-45.100	31.631	1647.407	1391.164
-44.086	31.510	1645.030	1388.202
-43.071	31.578	1642.304	1386.354
-42.057	31.456	1640.300	1383.703
-41.042	31.570	1637.702	1382.299
-40.027	31.571	1636.126	1380.920
-39.013	31.482	1634.221	1378.600
-37.998	31.481	1632.861	1377.391
-36.984	31.381	1631.834	1375.739
-35.969	31.544	1630.224	1375.520
-34.954	31.771	1627.778	1375.065
-33.940	31.627	1626.229	1372.651
-32.925	31.657	1624.838	1371.644
-31.911	31.608	1622.825	1369.529
-30.896	31.614	1621.143	1368.098
-29.881	31.567	1619.701	1366.483
-28.867	31.585	1617.865	1365.014
-27.852	31.585	1616.039	1363.415
-26.838	31.605	1614.472	1362.190
-25.823	31.693	1613.071	1361.594
-24.809	31.660	1612.190	1360.558
-23.794	31.635	1610.677	1359.042
-22.779	31.565	1609.133	1357.177
-21.765	31.737	1607.523	1357.010
-20.750	31.650	1606.106	1355.132
-19.736	31.624	1604.821	1353.803
-18.721	31.656	1603.192	1352.608
-17.706	31.621	1601.443	1350.826
-16.692	31.672	1600.045	1349.961
-15.677	31.739	1599.024	1349.527
-14.663	31.770	1597.519	1348.430
-13.648	31.569	1596.697	1346.238
-12.633	31.616	1595.229	1345.279
-11.619	31.643	1593.313	1343.805
-10.604	31.656	1591.264	1342.118
-9.590	31.689	1590.264	1341.458
-8.575	31.738	1589.091	1340.770
-7.560	31.671	1587.558	1338.939
-6.546	31.710	1586.934	1338.637
-5.531	31.688	1585.726	1337.412
-4.517	31.638	1584.544	1336.003
-3.502	31.653	1583.828	1335.455
-2.487	31.629	1582.002	1333.694
-1.473	31.340	1570.121	1321.579
-0.458	28.536	1550.770	1285.614
0.556	24.334	1551.970	1254.646
1.571	21.996	1574.656	1256.164
2.586	21.482	1587.425	1262.531
3.600	19.042	1534.585	1203.350
4.615	11.651	1427.214	1070.810
5.629	5.571	1366.065	986.617
6.644	4.644	1358.556	975.296
7.659	4.481	1357.332	973.313
8.673	4.518	1355.995	972.501
9.688	4.547	1354.356	971.415
10.702	4.438	1351.396	968.527
11.717	7.223	1356.711	989.673
12.731	14.362	1369.863	1044.063
13.746	18.995	1376.762	1078.347
14.761	18.774	1375.137	1075.592
15.775	17.629	1372.837	1066.533
16.790	16.629	1370.020	1058.001
17.804	15.880	1367.621	1051.380
18.819	15.634	1366.200	1048.660
19.834	15.306	1364.849	1045.489
20.848	15.081	1363.702	1043.113
21.863	14.801	1362.730	1040.535
22.877	14.601	1361.504	1038.260
23.892	14.655	1361.177	1038.259
24.907	14.633	1359.869	1037.031
25.921	14.698	1358.743	1036.483
26.936	14.645	1357.983	1035.485
27.950	14.744	1356.695	1035.026
28.965	14.648	1356.515	1034.198
29.980	14.948	1354.691	1034.573
30.994	14.995	1353.819	1034.108
32.009	15.003	1352.531	1033.082
33.023	14.961	1351.376	1031.851
34.038	14.892	1349.695	1030.046
35.053	14.875	1348.794	1029.162
36.067	14.744	1347.655	1027.400
37.082	14.848	1346.491	1027.059
38.096	14.933	1345.402	1026.662
39.111	14.793	1345.210	1025.563
40.126	14.814	1343.784	1024.513
41.140	14.680	1343.316	1023.244
42.155	14.621	1342.384	1022.087
43.169	14.563	1342.579	1021.784
44.184	14.637	1342.047	1021.745
45.199	14.642	1341.265	1021.091
46.213	14.657	1341.073	1020.946
47.228	14.794	1340.188	1021.020
48.242	14.782	1339.245	1020.134
49.257	14.741	1337.894	1018.765
50.271	14.770	1336.051	1017.448
51.286	14.810	1335.141	1016.909
52.301	14.835	1333.167	1015.468
53.315	14.702	1332.649	1014.173
54.330	14.738	1331.431	1013.376
55.344	14.605	1330.388	1011.686
56.359	14.685	1329.309	1011.264
57.374	14.655	1328.301	1010.223
58.388	14.596	1327.736	1009.348
59.403	14.593	1326.847	1008.565
60.417	14.564	1326.769	1008.241
61.432	14.534	1325.843	1007.266
62.447	14.560	1324.470	1006.290
63.461	14.453	1323.206	1004.596
64.476	14.334	1322.550	1003.295
65.490	14.492	1321.121	1003.069
66.505	14.529	1319.625	1002.070
67.520	14.509	1318.286	1000.843
68.534	14.514	1317.555	1000.228
69.549	14.439	1316.861	999.169
70.563	14.518	1315.504	998.518
71.578	14.451	1314.431	997.217
72.593	14.478	1312.932	996.151
73.607	14.387	1312.333	995.064
74.622	14.369	1311.827	994.487
75.636	14.323	1311.059	993.540
76.651	14.376	1310.213	993.129
77.666	14.353	1309.991	992.739
78.680	14.388	1309.679	992.623
79.695	14.571	1308.025	992.366
80.709	14.485	1308.207	991.906
81.724	14.619	1307.050	991.739
82.739	14.683	1306.098	991.309
83.753	14.754	1305.240	990.993
84.768	14.835	1304.182	990.577
85.782	14.912	1303.450	990.391
86.797	14.895	1302.170	989.231
87.812	14.864	1300.438	987.644
88.826	14.815	1299.567	986.608
89.841	14.800	1298.303	985.472
90.855	14.786	1297.598	984.766
91.870	14.892	1296.790	984.693
92.884	14.855	1296.306	984.020
93.899	15.010	1295.175	983.985
94.914	14.882	1294.649	982.746
95.928	14.987	1293.460	982.372
96.943	14.990	1292.095	981.269
97.957	14.811	1291.744	979.863
98.972	14.929	1290.198	979.297
99.987	14.894	1289.771	978.678
101.001	14.812	1288.616	977.234
102.016	14.810	1287.711	976.453
103.030	14.894	1287.149	976.429
104.045	14.827	1285.725	974.870
105.060	14.755	1284.626	973.531
106.074	14.658	1283.313	971.889
107.089	14.516	1281.903	969.907
108.103	14.521	1280.581	968.853
109.118	14.546	1279.476	968.072
110.133	14.614	1277.701	967.038
111.147	14.595	1276.368	965.837
112.162	14.591	1275.321	964.932
113.176	14.698	1274.080	964.530
114.191	14.714	1273.385	964.009
115.206	14.676	1272.418	962.975
116.220	14.577	1270.978	961.225
117.235	14.644	1269.645	960.522
118.249	14.539	1269.559	959.766
119.264	14.583	1267.929	958.698
120.279	14.553	1266.790	957.583
121.293	14.606	1265.369	956.728
122.308	14.555	1264.740	955.873
123.322	14.417	1263.778	954.275
124.337	14.393	1262.404	953.014
125.352	14.533	1261.418	952.986
126.366	14.474	1260.528	951.892
127.381	14.456	1259.408	950.862
128.395	14.553	1258.204	950.422
129.410	14.566	1257.366	949.778
130.424	14.496	1256.751	948.829
131.439	14.536	1255.681	948.163
132.454	14.684	1254.474	948.010
133.468	14.739	1253.417	947.441
134.483	14.686	1253.095	946.813
135.497	14.593	1253.015	946.138
136.512	14.725	1250.817	945.146
137.527	14.625	1249.820	943.739
138.541	14.703	1248.172	942.854
139.556	14.682	1247.021	941.784
140.570	14.744	1246.105	941.359
141.585	14.861	1244.819	940.962
142.600	14.908	1243.689	940.290
143.614	14.980	1242.782	939.926
144.629	14.879	1241.780	938.517
145.643	14.985	1240.141	937.788
146.658	14.835	1239.390	936.295
147.673	14.896	1237.762	935.324
148.687	14.778	1236.751	933.821
149.702	14.784	1235.126	932.542
150.716	14.686	1234.599	931.516
151.731	14.688	1232.904	930.165
152.746	14.781	1231.773	929.745
153.760	14.740	1230.670	928.606
154.775	14.934	1229.723	928.885
155.789	15.021	1228.360	928.255
156.804	14.941	1227.408	927.009
157.819	14.933	1226.856	926.467
158.833	15.074	1225.485	926.132
159.848	15.062	1224.850	925.504
160.862	15.119	1223.331	924.590
161.877	14.966	1221.963	922.627
162.892	14.886	1221.370	921.658
163.906	14.781	1221.112	920.802
164.921	14.803	1219.746	919.815
165.935	14.811	1219.084	919.279
166.950	14.815	1218.010	918.409
167.964	14.927	1217.251	918.367
168.979	14.930	1216.726	917.907
169.994	14.922	1215.934	917.187
171.008	14.948	1214.964	916.516
172.023	15.084	1213.861	916.349
173.037	15.030	1213.482	915.686
174.052	15.011	1212.503	914.757
175.067	14.985	1211.694	913.925
176.081	14.829	1210.770	912.299
177.096	14.913	1209.636	911.822
178.110	14.965	1208.338	911.043
179.125	14.932	1207.235	909.953
180.140	15.018	1205.668	909.157
181.154	15.067	1204.807	908.694
182.169	15.193	1203.465	908.287
183.183	15.211	1202.291	907.417
184.198	15.149	1201.482	906.391
185.213	15.221	1200.137	905.684
186.227	15.170	1199.445	904.804
187.242	15.221	1198.573	904.344
188.256	15.385	1197.316	904.200
189.271	15.375	1196.131	903.172
190.286	15.222	1195.456	901.755
191.300	14.925	1194.214	899.145
192.315	14.886	1193.634	898.416
193.329	14.960	1192.890	898.176
194.344	14.857	1192.428	897.195
195.359	14.984	1191.893	897.396
196.373	15.124	1191.486	897.760
197.388	15.156	1191.447	897.820
198.402	15.307	1190.812	898.076
199.417	15.412	1190.287	898.159
200.432	15.506	1189.419	897.931
201.446	15.464	1188.678	897.065
202.461	15.565	1187.564	896.685
203.475	15.544	1186.569	895.741
204.490	15.575	1184.776	894.477
205.504	15.466	1183.768	893.054
206.519	15.400	1182.762	891.867
207.534	15.494	1181.485	891.324
208.548	15.437	1180.780	890.409
209.563	15.357	1180.320	889.562
210.577	15.496	1179.098	889.298
211.592	15.581	1178.492	889.208
212.607	15.505	1177.469	887.956
213.621	15.619	1176.551	887.787
214.636	15.513	1175.929	886.681
215.650	15.578	1174.558	885.914
216.665	15.542	1173.765	885.046
217.680	15.672	1172.910	885.009
218.694	15.822	1172.169	885.159
219.709	15.719	1171.570	884.086
220.723	15.646	1170.923	883.138
221.738	15.674	1169.953	882.472
222.753	15.595	1169.291	881.485
223.767	15.636	1168.854	881.288
224.782	15.802	1168.220	881.603
225.796	15.887	1167.398	881.352
226.811	15.823	1166.997	880.635
227.826	15.717	1166.346	879.511
228.840	15.765	1165.283	878.884
229.855	15.763	1164.836	878.457
230.869	15.925	1163.587	878.284
231.884	15.702	1163.050	876.635
232.899	15.695	1161.840	875.613
233.913	15.610	1161.726	875.003
234.928	15.564	1160.940	874.097
235.942	15.637	1159.665	873.439
236.957	15.688	1159.168	873.254
237.972	15.658	1158.522	872.534
238.986	15.692	1157.804	872.089
240.001	15.704	1157.151	871.586
241.015	15.893	1155.899	871.542
242.030	15.811	1155.324	870.610
243.045	15.774	1154.999	870.095
244.059	15.837	1153.791	869.432
245.074	15.815	1153.239	868.828
246.088	15.884	1152.309	868.403
247.103	15.977	1151.695	868.345
248.117	15.934	1151.100	867.595
249.132	16.079	1150.306	867.668
250.147	16.238	1149.778	868.010
251.161	16.336	1148.907	867.778
252.176	16.253	1148.453	866.932
253.190	16.317	1147.605	866.545
254.205	16.389	1147.492	866.754
255.220	16.500	1146.540	866.525
256.234	16.375	1146.049	865.437
257.249	16.446	1145.603	865.388
258.263	16.530	1144.377	864.816
259.278	16.362	1144.157	863.715
260.293	16.387	1143.376	863.178
261.307	16.497	1142.766	863.201
262.322	16.495	1142.334	862.787
263.336	16.501	1141.631	862.211
264.351	16.477	1140.746	861.342
265.366	16.693	1139.781	861.637
266.380	16.423	1139.746	860.161
267.395	16.478	1139.102	859.880
268.409	16.452	1137.940	858.794
269.424	16.497	1136.885	858.150
270.439	16.476	1136.666	857.803
271.453	16.480	1135.926	857.187
272.468	16.412	1135.208	856.226
273.482	16.421	1134.120	855.375
274.497	16.442	1133.750	855.126
275.512	16.470	1132.658	854.367
276.526	16.514	1132.273	854.227
277.541	16.412	1131.843	853.310
278.555	16.571	1130.581	853.086
279.570	16.512	1130.070	852.326
280.585	16.623	1129.505	852.386
281.599	16.719	1128.383	851.947
282.614	16.635	1127.255	850.594
283.628	16.553	1126.325	849.407
284.643	16.664	1125.335	849.141
285.657	16.647	1124.196	848.123
286.672	16.595	1123.842	847.519
287.687	16.689	1122.854	847.169
288.701	16.719	1122.144	846.707
289.716	16.716	1120.921	845.695
290.730	16.647	1120.601	845.036
291.745	16.610	1120.154	844.441
292.760	16.907	1119.082	845.039
293.774	16.804	1118.826	844.257
294.789	16.904	1118.267	844.259
295.803	16.842	1117.482	843.279
296.818	16.810	1116.648	842.418
297.833	16.813	1115.938	841.822
298.847	16.783	1114.962	840.864
299.862	16.840	1114.407	840.654
300.876	16.898	1113.671	840.311
301.891	16.861	1113.327	839.794
302.906	16.966	1112.308	839.470
303.920	17.010	1112.037	839.409
304.935	17.071	1111.458	839.198
305.949	17.151	1110.380	838.706
306.964	17.050	1110.283	838.063
307.979	17.035	1109.211	837.102
308.993	17.159	1108.529	837.124
310.008	17.086	1107.882	836.202
311.022	17.122	1107.054	835.681
312.037	17.142	1105.973	834.890
313.052	17.107	1105.286	834.123
314.066	16.954	1104.436	832.657
315.081	16.984	1103.470	832.004
316.095	16.924	1103.067	831.332
317.110	16.938	1102.340	830.782
318.125	16.911	1100.904	829.494
319.139	17.138	1100.308	830.079
320.154	16.989	1100.166	829.170
321.168	17.088	1099.198	828.851
322.183	17.049	1098.891	828.357
323.197	17.019	1098.132	827.566
324.212	17.105	1097.485	827.425
325.227	17.069	1096.745	826.615
326.241	17.117	1096.308	826.446
327.256	17.111	1095.347	825.621
328.270	17.091	1094.303	824.663
329.285	17.103	1093.906	824.347
330.300	17.225	1092.690	823.949
331.314	17.138	1091.846	822.821
332.329	17.148	1090.909	822.089
333.343	17.199	1089.785	821.416
334.358	17.245	1089.471	821.328
335.373	17.283	1088.854	820.976
336.387	17.316	1087.905	820.346
337.402	17.234	1087.429	819.518
338.416	17.347	1086.779	819.501
339.431	17.410	1086.147	819.255
340.446	17.480	1085.107	818.737
341.460	17.597	1084.681	818.906
342.475	17.568	1083.890	818.097
343.489	17.555	1082.976	817.271
344.504	17.672	1082.373	817.305
345.519	17.718	1081.392	816.712
346.533	17.612	1080.624	815.552
347.548	17.809	1079.888	815.868
348.562	17.659	1079.293	814.628
349.577	17.675	1077.924	813.598
350.592	17.468	1077.623	812.314
351.606	17.534	1077.070	812.138
352.621	17.585	1075.890	811.418
353.635	17.536	1075.281	810.658
354.650	17.494	1074.641	809.902
355.665	17.673	1073.794	810.043
356.679	17.611	1073.273	809.285
357.694	17.555	1072.754	808.552
358.708	17.622	1072.052	808.272
359.723	17.736	1071.565	808.374
360.738	17.781	1070.824	807.955
361.752	17.635	1070.444	806.906
362.767	17.672	1069.959	806.643
363.781	17.651	1069.554	806.168
364.796	17.796	1068.777	806.197
365.810	17.911	1068.184	806.220
366.825	18.016	1067.470	806.105
367.840	18.016	1067.232	805.854
368.854	17.954	1067.147	805.425
369.869	17.940	1066.008	804.430
370.883	18.025	1064.776	803.832
371.898	17.925	1064.355	802.970
372.913	18.010	1063.849	802.917
373.927	18.052	1063.110	802.487
374.942	18.054	1062.523	801.980
375.956	17.969	1062.178	801.251
376.971	18.084	1061.421	801.150
377.986	18.002	1061.272	800.578
379.000	18.154	1060.488	800.629
380.015	18.164	1060.084	800.302
381.029	18.279	1059.320	800.192
382.044	18.099	1058.795	798.880
383.059	18.295	1057.456	798.718
384.073	18.289	1057.024	798.289
385.088	18.190	1056.325	797.229
386.102	18.284	1055.212	796.759
387.117	18.172	1054.086	795.318
388.132	18.043	1053.458	794.171
389.146	18.099	1052.460	793.609
390.161	18.057	1052.034	793.022
391.175	18.096	1051.139	792.460
392.190	18.200	1050.644	792.498
393.205	18.286	1050.054	792.383
394.219	18.319	1049.021	791.685
395.234	18.225	1047.956	790.374
396.248	18.122	1047.440	789.442
397.263	18.233	1046.183	788.935
398.278	18.183	1045.338	787.998
399.292	18.098	1044.558	786.949
400.307	18.096	1043.911	786.386
401.321	18.245	1043.065	786.361
402.336	18.162	1042.267	785.308
403.350	18.241	1041.718	785.190
404.365	18.155	1041.146	784.292
405.380	18.268	1040.604	784.335
406.394	18.314	1039.852	783.907
407.409	18.255	1039.231	783.098
408.423	18.481	1038.490	783.508
409.438	18.475	1037.849	782.928
410.453	18.490	1037.729	782.833
411.467	18.585	1036.555	782.314
412.482	18.542	1036.113	781.715
413.496	18.585	1035.599	781.451
414.511	18.646	1034.670	780.959
415.526	18.740	1034.421	781.131
416.540	18.710	1034.111	780.692
417.555	18.698	1033.632	780.206
418.569	18.772	1032.479	779.603
419.584	18.723	1032.231	779.126
420.599	18.733	1031.946	778.888
421.613	150.694	1400.562	1794.544
422.628	137.546	1454.260	1794.641
