DTS Sentinel unit serial number:	SN413079Multiplexer serial number:	ORYXHardware model number:	OX4-SRSoftware version number:	ORYX F/W v4.00 Oryx Data Collector v3.7.2.0data status	okinstallation	princeton_trtdifferential loss correction	single-endedforward channel	channel 2reverse channel	N/Adate	2019/09/14time	02:35:35forward acquisition time	60.00reverse acquisition time	0.00gamma	496.2192k internal	0.2337k external	0.2337temperature offset calibration	1.0126default loss term (dB/km)	0.3790temperature slope calibration	1.0000multiplexer offset coefficient	1.0000multiplexer slope coefficient	1.0000fibre end	0.00T internal ref (°C)	26.53T ext. ref 1 (°C)	3.23T ext. ref 2 (°C)	21.56length (m)	temperature (°C)	Stokes	anti-Stokes-747.200	-13.126	0.085	0.055
-746.185	-200.000	0.033	-0.189
-745.171	101.630	0.188	0.220
-744.156	31.663	-0.063	-0.054
-743.142	-38.682	-0.112	0.059
-742.127	36.912	-0.154	0.137
-741.112	-200.000	0.047	0.464
-740.098	-200.000	-0.015	0.129
-739.083	37.077	0.336	0.299
-738.069	800.000	-0.108	0.326
-737.054	239.759	0.106	0.178
-736.039	800.000	-0.009	0.029
-735.025	43.733	-0.165	0.152
-734.010	800.000	0.066	0.184
-732.996	106.028	-0.183	-0.218
-731.981	800.000	0.004	-0.018
-730.966	310.397	-0.111	0.208
-729.952	53.904	-0.068	-0.066
-728.937	41.433	-0.120	0.109
-727.923	711.461	-0.110	-0.292
-726.908	-116.443	-0.450	-0.083
-725.894	179.190	0.146	0.214
-724.879	-200.000	0.039	0.190
-723.864	-200.000	-0.089	-0.452
-722.850	648.508	0.086	-0.220
-721.835	148.383	-0.060	0.082
-720.821	800.000	0.101	-0.289
-719.806	-200.000	0.001	0.133
-718.791	104.859	0.106	-0.126
-717.777	114.278	-0.159	-0.195
-716.762	-200.000	0.026	-0.335
-715.748	-101.648	-0.223	0.054
-714.733	-173.839	-0.235	0.007
-713.718	81.353	-0.100	0.108
-712.704	201.279	-0.057	-0.088
-711.689	-6.554	-0.239	-0.163
-710.675	-121.729	-0.355	0.059
-709.660	-200.000	0.035	0.280
-708.645	-197.015	0.161	0.001
-707.631	-153.042	0.124	0.009
-706.616	-56.461	-0.274	0.122
-705.602	309.824	0.044	0.082
-704.587	83.670	0.160	-0.175
-703.572	-49.043	0.089	-0.043
-702.558	-55.495	0.009	0.004
-701.543	91.580	-0.182	0.205
-700.529	-200.000	0.028	0.190
-699.514	800.000	-0.092	-0.275
-698.499	-50.134	0.306	0.145
-697.485	-142.643	-0.372	-0.036
-696.470	-42.892	0.416	0.212
-695.456	200.818	-0.109	0.167
-694.441	203.072	0.294	-0.455
-693.426	23.051	-0.298	-0.245
-692.412	-200.000	0.022	-0.479
-691.397	172.944	-0.184	0.266
-690.383	-200.000	0.011	0.058
-689.368	136.276	-0.257	0.336
-688.354	-97.301	-0.273	-0.071
-687.339	454.683	-0.205	-0.455
-686.324	461.743	-0.149	-0.333
-685.310	800.000	-0.020	-0.085
-684.295	10.991	0.154	-0.118
-683.281	-72.951	0.164	0.060
-682.266	429.958	-0.159	-0.344
-681.251	-200.000	-0.024	-0.242
-680.237	332.876	-0.277	-0.537
-679.222	185.529	-0.110	0.163
-678.208	117.493	-0.129	-0.159
-677.193	800.000	0.074	-0.249
-676.178	-50.639	-0.052	-0.025
-675.164	-139.190	-0.255	0.028
-674.149	202.797	0.107	0.166
-673.135	59.011	0.064	0.063
-672.120	-52.311	-0.137	-0.063
-671.105	373.635	0.089	0.181
-670.091	-67.871	0.300	0.117
-669.076	-56.106	-0.159	-0.071
-668.062	-162.308	0.065	-0.003
-667.047	-200.000	-0.030	-0.331
-666.032	800.000	0.052	-0.221
-665.018	-105.371	-0.051	0.012
-664.003	296.776	-0.093	-0.170
-662.989	-80.303	0.149	-0.050
-661.974	68.952	0.137	0.140
-660.959	-98.612	-0.070	0.018
-659.945	-200.000	-0.076	0.365
-658.930	667.157	-0.027	0.069
-657.916	334.469	0.053	0.103
-656.901	170.270	0.124	-0.178
-655.886	-39.801	0.188	0.098
-654.872	266.125	-0.084	-0.146
-653.857	-63.826	-0.164	0.067
-652.843	-28.433	0.181	-0.104
-651.828	144.023	-0.101	-0.134
-650.814	138.925	-0.101	0.133
-649.799	-183.289	0.110	-0.002
-648.784	800.000	-0.134	-0.391
-647.770	35.987	0.033	-0.029
-646.755	-200.000	0.016	-0.106
-645.741	63.914	0.161	0.162
-644.726	800.000	0.058	0.202
-643.711	-112.725	0.237	0.047
-642.697	33.068	-0.027	-0.024
-641.682	-200.000	-0.001	0.154
-640.668	800.000	0.082	0.239
-639.653	445.911	0.091	-0.201
-638.638	-137.409	-0.405	0.046
-637.624	-116.750	0.145	-0.027
-636.609	-58.793	-0.452	-0.196
-635.595	800.000	-0.100	-0.373
-634.580	-66.560	-0.099	0.039
-633.565	800.000	-0.033	0.095
-632.551	218.453	-0.121	0.194
-631.536	-81.728	-0.089	-0.029
-630.522	11.637	-0.348	0.267
-629.507	32.182	-0.276	-0.238
-628.492	28.423	-0.231	-0.195
-627.478	-151.582	-0.191	-0.014
-626.463	283.302	0.048	-0.086
-625.449	-53.272	0.202	-0.093
-624.434	349.645	-0.119	0.235
-623.419	-43.058	0.108	-0.055
-622.405	47.717	0.093	-0.087
-621.390	-35.126	0.082	0.044
-620.376	800.000	0.048	-0.201
-619.361	1.412	0.071	-0.051
-618.346	-200.000	-0.014	0.219
-617.332	800.000	-0.072	-0.268
-616.317	-40.795	-0.411	-0.213
-615.303	-100.862	-0.347	0.085
-614.288	-200.000	0.006	-0.185
-613.273	-109.274	0.019	-0.004
-612.259	-145.946	-0.173	-0.015
-611.244	2.420	-0.095	0.068
-610.230	41.766	0.080	-0.073
-609.215	52.044	-0.247	-0.235
-608.201	-112.399	-0.198	0.040
-607.186	392.268	0.048	-0.100
-606.171	-200.000	0.036	-0.184
-605.157	178.438	-0.121	-0.177
-604.142	-200.000	-0.002	-0.040
-603.128	-75.300	0.246	0.088
-602.113	-55.736	0.207	0.092
-601.098	-87.801	0.114	-0.034
-600.084	-174.508	0.363	0.010
-599.069	-52.965	0.024	0.011
-598.055	-25.094	0.038	0.023
-597.040	-93.271	0.400	-0.111
-596.025	441.127	-0.032	0.070
-595.011	215.785	0.101	-0.161
-593.996	-43.408	0.428	0.216
-592.982	-34.813	-0.020	-0.011
-591.967	-60.282	0.360	0.153
-590.952	255.158	0.021	-0.035
-589.938	-11.322	0.208	0.137
-588.923	-143.031	-0.306	0.030
-587.909	10.608	0.044	-0.034
-586.894	-98.119	0.545	-0.140
-585.879	-15.123	-0.157	-0.100
-584.865	800.000	-0.052	0.186
-583.850	-60.907	-0.179	0.076
-582.836	-55.013	-0.123	-0.055
-581.821	-17.398	-0.246	0.154
-580.806	-200.000	0.057	-0.408
-579.792	-108.197	-0.128	0.028
-578.777	1.894	-0.320	0.230
-577.763	-119.815	0.173	0.030
-576.748	-68.565	0.252	-0.097
-575.733	-152.788	0.375	0.027
-574.719	-43.538	0.085	0.043
-573.704	-62.787	-0.324	0.134
-572.690	137.550	-0.126	-0.164
-571.675	-103.598	-0.293	0.069
-570.661	800.000	0.081	-0.244
-569.646	-64.007	0.305	0.124
-568.631	-95.787	-0.511	0.136
-567.617	117.207	0.099	0.121
-566.602	179.560	0.123	0.179
-565.588	-163.153	0.207	-0.010
-564.573	-71.426	-0.325	-0.121
-563.558	307.383	-0.039	0.072
-562.544	-200.000	0.011	0.135
-561.529	-200.000	0.002	0.044
-560.515	-200.000	0.011	-0.168
-559.500	-26.318	-0.083	-0.049
-558.485	29.497	0.131	0.111
-557.471	-200.000	-0.015	-0.176
-556.456	-4.555	0.090	0.062
-555.442	-80.241	-0.303	-0.101
-554.427	-12.012	0.167	0.109
-553.412	74.614	0.134	0.140
-552.398	-200.000	0.011	-0.279
-551.383	-17.491	-0.437	0.274
-550.369	-63.588	-0.372	0.152
-549.354	-10.827	0.179	-0.118
-548.339	67.769	0.144	0.147
-547.325	-116.876	-0.300	-0.055
-546.310	-41.014	-0.152	0.078
-545.296	9.612	0.149	0.113
-544.281	27.899	0.204	0.171
-543.266	102.201	0.297	-0.346
-542.252	24.177	0.112	-0.092
-541.237	-150.568	0.088	-0.007
-540.223	-2.916	0.158	0.110
-539.208	-200.000	0.007	-0.426
-538.193	-67.133	0.333	-0.131
-537.179	162.672	-0.168	0.234
-536.164	-38.024	0.146	-0.077
-535.150	-29.837	0.093	-0.053
-534.135	-80.841	-0.278	-0.092
-533.121	397.506	0.145	-0.302
-532.106	-9.553	-0.273	0.181
-531.091	247.587	0.167	-0.282
-530.077	17.780	0.057	0.045
-529.062	81.715	-0.269	-0.290
-528.048	-200.000	-0.000	0.037
-527.033	-200.000	-0.025	-0.197
-526.018	-200.000	0.028	0.133
-525.004	800.000	-0.043	0.125
-523.989	77.417	-0.229	-0.243
-522.975	800.000	0.089	0.245
-521.960	140.443	0.184	0.241
-520.945	264.057	-0.102	0.176
-519.931	-200.000	0.036	0.265
-518.916	332.206	-0.077	0.148
-517.902	-200.000	0.045	0.238
-516.887	-168.229	0.147	-0.006
-515.872	1.017	0.291	0.207
-514.858	678.065	0.115	-0.297
-513.843	177.718	0.140	0.202
-512.829	-83.941	-0.287	-0.091
-511.814	-85.559	0.210	-0.065
-510.799	-200.000	0.072	0.549
-509.785	-78.311	0.242	-0.083
-508.770	-77.617	-0.116	0.040
-507.756	269.495	-0.119	-0.207
-506.741	-105.075	0.267	-0.061
-505.726	-157.446	-0.288	-0.017
-504.712	800.000	-0.120	0.344
-503.697	244.576	0.144	0.241
-502.683	270.190	0.024	-0.042
-501.668	278.470	-0.184	-0.326
-500.653	-200.000	-0.012	-0.172
-499.639	417.221	-0.023	-0.049
-498.624	-200.000	-0.049	0.258
-497.610	15.921	0.197	-0.154
-496.595	340.607	0.083	-0.160
-495.581	-75.468	-0.068	0.024
-494.566	-17.407	-0.221	-0.139
-493.551	111.543	-0.096	0.115
-492.537	502.811	0.162	0.372
-491.522	-200.000	-0.080	0.429
-490.508	-163.545	0.501	-0.024
-489.493	-37.664	-0.305	0.161
-488.478	-40.994	0.284	-0.146
-487.464	0.594	0.257	-0.183
-486.449	155.422	-0.185	-0.253
-485.435	-6.229	0.077	-0.052
-484.420	130.226	-0.167	-0.212
-483.405	73.309	0.029	-0.030
-482.391	243.656	-0.109	-0.182
-481.376	-78.684	0.160	-0.054
-480.362	-42.044	-0.331	0.168
-479.347	-41.883	-0.121	0.062
-478.332	800.000	0.159	-0.443
-477.318	-161.567	-0.384	-0.020
-476.303	-200.000	-0.060	-0.358
-475.289	-200.000	-0.045	0.372
-474.274	698.317	0.155	0.405
-473.259	-91.965	0.530	-0.149
-472.245	-200.000	-0.046	-0.304
-471.230	-75.428	0.238	-0.084
-470.216	800.000	0.073	-0.266
-469.201	328.872	-0.063	-0.120
-468.186	-64.336	-0.180	0.073
-467.172	-85.122	0.115	-0.036
-466.157	-200.000	-0.050	0.290
-465.143	380.212	0.155	-0.315
-464.128	-108.199	-0.316	0.068
-463.113	800.000	-0.134	0.456
-462.099	2.614	-0.027	-0.020
-461.084	-0.474	-0.138	-0.097
-460.070	242.696	0.073	-0.122
-459.055	-200.000	-0.004	0.027
-458.040	-80.291	0.273	0.091
-457.026	-200.000	-0.019	-0.146
-456.011	19.560	-0.089	-0.071
-454.997	-59.702	0.296	0.126
-453.982	-200.000	0.048	0.300
-452.968	41.127	0.066	0.059
-451.953	35.092	-0.185	-0.160
-450.938	65.143	0.228	-0.229
-449.924	-94.092	-0.052	0.014
-448.909	-169.446	-0.265	-0.010
-447.895	684.148	0.045	-0.115
-446.880	-6.955	-0.276	0.186
-445.865	-200.000	0.005	0.061
-444.851	-151.610	-0.202	0.015
-443.836	-134.005	0.332	-0.041
-442.822	-200.000	0.046	0.312
-441.807	76.734	0.244	-0.257
-440.792	-75.996	0.188	-0.066
-439.778	-14.770	-0.155	-0.098
-438.763	-23.809	0.047	0.028
-437.749	-43.049	0.434	-0.218
-436.734	46.371	-0.240	0.221
-435.719	26.593	-0.303	-0.252
-434.705	-200.000	-0.000	-0.034
-433.690	-1.510	-0.083	0.058
-432.676	-33.750	0.194	-0.106
-431.661	-64.389	0.134	-0.054
-430.646	88.599	0.040	0.044
-429.632	-109.189	0.284	0.060
-428.617	-21.652	0.102	-0.062
-427.603	800.000	-0.129	-0.406
-426.588	328.505	-0.068	0.129
-425.573	-136.174	0.130	-0.015
-424.559	-200.000	-0.020	-0.090
-423.544	-138.365	0.068	0.007
-422.530	-83.694	-0.152	0.048
-421.515	262.522	-0.037	0.064
-420.500	-127.863	0.285	-0.041
-419.486	-200.000	-0.009	-0.320
-418.471	-13.157	0.266	-0.171
-417.457	-42.895	0.103	-0.052
-416.442	-200.000	0.001	-0.074
-415.428	152.725	-0.199	0.269
-414.413	-119.643	0.386	0.066
-413.398	42.880	0.223	-0.201
-412.384	47.827	-0.145	0.134
-411.369	-74.459	0.189	-0.067
-410.355	-148.618	-0.422	0.034
-409.340	131.475	0.296	-0.377
-408.325	-69.014	0.255	-0.097
-407.311	-114.050	0.389	-0.075
-406.296	-142.540	-0.255	0.025
-405.282	270.193	-0.196	0.341
-404.267	-200.000	-0.040	0.234
-403.252	45.019	0.102	-0.093
-402.238	-43.020	0.359	0.180
-401.223	-200.000	-0.024	-0.169
-400.209	800.000	-0.059	-0.191
-399.194	800.000	-0.147	-0.475
-398.179	41.523	0.112	0.101
-397.165	-115.398	-0.113	-0.021
-396.150	-61.220	0.072	-0.030
-395.136	144.172	0.124	0.164
-394.121	-60.294	-0.060	-0.025
-393.106	-66.296	-0.149	-0.059
-392.092	-200.000	0.003	0.230
-391.077	244.777	-0.194	0.324
-390.063	-133.690	-0.309	-0.038
-389.048	36.912	0.039	-0.034
-388.033	-4.413	-0.240	0.164
-387.019	-180.353	-0.180	-0.004
-386.004	-124.507	0.370	0.057
-384.990	98.763	-0.117	-0.134
-383.975	28.900	0.054	0.045
-382.960	112.853	-0.183	0.219
-381.946	-64.161	0.282	0.114
-380.931	-200.000	0.030	0.232
-379.917	-68.534	-0.390	-0.150
-378.902	244.147	0.171	-0.284
-377.888	-91.218	-0.222	-0.063
-376.873	546.898	-0.069	0.164
-375.858	-103.009	0.409	0.096
-374.844	89.257	0.176	0.194
-373.829	800.000	0.056	-0.154
-372.815	-39.548	0.209	0.108
-371.800	800.000	-0.070	0.264
-370.785	-5.674	-0.195	-0.132
-369.771	-125.235	0.364	-0.055
-368.756	101.213	0.033	-0.038
-367.742	800.000	-0.059	-0.235
-366.727	-127.945	-0.280	-0.040
-365.712	-200.000	0.002	-0.114
-364.698	-79.763	-0.318	0.106
-363.683	800.000	-0.080	-0.274
-362.669	25.449	-0.309	0.254
-361.654	608.529	0.132	0.325
-360.639	800.000	0.023	0.094
-359.625	-53.971	-0.462	-0.208
-358.610	19.859	0.120	0.096
-357.596	-200.000	0.010	0.271
-356.581	-1.097	-0.176	-0.123
-355.566	22.823	-0.308	-0.249
-354.552	28.609	0.163	0.136
-353.537	-111.713	-0.247	-0.050
-352.523	800.000	-0.072	-0.262
-351.508	-200.000	-0.009	0.062
-350.493	-4.311	-0.071	0.048
-349.479	38.587	-0.069	-0.061
-348.464	-126.573	-0.460	0.067
-347.450	-110.814	-0.380	-0.077
-346.435	-30.457	-0.266	0.149
-345.420	-84.328	0.116	0.036
-344.406	5.753	-0.159	0.116
-343.391	69.576	0.377	-0.384
-342.377	-200.000	-0.028	0.275
-341.362	40.911	0.103	-0.092
-340.348	800.000	-0.044	-0.180
-339.333	-5.610	-0.183	0.124
-338.318	-97.381	0.287	0.074
-337.304	518.477	-0.178	0.411
-336.289	800.000	0.075	0.317
-335.275	162.729	-0.076	-0.105
-334.260	-200.000	-0.007	0.072
-333.245	-83.141	0.233	0.074
-332.231	-107.891	0.039	-0.008
-331.216	800.000	-0.093	-0.304
-330.202	-47.219	0.069	-0.033
-329.187	94.884	-0.169	-0.190
-328.172	-98.642	0.334	-0.084
-327.158	43.399	0.137	-0.124
-326.143	142.760	0.142	-0.186
-325.129	369.240	0.055	-0.109
-324.114	318.218	0.124	-0.232
-323.099	-170.572	-0.152	0.005
-322.085	-155.128	-0.298	0.019
-321.070	800.000	-0.029	-0.112
-320.056	-19.986	0.155	0.095
-319.041	-53.267	0.222	0.101
-318.026	-8.663	-0.239	0.158
-317.012	-123.369	0.231	-0.036
-315.997	-200.000	0.017	0.123
-314.983	-62.488	-0.308	0.126
-313.968	-200.000	0.006	0.287
-312.953	-128.963	0.090	-0.012
-311.939	-93.855	-0.319	-0.087
-310.924	800.000	0.056	0.236
-309.910	-171.089	-0.053	-0.002
-308.895	-100.409	-0.420	0.103
-307.880	-200.000	0.015	-0.127
-306.866	-200.000	0.011	0.070
-305.851	-200.000	-0.003	-0.116
-304.837	-63.552	0.101	0.041
-303.822	-109.950	-0.279	0.058
-302.807	-110.292	0.176	0.036
-301.793	-41.390	-0.206	-0.105
-300.778	140.891	-0.304	-0.396
-299.764	-56.570	-0.116	-0.051
-298.749	-200.000	0.067	-0.333
-297.735	-70.565	0.200	0.075
-296.720	450.983	0.182	0.396
-295.705	-168.342	-0.297	0.011
-294.691	-34.214	-0.048	-0.026
-293.676	97.123	0.153	-0.173
-292.662	25.250	-0.219	0.179
-291.647	-200.000	-0.000	-0.166
-290.632	-200.000	-0.023	0.127
-289.618	-131.800	0.220	0.028
-288.603	84.567	0.269	-0.290
-287.589	800.000	-0.084	-0.251
-286.574	-26.733	0.153	-0.088
-285.559	-60.025	0.142	0.060
-284.545	-200.000	0.028	0.264
-283.530	800.000	-0.021	0.090
-282.516	276.385	-0.077	0.134
-281.501	23.880	-0.186	-0.152
-280.486	-200.000	0.022	-0.198
-279.472	347.793	-0.145	-0.281
-278.457	800.000	0.052	0.161
-277.443	-200.000	0.068	-0.374
-276.428	800.000	-0.016	-0.058
-275.413	120.237	0.102	-0.125
-274.399	244.293	0.132	-0.218
-273.384	-200.000	0.009	-0.218
-272.370	172.344	-0.161	-0.228
-271.355	580.398	0.089	-0.214
-270.340	-113.107	0.175	0.034
-269.326	-200.000	-0.022	-0.236
-268.311	167.827	0.246	0.344
-267.297	23.223	-0.052	-0.042
-266.282	800.000	0.048	-0.134
-265.267	47.934	0.152	-0.140
-264.253	-150.823	-0.157	0.012
-263.238	21.050	-0.323	0.258
-262.224	463.600	-0.124	-0.273
-261.209	17.845	0.272	-0.213
-260.195	53.123	-0.253	0.238
-259.180	-97.852	0.280	0.071
-258.165	-105.647	-0.442	0.099
-257.151	178.533	-0.078	0.113
-256.136	800.000	0.039	0.139
-255.122	-200.000	-0.015	-0.120
-254.107	-180.967	-0.329	0.007
-253.092	618.723	-0.087	0.216
-252.078	22.359	-0.104	0.084
-251.063	99.756	-0.014	0.016
-250.049	-200.000	-0.036	0.290
-249.034	-48.167	-0.159	0.075
-248.019	-200.000	0.015	-0.132
-247.005	360.590	0.089	0.176
-245.990	-28.612	0.107	-0.061
-244.976	-196.795	0.184	-0.001
-243.961	343.068	0.042	0.081
-242.946	-131.631	0.398	0.051
-241.932	29.096	0.256	-0.214
-240.917	-200.000	0.019	-0.086
-239.903	800.000	-0.066	-0.270
-238.888	-125.091	-0.144	0.022
-237.873	800.000	0.019	-0.070
-236.859	-200.000	-0.050	0.230
-235.844	800.000	-0.117	0.492
-234.830	12.490	-0.203	0.154
-233.815	-161.858	0.113	-0.006
-232.800	800.000	0.037	-0.123
-231.786	0.022	0.213	-0.150
-230.771	382.245	0.147	0.298
-229.757	-42.971	-0.074	0.037
-228.742	800.000	-0.064	0.187
-227.727	-154.687	0.486	0.032
-226.713	70.091	-0.291	-0.295
-225.698	480.167	0.068	-0.151
-224.684	537.033	0.047	-0.110
-223.669	-200.000	-0.044	-0.289
-222.655	800.000	-0.050	-0.182
-221.640	-70.656	-0.204	0.076
-220.625	-150.433	0.267	-0.020
-219.611	-115.100	0.277	0.052
-218.596	42.567	0.139	-0.124
-217.582	53.402	-0.142	0.134
-216.567	458.173	-0.080	0.176
-215.552	-134.612	-0.354	0.042
-214.538	6.695	0.115	-0.084
-213.523	-200.000	-0.003	0.153
-212.509	270.501	-0.063	0.109
-211.494	305.009	-0.056	-0.102
-210.479	763.281	0.063	0.167
-209.465	800.000	0.050	-0.144
-208.450	-9.154	0.288	0.190
-207.436	-94.866	-0.205	0.055
-206.421	-87.315	0.184	-0.055
-205.406	-132.513	-0.124	0.016
-204.392	45.512	0.259	0.235
-203.377	638.791	-0.128	0.320
-202.363	800.000	0.096	0.353
-201.348	-200.000	-0.035	0.374
-200.333	15.994	0.169	-0.131
-199.319	415.616	0.063	-0.132
-198.304	29.953	-0.027	-0.023
-197.290	165.207	-0.157	-0.219
-196.275	-200.000	0.054	0.316
-195.260	-2.958	-0.138	0.095
-194.246	320.952	0.111	0.207
-193.231	28.775	-0.101	0.084
-192.217	-49.549	0.012	-0.006
-191.202	147.097	0.046	0.060
-190.187	87.096	0.193	-0.210
-189.173	52.425	-0.261	0.244
-188.158	800.000	-0.166	0.545
-187.144	-56.687	-0.289	-0.126
-186.129	-200.000	-0.017	-0.097
-185.114	800.000	0.148	-0.442
-184.100	176.996	0.095	0.136
-183.085	-71.519	-0.204	-0.075
-182.071	660.621	0.120	0.303
-181.056	-200.000	0.003	0.164
-180.042	-43.305	0.267	0.132
-179.027	5.633	-0.175	-0.127
-178.012	-56.062	0.314	-0.137
-176.998	-19.782	-0.164	-0.099
-175.983	693.553	-0.055	0.141
-174.969	583.851	-0.106	0.255
-173.954	-112.377	-0.310	-0.061
-172.939	136.831	-0.204	-0.261
-171.925	-122.090	0.076	-0.012
-170.910	741.146	-0.054	0.143
-169.896	182.967	-0.125	-0.181
-168.881	-103.643	0.267	0.061
-167.866	800.000	0.047	0.151
-166.852	172.264	0.058	0.082
-165.837	800.000	-0.058	0.201
-164.823	-106.064	-0.466	0.103
-163.808	310.467	0.179	0.329
-162.793	-20.978	0.270	-0.162
-161.779	42.819	-0.336	0.300
-160.764	-74.177	0.185	-0.066
-159.750	3.908	-0.060	0.043
-158.735	-66.241	0.183	0.071
-157.720	162.641	-0.182	0.250
-156.706	-97.264	0.425	0.109
-155.691	94.342	0.201	0.224
-154.677	125.283	0.119	0.147
-153.662	162.796	0.261	-0.359
-152.647	214.394	0.185	-0.288
-151.633	-200.000	-0.002	-0.243
-150.618	-185.404	0.049	-0.001
-149.604	55.393	-0.083	0.079
-148.589	-200.000	-0.024	0.263
-147.574	-105.832	-0.320	-0.071
-146.560	93.264	0.115	0.128
-145.545	-64.987	-0.198	0.078
-144.531	129.804	0.162	0.203
-143.516	18.134	-0.104	-0.082
-142.502	800.000	-0.030	-0.120
-141.487	409.305	0.101	0.209
-140.472	-200.000	0.030	-0.481
-139.458	-80.347	0.264	0.086
-138.443	-36.453	-0.133	0.070
-137.429	-200.000	0.060	-0.264
-136.414	179.157	-0.076	-0.109
-135.399	111.085	0.164	-0.193
-134.385	-151.125	0.236	0.017
-133.370	251.528	0.213	0.356
-132.356	16.224	0.162	0.125
-131.341	-41.778	-0.242	-0.122
-130.326	-23.410	-0.224	0.132
-129.312	120.396	0.088	0.108
-128.297	800.000	0.058	0.198
-127.283	-200.000	-0.058	0.256
-126.268	-118.897	-0.341	-0.059
-125.253	-79.925	-0.142	0.047
-124.239	-181.407	-0.093	0.002
-123.224	800.000	0.021	0.073
-122.210	-63.528	0.227	0.092
-121.195	5.496	0.289	0.209
-120.180	-200.000	0.006	0.141
-119.166	168.993	0.179	0.250
-118.151	55.438	0.138	0.131
-117.137	-40.357	0.261	-0.133
-116.122	-158.809	-0.167	-0.009
-115.107	-200.000	0.046	-0.224
-114.093	320.005	-0.095	-0.178
-113.078	101.465	0.107	-0.122
-112.064	218.598	-0.364	0.570
-111.049	13.265	0.262	-0.199
-110.034	-60.112	0.323	-0.135
-109.020	-113.862	-0.220	-0.042
-108.005	-149.569	0.349	0.027
-106.991	67.052	-0.170	-0.170
-105.976	-36.688	0.297	0.156
-104.962	-200.000	-0.012	-0.450
-103.947	-119.596	0.254	-0.043
-102.932	800.000	-0.057	-0.219
-101.918	-14.803	0.099	0.062
-100.903	-112.597	-0.145	-0.028
-99.889	-200.000	0.003	-0.065
-98.874	-75.012	-0.317	0.111
-97.859	-26.204	-0.083	0.048
-96.845	239.547	-0.113	-0.184
-95.830	-136.332	0.529	-0.060
-94.816	-167.898	0.247	-0.010
-93.801	-5.979	-0.276	-0.185
-92.786	87.439	0.098	-0.106
-91.772	286.234	-0.050	0.088
-90.757	-200.000	0.008	-0.183
-89.743	-98.736	0.050	0.012
-88.728	-200.000	0.024	0.160
-87.713	-200.000	0.017	0.135
-86.699	133.852	0.115	-0.145
-85.684	35.808	0.165	-0.142
-84.670	123.760	-0.117	-0.143
-83.655	145.325	-0.063	-0.083
-82.640	-57.825	0.144	-0.062
-81.626	-22.227	0.307	-0.182
-80.611	-137.132	0.169	-0.019
-79.597	800.000	-0.077	-0.303
-78.582	-200.000	-0.019	-0.170
-77.567	21.599	0.267	0.212
-76.553	-3.113	0.114	0.078
-75.538	11.471	0.130	0.097
-74.524	48.845	-0.060	-0.055
-73.509	509.195	0.135	-0.307
-72.494	575.413	0.106	0.253
-71.480	800.000	-0.008	-0.030
-70.465	74.580	0.092	-0.094
-69.451	800.000	0.030	0.117
-68.436	-200.000	0.037	0.266
-67.422	42.933	-0.193	0.172
-66.407	50.260	0.133	-0.123
-65.392	-33.019	-0.177	0.096
-64.378	169.157	0.217	0.303
-63.363	-151.032	0.137	0.010
-62.349	-169.581	0.283	0.010
-61.334	62.353	-1.009	-0.985
-60.319	40.462	0.661	0.582
-59.305	-200.000	-0.151	-1.080
-58.290	187.513	0.861	1.255
-57.276	800.000	0.322	1.179
-56.261	-200.000	116.332	648.402
-55.246	510.623	1538.955	3498.767
-54.232	174.349	2720.738	3843.619
-53.217	99.335	2298.290	2596.910
-52.203	35.698	1904.481	1635.316
-51.188	29.700	1696.041	1410.664
-50.173	27.241	1654.796	1357.971
-49.159	47.742	1711.912	1561.144
-48.144	46.482	1725.326	1563.755
-47.130	29.176	1683.046	1395.670
-46.115	26.564	1668.689	1364.051
-45.100	26.432	1663.918	1359.107
-44.086	26.426	1660.876	1356.526
-43.071	26.382	1658.435	1354.151
-42.057	26.339	1656.024	1351.802
-41.042	26.411	1654.396	1350.959
-40.027	26.420	1651.978	1348.998
-39.013	26.389	1650.270	1347.316
-37.998	26.393	1648.182	1345.592
-36.984	26.377	1647.573	1344.923
-35.969	26.505	1645.541	1344.158
-34.954	26.442	1644.535	1342.818
-33.940	26.521	1642.763	1341.900
-32.925	26.474	1640.866	1339.947
-31.911	26.520	1639.498	1339.123
-30.896	26.514	1637.546	1337.432
-29.881	26.547	1635.999	1336.360
-28.867	26.529	1634.358	1334.830
-27.852	26.458	1633.030	1333.171
-26.838	26.463	1631.700	1332.070
-25.823	26.556	1630.265	1331.529
-24.809	26.569	1628.995	1330.533
-23.794	26.540	1627.183	1328.784
-22.779	26.560	1625.791	1327.745
-21.765	26.562	1624.287	1326.480
-20.750	26.553	1621.890	1324.403
-19.736	26.602	1621.173	1324.120
-18.721	26.577	1619.738	1322.715
-17.706	26.572	1618.636	1321.724
-16.692	26.600	1616.177	1319.870
-15.677	26.581	1615.338	1318.993
-14.663	26.608	1614.013	1318.053
-13.648	26.541	1612.516	1316.291
-12.633	26.518	1611.448	1315.202
-11.619	26.550	1609.441	1313.747
-10.604	26.593	1607.853	1312.706
-9.590	26.632	1606.347	1311.706
-8.575	26.566	1605.131	1310.190
-7.560	26.633	1603.854	1309.580
-6.546	26.669	1602.530	1308.704
-5.531	26.590	1601.514	1307.249
-4.517	26.484	1600.936	1305.963
-3.502	26.597	1599.677	1305.699
-2.487	26.680	1597.548	1304.506
-1.473	26.263	1586.065	1292.098
-0.458	23.604	1566.732	1257.488
0.556	21.004	1568.409	1226.715
1.571	18.791	1593.182	1230.150
2.586	18.470	1605.067	1236.902
3.600	16.221	1549.797	1178.509
4.615	9.461	1442.099	1052.453
5.629	4.038	1382.972	975.129
6.644	3.303	1375.819	965.398
7.659	3.226	1374.609	963.981
8.673	3.235	1373.625	963.258
9.688	3.176	1371.927	961.615
10.702	3.205	1368.723	959.467
11.717	5.787	1373.451	978.829
12.731	12.857	1386.971	1032.814
13.746	19.101	1396.030	1078.717
14.761	20.344	1397.541	1087.586
15.775	19.727	1395.534	1082.066
16.790	18.645	1393.297	1073.470
17.804	17.872	1390.789	1066.616
18.819	17.471	1389.665	1063.151
19.834	17.503	1388.445	1062.323
20.848	17.152	1387.644	1059.428
21.863	16.981	1386.099	1057.093
22.877	16.903	1384.986	1055.663
23.892	16.911	1383.951	1054.829
24.907	16.854	1383.310	1053.892
25.921	16.873	1382.501	1053.303
26.936	16.839	1381.529	1052.257
27.950	16.984	1379.904	1051.827
28.965	16.945	1379.488	1051.174
29.980	17.154	1377.970	1051.220
30.994	17.233	1376.868	1050.772
32.009	17.141	1376.371	1049.730
33.023	17.240	1374.816	1049.062
34.038	17.135	1373.755	1047.511
35.053	17.099	1372.013	1045.869
36.067	17.086	1371.091	1044.997
37.082	17.092	1369.908	1044.041
38.096	17.134	1369.035	1043.537
39.111	17.133	1368.625	1043.128
40.126	17.002	1367.800	1041.604
41.140	16.854	1366.060	1039.277
42.155	16.665	1365.770	1037.810
43.169	16.662	1366.120	1037.963
44.184	16.683	1366.075	1037.967
45.199	16.643	1365.067	1036.862
46.213	16.779	1364.632	1037.274
47.228	16.995	1363.724	1037.810
48.242	17.046	1362.351	1036.987
49.257	16.956	1360.889	1035.231
50.271	17.031	1359.121	1034.252
51.286	17.079	1357.624	1033.315
52.301	16.846	1356.920	1031.273
53.315	16.852	1355.779	1030.348
54.330	16.779	1354.700	1028.995
55.344	16.784	1353.174	1027.773
56.359	16.743	1352.671	1027.053
57.374	16.689	1351.676	1025.879
58.388	16.577	1350.836	1024.472
59.403	16.623	1350.388	1024.319
60.417	16.623	1349.643	1023.663
61.432	16.556	1348.575	1022.357
62.447	16.518	1347.212	1021.004
63.461	16.500	1345.903	1019.815
64.476	16.480	1344.991	1018.915
65.490	16.524	1343.976	1018.318
66.505	16.496	1342.233	1016.741
67.520	16.624	1340.737	1016.289
68.534	16.500	1340.324	1015.136
69.549	16.510	1339.552	1014.522
70.563	16.374	1338.823	1013.068
71.578	16.499	1336.760	1012.161
72.593	16.356	1336.251	1010.833
73.607	16.389	1335.397	1010.298
74.622	16.390	1334.790	1009.755
75.636	16.347	1334.133	1008.913
76.651	16.463	1333.216	1008.821
77.666	16.479	1333.023	1008.677
78.680	16.522	1332.593	1008.519
79.695	16.525	1331.823	1007.869
80.709	16.590	1331.118	1007.633
81.724	16.731	1330.225	1007.708
82.739	16.762	1329.488	1007.244
83.753	16.937	1328.669	1007.573
84.768	16.904	1327.968	1006.756
85.782	17.144	1326.275	1006.808
86.797	17.089	1325.210	1005.581
87.812	16.981	1323.934	1003.885
88.826	16.976	1322.763	1002.883
89.841	16.932	1321.926	1001.897
90.855	16.982	1321.090	1001.468
91.870	17.157	1319.996	1001.582
92.884	17.131	1319.551	1001.004
93.899	17.142	1318.364	1000.081
94.914	17.182	1317.632	999.671
95.928	17.125	1316.946	998.730
96.943	17.099	1315.514	997.401
97.957	17.063	1315.067	996.762
98.972	16.941	1314.354	995.417
99.987	17.060	1312.990	994.995
101.001	17.122	1311.532	994.167
102.016	17.088	1310.997	993.470
103.030	17.057	1309.654	992.185
104.045	16.949	1309.404	991.277
105.060	16.981	1307.658	990.053
106.074	16.820	1305.704	987.551
107.089	16.665	1304.547	985.683
108.103	16.559	1303.275	984.019
109.118	16.566	1301.966	982.986
110.133	16.645	1300.726	982.420
111.147	16.610	1299.172	980.959
112.162	16.652	1297.773	980.058
113.176	16.843	1296.628	980.211
114.191	16.697	1296.495	979.178
115.206	16.750	1294.856	978.160
116.220	16.650	1294.388	977.140
117.235	16.701	1292.906	976.232
118.249	16.575	1292.145	974.843
119.264	16.563	1290.682	973.586
120.279	16.572	1289.273	972.487
121.293	16.509	1288.611	971.541
122.308	16.480	1286.949	970.034
123.322	16.532	1285.851	969.420
124.337	16.498	1285.047	968.531
125.352	16.437	1284.210	967.470
126.366	16.468	1282.879	966.556
127.381	16.434	1282.353	965.882
128.395	16.409	1281.160	964.752
129.410	16.497	1280.136	964.397
130.424	16.578	1279.590	964.366
131.439	16.617	1278.747	963.864
132.454	16.591	1277.622	962.785
133.468	16.778	1276.412	962.851
134.483	16.729	1276.091	962.245
135.497	16.653	1275.059	960.949
136.512	16.637	1274.148	960.087
137.527	16.631	1272.686	958.866
138.541	16.776	1271.231	958.505
139.556	16.772	1270.088	957.535
140.570	16.839	1269.263	957.210
141.585	16.899	1268.083	956.574
142.600	17.001	1267.031	956.267
143.614	17.110	1265.836	955.896
144.629	17.223	1264.420	955.377
145.643	17.234	1263.581	954.721
146.658	17.067	1262.476	952.864
147.673	16.934	1261.034	950.947
148.687	16.804	1260.165	949.478
149.702	16.956	1258.083	948.677
150.716	16.858	1257.048	947.262
151.731	16.821	1256.170	946.310
152.746	16.934	1255.017	945.991
153.760	16.911	1253.780	944.846
154.775	16.934	1252.740	944.108
155.789	16.996	1252.083	943.870
156.804	16.984	1251.058	942.949
157.819	16.962	1250.113	942.030
158.833	17.048	1249.523	941.981
159.848	17.212	1248.279	941.871
160.862	17.153	1247.691	941.018
161.877	16.990	1245.986	938.742
162.892	16.839	1245.029	937.107
163.906	16.862	1244.151	936.490
164.921	16.889	1242.962	935.659
165.935	16.945	1242.145	935.273
166.950	17.003	1241.191	934.793
167.964	16.937	1240.750	934.011
168.979	16.980	1239.926	933.545
169.994	16.904	1239.196	932.494
171.008	17.033	1238.451	932.561
172.023	17.146	1237.846	932.646
173.037	17.241	1236.635	932.171
174.052	17.130	1236.338	931.255
175.067	16.967	1234.829	929.144
176.081	16.854	1233.653	927.556
177.096	16.868	1233.244	927.244
178.110	17.049	1231.629	926.938
179.125	17.039	1230.098	925.650
180.140	17.081	1229.236	925.146
181.154	17.044	1228.378	924.216
182.169	17.218	1227.146	924.154
183.183	17.251	1226.112	923.475
184.198	17.297	1224.807	922.657
185.213	17.214	1223.802	921.372
186.227	17.213	1222.799	920.526
187.242	17.371	1221.867	920.603
188.256	17.495	1220.596	920.234
189.271	17.437	1220.017	919.401
190.286	17.315	1218.917	917.831
191.300	17.023	1217.662	915.230
192.315	16.861	1217.303	914.006
193.329	16.926	1216.232	913.472
194.344	17.046	1215.639	913.590
195.359	17.071	1215.132	913.263
196.373	17.180	1214.715	913.456
197.388	17.335	1214.400	913.972
198.402	17.581	1214.054	914.953
199.417	17.540	1213.164	913.977
200.432	17.640	1212.315	913.795
201.446	17.688	1211.884	913.647
202.461	17.737	1211.120	913.253
203.475	17.699	1210.390	912.420
204.490	17.504	1208.651	909.985
205.504	17.463	1207.417	908.754
206.519	17.435	1206.128	907.556
207.534	17.458	1204.573	906.427
208.548	17.426	1204.415	906.056
209.563	17.461	1203.488	905.469
210.577	17.533	1202.372	904.930
211.592	17.563	1201.719	904.521
212.607	17.610	1200.926	904.091
213.621	17.780	1199.498	903.835
214.636	17.665	1198.871	902.676
215.650	17.560	1198.409	901.692
216.665	17.741	1197.120	901.600
217.680	17.722	1196.756	901.143
218.694	17.750	1195.787	900.484
219.709	17.824	1194.919	900.138
220.723	17.680	1194.758	899.181
221.738	17.771	1193.467	898.610
222.753	17.693	1192.594	897.460
223.767	17.782	1191.878	897.312
224.782	17.911	1191.136	897.348
225.796	17.942	1190.822	897.199
226.811	17.919	1190.216	896.543
227.826	17.843	1189.360	895.415
228.840	17.800	1188.782	894.679
229.855	17.875	1187.635	894.128
230.869	17.788	1186.874	893.021
231.884	17.723	1186.287	892.160
232.899	17.664	1185.367	891.083
233.913	17.673	1184.287	890.237
234.928	17.578	1183.661	889.191
235.942	17.556	1183.021	888.516
236.957	17.549	1182.000	887.635
237.972	17.655	1181.341	887.612
238.986	17.635	1180.844	887.060
240.001	17.678	1180.101	886.645
241.015	17.683	1179.296	885.990
242.030	17.720	1178.430	885.452
243.045	17.874	1177.385	885.387
244.059	17.899	1176.686	884.913
245.074	17.885	1176.077	884.305
246.088	17.974	1175.092	883.946
247.103	18.045	1174.444	883.745
248.117	18.081	1174.103	883.599
249.132	18.274	1173.209	883.844
250.147	18.508	1172.173	884.194
251.161	18.434	1172.140	883.709
252.176	18.395	1171.696	883.093
253.190	18.517	1170.978	883.103
254.205	18.489	1170.831	882.770
255.220	18.684	1169.765	882.892
256.234	18.536	1169.345	881.734
257.249	18.507	1168.403	880.798
258.263	18.582	1167.481	880.410
259.278	18.585	1166.924	879.927
260.293	18.527	1167.185	879.746
261.307	18.713	1165.816	879.590
262.322	18.625	1165.167	878.574
263.336	18.771	1164.539	878.770
264.351	18.720	1164.066	878.075
265.366	18.642	1163.917	877.486
266.380	18.771	1162.645	877.106
267.395	18.615	1161.577	875.425
268.409	18.498	1161.126	874.411
269.424	18.642	1160.088	874.290
270.439	18.574	1159.728	873.591
271.453	18.559	1158.866	872.792
272.468	18.513	1157.709	871.606
273.482	18.465	1157.085	870.819
274.497	18.562	1156.400	870.718
275.512	18.557	1155.695	870.084
276.526	18.553	1155.331	869.711
277.541	18.574	1154.430	869.064
278.555	18.575	1153.845	868.553
279.570	18.705	1153.490	868.866
280.585	18.823	1152.785	868.855
281.599	18.761	1151.629	867.594
282.614	18.724	1150.082	866.164
283.628	18.672	1149.216	865.172
284.643	18.723	1148.099	864.511
285.657	18.704	1147.385	863.801
286.672	18.637	1146.761	862.922
287.687	18.670	1146.016	862.447
288.701	18.683	1144.885	861.587
289.716	18.783	1144.213	861.507
290.730	18.702	1143.584	860.547
291.745	18.814	1142.696	860.366
292.760	18.878	1142.233	860.261
293.774	18.919	1141.890	860.133
294.789	19.052	1141.519	860.440
295.803	18.960	1140.474	859.119
296.818	18.871	1139.855	858.134
297.833	18.873	1138.768	857.246
298.847	18.805	1138.022	856.272
299.862	18.882	1137.352	856.074
300.876	18.856	1136.802	855.456
301.891	18.920	1136.154	855.212
302.906	18.964	1135.553	854.900
303.920	19.072	1134.934	854.894
304.935	19.208	1134.260	854.989
305.949	19.328	1133.057	854.601
306.964	19.132	1132.771	853.339
307.979	19.149	1132.018	852.778
308.993	19.081	1131.462	851.947
310.008	19.089	1130.519	851.200
311.022	19.258	1129.864	851.467
312.037	19.290	1128.500	850.525
313.052	19.178	1127.689	849.287
314.066	19.052	1126.589	847.763
315.081	18.889	1126.180	846.575
316.095	18.905	1125.322	845.932
317.110	18.833	1124.539	844.915
318.125	18.937	1123.667	844.700
319.139	19.065	1122.879	844.660
320.154	18.992	1122.148	843.675
321.168	19.019	1121.511	843.257
322.183	18.977	1120.928	842.535
323.197	19.089	1120.287	842.527
324.212	19.064	1119.522	841.756
325.227	19.067	1119.164	841.428
326.241	19.091	1118.585	841.034
327.256	19.058	1117.708	840.138
328.270	19.054	1116.393	839.058
329.285	18.952	1116.043	838.225
330.300	19.073	1114.933	837.905
331.314	19.046	1113.957	836.967
332.329	19.055	1113.101	836.289
333.343	19.207	1112.190	836.274
334.358	19.235	1111.558	835.857
335.373	19.239	1110.931	835.334
336.387	19.303	1110.475	835.225
337.402	19.266	1109.827	834.486
338.416	19.428	1108.806	834.427
339.431	19.507	1108.403	834.433
340.446	19.554	1107.472	833.885
341.460	19.677	1106.886	833.964
342.475	19.577	1106.570	833.169
343.489	19.691	1105.255	832.656
344.504	19.731	1104.307	832.061
345.519	19.688	1103.649	831.281
346.533	19.828	1102.694	831.162
347.548	19.819	1102.234	830.699
348.562	19.897	1101.000	830.070
349.577	19.698	1100.377	828.573
350.592	19.610	1099.314	827.276
351.606	19.481	1098.986	826.338
352.621	19.530	1097.897	825.683
353.635	19.467	1097.179	824.769
354.650	19.533	1096.699	824.649
355.665	19.519	1096.114	824.071
356.679	19.576	1095.411	823.741
357.694	19.663	1094.934	823.724
358.708	19.587	1094.308	822.816
359.723	19.691	1093.648	822.742
360.738	19.649	1093.152	822.098
361.752	19.637	1092.753	821.666
362.767	19.719	1091.845	821.303
363.781	19.729	1091.265	820.842
364.796	19.869	1090.473	820.834
365.810	19.959	1089.959	820.805
366.825	19.985	1089.655	820.626
367.840	20.080	1089.296	820.731
368.854	20.081	1088.909	820.373
369.869	20.179	1087.538	819.733
370.883	20.070	1086.826	818.608
371.898	19.948	1085.728	817.132
372.913	20.009	1085.387	817.089
373.927	20.065	1084.886	816.905
374.942	20.011	1084.769	816.490
375.956	20.181	1083.546	816.297
376.971	20.167	1083.361	816.020
377.986	20.051	1083.117	815.219
379.000	20.316	1082.383	815.840
380.015	20.363	1081.473	815.303
381.029	20.362	1080.914	814.805
382.044	20.467	1080.021	814.549
383.059	20.374	1079.731	813.825
384.073	20.192	1078.743	812.153
385.088	20.285	1077.999	811.959
386.102	20.270	1077.210	811.222
387.117	20.174	1075.556	809.455
388.132	20.087	1074.963	808.533
389.146	20.179	1073.721	807.955
390.161	20.189	1073.294	807.611
391.175	20.181	1072.393	806.821
392.190	20.241	1071.711	806.516
393.205	20.390	1071.490	806.971
394.219	20.349	1070.414	805.899
395.234	20.216	1069.542	804.554
396.248	20.208	1068.475	803.645
397.263	20.289	1067.018	802.852
398.278	20.068	1066.895	801.667
399.292	19.959	1065.877	800.327
400.307	20.038	1065.359	800.233
401.321	20.023	1064.844	799.706
402.336	20.050	1063.901	799.052
403.350	20.066	1063.420	798.693
404.365	20.049	1062.994	798.222
405.380	20.201	1061.982	798.094
406.394	20.305	1061.290	797.980
407.409	20.272	1061.257	797.734
408.423	20.441	1059.885	797.405
409.438	20.439	1059.327	796.906
410.453	20.591	1059.046	797.321
411.467	20.753	1057.858	797.099
412.482	20.702	1057.586	796.591
413.496	20.659	1057.094	795.953
414.511	20.684	1056.284	795.386
415.526	20.878	1055.616	795.699
416.540	20.825	1055.401	795.226
417.555	20.847	1054.886	794.868
418.569	20.843	1054.163	794.231
419.584	20.844	1053.430	793.618
420.599	20.885	1053.099	793.483
421.613	155.586	1404.438	1798.057
422.628	142.783	1455.583	1798.156
