DTS Sentinel unit serial number:	SN413079Multiplexer serial number:	ORYXHardware model number:	OX4-SRSoftware version number:	ORYX F/W v4.00 Oryx Data Collector v3.7.2.0data status	okinstallation	princeton_trtdifferential loss correction	single-endedforward channel	channel 2reverse channel	N/Adate	2019/09/14time	21:47:35forward acquisition time	60.00reverse acquisition time	0.00gamma	496.2192k internal	0.2323k external	0.2323temperature offset calibration	1.0071default loss term (dB/km)	0.3790temperature slope calibration	1.0000multiplexer offset coefficient	1.0000multiplexer slope coefficient	1.0000fibre end	0.00T internal ref (°C)	32.75T ext. ref 1 (°C)	4.74T ext. ref 2 (°C)	27.73length (m)	temperature (°C)	Stokes	anti-Stokes-747.200	-160.354	0.129	-0.007
-746.185	71.969	0.121	0.127
-745.171	-74.297	-0.170	-0.062
-744.156	-200.000	0.052	0.302
-743.142	-48.985	-0.081	0.039
-742.127	-64.842	-0.108	0.044
-741.112	34.626	-0.205	-0.181
-740.098	-200.000	0.027	0.147
-739.083	-97.812	0.287	-0.075
-738.069	-72.956	-0.413	0.153
-737.054	-15.902	0.024	0.016
-736.039	-200.000	-0.004	0.150
-735.025	208.239	0.120	0.189
-734.010	-140.174	-0.250	0.026
-732.996	-170.635	-0.413	-0.014
-731.981	-11.230	-0.059	-0.039
-730.966	-125.048	0.352	0.055
-729.952	-175.523	-0.296	-0.008
-728.937	-200.000	-0.010	0.300
-727.923	525.079	-0.074	0.177
-726.908	263.910	-0.087	0.152
-725.894	-99.881	0.189	0.048
-724.879	-200.000	0.071	-0.511
-723.864	2.388	-0.169	-0.123
-722.850	37.046	-0.110	0.099
-721.835	148.099	0.172	0.234
-720.821	203.126	-0.254	-0.397
-719.806	113.836	-0.151	-0.186
-718.791	81.105	-0.118	-0.128
-717.777	-64.494	0.047	0.019
-716.762	800.000	-0.100	-0.406
-715.748	197.751	0.205	-0.316
-714.733	767.292	-0.075	-0.206
-713.718	-98.710	-0.273	-0.070
-712.704	236.419	-0.048	0.081
-711.689	-108.352	0.299	-0.065
-710.675	193.736	-0.268	-0.409
-709.660	800.000	-0.070	-0.253
-708.645	130.361	0.099	-0.127
-707.631	-141.915	0.244	-0.025
-706.616	800.000	0.207	-0.577
-705.602	277.440	0.116	-0.208
-704.587	-168.370	-0.100	-0.004
-703.572	-150.174	-0.381	-0.030
-702.558	800.000	0.029	-0.113
-701.543	-173.535	-0.032	-0.001
-700.529	-91.648	0.024	-0.007
-699.514	288.566	0.087	-0.158
-698.499	244.367	0.245	-0.415
-697.485	149.909	-0.095	-0.130
-696.470	-200.000	0.005	-0.108
-695.456	79.734	-0.119	-0.128
-694.441	40.469	0.181	-0.164
-693.426	288.340	-0.120	-0.220
-692.412	22.842	0.095	-0.078
-691.397	213.104	-0.138	-0.219
-690.383	-43.552	-0.079	0.040
-689.368	-130.157	-0.257	-0.035
-688.354	60.189	-0.214	-0.214
-687.339	25.612	0.282	-0.237
-686.324	800.000	0.057	0.163
-685.310	-200.000	-0.032	-0.159
-684.295	541.716	0.086	0.206
-683.281	-7.037	-0.248	0.170
-682.266	82.871	-0.315	-0.345
-681.251	633.182	-0.105	-0.269
-680.237	104.689	-0.129	-0.153
-679.222	-111.113	-0.097	0.020
-678.208	800.000	-0.035	-0.134
-677.193	-116.536	-0.060	-0.011
-676.178	-93.699	0.126	-0.035
-675.164	88.042	0.136	-0.152
-674.149	38.125	-0.312	-0.280
-673.135	-73.485	0.237	-0.087
-672.120	800.000	0.077	0.292
-671.105	141.343	-0.039	-0.052
-670.091	51.936	-0.071	0.068
-669.076	25.612	-0.112	-0.094
-668.062	-200.000	-0.003	-0.379
-667.047	10.518	-0.148	0.113
-666.032	-28.759	0.075	0.043
-665.018	245.028	-0.199	-0.337
-664.003	183.560	-0.036	0.054
-662.989	-72.975	0.265	-0.098
-661.974	800.000	0.105	-0.343
-660.959	-200.000	0.024	-0.169
-659.945	-170.971	0.031	-0.001
-658.930	800.000	-0.036	0.104
-657.916	-200.000	0.013	0.360
-656.901	230.328	0.087	0.143
-655.886	-200.000	0.047	-0.640
-654.872	-200.000	0.006	0.121
-653.857	371.587	0.074	-0.152
-652.843	10.764	0.104	0.080
-651.828	-47.355	0.036	0.018
-650.814	-200.000	-0.010	0.069
-649.799	-21.642	0.110	0.068
-648.784	-200.000	-0.033	0.216
-647.770	800.000	0.035	-0.107
-646.755	44.001	-0.212	-0.195
-645.741	-80.759	0.221	-0.074
-644.726	-108.567	0.163	-0.035
-643.711	99.962	-0.292	0.340
-642.697	-48.747	0.235	0.114
-641.682	29.888	-0.202	0.173
-640.668	-82.519	-0.240	-0.078
-639.653	-96.071	-0.334	-0.089
-638.638	800.000	0.025	0.106
-637.624	35.304	-0.196	-0.173
-636.609	194.859	0.153	-0.233
-635.595	-200.000	0.058	-0.279
-634.580	84.682	0.096	0.106
-633.565	-8.794	0.054	0.036
-632.551	-82.017	0.284	0.093
-631.536	-49.658	-0.472	-0.226
-630.522	133.313	-0.180	-0.234
-629.507	53.609	-0.136	-0.131
-628.492	0.136	0.034	0.025
-627.478	69.660	-0.180	0.186
-626.463	-109.857	0.114	0.024
-625.449	11.783	0.250	-0.193
-624.434	-42.632	0.198	-0.101
-623.419	-83.197	-0.371	-0.120
-622.405	16.180	-0.131	-0.104
-621.390	-124.446	0.362	-0.057
-620.376	280.390	-0.137	-0.245
-619.361	-19.425	-0.230	-0.143
-618.346	-13.437	-0.157	-0.102
-617.332	-200.000	-0.047	-0.235
-616.317	-7.157	-0.141	0.096
-615.303	-145.185	0.192	0.017
-614.288	18.054	0.280	0.224
-613.273	800.000	-0.018	-0.060
-612.259	179.095	-0.203	0.298
-611.244	25.468	0.226	0.188
-610.230	12.798	0.181	-0.141
-609.215	-200.000	0.016	-0.258
-608.201	36.208	0.093	0.082
-607.186	-25.519	-0.267	-0.159
-606.171	555.467	0.101	0.243
-605.157	-10.057	0.275	0.184
-604.142	-200.000	-0.035	-0.271
-603.128	-200.000	-0.120	0.000
-602.113	-21.954	0.131	0.080
-601.098	53.454	0.027	0.026
-600.084	132.446	0.182	0.235
-599.069	43.834	-0.087	-0.080
-598.055	374.979	0.058	0.119
-597.040	800.000	0.038	0.152
-596.025	-84.227	-0.317	-0.101
-595.011	-34.567	0.384	-0.211
-593.996	-170.722	0.161	-0.006
-592.982	-97.729	-0.437	-0.113
-591.967	694.020	0.047	-0.122
-590.952	219.095	-0.040	-0.064
-589.938	87.957	-0.172	-0.191
-588.923	-200.000	-0.005	-0.192
-587.909	241.432	-0.123	-0.206
-586.894	152.159	-0.131	-0.179
-585.879	151.551	-0.198	-0.270
-584.865	61.602	-0.022	-0.022
-583.850	-181.789	-0.319	0.006
-582.836	42.265	0.108	-0.099
-581.821	108.687	-0.240	-0.288
-580.806	8.470	0.094	0.071
-579.792	-87.720	-0.048	0.014
-578.777	800.000	-0.011	0.032
-577.763	-60.802	0.150	0.064
-576.748	-105.508	-0.104	0.024
-575.733	-49.558	0.133	-0.064
-574.719	54.914	-0.027	0.026
-573.704	287.486	-0.031	-0.057
-572.690	78.849	-0.197	0.212
-571.675	382.506	-0.081	0.167
-570.661	-48.458	0.225	0.109
-569.646	5.407	-0.033	0.025
-568.631	-200.000	-0.080	-0.374
-567.617	-80.575	-0.068	-0.023
-566.602	636.043	0.113	0.287
-565.588	-66.154	0.136	0.054
-564.573	188.207	0.132	-0.197
-563.558	-43.130	0.273	0.139
-562.544	800.000	-0.023	-0.065
-561.529	-156.657	-0.075	0.005
-560.515	4.353	0.324	0.238
-559.500	-200.000	-0.011	-0.214
-558.485	-118.751	-0.220	0.039
-557.471	27.842	0.154	-0.130
-556.456	4.345	0.130	0.095
-555.442	-111.216	-0.201	0.041
-554.427	800.000	-0.146	0.527
-553.412	52.863	0.145	-0.139
-552.398	-200.000	0.003	-0.272
-551.383	13.171	0.148	-0.115
-550.369	-200.000	-0.006	-0.128
-549.354	-24.279	-0.321	0.192
-548.339	-200.000	-0.002	0.357
-547.325	57.787	-0.265	-0.260
-546.310	-27.058	0.212	-0.124
-545.296	-200.000	0.010	-0.091
-544.281	7.879	0.051	0.038
-543.266	116.231	0.307	0.377
-542.252	100.464	-0.150	0.175
-541.237	-80.138	-0.093	0.031
-540.223	-200.000	-0.025	-0.198
-539.208	-45.914	0.110	0.054
-538.193	-166.273	-0.092	-0.004
-537.179	-200.000	-0.017	-0.137
-536.164	109.370	0.166	-0.199
-535.150	253.631	-0.198	0.339
-534.135	-200.000	0.032	0.235
-533.121	20.910	0.223	-0.181
-532.106	105.851	0.089	-0.105
-531.091	800.000	0.003	0.012
-530.077	-200.000	-0.001	-0.065
-529.062	-101.712	-0.258	0.063
-528.048	-105.595	-0.208	-0.047
-527.033	-200.000	-0.035	-0.646
-526.018	800.000	-0.028	0.100
-525.004	80.848	-0.101	0.110
-523.989	-25.022	0.223	0.133
-522.975	-96.967	-0.158	0.041
-521.960	-99.975	-0.128	-0.032
-520.945	800.000	0.072	-0.201
-519.931	-54.264	-0.360	-0.164
-518.916	28.366	-0.266	0.225
-517.902	169.709	0.134	0.192
-516.887	-84.652	0.091	0.029
-515.872	-123.099	-0.334	0.054
-514.858	-7.409	-0.221	-0.150
-513.843	-161.361	0.192	0.010
-512.829	69.755	0.284	0.293
-511.814	-53.284	-0.170	0.078
-510.799	-121.179	-0.338	0.057
-509.785	496.311	0.045	0.103
-508.770	-95.058	-0.027	-0.007
-507.756	49.649	0.348	0.328
-506.741	502.746	-0.035	0.081
-505.726	45.127	-0.077	-0.071
-504.712	-83.561	0.264	-0.085
-503.697	191.689	0.091	0.136
-502.683	-90.279	0.158	0.046
-501.668	-200.000	0.037	-0.209
-500.653	-177.025	0.140	-0.004
-499.639	385.782	-0.044	0.091
-498.624	148.758	0.153	-0.207
-497.610	-182.252	0.050	-0.001
-496.595	72.727	-0.128	-0.134
-495.581	121.145	0.220	0.274
-494.566	110.312	0.093	0.112
-493.551	-200.000	-0.006	0.166
-492.537	26.575	0.202	-0.169
-491.522	-69.408	0.275	-0.105
-490.508	114.783	-0.057	-0.070
-489.493	800.000	-0.067	-0.275
-488.478	3.557	0.209	-0.152
-487.464	356.624	-0.069	-0.137
-486.449	-15.692	-0.301	0.192
-485.435	42.748	-0.163	-0.148
-484.420	-30.058	-0.214	0.122
-483.405	-56.580	0.092	0.041
-482.391	-74.680	-0.188	-0.068
-481.376	-15.385	-0.036	-0.023
-480.362	188.770	-0.092	-0.138
-479.347	1.765	0.144	0.104
-478.332	-200.000	0.003	-0.095
-477.318	73.891	-0.077	-0.080
-476.303	-66.691	0.173	-0.069
-475.289	-132.417	0.052	0.007
-474.274	-154.455	0.027	0.002
-473.259	-132.392	-0.450	-0.058
-472.245	-200.000	0.037	-0.198
-471.230	-95.494	0.176	0.047
-470.216	78.871	0.194	0.207
-469.201	82.812	-0.129	0.140
-468.186	-60.971	0.186	0.078
-467.172	-165.577	-0.332	-0.014
-466.157	-162.811	0.078	-0.004
-465.143	199.930	-0.217	-0.333
-464.128	800.000	0.065	-0.187
-463.113	-146.247	-0.284	0.025
-462.099	332.657	0.140	-0.270
-461.084	492.572	0.095	-0.218
-460.070	125.829	-0.107	-0.134
-459.055	82.332	0.147	-0.159
-458.040	-8.465	-0.079	-0.053
-457.026	299.385	0.019	0.035
-456.011	800.000	0.022	0.068
-454.997	-111.692	-0.169	-0.034
-453.982	-103.221	0.223	-0.053
-452.968	-49.729	-0.401	0.190
-451.953	-98.117	-0.145	0.037
-450.938	97.680	-0.019	-0.022
-449.924	83.758	-0.118	0.128
-448.909	-200.000	0.009	-0.218
-447.895	-85.570	-0.218	-0.068
-446.880	-187.392	-0.290	-0.004
-445.865	5.650	-0.315	0.232
-444.851	800.000	-0.060	-0.210
-443.836	-112.107	-0.173	-0.035
-442.822	-61.964	-0.178	0.074
-441.807	-200.000	0.136	0.636
-440.792	-60.855	-0.199	0.084
-439.778	800.000	0.033	-0.096
-438.763	-200.000	-0.019	-0.136
-437.749	102.861	0.240	-0.281
-436.734	126.283	0.132	0.166
-435.719	-94.976	-0.454	-0.122
-434.705	-47.131	0.171	0.083
-433.690	194.938	-0.147	0.222
-432.676	-17.368	-0.229	-0.144
-431.661	-200.000	0.048	0.296
-430.646	-200.000	0.047	0.354
-429.632	-200.000	0.014	-0.133
-428.617	46.895	0.162	-0.150
-427.603	268.022	-0.187	0.326
-426.588	-109.141	0.070	-0.015
-425.573	-38.089	-0.450	-0.238
-424.559	-157.732	0.270	0.016
-423.544	800.000	0.030	-0.093
-422.530	-173.354	-0.006	-0.000
-421.515	-62.921	0.030	-0.013
-420.500	-200.000	-0.011	0.227
-419.486	651.255	0.025	0.063
-418.471	70.218	-0.009	-0.009
-417.457	133.171	0.199	0.256
-416.442	1.327	-0.202	0.145
-415.428	800.000	-0.037	-0.105
-414.413	-65.772	0.333	-0.133
-413.398	646.012	-0.116	0.296
-412.384	-200.000	0.006	0.098
-411.369	-127.476	-0.058	-0.008
-410.355	-6.541	0.246	-0.167
-409.340	800.000	-0.042	0.171
-408.325	-200.000	0.038	0.221
-407.311	-95.332	-0.076	0.020
-406.296	222.652	0.104	-0.167
-405.282	48.587	-0.075	-0.070
-404.267	31.108	-0.105	0.090
-403.252	383.097	0.072	-0.149
-402.238	92.512	0.219	-0.246
-401.223	-189.808	0.280	0.003
-400.209	-132.038	-0.137	-0.018
-399.194	-36.382	0.272	-0.146
-398.179	800.000	-0.034	-0.099
-397.165	56.135	-0.315	0.304
-396.150	-200.000	-0.051	0.228
-395.136	3.903	0.160	0.116
-394.121	-42.415	-0.240	0.122
-393.106	-200.000	-0.006	0.054
-392.092	54.130	-0.135	-0.130
-391.077	184.328	0.074	0.108
-390.063	-78.200	-0.242	0.083
-389.048	-200.000	-0.017	-0.133
-388.033	56.962	-0.031	-0.030
-387.019	-200.000	0.020	-0.214
-386.004	428.439	0.126	0.270
-384.990	800.000	-0.065	-0.244
-383.975	800.000	-0.033	-0.134
-382.960	-200.000	0.063	0.319
-381.946	189.815	-0.032	0.047
-380.931	-32.253	0.124	0.069
-379.917	51.574	0.116	0.109
-378.902	800.000	-0.013	-0.044
-377.888	56.636	0.225	-0.218
-376.873	106.112	0.050	-0.059
-375.858	-50.400	0.258	-0.121
-374.844	21.060	0.256	-0.207
-373.829	-59.248	0.262	-0.112
-372.815	4.338	-0.153	0.111
-371.800	-145.166	-0.222	-0.020
-370.785	-58.778	-0.108	0.047
-369.771	638.168	-0.117	0.295
-368.756	-28.869	-0.162	0.093
-367.742	-200.000	0.016	-0.218
-366.727	26.547	-0.206	0.172
-365.712	-200.000	0.004	-0.026
-364.698	-200.000	-0.031	-0.171
-363.683	-92.835	-0.183	-0.051
-362.669	466.500	-0.066	-0.148
-361.654	-200.000	0.034	0.159
-360.639	243.736	-0.154	0.257
-359.625	-200.000	-0.060	-0.401
-358.610	-70.610	0.390	-0.147
-357.596	-100.536	0.125	-0.031
-356.581	-136.040	0.166	0.019
-355.566	-140.143	-0.165	-0.017
-354.552	-153.854	-0.167	-0.011
-353.537	206.413	0.229	0.354
-352.523	62.623	-0.086	0.085
-351.508	-200.000	-0.025	0.365
-350.493	305.515	0.150	0.277
-349.479	10.923	-0.124	0.094
-348.464	310.131	0.086	0.161
-347.450	-9.878	0.202	0.134
-346.435	-120.153	0.316	0.054
-345.420	-38.930	-0.249	-0.130
-344.406	47.916	-0.149	0.138
-343.391	-16.487	-0.163	0.103
-342.377	-200.000	-0.046	-0.267
-341.362	281.305	-0.136	-0.242
-340.348	230.016	0.074	0.119
-339.333	-200.000	0.036	0.254
-338.318	58.188	0.209	-0.204
-337.304	-30.924	-0.259	0.145
-336.289	-29.682	-0.341	0.193
-335.275	-200.000	0.017	0.165
-334.260	-54.465	-0.069	0.031
-333.245	-102.902	-0.028	0.007
-332.231	13.166	-0.305	0.235
-331.216	-43.229	-0.102	0.051
-330.202	800.000	-0.058	-0.185
-329.187	57.566	-0.211	-0.205
-328.172	178.000	0.119	-0.172
-327.158	-200.000	-0.011	-0.052
-326.143	33.559	-0.206	-0.177
-325.129	610.149	-0.019	-0.048
-324.114	-123.481	0.131	-0.021
-323.099	-53.282	0.202	-0.092
-322.085	-43.590	0.137	-0.069
-321.070	-51.566	0.345	0.160
-320.056	-200.000	-0.036	-0.253
-319.041	-107.949	-0.194	0.042
-318.026	38.182	-0.329	-0.291
-317.012	-55.611	-0.239	-0.106
-315.997	-118.064	-0.345	-0.061
-314.983	-85.598	0.189	0.058
-313.968	-200.000	0.045	0.479
-312.953	-118.360	0.289	-0.051
-311.939	660.166	0.034	0.087
-310.924	179.201	-0.093	-0.136
-309.910	-189.479	-0.239	-0.003
-308.895	67.090	0.040	0.041
-307.880	137.194	-0.285	-0.370
-306.866	-109.467	-0.205	-0.043
-305.851	-48.624	-0.123	0.059
-304.837	-196.411	0.215	0.001
-303.822	800.000	0.046	0.138
-302.807	-168.107	0.349	0.013
-301.793	-200.000	-0.012	-0.147
-300.778	145.108	0.105	0.140
-299.764	28.768	0.250	0.210
-298.749	140.273	-0.231	-0.302
-297.735	-200.000	0.032	-0.163
-296.720	-16.810	-0.255	-0.160
-295.705	-200.000	-0.006	-0.166
-294.691	158.655	0.040	0.055
-293.676	38.765	0.015	-0.013
-292.662	-138.345	-0.110	0.012
-291.647	-58.925	-0.140	0.060
-290.632	-159.861	0.359	0.020
-289.618	518.805	0.138	0.321
-288.603	-71.452	-0.122	-0.045
-287.589	237.208	-0.121	0.200
-286.574	155.612	-0.121	-0.165
-285.559	41.302	0.200	0.179
-284.545	320.907	0.045	-0.085
-283.530	800.000	0.076	-0.247
-282.516	184.043	0.070	0.102
-281.501	-120.440	-0.097	0.016
-280.486	800.000	-0.025	0.106
-279.472	-200.000	0.028	-0.179
-278.457	-200.000	0.001	-0.167
-277.443	47.699	0.099	0.092
-276.428	445.960	-0.159	0.347
-275.413	-29.734	0.218	0.123
-274.399	-72.932	-0.216	-0.079
-273.384	-92.866	0.336	0.093
-272.370	-107.115	-0.037	0.008
-271.355	50.999	0.177	0.166
-270.340	282.497	0.107	0.190
-269.326	64.087	0.188	-0.188
-268.311	-200.000	-0.090	-0.443
-267.297	303.265	0.093	0.171
-266.282	11.588	-0.126	-0.096
-265.267	-116.555	-0.270	-0.049
-264.253	-200.000	0.055	-0.246
-263.238	-24.258	-0.143	-0.084
-262.224	-81.300	0.224	0.073
-261.209	-200.000	-0.016	0.093
-260.195	-92.644	0.236	0.065
-259.180	-27.811	0.089	-0.051
-258.165	209.022	0.301	0.467
-257.151	-148.801	0.286	-0.023
-256.136	-161.879	-0.140	-0.007
-255.122	293.921	0.030	-0.055
-254.107	-5.010	0.414	0.283
-253.092	-25.214	0.218	0.128
-252.078	-200.000	-0.019	0.206
-251.063	143.503	-0.296	0.390
-250.049	-46.686	0.305	0.148
-249.034	32.586	-0.310	0.266
-248.019	-165.931	-0.209	0.009
-247.005	800.000	0.053	-0.214
-245.990	-88.928	-0.364	0.107
-244.976	-56.553	0.212	-0.093
-243.961	800.000	-0.074	0.287
-242.946	-200.000	0.050	0.279
-241.932	66.856	-0.179	-0.180
-240.917	800.000	-0.061	-0.256
-239.903	800.000	-0.022	-0.061
-238.888	-150.615	0.252	0.019
-237.873	-200.000	-0.227	0.001
-236.859	-96.169	0.335	0.088
-235.844	-75.657	0.338	0.119
-234.830	-14.294	-0.221	-0.141
-233.815	65.085	0.211	0.211
-232.800	-38.942	0.236	0.123
-231.786	52.694	-0.114	0.108
-230.771	-139.071	0.296	-0.032
-229.757	9.941	0.193	0.145
-228.742	23.233	0.070	-0.057
-227.727	131.089	-0.096	0.122
-226.713	-53.006	0.329	-0.150
-225.698	-18.621	0.328	0.202
-224.684	-200.000	-0.043	0.220
-223.669	-161.121	0.185	-0.010
-222.655	6.162	0.156	-0.115
-221.640	-89.405	0.067	0.020
-220.625	800.000	-0.131	-0.408
-219.611	464.190	0.118	-0.261
-218.596	-68.337	-0.383	-0.147
-217.582	-200.000	0.042	-0.262
-216.567	-56.227	-0.237	-0.104
-215.552	-163.673	0.249	-0.012
-214.538	34.306	0.016	-0.014
-213.523	-200.000	0.028	-0.212
-212.509	800.000	0.049	-0.149
-211.494	-144.620	-0.127	-0.012
-210.479	58.122	-0.049	-0.047
-209.465	19.154	0.298	0.236
-208.450	352.337	0.078	0.152
-207.436	-58.655	-0.226	-0.097
-206.421	-193.880	0.154	-0.001
-205.406	116.441	-0.167	-0.203
-204.392	-200.000	-0.090	-0.418
-203.377	-109.388	0.082	-0.017
-202.363	42.305	0.132	-0.119
-201.348	800.000	0.081	0.233
-200.333	-200.000	0.030	0.337
-199.319	-200.000	-0.003	0.141
-198.304	65.923	-0.173	-0.173
-197.290	-72.114	0.290	0.106
-196.275	100.192	0.146	0.168
-195.260	403.745	0.103	0.213
-194.246	-200.000	-0.047	0.242
-193.231	800.000	0.071	-0.220
-192.217	800.000	-0.041	0.146
-191.202	800.000	0.080	-0.286
-190.187	100.784	-0.343	0.394
-189.173	-200.000	-0.011	0.171
-188.158	-104.446	0.201	-0.046
-187.144	-115.822	0.262	-0.048
-186.129	-27.457	-0.258	-0.148
-185.114	-51.914	-0.266	0.122
-184.100	-54.473	0.231	-0.103
-183.085	45.046	0.204	-0.185
-182.071	508.865	0.048	-0.110
-181.056	-200.000	0.016	-0.085
-180.042	346.763	0.219	0.426
-179.027	176.471	0.052	0.075
-178.012	800.000	-0.034	0.139
-176.998	-12.005	0.170	0.110
-175.983	328.599	0.150	0.285
-174.969	347.562	0.099	0.193
-173.954	-200.000	0.006	0.201
-172.939	-132.992	0.277	-0.035
-171.925	-200.000	-0.003	-0.045
-170.910	29.365	-0.097	-0.081
-169.896	2.980	0.100	0.071
-168.881	-35.427	-0.023	0.012
-167.866	800.000	-0.066	-0.242
-166.852	800.000	0.030	-0.122
-165.837	138.346	0.149	-0.193
-164.823	-103.844	-0.265	0.061
-163.808	28.723	-0.291	-0.243
-162.793	415.002	-0.061	-0.128
-161.779	-66.658	-0.217	0.085
-160.764	-67.235	-0.234	-0.091
-159.750	17.240	0.128	-0.100
-158.735	-95.829	0.271	0.071
-157.720	71.585	-0.039	0.040
-156.706	800.000	-0.055	-0.238
-155.691	-29.048	0.115	0.065
-154.677	-103.112	0.312	-0.073
-153.662	-200.000	-0.012	0.081
-152.647	-10.185	-0.112	-0.073
-151.633	45.907	0.135	-0.124
-150.618	800.000	-0.053	0.166
-149.604	62.853	0.447	-0.441
-148.589	-57.893	0.073	-0.032
-147.574	-154.396	0.073	0.005
-146.560	-200.000	0.028	0.368
-145.545	24.985	0.110	-0.090
-144.531	800.000	0.033	0.133
-143.516	136.603	0.235	0.302
-142.502	-81.004	0.172	0.056
-141.487	4.531	-0.261	0.189
-140.472	-175.967	0.401	0.011
-139.458	-95.224	0.088	-0.023
-138.443	105.155	0.033	-0.039
-137.429	-200.000	0.049	-0.377
-136.414	-11.519	0.145	-0.094
-135.399	191.111	0.062	0.093
-134.385	19.125	-0.155	0.122
-133.370	779.898	-0.045	0.122
-132.356	-57.940	0.317	-0.137
-131.341	-200.000	-0.010	0.298
-130.326	641.648	-0.075	-0.189
-129.312	467.989	0.179	0.395
-128.297	-80.088	0.318	0.105
-127.283	800.000	0.050	-0.177
-126.268	800.000	0.036	-0.101
-125.253	-79.662	-0.149	-0.050
-124.239	510.230	0.106	-0.244
-123.224	-200.000	-0.047	0.298
-122.210	-200.000	-0.043	-0.441
-121.195	78.168	-0.235	-0.247
-120.180	17.745	0.110	0.086
-119.166	143.793	0.151	-0.198
-118.151	-40.001	0.255	-0.131
-117.137	800.000	-0.070	0.205
-116.122	132.595	-0.052	0.066
-115.107	-28.961	0.167	-0.095
-114.093	800.000	0.084	-0.284
-113.078	800.000	-0.034	-0.127
-112.064	-168.902	-0.479	-0.018
-111.049	-83.475	-0.154	0.049
-110.034	-103.904	0.194	0.045
-109.020	-123.771	0.149	0.023
-108.005	-135.717	0.126	0.015
-106.991	-47.135	-0.036	-0.017
-105.976	-200.000	-0.079	-0.434
-104.962	141.118	0.063	-0.081
-103.947	140.468	0.120	-0.156
-102.932	85.917	0.077	0.083
-101.918	-70.160	0.105	0.039
-100.903	-200.000	0.026	0.315
-99.889	-58.168	-0.143	0.061
-98.874	95.381	0.095	0.107
-97.859	-200.000	0.039	-0.248
-96.845	-108.655	-0.275	0.058
-95.830	250.386	-0.089	-0.149
-94.816	800.000	0.092	0.335
-93.801	-200.000	-0.008	0.074
-92.786	-200.000	0.084	0.419
-91.772	529.111	0.075	0.174
-90.757	-49.144	0.195	-0.092
-89.743	-200.000	-0.004	-0.256
-88.728	800.000	0.085	0.293
-87.713	16.043	-0.216	-0.167
-86.699	201.843	0.171	0.259
-85.684	-200.000	-0.025	0.139
-84.670	144.449	-0.070	0.092
-83.655	-135.392	-0.285	0.034
-82.640	-66.925	-0.184	0.071
-81.626	-105.891	-0.149	-0.033
-80.611	-32.708	-0.066	-0.036
-79.597	344.940	0.099	0.190
-78.582	-200.000	0.051	0.311
-77.567	175.522	0.109	0.156
-76.553	138.990	0.070	0.090
-75.538	-159.634	-0.123	-0.007
-74.524	-76.034	0.172	0.060
-73.509	-64.778	-0.210	-0.083
-72.494	-44.870	0.038	-0.019
-71.480	52.606	-0.052	-0.049
-70.465	-200.000	0.006	-0.109
-69.451	629.875	-0.218	-0.543
-68.436	-200.000	0.011	-0.272
-67.422	112.261	0.154	-0.183
-66.407	-9.747	0.148	0.097
-65.392	0.355	-0.318	-0.223
-64.378	-113.346	0.087	-0.017
-63.363	800.000	-0.062	0.186
-62.349	800.000	0.090	-0.294
-61.334	38.662	-1.227	-1.077
-60.319	-93.081	0.492	0.135
-59.305	707.885	-0.362	-0.941
-58.290	94.947	0.651	0.729
-57.276	800.000	0.369	1.445
-56.261	-200.000	95.699	574.068
-55.246	652.340	1376.654	3468.504
-54.232	198.228	2556.319	3842.283
-53.217	112.845	2268.687	2701.479
-52.203	42.093	1895.377	1691.219
-51.188	36.035	1685.191	1457.944
-50.173	33.401	1640.900	1400.132
-49.159	50.482	1686.782	1567.589
-48.144	52.232	1703.116	1595.809
-47.130	35.533	1664.525	1436.088
-46.115	32.917	1649.815	1403.914
-45.100	32.660	1645.332	1398.140
-44.086	32.647	1642.491	1395.576
-43.071	32.595	1639.757	1392.809
-42.057	32.565	1638.042	1391.079
-41.042	32.638	1635.295	1389.227
-40.027	32.610	1633.641	1387.561
-39.013	32.612	1631.684	1385.859
-37.998	32.572	1630.418	1384.433
-36.984	32.680	1628.914	1383.894
-35.969	32.760	1627.395	1383.135
-34.954	32.697	1626.074	1381.499
-33.940	32.788	1624.062	1380.397
-32.925	32.842	1621.990	1378.980
-31.911	32.697	1620.621	1376.704
-30.896	32.736	1618.666	1375.266
-29.881	32.750	1616.807	1373.735
-28.867	32.742	1615.068	1372.151
-27.852	32.777	1613.798	1371.266
-26.838	32.771	1612.254	1369.860
-25.823	32.827	1611.221	1369.333
-24.809	32.758	1609.615	1367.416
-23.794	32.735	1607.965	1365.794
-22.779	32.730	1606.585	1364.528
-21.765	32.805	1604.708	1363.425
-20.750	32.801	1603.100	1361.972
-19.736	32.676	1602.281	1360.325
-18.721	32.829	1600.366	1359.744
-17.706	32.698	1599.485	1357.997
-16.692	32.775	1597.815	1357.080
-15.677	32.800	1596.226	1355.860
-14.663	32.834	1594.867	1354.893
-13.648	32.760	1593.901	1353.486
-12.633	32.838	1591.580	1352.025
-11.619	32.833	1590.051	1350.630
-10.604	32.712	1588.696	1348.566
-9.590	32.856	1587.346	1348.389
-8.575	32.708	1586.799	1346.818
-7.560	32.810	1585.289	1346.210
-6.546	32.787	1584.624	1345.429
-5.531	32.758	1583.098	1343.870
-4.517	32.824	1581.401	1342.850
-3.502	32.829	1580.490	1342.054
-2.487	32.854	1579.194	1341.084
-1.473	32.525	1567.573	1328.838
-0.458	29.869	1547.866	1293.543
0.556	26.267	1549.072	1262.181
1.571	23.822	1572.371	1263.696
2.586	23.280	1585.691	1270.396
3.600	20.758	1532.272	1209.985
4.615	12.707	1423.891	1072.090
5.629	5.894	1361.210	982.280
6.644	4.800	1353.802	970.030
7.659	4.707	1351.846	967.966
8.673	4.683	1350.625	966.860
9.688	4.760	1348.956	966.058
10.702	4.645	1345.971	963.118
11.717	7.738	1352.144	986.670
12.731	15.294	1366.171	1044.032
13.746	20.098	1372.273	1078.573
14.761	19.663	1370.688	1074.530
15.775	18.504	1368.147	1065.245
16.790	17.469	1365.466	1056.638
17.804	16.664	1362.855	1049.536
18.819	16.350	1361.899	1046.763
19.834	15.970	1360.931	1043.573
20.848	15.801	1359.701	1041.492
21.863	15.639	1357.879	1039.000
22.877	15.370	1357.593	1037.026
23.892	15.390	1356.297	1036.068
24.907	15.357	1355.147	1034.896
25.921	15.478	1354.332	1034.926
26.936	15.513	1353.325	1034.283
27.950	15.523	1352.271	1033.448
28.965	15.545	1351.605	1032.984
29.980	15.646	1350.412	1032.597
30.994	15.753	1349.318	1032.331
32.009	15.707	1348.701	1031.480
33.023	15.681	1347.442	1030.268
34.038	15.682	1345.219	1028.485
35.053	15.516	1344.970	1027.188
36.067	15.574	1343.217	1026.114
37.082	15.523	1342.406	1025.089
38.096	15.650	1341.207	1024.860
39.111	15.614	1340.805	1024.240
40.126	15.548	1339.847	1023.017
41.140	15.461	1338.576	1021.426
42.155	15.290	1338.191	1020.005
43.169	15.221	1338.267	1019.550
44.184	15.304	1337.659	1019.504
45.199	15.416	1337.319	1019.832
46.213	15.351	1337.159	1019.227
47.228	15.565	1335.897	1019.474
48.242	15.616	1334.566	1018.673
49.257	15.485	1333.324	1016.843
50.271	15.504	1331.926	1015.802
51.286	15.508	1330.948	1014.988
52.301	15.534	1329.251	1013.764
53.315	15.442	1328.445	1012.503
54.330	15.358	1327.394	1011.106
55.344	15.379	1326.034	1010.107
56.359	15.326	1325.178	1009.048
57.374	15.404	1324.351	1008.801
58.388	15.162	1324.015	1006.997
59.403	15.337	1323.229	1007.362
60.417	15.330	1322.043	1006.327
61.432	15.261	1321.129	1005.131
62.447	15.223	1320.593	1004.404
63.461	15.196	1319.160	1003.064
64.476	15.111	1318.540	1001.998
65.490	15.150	1316.906	1000.900
66.505	15.275	1314.906	1000.038
67.520	15.131	1314.679	998.918
68.534	15.241	1313.291	998.431
69.549	15.223	1312.523	997.650
70.563	15.231	1310.912	996.386
71.578	15.174	1310.025	995.281
72.593	15.175	1309.066	994.476
73.607	14.937	1308.870	992.823
74.622	15.068	1307.470	992.452
75.636	15.074	1306.843	991.923
76.651	15.168	1306.397	992.052
77.666	15.075	1306.240	991.292
78.680	15.094	1305.520	990.776
79.695	15.231	1304.569	990.771
80.709	15.234	1303.824	990.136
81.724	15.368	1302.820	990.077
82.739	15.386	1302.130	989.573
83.753	15.477	1301.587	989.610
84.768	15.507	1300.604	988.951
85.782	15.647	1299.191	988.613
86.797	15.573	1298.377	987.472
87.812	15.604	1296.394	986.055
88.826	15.558	1295.888	985.312
89.841	15.501	1294.718	984.007
90.855	15.518	1294.052	983.509
91.870	15.624	1292.856	983.133
92.884	15.610	1292.116	982.401
93.899	15.553	1291.340	981.391
94.914	15.665	1290.490	981.314
95.928	15.646	1289.873	980.644
96.943	15.632	1288.900	979.738
97.957	15.584	1287.640	978.418
98.972	15.547	1286.498	977.245
99.987	15.583	1285.475	976.594
101.001	15.545	1284.645	975.655
102.016	15.571	1283.861	975.124
103.030	15.644	1282.710	974.589
104.045	15.646	1281.984	973.960
105.060	15.546	1280.703	972.320
106.074	15.334	1279.359	969.988
107.089	15.270	1277.883	968.417
108.103	15.370	1276.213	967.638
109.118	15.229	1275.556	966.243
110.133	15.332	1274.077	965.631
111.147	15.328	1273.028	964.730
112.162	15.311	1271.501	963.388
113.176	15.271	1270.891	962.611
114.191	15.381	1269.718	962.269
115.206	15.402	1268.741	961.560
116.220	15.279	1267.739	960.011
117.235	15.276	1266.591	959.042
118.249	15.387	1265.262	958.587
119.264	15.377	1264.061	957.531
120.279	15.283	1263.283	956.324
121.293	15.274	1261.919	955.153
122.308	15.204	1260.898	953.898
123.322	15.159	1260.325	953.124
124.337	15.226	1259.073	952.476
125.352	15.219	1258.000	951.539
126.366	15.303	1256.578	950.854
127.381	15.225	1255.909	949.825
128.395	15.238	1255.316	949.365
129.410	15.279	1253.949	948.479
130.424	15.264	1253.262	947.788
131.439	15.228	1252.026	946.569
132.454	15.340	1251.320	946.580
133.468	15.296	1250.875	945.916
134.483	15.387	1250.316	945.919
135.497	15.414	1248.532	944.642
136.512	15.282	1247.558	943.075
137.527	15.319	1246.266	942.226
138.541	15.384	1244.869	941.451
139.556	15.369	1243.774	940.455
140.570	15.566	1242.432	940.461
141.585	15.535	1241.531	939.523
142.600	15.655	1240.057	938.993
143.614	15.622	1239.502	938.305
144.629	15.651	1238.188	937.386
145.643	15.691	1237.132	936.730
146.658	15.624	1236.006	935.419
147.673	15.446	1234.716	933.372
148.687	15.434	1233.502	932.304
149.702	15.416	1232.032	931.011
150.716	15.396	1230.832	929.910
151.731	15.476	1229.861	929.538
152.746	15.491	1228.800	928.740
153.760	15.407	1228.140	927.695
154.775	15.612	1226.822	927.748
155.789	15.592	1225.247	926.362
156.804	15.622	1224.183	925.642
157.819	15.603	1223.400	924.865
158.833	15.680	1222.572	924.580
159.848	15.814	1221.558	924.469
160.862	15.738	1220.443	923.125
161.877	15.628	1219.704	921.882
162.892	15.635	1218.312	920.784
163.906	15.588	1217.542	919.867
164.921	15.571	1216.768	919.104
165.935	15.677	1215.721	918.810
166.950	15.465	1215.807	917.637
167.964	15.668	1214.278	917.508
168.979	15.654	1213.742	916.947
169.994	15.714	1212.688	916.396
171.008	15.698	1212.265	915.908
172.023	15.573	1211.896	914.871
173.037	15.738	1210.876	914.918
174.052	15.758	1209.594	913.976
175.067	15.633	1208.746	912.576
176.081	15.599	1207.659	911.489
177.096	15.574	1206.908	910.703
178.110	15.743	1205.294	910.321
179.125	15.682	1204.182	909.073
180.140	15.763	1203.280	908.745
181.154	15.766	1201.810	907.574
182.169	15.745	1200.947	906.727
183.183	15.889	1199.941	906.661
184.198	15.934	1198.569	905.789
185.213	15.984	1197.168	904.921
186.227	15.971	1196.645	904.374
187.242	15.978	1195.615	903.551
188.256	15.969	1194.611	902.664
189.271	15.978	1193.681	901.931
190.286	15.881	1192.443	900.398
191.300	15.677	1191.766	898.718
192.315	15.596	1191.135	897.728
193.329	15.623	1190.506	897.318
194.344	15.590	1189.864	896.579
195.359	15.698	1189.740	896.982
196.373	15.822	1188.874	896.912
197.388	15.948	1188.294	897.064
198.402	16.017	1187.880	897.041
199.417	16.096	1187.648	897.204
200.432	16.263	1186.154	896.884
201.446	16.226	1185.824	896.359
202.461	16.402	1184.654	896.329
203.475	16.307	1183.810	895.108
204.490	16.202	1182.519	893.496
205.504	16.048	1181.508	891.839
206.519	16.186	1179.992	891.345
207.534	16.010	1179.296	889.813
208.548	16.102	1178.169	889.370
209.563	16.115	1177.458	888.823
210.577	16.183	1176.196	888.150
211.592	16.179	1175.761	887.720
212.607	16.300	1174.877	887.609
213.621	16.213	1174.014	886.422
214.636	16.399	1172.730	886.352
215.650	16.281	1172.496	885.478
216.665	16.361	1171.366	884.966
217.680	16.513	1170.590	885.093
218.694	16.505	1169.653	884.264
219.709	16.425	1168.974	883.258
220.723	16.324	1168.508	882.300
221.738	16.396	1167.465	881.808
222.753	16.380	1166.993	881.289
223.767	16.402	1166.300	880.805
224.782	16.496	1165.528	880.632
225.796	16.557	1165.029	880.498
226.811	16.561	1164.226	879.831
227.826	16.473	1163.575	878.807
228.840	16.534	1162.776	878.441
229.855	16.377	1162.553	877.379
230.869	16.527	1161.427	877.230
231.884	16.351	1160.277	875.370
232.899	16.368	1159.642	874.904
233.913	16.251	1159.117	873.824
234.928	16.295	1158.260	873.326
235.942	16.312	1157.406	872.696
236.957	16.298	1156.604	871.938
237.972	16.302	1156.169	871.557
238.986	16.264	1155.461	870.751
240.001	16.325	1154.539	870.291
241.015	16.540	1153.479	870.521
242.030	16.516	1152.656	869.699
243.045	16.534	1152.517	869.609
244.059	16.448	1151.783	868.540
245.074	16.478	1150.819	867.887
246.088	16.616	1149.997	867.899
247.103	16.709	1148.965	867.519
248.117	16.661	1148.575	866.902
249.132	16.851	1147.831	867.235
250.147	16.820	1147.561	866.796
251.161	16.977	1146.688	866.863
252.176	17.019	1146.004	866.484
253.190	16.996	1145.230	865.708
254.205	17.080	1144.877	865.793
255.220	17.085	1144.060	865.124
256.234	17.142	1143.531	864.937
257.249	17.162	1142.740	864.360
258.263	17.105	1141.987	863.428
259.278	17.034	1141.574	862.677
260.293	17.156	1140.998	862.786
261.307	17.153	1140.422	862.258
262.322	17.152	1139.559	861.525
263.336	17.122	1139.200	861.023
264.351	17.319	1138.078	861.098
265.366	17.237	1137.771	860.377
266.380	17.217	1137.057	859.659
267.395	17.218	1136.020	858.804
268.409	17.082	1135.299	857.496
269.424	17.242	1134.564	857.671
270.439	17.209	1134.016	857.013
271.453	17.209	1133.436	856.500
272.468	17.255	1132.159	855.692
273.482	17.096	1131.831	854.567
274.497	17.194	1131.191	854.499
275.512	17.201	1130.552	853.978
276.526	17.288	1129.513	853.553
277.541	17.247	1128.875	852.790
278.555	17.323	1128.447	852.771
279.570	17.343	1127.625	852.180
280.585	17.363	1126.737	851.528
281.599	17.367	1125.764	850.739
282.614	17.311	1124.925	849.750
283.628	17.365	1123.653	848.985
284.643	17.436	1122.585	848.458
285.657	17.378	1121.795	847.495
286.672	17.340	1121.017	846.645
287.687	17.366	1120.322	846.175
288.701	17.334	1120.069	845.749
289.716	17.432	1118.662	845.096
290.730	17.458	1118.275	844.860
291.745	17.539	1117.397	844.523
292.760	17.290	1116.950	842.878
293.774	17.422	1116.285	842.956
294.789	17.512	1115.597	842.803
295.803	17.489	1115.296	842.387
296.818	17.542	1114.473	841.956
297.833	17.542	1113.147	840.879
298.847	17.576	1112.466	840.457
299.862	17.559	1111.820	839.811
300.876	17.477	1111.382	839.005
301.891	17.550	1110.514	838.631
302.906	17.631	1109.822	838.433
303.920	17.672	1109.565	838.366
304.935	17.740	1108.723	837.992
305.949	17.890	1107.975	838.089
306.964	17.819	1107.667	837.433
307.979	17.737	1106.959	836.421
308.993	17.795	1105.956	835.874
310.008	17.766	1105.399	835.238
311.022	17.925	1103.947	834.843
312.037	17.887	1103.348	834.130
313.052	17.772	1102.624	832.945
314.066	17.746	1101.597	831.971
315.081	17.670	1100.536	830.725
316.095	17.678	1099.789	830.126
317.110	17.703	1099.209	829.737
318.125	17.656	1098.398	828.822
319.139	17.644	1097.909	828.321
320.154	17.676	1097.298	827.943
321.168	17.654	1096.913	827.473
322.183	17.686	1096.247	827.055
323.197	17.748	1095.510	826.725
324.212	17.650	1095.229	825.963
325.227	17.705	1094.286	825.445
326.241	17.756	1093.926	825.348
327.256	17.803	1092.723	824.594
328.270	17.790	1091.825	823.784
329.285	17.866	1090.732	823.252
330.300	17.838	1090.136	822.592
331.314	17.904	1088.893	821.902
332.329	17.765	1088.293	820.708
333.343	17.788	1087.479	820.132
334.358	17.967	1086.345	820.064
335.373	17.893	1086.370	819.653
336.387	17.927	1085.673	819.220
337.402	18.003	1084.371	818.526
338.416	18.025	1083.855	818.169
339.431	18.027	1083.262	817.662
340.446	18.064	1082.676	817.320
341.460	18.238	1082.040	817.600
342.475	18.277	1080.976	816.913
343.489	18.351	1080.210	816.612
344.504	18.383	1078.963	815.750
345.519	18.462	1078.441	815.659
346.533	18.277	1077.989	814.366
347.548	18.381	1077.437	814.372
348.562	18.347	1076.582	813.490
349.577	18.246	1075.599	812.198
350.592	18.161	1074.877	811.177
351.606	18.269	1073.835	810.832
352.621	18.195	1073.154	809.893
353.635	18.161	1072.543	809.199
354.650	18.144	1071.729	808.433
355.665	18.207	1071.386	808.404
356.679	18.267	1070.472	807.926
357.694	18.245	1070.237	807.572
358.708	18.286	1069.631	807.234
359.723	18.328	1069.079	806.945
360.738	18.380	1068.033	806.329
361.752	18.359	1067.459	805.724
362.767	18.404	1066.898	805.442
363.781	18.533	1066.283	805.514
364.796	18.517	1066.051	805.190
365.810	18.461	1065.511	804.449
366.825	18.561	1064.747	804.270
367.840	18.709	1064.481	804.695
368.854	18.682	1063.820	803.995
369.869	18.590	1062.902	802.799
370.883	18.525	1062.241	801.927
371.898	18.517	1061.489	801.248
372.913	18.620	1060.913	801.227
373.927	18.719	1060.434	801.254
374.942	18.850	1059.694	801.237
375.956	18.694	1059.423	800.231
376.971	18.663	1058.710	799.479
377.986	18.806	1058.186	799.679
379.000	18.907	1057.845	799.821
380.015	18.894	1056.868	798.951
381.029	18.917	1056.246	798.514
382.044	18.927	1055.889	798.223
383.059	18.917	1055.104	797.511
384.073	18.922	1054.052	796.667
385.088	18.959	1053.104	796.053
386.102	18.944	1052.590	795.524
387.117	18.927	1051.534	794.577
388.132	18.736	1050.671	792.971
389.146	18.758	1050.134	792.598
390.161	18.806	1049.178	792.028
391.175	18.782	1048.657	791.452
392.190	18.878	1047.981	791.314
393.205	18.948	1047.071	790.879
394.219	18.897	1046.186	789.907
395.234	18.900	1045.272	789.160
396.248	18.866	1044.379	788.261
397.263	18.835	1043.413	787.322
398.278	18.872	1042.416	786.671
399.292	18.821	1041.945	786.010
400.307	18.820	1041.678	785.734
401.321	18.813	1040.721	784.909
402.336	18.944	1039.517	784.530
403.350	18.837	1039.463	783.931
404.365	18.896	1038.705	783.561
405.380	19.026	1037.398	783.095
406.394	19.099	1037.043	783.093
407.409	19.040	1036.840	782.603
408.423	19.173	1035.788	782.340
409.438	19.215	1035.314	782.105
410.453	19.197	1034.476	781.320
411.467	19.260	1033.665	780.927
412.482	19.427	1032.950	781.072
413.496	19.493	1032.526	780.983
414.511	19.330	1032.117	779.864
415.526	19.388	1031.854	779.858
416.540	19.444	1031.291	779.620
417.555	19.491	1030.632	779.264
418.569	19.451	1029.923	778.477
419.584	19.343	1029.816	777.842
420.599	19.455	1029.152	777.774
421.613	151.778	1401.001	1795.244
422.628	138.459	1455.196	1795.385
