DTS Sentinel unit serial number:	SN413079Multiplexer serial number:	ORYXHardware model number:	OX4-SRSoftware version number:	ORYX F/W v4.00 Oryx Data Collector v3.7.2.0data status	okinstallation	princeton_trtdifferential loss correction	single-endedforward channel	channel 2reverse channel	N/Adate	2019/09/12time	06:17:11forward acquisition time	60.00reverse acquisition time	0.00gamma	496.2192k internal	0.2324k external	0.2324temperature offset calibration	1.0061default loss term (dB/km)	0.3790temperature slope calibration	1.0000multiplexer offset coefficient	1.0000multiplexer slope coefficient	1.0000fibre end	0.00T internal ref (°C)	32.12T ext. ref 1 (°C)	1.56T ext. ref 2 (°C)	27.42length (m)	temperature (°C)	Stokes	anti-Stokes-747.200	-49.209	0.228	-0.110
-746.185	266.860	-0.186	0.329
-745.171	-200.000	-0.021	0.145
-744.156	-97.238	-0.202	0.053
-743.142	-200.000	0.013	0.182
-742.127	634.954	0.077	0.198
-741.112	800.000	0.049	-0.209
-740.098	418.517	0.150	-0.324
-739.083	-72.773	0.345	0.128
-738.069	255.861	0.090	0.156
-737.054	-200.000	-0.017	-0.098
-736.039	-158.071	-0.207	-0.012
-735.025	-12.056	0.300	0.198
-734.010	649.800	-0.085	0.219
-732.996	-135.756	0.210	0.025
-731.981	-183.663	0.117	-0.002
-730.966	485.671	-0.139	0.319
-729.952	-41.976	-0.089	-0.046
-728.937	204.290	0.045	-0.071
-727.923	82.432	-0.194	0.212
-726.908	39.412	-0.141	-0.127
-725.894	-200.000	0.003	0.104
-724.879	-200.000	-0.010	0.170
-723.864	28.594	0.290	0.248
-722.850	800.000	0.060	0.251
-721.835	-41.578	0.092	0.048
-720.821	800.000	-0.071	-0.257
-719.806	4.104	0.108	0.080
-718.791	-200.000	-0.103	-0.572
-717.777	62.005	-0.234	-0.236
-716.762	-62.077	0.082	-0.035
-715.748	139.859	0.192	-0.255
-714.733	95.383	-0.182	-0.209
-713.718	-83.813	0.268	0.086
-712.704	-168.396	-0.180	-0.007
-711.689	39.969	0.069	-0.063
-710.675	-200.000	-0.032	-0.432
-709.660	800.000	-0.071	-0.287
-708.645	-200.000	0.037	-0.182
-707.631	-148.997	0.255	-0.021
-706.616	-200.000	0.033	-0.346
-705.602	99.953	0.204	0.239
-704.587	-119.753	0.184	0.032
-703.572	800.000	0.063	-0.255
-702.558	46.318	0.060	-0.056
-701.543	237.751	0.196	0.328
-700.529	99.823	0.068	-0.079
-699.514	-57.387	0.122	-0.054
-698.499	-125.804	0.219	0.033
-697.485	-200.000	-0.031	0.139
-696.470	-26.307	-0.061	0.036
-695.456	-97.650	-0.207	-0.054
-694.441	-151.503	-0.242	-0.018
-693.426	-10.637	0.214	0.143
-692.412	-200.000	0.029	-0.191
-691.397	1.431	0.284	-0.206
-690.383	-93.096	-0.061	-0.017
-689.368	800.000	0.069	-0.238
-688.354	93.579	-0.181	0.206
-687.339	-146.884	0.140	-0.012
-686.324	800.000	0.015	0.059
-685.310	436.127	-0.094	-0.207
-684.295	18.881	0.044	-0.035
-683.281	75.013	0.046	-0.049
-682.266	-56.196	0.103	-0.046
-681.251	-115.720	0.254	-0.048
-680.237	-200.000	0.013	-0.084
-679.222	800.000	-0.053	-0.225
-678.208	-129.722	-0.177	-0.025
-677.193	-200.000	-0.031	0.138
-676.178	-85.375	-0.359	0.113
-675.164	-157.362	0.080	-0.005
-674.149	-32.874	-0.222	-0.124
-673.135	8.163	0.062	0.047
-672.120	297.991	-0.064	0.118
-671.105	-200.000	-0.058	-0.364
-670.091	427.338	0.114	0.249
-669.076	52.935	0.194	0.187
-668.062	64.640	-0.155	0.157
-667.047	-200.000	-0.060	-0.301
-666.032	53.250	-0.072	-0.070
-665.018	800.000	0.065	-0.190
-664.003	343.707	0.077	0.153
-662.989	-59.978	0.230	-0.099
-661.974	245.570	0.054	0.091
-660.959	-30.107	0.213	0.122
-659.945	-48.600	-0.061	-0.030
-658.930	514.910	-0.088	-0.206
-657.916	234.122	-0.059	-0.097
-656.901	59.566	0.153	-0.152
-655.886	-10.005	0.111	0.074
-654.872	800.000	0.030	0.116
-653.857	-89.794	-0.328	-0.097
-652.843	-62.918	0.434	-0.181
-651.828	1.523	-0.325	0.235
-650.814	-200.000	-0.030	-0.140
-649.799	-144.530	-0.319	0.030
-648.784	115.818	0.168	-0.207
-647.770	-27.967	-0.342	0.199
-646.755	275.882	0.090	-0.160
-645.741	-200.000	0.001	-0.034
-644.726	-122.460	-0.126	-0.021
-643.711	329.474	-0.103	-0.199
-642.697	-200.000	-0.008	-0.215
-641.682	-200.000	-0.020	0.186
-640.668	9.887	0.003	0.002
-639.653	-106.554	0.028	0.006
-638.638	-117.333	-0.364	0.066
-637.624	-110.550	-0.070	-0.015
-636.609	-11.550	-0.304	-0.201
-635.595	-200.000	0.018	-0.273
-634.580	-200.000	-0.028	0.163
-633.565	-129.432	-0.377	-0.053
-632.551	-10.981	-0.149	-0.099
-631.536	-26.332	0.135	-0.079
-630.522	-162.333	-0.238	0.012
-629.507	237.839	0.159	0.266
-628.492	-22.268	0.356	0.217
-627.478	800.000	-0.124	-0.401
-626.463	-86.727	0.080	0.025
-625.449	105.702	0.274	-0.325
-624.434	281.190	0.068	-0.122
-623.419	-79.289	0.343	0.117
-622.405	-87.274	0.324	-0.099
-621.390	507.366	-0.080	-0.186
-620.376	-200.000	0.027	0.169
-619.361	7.612	0.322	0.242
-618.346	-200.000	0.042	0.215
-617.332	-159.751	0.198	0.011
-616.317	-134.419	-0.227	0.028
-615.303	-62.178	0.141	0.059
-614.288	482.011	-0.080	-0.183
-613.273	-159.167	-0.382	-0.022
-612.259	-200.000	-0.012	0.114
-611.244	-200.000	0.009	-0.378
-610.230	-8.310	-0.161	-0.109
-609.215	7.202	-0.060	0.045
-608.201	-200.000	0.021	-0.271
-607.186	-89.733	-0.263	-0.077
-606.171	112.243	-0.243	-0.295
-605.157	800.000	-0.020	0.075
-604.142	-66.694	-0.138	0.055
-603.128	-97.737	0.281	-0.073
-602.113	160.111	-0.038	0.054
-601.098	73.929	0.102	0.107
-600.084	-92.893	-0.255	0.072
-599.069	781.683	-0.131	0.359
-598.055	-0.443	0.318	0.227
-597.040	60.434	0.297	-0.295
-596.025	-63.945	0.100	-0.041
-595.011	57.557	0.021	-0.021
-593.996	-200.000	0.006	0.190
-592.982	-200.000	0.017	0.171
-591.967	10.076	0.189	-0.144
-590.952	-31.784	-0.190	0.107
-589.938	34.687	-0.096	0.085
-588.923	-176.218	-0.237	0.006
-587.909	217.139	0.218	-0.348
-586.894	18.116	-0.275	0.220
-585.879	298.961	-0.118	0.218
-584.865	-200.000	0.027	0.188
-583.850	147.829	-0.184	0.249
-582.836	-200.000	-0.012	-0.054
-581.821	494.083	0.045	-0.104
-580.806	-115.663	-0.205	-0.039
-579.792	-141.634	0.053	0.005
-578.777	-200.000	-0.025	-0.419
-577.763	-200.000	-0.006	0.074
-576.748	-6.408	-0.466	0.318
-575.733	274.699	0.080	-0.142
-574.719	196.269	-0.179	-0.274
-573.704	800.000	0.041	-0.115
-572.690	-140.117	0.084	-0.009
-571.675	323.732	0.056	-0.108
-570.661	8.740	-0.123	-0.093
-569.646	5.592	0.119	-0.088
-568.631	-200.000	-0.052	-0.577
-567.617	800.000	0.045	-0.126
-566.602	-14.130	-0.322	0.208
-565.588	-134.278	0.076	0.009
-564.573	95.354	0.154	-0.176
-563.558	-200.000	-0.043	-0.242
-562.544	40.814	-0.149	0.135
-561.529	65.784	0.027	-0.027
-560.515	-3.280	-0.228	-0.159
-559.500	532.880	-0.095	0.225
-558.485	-128.150	-0.365	-0.052
-557.471	800.000	0.075	0.257
-556.456	-175.791	-0.221	0.006
-555.442	-130.598	-0.150	-0.020
-554.427	633.847	-0.092	-0.233
-553.412	33.392	0.148	-0.129
-552.398	-200.000	0.009	-0.217
-551.383	137.746	0.293	0.385
-550.369	-146.156	-0.178	0.016
-549.354	582.006	0.032	0.078
-548.339	-200.000	0.020	-0.243
-547.325	183.302	-0.179	0.264
-546.310	800.000	-0.090	-0.300
-545.296	140.030	0.028	0.037
-544.281	304.696	-0.114	-0.212
-543.266	66.717	-0.186	0.190
-542.252	144.446	-0.175	-0.234
-541.237	800.000	0.052	-0.152
-540.223	-147.302	0.232	0.020
-539.208	-170.768	-0.304	-0.010
-538.193	96.485	-0.088	0.101
-537.179	800.000	0.058	0.174
-536.164	397.766	-0.094	0.196
-535.150	141.681	0.168	0.223
-534.135	-200.000	0.019	-0.215
-533.121	-136.776	0.247	0.029
-532.106	-200.000	-0.009	-0.149
-531.091	30.247	-0.235	-0.201
-530.077	81.882	0.122	0.132
-529.062	-200.000	0.037	0.224
-528.048	800.000	0.096	-0.345
-527.033	-200.000	-0.012	-0.144
-526.018	269.504	-0.080	-0.141
-525.004	382.985	0.148	0.306
-523.989	-200.000	0.034	0.340
-522.975	-140.075	-0.320	0.034
-521.960	-63.171	-0.259	-0.107
-520.945	-39.526	0.223	0.117
-519.931	328.027	0.105	0.202
-518.916	47.382	-0.061	0.057
-517.902	229.239	0.037	-0.061
-516.887	-200.000	-0.009	0.054
-515.872	267.073	0.059	0.104
-514.858	-200.000	-0.015	-0.351
-513.843	84.601	0.075	0.083
-512.829	58.526	-0.185	-0.182
-511.814	-126.256	0.031	0.005
-510.799	-78.141	0.134	-0.046
-509.785	-160.063	-0.237	0.013
-508.770	-200.000	0.007	-0.156
-507.756	-200.000	-0.003	-0.129
-506.741	35.822	0.239	0.211
-505.726	281.275	0.153	-0.275
-504.712	73.057	-0.109	0.114
-503.697	800.000	-0.180	0.517
-502.683	-200.000	-0.105	-0.000
-501.668	-151.045	0.435	-0.033
-500.653	98.081	0.160	0.184
-499.639	46.088	0.121	0.112
-498.624	350.968	0.029	0.057
-497.610	-200.000	-0.004	-0.238
-496.595	-200.000	-0.016	0.141
-495.581	385.132	-0.061	0.126
-494.566	-166.592	-0.283	0.012
-493.551	280.258	0.056	0.100
-492.537	274.793	-0.101	0.179
-491.522	800.000	0.047	0.153
-490.508	-200.000	0.009	-0.053
-489.493	-76.424	-0.224	-0.079
-488.478	-133.788	0.210	0.026
-487.464	-15.354	-0.048	-0.031
-486.449	800.000	-0.124	-0.416
-485.435	24.584	-0.210	-0.173
-484.420	800.000	0.032	-0.118
-483.405	55.099	0.145	0.140
-482.391	-71.921	-0.382	0.142
-481.376	-199.453	-0.084	-0.000
-480.362	78.829	0.132	0.141
-479.347	-200.000	0.054	-0.272
-478.332	-8.551	-0.263	-0.176
-477.318	483.474	0.093	0.212
-476.303	306.713	-0.061	-0.114
-475.289	-200.000	-0.047	-0.213
-474.274	-109.933	0.089	0.019
-473.259	-200.000	0.052	-0.267
-472.245	-200.000	0.005	0.099
-471.230	-37.701	0.035	-0.019
-470.216	630.011	0.055	0.140
-469.201	800.000	0.034	-0.111
-468.186	141.830	-0.213	-0.282
-467.172	-17.974	0.025	-0.016
-466.157	-111.106	0.167	-0.034
-465.143	7.016	-0.281	-0.209
-464.128	800.000	0.080	-0.321
-463.113	-200.000	0.020	-0.152
-462.099	-119.951	0.190	-0.033
-461.084	-138.791	-0.125	0.014
-460.070	-200.000	-0.023	0.450
-459.055	-41.722	-0.234	-0.120
-458.040	276.634	-0.132	-0.235
-457.026	-200.000	-0.010	-0.089
-456.011	-200.000	0.012	0.158
-454.997	-200.000	-0.066	-0.335
-453.982	-125.005	-0.200	-0.031
-452.968	800.000	-0.053	-0.172
-451.953	-105.244	-0.126	0.029
-450.938	549.397	-0.042	-0.102
-449.924	-36.384	0.281	0.151
-448.909	-200.000	-0.012	-0.154
-447.895	800.000	-0.080	0.298
-446.880	5.750	0.041	-0.030
-445.865	35.060	0.110	-0.096
-444.851	-136.747	-0.119	0.014
-443.836	293.140	0.120	-0.218
-442.822	-46.489	0.098	-0.048
-441.807	-37.546	0.087	-0.046
-440.792	-94.486	-0.334	-0.091
-439.778	-200.000	-0.054	-0.260
-438.763	-200.000	0.019	0.142
-437.749	45.151	0.068	-0.063
-436.734	800.000	-0.058	0.251
-435.719	177.655	-0.260	-0.378
-434.705	-198.310	0.490	0.003
-433.690	-200.000	-0.007	-0.206
-432.676	153.802	0.086	-0.117
-431.661	-57.365	0.142	0.062
-430.646	-17.919	0.205	-0.128
-429.632	-200.000	-0.013	0.122
-428.617	635.181	-0.101	-0.256
-427.603	-77.289	0.166	-0.058
-426.588	85.310	0.145	-0.159
-425.573	-89.127	-0.288	0.085
-424.559	800.000	0.082	-0.233
-423.544	-52.801	0.160	0.073
-422.530	82.435	0.286	0.310
-421.515	104.915	0.101	0.119
-420.500	-55.345	0.442	-0.198
-419.486	278.343	0.048	-0.086
-418.471	207.350	0.084	0.130
-417.457	-141.312	0.293	0.030
-416.442	-123.086	-0.011	0.002
-415.428	351.611	-0.056	0.111
-414.413	-200.000	-0.015	0.436
-413.398	-200.000	-0.019	0.104
-412.384	-24.281	0.162	0.096
-411.369	1.094	-0.109	-0.078
-410.355	-122.916	-0.185	-0.030
-409.340	13.280	-0.182	0.141
-408.325	-200.000	0.037	0.276
-407.311	-200.000	-0.030	-0.346
-406.296	-200.000	0.013	0.151
-405.282	262.207	-0.095	0.164
-404.267	1.813	0.109	0.078
-403.252	-111.067	0.381	0.078
-402.238	-108.649	-0.370	-0.079
-401.223	152.579	0.034	-0.046
-400.209	-200.000	0.012	0.237
-399.194	181.371	-0.123	-0.180
-398.179	99.192	0.067	0.077
-397.165	-80.323	0.188	-0.063
-396.150	-200.000	-0.025	0.215
-395.136	-136.481	0.140	0.016
-394.121	-200.000	0.036	0.235
-393.106	-200.000	0.021	-0.201
-392.092	-110.401	-0.121	0.025
-391.077	82.838	-0.115	0.125
-390.063	310.448	-0.061	0.113
-389.048	-200.000	-0.008	-0.149
-388.033	-152.062	0.258	-0.019
-387.019	-29.027	-0.091	-0.052
-386.004	437.819	-0.118	-0.255
-384.990	24.117	-0.178	-0.147
-383.975	-200.000	0.071	-0.425
-382.960	-12.008	-0.217	-0.141
-381.946	-117.369	-0.334	-0.060
-380.931	157.468	-0.154	-0.212
-379.917	342.997	-0.075	-0.146
-378.902	153.777	0.076	-0.103
-377.888	281.370	0.164	-0.291
-376.873	-52.754	0.213	0.098
-375.858	-38.602	-0.167	0.088
-374.844	800.000	-0.067	-0.283
-373.829	118.993	0.098	-0.120
-372.815	-133.912	-0.074	-0.009
-371.800	778.805	-0.092	0.251
-370.785	37.713	-0.407	-0.359
-369.771	800.000	0.062	-0.203
-368.756	53.819	0.081	-0.077
-367.742	-146.585	-0.096	-0.008
-366.727	-130.606	0.054	-0.007
-365.712	-32.654	0.269	0.149
-364.698	-47.675	0.304	-0.147
-363.683	-55.147	0.321	0.144
-362.669	-200.000	-0.003	0.051
-361.654	-126.372	0.192	-0.028
-360.639	-200.000	-0.005	-0.267
-359.625	800.000	0.124	0.376
-358.610	-86.768	-0.208	-0.063
-357.596	80.031	0.168	0.180
-356.581	-21.418	-0.186	0.113
-355.566	163.997	0.282	0.395
-354.552	67.478	-0.024	-0.025
-353.537	117.833	0.090	0.110
-352.523	-9.913	0.164	0.108
-351.508	-200.000	0.001	-0.056
-350.493	20.686	0.082	-0.066
-349.479	138.691	-0.196	-0.256
-348.464	189.028	-0.329	0.490
-347.450	38.107	-0.174	0.154
-346.435	-136.741	-0.264	-0.030
-345.420	-59.403	0.143	-0.061
-344.406	212.077	0.045	-0.070
-343.391	800.000	0.125	0.375
-342.377	692.334	0.055	0.144
-341.362	62.104	-0.289	-0.286
-340.348	21.246	0.290	0.234
-339.333	230.228	-0.043	-0.070
-338.318	-41.042	0.103	-0.053
-337.304	-27.102	-0.141	0.082
-336.289	800.000	0.109	-0.327
-335.275	-166.303	0.188	-0.008
-334.260	-8.487	-0.237	0.158
-333.245	-200.000	0.039	0.217
-332.231	-200.000	0.057	0.286
-331.216	-35.168	-0.204	0.110
-330.202	-28.039	0.140	0.080
-329.187	-200.000	0.039	-0.232
-328.172	-200.000	-0.023	-0.118
-327.158	83.115	-0.241	-0.261
-326.143	-34.649	0.112	-0.061
-325.129	7.421	0.233	0.173
-324.114	-28.949	-0.067	0.038
-323.099	-17.476	0.152	0.095
-322.085	162.823	0.151	-0.211
-321.070	-128.958	0.121	0.017
-320.056	-114.642	0.211	-0.040
-319.041	-28.432	0.130	0.074
-318.026	800.000	-0.079	-0.220
-317.012	-152.176	0.280	0.020
-315.997	160.279	-0.091	0.126
-314.983	24.038	0.218	-0.178
-313.968	-30.963	-0.217	-0.122
-312.953	-63.359	-0.394	-0.161
-311.939	-179.295	0.292	0.006
-310.924	-200.000	-0.010	0.105
-309.910	-23.602	-0.328	0.195
-308.895	45.289	0.154	0.141
-307.880	-200.000	-0.043	-0.237
-306.866	31.691	-0.166	0.142
-305.851	-94.657	-0.248	0.067
-304.837	-124.702	0.103	0.016
-303.822	358.082	0.109	-0.215
-302.807	-39.285	0.211	0.110
-301.793	-200.000	-0.003	0.273
-300.778	-200.000	-0.029	0.452
-299.764	445.453	-0.165	-0.359
-298.749	-74.946	0.261	-0.093
-297.735	100.600	-0.154	-0.178
-296.720	165.611	-0.089	-0.125
-295.705	-200.000	-0.018	0.520
-294.691	-200.000	-0.016	0.392
-293.676	-200.000	-0.050	0.308
-292.662	-22.139	-0.297	0.179
-291.647	-200.000	-0.004	0.035
-290.632	-200.000	-0.060	-0.274
-289.618	-84.023	-0.074	-0.023
-288.603	6.817	-0.442	0.327
-287.589	-200.000	-0.023	0.154
-286.574	403.353	-0.150	-0.312
-285.559	175.513	-0.137	-0.197
-284.545	459.245	0.043	-0.094
-283.530	184.864	-0.150	0.220
-282.516	-30.690	0.224	0.125
-281.501	800.000	0.061	0.253
-280.486	162.396	0.214	0.298
-279.472	-200.000	-0.039	-0.282
-278.457	-98.617	0.175	-0.044
-277.443	65.225	0.329	-0.330
-276.428	-22.929	-0.220	-0.131
-275.413	800.000	-0.022	-0.063
-274.399	216.389	0.080	-0.126
-273.384	-88.158	0.260	-0.077
-272.370	465.950	0.134	-0.298
-271.355	-27.376	-0.203	-0.117
-270.340	-67.339	0.344	-0.134
-269.326	-200.000	0.049	0.339
-268.311	-88.783	0.529	-0.156
-267.297	-61.679	0.043	-0.018
-266.282	-200.000	0.020	0.162
-265.267	-61.205	0.138	0.058
-264.253	128.299	0.274	0.345
-263.238	491.273	-0.193	0.438
-262.224	-200.000	-0.042	0.319
-261.209	-96.479	0.133	-0.035
-260.195	800.000	-0.163	0.495
-259.180	-200.000	-0.027	-0.215
-258.165	-36.471	-0.378	-0.201
-257.151	25.571	0.201	0.166
-256.136	19.590	0.302	0.240
-255.122	255.938	0.023	-0.039
-254.107	-200.000	-0.084	-0.472
-253.092	-2.224	-0.080	-0.055
-252.078	-2.712	0.116	0.080
-251.063	339.656	0.143	-0.277
-250.049	-86.984	-0.060	-0.018
-249.034	702.568	0.157	-0.411
-248.019	-110.704	0.057	0.012
-247.005	-38.150	0.162	0.085
-245.990	194.039	-0.031	-0.046
-244.976	800.000	-0.050	0.150
-243.961	-200.000	0.025	-0.110
-242.946	72.101	0.168	0.173
-241.932	-119.208	-0.100	-0.017
-240.917	-55.485	0.263	0.116
-239.903	-12.489	-0.249	0.161
-238.888	-200.000	0.007	-0.155
-237.873	106.330	-0.188	-0.220
-236.859	70.071	0.135	0.138
-235.844	-200.000	-0.001	0.070
-234.830	-200.000	0.032	-0.355
-233.815	82.634	0.106	0.114
-232.800	396.466	0.169	0.349
-231.786	-150.021	0.256	0.020
-230.771	145.544	-0.204	-0.270
-229.757	-54.620	-0.064	0.029
-228.742	-83.609	-0.125	0.040
-227.727	188.696	-0.064	0.094
-226.713	-19.669	-0.209	0.128
-225.698	6.509	-0.084	0.062
-224.684	93.176	-0.078	0.087
-223.669	190.303	-0.201	0.299
-222.655	110.958	0.168	0.200
-221.640	227.527	-0.055	-0.089
-220.625	544.100	0.054	0.127
-219.611	-3.761	-0.290	0.199
-218.596	205.706	-0.104	-0.161
-217.582	-132.140	0.141	0.018
-216.567	743.728	-0.027	-0.072
-215.552	-65.154	-0.068	-0.027
-214.538	-0.760	-0.054	0.038
-213.523	-120.105	0.082	0.014
-212.509	29.586	0.269	0.227
-211.494	4.448	-0.186	0.135
-210.479	215.020	0.141	0.221
-209.465	-200.000	0.029	-0.271
-208.450	366.908	-0.023	-0.046
-207.436	800.000	0.066	0.226
-206.421	-98.451	-0.228	0.058
-205.406	129.677	-0.095	-0.121
-204.392	800.000	0.032	-0.115
-203.377	96.401	0.162	-0.184
-202.363	-122.602	-0.111	-0.018
-201.348	800.000	-0.041	0.123
-200.333	-122.744	0.333	0.053
-199.319	-43.922	0.188	0.093
-198.304	800.000	0.027	0.076
-197.290	268.428	-0.066	0.115
-196.275	-85.556	-0.122	0.038
-195.260	-21.162	0.194	-0.117
-194.246	463.308	-0.049	0.107
-193.231	65.738	-0.229	0.229
-192.217	34.591	0.083	0.072
-191.202	-200.000	0.017	0.189
-190.187	-200.000	-0.025	0.116
-189.173	-200.000	0.017	-0.188
-188.158	800.000	-0.041	0.165
-187.144	267.898	0.146	0.252
-186.129	-200.000	-0.004	0.023
-185.114	-84.704	0.187	0.058
-184.100	-200.000	0.005	-0.292
-183.085	800.000	0.094	0.279
-182.071	64.310	-0.158	0.157
-181.056	115.739	-0.059	-0.071
-180.042	412.227	0.021	0.044
-179.027	-138.863	-0.208	-0.022
-178.012	76.291	-0.062	0.065
-176.998	-90.930	-0.170	-0.048
-175.983	-121.680	0.351	-0.057
-174.969	-200.000	0.012	0.088
-173.954	-37.023	0.073	-0.039
-172.939	-71.267	0.478	0.177
-171.925	-200.000	0.074	0.371
-170.910	-200.000	0.064	0.363
-169.896	800.000	0.030	-0.100
-168.881	63.537	0.184	0.182
-167.866	800.000	0.032	-0.100
-166.852	163.022	0.141	-0.195
-165.837	484.825	-0.028	-0.064
-164.823	402.618	0.092	-0.191
-163.808	166.541	-0.071	0.099
-162.793	-99.739	0.174	-0.043
-161.779	-49.902	-0.331	0.155
-160.764	-44.499	0.202	0.100
-159.750	800.000	0.072	-0.215
-158.735	-15.213	-0.100	0.063
-157.720	249.690	-0.124	0.207
-156.706	-106.697	0.198	-0.043
-155.691	113.947	0.235	0.282
-154.677	-59.084	-0.211	-0.090
-153.662	800.000	0.089	-0.257
-152.647	-200.000	-0.033	-0.146
-151.633	-143.365	0.097	-0.009
-150.618	-200.000	0.013	0.061
-149.604	4.793	-0.170	-0.123
-148.589	335.886	-0.135	0.258
-147.574	-116.273	-0.218	0.040
-146.560	-37.048	-0.099	0.052
-145.545	35.974	-0.161	-0.140
-144.531	178.965	-0.150	0.217
-143.516	-67.486	0.137	0.053
-142.502	-153.132	-0.414	-0.029
-141.487	27.658	0.210	0.174
-140.472	-200.000	-0.001	0.143
-139.458	800.000	-0.087	0.298
-138.443	318.537	0.146	-0.272
-137.429	-152.794	-0.116	-0.008
-136.414	-44.420	-0.207	0.102
-135.399	800.000	0.106	-0.315
-134.385	29.305	-0.197	0.165
-133.370	70.811	-0.116	0.119
-132.356	-18.992	0.060	0.037
-131.341	34.997	0.195	0.169
-130.326	800.000	-0.077	-0.221
-129.312	24.167	0.303	-0.246
-128.297	250.980	0.284	-0.477
-127.283	-25.238	0.154	-0.090
-126.268	297.614	0.172	0.311
-125.253	-44.244	0.189	0.093
-124.239	77.200	0.183	0.191
-123.224	154.299	0.246	0.332
-122.210	-51.801	-0.242	-0.111
-121.195	110.507	0.219	0.260
-120.180	259.683	0.178	0.303
-119.166	-49.490	0.136	0.064
-118.151	-38.584	0.371	0.193
-117.137	-136.477	-0.156	0.018
-116.122	-147.882	0.206	-0.017
-115.107	-22.581	0.248	-0.148
-114.093	-200.000	0.003	-0.122
-113.078	-34.571	0.106	0.057
-112.064	126.334	-0.123	-0.154
-111.049	-155.816	0.098	-0.006
-110.034	-114.413	0.324	-0.061
-109.020	168.423	0.059	0.083
-108.005	281.377	0.215	-0.379
-106.991	12.336	0.252	0.191
-105.976	800.000	-0.078	0.238
-104.962	-119.420	0.092	0.016
-103.947	-154.317	-0.105	-0.007
-102.932	-15.558	0.040	-0.025
-101.918	-49.907	0.386	0.180
-100.903	-73.441	-0.094	-0.034
-99.889	-120.047	0.107	-0.018
-98.874	800.000	-0.101	0.381
-97.859	133.236	-0.166	0.211
-96.845	-200.000	0.117	0.552
-95.830	10.661	0.133	0.100
-94.816	-5.566	-0.233	0.157
-93.801	-78.742	0.203	0.068
-92.786	800.000	-0.083	-0.248
-91.772	288.571	0.129	-0.230
-90.757	648.357	-0.043	0.109
-89.743	-56.997	0.157	0.068
-88.728	569.479	0.057	-0.137
-87.713	164.073	-0.068	-0.095
-86.699	-90.674	0.165	-0.047
-85.684	452.593	-0.048	0.105
-84.670	-88.164	0.255	0.075
-83.655	40.861	0.223	-0.198
-82.640	49.065	0.199	-0.184
-81.626	-12.149	0.186	-0.120
-80.611	800.000	0.025	-0.090
-79.597	242.935	-0.208	0.343
-78.582	-35.660	0.179	-0.095
-77.567	420.423	-0.085	-0.179
-76.553	-32.546	-0.108	-0.059
-75.538	-124.319	0.319	0.049
-74.524	593.780	-0.142	0.346
-73.509	800.000	0.044	-0.187
-72.494	172.381	0.142	0.201
-71.480	-2.452	-0.143	0.098
-70.465	-27.787	0.060	-0.034
-69.451	800.000	-0.114	-0.347
-68.436	238.058	0.111	-0.182
-67.422	-27.019	-0.251	0.144
-66.407	-37.788	0.131	0.069
-65.392	28.951	-0.153	0.128
-64.378	-64.104	-0.356	-0.143
-63.363	-200.000	0.080	-0.538
-62.349	36.842	-0.110	-0.096
-61.334	203.611	-0.634	-0.965
-60.319	33.911	0.454	0.388
-59.305	800.000	-0.420	-1.233
-58.290	747.798	0.336	0.889
-57.276	800.000	0.556	1.675
-56.261	-200.000	96.271	594.494
-55.246	568.344	1372.838	3277.757
-54.232	160.354	2559.088	3507.519
-53.217	106.492	2270.527	2645.414
-52.203	41.542	1896.986	1687.545
-51.188	35.340	1686.893	1453.760
-50.173	32.699	1643.039	1396.383
-49.159	50.163	1689.012	1566.869
-48.144	51.716	1705.580	1593.825
-47.130	34.983	1666.420	1433.219
-46.115	32.325	1651.485	1400.554
-45.100	32.038	1646.936	1394.509
-44.086	32.050	1644.474	1392.455
-43.071	32.053	1641.540	1389.937
-42.057	32.015	1639.397	1387.787
-41.042	32.037	1637.590	1386.369
-40.027	32.054	1635.495	1384.662
-39.013	31.978	1633.507	1382.366
-37.998	32.076	1631.532	1381.359
-36.984	32.010	1630.684	1380.098
-35.969	32.085	1629.443	1379.548
-34.954	32.126	1627.616	1378.244
-33.940	32.067	1625.935	1376.338
-32.925	32.106	1624.242	1375.136
-31.911	32.092	1622.456	1373.464
-30.896	32.085	1620.423	1371.638
-29.881	32.013	1619.215	1370.037
-28.867	32.141	1617.060	1369.091
-27.852	32.053	1615.765	1367.298
-26.838	32.141	1613.773	1366.199
-25.823	32.053	1612.977	1364.828
-24.809	32.178	1610.994	1364.005
-23.794	32.202	1610.071	1363.345
-22.779	32.197	1608.335	1361.787
-21.765	32.154	1607.287	1360.534
-20.750	32.122	1605.237	1358.512
-19.736	32.131	1603.935	1357.421
-18.721	32.169	1602.744	1356.637
-17.706	32.173	1601.211	1355.309
-16.692	32.133	1599.794	1353.768
-15.677	32.110	1598.293	1352.281
-14.663	32.255	1597.146	1352.297
-13.648	32.196	1595.611	1350.520
-12.633	32.177	1593.865	1348.853
-11.619	32.161	1592.531	1347.561
-10.604	32.228	1590.979	1346.671
-9.590	32.228	1590.003	1345.794
-8.575	32.187	1588.237	1343.953
-7.560	32.182	1587.612	1343.328
-6.546	32.210	1585.820	1341.963
-5.531	32.090	1585.395	1340.693
-4.517	32.146	1583.572	1339.499
-3.502	32.174	1582.410	1338.663
-2.487	32.152	1581.104	1337.344
-1.473	31.961	1568.974	1325.683
-0.458	29.367	1550.551	1291.925
0.556	25.788	1551.246	1261.613
1.571	23.568	1574.595	1264.689
2.586	23.155	1588.087	1272.436
3.600	20.177	1534.099	1208.354
4.615	10.858	1422.058	1059.530
5.629	2.917	1357.594	961.835
6.644	1.729	1349.484	948.606
7.659	1.580	1348.077	946.605
8.673	1.496	1346.948	945.203
9.688	1.425	1345.072	943.368
10.702	1.248	1342.022	940.049
11.717	4.620	1348.958	965.794
12.731	14.702	1368.122	1042.663
13.746	23.426	1382.362	1108.220
14.761	25.884	1385.794	1126.255
15.775	26.212	1385.982	1128.360
16.790	26.289	1385.749	1128.553
17.804	26.321	1385.206	1128.207
18.819	26.465	1385.263	1129.052
19.834	26.670	1384.283	1129.436
20.848	26.639	1383.837	1128.776
21.863	26.655	1382.715	1127.859
22.877	26.696	1381.796	1127.265
23.892	26.681	1380.761	1126.233
24.907	26.625	1380.154	1125.289
25.921	26.692	1378.692	1124.409
26.936	26.765	1378.027	1124.225
27.950	26.638	1377.277	1122.721
28.965	26.655	1376.081	1121.753
29.980	26.728	1374.457	1120.782
30.994	26.708	1373.150	1119.497
32.009	26.696	1372.147	1118.505
33.023	26.733	1371.005	1117.704
34.038	26.763	1369.953	1116.930
35.053	26.721	1369.001	1115.797
36.067	26.642	1368.028	1114.420
37.082	26.745	1367.298	1114.359
38.096	26.768	1366.071	1113.403
39.111	26.665	1365.710	1112.374
40.126	26.694	1365.206	1112.043
41.140	26.619	1364.540	1110.944
42.155	26.542	1364.515	1110.352
43.169	26.684	1364.039	1110.737
44.184	26.613	1363.954	1110.137
45.199	26.575	1363.631	1109.543
46.213	26.655	1362.479	1108.994
47.228	26.636	1361.872	1108.288
48.242	26.652	1360.756	1107.378
49.257	26.636	1359.205	1105.924
50.271	26.656	1357.893	1104.875
51.286	26.692	1356.439	1103.817
52.301	26.695	1355.393	1102.889
53.315	26.642	1354.741	1101.935
54.330	26.601	1353.684	1100.731
55.344	26.695	1352.495	1100.235
56.359	26.637	1351.490	1098.967
57.374	26.589	1350.990	1098.173
58.388	26.706	1349.846	1097.856
59.403	26.714	1349.665	1097.657
60.417	26.626	1349.058	1096.534
61.432	26.583	1348.543	1095.758
62.447	26.682	1347.440	1095.367
63.461	26.683	1346.284	1094.337
64.476	26.680	1345.278	1093.404
65.490	26.674	1344.413	1092.568
66.505	26.731	1342.496	1091.257
67.520	26.701	1341.460	1090.134
68.534	26.749	1340.387	1089.454
69.549	26.723	1339.382	1088.386
70.563	26.826	1338.218	1087.960
71.578	26.656	1337.878	1086.572
72.593	26.748	1337.122	1086.410
73.607	26.689	1336.178	1085.193
74.622	26.626	1335.791	1084.407
75.636	26.653	1334.926	1083.772
76.651	26.693	1334.350	1083.447
77.666	26.555	1334.237	1082.432
78.680	26.618	1333.394	1082.031
79.695	26.725	1332.243	1081.639
80.709	26.692	1331.921	1081.083
81.724	26.688	1330.767	1080.028
82.739	26.722	1329.832	1079.377
83.753	26.682	1328.968	1078.342
84.768	26.699	1327.499	1077.158
85.782	26.748	1326.396	1076.455
86.797	26.682	1325.628	1075.344
87.812	26.682	1324.534	1074.364
88.826	26.730	1323.744	1073.911
89.841	26.739	1322.483	1072.850
90.855	26.691	1321.288	1071.497
91.870	26.691	1320.774	1070.987
92.884	26.772	1319.698	1070.501
93.899	26.724	1319.524	1069.981
94.914	26.772	1318.092	1069.007
95.928	26.753	1317.754	1068.526
96.943	26.847	1316.479	1067.952
97.957	26.810	1316.231	1067.441
98.972	26.736	1315.285	1066.144
99.987	26.745	1314.494	1065.460
101.001	26.730	1313.703	1064.633
102.016	26.697	1312.580	1063.438
103.030	26.700	1312.065	1062.943
104.045	26.757	1310.996	1062.316
105.060	26.781	1309.978	1061.539
106.074	26.790	1308.830	1060.567
107.089	27.004	1307.697	1060.805
108.103	26.871	1306.851	1059.247
109.118	26.816	1305.584	1057.808
110.133	26.827	1304.566	1056.950
111.147	26.786	1303.631	1055.866
112.162	26.820	1302.602	1055.136
113.176	26.871	1301.727	1054.628
114.191	26.823	1300.787	1053.498
115.206	26.859	1299.919	1052.906
116.220	26.793	1298.615	1051.378
117.235	26.794	1298.018	1050.804
118.249	26.776	1297.421	1050.126
119.264	26.758	1296.423	1049.119
120.279	26.743	1295.494	1048.188
121.293	26.994	1294.326	1048.602
122.308	26.946	1293.710	1047.734
123.322	26.961	1292.937	1047.099
124.337	26.858	1292.042	1045.688
125.352	26.843	1291.734	1045.257
126.366	26.831	1290.539	1044.133
127.381	26.925	1289.439	1043.693
128.395	26.967	1288.804	1043.328
129.410	26.850	1287.867	1041.803
130.424	26.866	1287.441	1041.459
131.439	26.933	1286.275	1040.808
132.454	26.887	1285.643	1039.938
133.468	26.863	1285.195	1039.349
134.483	26.858	1284.759	1038.875
135.497	26.941	1283.350	1038.117
136.512	26.905	1282.545	1037.169
137.527	26.877	1281.615	1036.163
138.541	26.877	1280.238	1034.958
139.556	26.763	1279.192	1033.375
140.570	26.803	1278.527	1032.975
141.585	26.867	1277.102	1032.094
142.600	26.725	1276.501	1030.710
143.614	26.950	1275.113	1030.774
144.629	26.777	1274.395	1029.119
145.643	26.643	1273.593	1027.621
146.658	26.811	1272.345	1027.479
147.673	26.831	1271.207	1026.580
148.687	26.778	1270.581	1025.683
149.702	26.730	1269.490	1024.440
150.716	26.782	1268.186	1023.593
151.731	26.785	1267.016	1022.573
152.746	26.899	1266.032	1022.331
153.760	26.863	1265.192	1021.362
154.775	26.854	1264.357	1020.542
155.789	26.920	1263.145	1019.848
156.804	26.885	1262.628	1019.141
157.819	26.888	1261.583	1018.226
158.833	26.871	1260.858	1017.455
159.848	26.934	1260.100	1017.108
160.862	26.986	1259.451	1016.784
161.877	26.893	1258.760	1015.616
162.892	26.968	1257.925	1015.270
163.906	26.938	1257.642	1014.785
164.921	26.908	1256.720	1013.785
165.935	26.929	1255.864	1013.121
166.950	27.022	1255.271	1013.074
167.964	26.984	1254.657	1012.274
168.979	26.998	1254.372	1012.032
169.994	26.898	1253.699	1010.846
171.008	26.981	1252.867	1010.546
172.023	26.961	1252.047	1009.685
173.037	27.002	1251.200	1009.140
174.052	26.953	1250.143	1007.924
175.067	26.976	1249.843	1007.724
176.081	27.052	1249.009	1007.381
177.096	26.993	1247.980	1006.139
178.110	26.998	1247.561	1005.739
179.125	27.037	1246.470	1004.987
180.140	27.084	1245.442	1004.329
181.154	27.011	1243.824	1002.529
182.169	27.018	1242.948	1001.776
183.183	27.023	1241.927	1000.889
184.198	27.008	1241.007	999.978
185.213	27.024	1240.539	999.599
186.227	26.999	1239.932	998.886
187.242	27.021	1238.739	997.959
188.256	27.164	1237.489	997.644
189.271	26.999	1237.212	996.429
190.286	26.947	1236.620	995.578
191.300	27.013	1235.537	994.979
192.315	27.008	1235.203	994.596
193.329	27.129	1234.828	994.866
194.344	27.162	1234.156	994.420
195.359	27.137	1233.645	993.783
196.373	27.079	1233.349	993.141
197.388	27.078	1232.889	992.677
198.402	26.991	1232.806	992.047
199.417	27.036	1232.211	991.724
200.432	27.038	1231.740	991.269
201.446	27.004	1231.065	990.452
202.461	26.950	1230.446	989.575
203.475	26.969	1229.796	989.067
204.490	27.047	1228.469	988.335
205.504	27.066	1227.559	987.620
206.519	27.240	1226.394	987.540
207.534	27.096	1225.706	986.115
208.548	27.006	1225.203	985.135
209.563	27.111	1224.252	984.856
210.577	27.068	1223.705	984.095
211.592	27.163	1222.253	983.353
212.607	27.227	1221.826	983.266
213.621	27.158	1220.841	982.014
214.636	27.170	1220.311	981.569
215.650	27.143	1219.105	980.366
216.665	27.195	1218.496	980.069
217.680	27.294	1217.619	979.809
218.694	27.231	1216.687	978.634
219.709	27.153	1216.485	977.964
220.723	27.260	1215.422	977.602
221.738	27.116	1214.961	976.370
222.753	27.265	1213.526	975.929
223.767	27.205	1212.878	974.999
224.782	27.293	1212.759	975.290
225.796	27.325	1212.439	975.119
226.811	27.340	1211.714	974.530
227.826	27.352	1211.051	973.971
228.840	27.335	1210.509	973.358
229.855	27.323	1209.864	972.689
230.869	27.345	1209.296	972.265
231.884	27.340	1208.501	971.513
232.899	27.157	1208.028	970.069
233.913	27.328	1207.160	970.200
234.928	27.434	1207.034	970.576
235.942	27.366	1206.501	969.701
236.957	27.450	1205.094	968.932
237.972	27.353	1204.563	967.903
238.986	27.419	1203.816	967.568
240.001	27.464	1203.573	967.523
241.015	27.458	1202.721	966.723
242.030	27.370	1202.258	965.797
243.045	27.435	1201.130	965.153
244.059	27.488	1200.319	964.696
245.074	27.512	1199.260	963.884
246.088	27.503	1198.505	963.146
247.103	27.460	1198.118	962.525
248.117	27.541	1197.287	962.199
249.132	27.504	1196.561	961.332
250.147	27.498	1195.948	960.725
251.161	27.528	1195.364	960.327
252.176	27.459	1195.079	959.651
253.190	27.543	1194.060	959.192
254.205	27.633	1193.379	959.032
255.220	27.598	1192.416	957.988
256.234	27.533	1192.316	957.480
257.249	27.549	1191.707	956.994
258.263	27.625	1190.701	956.500
259.278	27.701	1189.907	956.176
260.293	27.687	1189.716	955.861
261.307	27.691	1189.028	955.249
262.322	27.550	1188.757	954.207
263.336	27.586	1187.683	953.447
264.351	27.596	1187.588	953.341
265.366	27.503	1186.983	952.281
266.380	27.567	1186.580	952.208
267.395	27.566	1185.838	951.526
268.409	27.536	1185.030	950.636
269.424	27.656	1184.462	950.721
270.439	27.619	1183.857	949.961
271.453	27.590	1183.498	949.436
272.468	27.516	1182.112	947.858
273.482	27.680	1181.107	947.821
274.497	27.671	1181.188	947.752
275.512	27.748	1180.533	947.542
276.526	27.758	1179.657	946.806
277.541	27.706	1179.200	946.089
278.555	27.717	1178.660	945.627
279.570	27.685	1178.109	944.937
280.585	27.734	1177.177	944.360
281.599	27.812	1176.099	943.816
282.614	27.675	1175.678	942.685
283.628	27.850	1174.405	942.481
284.643	27.786	1174.030	941.770
285.657	27.778	1172.871	940.715
286.672	27.978	1171.726	940.743
287.687	27.817	1171.016	939.263
288.701	27.920	1170.910	939.625
289.716	27.873	1170.070	938.623
290.730	27.870	1169.426	938.007
291.745	27.785	1168.899	937.068
292.760	27.801	1168.271	936.561
293.774	27.924	1167.784	936.718
294.789	27.852	1167.424	935.978
295.803	27.946	1166.550	935.677
296.818	27.858	1166.056	934.750
297.833	27.982	1165.057	934.497
298.847	27.988	1164.388	933.910
299.862	27.888	1164.184	933.155
300.876	27.922	1163.214	932.467
301.891	27.899	1162.779	931.915
302.906	28.011	1161.920	931.716
303.920	27.995	1161.717	931.392
304.935	27.966	1160.615	930.278
305.949	28.014	1159.958	929.912
306.964	27.998	1159.662	929.510
307.979	28.034	1159.074	929.144
308.993	27.997	1158.330	928.277
310.008	28.027	1157.592	927.751
311.022	28.058	1156.784	927.182
312.037	28.224	1155.641	927.022
313.052	28.078	1155.277	925.909
314.066	28.151	1154.134	925.281
315.081	28.091	1153.593	924.464
316.095	27.967	1153.262	923.487
317.110	28.076	1152.630	923.449
318.125	28.047	1151.869	922.614
319.139	28.116	1151.306	922.430
320.154	28.105	1150.718	921.823
321.168	28.134	1150.156	921.433
322.183	28.037	1149.738	920.529
323.197	28.048	1149.214	920.084
324.212	28.140	1148.558	919.940
325.227	28.037	1148.052	918.936
326.241	28.189	1147.235	918.966
327.256	28.227	1146.229	918.267
328.270	28.176	1146.054	917.789
329.285	28.145	1145.080	916.773
330.300	28.246	1144.282	916.561
331.314	28.147	1143.324	915.215
332.329	28.242	1142.816	915.204
333.343	28.204	1141.575	913.937
334.358	28.356	1141.120	914.253
335.373	28.261	1140.729	913.383
336.387	28.327	1139.958	913.015
337.402	28.383	1139.303	912.691
338.416	28.344	1138.535	911.801
339.431	28.368	1138.115	911.502
340.446	28.416	1137.325	911.029
341.460	28.448	1136.533	910.471
342.475	28.598	1135.585	910.376
343.489	28.478	1134.878	909.133
344.504	28.358	1134.202	907.916
345.519	28.414	1133.275	907.369
346.533	28.311	1132.753	906.365
347.548	28.476	1131.873	906.396
348.562	28.563	1131.236	906.232
349.577	28.451	1130.570	905.064
350.592	28.326	1130.094	903.989
351.606	28.384	1128.816	903.173
352.621	28.378	1128.895	903.127
353.635	28.459	1128.308	902.976
354.650	28.563	1127.241	902.554
355.665	28.507	1126.684	901.752
356.679	28.705	1126.064	902.147
357.694	28.620	1125.263	901.011
358.708	28.505	1124.876	900.058
359.723	28.609	1124.126	899.887
360.738	28.442	1123.563	898.539
361.752	28.561	1123.035	898.619
362.767	28.536	1122.698	898.148
363.781	28.644	1121.912	897.968
364.796	28.681	1120.973	897.317
365.810	28.545	1121.213	896.766
366.825	28.630	1120.117	896.223
367.840	28.756	1119.623	896.366
368.854	28.793	1119.205	896.132
369.869	28.639	1118.855	895.022
370.883	28.698	1117.719	894.320
371.898	28.759	1117.010	893.973
372.913	28.795	1116.384	893.565
373.927	28.790	1115.840	893.026
374.942	28.635	1115.643	892.035
375.956	28.841	1114.818	892.297
376.971	28.809	1114.387	891.718
377.986	28.929	1113.564	891.564
379.000	28.866	1113.504	891.130
380.015	28.887	1112.897	890.668
381.029	28.827	1112.324	889.840
382.044	28.857	1111.605	889.331
383.059	28.782	1111.383	888.712
384.073	28.915	1110.151	888.290
385.088	28.871	1109.187	887.230
386.102	28.971	1108.473	887.063
387.117	28.743	1107.675	885.244
388.132	28.742	1107.081	884.687
389.146	28.933	1106.113	884.754
390.161	28.846	1105.805	884.011
391.175	28.877	1105.198	883.599
392.190	28.937	1104.442	883.201
393.205	29.036	1103.655	882.970
394.219	28.989	1102.598	881.821
395.234	29.006	1102.355	881.632
396.248	29.086	1101.222	881.031
397.263	28.989	1101.033	880.335
398.278	29.081	1100.292	880.103
399.292	29.129	1099.055	879.269
400.307	29.145	1098.729	879.007
401.321	29.130	1098.246	878.471
402.336	29.032	1097.716	877.503
403.350	29.060	1097.034	877.014
404.365	29.155	1095.987	876.547
405.380	29.122	1095.598	876.005
406.394	29.184	1094.725	875.523
407.409	29.233	1094.410	875.425
408.423	29.217	1093.270	874.359
409.438	29.257	1092.652	873.981
410.453	29.225	1092.094	873.304
411.467	29.185	1091.366	872.455
412.482	29.349	1090.408	872.386
413.496	29.275	1089.940	871.585
414.511	29.237	1089.438	870.929
415.526	29.275	1089.377	870.979
416.540	29.363	1088.837	870.887
417.555	29.280	1088.330	870.015
418.569	29.356	1087.699	869.790
419.584	29.407	1087.339	869.669
420.599	29.319	1087.035	868.932
421.613	103.421	1322.247	1459.554
422.628	96.295	1356.497	1459.653
