DTS Sentinel unit serial number:	SN413079Multiplexer serial number:	ORYXHardware model number:	OX4-SRSoftware version number:	ORYX F/W v4.00 Oryx Data Collector v3.7.2.0data status	okinstallation	princeton_trtdifferential loss correction	single-endedforward channel	channel 2reverse channel	N/Adate	2019/09/18time	15:59:34forward acquisition time	60.00reverse acquisition time	0.00gamma	496.2192k internal	0.2307k external	0.2307temperature offset calibration	1.0008default loss term (dB/km)	0.3790temperature slope calibration	1.0000multiplexer offset coefficient	1.0000multiplexer slope coefficient	1.0000fibre end	0.00T internal ref (°C)	37.23T ext. ref 1 (°C)	0.81T ext. ref 2 (°C)	36.71length (m)	temperature (°C)	Stokes	anti-Stokes-747.200	9.393	0.198	-0.152
-746.185	47.501	0.131	-0.124
-745.171	-200.000	0.034	0.179
-744.156	120.266	0.223	0.282
-743.142	800.000	-0.098	0.406
-742.127	800.000	-0.063	0.187
-741.112	-75.506	-0.154	0.056
-740.098	800.000	-0.059	0.188
-739.083	-114.944	-0.136	0.026
-738.069	-58.535	-0.122	-0.054
-737.054	-174.831	0.263	-0.008
-736.039	-105.912	-0.348	-0.080
-735.025	314.864	-0.009	0.017
-734.010	571.973	0.053	-0.131
-732.996	32.957	-0.156	0.137
-731.981	-73.431	0.119	-0.044
-730.966	-191.935	-0.268	-0.003
-729.952	-61.804	-0.265	-0.113
-728.937	3.020	-0.078	0.058
-727.923	-134.337	-0.286	0.036
-726.908	-138.063	-0.143	-0.016
-725.894	-38.650	0.091	0.049
-724.879	-40.276	-0.122	-0.064
-723.864	-97.717	0.054	-0.014
-722.850	-127.466	0.055	-0.008
-721.835	-164.416	-0.209	0.010
-720.821	-109.809	-0.160	0.034
-719.806	205.880	0.242	-0.382
-718.791	334.921	0.083	-0.164
-717.777	800.000	-0.034	0.126
-716.762	-90.800	-0.330	0.097
-715.748	-84.428	-0.321	-0.103
-714.733	-200.000	-0.004	-0.053
-713.718	-200.000	-0.029	0.139
-712.704	-35.924	-0.200	-0.110
-711.689	-146.180	0.290	0.026
-710.675	800.000	0.018	0.076
-709.660	-14.725	0.339	-0.221
-708.645	-200.000	0.190	0.000
-707.631	-148.754	0.201	-0.017
-706.616	-200.000	0.009	0.053
-705.602	800.000	0.029	0.130
-704.587	-27.722	-0.109	0.064
-703.572	-147.766	0.190	-0.016
-702.558	-58.466	0.089	0.039
-701.543	-123.996	-0.115	-0.018
-700.529	230.105	-0.141	-0.234
-699.514	-81.074	0.146	-0.049
-698.499	136.972	-0.107	-0.142
-697.485	-110.386	-0.248	-0.052
-696.470	-104.728	-0.394	0.092
-695.456	-165.732	-0.351	-0.015
-694.441	-101.081	-0.344	-0.086
-693.426	-200.000	0.031	0.310
-692.412	-140.829	-0.471	0.049
-691.397	-11.921	-0.179	-0.119
-690.383	77.695	-0.106	0.114
-689.368	130.004	-0.195	-0.253
-688.354	-40.065	-0.230	0.122
-687.339	-43.277	-0.156	0.080
-686.324	76.029	-0.090	0.097
-685.310	-13.097	-0.064	0.042
-684.295	50.515	-0.137	0.132
-683.281	-200.000	0.016	0.492
-682.266	450.858	-0.034	-0.077
-681.251	89.203	0.066	0.075
-680.237	280.601	0.103	0.186
-679.222	-53.965	-0.082	0.038
-678.208	50.588	0.112	-0.108
-677.193	-49.663	0.280	-0.135
-676.178	-52.278	-0.054	-0.025
-675.164	800.000	0.156	-0.446
-674.149	-123.492	-0.282	0.045
-673.135	-175.080	-0.171	0.005
-672.120	-116.828	0.422	0.078
-671.105	165.450	-0.043	0.061
-670.091	-83.836	0.120	-0.039
-669.076	107.419	-0.116	0.140
-668.062	-47.925	-0.026	0.013
-667.047	70.848	-0.121	0.127
-666.032	-200.000	-0.001	0.179
-665.018	-200.000	-0.050	0.238
-664.003	-200.000	0.056	0.327
-662.989	195.191	0.145	0.223
-661.974	-200.000	-0.036	-0.172
-660.959	-70.744	0.257	-0.098
-659.945	800.000	-0.070	-0.241
-658.930	385.988	-0.063	-0.132
-657.916	-200.000	0.014	0.274
-656.901	65.203	-0.180	0.184
-655.886	1.470	-0.231	-0.169
-654.872	603.941	-0.042	-0.107
-653.857	32.731	-0.179	-0.157
-652.843	20.142	0.183	-0.149
-651.828	-52.064	0.236	-0.111
-650.814	-34.548	0.052	0.029
-649.799	341.428	-0.181	-0.358
-648.784	30.160	0.091	-0.078
-647.770	-104.811	-0.087	-0.020
-646.755	71.563	-0.101	0.107
-645.741	75.316	-0.048	-0.051
-644.726	-200.000	-0.017	0.303
-643.711	-139.227	-0.094	-0.010
-642.697	39.918	-0.174	-0.158
-641.682	-86.547	-0.186	-0.058
-640.668	-159.474	-0.430	-0.024
-639.653	257.203	-0.160	0.278
-638.638	126.307	-0.211	0.271
-637.624	-179.884	0.316	0.007
-636.609	6.140	0.135	-0.102
-635.595	20.963	-0.247	-0.203
-634.580	46.662	0.290	0.272
-633.565	-110.254	-0.262	0.055
-632.551	-128.991	-0.180	0.026
-631.536	-200.000	-0.015	-0.257
-630.522	3.185	0.254	0.187
-629.507	-92.667	0.106	-0.030
-628.492	800.000	0.126	-0.412
-627.478	-200.000	-0.009	0.157
-626.463	-200.000	0.004	-0.070
-625.449	-86.187	-0.184	-0.057
-624.434	-98.517	-0.385	-0.100
-623.419	-61.812	-0.151	-0.064
-622.405	-200.000	-0.022	0.150
-621.390	-200.000	0.008	-0.170
-620.376	-191.827	-0.143	-0.001
-619.361	51.799	-0.211	-0.204
-618.346	-84.297	-0.168	-0.054
-617.332	75.160	-0.032	0.034
-616.317	146.651	0.112	0.152
-615.303	2.156	0.054	0.039
-614.288	-148.950	0.121	0.010
-613.273	-100.539	-0.185	-0.046
-612.259	34.876	0.191	-0.169
-611.244	70.153	-0.267	-0.279
-610.230	317.884	0.093	-0.179
-609.215	-63.874	-0.040	-0.017
-608.201	107.392	0.132	0.158
-607.186	-143.221	-0.137	-0.013
-606.171	94.575	0.051	0.058
-605.157	800.000	0.011	0.035
-604.142	800.000	0.103	-0.374
-603.128	-45.723	0.054	0.027
-602.113	-200.000	0.049	0.254
-601.098	-119.106	0.148	0.026
-600.084	310.673	0.033	-0.063
-599.069	-47.758	-0.158	-0.077
-598.055	-169.324	-0.317	0.012
-597.040	-105.864	0.203	-0.046
-596.025	-200.000	-0.076	-0.411
-595.011	86.857	0.160	-0.179
-593.996	-72.225	0.102	-0.038
-592.982	800.000	-0.096	0.318
-591.967	81.928	-0.084	-0.092
-590.952	-97.045	0.180	-0.048
-589.938	-127.308	-0.214	-0.032
-588.923	-200.000	0.009	-0.127
-587.909	-200.000	-0.086	-0.515
-586.894	614.790	-0.133	0.337
-585.879	-120.524	-0.250	-0.043
-584.865	-200.000	-0.004	-0.399
-583.850	800.000	-0.016	-0.070
-582.836	-2.053	0.312	0.221
-581.821	-200.000	0.018	-0.214
-580.806	15.739	0.167	-0.132
-579.792	14.222	-0.054	0.042
-578.777	-187.187	0.325	0.004
-577.763	68.183	0.237	0.246
-576.748	-35.023	-0.035	0.019
-575.733	132.448	-0.254	-0.331
-574.719	-36.074	-0.324	0.177
-573.704	15.935	-0.044	0.035
-572.690	-81.836	0.036	-0.012
-571.675	800.000	-0.082	-0.297
-570.661	-12.368	0.174	0.115
-569.646	-64.011	0.155	0.064
-568.631	-79.936	-0.232	-0.079
-567.617	800.000	0.070	-0.243
-566.602	-121.494	-0.156	-0.026
-565.588	-200.000	-0.039	-0.398
-564.573	-72.686	-0.038	0.014
-563.558	635.052	-0.030	0.077
-562.544	141.243	0.079	-0.105
-561.529	-200.000	0.011	0.285
-560.515	-200.000	-0.008	0.223
-559.500	724.090	0.037	0.101
-558.485	-133.885	0.154	-0.019
-557.471	76.538	-0.190	-0.203
-556.456	-17.889	0.220	-0.139
-555.442	11.169	-0.184	-0.142
-554.427	-200.000	-0.006	-0.222
-553.412	-200.000	0.373	0.001
-552.398	396.645	0.091	-0.191
-551.383	-99.998	0.043	-0.011
-550.369	-161.171	0.205	-0.011
-549.354	-10.303	0.253	-0.170
-548.339	168.770	0.020	-0.028
-547.325	-142.445	-0.031	0.003
-546.310	800.000	-0.054	0.152
-545.296	-88.405	-0.483	0.145
-544.281	-200.000	-0.013	0.079
-543.266	93.307	-0.029	0.033
-542.252	-35.326	-0.175	0.096
-541.237	-23.742	0.326	0.197
-540.223	81.918	0.194	-0.212
-539.208	-141.733	-0.477	0.048
-538.193	-62.939	0.272	-0.113
-537.179	-69.510	0.209	0.081
-536.164	81.791	0.069	0.075
-535.150	-134.251	-0.113	0.014
-534.135	28.711	-0.290	-0.248
-533.121	-200.000	-0.047	-0.235
-532.106	44.793	-0.214	-0.198
-531.091	-200.000	0.020	0.098
-530.077	162.945	-0.207	-0.293
-529.062	-29.642	0.283	0.163
-528.048	-117.752	-0.137	-0.025
-527.033	-200.000	0.007	-0.120
-526.018	-118.086	0.092	0.016
-525.004	599.286	-0.133	-0.332
-523.989	317.120	0.064	0.122
-522.975	174.893	0.116	-0.169
-521.960	-25.004	-0.250	0.149
-520.945	-0.773	-0.082	-0.059
-519.931	-51.587	-0.160	-0.075
-518.916	-14.264	0.260	-0.169
-517.902	-41.511	0.138	-0.071
-516.887	168.817	-0.130	0.187
-515.872	-19.930	0.068	-0.042
-514.858	-74.121	-0.486	-0.178
-513.843	-200.000	-0.005	0.025
-512.829	-166.006	0.119	0.005
-511.814	-200.000	0.006	-0.069
-510.799	304.285	0.112	-0.210
-509.785	-68.770	0.049	-0.019
-508.770	518.807	-0.101	0.238
-507.756	800.000	-0.065	0.241
-506.741	-118.157	0.345	-0.062
-505.726	-200.000	0.066	-0.319
-504.712	-99.644	0.509	0.129
-503.697	180.196	0.155	-0.228
-502.683	-200.000	-0.009	0.073
-501.668	128.763	-0.051	-0.066
-500.653	800.000	0.058	-0.205
-499.639	205.650	0.021	0.032
-498.624	-157.707	0.103	-0.006
-497.610	25.495	0.085	0.071
-496.595	-78.247	0.402	-0.139
-495.581	455.306	0.072	0.161
-494.566	-155.860	0.265	0.017
-493.551	-200.000	-0.022	0.177
-492.537	-47.794	-0.073	0.036
-491.522	-200.000	0.002	-0.117
-490.508	-31.116	0.194	-0.110
-489.493	408.539	0.188	0.401
-488.478	-165.170	-0.388	0.017
-487.464	44.772	-0.027	0.025
-486.449	-100.732	-0.146	-0.036
-485.435	150.319	-0.134	-0.183
-484.420	-78.343	-0.047	0.016
-483.405	20.307	0.153	0.125
-482.391	86.833	0.341	-0.378
-481.376	800.000	0.024	0.088
-480.362	-43.088	-0.156	-0.080
-479.347	-115.649	-0.140	-0.026
-478.332	800.000	-0.094	0.316
-477.318	162.250	-0.037	0.052
-476.303	332.117	0.085	-0.164
-475.289	36.699	-0.229	-0.204
-474.274	288.323	-0.102	0.187
-473.259	182.314	-0.309	0.458
-472.245	-152.344	-0.208	0.015
-471.230	-147.735	0.234	-0.020
-470.216	-118.911	0.026	0.005
-469.201	-65.539	0.070	0.028
-468.186	-106.895	0.115	0.026
-467.172	199.555	0.026	0.041
-466.157	-6.158	-0.049	-0.034
-465.143	-116.427	0.413	-0.077
-464.128	-200.000	-0.005	0.082
-463.113	56.009	0.046	-0.045
-462.099	-125.030	-0.431	-0.067
-461.084	-12.113	0.152	-0.100
-460.070	-200.000	-0.056	0.286
-459.055	32.665	-0.257	0.223
-458.040	800.000	-0.020	0.060
-457.026	-200.000	0.016	0.216
-456.011	22.615	-0.113	0.093
-454.997	-120.415	-0.144	0.025
-453.982	-136.441	0.318	0.037
-452.968	516.014	0.133	-0.312
-451.953	130.118	0.067	-0.087
-450.938	311.437	0.117	-0.221
-449.924	-53.666	0.199	-0.091
-448.909	-96.604	-0.182	-0.048
-447.895	114.665	-0.291	0.357
-446.880	-30.706	-0.184	-0.105
-445.865	-200.000	0.013	0.076
-444.851	-12.484	-0.108	-0.071
-443.836	82.858	-0.073	-0.080
-442.822	-3.825	0.113	-0.079
-441.807	14.753	0.149	-0.117
-440.792	800.000	0.053	0.213
-439.778	-200.000	0.012	-0.058
-438.763	800.000	-0.028	0.079
-437.749	-8.698	0.228	0.154
-436.734	-30.619	-0.188	0.107
-435.719	657.031	-0.046	0.119
-434.705	66.370	-0.104	0.106
-433.690	-133.832	-0.067	-0.008
-432.676	-51.369	-0.088	-0.042
-431.661	-200.000	0.005	-0.402
-430.646	800.000	-0.028	0.080
-429.632	470.681	0.127	0.286
-428.617	-127.247	0.134	-0.020
-427.603	519.175	0.133	0.312
-426.588	24.219	0.243	0.202
-425.573	-200.000	0.001	-0.017
-424.559	160.722	0.076	0.106
-423.544	183.322	0.144	-0.214
-422.530	151.552	0.174	0.238
-421.515	-64.312	-0.056	0.023
-420.500	-156.163	0.119	-0.008
-419.486	-35.162	0.222	-0.121
-418.471	-115.069	0.240	-0.046
-417.457	-112.000	0.240	0.049
-416.442	690.751	-0.073	-0.191
-415.428	-65.632	0.236	-0.095
-414.413	31.892	-0.165	0.143
-413.398	9.140	0.062	0.047
-412.384	-172.220	0.510	-0.016
-411.369	218.044	-0.163	0.262
-410.355	337.859	0.049	-0.096
-409.340	800.000	0.181	-0.522
-408.325	67.171	0.105	-0.108
-407.311	-57.790	0.164	-0.072
-406.296	-33.915	0.291	0.161
-405.282	-200.000	-0.010	0.436
-404.267	685.493	-0.173	-0.454
-403.252	-200.000	0.018	-0.082
-402.238	649.824	-0.111	0.286
-401.223	-200.000	-0.001	-0.038
-400.209	90.155	0.207	-0.232
-399.194	225.267	-0.085	-0.139
-398.179	-199.090	0.105	-0.001
-397.165	800.000	-0.077	0.245
-396.150	617.039	0.082	-0.206
-395.136	-98.389	-0.358	0.092
-394.121	-51.811	0.117	0.055
-393.106	360.270	-0.132	0.264
-392.092	-200.000	-0.021	-0.106
-391.077	-78.382	0.112	0.039
-390.063	-200.000	-0.014	0.206
-389.048	-9.886	-0.190	-0.126
-388.033	53.466	-0.099	0.095
-387.019	702.769	0.040	0.107
-386.004	-200.000	0.014	0.093
-384.990	46.224	0.087	-0.081
-383.975	-168.515	0.267	-0.010
-382.960	-82.306	0.272	0.089
-381.946	128.233	-0.091	-0.117
-380.931	-76.512	0.043	-0.015
-379.917	51.216	-0.164	-0.156
-378.902	301.270	-0.143	-0.264
-377.888	800.000	0.070	-0.282
-376.873	354.359	-0.092	0.183
-375.858	130.574	-0.049	-0.063
-374.844	16.141	-0.264	0.209
-373.829	-101.879	-0.088	-0.021
-372.815	68.190	-0.066	0.068
-371.800	800.000	-0.033	0.105
-370.785	76.663	-0.242	-0.258
-369.771	-200.000	0.122	0.550
-368.756	800.000	-0.137	0.433
-367.742	-200.000	0.023	0.347
-366.727	800.000	-0.027	-0.109
-365.712	800.000	-0.071	-0.231
-364.698	245.594	0.109	0.184
-363.683	115.661	0.260	0.318
-362.669	16.777	-0.281	0.223
-361.654	-80.733	-0.163	0.054
-360.639	51.053	0.079	0.075
-359.625	-116.039	-0.192	-0.036
-358.610	-145.310	-0.101	0.009
-357.596	-24.805	-0.121	0.072
-356.581	24.891	-0.266	-0.221
-355.566	470.291	0.099	0.224
-354.552	-200.000	0.013	0.153
-353.537	203.606	0.131	-0.203
-352.523	-48.658	-0.023	0.011
-351.508	717.930	-0.032	0.085
-350.493	800.000	0.048	0.148
-349.479	-115.808	-0.063	0.012
-348.464	-101.447	0.186	-0.045
-347.450	65.405	-0.120	0.121
-346.435	143.502	-0.263	-0.351
-345.420	800.000	0.126	-0.349
-344.406	-181.345	0.147	-0.003
-343.391	94.231	-0.097	0.111
-342.377	-6.921	-0.142	0.097
-341.362	10.796	0.274	0.210
-340.348	800.000	-0.068	-0.203
-339.333	134.140	0.115	0.150
-338.318	-200.000	-0.019	0.143
-337.304	-113.357	-0.252	0.050
-336.289	-124.648	-0.295	0.046
-335.275	112.077	0.187	0.226
-334.260	15.848	-0.206	0.162
-333.245	-63.753	0.354	0.145
-332.231	-189.384	-0.172	-0.002
-331.216	-187.686	-0.328	0.004
-330.202	-90.913	-0.137	0.039
-329.187	760.059	-0.101	0.273
-328.172	295.431	-0.038	0.069
-327.158	-81.617	-0.200	0.066
-326.143	454.222	-0.103	0.228
-325.129	567.835	-0.059	-0.142
-324.114	-149.912	0.211	0.017
-323.099	295.486	-0.027	0.049
-322.085	-200.000	-0.019	0.125
-321.070	-85.343	-0.124	-0.039
-320.056	534.850	0.067	0.159
-319.041	-79.691	0.187	-0.063
-318.026	-200.000	0.056	0.321
-317.012	-200.000	-0.059	-0.333
-315.997	-200.000	0.017	-0.132
-314.983	-123.296	0.066	-0.011
-313.968	-115.170	-0.342	0.065
-312.953	-86.712	0.320	0.098
-311.939	72.755	-0.180	-0.187
-310.924	671.042	-0.057	-0.148
-309.910	286.357	-0.114	0.206
-308.895	239.253	0.075	0.124
-307.880	-170.837	0.266	0.009
-306.866	-157.562	-0.171	0.010
-305.851	136.560	0.094	0.123
-304.837	90.089	-0.139	-0.156
-303.822	-200.000	0.040	-0.341
-302.807	168.150	-0.029	0.042
-301.793	-174.342	0.347	-0.010
-300.778	-200.000	-0.061	-0.285
-299.764	325.662	-0.155	-0.296
-298.749	-161.858	-0.333	-0.017
-297.735	187.319	0.046	0.068
-296.720	227.942	-0.115	0.187
-295.705	-47.549	-0.195	-0.095
-294.691	-160.027	0.409	0.022
-293.676	250.499	0.098	0.165
-292.662	432.947	-0.094	0.205
-291.647	39.732	-0.168	-0.150
-290.632	-80.242	-0.101	-0.034
-289.618	2.567	0.339	0.245
-288.603	83.286	-0.057	0.062
-287.589	68.560	-0.138	0.141
-286.574	263.394	-0.106	0.184
-285.559	143.906	0.255	0.340
-284.545	-200.000	-0.022	0.166
-283.530	-72.224	-0.117	0.043
-282.516	-137.070	0.602	-0.069
-281.501	4.718	-0.111	-0.081
-280.486	-27.180	-0.408	0.237
-279.472	800.000	0.141	0.434
-278.457	79.231	0.221	-0.237
-277.443	-39.281	-0.213	-0.112
-276.428	-200.000	-0.003	0.103
-275.413	402.849	0.107	-0.225
-274.399	800.000	0.028	-0.081
-273.384	196.306	0.127	-0.194
-272.370	3.486	-0.322	-0.234
-271.355	245.863	-0.120	0.201
-270.340	-59.872	-0.145	0.062
-269.326	800.000	-0.053	0.189
-268.311	76.434	-0.287	0.303
-267.297	-200.000	-0.044	0.311
-266.282	-129.545	0.191	0.026
-265.267	-160.854	-0.041	0.002
-264.253	800.000	0.054	-0.206
-263.238	-168.783	-0.218	0.008
-262.224	121.339	0.204	0.253
-261.209	-26.848	0.095	-0.055
-260.195	625.989	-0.038	0.096
-259.180	800.000	-0.105	-0.320
-258.165	-200.000	-0.006	-0.077
-257.151	-200.000	-0.032	-0.147
-256.136	-154.674	0.282	0.019
-255.122	19.442	-0.114	-0.091
-254.107	252.396	-0.071	-0.121
-253.092	-120.686	0.224	0.038
-252.078	372.988	-0.120	-0.244
-251.063	-67.292	0.102	0.040
-250.049	259.661	-0.148	0.256
-249.034	-78.648	0.172	0.059
-248.019	216.821	0.083	-0.132
-247.005	-13.753	0.335	-0.216
-245.990	-70.845	0.012	-0.004
-244.976	65.674	0.122	-0.123
-243.961	362.502	-0.050	-0.100
-242.946	282.519	0.191	0.342
-241.932	707.391	-0.119	0.312
-240.917	238.802	-0.135	0.224
-239.903	-200.000	0.045	0.326
-238.888	658.899	0.059	0.151
-237.873	32.499	0.289	-0.249
-236.859	555.697	-0.007	0.016
-235.844	233.046	-0.090	-0.148
-234.830	-151.671	0.528	-0.039
-233.815	-97.160	0.448	-0.117
-232.800	-107.613	-0.075	-0.016
-231.786	84.145	-0.267	0.291
-230.771	25.872	0.385	0.320
-229.757	100.933	-0.163	0.189
-228.742	454.491	-0.187	0.413
-227.727	66.976	-0.119	-0.121
-226.713	-200.000	-0.013	-0.101
-225.698	800.000	-0.062	0.234
-224.684	313.205	-0.044	-0.083
-223.669	510.787	-0.112	-0.259
-222.655	0.804	-0.102	-0.072
-221.640	-200.000	0.021	0.357
-220.625	-180.968	0.034	-0.001
-219.611	285.204	0.035	-0.062
-218.596	-200.000	-0.017	-0.162
-217.582	18.881	0.113	0.090
-216.567	-93.037	-0.365	0.101
-215.552	-200.000	-0.020	-0.321
-214.538	-21.113	0.093	0.057
-213.523	327.590	0.099	-0.190
-212.509	452.558	-0.034	0.074
-211.494	800.000	-0.047	-0.194
-210.479	-200.000	-0.017	-0.211
-209.465	-199.685	-0.258	-0.001
-208.450	-9.546	0.232	-0.154
-207.436	69.542	0.160	-0.164
-206.421	780.336	0.112	-0.305
-205.406	-76.936	-0.118	-0.041
-204.392	241.036	-0.079	0.131
-203.377	-52.588	-0.322	0.148
-202.363	800.000	-0.100	-0.321
-201.348	-69.187	0.439	0.168
-200.333	493.900	0.157	-0.358
-199.319	-104.573	-0.385	-0.089
-198.304	-200.000	0.003	0.157
-197.290	-172.359	-0.233	-0.007
-196.275	800.000	0.120	0.331
-195.260	177.980	0.002	-0.003
-194.246	-200.000	-0.062	-0.280
-193.231	365.462	-0.138	-0.277
-192.217	-73.472	0.346	-0.126
-191.202	-73.166	-0.139	-0.051
-190.187	-6.824	0.268	0.182
-189.173	16.418	-0.138	-0.108
-188.158	-141.422	0.139	-0.014
-187.144	800.000	0.069	0.237
-186.129	-200.000	-0.002	-0.232
-185.114	136.213	-0.116	0.151
-184.100	-120.902	-0.275	0.046
-183.085	-115.316	-0.097	-0.018
-182.071	-13.149	-0.066	0.043
-181.056	-158.276	0.256	0.015
-180.042	800.000	-0.094	-0.364
-179.027	-59.889	0.207	-0.088
-178.012	516.608	-0.083	0.192
-176.998	179.408	-0.200	0.292
-175.983	800.000	-0.097	0.412
-174.969	-200.000	0.034	0.258
-173.954	454.641	0.165	0.363
-172.939	-200.000	-0.012	0.140
-171.925	113.987	-0.126	-0.152
-170.910	12.643	0.195	-0.150
-169.896	55.859	-0.159	0.153
-168.881	-90.229	-0.225	-0.065
-167.866	-75.773	0.315	-0.111
-166.852	-108.913	0.082	-0.017
-165.837	-1.132	-0.108	-0.076
-164.823	-45.010	0.310	-0.154
-163.808	-108.545	-0.354	0.076
-162.793	-200.000	-0.002	0.199
-161.779	-22.470	0.134	0.081
-160.764	-200.000	-0.036	-0.368
-159.750	-200.000	-0.006	-0.164
-158.735	322.835	0.184	-0.349
-157.720	-55.865	0.137	-0.061
-156.706	-66.146	0.220	-0.087
-155.691	72.388	0.230	-0.238
-154.677	34.962	0.216	-0.188
-153.662	57.589	-0.176	-0.171
-152.647	800.000	0.135	0.506
-151.633	122.794	0.107	0.134
-150.618	-35.420	-0.162	-0.087
-149.604	-34.998	0.146	0.079
-148.589	-175.643	0.150	0.004
-147.574	-90.697	0.371	0.106
-146.560	-64.149	-0.330	0.134
-145.545	515.968	0.138	-0.321
-144.531	24.878	0.156	0.129
-143.516	-200.000	-0.028	-0.133
-142.502	203.528	-0.155	-0.238
-141.487	364.146	0.244	-0.488
-140.472	-10.211	0.121	-0.080
-139.458	107.281	-0.102	0.121
-138.443	-150.487	-0.143	0.011
-137.429	800.000	-0.138	0.401
-136.414	-72.304	0.115	0.042
-135.399	-55.110	-0.141	0.063
-134.385	800.000	0.105	0.360
-133.370	115.041	0.161	-0.196
-132.356	800.000	0.157	0.437
-131.341	-10.820	-0.165	0.109
-130.326	267.691	0.086	-0.149
-129.312	-156.815	-0.235	-0.014
-128.297	-134.293	-0.299	-0.036
-127.283	800.000	-0.089	0.274
-126.268	-200.000	0.005	0.026
-125.253	-112.020	-0.420	0.084
-124.239	-32.274	-0.287	0.159
-123.224	31.369	-0.233	0.198
-122.210	-86.636	0.368	0.112
-121.195	-200.000	-0.016	-0.113
-120.180	-37.082	-0.262	-0.139
-119.166	-19.840	0.202	0.124
-118.151	-30.534	0.368	0.207
-117.137	10.573	-0.154	-0.116
-116.122	78.358	-0.078	0.083
-115.107	190.297	0.012	-0.018
-114.093	775.703	0.057	0.156
-113.078	187.518	0.157	-0.233
-112.064	-200.000	-0.014	-0.120
-111.049	800.000	0.057	0.168
-110.034	270.479	-0.138	0.241
-109.020	408.729	0.091	-0.192
-108.005	234.129	-0.035	0.056
-106.991	-114.842	-0.232	-0.044
-105.976	102.134	-0.072	-0.084
-104.962	-152.985	-0.323	0.023
-103.947	-200.000	0.092	-0.467
-102.932	-36.033	0.310	0.166
-101.918	17.064	0.219	-0.172
-100.903	-57.514	-0.230	0.100
-99.889	-124.549	0.069	0.011
-98.874	-80.179	-0.379	-0.126
-97.859	-146.126	-0.219	-0.019
-96.845	-154.868	-0.180	-0.012
-95.830	-29.783	-0.319	0.181
-94.816	-2.758	0.244	0.169
-93.801	-89.721	-0.143	-0.042
-92.786	-59.682	-0.077	0.033
-91.772	156.901	-0.220	0.301
-90.757	149.724	-0.066	0.088
-89.743	-200.000	0.015	0.227
-88.728	615.443	0.035	0.088
-87.713	16.119	-0.097	-0.076
-86.699	540.819	0.114	0.270
-85.684	452.939	0.078	0.172
-84.670	338.842	-0.091	0.176
-83.655	800.000	-0.026	0.088
-82.640	800.000	-0.078	0.270
-81.626	-103.162	-0.204	0.048
-80.611	-200.000	-0.004	0.188
-79.597	-138.539	-0.345	0.038
-78.582	77.072	-0.203	-0.213
-77.567	406.401	0.073	-0.153
-76.553	-88.704	0.138	0.041
-75.538	-191.634	-0.419	-0.004
-74.524	-200.000	0.031	-0.228
-73.509	-184.622	0.212	-0.003
-72.494	-53.905	-0.052	0.023
-71.480	654.907	-0.069	-0.175
-70.465	-200.000	-0.032	-0.203
-69.451	107.370	-0.288	-0.339
-68.436	402.951	-0.061	-0.127
-67.422	91.742	0.031	-0.034
-66.407	684.583	0.100	0.258
-65.392	-72.272	0.127	-0.047
-64.378	-137.655	-0.262	-0.029
-63.363	-181.218	-0.318	0.006
-62.349	-200.000	-0.018	-0.281
-61.334	61.295	-1.038	-1.021
-60.319	309.554	0.200	0.371
-59.305	-200.000	0.114	-0.690
-58.290	78.675	0.484	0.513
-57.276	218.061	1.001	1.581
-56.261	-200.000	84.302	493.515
-55.246	445.052	1400.299	3043.412
-54.232	141.627	2643.994	3466.382
-53.217	102.182	2387.080	2759.703
-52.203	45.742	1990.645	1821.173
-51.188	40.264	1775.239	1580.462
-50.173	37.650	1729.876	1519.643
-49.159	52.049	1771.320	1669.968
-48.144	55.628	1790.572	1716.326
-47.130	40.220	1750.050	1557.447
-46.115	37.276	1735.217	1521.163
-45.100	37.151	1730.278	1515.800
-44.086	37.069	1727.546	1512.702
-43.071	36.989	1725.079	1509.859
-42.057	37.058	1722.462	1508.052
-41.042	37.100	1719.915	1506.084
-40.027	37.210	1718.460	1505.605
-39.013	37.078	1716.193	1502.539
-37.998	37.064	1714.943	1501.274
-36.984	37.189	1713.076	1500.550
-35.969	37.207	1711.940	1499.628
-34.954	37.253	1709.774	1498.029
-33.940	37.291	1707.964	1496.675
-32.925	37.248	1706.143	1494.693
-31.911	37.256	1704.265	1493.051
-30.896	37.237	1702.912	1491.659
-29.881	37.249	1701.404	1490.372
-28.867	37.197	1699.575	1488.311
-27.852	37.213	1698.196	1487.167
-26.838	37.301	1696.643	1486.418
-25.823	37.269	1695.191	1484.842
-24.809	37.266	1693.941	1483.667
-23.794	37.251	1692.034	1481.821
-22.779	37.298	1690.636	1480.896
-21.765	37.223	1689.301	1479.099
-20.750	37.311	1686.750	1477.478
-19.736	37.219	1686.288	1476.317
-18.721	37.259	1684.810	1475.264
-17.706	37.186	1683.317	1473.344
-16.692	37.209	1681.540	1471.902
-15.677	37.194	1680.470	1470.797
-14.663	37.273	1679.308	1470.321
-13.648	37.349	1677.378	1469.145
-12.633	37.323	1676.274	1467.928
-11.619	37.247	1674.604	1465.832
-10.604	37.285	1672.630	1464.326
-9.590	37.213	1671.660	1462.880
-8.575	37.270	1669.942	1461.749
-7.560	37.307	1668.300	1460.530
-6.546	37.230	1667.329	1459.047
-5.531	37.258	1666.373	1458.362
-4.517	37.225	1664.990	1456.845
-3.502	37.236	1664.187	1456.169
-2.487	37.349	1662.578	1455.549
-1.473	37.576	1652.438	1448.300
-0.458	36.170	1634.138	1421.845
0.556	31.279	1633.694	1386.248
1.571	27.657	1655.513	1377.345
2.586	25.778	1667.402	1372.799
3.600	22.362	1611.301	1301.281
4.615	12.374	1492.666	1136.605
5.629	3.015	1420.546	1019.731
6.644	1.022	1410.781	999.492
7.659	0.753	1409.735	996.889
8.673	0.845	1407.916	996.118
9.688	0.640	1406.699	993.817
10.702	0.464	1403.740	990.486
11.717	4.183	1410.206	1019.457
12.731	12.976	1424.133	1087.618
13.746	17.909	1429.811	1124.432
14.761	17.666	1428.184	1121.450
15.775	16.731	1426.254	1113.691
16.790	15.691	1423.412	1104.547
17.804	14.849	1421.040	1097.081
18.819	14.506	1419.182	1093.302
19.834	14.273	1417.581	1090.445
20.848	13.956	1416.786	1087.664
21.863	13.766	1415.317	1085.194
22.877	13.544	1414.143	1082.748
23.892	13.507	1413.092	1081.608
24.907	13.450	1412.337	1080.561
25.921	13.543	1410.991	1080.043
26.936	13.581	1410.032	1079.462
27.950	13.575	1409.694	1079.067
28.965	13.650	1408.705	1078.700
29.980	13.685	1407.783	1078.126
30.994	13.692	1406.631	1077.195
32.009	13.693	1405.758	1076.437
33.023	13.716	1404.866	1075.808
34.038	13.699	1403.659	1074.680
35.053	13.689	1402.399	1073.558
36.067	13.605	1401.388	1072.143
37.082	13.627	1400.450	1071.471
38.096	13.747	1399.020	1071.057
39.111	13.774	1398.317	1070.598
40.126	13.701	1397.389	1069.323
41.140	13.517	1396.936	1067.697
42.155	13.467	1396.468	1066.923
43.169	13.468	1396.346	1066.739
44.184	13.541	1395.935	1066.806
45.199	13.427	1395.644	1065.755
46.213	13.437	1395.082	1065.295
47.228	13.558	1394.240	1065.331
48.242	13.561	1392.632	1064.033
49.257	13.630	1391.338	1063.389
50.271	13.588	1389.710	1061.781
51.286	13.608	1388.288	1060.731
52.301	13.568	1387.193	1059.546
53.315	13.516	1386.377	1058.496
54.330	13.591	1385.236	1058.009
55.344	13.460	1384.400	1056.438
56.359	13.585	1382.687	1055.834
57.374	13.495	1382.076	1054.706
58.388	13.498	1381.608	1054.272
59.403	13.528	1380.838	1053.780
60.417	13.450	1379.733	1052.350
61.432	13.475	1378.377	1051.379
62.447	13.401	1378.135	1050.635
63.461	13.347	1376.840	1049.209
64.476	13.452	1375.646	1048.876
65.490	13.494	1373.842	1047.674
66.505	13.465	1372.133	1046.094
67.520	13.429	1371.550	1045.330
68.534	13.419	1370.275	1044.203
69.549	13.432	1369.224	1043.387
70.563	13.422	1368.249	1042.494
71.578	13.410	1367.230	1041.545
72.593	13.400	1365.887	1040.369
73.607	13.331	1365.409	1039.481
74.622	13.442	1364.408	1039.323
75.636	13.399	1363.714	1038.430
76.651	13.498	1362.499	1038.036
77.666	13.316	1362.672	1036.935
78.680	13.398	1361.968	1036.823
79.695	13.342	1361.054	1035.681
80.709	13.562	1359.625	1035.877
81.724	13.452	1359.470	1034.978
82.739	13.520	1358.507	1034.584
83.753	13.599	1357.049	1033.874
84.768	13.598	1356.161	1033.096
85.782	13.554	1354.890	1031.762
86.797	13.628	1353.383	1030.988
87.812	13.582	1352.047	1029.590
88.826	13.562	1351.136	1028.680
89.841	13.587	1350.162	1028.005
90.855	13.607	1348.978	1027.134
91.870	13.646	1347.984	1026.529
92.884	13.622	1347.120	1025.636
93.899	13.651	1346.506	1025.254
94.914	13.692	1345.632	1024.750
95.928	13.671	1344.730	1023.841
96.943	13.724	1343.910	1023.454
97.957	13.659	1342.836	1022.144
98.972	13.677	1341.805	1021.382
99.987	13.625	1340.826	1020.226
101.001	13.718	1339.814	1019.939
102.016	13.654	1338.901	1018.758
103.030	13.657	1337.707	1017.780
104.045	13.577	1337.054	1016.699
105.060	13.608	1335.502	1015.619
106.074	13.525	1334.419	1014.198
107.089	13.578	1332.933	1013.302
108.103	13.481	1331.561	1011.580
109.118	13.454	1330.214	1010.304
110.133	13.512	1328.802	1009.492
111.147	13.556	1327.514	1008.696
112.162	13.599	1325.886	1007.631
113.176	13.510	1325.194	1006.476
114.191	13.680	1323.780	1006.343
115.206	13.571	1322.932	1004.946
116.220	13.634	1321.472	1004.134
117.235	13.661	1320.172	1003.220
118.249	13.600	1319.673	1002.383
119.264	13.487	1318.725	1000.887
120.279	13.583	1317.401	1000.373
121.293	13.560	1316.289	999.304
122.308	13.482	1314.897	997.687
123.322	13.631	1314.073	997.875
124.337	13.540	1312.867	996.322
125.352	13.541	1311.948	995.540
126.366	13.576	1310.931	994.892
127.381	13.528	1309.845	993.692
128.395	13.503	1308.777	992.646
129.410	13.630	1307.457	992.316
130.424	13.645	1306.777	991.801
131.439	13.596	1305.885	990.744
132.454	13.615	1305.098	990.173
133.468	13.747	1303.744	989.842
134.483	13.608	1303.200	988.515
135.497	13.736	1302.072	988.333
136.512	13.604	1300.853	986.535
137.527	13.737	1299.628	986.310
138.541	13.675	1297.933	984.569
139.556	13.617	1296.869	983.332
140.570	13.649	1296.042	982.805
141.585	13.681	1294.712	981.902
142.600	13.800	1292.821	981.081
143.614	13.756	1292.482	980.480
144.629	13.742	1291.046	979.219
145.643	13.654	1289.911	977.756
146.658	13.669	1288.747	976.876
147.673	13.736	1287.209	976.018
148.687	13.618	1286.186	974.462
149.702	13.624	1284.780	973.344
150.716	13.640	1283.325	972.247
151.731	13.735	1281.567	971.387
152.746	13.675	1280.622	970.232
153.760	13.791	1279.046	969.632
154.775	13.736	1278.267	968.637
155.789	13.850	1277.104	968.335
156.804	13.775	1276.288	967.194
157.819	13.809	1275.148	966.442
158.833	13.797	1274.205	965.572
159.848	13.916	1272.907	965.194
160.862	13.892	1271.996	964.279
161.877	13.821	1271.197	963.175
162.892	13.851	1269.722	962.146
163.906	13.868	1268.634	961.333
164.921	13.730	1267.826	959.841
165.935	13.957	1266.970	960.416
166.950	13.765	1266.654	958.982
167.964	13.785	1265.462	958.109
168.979	13.930	1264.641	958.243
169.994	13.871	1264.265	957.530
171.008	13.966	1263.226	957.206
172.023	13.910	1262.364	956.146
173.037	13.922	1261.927	955.803
174.052	13.809	1261.040	954.392
175.067	13.961	1259.608	954.097
176.081	13.893	1258.414	952.719
177.096	13.845	1257.793	951.891
178.110	13.909	1256.776	951.403
179.125	13.973	1255.234	950.520
180.140	14.058	1253.872	949.889
181.154	14.007	1252.958	948.821
182.169	14.110	1251.394	948.143
183.183	14.031	1250.488	946.920
184.198	14.136	1248.851	946.192
185.213	13.999	1248.034	944.711
186.227	14.019	1247.519	944.351
187.242	14.052	1246.279	943.515
188.256	14.163	1245.160	943.219
189.271	14.232	1244.124	942.739
190.286	14.045	1243.255	940.939
191.300	14.062	1242.280	940.210
192.315	13.927	1241.889	939.070
193.329	14.034	1240.800	938.766
194.344	14.015	1240.053	938.012
195.359	14.126	1239.546	938.173
196.373	14.178	1238.634	937.693
197.388	14.123	1238.598	937.274
198.402	14.261	1238.264	937.713
199.417	14.321	1237.056	937.051
200.432	14.278	1236.350	936.192
201.446	14.265	1235.841	935.654
202.461	14.397	1234.326	935.162
203.475	14.305	1233.515	933.953
204.490	14.434	1232.187	933.586
205.504	14.307	1231.010	931.903
206.519	14.230	1229.913	930.555
207.534	14.261	1228.810	929.817
208.548	14.303	1227.795	929.197
209.563	14.346	1226.857	928.646
210.577	14.298	1226.080	927.707
211.592	14.335	1224.903	926.943
212.607	14.444	1224.398	927.083
213.621	14.479	1223.439	926.472
214.636	14.426	1222.681	925.519
215.650	14.460	1221.502	924.735
216.665	14.480	1220.500	924.007
217.680	14.465	1220.007	923.463
218.694	14.556	1218.824	922.995
219.709	14.588	1217.621	922.176
220.723	14.517	1217.173	921.365
221.738	14.380	1216.672	920.144
222.753	14.560	1215.556	920.212
223.767	14.621	1214.999	920.047
224.782	14.549	1214.071	918.866
225.796	14.636	1213.862	919.104
226.811	14.564	1213.221	918.145
227.826	14.608	1212.444	917.715
228.840	14.646	1211.230	916.926
229.855	14.692	1210.421	916.483
230.869	14.659	1209.833	915.776
231.884	14.645	1208.847	914.870
232.899	14.706	1207.592	914.173
233.913	14.693	1207.305	913.806
234.928	14.633	1206.534	912.813
235.942	14.640	1205.616	912.074
236.957	14.666	1204.861	911.567
237.972	14.629	1204.538	911.040
238.986	14.655	1203.438	910.268
240.001	14.716	1202.942	910.144
241.015	14.766	1202.008	909.628
242.030	14.700	1201.407	908.733
243.045	14.774	1200.276	908.204
244.059	14.712	1199.786	907.413
245.074	14.948	1198.279	907.476
246.088	14.821	1197.760	906.311
247.103	14.878	1196.631	905.686
248.117	14.859	1196.294	905.246
249.132	14.937	1195.139	904.718
250.147	15.069	1194.743	905.050
251.161	15.080	1194.135	904.571
252.176	15.017	1193.327	903.539
253.190	15.051	1192.597	903.086
254.205	15.101	1192.109	902.911
255.220	15.194	1191.393	902.788
256.234	15.059	1190.997	901.680
257.249	15.125	1190.242	901.385
258.263	15.168	1189.446	900.931
259.278	15.210	1188.590	900.428
260.293	15.187	1188.101	899.858
261.307	15.246	1187.180	899.395
262.322	15.234	1187.053	899.153
263.336	15.328	1185.736	898.582
264.351	15.339	1185.239	898.184
265.366	15.375	1184.730	897.913
266.380	15.367	1184.111	897.323
267.395	15.155	1183.672	895.774
268.409	15.322	1182.600	895.774
269.424	15.408	1181.799	895.552
270.439	15.297	1181.531	894.673
271.453	15.319	1180.549	893.972
272.468	15.353	1179.645	893.385
273.482	15.330	1178.409	892.247
274.497	15.202	1178.425	891.504
275.512	15.309	1177.390	891.206
276.526	15.292	1176.980	890.730
277.541	15.280	1175.836	889.723
278.555	15.364	1175.150	889.570
279.570	15.469	1174.435	889.505
280.585	15.355	1173.885	888.406
281.599	15.443	1172.507	887.752
282.614	15.463	1171.400	886.938
283.628	15.446	1170.507	886.093
284.643	15.520	1169.107	885.349
285.657	15.518	1168.448	884.758
286.672	15.503	1167.320	883.749
287.687	15.653	1166.468	883.814
288.701	15.556	1165.847	882.755
289.716	15.662	1165.096	882.665
290.730	15.522	1164.536	881.425
291.745	15.650	1163.941	881.571
292.760	15.665	1162.844	880.741
293.774	15.632	1162.339	880.104
294.789	15.693	1161.679	879.850
295.803	15.686	1161.123	879.315
296.818	15.699	1160.273	878.662
297.833	15.726	1159.621	878.228
298.847	15.678	1158.882	877.344
299.862	15.744	1157.707	876.720
300.876	15.750	1157.463	876.484
301.891	15.800	1156.784	876.154
302.906	15.852	1155.753	875.566
303.920	15.836	1155.079	874.894
304.935	15.922	1154.264	874.646
305.949	15.975	1153.539	874.295
306.964	15.887	1153.076	873.414
307.979	16.013	1151.968	873.147
308.993	16.011	1151.349	872.591
310.008	16.027	1150.602	872.031
311.022	15.962	1149.755	870.973
312.037	16.005	1148.624	870.263
313.052	16.006	1148.104	869.799
314.066	16.029	1146.645	868.734
315.081	15.928	1146.174	867.780
316.095	15.922	1145.404	867.091
317.110	15.856	1144.908	866.297
318.125	16.000	1144.113	866.357
319.139	15.960	1143.483	865.599
320.154	15.914	1142.992	864.913
321.168	15.971	1141.925	864.323
322.183	15.915	1141.721	863.806
323.197	15.955	1141.035	863.418
324.212	15.976	1140.301	862.891
325.227	16.078	1140.003	863.114
326.241	15.978	1139.326	862.012
327.256	16.049	1138.200	861.448
328.270	16.007	1137.352	860.514
329.285	16.002	1136.399	859.690
330.300	16.071	1135.274	859.118
331.314	16.016	1134.807	858.408
332.329	16.130	1133.277	857.753
333.343	16.156	1132.133	856.945
334.358	16.174	1131.329	856.349
335.373	16.182	1130.759	855.884
336.387	16.098	1130.227	854.981
337.402	16.229	1129.548	855.054
338.416	16.274	1128.505	854.417
339.431	16.214	1128.207	853.813
340.446	16.337	1127.501	853.822
341.460	16.287	1126.830	852.988
342.475	16.331	1125.825	852.372
343.489	16.408	1124.940	852.016
344.504	16.485	1123.645	851.350
345.519	16.337	1123.252	850.230
346.533	16.370	1122.558	849.795
347.548	16.555	1121.497	849.845
348.562	16.438	1120.867	848.707
349.577	16.423	1120.005	847.901
350.592	16.389	1119.434	847.223
351.606	16.337	1118.708	846.338
352.621	16.444	1117.579	845.948
353.635	16.550	1117.008	845.970
354.650	16.468	1116.393	845.018
355.665	16.620	1115.703	845.183
356.679	16.594	1114.836	844.322
357.694	16.517	1114.233	843.406
358.708	16.559	1114.005	843.366
359.723	16.620	1112.887	842.751
360.738	16.674	1112.202	842.423
361.752	16.587	1111.760	841.584
362.767	16.588	1111.262	841.138
363.781	16.638	1110.650	840.848
364.796	16.715	1109.947	840.624
365.810	16.660	1109.472	839.915
366.825	16.729	1108.753	839.640
367.840	16.775	1107.906	839.152
368.854	16.791	1107.840	839.105
369.869	16.821	1106.672	838.294
370.883	16.880	1105.563	837.673
371.898	16.746	1105.106	836.591
372.913	16.752	1104.677	836.222
373.927	16.839	1104.171	836.193
374.942	16.880	1103.743	835.999
375.956	16.849	1103.298	835.432
376.971	16.830	1102.743	834.848
377.986	16.902	1101.855	834.456
379.000	16.895	1101.581	834.139
380.015	16.985	1100.947	834.029
381.029	17.019	1100.145	833.515
382.044	16.949	1099.491	832.601
383.059	17.111	1098.538	832.601
384.073	16.918	1098.050	831.211
385.088	17.058	1096.851	830.912
386.102	17.108	1095.505	830.066
387.117	17.041	1094.828	829.150
388.132	17.087	1093.915	828.613
389.146	17.065	1093.176	827.872
390.161	16.978	1092.554	826.901
391.175	17.080	1091.839	826.784
392.190	17.060	1091.121	826.070
393.205	17.078	1090.474	825.596
394.219	17.126	1089.505	825.023
395.234	17.234	1088.344	824.596
396.248	17.096	1087.811	823.447
397.263	17.155	1086.478	822.651
398.278	17.151	1085.655	821.938
399.292	17.284	1084.711	821.793
400.307	17.079	1084.662	820.693
401.321	17.070	1083.727	819.869
402.336	17.265	1083.487	820.558
403.350	17.156	1082.679	819.345
404.365	17.212	1081.762	818.847
405.380	17.260	1081.221	818.598
406.394	17.271	1080.323	817.900
407.409	17.405	1079.097	817.544
408.423	17.309	1078.942	816.891
409.438	17.393	1078.147	816.622
410.453	17.455	1077.316	816.215
411.467	17.402	1076.773	815.477
412.482	17.476	1076.050	815.211
413.496	17.563	1075.390	815.058
414.511	17.509	1074.757	814.248
415.526	17.558	1074.636	814.316
416.540	17.514	1073.890	813.472
417.555	17.488	1073.209	812.756
418.569	17.490	1073.149	812.651
419.584	17.642	1072.067	812.485
420.599	17.621	1071.596	811.956
421.613	94.299	1311.237	1418.420
422.628	87.322	1346.173	1418.514
