DTS Sentinel unit serial number:	SN413079Multiplexer serial number:	ORYXHardware model number:	OX4-SRSoftware version number:	ORYX F/W v4.00 Oryx Data Collector v3.7.2.0data status	okinstallation	princeton_trtdifferential loss correction	single-endedforward channel	channel 2reverse channel	N/Adate	2019/09/12time	19:56:49forward acquisition time	15.00reverse acquisition time	0.00gamma	496.2192k internal	0.2328k external	0.2328temperature offset calibration	1.0157default loss term (dB/km)	0.3790temperature slope calibration	1.0000multiplexer offset coefficient	1.0000multiplexer slope coefficient	1.0000fibre end	0.00T internal ref (°C)	31.81T ext. ref 1 (°C)	3.42T ext. ref 2 (°C)	26.33length (m)	temperature (°C)	Stokes	anti-Stokes-747.200	178.164	-0.223	-0.328
-746.185	-200.000	-0.074	1.018
-745.171	-136.970	-0.202	0.023
-744.156	800.000	0.238	-0.763
-743.142	-2.041	-0.319	-0.226
-742.127	477.671	0.163	-0.372
-741.112	-65.531	-0.231	0.093
-740.098	800.000	0.049	0.173
-739.083	50.316	-0.114	-0.108
-738.069	-105.252	-0.612	-0.141
-737.054	2.429	0.641	-0.467
-736.039	-77.152	-0.693	-0.243
-735.025	243.973	0.170	0.288
-734.010	-200.000	0.045	0.849
-732.996	-113.049	-1.058	-0.210
-731.981	-71.734	-0.799	0.300
-730.966	226.717	-0.351	-0.574
-729.952	-200.000	0.080	-0.549
-728.937	12.638	0.161	0.125
-727.923	18.451	-0.792	0.638
-726.908	539.756	-0.163	0.390
-725.894	320.544	0.360	-0.688
-724.879	175.427	-0.146	0.213
-723.864	-200.000	0.084	-0.709
-722.850	-131.992	-0.155	0.020
-721.835	-200.000	-0.061	-0.532
-720.821	800.000	-0.286	1.054
-719.806	16.546	-0.151	0.121
-718.791	-126.187	0.138	0.021
-717.777	-159.941	-0.962	0.053
-716.762	-123.466	-0.203	-0.033
-715.748	-200.000	0.072	0.417
-714.733	-156.088	0.338	0.022
-713.718	5.081	0.382	-0.283
-712.704	800.000	-0.252	0.893
-711.689	-74.169	0.494	0.180
-710.675	-70.133	-0.280	0.107
-709.660	-142.834	1.117	0.109
-708.645	-20.526	-0.336	0.208
-707.631	411.696	0.423	-0.905
-706.616	-70.206	0.339	0.130
-705.602	223.776	0.189	-0.306
-704.587	-189.840	0.352	0.004
-703.572	390.253	-0.260	-0.542
-702.558	26.523	0.468	0.394
-701.543	-200.000	-0.017	0.162
-700.529	-149.323	-0.200	0.016
-699.514	-166.231	-0.142	-0.006
-698.499	209.581	0.474	-0.748
-697.485	-165.944	0.402	-0.017
-696.470	-149.080	-0.819	-0.066
-695.456	-51.635	-0.850	0.399
-694.441	98.551	-0.207	0.240
-693.426	-108.211	0.577	0.126
-692.412	-200.000	0.027	0.664
-691.397	-19.136	-0.344	0.215
-690.383	-33.366	-1.198	-0.666
-689.368	-21.112	0.233	-0.143
-688.354	-183.394	0.917	0.016
-687.339	69.057	-0.183	0.190
-686.324	501.277	0.207	0.480
-685.310	462.533	0.322	0.722
-684.295	-200.000	0.029	0.631
-683.281	168.830	-0.277	-0.397
-682.266	-51.775	0.301	-0.141
-681.251	-200.000	-0.056	0.711
-680.237	71.202	-0.139	0.145
-679.222	-108.648	0.168	-0.036
-678.208	45.188	0.421	-0.390
-677.193	80.159	-0.584	-0.631
-676.178	800.000	0.113	0.433
-675.164	-49.122	1.170	-0.563
-674.149	-200.000	0.014	0.191
-673.135	57.289	-0.630	0.618
-672.120	108.390	0.065	0.078
-671.105	800.000	0.165	-0.505
-670.091	3.972	-0.580	0.426
-669.076	-200.000	-0.167	0.942
-668.062	78.050	0.355	0.381
-667.047	-200.000	0.055	0.593
-666.032	282.104	0.121	0.217
-665.018	197.187	-0.327	0.502
-664.003	74.199	0.673	0.710
-662.989	800.000	0.066	0.224
-661.974	-114.218	0.259	-0.050
-660.959	82.984	-0.639	-0.699
-659.945	800.000	-0.070	0.212
-658.930	-200.000	0.005	0.827
-657.916	277.218	0.302	0.539
-656.901	166.532	-0.502	-0.715
-655.886	86.949	-0.154	-0.171
-654.872	-132.649	0.307	-0.039
-653.857	-149.684	-0.357	0.028
-652.843	-141.365	0.040	-0.004
-651.828	-19.541	0.187	-0.116
-650.814	746.740	0.268	0.724
-649.799	-200.000	-0.074	0.361
-648.784	89.632	-0.319	0.357
-647.770	482.027	-0.235	0.537
-646.755	800.000	0.116	-0.404
-645.741	-194.586	1.065	-0.008
-644.726	150.830	0.360	-0.491
-643.711	-200.000	-0.022	-0.482
-642.697	616.688	0.122	-0.307
-641.682	-71.930	-0.985	-0.368
-640.668	56.290	0.251	0.245
-639.653	315.064	0.438	0.829
-638.638	359.720	-0.239	0.479
-637.624	-76.439	0.745	0.263
-636.609	-200.000	0.020	-0.440
-635.595	800.000	0.144	0.531
-634.580	87.291	0.221	-0.245
-633.565	800.000	-0.247	0.778
-632.551	19.633	0.796	0.643
-631.536	-24.403	0.214	-0.128
-630.522	-46.466	-0.646	-0.318
-629.507	-37.247	0.377	0.202
-628.492	-68.374	0.569	-0.222
-627.478	-87.254	-0.178	-0.054
-626.463	188.973	-0.433	-0.650
-625.449	-200.000	0.034	-0.357
-624.434	240.043	-0.250	0.418
-623.419	183.244	-0.342	-0.506
-622.405	-185.812	0.384	0.006
-621.390	-48.230	0.726	0.351
-620.376	587.797	0.196	0.484
-619.361	764.681	0.121	-0.330
-618.346	-200.000	0.102	-0.599
-617.332	-39.166	0.226	-0.119
-616.317	137.310	-0.274	0.360
-615.303	-88.151	0.429	0.129
-614.288	-6.321	-0.337	0.231
-613.273	-103.843	0.725	0.170
-612.259	800.000	-0.132	-0.386
-611.244	-200.000	0.054	-0.700
-610.230	800.000	0.018	0.079
-609.215	800.000	0.261	1.051
-608.201	-79.434	1.535	-0.520
-607.186	800.000	0.188	-0.723
-606.171	-94.539	0.533	-0.146
-605.157	423.720	-0.070	-0.151
-604.142	-184.949	-0.188	0.003
-603.128	218.358	0.091	-0.146
-602.113	800.000	-0.260	-0.936
-601.098	-130.137	0.784	-0.107
-600.084	412.882	-0.354	0.755
-599.069	136.615	0.383	0.501
-598.055	800.000	-0.138	0.466
-597.040	-50.112	-0.407	0.193
-596.025	-8.207	0.430	0.290
-595.011	-15.799	-0.762	-0.486
-593.996	518.682	0.267	0.625
-592.982	621.872	0.158	-0.398
-591.967	63.070	0.365	0.366
-590.952	-100.974	-0.156	-0.038
-589.938	-109.647	-0.622	-0.131
-588.923	345.316	0.448	-0.882
-587.909	664.938	0.002	0.005
-586.894	800.000	0.162	-0.466
-585.879	-73.787	0.661	0.241
-584.865	800.000	0.062	0.207
-583.850	800.000	-0.195	0.687
-582.836	-104.199	-0.567	0.132
-581.821	13.470	0.580	0.451
-580.806	247.611	0.188	0.317
-579.792	-200.000	0.057	0.285
-578.777	-200.000	-0.053	-0.329
-577.763	275.234	0.216	-0.384
-576.748	-200.000	0.080	0.539
-575.733	-200.000	-0.069	0.557
-574.719	-200.000	0.194	-0.908
-573.704	-149.361	0.574	0.046
-572.690	250.931	0.312	-0.531
-571.675	-200.000	-0.071	-1.049
-570.661	-74.478	-0.966	-0.349
-569.646	-117.163	-0.604	-0.110
-568.631	-118.697	0.545	-0.096
-567.617	-200.000	-0.102	-0.564
-566.602	800.000	-0.247	-0.974
-565.588	-142.289	-0.511	0.051
-564.573	5.253	-0.501	-0.370
-563.558	-170.597	0.686	0.024
-562.544	-141.676	-0.325	-0.033
-561.529	800.000	-0.082	-0.350
-560.515	-70.460	-0.215	-0.081
-559.500	171.935	0.227	0.326
-558.485	-200.000	0.139	-0.960
-557.471	16.615	0.338	0.267
-556.456	-185.255	-0.763	0.012
-555.442	-16.730	0.251	0.159
-554.427	38.219	-0.541	-0.482
-553.412	-11.964	-0.355	0.233
-552.398	193.105	-0.446	0.674
-551.383	49.831	0.635	0.599
-550.369	-117.542	0.271	-0.049
-549.354	-58.950	-0.438	0.189
-548.339	-200.000	-0.026	-0.464
-547.325	-125.084	-0.131	-0.020
-546.310	-4.701	-0.394	-0.272
-545.296	-200.000	0.080	-0.393
-544.281	139.865	0.405	0.534
-543.266	-200.000	-0.038	0.301
-542.252	-147.492	-0.304	0.026
-541.237	-200.000	-0.074	-0.621
-540.223	-36.901	-0.418	0.224
-539.208	-102.228	1.086	-0.261
-538.193	-200.000	0.062	-0.704
-537.179	-180.263	-0.859	0.018
-536.164	186.076	-0.533	0.793
-535.150	-76.930	-0.657	0.230
-534.135	-61.429	-0.351	-0.148
-533.121	384.778	0.116	0.239
-532.106	10.225	-1.095	-0.833
-531.091	-57.481	0.080	-0.035
-530.077	-112.787	0.476	-0.094
-529.062	304.531	-0.186	-0.346
-528.048	-128.292	0.310	0.044
-527.033	-200.000	-0.020	0.293
-526.018	267.230	-0.227	0.396
-525.004	-200.000	-0.035	-0.222
-523.989	-200.000	-0.057	0.623
-522.975	-6.866	-0.363	-0.247
-521.960	-100.533	-0.092	0.023
-520.945	90.738	-0.181	0.203
-519.931	-15.329	0.516	-0.329
-518.916	360.782	0.401	0.802
-517.902	-110.303	0.398	-0.083
-516.887	800.000	-0.223	-0.618
-515.872	-51.002	-0.456	0.214
-514.858	31.595	0.197	-0.169
-513.843	99.397	-0.534	0.616
-512.829	-200.000	0.004	0.519
-511.814	10.429	-0.534	0.406
-510.799	-15.391	0.128	0.082
-509.785	800.000	-0.351	1.123
-508.770	-200.000	0.119	0.806
-507.756	-1.510	-0.297	-0.209
-506.741	63.588	-0.151	0.151
-505.726	800.000	-0.257	0.887
-504.712	-200.000	0.017	-0.617
-503.697	-116.607	-0.142	0.026
-502.683	-25.346	0.224	-0.132
-501.668	-6.951	-0.546	-0.370
-500.653	265.797	0.241	0.419
-499.639	-9.878	-0.556	0.369
-498.624	-150.174	0.361	-0.028
-497.610	-83.130	0.751	-0.241
-496.595	-72.915	0.496	0.182
-495.581	800.000	0.051	-0.219
-494.566	-200.000	0.052	-0.541
-493.551	31.415	-0.299	0.257
-492.537	30.738	0.799	0.682
-491.522	-153.742	0.081	-0.006
-490.508	-200.000	-0.135	-0.952
-489.493	-60.457	0.223	-0.095
-488.478	-79.259	-0.338	0.114
-487.464	10.577	-0.372	0.283
-486.449	800.000	-0.072	0.296
-485.435	556.547	-0.205	0.493
-484.420	274.827	0.341	0.602
-483.405	-24.964	0.437	0.259
-482.391	-24.920	-0.377	0.223
-481.376	58.964	0.271	0.265
-480.362	-200.000	-0.026	0.491
-479.347	57.927	0.340	0.332
-478.332	-26.825	-0.349	0.204
-477.318	-175.350	1.088	-0.030
-476.303	-157.857	0.310	-0.018
-475.289	-64.363	0.470	-0.191
-474.274	-126.115	-0.222	0.033
-473.259	-75.749	0.443	0.157
-472.245	-121.446	-1.219	0.202
-471.230	-87.787	0.538	0.162
-470.216	417.107	0.301	-0.641
-469.201	-135.159	0.260	-0.031
-468.186	207.551	0.297	-0.463
-467.172	-90.085	-0.409	0.119
-466.157	800.000	0.208	0.832
-465.143	4.399	0.359	-0.262
-464.128	-143.860	0.340	-0.032
-463.113	800.000	-0.029	-0.089
-462.099	-200.000	-0.048	-0.752
-461.084	257.081	-0.196	-0.335
-460.070	800.000	-0.285	-1.003
-459.055	-22.121	-0.161	0.097
-458.040	-0.387	-0.437	-0.309
-457.026	-5.818	0.887	0.605
-456.011	-13.122	-0.012	-0.008
-454.997	-200.000	0.016	-0.294
-453.982	67.948	0.290	0.295
-452.968	-10.886	0.432	0.284
-451.953	479.479	-0.055	-0.124
-450.938	-2.614	0.256	0.179
-449.924	-200.000	0.028	0.893
-448.909	457.322	0.226	-0.501
-447.895	31.386	0.447	0.383
-446.880	-132.209	0.904	0.117
-445.865	373.709	-0.248	0.503
-444.851	-154.267	0.272	-0.018
-443.836	44.443	0.451	0.413
-442.822	-26.055	-0.666	0.390
-441.807	465.658	0.151	-0.336
-440.792	-200.000	-0.034	-0.368
-439.778	245.969	-0.415	0.696
-438.763	-152.643	0.442	-0.031
-437.749	62.252	0.631	-0.627
-436.734	800.000	0.370	-1.309
-435.719	-116.405	0.719	-0.132
-434.705	-200.000	0.021	-0.303
-433.690	-38.804	0.501	0.263
-432.676	-50.245	-0.051	0.024
-431.661	122.255	-0.341	0.424
-430.646	-200.000	0.150	-0.813
-429.632	334.511	0.323	-0.623
-428.617	-200.000	-0.242	-1.137
-427.603	-57.777	-0.288	0.125
-426.588	-10.512	-0.443	0.292
-425.573	-200.000	0.013	0.489
-424.559	468.865	-0.386	-0.863
-423.544	69.128	-0.140	0.143
-422.530	-164.336	0.107	-0.005
-421.515	-97.590	0.292	0.075
-420.500	-29.098	-0.165	0.094
-419.486	-200.000	-0.048	0.886
-418.471	33.712	0.099	-0.085
-417.457	-127.303	0.605	-0.088
-416.442	-172.479	0.845	0.027
-415.428	92.214	0.383	0.430
-414.413	800.000	0.099	-0.278
-413.398	67.532	0.160	-0.163
-412.384	-30.326	-0.499	-0.282
-411.369	-80.067	0.330	-0.110
-410.355	179.412	0.166	0.242
-409.340	800.000	0.152	0.428
-408.325	-126.466	-0.221	-0.033
-407.311	800.000	-0.253	0.825
-406.296	-200.000	-0.095	0.819
-405.282	-105.960	-0.234	-0.052
-404.267	-200.000	-0.133	-0.689
-403.252	-6.974	0.287	-0.194
-402.238	208.910	-0.191	-0.298
-401.223	-39.236	-0.483	-0.252
-400.209	-142.352	-0.024	-0.002
-399.194	-88.418	0.571	0.170
-398.179	146.266	0.111	0.148
-397.165	-141.518	-0.228	0.023
-396.150	-25.472	-0.280	-0.164
-395.136	-159.334	0.922	0.051
-394.121	-61.805	-0.411	-0.171
-393.106	11.120	0.584	0.444
-392.092	-88.384	0.243	-0.072
-391.077	800.000	-0.279	-0.845
-390.063	41.551	0.303	-0.273
-389.048	-35.459	-0.233	-0.126
-388.033	800.000	0.211	-0.725
-387.019	346.713	-0.388	0.758
-386.004	-200.000	-0.043	-0.210
-384.990	70.425	-0.375	-0.386
-383.975	125.532	0.454	-0.569
-382.960	-60.955	0.398	-0.167
-381.946	-200.000	-0.013	0.667
-380.931	-114.261	0.705	-0.135
-379.917	160.140	0.122	-0.169
-378.902	-162.333	0.362	0.018
-377.888	27.683	-0.785	0.656
-376.873	-129.802	0.196	-0.027
-375.858	204.600	0.113	-0.175
-374.844	-85.170	0.491	0.153
-373.829	-168.047	0.661	-0.026
-372.815	-200.000	0.066	-0.306
-371.800	-23.456	-0.630	0.376
-370.785	86.561	-0.606	0.664
-369.771	-102.863	0.319	0.075
-368.756	212.508	-0.314	0.492
-367.742	65.868	0.259	0.261
-366.727	1.013	0.318	0.226
-365.712	44.424	0.212	0.193
-364.698	-78.379	0.738	-0.251
-363.683	-11.810	-0.390	0.254
-362.669	-92.227	0.462	0.129
-361.654	172.655	0.506	0.723
-360.639	-200.000	-0.071	-0.441
-359.625	210.156	0.177	0.276
-358.610	-200.000	0.029	-0.866
-357.596	4.417	-0.287	-0.209
-356.581	-200.000	-0.078	0.359
-355.566	362.099	0.240	-0.477
-354.552	-113.525	0.695	-0.135
-353.537	86.198	-0.440	-0.481
-352.523	-18.264	-0.676	0.420
-351.508	246.244	-0.137	-0.229
-350.493	-200.000	-0.033	0.777
-349.479	-5.030	0.520	-0.355
-348.464	-104.570	0.757	-0.173
-347.450	800.000	0.116	-0.333
-346.435	505.193	-0.206	0.473
-345.420	42.253	-0.523	-0.471
-344.406	-53.419	-0.609	0.277
-343.391	-122.954	-0.549	-0.088
-342.377	-200.000	0.049	-0.408
-341.362	154.370	-0.283	-0.385
-340.348	183.634	-0.379	-0.556
-339.333	-200.000	-0.121	-0.920
-338.318	256.578	-0.409	-0.697
-337.304	-200.000	-0.030	0.152
-336.289	-200.000	0.060	-1.201
-335.275	306.503	-0.314	0.579
-334.260	22.159	-0.629	-0.510
-333.245	-200.000	0.070	0.445
-332.231	24.290	0.041	0.033
-331.216	43.761	-0.603	0.547
-330.202	14.716	0.415	0.322
-329.187	-41.435	0.395	0.202
-328.172	-36.999	-0.735	0.391
-327.158	-49.783	0.467	-0.220
-326.143	75.826	-0.865	0.907
-325.129	222.389	0.378	0.604
-324.114	-53.491	-0.525	0.238
-323.099	-99.585	0.518	-0.129
-322.085	48.667	0.420	0.390
-321.070	800.000	0.031	0.094
-320.056	-46.431	-1.422	-0.692
-319.041	39.734	-0.351	-0.312
-318.026	-200.000	-0.007	0.477
-317.012	-142.578	0.574	-0.056
-315.997	240.584	0.652	-1.078
-314.983	-163.015	-1.133	-0.054
-313.968	-176.747	-1.278	0.032
-312.953	-37.714	-0.248	-0.131
-311.939	-102.388	0.280	0.067
-310.924	-81.112	-0.493	-0.162
-309.910	-9.544	-0.346	0.229
-308.895	-200.000	0.045	-0.410
-307.880	396.995	-0.234	0.485
-306.866	-18.756	0.386	0.238
-305.851	318.586	0.443	-0.832
-304.837	800.000	-0.067	-0.273
-303.822	-136.181	-0.599	0.069
-302.807	481.390	0.187	-0.421
-301.793	-44.151	-0.897	-0.446
-300.778	-58.880	-0.369	-0.158
-299.764	57.907	-0.576	-0.559
-298.749	22.338	-0.133	0.107
-297.735	81.933	-0.205	0.220
-296.720	-63.931	-0.408	-0.165
-295.705	-40.740	-0.475	-0.244
-294.691	46.427	-0.479	0.440
-293.676	-200.000	0.094	0.559
-292.662	-200.000	0.124	0.616
-291.647	-64.274	-0.427	-0.172
-290.632	-86.184	-0.753	0.230
-289.618	-29.573	0.501	-0.283
-288.603	410.214	0.177	0.372
-287.589	-86.704	0.700	0.212
-286.574	16.985	-0.441	-0.346
-285.559	65.237	-0.495	-0.495
-284.545	-200.000	0.009	0.712
-283.530	-110.387	0.322	0.066
-282.516	56.237	0.194	0.186
-281.501	-94.705	-0.460	0.124
-280.486	-123.673	0.559	-0.088
-279.472	-24.243	-0.374	0.221
-278.457	86.863	0.233	0.255
-277.443	-131.835	-0.876	0.113
-276.428	-42.011	-0.294	0.149
-275.413	-43.949	0.537	-0.267
-274.399	-21.421	0.227	-0.137
-273.384	7.061	0.331	0.244
-272.370	-173.240	0.229	-0.007
-271.355	465.377	-0.205	-0.453
-270.340	-200.000	0.129	-0.602
-269.326	62.786	-0.590	-0.584
-268.311	41.195	-0.758	0.678
-267.297	800.000	0.256	0.837
-266.282	800.000	0.145	0.496
-265.267	-200.000	-0.071	0.314
-264.253	48.713	0.314	-0.291
-263.238	106.116	0.639	0.748
-262.224	623.932	0.150	0.374
-261.209	-84.482	-0.324	-0.101
-260.195	-59.748	-0.535	0.227
-259.180	34.489	0.291	0.252
-258.165	-24.853	-0.279	0.164
-257.151	21.321	0.077	-0.062
-256.136	199.638	0.747	1.133
-255.122	153.603	0.256	0.347
-254.107	7.295	-0.224	-0.165
-253.092	19.288	-0.650	-0.516
-252.078	-167.402	-0.550	-0.022
-251.063	76.829	0.256	0.269
-250.049	231.857	0.157	0.255
-249.034	-26.587	-0.296	-0.171
-248.019	-200.000	0.000	0.447
-247.005	-75.816	-0.885	0.310
-245.990	-200.000	-0.001	0.381
-244.976	-200.000	-0.033	0.257
-243.961	-17.034	0.447	0.279
-242.946	-200.000	0.021	0.194
-241.932	-117.939	-0.235	0.042
-240.917	-34.813	-0.648	-0.350
-239.903	-159.352	0.566	-0.031
-238.888	209.669	0.164	0.254
-237.873	-25.502	0.194	0.113
-236.859	-200.000	-0.139	-0.946
-235.844	47.758	0.449	0.414
-234.830	54.602	-0.957	-0.911
-233.815	7.368	-0.053	0.039
-232.800	800.000	-0.170	0.490
-231.786	-98.962	0.400	-0.100
-230.771	-59.371	-0.388	0.165
-229.757	-98.336	-0.793	-0.201
-228.742	44.007	-0.500	0.452
-227.727	-200.000	-0.074	-0.346
-226.713	-200.000	0.020	-0.328
-225.698	-35.857	0.493	0.263
-224.684	-120.851	-0.399	0.066
-223.669	-200.000	0.055	-0.263
-222.655	93.885	-0.298	0.333
-221.640	11.719	-0.359	0.272
-220.625	-200.000	-0.113	-0.611
-219.611	-138.974	-0.690	-0.074
-218.596	-35.904	0.329	-0.176
-217.582	-200.000	0.075	-0.669
-216.567	72.567	0.442	-0.455
-215.552	-200.000	-0.163	0.716
-214.538	18.149	-0.457	-0.360
-213.523	-63.048	0.412	-0.168
-212.509	79.670	0.338	0.358
-211.494	-85.390	0.238	0.073
-210.479	5.214	-0.108	0.079
-209.465	-140.180	-0.562	-0.058
-208.450	136.242	0.475	0.611
-207.436	32.208	-0.747	0.636
-206.421	-66.150	0.802	0.316
-205.406	-21.284	-0.389	0.235
-204.392	94.872	0.302	0.340
-203.377	-23.498	-0.160	-0.095
-202.363	-118.453	-0.862	0.151
-201.348	-110.097	0.404	0.083
-200.333	176.489	0.113	-0.162
-199.319	-120.298	0.475	-0.080
-198.304	-200.000	-0.481	-0.002
-197.290	-126.936	0.157	-0.023
-196.275	-38.110	0.493	-0.258
-195.260	-200.000	0.050	-0.713
-194.246	800.000	0.036	-0.102
-193.231	132.482	0.216	-0.275
-192.217	-110.078	-0.278	-0.057
-191.202	90.255	0.669	0.738
-190.187	-39.703	-0.356	0.184
-189.173	-200.000	0.108	0.539
-188.158	346.104	-0.635	-1.231
-187.144	-200.000	0.257	-0.001
-186.129	60.859	0.148	-0.144
-185.114	368.954	-0.424	0.845
-184.100	-122.224	-0.545	-0.088
-183.085	18.526	-0.258	0.203
-182.071	-200.000	-0.037	-0.255
-181.056	-21.241	0.246	0.148
-180.042	234.651	-0.147	0.240
-179.027	-7.254	-0.878	0.587
-178.012	800.000	0.361	-1.166
-176.998	87.658	-0.131	-0.143
-175.983	800.000	0.293	-0.916
-174.969	-200.000	0.039	-0.298
-173.954	249.836	0.377	-0.631
-172.939	-33.350	-0.856	-0.467
-171.925	-41.391	0.393	0.199
-170.910	-106.410	-0.931	-0.205
-169.896	483.273	0.096	-0.214
-168.881	45.966	0.921	-0.839
-167.866	-116.616	-0.519	-0.094
-166.852	175.633	-0.131	-0.188
-165.837	-49.538	-0.467	0.219
-164.823	27.631	0.697	0.578
-163.808	106.691	0.534	0.624
-162.793	3.325	-0.273	0.196
-161.779	-80.247	-0.124	-0.041
-160.764	-34.769	0.642	-0.345
-159.750	345.126	-0.162	-0.314
-158.735	-134.044	-0.952	0.116
-157.720	-200.000	0.206	1.014
-156.706	8.595	0.605	0.449
-155.691	-37.130	0.466	-0.246
-154.677	483.548	0.192	-0.431
-153.662	676.693	0.397	-1.016
-152.647	263.402	0.153	-0.262
-151.633	291.219	0.525	-0.939
-150.618	-147.106	0.172	-0.014
-149.604	800.000	0.059	-0.221
-148.589	-63.842	-0.790	-0.318
-147.574	7.103	0.401	0.294
-146.560	41.468	-0.701	-0.625
-145.545	800.000	0.099	0.308
-144.531	150.654	-0.299	0.400
-143.516	-103.626	0.808	0.187
-142.502	-97.016	-1.001	0.258
-141.487	-200.000	-0.037	0.366
-140.472	-64.357	0.854	0.342
-139.458	800.000	-0.199	0.833
-138.443	-200.000	-0.007	0.147
-137.429	-67.577	-0.329	-0.127
-136.414	113.959	0.489	-0.586
-135.399	-200.000	0.071	-0.832
-134.385	202.561	-0.258	-0.392
-133.370	-102.175	0.565	0.134
-132.356	169.385	0.395	0.555
-131.341	212.195	0.280	0.434
-130.326	800.000	0.137	0.492
-129.312	-200.000	-0.175	-1.017
-128.297	645.674	-0.199	0.499
-127.283	715.632	0.211	0.550
-126.268	-73.831	-0.801	-0.286
-125.253	800.000	-0.231	-0.673
-124.239	27.254	0.533	0.440
-123.224	800.000	0.255	0.985
-122.210	39.052	0.207	0.182
-121.195	-200.000	-0.068	0.422
-120.180	31.742	-0.212	-0.179
-119.166	26.591	-0.249	0.205
-118.151	-200.000	0.190	0.849
-117.137	-200.000	0.314	1.914
-116.122	-88.247	0.438	-0.129
-115.107	114.807	0.429	0.514
-114.093	29.500	-0.328	0.274
-113.078	641.689	0.375	0.938
-112.064	-129.534	0.328	0.045
-111.049	570.810	0.249	0.595
-110.034	-1.645	-0.795	-0.551
-109.020	497.318	0.288	-0.651
-108.005	-80.138	-0.767	-0.253
-106.991	-63.926	0.395	-0.159
-105.976	42.802	0.199	0.178
-104.962	-200.000	0.062	0.475
-103.947	-155.882	0.304	-0.019
-102.932	299.330	-0.257	0.465
-101.918	96.202	-0.873	0.981
-100.903	-132.996	0.855	-0.107
-99.889	142.200	0.081	-0.106
-98.874	-200.000	-0.031	-0.400
-97.859	-162.455	0.215	0.010
-96.845	90.256	0.355	0.390
-95.830	11.677	0.336	0.253
-94.816	88.734	-0.194	0.212
-93.801	-29.274	-0.111	-0.063
-92.786	800.000	-0.065	0.183
-91.772	-113.201	0.894	-0.173
-90.757	-200.000	0.029	-0.163
-89.743	111.099	-0.113	-0.134
-88.728	5.463	-0.169	-0.123
-87.713	88.839	-0.139	0.152
-86.699	153.141	0.360	0.484
-85.684	42.353	0.105	-0.094
-84.670	14.057	0.317	-0.242
-83.655	-60.021	0.751	-0.315
-82.640	3.957	0.404	-0.290
-81.626	-45.899	0.935	-0.453
-80.611	161.000	0.728	-0.999
-79.597	-37.917	0.470	0.245
-78.582	274.945	0.122	-0.212
-77.567	498.667	-0.437	0.988
-76.553	32.785	0.170	0.144
-75.538	183.801	0.367	-0.533
-74.524	800.000	0.064	0.208
-73.509	800.000	-0.133	-0.462
-72.494	631.782	-0.173	0.431
-71.480	217.986	0.075	0.117
-70.465	783.345	-0.332	0.893
-69.451	47.726	-0.567	0.519
-68.436	-141.817	0.853	0.084
-67.422	-200.000	0.018	-0.081
-66.407	46.859	-0.160	-0.146
-65.392	-3.449	0.254	-0.173
-64.378	-38.616	-0.735	0.381
-63.363	96.085	0.419	0.470
-62.349	257.639	-0.242	0.409
-61.334	800.000	-0.554	-1.535
-60.319	240.073	0.478	0.782
-59.305	20.149	0.465	-0.368
-58.290	218.364	1.274	1.996
-57.276	-200.000	0.018	1.481
-56.261	-200.000	97.834	602.817
-55.246	634.823	1370.281	3410.209
-54.232	200.691	2546.615	3841.138
-53.217	111.887	2246.850	2661.695
-52.203	41.339	1880.399	1668.254
-51.188	35.059	1672.061	1436.429
-50.173	32.180	1630.606	1379.657
-49.159	51.363	1680.552	1565.237
-48.144	52.058	1695.520	1584.285
-47.130	34.872	1656.322	1421.291
-46.115	31.874	1641.908	1386.736
-45.100	31.778	1637.283	1382.066
-44.086	31.923	1633.689	1380.042
-43.071	31.738	1632.731	1377.817
-42.057	31.859	1629.443	1375.882
-41.042	31.700	1628.185	1373.596
-40.027	31.748	1625.409	1371.553
-39.013	31.611	1624.739	1369.930
-37.998	31.495	1623.072	1367.619
-36.984	31.586	1621.533	1366.934
-35.969	31.683	1619.997	1366.291
-34.954	31.813	1618.786	1366.165
-33.940	31.980	1615.454	1364.515
-32.925	31.754	1614.154	1361.720
-31.911	31.851	1612.004	1360.558
-30.896	31.697	1610.924	1358.469
-29.881	31.682	1609.213	1356.865
-28.867	31.738	1606.968	1355.322
-27.852	31.855	1606.246	1355.506
-26.838	31.923	1604.114	1354.150
-25.823	31.818	1603.891	1353.149
-24.809	31.762	1602.683	1351.669
-23.794	31.874	1600.653	1350.715
-22.779	32.001	1599.174	1350.325
-21.765	31.805	1597.816	1347.713
-20.750	31.833	1595.266	1345.713
-19.736	31.805	1594.998	1345.229
-18.721	32.031	1592.513	1344.698
-17.706	32.055	1591.258	1343.759
-16.692	31.778	1590.368	1340.972
-15.677	31.740	1588.907	1339.419
-14.663	31.904	1587.001	1338.925
-13.648	31.915	1584.856	1337.146
-12.633	31.833	1584.438	1336.151
-11.619	31.688	1582.786	1333.672
-10.604	31.696	1581.237	1332.371
-9.590	31.960	1580.407	1333.498
-8.575	31.837	1578.569	1331.023
-7.560	31.830	1577.240	1329.797
-6.546	32.070	1575.245	1329.759
-5.531	31.968	1575.084	1328.855
-4.517	31.886	1574.041	1327.335
-3.502	31.865	1573.011	1326.269
-2.487	31.926	1570.980	1324.936
-1.473	31.517	1559.717	1312.514
-0.458	28.636	1541.632	1277.228
0.556	26.755	1540.292	1245.396
1.571	24.138	1564.126	1246.268
2.586	23.382	1577.411	1251.411
3.600	20.904	1523.523	1191.628
4.615	12.484	1416.122	1053.779
5.629	4.737	1353.012	959.129
6.644	3.472	1345.391	945.890
7.659	3.591	1343.024	944.869
8.673	3.454	1342.143	943.327
9.688	3.164	1340.134	940.059
10.702	3.223	1336.864	938.045
11.717	6.452	1344.694	963.223
12.731	15.977	1360.104	1032.828
13.746	23.192	1372.806	1086.858
14.761	24.934	1373.350	1097.885
15.775	24.419	1374.144	1095.261
16.790	24.075	1371.823	1091.206
17.804	24.100	1369.418	1089.354
18.819	23.780	1369.881	1087.665
19.834	23.873	1369.126	1087.536
20.848	23.818	1368.885	1086.918
21.863	24.165	1366.825	1087.304
22.877	23.943	1365.880	1085.102
23.892	23.750	1365.722	1083.699
24.907	23.724	1365.243	1083.068
25.921	23.783	1363.839	1082.214
26.936	24.020	1363.293	1083.129
27.950	24.138	1361.230	1082.111
28.965	23.809	1361.231	1080.015
29.980	24.177	1358.402	1079.911
30.994	24.287	1357.678	1079.904
32.009	24.228	1358.670	1080.238
33.023	24.142	1356.520	1077.912
34.038	23.882	1355.375	1075.339
35.053	24.030	1354.452	1075.404
36.067	23.829	1353.962	1073.703
37.082	24.047	1351.873	1073.269
38.096	24.013	1351.627	1072.771
39.111	24.056	1350.410	1071.970
40.126	23.847	1350.538	1070.720
41.140	23.622	1349.840	1068.719
42.155	23.572	1349.629	1068.152
43.169	23.502	1346.647	1065.281
44.184	23.271	1349.905	1066.369
45.199	23.407	1348.430	1065.929
46.213	23.683	1347.965	1067.128
47.228	23.696	1347.038	1066.377
48.242	23.986	1345.622	1066.897
49.257	23.972	1343.863	1065.327
50.271	23.840	1343.024	1063.776
51.286	23.870	1342.519	1063.461
52.301	24.090	1338.779	1061.717
53.315	23.768	1339.533	1060.301
54.330	23.796	1338.557	1059.600
55.344	23.668	1337.784	1058.131
56.359	23.832	1336.483	1057.986
57.374	23.783	1335.474	1056.801
58.388	23.749	1334.972	1056.108
59.403	23.606	1334.126	1054.497
60.417	23.395	1333.006	1052.269
61.432	23.371	1332.816	1051.879
62.447	23.282	1332.754	1051.208
63.461	23.182	1331.248	1049.339
64.476	23.257	1330.506	1049.106
65.490	23.245	1328.474	1047.340
66.505	23.180	1327.283	1045.920
67.520	23.411	1325.557	1045.834
68.534	23.336	1324.604	1044.546
69.549	23.139	1323.784	1042.644
70.563	23.126	1323.504	1042.255
71.578	23.172	1322.351	1041.529
72.593	23.429	1320.273	1041.306
73.607	23.233	1319.502	1039.457
74.622	23.151	1319.732	1039.067
75.636	23.211	1318.997	1038.744
76.651	23.417	1318.196	1039.230
77.666	23.296	1318.323	1038.532
78.680	23.141	1317.488	1036.873
79.695	23.461	1316.405	1037.800
80.709	23.467	1316.908	1038.140
81.724	23.409	1316.458	1037.353
82.739	23.502	1315.855	1037.331
83.753	23.807	1315.116	1038.438
84.768	23.998	1313.706	1038.349
85.782	24.133	1313.645	1038.997
86.797	23.939	1312.704	1037.030
87.812	23.766	1311.263	1034.790
88.826	24.217	1308.959	1035.504
89.841	24.180	1309.342	1035.499
90.855	24.236	1307.020	1033.897
91.870	24.244	1307.119	1033.930
92.884	24.416	1306.865	1034.635
93.899	24.174	1305.840	1032.329
94.914	24.433	1304.743	1032.870
95.928	24.043	1304.475	1030.313
96.943	24.162	1303.124	1029.840
97.957	24.163	1303.075	1029.718
98.972	24.075	1301.557	1027.918
99.987	23.972	1301.201	1026.949
101.001	24.069	1300.182	1026.613
102.016	24.100	1298.338	1025.247
103.030	24.200	1297.364	1024.962
104.045	23.950	1297.444	1023.498
105.060	23.593	1295.311	1019.673
106.074	23.775	1293.767	1019.412
107.089	23.428	1291.670	1015.684
108.103	23.325	1291.328	1014.733
109.118	23.348	1290.147	1013.848
110.133	23.402	1288.553	1012.812
111.147	23.258	1286.563	1010.339
112.162	23.284	1286.053	1009.996
113.176	23.441	1285.801	1010.603
114.191	23.526	1285.069	1010.421
115.206	23.562	1284.598	1010.169
116.220	23.649	1283.225	1009.491
117.235	23.575	1281.805	1007.869
118.249	23.317	1280.789	1005.513
119.264	23.402	1279.138	1004.613
120.279	23.214	1278.905	1003.276
121.293	23.332	1277.712	1002.917
122.308	22.932	1277.861	1000.681
123.322	22.800	1277.076	999.230
124.337	22.966	1275.891	999.154
125.352	23.119	1274.234	998.631
126.366	22.916	1274.535	997.634
127.381	23.135	1272.397	997.107
128.395	22.946	1271.772	995.463
129.410	22.955	1270.933	994.768
130.424	22.706	1270.638	993.049
131.439	23.178	1268.592	994.015
132.454	23.413	1268.292	995.006
133.468	23.415	1268.401	995.020
134.483	23.427	1267.082	993.960
135.497	23.519	1266.954	994.289
136.512	23.524	1265.314	992.943
137.527	23.208	1265.290	991.067
138.541	23.227	1263.616	989.776
139.556	23.841	1261.876	991.752
140.570	23.631	1261.621	990.293
141.585	23.646	1261.343	990.071
142.600	23.803	1259.568	989.463
143.614	24.136	1259.653	991.297
144.629	24.125	1257.730	989.631
145.643	24.020	1256.935	988.337
146.658	24.157	1254.926	987.431
147.673	23.652	1255.300	984.835
148.687	23.422	1254.300	982.689
149.702	23.361	1253.245	981.436
150.716	23.410	1250.440	979.425
151.731	23.146	1249.172	976.886
152.746	23.367	1247.674	976.849
153.760	23.527	1247.436	977.456
154.775	23.398	1247.366	976.607
155.789	23.992	1245.877	978.623
156.804	23.766	1245.285	976.826
157.819	23.778	1244.541	976.225
158.833	23.750	1244.161	975.685
159.848	23.839	1243.028	975.195
160.862	23.929	1241.769	974.616
161.877	23.879	1239.965	972.840
162.892	23.244	1240.042	969.340
163.906	23.324	1238.275	968.312
164.921	23.170	1237.897	967.086
165.935	23.258	1238.305	967.803
166.950	23.467	1237.417	968.166
167.964	23.860	1235.133	968.432
168.979	23.345	1235.650	965.947
169.994	23.636	1234.146	966.268
171.008	23.250	1232.606	962.880
172.023	23.717	1233.109	965.726
173.037	23.931	1231.755	965.741
174.052	23.779	1232.206	965.186
175.067	23.645	1229.848	962.525
176.081	23.468	1229.098	960.896
177.096	23.166	1228.517	958.718
178.110	23.527	1227.061	959.451
179.125	23.318	1227.315	958.433
180.140	23.101	1226.807	956.777
181.154	23.593	1224.927	957.887
182.169	23.905	1223.695	958.515
183.183	23.699	1223.423	957.110
184.198	24.115	1221.407	957.684
185.213	24.027	1220.466	956.391
186.227	23.744	1219.728	954.208
187.242	24.023	1218.867	954.949
188.256	24.142	1217.678	954.566
189.271	24.303	1216.568	954.476
190.286	24.025	1216.068	952.514
191.300	23.598	1214.539	948.946
192.315	23.461	1214.554	948.144
193.329	23.458	1214.605	948.083
194.344	23.429	1213.047	946.629
195.359	23.240	1212.903	945.424
196.373	23.065	1212.271	943.909
197.388	23.214	1211.477	944.003
198.402	23.698	1211.928	946.852
199.417	24.355	1210.819	949.401
200.432	24.168	1211.193	948.617
201.446	24.245	1210.171	948.141
202.461	24.176	1208.615	946.469
203.475	24.091	1208.305	945.692
204.490	23.675	1208.123	943.260
205.504	23.524	1206.368	941.001
206.519	23.750	1203.955	940.233
207.534	23.471	1202.619	937.633
208.548	23.340	1202.593	936.833
209.563	23.240	1201.910	935.692
210.577	23.487	1200.014	935.437
211.592	23.438	1199.866	934.979
212.607	24.054	1200.004	938.250
213.621	24.067	1199.113	937.543
214.636	23.954	1197.847	935.875
215.650	23.506	1196.767	932.594
216.665	23.905	1196.477	934.381
217.680	24.009	1196.289	934.699
218.694	24.270	1194.386	934.496
219.709	23.999	1194.363	932.976
220.723	23.838	1193.845	931.645
221.738	23.983	1193.441	932.007
222.753	23.840	1192.376	930.344
223.767	23.748	1191.723	929.268
224.782	23.828	1191.586	929.502
225.796	24.192	1191.609	931.337
226.811	24.186	1189.322	929.438
227.826	24.056	1189.289	928.651
228.840	23.956	1187.950	927.001
229.855	23.925	1186.768	925.839
230.869	23.845	1186.684	925.274
231.884	23.484	1186.010	922.786
232.899	23.712	1184.867	923.003
233.913	23.592	1184.140	921.731
234.928	23.558	1183.469	920.950
235.942	23.558	1183.272	920.716
236.957	23.572	1181.938	919.670
237.972	23.103	1181.537	916.844
238.986	23.434	1179.289	916.729
240.001	23.527	1180.083	917.745
241.015	23.406	1179.359	916.478
242.030	23.395	1178.645	915.784
243.045	23.946	1177.036	917.298
244.059	23.648	1177.418	915.977
245.074	23.604	1177.222	915.516
246.088	23.905	1177.017	916.826
247.103	23.788	1175.952	915.315
248.117	24.419	1174.261	917.162
249.132	24.435	1173.700	916.723
250.147	24.503	1174.613	917.706
251.161	24.953	1173.351	918.948
252.176	24.928	1172.728	918.250
253.190	25.091	1171.977	918.417
254.205	24.989	1172.200	917.984
255.220	25.186	1170.942	917.927
256.234	24.616	1172.447	916.107
257.249	24.930	1170.536	916.137
258.263	24.693	1169.235	913.830
259.278	24.696	1169.172	913.713
260.293	24.967	1167.972	914.077
261.307	24.996	1166.785	913.215
262.322	25.218	1166.137	913.756
263.336	25.065	1165.865	912.684
264.351	24.874	1165.413	911.278
265.366	25.010	1164.561	911.223
266.380	24.941	1164.227	910.531
267.395	24.715	1164.519	909.531
268.409	24.473	1163.379	907.328
269.424	24.356	1162.055	905.619
270.439	24.727	1161.843	907.259
271.453	24.994	1160.206	907.253
272.468	24.438	1159.367	903.699
273.482	24.342	1159.027	902.873
274.497	24.259	1158.053	901.611
275.512	24.250	1157.720	901.228
276.526	24.251	1157.212	900.758
277.541	24.206	1155.750	899.312
278.555	24.461	1155.739	900.511
279.570	24.699	1155.147	901.168
280.585	24.825	1155.291	901.837
281.599	24.678	1153.778	899.836
282.614	24.818	1151.153	898.412
283.628	24.456	1150.413	895.939
284.643	24.264	1150.163	894.700
285.657	24.634	1149.039	895.603
286.672	24.392	1148.669	894.023
287.687	24.682	1147.392	894.401
288.701	24.468	1146.921	892.883
289.716	24.603	1146.303	893.000
290.730	24.478	1145.534	891.697
291.745	24.700	1144.748	892.112
292.760	24.646	1144.584	891.636
293.774	24.898	1144.200	892.516
294.789	24.707	1143.805	891.179
295.803	24.747	1144.253	891.648
296.818	24.710	1141.872	889.530
297.833	24.573	1141.472	888.455
298.847	24.545	1140.996	887.870
299.862	24.307	1140.476	886.204
300.876	24.791	1138.575	887.048
301.891	25.118	1138.425	888.473
302.906	25.066	1137.838	887.679
303.920	24.939	1138.007	887.101
304.935	25.165	1137.391	887.664
305.949	25.114	1137.055	887.068
306.964	25.160	1136.893	887.091
307.979	25.235	1134.390	885.433
308.993	24.682	1134.944	883.057
310.008	25.199	1133.616	884.495
311.022	25.161	1134.136	884.631
312.037	24.986	1131.989	882.016
313.052	25.046	1130.514	881.086
314.066	24.528	1130.704	878.609
315.081	24.436	1128.822	876.618
316.095	24.321	1127.773	875.162
317.110	24.576	1127.082	875.797
318.125	24.416	1127.044	874.906
319.139	24.276	1125.903	873.255
320.154	24.263	1124.993	872.409
321.168	24.312	1125.562	873.014
322.183	24.144	1124.642	871.401
323.197	24.510	1124.347	872.886
324.212	24.552	1123.784	872.575
325.227	24.538	1122.683	871.574
326.241	24.398	1123.037	871.091
327.256	24.232	1121.638	869.118
328.270	24.386	1120.813	869.151
329.285	24.428	1120.063	868.699
330.300	24.516	1119.404	868.536
331.314	24.656	1118.161	868.179
332.329	24.440	1117.428	866.483
333.343	24.128	1116.877	864.465
334.358	24.641	1115.518	865.822
335.373	25.038	1115.123	867.359
336.387	24.912	1113.530	865.434
337.402	24.916	1113.269	865.178
338.416	25.118	1113.323	866.116
339.431	24.951	1113.888	865.673
340.446	25.456	1112.867	867.242
341.460	25.343	1113.172	866.857
342.475	25.529	1111.076	866.044
343.489	25.546	1109.924	865.149
344.504	25.620	1109.956	865.453
345.519	25.590	1108.422	864.037
346.533	25.820	1107.262	864.162
347.548	25.969	1107.615	865.074
348.562	25.458	1106.211	861.451
349.577	24.905	1105.921	858.502
350.592	25.079	1104.003	857.768
351.606	24.908	1103.728	856.661
352.621	24.830	1102.157	854.992
353.635	24.707	1101.809	854.059
354.650	24.728	1101.901	854.158
355.665	24.735	1100.934	853.365
356.679	25.106	1099.875	854.237
357.694	25.064	1100.327	854.312
358.708	25.371	1098.772	854.488
359.723	25.249	1099.346	854.277
360.738	24.965	1098.582	852.256
361.752	25.224	1098.014	852.976
362.767	25.019	1096.891	851.052
363.781	24.864	1097.139	850.435
364.796	25.050	1096.724	850.917
365.810	25.491	1096.385	852.671
366.825	26.094	1094.099	853.676
367.840	25.886	1094.878	853.223
368.854	25.744	1095.166	852.700
369.869	25.901	1093.831	852.325
370.883	25.354	1093.103	849.096
371.898	25.317	1092.466	848.353
372.913	25.526	1090.836	847.997
373.927	25.574	1091.079	848.339
374.942	26.042	1090.436	849.969
375.956	25.834	1089.405	848.112
376.971	25.756	1088.917	847.289
377.986	25.622	1088.366	846.153
379.000	25.708	1088.822	846.840
380.015	25.867	1088.091	846.942
381.029	26.126	1086.780	847.062
382.044	25.788	1086.396	845.103
383.059	26.026	1085.346	845.326
384.073	26.221	1084.320	845.366
385.088	25.846	1083.979	843.271
386.102	26.025	1083.025	843.290
387.117	25.460	1081.830	839.645
388.132	25.337	1080.706	838.124
389.146	24.902	1080.718	836.031
390.161	25.122	1079.773	836.251
391.175	25.280	1078.922	836.256
392.190	25.558	1078.363	837.040
393.205	25.829	1078.028	837.968
394.219	25.585	1077.234	836.141
395.234	25.734	1075.974	835.784
396.248	25.422	1075.735	834.075
397.263	25.255	1073.455	831.461
398.278	25.315	1073.417	831.634
399.292	25.069	1073.063	830.145
400.307	25.574	1071.920	831.525
401.321	25.310	1071.011	829.527
402.336	25.055	1069.276	826.933
403.350	25.234	1068.943	827.427
404.365	25.449	1068.771	828.213
405.380	25.266	1068.670	827.218
406.394	25.476	1067.982	827.580
407.409	25.780	1067.511	828.540
408.423	25.730	1068.083	828.680
409.438	26.133	1066.489	829.222
410.453	25.991	1065.685	827.870
411.467	25.810	1066.036	827.241
412.482	26.045	1064.483	827.039
413.496	26.071	1063.614	826.410
414.511	26.094	1063.461	826.323
415.526	26.354	1062.824	826.945
416.540	26.325	1063.892	827.568
417.555	26.534	1062.202	827.137
418.569	26.163	1060.935	824.382
419.584	26.204	1060.531	824.183
420.599	25.992	1060.568	823.172
421.613	154.561	1404.298	1794.433
422.628	142.067	1454.341	1794.462
