DTS Sentinel unit serial number:	SN413079Multiplexer serial number:	ORYXHardware model number:	OX4-SRSoftware version number:	ORYX F/W v4.00 Oryx Data Collector v3.7.2.0data status	okinstallation	princeton_trtdifferential loss correction	single-endedforward channel	channel 2reverse channel	N/Adate	2019/09/13time	20:35:34forward acquisition time	60.00reverse acquisition time	0.00gamma	496.2192k internal	0.2334k external	0.2334temperature offset calibration	1.0135default loss term (dB/km)	0.3790temperature slope calibration	1.0000multiplexer offset coefficient	1.0000multiplexer slope coefficient	1.0000fibre end	0.00T internal ref (°C)	29.00T ext. ref 1 (°C)	3.25T ext. ref 2 (°C)	23.69length (m)	temperature (°C)	Stokes	anti-Stokes-747.200	34.659	0.269	-0.237
-746.185	65.029	0.155	-0.158
-745.171	154.783	0.183	0.253
-744.156	302.347	-0.082	0.152
-743.142	-200.000	-0.012	0.417
-742.127	-25.233	0.186	-0.111
-741.112	64.655	-0.161	-0.163
-740.098	140.498	-0.160	0.212
-739.083	800.000	-0.049	0.141
-738.069	0.874	0.072	-0.052
-737.054	47.297	-0.029	0.027
-736.039	-137.675	0.045	0.005
-735.025	-60.759	0.365	-0.155
-734.010	-72.214	0.147	0.055
-732.996	-200.000	-0.006	0.070
-731.981	406.164	-0.057	0.121
-730.966	-18.347	0.307	-0.193
-729.952	-124.652	-0.173	-0.027
-728.937	-51.379	-0.289	-0.136
-727.923	463.579	0.298	-0.668
-726.908	8.695	-0.174	0.132
-725.894	800.000	0.014	-0.058
-724.879	6.404	0.069	0.051
-723.864	-67.865	-0.163	-0.064
-722.850	-30.063	0.180	-0.103
-721.835	23.036	-0.298	-0.245
-720.821	-51.414	0.090	-0.042
-719.806	-117.156	0.384	0.070
-718.791	-172.146	0.347	0.011
-717.777	-200.000	-0.037	-0.211
-716.762	-200.000	0.002	0.173
-715.748	275.724	-0.066	0.118
-714.733	455.955	0.096	0.213
-713.718	-134.581	0.164	-0.020
-712.704	-11.049	-0.111	0.073
-711.689	-96.633	-0.044	0.012
-710.675	-200.000	-0.008	-0.299
-709.660	-16.866	-0.369	-0.234
-708.645	-200.000	0.000	-0.267
-707.631	119.956	-0.098	0.122
-706.616	-11.539	-0.165	0.109
-705.602	5.735	-0.233	0.173
-704.587	-22.399	0.153	-0.093
-703.572	800.000	-0.124	-0.436
-702.558	-157.356	0.048	0.003
-701.543	-200.000	0.029	-0.311
-700.529	213.918	0.051	-0.080
-699.514	-130.095	0.227	-0.031
-698.499	-200.000	-0.010	-0.251
-697.485	133.847	-0.056	0.073
-696.470	-200.000	0.028	-0.154
-695.456	-184.967	-0.105	0.002
-694.441	-18.082	0.274	0.172
-693.426	62.692	-0.165	-0.166
-692.412	27.827	-0.032	0.027
-691.397	-200.000	0.069	-0.307
-690.383	-50.204	0.126	-0.060
-689.368	10.747	-0.142	0.108
-688.354	89.798	0.293	0.329
-687.339	-88.981	0.068	-0.020
-686.324	562.833	0.052	-0.127
-685.310	-99.007	0.186	-0.047
-684.295	-45.160	-0.430	-0.214
-683.281	-200.000	-0.030	-0.149
-682.266	800.000	0.043	-0.173
-681.251	800.000	0.016	0.044
-680.237	165.853	0.263	-0.373
-679.222	10.680	-0.190	0.146
-678.208	-89.022	0.328	-0.097
-677.193	161.692	-0.237	-0.333
-676.178	-89.800	-0.297	0.087
-675.164	-200.000	0.008	-0.052
-674.149	-200.000	0.008	0.387
-673.135	-29.337	0.196	-0.112
-672.120	120.980	-0.261	0.325
-671.105	-200.000	0.006	-0.120
-670.091	-19.016	-0.178	-0.111
-669.076	-23.790	-0.088	-0.053
-668.062	-115.969	0.380	-0.071
-667.047	50.057	-0.115	0.109
-666.032	800.000	0.078	-0.219
-665.018	800.000	-0.130	-0.433
-664.003	83.466	-0.271	-0.295
-662.989	800.000	-0.051	-0.199
-661.974	132.888	0.183	-0.236
-660.959	344.606	-0.144	-0.284
-659.945	-76.095	0.157	-0.055
-658.930	800.000	-0.085	-0.283
-657.916	580.085	-0.126	-0.310
-656.901	515.343	-0.114	-0.267
-655.886	-200.000	-0.002	-0.264
-654.872	79.434	0.197	0.211
-653.857	160.433	-0.114	0.159
-652.843	-200.000	-0.018	0.291
-651.828	88.519	-0.213	-0.237
-650.814	286.678	0.122	-0.221
-649.799	28.023	-0.118	0.100
-648.784	-152.885	0.353	-0.025
-647.770	-53.773	0.236	-0.108
-646.755	216.461	-0.240	-0.382
-645.741	202.400	0.088	0.136
-644.726	800.000	0.093	0.327
-643.711	-107.963	0.173	-0.038
-642.697	118.193	-0.138	-0.170
-641.682	-148.281	0.190	0.016
-640.668	213.018	-0.045	-0.070
-639.653	135.132	0.161	-0.210
-638.638	-38.721	-0.081	0.043
-637.624	-53.748	-0.105	-0.048
-636.609	-99.461	0.260	-0.066
-635.595	93.756	-0.029	0.033
-634.580	21.954	0.018	-0.014
-633.565	-188.770	0.203	0.002
-632.551	46.819	0.164	0.152
-631.536	-61.568	-0.325	0.137
-630.522	-100.752	0.289	0.071
-629.507	-185.457	-0.347	0.005
-628.492	-120.415	-0.165	-0.028
-627.478	800.000	-0.078	-0.287
-626.463	47.053	0.069	0.065
-625.449	-71.614	-0.108	-0.040
-624.434	-200.000	-0.028	0.171
-623.419	5.104	0.235	-0.173
-622.405	-200.000	-0.002	-0.036
-621.390	-64.400	-0.222	-0.090
-620.376	234.164	0.087	-0.143
-619.361	-200.000	-0.027	0.478
-618.346	-114.568	-0.117	0.022
-617.332	800.000	-0.038	0.156
-616.317	127.575	0.039	-0.049
-615.303	-200.000	-0.063	0.564
-614.288	-197.581	-0.260	-0.002
-613.273	332.250	0.066	-0.128
-612.259	-15.127	-0.251	-0.160
-611.244	-103.210	0.126	0.030
-610.230	-85.202	0.186	0.058
-609.215	158.358	0.130	-0.181
-608.201	800.000	-0.133	-0.394
-607.186	-200.000	0.000	-0.042
-606.171	-84.558	0.215	-0.068
-605.157	-200.000	0.004	0.024
-604.142	502.205	-0.097	-0.223
-603.128	15.505	0.068	-0.053
-602.113	800.000	0.080	0.299
-601.098	76.010	-0.058	0.061
-600.084	-86.293	0.089	0.027
-599.069	-117.080	-0.056	0.010
-598.055	-200.000	0.007	-0.336
-597.040	245.439	0.186	-0.314
-596.025	-171.776	-0.376	0.012
-595.011	-111.434	0.469	-0.095
-593.996	800.000	-0.067	0.218
-592.982	-108.246	-0.055	-0.012
-591.967	2.512	0.333	0.241
-590.952	-91.044	0.054	0.015
-589.938	-73.089	0.016	-0.006
-588.923	-188.321	-0.138	0.002
-587.909	291.179	0.095	-0.173
-586.894	-57.760	-0.220	-0.096
-585.879	67.300	-0.089	-0.091
-584.865	-37.306	0.171	-0.091
-583.850	115.267	0.082	-0.101
-582.836	-200.000	-0.058	0.270
-581.821	73.213	0.075	0.078
-580.806	-138.391	-0.750	0.083
-579.792	100.437	0.117	-0.136
-578.777	353.503	0.196	0.389
-577.763	-145.650	-0.303	0.027
-576.748	131.103	0.142	0.182
-575.733	-200.000	-0.011	-0.096
-574.719	-166.896	-0.334	-0.014
-573.704	450.485	0.055	0.122
-572.690	-200.000	-0.017	-0.145
-571.675	453.583	-0.149	0.330
-570.661	-48.164	-0.128	-0.062
-569.646	-120.515	0.269	-0.046
-568.631	129.529	0.254	0.323
-567.617	368.536	-0.099	0.201
-566.602	-68.136	-0.327	-0.127
-565.588	-8.179	-0.059	-0.040
-564.573	-6.484	0.125	-0.085
-563.558	800.000	-0.087	0.267
-562.544	51.073	-0.370	0.351
-561.529	699.499	0.088	-0.232
-560.515	-98.560	-0.126	0.032
-559.500	-95.539	0.301	-0.081
-558.485	-200.000	0.005	-0.105
-557.471	222.149	-0.097	-0.156
-556.456	79.995	0.072	0.077
-555.442	41.373	-0.232	-0.210
-554.427	-135.357	-0.301	0.036
-553.412	-15.966	-0.089	-0.057
-552.398	434.845	-0.111	-0.241
-551.383	-26.040	-0.102	0.060
-550.369	-150.545	-0.372	0.028
-549.354	-40.146	0.310	-0.161
-548.339	-81.994	0.277	0.090
-547.325	-110.668	-0.061	-0.013
-546.310	560.652	-0.034	0.083
-545.296	-153.427	0.092	0.006
-544.281	-55.551	-0.121	0.054
-543.266	-126.473	-0.195	-0.029
-542.252	800.000	0.037	-0.119
-541.237	-49.670	-0.216	-0.103
-540.223	-200.000	0.002	0.159
-539.208	-79.888	0.286	-0.096
-538.193	15.057	-0.046	0.036
-537.179	334.099	0.177	0.342
-536.164	-45.920	0.047	-0.023
-535.150	99.502	-0.078	0.090
-534.135	-76.183	0.338	0.119
-533.121	-71.603	0.190	0.071
-532.106	5.726	0.106	-0.078
-531.091	23.502	0.273	-0.223
-530.077	-103.094	-0.099	0.023
-529.062	-21.513	-0.093	0.057
-528.048	115.050	0.275	-0.334
-527.033	-131.668	0.141	0.018
-526.018	69.979	-0.062	-0.064
-525.004	-87.321	-0.057	-0.017
-523.989	14.123	-0.195	-0.151
-522.975	800.000	0.080	0.238
-521.960	800.000	-0.057	0.169
-520.945	-158.286	-0.145	-0.008
-519.931	101.445	0.249	-0.289
-518.916	-134.106	0.126	-0.016
-517.902	-89.566	0.443	-0.130
-516.887	4.124	-0.168	-0.123
-515.872	-95.624	-0.123	-0.033
-514.858	122.662	0.078	0.097
-513.843	-15.066	-0.181	0.116
-512.829	-157.599	0.156	-0.009
-511.814	-137.719	-0.366	-0.041
-510.799	-200.000	-0.017	-0.232
-509.785	35.004	-0.119	0.104
-508.770	413.789	0.118	-0.249
-507.756	417.680	0.034	-0.072
-506.741	440.245	-0.130	-0.284
-505.726	-113.956	0.226	-0.044
-504.712	800.000	-0.051	-0.217
-503.697	-58.393	-0.380	0.164
-502.683	135.494	0.087	-0.113
-501.668	-23.905	-0.101	-0.060
-500.653	-30.304	-0.160	-0.091
-499.639	327.591	0.024	0.045
-498.624	-52.421	0.119	0.055
-497.610	411.189	-0.114	-0.241
-496.595	-191.015	-0.389	0.004
-495.581	14.948	-0.095	0.074
-494.566	365.796	0.096	0.192
-493.551	800.000	-0.074	0.310
-492.537	-21.409	-0.252	0.153
-491.522	23.913	0.185	0.152
-490.508	264.491	-0.029	-0.050
-489.493	91.277	0.135	-0.151
-488.478	107.721	0.199	-0.236
-487.464	800.000	-0.042	0.174
-486.449	-187.210	-0.221	0.003
-485.435	-49.896	-0.222	0.105
-484.420	-61.117	0.127	-0.053
-483.405	22.000	-0.205	-0.166
-482.391	800.000	-0.039	-0.128
-481.376	40.319	-0.262	-0.235
-480.362	-114.904	-0.266	-0.050
-479.347	384.919	0.028	0.058
-478.332	155.849	0.097	0.133
-477.318	-64.637	-0.122	-0.049
-476.303	800.000	-0.018	-0.071
-475.289	50.278	-0.148	-0.139
-474.274	57.059	-0.199	-0.193
-473.259	-52.002	-0.229	0.106
-472.245	-70.314	0.199	0.075
-471.230	-64.097	-0.283	0.115
-470.216	-140.446	0.217	-0.023
-469.201	-15.565	0.159	0.101
-468.186	800.000	-0.136	-0.491
-467.172	-69.188	0.205	0.078
-466.157	-99.091	-0.132	0.033
-465.143	202.058	0.019	-0.030
-464.128	66.131	-0.062	0.063
-463.113	390.047	-0.053	0.109
-462.099	-51.477	-0.108	-0.050
-461.084	174.549	0.173	-0.249
-460.070	14.197	0.194	0.151
-459.055	800.000	0.056	-0.232
-458.040	800.000	-0.035	-0.131
-457.026	800.000	-0.050	0.145
-456.011	94.397	-0.210	0.237
-454.997	429.215	-0.057	-0.123
-453.982	439.968	0.125	0.270
-452.968	70.675	-0.203	-0.209
-451.953	471.230	-0.081	-0.180
-450.938	-5.357	-0.087	-0.059
-449.924	444.387	0.068	-0.148
-448.909	800.000	0.015	0.042
-447.895	79.433	-0.002	0.002
-446.880	9.414	0.282	0.212
-445.865	493.153	0.106	0.240
-444.851	207.829	-0.217	0.336
-443.836	-117.139	-0.334	-0.060
-442.822	374.436	-0.067	-0.136
-441.807	237.136	-0.046	-0.076
-440.792	800.000	0.046	0.157
-439.778	138.058	0.085	0.111
-438.763	-97.704	0.105	0.027
-437.749	110.303	-0.108	0.129
-436.734	-157.394	-0.170	0.010
-435.719	384.537	0.063	-0.128
-434.705	-67.218	0.358	-0.140
-433.690	-103.054	-0.127	-0.030
-432.676	-139.205	0.329	-0.035
-431.661	-22.311	0.286	0.172
-430.646	-111.196	-0.153	0.031
-429.632	11.003	-0.154	0.117
-428.617	-200.000	0.010	0.126
-427.603	-92.649	-0.244	-0.068
-426.588	-39.750	-0.285	-0.148
-425.573	-151.032	-0.302	0.023
-424.559	-45.334	0.081	-0.040
-423.544	-11.546	0.094	-0.062
-422.530	-58.975	-0.256	0.110
-421.515	30.221	-0.023	0.020
-420.500	-171.142	0.260	0.009
-419.486	800.000	-0.091	-0.308
-418.471	83.880	-0.167	-0.181
-417.457	545.324	-0.041	-0.098
-416.442	25.387	0.155	-0.128
-415.428	75.830	-0.368	-0.386
-414.413	-104.587	-0.320	-0.073
-413.398	-155.159	0.267	-0.017
-412.384	-181.644	0.133	-0.003
-411.369	-200.000	-0.029	0.221
-410.355	-52.560	-0.064	-0.029
-409.340	-194.944	-0.140	0.001
-408.325	-200.000	0.029	-0.344
-407.311	-16.183	0.320	0.202
-406.296	77.363	-0.181	0.191
-405.282	33.448	0.108	-0.093
-404.267	800.000	-0.030	-0.122
-403.252	-55.087	0.291	0.130
-402.238	454.439	-0.027	-0.058
-401.223	-83.470	-0.207	0.066
-400.209	-141.602	-0.396	-0.040
-399.194	800.000	-0.039	-0.138
-398.179	-136.252	0.054	-0.006
-397.165	474.121	-0.091	0.202
-396.150	217.679	0.184	-0.291
-395.136	259.656	0.037	0.063
-394.121	-131.134	-0.278	-0.037
-393.106	440.224	0.127	-0.275
-392.092	158.531	0.044	0.060
-391.077	-14.112	0.234	0.149
-390.063	321.666	-0.100	-0.188
-389.048	800.000	-0.048	0.163
-388.033	322.376	-0.107	-0.201
-387.019	-35.612	-0.112	0.060
-386.004	-7.114	0.328	0.221
-384.990	-57.207	-0.155	-0.067
-383.975	358.631	0.047	0.094
-382.960	-5.063	-0.146	-0.099
-381.946	-45.080	0.148	0.073
-380.931	-21.385	-0.214	0.129
-379.917	-200.000	0.017	0.175
-378.902	72.637	-0.160	-0.165
-377.888	105.327	-0.038	-0.045
-376.873	-87.074	0.300	0.090
-375.858	-200.000	-0.020	0.320
-374.844	-65.667	-0.132	-0.052
-373.829	46.307	0.337	0.310
-372.815	-116.437	-0.224	0.041
-371.800	407.965	-0.119	-0.250
-370.785	-83.092	-0.366	0.117
-369.771	64.850	-0.175	-0.175
-368.756	-139.685	0.131	-0.014
-367.742	-74.805	-0.071	0.025
-366.727	-85.080	-0.305	0.094
-365.712	389.477	-0.122	0.250
-364.698	14.153	0.213	-0.164
-363.683	-4.401	-0.128	-0.088
-362.669	-200.000	0.032	0.183
-361.654	-11.701	0.228	-0.148
-360.639	800.000	0.045	0.136
-359.625	140.298	0.046	0.060
-358.610	9.402	-0.092	-0.069
-357.596	160.659	-0.233	-0.322
-356.581	-200.000	0.029	0.132
-355.566	-66.626	0.221	0.087
-354.552	-125.493	-0.078	-0.012
-353.537	-57.176	-0.249	-0.108
-352.523	-21.860	-0.231	-0.139
-351.508	-200.000	-0.017	-0.291
-350.493	-42.136	0.119	-0.060
-349.479	1.729	-0.105	0.075
-348.464	52.737	0.223	0.211
-347.450	-119.436	-0.206	0.035
-346.435	-200.000	-0.002	-0.045
-345.420	-47.674	0.362	-0.174
-344.406	-200.000	0.004	0.193
-343.391	268.369	0.094	0.163
-342.377	-117.049	-0.390	-0.070
-341.362	-15.776	0.200	-0.126
-340.348	22.236	-0.200	0.162
-339.333	-20.521	0.244	-0.148
-338.318	305.727	-0.056	0.103
-337.304	-200.000	-0.003	0.218
-336.289	-200.000	0.045	-0.286
-335.275	-63.379	-0.209	-0.085
-334.260	-112.362	0.301	-0.060
-333.245	-32.365	-0.092	0.051
-332.231	75.268	0.242	0.253
-331.216	76.016	0.052	0.054
-330.202	800.000	0.075	0.252
-329.187	-68.059	0.453	-0.175
-328.172	-55.566	0.279	-0.124
-327.158	250.506	0.048	-0.081
-326.143	-107.195	-0.315	0.069
-325.129	52.766	-0.105	0.099
-324.114	168.251	0.302	0.426
-323.099	259.954	0.106	0.181
-322.085	-200.000	0.025	-0.295
-321.070	-200.000	0.076	-0.384
-320.056	-200.000	0.009	0.389
-319.041	-200.000	0.078	0.349
-318.026	95.245	-0.030	0.034
-317.012	-5.338	0.386	0.262
-315.997	166.906	0.057	-0.080
-314.983	-44.763	-0.259	0.128
-313.968	49.228	0.263	-0.245
-312.953	302.581	-0.171	-0.312
-311.939	800.000	0.082	-0.236
-310.924	-200.000	-0.000	-0.014
-309.910	-200.000	0.044	0.313
-308.895	222.949	0.082	0.131
-307.880	-135.151	0.302	0.036
-306.866	-78.827	0.179	0.060
-305.851	-86.704	0.211	0.064
-304.837	262.459	-0.094	-0.162
-303.822	74.779	0.160	-0.167
-302.807	299.470	-0.116	-0.211
-301.793	-20.055	0.083	0.050
-300.778	295.087	0.149	-0.269
-299.764	104.318	-0.170	0.198
-298.749	141.962	0.157	0.205
-297.735	-200.000	-0.017	0.142
-296.720	219.820	-0.099	-0.157
-295.705	322.613	0.166	-0.312
-294.691	270.613	0.104	0.180
-293.676	208.084	-0.078	0.120
-292.662	-119.315	-0.334	-0.057
-291.647	-2.012	-0.081	-0.056
-290.632	72.426	-0.224	0.231
-289.618	-200.000	-0.005	0.103
-288.603	189.996	0.046	-0.069
-287.589	-200.000	-0.038	0.412
-286.574	-23.425	0.197	0.117
-285.559	143.648	0.176	-0.231
-284.545	99.618	-0.138	-0.158
-283.530	442.414	-0.060	-0.131
-282.516	232.436	0.273	-0.443
-281.501	85.860	0.138	0.149
-280.486	-200.000	0.036	0.220
-279.472	-81.362	0.458	-0.149
-278.457	53.330	0.032	0.031
-277.443	-195.366	-0.145	0.001
-276.428	298.288	0.213	0.387
-275.413	-97.854	-0.025	0.006
-274.399	382.839	-0.108	-0.219
-273.384	-78.937	-0.099	0.033
-272.370	-200.000	-0.011	0.302
-271.355	-200.000	0.017	0.132
-270.340	-200.000	-0.022	0.131
-269.326	108.879	0.105	0.124
-268.311	-200.000	0.001	-0.042
-267.297	247.098	0.112	-0.187
-266.282	-200.000	0.044	-0.220
-265.267	139.887	-0.122	0.159
-264.253	66.518	-0.120	0.120
-263.238	34.710	-0.300	0.259
-262.224	-109.007	0.295	0.062
-261.209	140.556	-0.135	-0.175
-260.195	-156.061	-0.266	0.017
-259.180	678.049	-0.108	-0.277
-258.165	129.794	0.168	-0.212
-257.151	500.648	0.034	-0.078
-256.136	-116.321	-0.083	0.015
-255.122	-200.000	0.008	-0.067
-254.107	57.232	-0.171	0.165
-253.092	-139.028	0.239	0.026
-252.078	-200.000	-0.013	-0.096
-251.063	-112.907	0.217	0.042
-250.049	607.715	0.196	0.482
-249.034	632.625	-0.114	0.284
-248.019	211.235	-0.133	-0.207
-247.005	636.299	0.085	-0.214
-245.990	-84.901	0.081	0.025
-244.976	-59.309	-0.043	0.018
-243.961	-200.000	-0.002	-0.068
-242.946	32.012	-0.083	0.070
-241.932	-200.000	-0.006	0.133
-240.917	-200.000	0.071	-0.321
-239.903	-200.000	0.019	0.089
-238.888	241.533	-0.068	-0.111
-237.873	-200.000	-0.055	-0.285
-236.859	-36.658	0.162	0.086
-235.844	-133.998	0.124	-0.015
-234.830	376.049	0.065	-0.132
-233.815	276.256	0.129	-0.226
-232.800	-79.179	0.189	-0.063
-231.786	-82.821	-0.086	0.027
-230.771	-134.202	0.283	-0.034
-229.757	629.320	0.036	-0.090
-228.742	-200.000	-0.022	0.277
-227.727	800.000	-0.044	0.125
-226.713	42.709	-0.301	0.270
-225.698	21.412	0.212	-0.169
-224.684	96.839	-0.189	-0.214
-223.669	655.847	-0.033	-0.085
-222.655	355.886	-0.117	-0.229
-221.640	-193.271	0.158	-0.001
-220.625	-45.146	-0.204	-0.100
-219.611	311.966	0.195	0.361
-218.596	-179.640	0.168	0.004
-217.582	-159.812	0.265	0.014
-216.567	-200.000	0.198	-0.001
-215.552	-56.986	0.226	-0.098
-214.538	800.000	0.036	0.112
-213.523	291.503	0.070	-0.125
-212.509	45.923	0.147	0.134
-211.494	344.110	-0.086	0.165
-210.479	-163.114	0.203	-0.010
-209.465	-20.862	-0.131	-0.079
-208.450	155.185	-0.281	0.380
-207.436	27.372	0.230	0.190
-206.421	75.080	0.229	0.238
-205.406	-97.293	0.176	-0.045
-204.392	137.018	-0.089	0.115
-203.377	11.764	0.154	0.116
-202.363	19.181	0.125	-0.099
-201.348	161.053	-0.044	-0.060
-200.333	55.396	0.190	0.181
-199.319	800.000	0.121	-0.330
-198.304	-200.000	-0.025	-0.254
-197.290	148.066	-0.041	-0.054
-196.275	-78.381	-0.283	-0.095
-195.260	800.000	0.018	0.072
-194.246	-182.510	-0.141	0.003
-193.231	185.463	0.305	0.446
-192.217	-200.000	0.036	0.170
-191.202	-134.130	0.173	0.021
-190.187	273.026	-0.028	-0.048
-189.173	-145.334	0.160	0.014
-188.158	800.000	0.004	0.013
-187.144	-164.794	0.269	-0.012
-186.129	-37.953	0.049	-0.026
-185.114	-123.876	-0.295	0.046
-184.100	-200.000	-0.005	0.092
-183.085	-104.388	-0.124	0.028
-182.071	-200.000	-0.047	0.244
-181.056	266.437	-0.132	-0.226
-180.042	315.978	-0.170	-0.316
-179.027	-173.107	0.244	0.007
-178.012	-98.998	-0.205	0.051
-176.998	417.694	0.140	0.294
-175.983	81.781	0.255	0.272
-174.969	-29.385	-0.305	0.172
-173.954	-200.000	0.010	0.063
-172.939	348.905	0.189	-0.367
-171.925	218.977	0.152	-0.238
-170.910	310.040	0.057	0.104
-169.896	-92.348	-0.225	0.062
-168.881	82.595	-0.066	-0.070
-167.866	-8.809	0.170	0.112
-166.852	800.000	0.014	0.044
-165.837	8.227	-0.206	-0.152
-164.823	800.000	-0.035	-0.136
-163.808	-134.247	0.251	-0.030
-162.793	-56.581	0.176	-0.077
-161.779	-25.240	-0.101	0.059
-160.764	102.648	-0.234	-0.269
-159.750	-24.562	0.127	-0.074
-158.735	34.629	-0.234	0.201
-157.720	-200.000	0.060	0.322
-156.706	330.609	-0.110	0.208
-155.691	-140.483	-0.476	-0.049
-154.677	-5.830	0.154	0.103
-153.662	-41.741	0.138	0.070
-152.647	-172.052	-0.055	0.002
-151.633	-22.027	-0.336	-0.200
-150.618	592.590	0.066	0.161
-149.604	353.135	0.089	0.174
-148.589	27.341	0.178	0.147
-147.574	375.393	0.120	-0.240
-146.560	800.000	0.080	0.330
-145.545	36.230	0.076	-0.066
-144.531	-89.970	-0.094	-0.027
-143.516	800.000	0.058	-0.197
-142.502	-74.834	-0.292	-0.103
-141.487	-192.909	-0.398	-0.004
-140.472	349.422	-0.123	0.239
-139.458	-200.000	0.007	0.258
-138.443	259.992	0.109	0.185
-137.429	800.000	-0.052	-0.152
-136.414	-121.947	0.077	0.012
-135.399	-84.651	-0.194	0.060
-134.385	800.000	-0.055	0.163
-133.370	184.613	-0.087	-0.127
-132.356	-34.329	-0.210	-0.113
-131.341	3.051	0.015	0.011
-130.326	637.932	-0.108	-0.270
-129.312	800.000	0.039	0.123
-128.297	39.149	-0.225	-0.197
-127.283	800.000	-0.037	0.140
-126.268	117.299	-0.097	0.117
-125.253	4.801	-0.064	-0.046
-124.239	-82.176	0.124	-0.040
-123.224	-200.000	-0.011	0.143
-122.210	-66.778	0.026	0.010
-121.195	-81.984	0.090	-0.029
-120.180	153.242	-0.069	0.093
-119.166	-73.118	0.229	0.082
-118.151	-30.287	0.178	0.099
-117.137	-200.000	-0.061	-0.289
-116.122	-108.080	0.376	0.080
-115.107	-200.000	-0.036	-0.239
-114.093	-200.000	-0.073	-0.343
-113.078	-83.415	0.382	-0.120
-112.064	96.726	0.142	0.160
-111.049	-172.992	-0.187	0.006
-110.034	-25.858	-0.382	0.221
-109.020	-52.130	-0.203	0.092
-108.005	-200.000	-0.002	0.421
-106.991	338.128	0.049	-0.093
-105.976	261.343	0.119	0.202
-104.962	-148.667	-0.165	-0.013
-103.947	-200.000	-0.005	0.153
-102.932	-7.438	0.177	-0.117
-101.918	800.000	-0.087	0.241
-100.903	-120.510	-0.131	-0.022
-99.889	-81.917	0.429	0.138
-98.874	255.838	0.116	-0.196
-97.859	145.261	0.207	-0.272
-96.845	605.029	0.194	-0.473
-95.830	-97.457	-0.249	-0.064
-94.816	800.000	-0.024	-0.103
-93.801	63.912	-0.126	0.124
-92.786	-25.111	0.209	0.121
-91.772	220.520	0.149	0.233
-90.757	207.692	0.094	-0.144
-89.743	160.840	0.123	0.168
-88.728	-71.867	-0.234	0.085
-87.713	-200.000	0.042	0.232
-86.699	-22.689	-0.298	0.177
-85.684	800.000	-0.152	0.464
-84.670	-61.116	0.233	0.096
-83.655	-200.000	0.021	-0.114
-82.640	-133.586	-0.293	0.036
-81.626	-144.156	-0.097	-0.009
-80.611	87.254	-0.270	-0.293
-79.597	-61.702	0.207	-0.085
-78.582	347.516	-0.125	-0.242
-77.567	278.507	0.098	-0.172
-76.553	-1.859	0.041	0.028
-75.538	56.148	0.263	-0.250
-74.524	79.482	-0.102	0.108
-73.509	-60.480	-0.128	-0.053
-72.494	7.583	-0.252	-0.185
-71.480	-150.343	0.120	-0.009
-70.465	234.811	0.109	0.175
-69.451	-162.029	0.328	-0.016
-68.436	-9.954	-0.140	-0.091
-67.422	249.471	-0.215	-0.357
-66.407	-103.832	0.535	0.122
-65.392	59.442	-0.267	0.258
-64.378	325.377	0.110	-0.207
-63.363	-87.320	0.173	0.051
-62.349	32.189	-0.264	0.223
-61.334	3.028	-1.058	-0.752
-60.319	-24.936	0.980	0.569
-59.305	532.377	-0.340	-0.787
-58.290	221.983	0.614	0.966
-57.276	339.605	0.775	1.478
-56.261	-200.000	112.308	638.733
-55.246	527.456	1516.361	3497.811
-54.232	176.843	2701.195	3844.166
-53.217	105.784	2282.018	2640.837
-52.203	38.318	1890.848	1647.688
-51.188	32.355	1679.848	1418.949
-50.173	29.736	1637.643	1363.949
-49.159	50.084	1694.214	1564.299
-48.144	49.873	1708.467	1575.817
-47.130	31.788	1665.511	1402.366
-46.115	29.098	1650.345	1369.563
-45.100	28.875	1645.809	1364.089
-44.086	28.838	1643.257	1361.648
-43.071	28.818	1640.846	1359.448
-42.057	28.797	1638.278	1357.112
-41.042	28.891	1635.991	1355.858
-40.027	28.874	1633.936	1353.977
-39.013	28.776	1632.470	1351.988
-37.998	28.847	1630.527	1350.848
-36.984	28.871	1629.443	1350.066
-35.969	28.937	1628.258	1349.517
-34.954	29.039	1626.137	1348.453
-33.940	29.000	1624.582	1346.829
-32.925	28.997	1622.555	1345.072
-31.911	28.989	1621.264	1343.885
-30.896	29.043	1619.629	1342.872
-29.881	29.006	1617.922	1341.135
-28.867	29.001	1616.595	1339.948
-27.852	28.968	1615.616	1338.843
-26.838	28.939	1613.935	1337.182
-25.823	29.002	1612.154	1336.116
-24.809	29.004	1611.358	1335.418
-23.794	29.048	1609.275	1333.957
-22.779	29.022	1608.023	1332.674
-21.765	28.983	1606.831	1331.354
-20.750	29.011	1604.509	1329.581
-19.736	28.950	1603.962	1328.635
-18.721	29.106	1602.452	1328.454
-17.706	29.077	1600.780	1326.804
-16.692	29.058	1599.024	1325.160
-15.677	29.038	1597.871	1324.007
-14.663	29.014	1596.831	1322.922
-13.648	29.083	1595.254	1322.060
-12.633	29.185	1593.520	1321.304
-11.619	28.912	1592.553	1318.490
-10.604	29.086	1590.363	1317.872
-9.590	28.972	1589.455	1316.250
-8.575	29.100	1587.859	1315.791
-7.560	29.137	1586.699	1315.038
-6.546	29.031	1585.836	1313.519
-5.531	29.018	1584.721	1312.446
-4.517	29.073	1583.899	1312.108
-3.502	29.138	1582.715	1311.541
-2.487	29.128	1581.085	1310.061
-1.473	28.693	1568.648	1296.636
-0.458	25.657	1548.996	1259.135
0.556	22.904	1550.552	1226.375
1.571	20.379	1574.105	1227.075
2.586	19.940	1586.967	1233.865
3.600	17.464	1532.939	1174.681
4.615	10.258	1426.163	1046.336
5.629	4.229	1365.596	964.406
6.644	3.328	1357.879	953.298
7.659	3.212	1357.259	952.056
8.673	3.172	1356.500	951.194
9.688	3.288	1354.388	950.344
10.702	3.217	1351.862	948.049
11.717	5.991	1356.048	968.019
12.731	13.504	1370.768	1025.110
13.746	19.650	1380.566	1070.549
14.761	20.829	1381.209	1078.254
15.775	20.151	1379.223	1072.417
16.790	19.124	1376.490	1063.849
17.804	18.253	1374.549	1056.881
18.819	17.906	1373.180	1053.592
19.834	17.777	1372.054	1051.843
20.848	17.576	1371.040	1049.733
21.863	17.461	1369.446	1047.713
22.877	17.270	1368.782	1045.934
23.892	17.174	1367.877	1044.561
24.907	17.273	1366.811	1044.263
25.921	17.326	1365.897	1043.797
26.936	17.286	1364.750	1042.585
27.950	17.292	1363.867	1041.853
28.965	17.425	1362.971	1041.888
29.980	17.608	1361.614	1041.879
30.994	17.670	1360.660	1041.434
32.009	17.734	1360.209	1041.389
33.023	17.636	1358.796	1039.618
34.038	17.562	1357.108	1037.783
35.053	17.464	1356.134	1036.351
36.067	17.480	1355.005	1035.495
37.082	17.564	1353.980	1035.130
38.096	17.517	1353.602	1034.461
39.111	17.472	1352.599	1033.333
40.126	17.437	1351.402	1032.115
41.140	17.274	1350.406	1030.275
42.155	17.099	1350.011	1028.823
43.169	17.192	1349.401	1028.827
44.184	17.093	1348.995	1027.830
45.199	17.287	1348.432	1028.483
46.213	17.209	1348.572	1028.025
47.228	17.442	1347.467	1028.502
48.242	17.446	1346.751	1027.887
49.257	17.349	1345.225	1026.045
50.271	17.466	1343.507	1025.350
51.286	17.456	1341.936	1024.000
52.301	17.439	1340.983	1023.082
53.315	17.280	1340.005	1021.288
54.330	17.196	1339.256	1020.127
55.344	17.191	1337.649	1018.778
56.359	17.122	1336.386	1017.313
57.374	17.195	1335.937	1017.321
58.388	17.126	1334.654	1015.840
59.403	17.015	1334.624	1015.063
60.417	17.004	1333.861	1014.330
61.432	17.036	1332.583	1013.459
62.447	16.975	1331.605	1012.260
63.461	16.859	1330.650	1010.749
64.476	16.844	1329.495	1009.698
65.490	16.846	1328.195	1008.628
66.505	16.966	1326.411	1007.900
67.520	17.022	1324.905	1006.998
68.534	16.970	1324.394	1006.212
69.549	17.027	1323.493	1005.780
70.563	16.844	1322.701	1004.003
71.578	16.805	1321.288	1002.610
72.593	16.748	1320.292	1001.429
73.607	16.654	1319.882	1000.472
74.622	16.707	1319.329	1000.277
75.636	16.643	1318.584	999.251
76.651	16.834	1317.843	999.725
77.666	16.850	1317.364	999.369
78.680	16.894	1316.806	999.113
79.695	16.848	1316.225	998.313
80.709	17.036	1315.529	998.805
81.724	17.148	1314.336	998.470
82.739	17.150	1313.900	998.061
83.753	17.246	1313.242	998.034
84.768	17.426	1312.171	998.191
85.782	17.547	1311.064	997.970
86.797	17.453	1310.002	996.525
87.812	17.339	1308.606	994.708
88.826	17.327	1307.466	993.682
89.841	17.416	1306.370	993.282
90.855	17.519	1305.341	993.010
91.870	17.547	1304.741	992.626
92.884	17.701	1303.634	992.594
93.899	17.599	1302.863	991.329
94.914	17.736	1302.074	991.434
95.928	17.779	1301.412	991.094
96.943	17.521	1300.769	989.019
97.957	17.541	1299.587	988.149
98.972	17.534	1298.698	987.342
99.987	17.523	1297.820	986.525
101.001	17.486	1296.499	985.221
102.016	17.602	1295.406	984.971
103.030	17.594	1294.536	984.178
104.045	17.547	1293.984	983.401
105.060	17.434	1292.755	981.725
106.074	17.177	1290.623	978.543
107.089	16.886	1289.852	976.191
108.103	16.872	1288.384	974.919
109.118	16.980	1286.766	974.227
110.133	16.927	1285.869	973.154
111.147	16.899	1284.528	971.895
112.162	17.057	1283.133	971.660
113.176	17.072	1282.587	971.243
114.191	17.055	1281.641	970.346
115.206	17.131	1280.096	969.521
116.220	17.027	1278.901	967.940
117.235	17.132	1277.369	967.294
118.249	16.966	1277.114	966.069
119.264	16.981	1275.423	964.788
120.279	17.021	1274.282	964.070
121.293	16.905	1273.666	962.861
122.308	16.870	1272.473	961.671
123.322	16.764	1271.789	960.472
124.337	16.858	1269.983	959.554
125.352	16.723	1269.268	958.161
126.366	16.805	1267.767	957.411
127.381	16.825	1267.118	956.949
128.395	16.803	1266.042	955.925
129.410	16.918	1265.129	955.799
130.424	16.914	1264.797	955.442
131.439	17.039	1263.420	955.023
132.454	17.096	1262.616	954.649
133.468	17.036	1262.252	953.950
134.483	17.077	1261.421	953.467
135.497	17.092	1260.593	952.842
136.512	17.128	1259.544	952.170
137.527	17.180	1257.961	951.182
138.541	17.057	1256.829	949.548
139.556	17.224	1255.561	949.444
140.570	17.289	1254.212	948.700
141.585	17.294	1253.328	947.978
142.600	17.481	1252.168	948.057
143.614	17.521	1251.437	947.640
144.629	17.558	1250.462	947.028
145.643	17.510	1249.664	946.071
146.658	17.503	1247.688	944.451
147.673	17.318	1246.478	942.429
148.687	17.168	1245.519	940.789
149.702	17.093	1243.797	938.992
150.716	17.200	1242.136	938.243
151.731	17.106	1241.691	937.306
152.746	17.177	1240.319	936.581
153.760	17.263	1239.345	936.232
154.775	17.303	1238.015	935.364
155.789	17.444	1236.818	935.155
156.804	17.421	1236.388	934.619
157.819	17.455	1235.480	934.036
158.833	17.509	1234.862	933.783
159.848	17.721	1233.677	933.964
160.862	17.482	1232.704	931.836
161.877	17.312	1231.757	930.109
162.892	17.209	1230.723	928.682
163.906	17.262	1228.858	927.483
164.921	17.171	1228.403	926.561
165.935	17.226	1228.094	926.549
166.950	17.344	1226.948	926.244
167.964	17.343	1226.133	925.541
168.979	17.386	1225.780	925.428
169.994	17.325	1224.737	924.226
171.008	17.402	1223.896	923.929
172.023	17.461	1223.141	923.593
173.037	17.659	1222.183	923.862
174.052	17.573	1221.427	922.744
175.067	17.422	1220.683	921.282
176.081	17.274	1219.826	919.757
177.096	17.170	1218.951	918.451
178.110	17.336	1217.329	918.043
179.125	17.401	1216.125	917.408
180.140	17.371	1214.980	916.301
181.154	17.441	1214.169	915.981
182.169	17.597	1212.616	915.567
183.183	17.630	1211.794	915.043
184.198	17.687	1210.988	914.663
185.213	17.716	1209.645	913.720
186.227	17.691	1209.019	913.033
187.242	17.740	1207.819	912.308
188.256	17.859	1206.733	912.043
189.271	17.863	1205.639	911.160
190.286	17.607	1205.052	909.266
191.300	17.446	1203.567	907.210
192.315	17.073	1202.920	904.655
193.329	17.217	1202.467	904.997
194.344	17.265	1202.192	904.965
195.359	17.414	1200.899	904.706
196.373	17.526	1200.864	905.195
197.388	17.605	1200.787	905.478
198.402	17.829	1200.192	906.139
199.417	17.866	1199.329	905.602
200.432	17.926	1199.059	905.639
201.446	18.209	1197.933	906.205
202.461	18.195	1197.001	905.344
203.475	18.175	1195.924	904.345
204.490	17.960	1194.205	901.828
205.504	17.828	1193.068	900.198
206.519	17.804	1192.185	899.325
207.534	17.845	1190.815	898.427
208.548	17.790	1189.997	897.440
209.563	17.931	1189.180	897.488
210.577	17.825	1188.337	896.212
211.592	17.888	1187.742	896.016
212.607	18.021	1186.807	895.931
213.621	18.033	1185.947	895.266
214.636	17.968	1185.012	894.138
215.650	18.024	1184.391	893.884
216.665	18.145	1183.341	893.642
217.680	18.183	1182.711	893.286
218.694	18.186	1182.216	892.852
219.709	18.187	1180.932	891.808
220.723	18.146	1180.621	891.280
221.738	18.066	1179.723	890.104
222.753	18.136	1178.987	889.837
223.767	18.077	1178.698	889.231
224.782	18.270	1177.783	889.465
225.796	18.357	1177.125	889.344
226.811	18.430	1176.094	888.863
227.826	18.184	1175.805	887.290
228.840	18.146	1174.752	886.220
229.855	18.156	1173.999	885.625
230.869	18.157	1172.824	884.664
231.884	18.185	1172.195	884.257
232.899	18.031	1171.110	882.564
233.913	17.946	1170.807	881.821
234.928	17.959	1169.921	881.142
235.942	18.015	1168.965	880.632
236.957	17.972	1168.192	879.752
237.972	17.949	1167.669	879.163
238.986	18.013	1166.934	878.858
240.001	17.901	1166.412	877.811
241.015	17.973	1165.151	877.156
242.030	18.134	1164.653	877.530
243.045	18.285	1163.898	877.660
244.059	18.262	1163.151	876.897
245.074	18.238	1162.518	876.224
246.088	18.266	1161.843	875.780
247.103	18.411	1160.988	875.799
248.117	18.499	1160.361	875.698
249.132	18.610	1160.078	875.975
250.147	18.760	1159.614	876.313
251.161	18.862	1158.834	876.162
252.176	18.851	1157.895	875.320
253.190	18.827	1157.874	875.106
254.205	19.025	1156.462	874.966
255.220	19.104	1156.438	875.275
256.234	18.897	1155.447	873.392
257.249	18.982	1154.796	873.255
258.263	18.964	1154.089	872.555
259.278	18.997	1153.345	872.081
260.293	19.045	1152.878	871.893
261.307	19.126	1152.394	871.863
262.322	19.167	1151.815	871.552
263.336	19.097	1151.138	870.610
264.351	19.156	1150.476	870.329
265.366	19.201	1149.662	869.863
266.380	19.190	1149.009	869.236
267.395	19.033	1147.938	867.559
268.409	18.961	1147.147	866.523
269.424	18.919	1146.739	865.922
270.439	19.048	1145.887	865.856
271.453	18.928	1145.308	864.738
272.468	18.814	1144.366	863.376
273.482	18.826	1143.292	862.549
274.497	18.816	1142.917	862.142
275.512	18.879	1142.160	861.809
276.526	18.926	1141.238	861.271
277.541	18.842	1140.805	860.446
278.555	19.097	1139.839	860.920
279.570	19.219	1139.155	860.935
280.585	19.212	1138.708	860.488
281.599	19.234	1137.872	859.891
282.614	19.169	1136.290	858.295
283.628	19.056	1135.829	857.309
284.643	19.113	1134.832	856.762
285.657	19.065	1133.898	855.741
286.672	19.051	1133.166	855.046
287.687	19.089	1132.134	854.378
288.701	19.158	1131.405	854.096
289.716	19.123	1130.685	853.302
290.730	19.054	1130.099	852.446
291.745	19.255	1129.185	852.672
292.760	19.172	1129.129	852.146
293.774	19.265	1128.316	851.918
294.789	19.415	1127.984	852.330
295.803	19.226	1127.605	851.036
296.818	19.150	1126.421	849.691
297.833	19.129	1125.584	848.882
298.847	19.163	1124.749	848.346
299.862	19.325	1123.365	848.021
300.876	19.260	1123.331	847.602
301.891	19.320	1122.523	847.210
302.906	19.493	1121.608	847.294
303.920	19.476	1121.763	847.256
304.935	19.599	1120.913	847.141
305.949	19.561	1120.547	846.605
306.964	19.572	1119.968	846.144
307.979	19.592	1118.535	845.087
308.993	19.480	1118.109	844.138
310.008	19.629	1117.229	844.132
311.022	19.684	1116.700	843.924
312.037	19.554	1115.944	842.643
313.052	19.520	1114.955	841.656
314.066	19.377	1113.754	839.981
315.081	19.273	1112.855	838.723
316.095	19.257	1112.163	838.046
317.110	19.269	1111.056	837.194
318.125	19.278	1111.128	837.221
319.139	19.304	1110.095	836.493
320.154	19.206	1109.649	835.609
321.168	19.311	1109.022	835.573
322.183	19.360	1108.586	835.408
323.197	19.330	1107.809	834.603
324.212	19.419	1107.259	834.547
325.227	19.478	1106.566	834.234
326.241	19.432	1106.116	833.598
327.256	19.456	1104.891	832.719
328.270	19.359	1104.308	831.738
329.285	19.355	1103.327	830.905
330.300	19.362	1102.020	829.880
331.314	19.441	1100.975	829.398
332.329	19.404	1100.734	828.965
333.343	19.416	1099.576	828.079
334.358	19.540	1099.098	828.239
335.373	19.583	1098.431	827.873
336.387	19.680	1097.794	827.781
337.402	19.768	1096.621	827.244
338.416	19.711	1096.328	826.678
339.431	19.747	1095.981	826.514
340.446	19.922	1095.083	826.604
341.460	20.007	1094.483	826.480
342.475	20.053	1093.787	826.100
343.489	20.039	1093.031	825.389
344.504	20.047	1092.305	824.806
345.519	20.218	1091.122	824.656
346.533	20.213	1090.432	824.038
347.548	20.150	1089.831	823.208
348.562	20.270	1088.938	823.033
349.577	20.096	1087.881	821.338
350.592	19.965	1086.962	819.949
351.606	19.679	1086.684	818.313
352.621	19.785	1085.754	818.042
353.635	19.773	1085.041	817.378
354.650	19.752	1084.390	816.713
355.665	19.807	1083.592	816.298
356.679	19.961	1082.761	816.326
357.694	19.929	1082.518	815.921
358.708	20.085	1082.018	816.209
359.723	19.964	1081.409	815.106
360.738	20.173	1080.065	815.005
361.752	19.984	1080.126	814.091
362.767	19.985	1079.840	813.806
363.781	20.098	1079.056	813.674
364.796	20.229	1078.314	813.654
365.810	20.326	1077.944	813.760
366.825	20.409	1077.375	813.646
367.840	20.492	1076.879	813.591
368.854	20.559	1076.567	813.595
369.869	20.541	1075.624	812.726
370.883	20.444	1074.669	811.478
371.898	20.250	1073.849	809.884
372.913	20.357	1073.538	810.077
373.927	20.475	1072.956	810.114
374.942	20.536	1072.427	809.928
375.956	20.442	1072.082	809.161
376.971	20.524	1071.287	808.870
377.986	20.533	1070.625	808.341
379.000	20.529	1070.234	807.953
380.015	20.613	1069.922	808.039
381.029	20.798	1069.224	808.298
382.044	20.711	1068.658	807.393
383.059	20.702	1067.776	806.616
384.073	20.651	1066.490	805.335
385.088	20.712	1065.531	804.824
386.102	20.739	1064.855	804.366
387.117	20.665	1063.667	803.056
388.132	20.418	1063.011	801.349
389.146	20.409	1062.235	800.654
390.161	20.362	1061.356	799.702
391.175	20.408	1060.610	799.281
392.190	20.566	1059.887	799.393
393.205	20.657	1059.494	799.445
394.219	20.734	1058.445	798.936
395.234	20.429	1058.236	797.306
396.248	20.630	1056.451	796.809
397.263	20.561	1055.572	795.763
398.278	20.464	1054.928	794.763
399.292	20.426	1054.343	794.080
400.307	20.408	1053.650	793.406
401.321	20.300	1053.037	792.379
402.336	20.358	1052.438	792.122
403.350	20.457	1051.410	791.732
404.365	20.507	1050.865	791.479
405.380	20.576	1049.918	791.009
406.394	20.693	1049.409	791.087
407.409	20.743	1048.942	790.891
408.423	20.728	1048.341	790.299
409.438	20.807	1047.672	790.085
410.453	21.091	1046.848	790.680
411.467	20.958	1046.373	789.648
412.482	21.060	1045.622	789.475
413.496	21.011	1045.159	788.833
414.511	21.066	1044.600	788.588
415.526	21.242	1044.074	788.919
416.540	21.258	1043.532	788.512
417.555	21.175	1043.047	787.702
418.569	21.093	1042.397	786.768
419.584	21.168	1041.850	786.627
420.599	21.187	1041.516	786.391
421.613	155.533	1403.602	1797.358
422.628	142.349	1456.302	1797.431
