DTS Sentinel unit serial number:	SN413079Multiplexer serial number:	ORYXHardware model number:	OX4-SRSoftware version number:	ORYX F/W v4.00 Oryx Data Collector v3.7.2.0data status	okinstallation	princeton_trtdifferential loss correction	single-endedforward channel	channel 2reverse channel	N/Adate	2019/09/15time	04:23:35forward acquisition time	60.00reverse acquisition time	0.00gamma	496.2192k internal	0.2325k external	0.2325temperature offset calibration	1.0030default loss term (dB/km)	0.3790temperature slope calibration	1.0000multiplexer offset coefficient	1.0000multiplexer slope coefficient	1.0000fibre end	0.00T internal ref (°C)	30.89T ext. ref 1 (°C)	4.62T ext. ref 2 (°C)	25.62length (m)	temperature (°C)	Stokes	anti-Stokes-747.200	-141.870	-0.104	-0.011
-746.185	-127.084	-0.368	0.054
-745.171	34.140	-0.209	-0.184
-744.156	-52.937	0.187	0.087
-743.142	-129.460	-0.311	-0.043
-742.127	-200.000	0.024	0.281
-741.112	103.473	0.168	0.199
-740.098	-14.624	-0.225	0.146
-739.083	54.908	-0.256	-0.249
-738.069	280.584	0.034	-0.061
-737.054	-200.000	0.008	0.182
-736.039	-106.612	-0.320	0.072
-735.025	221.061	-0.119	0.193
-734.010	171.695	-0.078	0.113
-732.996	800.000	-0.075	-0.288
-731.981	-96.439	-0.143	-0.038
-730.966	-38.465	-0.195	-0.104
-729.952	-86.169	0.175	0.054
-728.937	80.613	-0.122	0.133
-727.923	202.051	0.078	-0.121
-726.908	-190.367	-0.272	0.003
-725.894	-114.457	-0.242	-0.047
-724.879	14.229	0.123	-0.097
-723.864	-34.729	0.109	0.060
-722.850	-13.530	-0.175	0.114
-721.835	800.000	-0.115	-0.424
-720.821	-20.183	0.145	0.090
-719.806	800.000	-0.073	-0.261
-718.791	7.095	-0.185	0.139
-717.777	-7.002	0.135	-0.092
-716.762	-200.000	-0.008	0.167
-715.748	115.803	-0.117	-0.144
-714.733	-76.667	-0.217	-0.077
-713.718	-155.329	-0.267	0.017
-712.704	327.438	0.242	-0.467
-711.689	-200.000	0.018	-0.087
-710.675	-56.579	-0.164	-0.073
-709.660	-96.652	0.199	0.053
-708.645	-156.345	-0.153	-0.010
-707.631	800.000	0.046	0.145
-706.616	-105.223	-0.143	-0.033
-705.602	487.439	0.110	0.254
-704.587	-176.565	0.348	-0.009
-703.572	-200.000	-0.001	-0.100
-702.558	-200.000	0.023	0.218
-701.543	-200.000	-0.003	0.294
-700.529	44.894	-0.035	-0.032
-699.514	-101.577	-0.038	-0.009
-698.499	800.000	0.067	-0.201
-697.485	-200.000	-0.014	-0.068
-696.470	-78.904	-0.435	-0.149
-695.456	564.911	0.005	-0.013
-694.441	22.212	-0.181	0.149
-693.426	-77.811	-0.196	0.068
-692.412	-200.000	-0.027	-0.381
-691.397	447.193	-0.091	-0.202
-690.383	-146.126	0.352	0.031
-689.368	-65.502	-0.216	-0.087
-688.354	-200.000	0.003	-0.111
-687.339	378.073	-0.147	-0.302
-686.324	-153.555	0.104	-0.007
-685.310	-200.000	0.037	0.272
-684.295	-63.292	-0.334	-0.138
-683.281	800.000	0.062	-0.173
-682.266	-92.980	-0.031	-0.009
-681.251	-43.073	-0.239	0.122
-680.237	9.529	-0.050	0.038
-679.222	-200.000	0.025	-0.346
-678.208	195.224	-0.093	-0.142
-677.193	-26.278	0.044	-0.026
-676.178	-200.000	-0.002	-0.016
-675.164	-37.955	0.164	-0.087
-674.149	24.762	-0.147	-0.123
-673.135	-200.000	0.061	-0.310
-672.120	-152.836	0.140	0.010
-671.105	-200.000	-0.037	-0.303
-670.091	-10.317	-0.215	-0.143
-669.076	-25.023	-0.125	-0.075
-668.062	-200.000	0.063	-0.306
-667.047	97.324	-0.045	-0.052
-666.032	357.501	-0.210	0.421
-665.018	-36.710	-0.090	0.048
-664.003	592.865	0.045	0.113
-662.989	-148.741	-0.241	-0.020
-661.974	-151.536	0.285	-0.021
-660.959	-8.297	-0.168	0.113
-659.945	-200.000	-0.016	0.266
-658.930	-138.408	-0.511	-0.057
-657.916	-153.512	0.479	-0.033
-656.901	342.181	0.049	0.097
-655.886	251.858	-0.032	0.055
-654.872	-200.000	0.015	-0.072
-653.857	-67.390	-0.236	-0.093
-652.843	800.000	-0.085	0.340
-651.828	-56.998	0.371	0.165
-650.814	490.786	0.099	0.229
-649.799	-41.655	0.106	0.055
-648.784	622.792	0.019	-0.047
-647.770	-87.716	0.351	-0.107
-646.755	96.639	0.014	-0.016
-645.741	165.469	-0.187	-0.266
-644.726	800.000	0.025	-0.103
-643.711	64.293	-0.114	0.115
-642.697	-58.724	0.076	-0.033
-641.682	800.000	-0.015	0.067
-640.668	308.229	0.050	0.094
-639.653	-122.940	-0.259	-0.042
-638.638	-191.408	0.215	0.002
-637.624	-102.132	0.188	0.045
-636.609	136.360	0.197	-0.258
-635.595	509.705	-0.157	-0.367
-634.580	800.000	-0.022	-0.061
-633.565	-2.932	-0.327	0.229
-632.551	-124.982	-0.158	0.024
-631.536	225.173	-0.169	-0.276
-630.522	3.320	-0.237	-0.173
-629.507	-5.352	-0.178	0.122
-628.492	-146.732	0.127	-0.011
-627.478	25.027	-0.377	0.314
-626.463	-115.599	-0.055	-0.010
-625.449	-200.000	-0.017	0.241
-624.434	800.000	0.145	0.411
-623.419	-200.000	-0.043	-0.191
-622.405	-200.000	0.032	-0.162
-621.390	-200.000	-0.009	0.090
-620.376	-180.013	-0.287	-0.006
-619.361	581.873	-0.029	0.072
-618.346	270.069	-0.043	-0.076
-617.332	800.000	-0.056	-0.217
-616.317	-39.768	0.124	-0.065
-615.303	-132.016	0.129	-0.017
-614.288	-159.509	0.235	-0.013
-613.273	-20.300	-0.201	-0.124
-612.259	800.000	-0.018	0.063
-611.244	-114.643	0.257	0.049
-610.230	-116.580	0.262	-0.048
-609.215	-200.000	0.005	-0.105
-608.201	-75.339	-0.148	-0.053
-607.186	104.661	-0.237	-0.280
-606.171	-200.000	0.067	0.297
-605.157	137.989	0.193	0.254
-604.142	-75.452	-0.294	-0.105
-603.128	-200.000	0.012	0.336
-602.113	57.083	0.048	-0.047
-601.098	15.709	0.074	0.059
-600.084	-200.000	-0.010	-0.079
-599.069	36.280	0.063	-0.056
-598.055	153.096	0.055	-0.076
-597.040	-38.090	0.251	0.134
-596.025	42.799	0.123	0.113
-595.011	251.535	0.107	-0.182
-593.996	-92.750	-0.261	-0.073
-592.982	-48.764	0.495	-0.238
-591.967	-118.487	-0.228	-0.041
-590.952	-28.925	-0.279	-0.161
-589.938	406.933	0.067	-0.143
-588.923	-200.000	0.006	-0.081
-587.909	171.127	-0.033	0.047
-586.894	-200.000	-0.034	-0.278
-585.879	4.337	-0.114	-0.084
-584.865	168.625	0.074	-0.106
-583.850	-200.000	-0.052	0.338
-582.836	235.773	-0.104	-0.172
-581.821	-200.000	-0.042	-0.247
-580.806	-119.044	-0.123	-0.022
-579.792	-56.793	-0.293	-0.130
-578.777	226.332	-0.016	-0.025
-577.763	-42.335	-0.375	0.192
-576.748	-191.633	0.146	-0.001
-575.733	515.174	0.019	0.045
-574.719	800.000	-0.048	0.172
-573.704	-164.871	0.144	0.006
-572.690	-200.000	-0.011	-0.206
-571.675	183.863	-0.069	-0.102
-570.661	336.566	-0.208	-0.405
-569.646	800.000	0.045	0.151
-568.631	67.932	-0.053	-0.054
-567.617	-200.000	0.059	-0.365
-566.602	-200.000	-0.028	-0.207
-565.588	283.706	-0.128	0.231
-564.573	-127.538	-0.153	0.022
-563.558	-156.786	0.249	0.015
-562.544	279.062	0.085	-0.152
-561.529	-200.000	-0.026	0.162
-560.515	-39.768	-0.259	0.136
-559.500	32.006	-0.368	-0.318
-558.485	-19.260	-0.043	0.027
-557.471	43.418	-0.109	-0.100
-556.456	800.000	-0.080	0.234
-555.442	433.784	-0.065	-0.142
-554.427	-132.472	-0.353	-0.046
-553.412	108.499	-0.088	0.105
-552.398	-71.072	-0.293	-0.110
-551.383	419.120	-0.147	0.316
-550.369	-23.689	-0.256	0.153
-549.354	743.413	-0.143	0.386
-548.339	470.879	-0.114	-0.257
-547.325	-84.396	0.263	-0.083
-546.310	-200.000	0.038	-0.430
-545.296	201.987	0.098	-0.151
-544.281	-39.373	0.244	0.128
-543.266	-200.000	0.005	0.281
-542.252	-18.013	0.203	0.128
-541.237	138.222	0.207	-0.272
-540.223	-18.454	-0.034	0.021
-539.208	604.030	-0.107	-0.267
-538.193	159.546	-0.098	0.137
-537.179	313.534	-0.233	0.439
-536.164	-80.316	-0.105	0.035
-535.150	-200.000	0.000	-0.134
-534.135	261.031	0.156	0.270
-533.121	44.633	0.219	-0.201
-532.106	-200.000	-0.015	-0.203
-531.091	-200.000	-0.015	-0.120
-530.077	-47.342	-0.469	0.228
-529.062	283.549	-0.152	0.274
-528.048	334.434	0.028	0.053
-527.033	498.342	0.129	0.298
-526.018	-200.000	0.003	0.130
-525.004	146.115	0.148	0.198
-523.989	-28.516	0.398	-0.230
-522.975	-73.810	-0.226	0.082
-521.960	78.307	0.151	0.162
-520.945	-4.607	-0.356	-0.246
-519.931	566.826	-0.146	-0.355
-518.916	-11.578	0.077	0.051
-517.902	124.064	-0.109	0.137
-516.887	106.157	-0.182	-0.215
-515.872	-23.395	-0.401	0.241
-514.858	85.783	-0.232	-0.255
-513.843	-200.000	-0.055	-0.301
-512.829	-142.340	-0.192	0.019
-511.814	-114.371	-0.238	-0.046
-510.799	100.302	0.163	0.189
-509.785	-59.484	-0.323	-0.139
-508.770	-200.000	-0.056	-0.278
-507.756	-3.376	0.156	0.109
-506.741	-113.984	-0.304	0.059
-505.726	-175.899	0.330	0.009
-504.712	152.439	-0.192	-0.261
-503.697	800.000	-0.051	-0.174
-502.683	229.440	-0.130	-0.212
-501.668	-118.573	-0.136	-0.024
-500.653	-200.000	0.050	-0.385
-499.639	158.099	-0.141	-0.195
-498.624	-200.000	0.006	0.173
-497.610	131.020	0.044	-0.057
-496.595	-50.611	-0.211	-0.099
-495.581	398.471	-0.044	0.092
-494.566	233.794	-0.093	0.153
-493.551	498.407	0.098	0.225
-492.537	-60.838	-0.117	-0.050
-491.522	-68.061	0.242	-0.094
-490.508	-200.000	0.043	0.278
-489.493	-54.245	-0.334	0.151
-488.478	84.176	-0.155	-0.169
-487.464	-46.878	0.194	0.095
-486.449	-22.235	-0.251	-0.152
-485.435	-200.000	0.050	-0.293
-484.420	213.598	0.079	0.124
-483.405	800.000	-0.047	0.200
-482.391	-51.171	-0.109	-0.051
-481.376	734.328	-0.044	-0.117
-480.362	-172.066	0.091	0.003
-479.347	49.205	-0.147	0.138
-478.332	-200.000	0.016	0.262
-477.318	-99.077	-0.185	-0.047
-476.303	9.256	0.157	-0.118
-475.289	29.570	-0.081	-0.069
-474.274	800.000	0.072	-0.306
-473.259	203.088	-0.115	-0.177
-472.245	-200.000	-0.016	-0.069
-471.230	-35.664	0.241	-0.130
-470.216	-108.169	0.228	-0.049
-469.201	-12.747	-0.139	-0.090
-468.186	-183.390	0.305	0.005
-467.172	560.313	0.016	-0.038
-466.157	800.000	0.042	-0.156
-465.143	-33.480	0.175	-0.097
-464.128	111.679	-0.223	-0.268
-463.113	-124.814	-0.201	0.031
-462.099	-161.796	0.338	0.017
-461.084	-18.142	-0.123	0.077
-460.070	-39.106	-0.184	-0.096
-459.055	-115.383	0.165	-0.031
-458.040	-94.278	-0.261	0.071
-457.026	-200.000	-0.031	0.195
-456.011	429.468	0.122	-0.264
-454.997	87.489	-0.154	0.170
-453.982	800.000	0.033	-0.102
-452.968	-200.000	-0.068	-0.393
-451.953	243.292	0.162	-0.270
-450.938	-32.126	0.147	0.082
-449.924	278.965	-0.068	-0.121
-448.909	-57.195	0.308	0.135
-447.895	243.616	0.084	-0.140
-446.880	101.998	-0.059	-0.068
-445.865	-138.254	-0.182	0.020
-444.851	265.142	0.050	-0.087
-443.836	-22.285	0.139	0.084
-442.822	-89.275	0.334	0.098
-441.807	260.474	-0.099	-0.171
-440.792	87.134	0.286	0.315
-439.778	-200.000	-0.035	-0.289
-438.763	800.000	-0.029	0.082
-437.749	-200.000	-0.014	0.105
-436.734	-139.320	0.234	-0.025
-435.719	-63.701	0.151	-0.062
-434.705	-115.572	-0.086	-0.016
-433.690	133.235	-0.271	0.349
-432.676	-98.539	0.274	-0.070
-431.661	-104.721	-0.188	-0.043
-430.646	-117.518	-0.057	0.010
-429.632	-57.951	0.048	-0.021
-428.617	-200.000	-0.042	-0.248
-427.603	-99.594	0.268	-0.067
-426.588	-200.000	-0.062	-0.418
-425.573	92.648	0.175	-0.197
-424.559	82.598	-0.054	-0.058
-423.544	-145.773	-0.445	-0.040
-422.530	49.772	0.221	0.207
-421.515	3.502	-0.353	0.256
-420.500	-200.000	0.026	0.128
-419.486	88.791	0.259	0.287
-418.471	-118.327	0.356	0.063
-417.457	361.499	-0.047	-0.093
-416.442	-13.023	-0.133	0.086
-415.428	241.463	-0.110	-0.183
-414.413	-200.000	0.025	0.179
-413.398	-200.000	-0.006	-0.036
-412.384	-66.038	0.177	0.070
-411.369	-154.994	0.412	0.027
-410.355	662.694	-0.086	0.220
-409.340	300.952	0.149	0.273
-408.325	118.650	0.159	0.196
-407.311	-200.000	0.009	0.172
-406.296	541.274	0.060	0.142
-405.282	-200.000	-0.047	0.306
-404.267	800.000	0.015	0.047
-403.252	-200.000	0.052	-0.279
-402.238	67.331	0.142	-0.144
-401.223	-142.986	-0.158	0.015
-400.209	160.084	0.234	0.325
-399.194	66.671	0.153	-0.155
-398.179	-200.000	-0.015	0.102
-397.165	335.732	-0.191	0.368
-396.150	509.119	0.050	0.116
-395.136	663.161	-0.109	0.281
-394.121	167.937	-0.126	0.179
-393.106	-129.380	0.184	-0.025
-392.092	55.931	-0.076	0.074
-391.077	-200.000	0.030	0.166
-390.063	255.501	-0.117	-0.199
-389.048	2.229	0.229	0.165
-388.033	-200.000	-0.019	0.287
-387.019	-145.581	0.062	-0.006
-386.004	-106.662	0.270	-0.060
-384.990	371.586	-0.055	-0.111
-383.975	-190.695	-0.198	0.002
-382.960	-149.161	-0.364	-0.029
-381.946	733.628	-0.055	-0.147
-380.931	800.000	0.044	-0.180
-379.917	-200.000	0.048	-0.258
-378.902	-200.000	-0.022	0.119
-377.888	-200.000	0.012	0.181
-376.873	-60.533	0.122	-0.052
-375.858	800.000	-0.073	-0.236
-374.844	60.265	0.214	0.211
-373.829	-200.000	0.013	0.165
-372.815	-70.260	-0.039	-0.015
-371.800	-59.423	0.351	0.150
-370.785	-200.000	-0.010	-0.177
-369.771	528.208	0.104	0.243
-368.756	-23.196	-0.024	0.014
-367.742	46.072	0.201	0.185
-366.727	-155.590	-0.278	0.018
-365.712	-42.118	0.226	-0.115
-364.698	15.959	-0.010	-0.008
-363.683	409.621	-0.111	-0.233
-362.669	62.840	0.151	0.150
-361.654	-142.789	-0.238	0.023
-360.639	-17.736	0.235	-0.147
-359.625	236.257	-0.128	-0.210
-358.610	-92.351	0.184	-0.051
-357.596	165.995	-0.210	0.296
-356.581	800.000	0.103	0.315
-355.566	469.670	0.113	0.251
-354.552	-200.000	0.296	0.001
-353.537	168.979	-0.202	0.286
-352.523	-200.000	0.029	-0.382
-351.508	-200.000	-0.011	-0.222
-350.493	0.076	-0.071	-0.051
-349.479	202.297	0.046	0.071
-348.464	73.627	-0.088	0.092
-347.450	800.000	0.069	0.210
-346.435	-164.138	0.547	-0.025
-345.420	-144.969	-0.074	0.007
-344.406	57.706	-0.089	-0.087
-343.391	119.163	-0.214	-0.263
-342.377	-157.074	0.349	-0.021
-341.362	218.940	0.184	-0.292
-340.348	-69.453	0.091	-0.035
-339.333	-200.000	-0.065	0.454
-338.318	215.661	0.118	-0.186
-337.304	285.745	-0.083	0.148
-336.289	-52.714	0.166	0.076
-335.275	153.809	0.074	-0.100
-334.260	668.565	-0.114	0.293
-333.245	-146.766	0.376	0.032
-332.231	-200.000	0.015	0.077
-331.216	-117.691	-0.384	-0.069
-330.202	24.554	0.085	-0.070
-329.187	800.000	-0.113	-0.353
-328.172	800.000	0.041	-0.165
-327.158	50.874	-0.339	-0.319
-326.143	535.923	-0.076	-0.179
-325.129	-43.201	0.316	-0.159
-324.114	325.840	0.079	-0.149
-323.099	122.374	-0.041	-0.050
-322.085	-92.741	0.112	-0.031
-321.070	-65.313	0.053	0.021
-320.056	71.039	-0.223	-0.230
-319.041	-49.522	-0.381	-0.180
-318.026	720.289	0.208	-0.548
-317.012	-200.000	-0.005	-0.129
-315.997	-28.525	-0.274	-0.157
-314.983	277.882	0.054	0.096
-313.968	-73.530	-0.203	-0.074
-312.953	60.550	0.134	0.132
-311.939	-122.689	-0.342	0.055
-310.924	-81.036	0.213	-0.070
-309.910	-50.930	0.181	0.084
-308.895	330.078	-0.086	0.165
-307.880	800.000	0.093	0.313
-306.866	800.000	0.032	0.102
-305.851	359.344	-0.031	0.061
-304.837	43.670	0.335	0.304
-303.822	142.784	0.260	-0.343
-302.807	800.000	-0.069	0.204
-301.793	71.109	-0.245	0.252
-300.778	-200.000	0.012	0.136
-299.764	-200.000	-0.018	0.141
-298.749	261.858	-0.082	-0.141
-297.735	2.186	0.258	0.185
-296.720	273.872	-0.024	0.042
-295.705	-148.922	0.241	0.019
-294.691	-113.271	0.382	0.075
-293.676	65.656	0.050	0.050
-292.662	-200.000	-0.037	-0.212
-291.647	800.000	-0.059	0.257
-290.632	-200.000	0.026	-0.178
-289.618	-200.000	-0.008	0.266
-288.603	-200.000	0.009	0.245
-287.589	-46.896	-0.234	0.113
-286.574	-200.000	-0.035	0.206
-285.559	-200.000	0.037	-0.164
-284.545	800.000	-0.087	-0.286
-283.530	166.698	0.148	0.208
-282.516	29.474	0.185	-0.156
-281.501	-127.629	-0.485	-0.070
-280.486	-82.684	0.237	-0.076
-279.472	-58.835	0.219	0.094
-278.457	800.000	-0.046	-0.182
-277.443	800.000	0.060	0.166
-276.428	-1.487	0.320	0.224
-275.413	108.373	-0.298	0.353
-274.399	250.142	0.256	-0.430
-273.384	-200.000	0.002	0.162
-272.370	-200.000	0.005	-0.054
-271.355	-106.586	-0.301	-0.066
-270.340	-27.032	0.107	0.062
-269.326	493.013	-0.025	0.058
-268.311	162.504	-0.198	-0.274
-267.297	97.714	0.112	-0.127
-266.282	-108.552	-0.134	-0.029
-265.267	34.390	-0.152	0.131
-264.253	3.866	0.069	0.050
-263.238	-154.259	0.108	0.007
-262.224	800.000	0.070	0.263
-261.209	520.969	-0.178	0.412
-260.195	13.255	-0.084	0.064
-259.180	-200.000	-0.051	-0.344
-258.165	-140.654	-0.229	-0.023
-257.151	-200.000	-0.007	0.127
-256.136	515.449	-0.133	0.308
-255.122	-174.857	0.279	-0.008
-254.107	141.984	-0.234	0.307
-253.092	-107.512	-0.212	-0.046
-252.078	-15.793	0.179	0.113
-251.063	302.703	0.210	-0.385
-250.049	53.173	-0.179	-0.170
-249.034	468.406	-0.094	-0.208
-248.019	-12.560	-0.053	-0.034
-247.005	800.000	0.043	-0.157
-245.990	-142.935	0.291	-0.028
-244.976	462.966	0.087	0.191
-243.961	-133.597	-0.097	-0.012
-242.946	-30.532	0.194	-0.109
-241.932	-58.436	0.107	-0.046
-240.917	800.000	-0.060	-0.258
-239.903	193.464	-0.153	-0.229
-238.888	-13.232	0.120	-0.077
-237.873	800.000	0.106	0.343
-236.859	301.769	0.149	0.273
-235.844	691.217	-0.075	-0.195
-234.830	800.000	0.130	0.521
-233.815	800.000	-0.071	-0.242
-232.800	-25.586	0.368	-0.215
-231.786	-63.893	-0.365	-0.148
-230.771	190.969	0.074	0.110
-229.757	181.300	0.211	0.307
-228.742	7.315	-0.115	-0.085
-227.727	-200.000	-0.017	0.329
-226.713	-67.011	0.067	0.026
-225.698	0.998	0.358	0.254
-224.684	-36.150	-0.055	-0.029
-223.669	-200.000	-0.000	0.041
-222.655	-200.000	0.017	0.121
-221.640	29.339	0.129	-0.108
-220.625	392.124	0.137	0.282
-219.611	254.245	-0.123	-0.207
-218.596	-134.974	0.210	0.025
-217.582	-200.000	-0.034	-0.256
-216.567	-25.339	0.312	-0.182
-215.552	-200.000	0.003	-0.076
-214.538	-200.000	0.048	0.372
-213.523	800.000	-0.030	-0.118
-212.509	68.504	-0.132	-0.134
-211.494	-68.222	-0.348	-0.134
-210.479	268.387	0.066	0.114
-209.465	800.000	0.080	-0.331
-208.450	-200.000	-0.035	0.177
-207.436	264.475	-0.104	0.179
-206.421	800.000	-0.048	-0.162
-205.406	-200.000	0.031	0.245
-204.392	-196.156	-0.157	-0.001
-203.377	-171.984	-0.272	-0.009
-202.363	-30.869	-0.284	0.159
-201.348	-25.453	-0.155	-0.090
-200.333	-200.000	-0.061	0.271
-199.319	-116.795	0.504	0.091
-198.304	-200.000	0.012	-0.135
-197.290	-200.000	0.003	0.040
-196.275	-200.000	0.010	-0.082
-195.260	800.000	-0.096	0.268
-194.246	19.942	-0.416	0.331
-193.231	-200.000	0.021	0.471
-192.217	-200.000	-0.005	0.201
-191.202	-50.089	-0.161	-0.076
-190.187	295.391	0.067	-0.122
-189.173	-46.376	-0.078	0.038
-188.158	-81.727	0.161	0.052
-187.144	-67.748	-0.222	0.086
-186.129	-29.265	0.139	0.078
-185.114	-126.686	0.421	-0.062
-184.100	364.513	0.068	-0.135
-183.085	130.810	-0.130	-0.164
-182.071	91.509	0.140	-0.155
-181.056	-200.000	0.009	0.063
-180.042	95.185	0.232	0.261
-179.027	800.000	-0.066	-0.232
-178.012	-36.938	-0.143	-0.076
-176.998	3.730	0.342	0.246
-175.983	-70.071	0.205	0.077
-174.969	-121.516	-0.303	-0.050
-173.954	393.575	0.004	-0.009
-172.939	-185.547	0.276	-0.004
-171.925	-12.885	0.309	0.199
-170.910	-5.265	0.281	0.191
-169.896	-200.000	-0.003	-0.107
-168.881	68.356	0.390	0.394
-167.866	252.670	-0.032	0.054
-166.852	186.767	0.175	0.257
-165.837	327.410	-0.037	-0.070
-164.823	449.024	-0.110	-0.239
-163.808	800.000	0.043	-0.129
-162.793	-124.783	0.104	-0.016
-161.779	-111.392	-0.309	0.062
-160.764	84.241	-0.028	-0.030
-159.750	118.287	0.286	0.348
-158.735	389.627	0.119	-0.244
-157.720	-39.901	-0.106	-0.054
-156.706	-113.168	-0.072	-0.014
-155.691	-174.430	0.161	0.005
-154.677	-77.651	0.115	0.039
-153.662	-143.852	-0.291	0.027
-152.647	-73.091	-0.157	-0.057
-151.633	-200.000	-0.050	-0.248
-150.618	-142.489	-0.167	-0.016
-149.604	-139.696	-0.127	0.013
-148.589	399.698	-0.079	0.164
-147.574	-86.372	0.146	0.044
-146.560	237.024	0.079	-0.129
-145.545	-200.000	-0.003	0.201
-144.531	800.000	0.050	0.203
-143.516	43.454	0.208	-0.187
-142.502	165.740	-0.116	-0.162
-141.487	-200.000	-0.041	-0.309
-140.472	473.896	-0.140	0.311
-139.458	-200.000	0.033	0.157
-138.443	-200.000	0.008	-0.174
-137.429	184.513	-0.100	0.147
-136.414	549.388	0.138	0.326
-135.399	231.784	0.097	-0.156
-134.385	-54.694	-0.334	-0.149
-133.370	191.091	0.097	-0.144
-132.356	800.000	0.090	-0.382
-131.341	-49.316	0.248	-0.117
-130.326	-89.065	-0.121	-0.035
-129.312	23.038	-0.237	-0.191
-128.297	174.245	-0.091	0.129
-127.283	108.015	0.327	-0.384
-126.268	-45.985	-0.136	-0.066
-125.253	-173.413	0.357	0.011
-124.239	-200.000	-0.011	0.140
-123.224	-200.000	0.005	0.272
-122.210	-136.270	-0.222	-0.026
-121.195	90.535	0.064	0.071
-120.180	217.442	0.160	-0.252
-119.166	590.948	0.125	-0.303
-118.151	-200.000	0.056	-0.261
-117.137	800.000	-0.074	-0.222
-116.122	33.914	-0.028	0.024
-115.107	-200.000	-0.050	0.277
-114.093	-169.867	0.298	-0.011
-113.078	800.000	-0.105	0.317
-112.064	800.000	0.028	0.113
-111.049	800.000	-0.038	-0.135
-110.034	151.824	0.065	0.087
-109.020	-117.464	-0.154	0.027
-108.005	-200.000	0.034	-0.263
-106.991	49.985	-0.061	-0.056
-105.976	628.594	0.075	0.187
-104.962	-77.164	-0.196	0.067
-103.947	143.346	0.092	-0.121
-102.932	-200.000	0.019	-0.295
-101.918	-56.381	-0.305	-0.133
-100.903	162.535	0.231	0.318
-99.889	483.873	-0.092	-0.206
-98.874	0.387	0.269	-0.189
-97.859	-72.005	-0.080	-0.029
-96.845	-200.000	0.000	-0.115
-95.830	-61.465	-0.307	0.127
-94.816	55.609	0.206	0.196
-93.801	-200.000	0.020	-0.147
-92.786	157.027	0.090	0.122
-91.772	-81.587	0.114	0.037
-90.757	17.026	0.043	0.033
-89.743	234.679	-0.110	0.178
-88.728	391.858	-0.079	-0.162
-87.713	353.303	0.189	-0.368
-86.699	-50.385	0.277	0.129
-85.684	264.966	0.191	-0.328
-84.670	332.134	-0.020	0.037
-83.655	800.000	0.041	-0.144
-82.640	-200.000	-0.029	0.195
-81.626	-200.000	-0.046	0.297
-80.611	800.000	-0.077	-0.302
-79.597	155.243	-0.115	-0.155
-78.582	800.000	-0.063	-0.183
-77.567	300.340	0.175	-0.318
-76.553	-200.000	-0.009	-0.220
-75.538	-200.000	0.032	0.218
-74.524	111.031	0.035	0.042
-73.509	-39.887	0.172	0.088
-72.494	232.504	0.064	-0.103
-71.480	441.219	-0.007	-0.014
-70.465	-200.000	0.023	0.134
-69.451	434.078	0.056	0.118
-68.436	-76.139	0.449	-0.156
-67.422	-122.641	0.224	-0.036
-66.407	483.076	-0.238	-0.533
-65.392	221.719	-0.064	0.101
-64.378	-22.330	0.141	0.084
-63.363	-200.000	-0.011	-0.076
-62.349	-158.576	-0.497	0.028
-61.334	68.848	-0.997	-1.005
-60.319	318.257	0.349	0.649
-59.305	215.958	-0.408	-0.636
-58.290	132.936	0.872	1.106
-57.276	800.000	0.388	1.400
-56.261	-200.000	102.457	592.116
-55.246	565.841	1420.939	3384.283
-54.232	188.929	2615.092	3844.513
-53.217	110.178	2277.578	2685.329
-52.203	40.231	1895.706	1674.153
-51.188	34.153	1684.574	1441.767
-50.173	31.459	1641.382	1384.826
-49.159	49.335	1690.737	1561.208
-48.144	50.593	1707.798	1586.362
-47.130	33.738	1666.591	1423.043
-46.115	31.027	1652.286	1390.582
-45.100	30.923	1647.179	1385.457
-44.086	30.794	1645.126	1382.718
-43.071	30.755	1642.457	1380.130
-42.057	30.731	1640.335	1378.116
-41.042	30.886	1637.562	1376.878
-40.027	30.841	1635.808	1375.012
-39.013	30.736	1634.290	1372.912
-37.998	30.762	1632.827	1371.821
-36.984	30.719	1631.793	1370.580
-35.969	30.864	1629.635	1369.778
-34.954	30.960	1627.941	1369.006
-33.940	30.845	1626.906	1367.236
-32.925	30.908	1624.469	1365.597
-31.911	30.855	1623.245	1364.121
-30.896	30.807	1621.800	1362.505
-29.881	30.903	1619.632	1361.330
-28.867	30.873	1618.004	1359.688
-27.852	30.822	1616.919	1358.349
-26.838	30.815	1615.500	1357.054
-25.823	30.905	1613.881	1356.293
-24.809	30.907	1612.868	1355.402
-23.794	30.957	1611.127	1354.253
-22.779	31.026	1609.316	1353.179
-21.765	30.956	1608.131	1351.621
-20.750	30.882	1606.729	1349.848
-19.736	30.940	1604.719	1348.529
-18.721	30.962	1603.435	1347.552
-17.706	30.919	1602.275	1346.217
-16.692	30.953	1600.312	1344.759
-15.677	30.916	1598.907	1343.254
-14.663	31.009	1597.933	1343.056
-13.648	30.914	1596.793	1341.357
-12.633	30.844	1595.520	1339.734
-11.619	30.933	1593.482	1338.607
-10.604	30.991	1592.195	1337.890
-9.590	30.940	1590.586	1336.122
-8.575	30.908	1589.455	1334.885
-7.560	30.998	1588.241	1334.457
-6.546	30.974	1586.892	1333.099
-5.531	30.829	1586.697	1331.849
-4.517	30.875	1585.193	1330.863
-3.502	30.962	1583.623	1330.110
-2.487	31.009	1582.036	1329.059
-1.473	30.658	1570.547	1316.874
-0.458	27.927	1551.554	1281.761
0.556	23.657	1552.346	1250.529
1.571	21.340	1575.693	1252.645
2.586	20.970	1588.387	1259.948
3.600	18.607	1535.188	1201.116
4.615	11.405	1428.926	1070.781
5.629	5.523	1368.198	988.130
6.644	4.657	1361.184	977.536
7.659	4.606	1359.647	976.028
8.673	4.571	1358.520	974.912
9.688	4.647	1356.229	973.657
10.702	4.527	1353.564	970.908
11.717	7.220	1359.032	991.620
12.731	14.216	1371.416	1044.623
13.746	18.708	1378.364	1078.096
14.761	18.662	1376.985	1076.637
15.775	17.744	1374.469	1068.825
16.790	16.679	1371.290	1059.594
17.804	15.843	1369.343	1052.767
18.819	15.402	1368.039	1048.918
19.834	15.192	1367.025	1046.732
20.848	14.947	1365.566	1043.993
21.863	14.628	1364.899	1041.404
22.877	14.578	1363.160	1039.674
23.892	14.514	1362.222	1038.467
24.907	14.500	1361.730	1037.911
25.921	14.586	1360.559	1037.461
26.936	14.605	1359.997	1037.058
27.950	14.684	1358.197	1036.087
28.965	14.771	1357.425	1035.944
29.980	14.782	1356.527	1035.233
30.994	14.832	1355.837	1034.928
32.009	14.899	1354.395	1034.153
33.023	14.919	1353.020	1033.131
34.038	14.802	1352.122	1031.633
35.053	14.714	1350.958	1030.112
36.067	14.763	1349.882	1029.502
37.082	14.785	1348.591	1028.561
38.096	14.734	1347.794	1027.548
39.111	14.774	1346.797	1026.944
40.126	14.696	1345.998	1025.763
41.140	14.592	1345.485	1024.645
42.155	14.444	1344.851	1023.162
43.169	14.445	1344.305	1022.659
44.184	14.417	1344.346	1022.429
45.199	14.530	1343.531	1022.413
46.213	14.541	1343.315	1022.228
47.228	14.640	1342.526	1022.143
48.242	14.707	1341.406	1021.607
49.257	14.731	1339.150	1019.946
50.271	14.643	1338.101	1018.518
51.286	14.682	1337.024	1017.845
52.301	14.701	1335.571	1016.765
53.315	14.532	1334.645	1014.944
54.330	14.571	1333.491	1014.216
55.344	14.552	1332.286	1013.094
56.359	14.612	1331.256	1012.583
57.374	14.607	1330.012	1011.518
58.388	14.499	1329.620	1010.478
59.403	14.360	1329.373	1009.354
60.417	14.399	1328.128	1008.557
61.432	14.353	1327.550	1007.750
62.447	14.341	1326.581	1006.852
63.461	14.310	1325.580	1005.815
64.476	14.367	1324.425	1005.194
65.490	14.321	1323.152	1003.863
66.505	14.472	1320.932	1003.000
67.520	14.435	1320.219	1002.145
68.534	14.473	1319.085	1001.423
69.549	14.400	1318.499	1000.454
70.563	14.332	1317.347	999.084
71.578	14.226	1316.336	997.590
72.593	14.277	1315.089	996.865
73.607	14.364	1314.017	996.483
74.622	14.223	1314.033	995.564
75.636	14.284	1313.159	995.177
76.651	14.351	1312.832	995.244
77.666	14.341	1311.856	994.354
78.680	14.336	1311.572	994.020
79.695	14.332	1310.957	993.443
80.709	14.422	1309.930	993.117
81.724	14.454	1309.484	992.882
82.739	14.567	1308.179	992.474
83.753	14.628	1307.635	992.335
84.768	14.601	1307.193	991.752
85.782	14.754	1305.280	991.120
86.797	14.740	1304.505	990.363
87.812	14.703	1303.088	988.978
88.826	14.638	1302.054	987.725
89.841	14.647	1301.196	987.036
90.855	14.703	1300.289	986.592
91.870	14.806	1299.112	986.224
92.884	14.836	1298.148	985.580
93.899	14.759	1297.410	984.476
94.914	14.819	1297.118	984.524
95.928	14.806	1295.760	983.329
96.943	14.785	1294.710	982.319
97.957	14.802	1293.862	981.688
98.972	14.836	1292.669	980.900
99.987	14.797	1291.995	980.069
101.001	14.784	1290.752	978.964
102.016	14.730	1290.104	978.070
103.030	14.834	1289.259	977.953
104.045	14.707	1288.765	976.747
105.060	14.669	1286.878	975.011
106.074	14.523	1285.568	973.082
107.089	14.541	1284.187	972.052
108.103	14.471	1282.694	970.429
109.118	14.458	1281.763	969.561
110.133	14.483	1280.499	968.668
111.147	14.405	1279.120	967.084
112.162	14.488	1277.965	966.609
113.176	14.510	1276.868	965.823
114.191	14.590	1276.030	965.567
115.206	14.436	1274.998	963.806
116.220	14.522	1273.852	963.351
117.235	14.489	1272.626	962.150
118.249	14.610	1271.132	961.632
119.264	14.554	1269.907	960.299
120.279	14.346	1269.678	958.841
121.293	14.435	1268.061	958.050
122.308	14.363	1267.061	956.792
123.322	14.433	1266.138	956.416
124.337	14.398	1264.713	955.056
125.352	14.410	1264.186	954.639
126.366	14.431	1262.911	953.710
127.381	14.303	1262.351	952.470
128.395	14.384	1261.109	951.912
129.410	14.438	1259.576	950.981
130.424	14.324	1259.608	950.272
131.439	14.577	1257.882	950.327
132.454	14.453	1257.699	949.395
133.468	14.569	1256.379	948.977
134.483	14.629	1255.668	948.695
135.497	14.592	1254.969	947.875
136.512	14.563	1253.607	946.598
137.527	14.534	1252.391	945.429
138.541	14.602	1250.911	944.616
139.556	14.620	1249.615	943.656
140.570	14.701	1248.736	943.368
141.585	14.697	1247.667	942.452
142.600	14.646	1246.659	941.320
143.614	14.834	1245.593	941.491
144.629	14.862	1244.906	941.046
145.643	14.850	1243.450	939.795
146.658	14.696	1242.584	938.189
147.673	14.747	1240.604	936.900
148.687	14.626	1239.513	935.316
149.702	14.638	1238.678	934.670
150.716	14.513	1237.476	932.978
151.731	14.598	1236.247	932.446
152.746	14.613	1235.102	931.584
153.760	14.733	1234.046	931.373
154.775	14.770	1232.891	930.628
155.789	14.846	1231.666	930.039
156.804	14.768	1230.792	928.864
157.819	14.885	1229.526	928.479
158.833	14.900	1228.944	928.037
159.848	15.002	1228.082	927.870
160.862	14.992	1227.132	927.015
161.877	14.828	1226.194	925.320
162.892	14.738	1224.942	923.793
163.906	14.692	1223.775	922.578
164.921	14.802	1222.961	922.491
165.935	14.763	1222.271	921.675
166.950	14.800	1221.550	921.250
167.964	14.861	1220.503	920.717
168.979	14.778	1219.937	919.748
169.994	14.811	1219.311	919.381
171.008	14.837	1218.265	918.654
172.023	14.964	1217.639	918.794
173.037	14.966	1217.040	918.274
174.052	15.045	1215.720	917.628
175.067	14.932	1214.835	916.258
176.081	14.963	1213.778	915.553
177.096	14.910	1212.669	914.343
178.110	14.800	1212.026	913.181
179.125	14.849	1210.899	912.515
180.140	14.893	1209.713	911.781
181.154	14.842	1208.434	910.458
182.169	15.055	1206.793	910.300
183.183	15.057	1205.565	909.303
184.198	15.090	1205.051	909.016
185.213	15.045	1203.932	907.846
186.227	15.163	1202.784	907.542
187.242	15.159	1201.971	906.824
188.256	15.253	1200.911	906.456
189.271	15.251	1200.205	905.830
190.286	15.129	1198.765	904.005
191.300	15.021	1197.650	902.501
192.315	14.847	1197.199	901.143
193.329	14.781	1196.708	900.338
194.344	14.880	1196.397	900.558
195.359	15.006	1195.610	900.563
196.373	15.143	1194.969	900.737
197.388	15.232	1194.490	900.776
198.402	15.260	1194.578	900.914
199.417	15.307	1193.793	900.492
200.432	15.419	1192.590	900.108
201.446	15.434	1192.350	899.928
202.461	15.562	1191.192	899.659
203.475	15.401	1190.267	898.022
204.490	15.277	1189.095	896.393
205.504	15.270	1187.824	895.317
206.519	15.268	1186.425	894.174
207.534	15.341	1185.225	893.577
208.548	15.388	1184.160	892.946
209.563	15.306	1183.809	892.166
210.577	15.407	1182.616	891.724
211.592	15.408	1182.356	891.455
212.607	15.404	1181.456	890.679
213.621	15.544	1180.028	890.263
214.636	15.441	1179.343	889.123
215.650	15.485	1178.604	888.721
216.665	15.483	1177.638	887.904
217.680	15.565	1176.795	887.624
218.694	15.656	1175.795	887.269
219.709	15.577	1175.379	886.462
220.723	15.568	1174.380	885.583
221.738	15.673	1173.498	885.393
222.753	15.582	1172.791	884.300
223.767	15.670	1172.173	884.219
224.782	15.669	1171.781	883.839
225.796	15.770	1170.952	883.667
226.811	15.726	1170.302	882.867
227.826	15.536	1169.808	881.419
228.840	15.622	1169.124	881.277
229.855	15.697	1168.209	880.899
230.869	15.626	1167.572	879.970
231.884	15.531	1166.933	878.913
232.899	15.737	1165.551	878.871
233.913	15.611	1164.968	877.696
234.928	15.658	1163.869	877.034
235.942	15.488	1163.751	875.981
236.957	15.583	1162.503	875.461
237.972	15.537	1161.896	874.686
238.986	15.703	1161.145	874.909
240.001	15.576	1160.595	873.757
241.015	15.622	1159.984	873.458
242.030	15.612	1159.224	872.757
243.045	15.704	1158.264	872.436
244.059	15.769	1157.793	872.338
245.074	15.839	1156.732	871.823
246.088	15.855	1155.981	871.265
247.103	15.796	1155.554	870.559
248.117	16.035	1154.552	870.963
249.132	16.075	1153.525	870.318
250.147	16.099	1153.270	870.170
251.161	16.115	1152.750	869.788
252.176	16.179	1151.833	869.348
253.190	16.272	1150.955	869.086
254.205	16.297	1150.842	869.053
255.220	16.306	1150.156	868.502
256.234	16.298	1149.275	867.722
257.249	16.373	1148.785	867.659
258.263	16.406	1147.898	867.081
259.278	16.241	1147.291	865.701
260.293	16.434	1146.630	866.114
261.307	16.374	1146.067	865.307
262.322	16.280	1145.645	864.429
263.336	16.399	1144.604	864.174
264.351	16.391	1143.920	863.544
265.366	16.532	1143.333	863.742
266.380	16.409	1142.950	862.748
267.395	16.475	1141.787	862.131
268.409	16.339	1141.278	860.979
269.424	16.301	1140.502	860.124
270.439	16.412	1139.834	860.109
271.453	16.400	1138.694	859.109
272.468	16.457	1138.425	859.120
273.482	16.191	1137.874	857.275
274.497	16.278	1137.108	857.067
275.512	16.448	1136.138	857.120
276.526	16.504	1135.374	856.755
277.541	16.371	1134.759	855.537
278.555	16.442	1134.259	855.448
279.570	16.518	1133.605	855.263
280.585	16.638	1132.775	855.166
281.599	16.612	1131.823	854.242
282.614	16.603	1130.574	853.179
283.628	16.585	1129.338	852.076
284.643	16.542	1128.726	851.323
285.657	16.528	1127.940	850.588
286.672	16.550	1126.851	849.799
287.687	16.566	1126.353	849.429
288.701	16.562	1125.500	848.690
289.716	16.570	1125.007	848.284
290.730	16.736	1123.376	847.810
291.745	16.727	1123.159	847.526
292.760	16.693	1122.626	846.881
293.774	16.762	1122.166	846.800
294.789	16.680	1121.880	846.100
295.803	16.673	1120.853	845.219
296.818	16.767	1119.983	844.955
297.833	16.634	1119.552	843.894
298.847	16.752	1118.536	843.640
299.862	16.763	1117.494	842.834
300.876	16.738	1117.192	842.406
301.891	16.847	1116.530	842.376
302.906	16.759	1115.861	841.359
303.920	16.943	1115.370	841.828
304.935	16.960	1114.719	841.346
305.949	17.054	1113.826	841.065
306.964	16.914	1113.426	839.993
307.979	16.974	1112.618	839.607
308.993	16.976	1111.547	838.735
310.008	17.113	1110.679	838.681
311.022	17.045	1109.661	837.502
312.037	17.184	1108.932	837.563
313.052	16.906	1108.438	835.749
314.066	16.930	1107.195	834.856
315.081	16.867	1106.252	833.761
316.095	16.877	1105.815	833.407
317.110	16.882	1105.257	832.937
318.125	17.001	1104.015	832.508
319.139	16.892	1103.616	831.602
320.154	16.957	1103.187	831.523
321.168	16.911	1102.453	830.673
322.183	17.055	1101.276	830.415
323.197	17.069	1100.925	830.146
324.212	16.969	1100.580	829.320
325.227	16.985	1100.187	829.029
326.241	17.089	1099.233	828.747
327.256	16.977	1098.753	827.763
328.270	16.946	1098.181	827.110
329.285	17.002	1097.096	826.492
330.300	17.161	1095.635	826.091
331.314	16.945	1095.578	824.925
332.329	17.097	1093.847	824.287
333.343	17.032	1093.306	823.491
334.358	17.172	1092.719	823.656
335.373	17.152	1091.858	822.834
336.387	17.265	1090.842	822.542
337.402	17.233	1090.182	821.819
338.416	17.359	1089.395	821.763
339.431	17.209	1089.464	821.019
340.446	17.337	1088.819	821.077
341.460	17.472	1087.993	821.034
342.475	17.486	1087.218	820.443
343.489	17.473	1086.411	819.700
344.504	17.479	1085.261	818.784
345.519	17.592	1084.662	818.804
346.533	17.561	1084.126	818.177
347.548	17.746	1083.228	818.317
348.562	17.410	1082.547	816.117
349.577	17.496	1081.525	815.687
350.592	17.463	1080.991	815.054
351.606	17.417	1080.487	814.383
352.621	17.314	1079.506	813.077
353.635	17.493	1078.686	813.245
354.650	17.494	1077.484	812.273
355.665	17.522	1076.951	811.928
356.679	17.428	1076.602	811.147
357.694	17.471	1076.232	811.002
358.708	17.544	1075.470	810.703
359.723	17.709	1074.651	810.799
360.738	17.671	1073.989	810.047
361.752	17.603	1073.354	809.173
362.767	17.576	1073.133	808.807
363.781	17.742	1072.451	809.009
364.796	17.758	1071.627	808.394
365.810	17.699	1071.376	807.852
366.825	17.845	1070.853	808.075
367.840	17.840	1070.380	807.627
368.854	17.824	1070.212	807.349
369.869	17.982	1068.972	807.093
370.883	17.919	1068.097	806.059
371.898	17.895	1067.335	805.303
372.913	17.865	1066.827	804.707
373.927	17.993	1065.893	804.533
374.942	18.074	1065.436	804.500
375.956	18.069	1065.335	804.327
376.971	17.875	1064.713	802.872
377.986	18.073	1063.969	803.172
379.000	18.095	1063.283	802.686
380.015	18.081	1062.739	802.141
381.029	18.146	1062.212	801.974
382.044	18.147	1061.294	801.217
383.059	18.224	1060.730	801.081
384.073	18.054	1060.270	799.865
385.088	18.270	1058.841	799.728
386.102	18.199	1058.359	798.960
387.117	18.127	1057.002	797.531
388.132	17.958	1056.738	796.472
389.146	18.000	1055.502	795.666
390.161	18.016	1054.928	795.236
391.175	18.085	1054.123	794.881
392.190	18.207	1053.586	794.972
393.205	18.119	1053.145	794.160
394.219	18.215	1052.004	793.672
395.234	18.198	1050.805	792.619
396.248	18.162	1049.640	791.507
397.263	18.147	1048.778	790.717
398.278	18.114	1048.594	790.356
399.292	18.056	1047.902	789.494
400.307	18.043	1046.832	788.560
401.321	18.077	1046.443	788.354
402.336	17.915	1045.942	787.159
403.350	18.105	1045.136	787.356
404.365	18.108	1044.424	786.765
405.380	18.128	1043.483	786.078
406.394	18.210	1042.679	785.779
407.409	18.248	1042.199	785.523
408.423	18.408	1041.198	785.435
409.438	18.404	1041.097	785.272
410.453	18.512	1040.275	785.076
411.467	18.575	1039.482	784.695
412.482	18.551	1038.891	784.070
413.496	18.590	1038.194	783.653
414.511	18.638	1037.884	783.569
415.526	18.593	1036.886	782.540
416.540	18.802	1036.525	783.152
417.555	18.732	1035.931	782.316
418.569	18.685	1035.186	781.470
419.584	18.728	1034.871	781.359
420.599	18.718	1034.695	781.110
421.613	150.769	1402.034	1797.305
422.628	137.673	1455.548	1797.405
