DTS Sentinel unit serial number:	SN413079Multiplexer serial number:	ORYXHardware model number:	OX4-SRSoftware version number:	ORYX F/W v4.00 Oryx Data Collector v3.7.2.0data status	okinstallation	princeton_trtdifferential loss correction	single-endedforward channel	channel 2reverse channel	N/Adate	2019/09/13time	08:27:35forward acquisition time	60.00reverse acquisition time	0.00gamma	496.2192k internal	0.2332k external	0.2332temperature offset calibration	1.0195default loss term (dB/km)	0.3790temperature slope calibration	1.0000multiplexer offset coefficient	1.0000multiplexer slope coefficient	1.0000fibre end	0.00T internal ref (°C)	27.41T ext. ref 1 (°C)	4.28T ext. ref 2 (°C)	24.08length (m)	temperature (°C)	Stokes	anti-Stokes-747.200	276.959	0.043	-0.077
-746.185	-117.737	0.221	-0.040
-745.171	800.000	-0.064	0.194
-744.156	800.000	-0.057	0.176
-743.142	779.013	0.016	-0.043
-742.127	-200.000	-0.020	0.363
-741.112	-192.621	0.264	0.002
-740.098	-200.000	-0.005	0.105
-739.083	-72.717	0.337	0.125
-738.069	-200.000	-0.037	0.213
-737.054	-154.178	-0.191	0.013
-736.039	-200.000	-0.002	-0.368
-735.025	75.686	0.166	0.176
-734.010	800.000	-0.094	-0.391
-732.996	112.210	-0.057	-0.069
-731.981	57.074	-0.121	0.119
-730.966	-200.000	0.002	0.039
-729.952	-69.797	-0.191	-0.073
-728.937	107.001	-0.089	0.106
-727.923	362.388	0.066	-0.132
-726.908	-186.147	-0.075	-0.001
-725.894	119.637	-0.083	0.104
-724.879	-200.000	0.003	-0.237
-723.864	-131.911	-0.266	-0.035
-722.850	800.000	-0.130	0.453
-721.835	800.000	0.036	-0.111
-720.821	7.258	0.142	-0.106
-719.806	136.319	-0.113	0.148
-718.791	227.313	-0.152	-0.249
-717.777	-114.764	-0.217	-0.042
-716.762	147.715	-0.166	-0.225
-715.748	-169.724	-0.165	0.006
-714.733	-39.196	0.410	-0.216
-713.718	74.387	0.109	-0.115
-712.704	800.000	-0.103	0.305
-711.689	-200.000	0.007	-0.038
-710.675	423.914	0.073	-0.158
-709.660	-200.000	0.026	0.218
-708.645	800.000	0.064	-0.246
-707.631	800.000	0.032	-0.110
-706.616	382.199	0.102	0.210
-705.602	-200.000	0.021	-0.129
-704.587	42.799	0.346	-0.317
-703.572	800.000	-0.092	0.261
-702.558	-34.043	-0.271	0.150
-701.543	26.344	0.311	0.261
-700.529	-66.007	0.112	-0.045
-699.514	170.884	0.007	0.011
-698.499	27.840	0.268	-0.227
-697.485	-9.153	-0.278	0.187
-696.470	-136.844	-0.164	-0.019
-695.456	-200.000	-0.024	-0.338
-694.441	-200.000	0.053	-0.240
-693.426	800.000	-0.026	0.107
-692.412	286.368	0.014	0.026
-691.397	-11.642	-0.211	-0.139
-690.383	-200.000	0.069	-0.338
-689.368	-181.804	0.073	0.001
-688.354	-98.120	0.257	-0.066
-687.339	81.139	-0.033	0.036
-686.324	-192.945	0.140	0.001
-685.310	-40.461	-0.124	-0.064
-684.295	-6.011	-0.092	-0.063
-683.281	-13.268	0.193	0.126
-682.266	-10.905	0.170	-0.112
-681.251	800.000	-0.031	0.114
-680.237	-43.630	-0.148	0.075
-679.222	92.595	0.073	0.083
-678.208	-200.000	0.025	0.171
-677.193	-95.353	-0.476	-0.128
-676.178	-33.919	0.221	-0.122
-675.164	-69.755	-0.266	0.102
-674.149	-5.601	-0.146	0.100
-673.135	800.000	-0.140	0.398
-672.120	800.000	0.055	0.187
-671.105	-95.109	-0.115	0.031
-670.091	-75.804	0.111	0.039
-669.076	11.778	-0.201	-0.155
-668.062	800.000	-0.041	0.168
-667.047	776.338	-0.031	0.086
-666.032	292.216	-0.169	-0.309
-665.018	-116.879	-0.273	-0.050
-664.003	800.000	-0.019	0.059
-662.989	-149.119	0.433	-0.035
-661.974	-30.368	-0.128	0.073
-660.959	39.220	0.137	-0.123
-659.945	-200.000	-0.035	0.292
-658.930	800.000	0.036	0.141
-657.916	101.372	0.190	0.222
-656.901	-200.000	-0.001	0.122
-655.886	800.000	-0.022	-0.077
-654.872	-200.000	-0.004	0.222
-653.857	77.969	0.120	0.128
-652.843	-140.041	-0.245	-0.026
-651.828	-130.345	0.136	0.018
-650.814	127.568	0.092	-0.118
-649.799	49.749	0.036	0.034
-648.784	184.292	-0.166	-0.247
-647.770	-101.304	-0.054	0.013
-646.755	341.456	-0.116	-0.228
-645.741	-20.042	-0.387	0.239
-644.726	-10.078	0.169	0.113
-643.711	-48.754	-0.184	-0.088
-642.697	-51.625	-0.156	0.073
-641.682	-89.491	-0.254	-0.075
-640.668	-200.000	0.029	-0.129
-639.653	-36.186	-0.166	0.090
-638.638	-200.000	-0.014	0.097
-637.624	-22.560	-0.182	-0.110
-636.609	-200.000	-0.050	-0.441
-635.595	800.000	0.051	-0.201
-634.580	-94.965	0.357	0.097
-633.565	229.514	0.011	0.017
-632.551	-102.782	0.142	-0.034
-631.536	-200.000	-0.020	-0.127
-630.522	-164.180	0.336	0.016
-629.507	44.297	-0.073	-0.067
-628.492	344.231	-0.090	-0.176
-627.478	-10.252	0.025	0.017
-626.463	-40.947	-0.157	-0.081
-625.449	190.702	0.021	0.032
-624.434	-53.467	-0.188	-0.086
-623.419	-76.085	0.233	-0.082
-622.405	-200.000	0.041	-0.266
-621.390	-11.884	-0.131	-0.086
-620.376	-200.000	0.043	-0.196
-619.361	-41.199	0.123	0.064
-618.346	-200.000	-0.026	0.290
-617.332	-45.785	0.176	-0.087
-616.317	79.441	-0.169	-0.182
-615.303	-154.156	-0.060	-0.004
-614.288	-78.242	-0.364	0.125
-613.273	-148.799	0.321	-0.026
-612.259	58.096	0.127	-0.124
-611.244	-169.417	-0.233	0.009
-610.230	-200.000	0.063	-0.394
-609.215	-46.038	-0.271	0.134
-608.201	-64.060	0.405	0.165
-607.186	159.586	0.282	-0.392
-606.171	212.182	-0.093	-0.146
-605.157	29.212	-0.356	-0.302
-604.142	-200.000	0.055	0.249
-603.128	-155.275	0.211	0.014
-602.113	-200.000	0.006	-0.205
-601.098	-49.906	-0.208	0.099
-600.084	-98.945	-0.367	0.093
-599.069	-42.223	-0.220	-0.112
-598.055	118.586	0.179	0.221
-597.040	47.086	-0.262	0.243
-596.025	-156.573	0.188	0.012
-595.011	-42.208	-0.261	0.134
-593.996	-70.481	0.049	-0.019
-592.982	-152.279	0.038	0.003
-591.967	-128.092	-0.365	-0.052
-590.952	-200.000	0.012	-0.240
-589.938	-48.586	0.117	0.056
-588.923	-200.000	0.024	-0.109
-587.909	-18.226	-0.141	-0.088
-586.894	-131.638	0.193	0.025
-585.879	154.130	-0.038	0.052
-584.865	352.741	-0.180	0.358
-583.850	139.733	0.292	-0.384
-582.836	-81.912	-0.193	-0.063
-581.821	-9.014	-0.184	-0.123
-580.806	-36.661	-0.392	-0.211
-579.792	-200.000	-0.032	-0.178
-578.777	-106.755	-0.127	0.028
-577.763	-131.277	-0.434	-0.057
-576.748	-200.000	-0.070	0.365
-575.733	75.697	0.046	0.048
-574.719	800.000	-0.028	0.101
-573.704	-89.933	-0.284	0.083
-572.690	800.000	0.056	0.176
-571.675	-2.086	-0.138	-0.097
-570.661	257.742	0.157	-0.271
-569.646	-26.546	0.166	-0.097
-568.631	800.000	-0.119	-0.374
-567.617	-200.000	-0.020	-0.282
-566.602	-55.903	-0.114	-0.051
-565.588	-138.409	0.273	-0.030
-564.573	423.841	0.036	-0.077
-563.558	800.000	0.059	-0.169
-562.544	9.862	0.139	0.105
-561.529	-98.070	0.247	-0.064
-560.515	-79.130	-0.174	-0.059
-559.500	-200.000	-0.017	0.168
-558.485	100.682	-0.074	0.086
-557.471	83.025	0.041	-0.045
-556.456	268.195	-0.120	-0.210
-555.442	61.965	-0.126	-0.125
-554.427	-200.000	-0.019	-0.093
-553.412	-5.683	0.171	-0.117
-552.398	-125.590	0.281	0.043
-551.383	-200.000	-0.005	0.146
-550.369	-147.929	0.375	-0.031
-549.354	196.636	0.028	-0.042
-548.339	-120.326	0.186	-0.032
-547.325	800.000	-0.073	0.318
-546.310	-105.884	0.132	0.030
-545.296	-133.694	0.236	0.029
-544.281	225.720	-0.069	-0.112
-543.266	-119.632	0.362	-0.063
-542.252	-108.771	-0.352	-0.075
-541.237	-118.945	-0.231	0.040
-540.223	-49.721	-0.174	0.083
-539.208	37.640	-0.392	-0.347
-538.193	-146.513	0.337	0.029
-537.179	800.000	-0.047	0.204
-536.164	-132.972	-0.235	0.030
-535.150	307.725	0.138	0.258
-534.135	87.967	-0.197	-0.218
-533.121	45.885	0.228	-0.211
-532.106	-117.397	-0.243	-0.044
-531.091	-126.592	-0.224	-0.033
-530.077	-200.000	-0.025	0.224
-529.062	56.484	-0.173	0.168
-528.048	-200.000	-0.031	-0.311
-527.033	291.453	0.073	-0.133
-526.018	41.993	-0.301	-0.272
-525.004	478.356	-0.012	-0.026
-523.989	-124.323	-0.148	-0.023
-522.975	73.603	-0.230	0.240
-521.960	-200.000	0.043	0.302
-520.945	630.020	-0.087	0.219
-519.931	415.482	0.105	-0.223
-518.916	800.000	0.076	-0.214
-517.902	-48.929	0.263	0.125
-516.887	-23.327	-0.283	0.170
-515.872	36.680	0.281	-0.247
-514.858	223.549	0.171	0.275
-513.843	-200.000	0.029	0.292
-512.829	112.097	0.078	-0.094
-511.814	-200.000	-0.065	0.317
-510.799	-80.664	0.196	0.065
-509.785	353.526	-0.066	0.131
-508.770	-61.501	-0.292	0.122
-507.756	299.794	-0.155	-0.285
-506.741	-124.371	0.250	-0.039
-505.726	-116.900	0.340	-0.062
-504.712	-200.000	0.059	0.262
-503.697	67.406	0.190	0.193
-502.683	-114.790	0.048	0.009
-501.668	-116.720	0.292	-0.053
-500.653	50.266	-0.174	0.164
-499.639	-35.061	-0.254	-0.138
-498.624	-90.502	-0.348	0.100
-497.610	-128.975	0.174	-0.024
-496.595	-134.341	0.277	0.034
-495.581	-145.924	-0.298	-0.026
-494.566	522.772	0.114	-0.267
-493.551	-17.453	0.201	0.126
-492.537	-105.694	-0.266	0.060
-491.522	800.000	-0.042	-0.124
-490.508	-200.000	-0.006	-0.075
-489.493	187.104	-0.020	0.030
-488.478	118.055	0.157	-0.192
-487.464	-80.728	0.197	0.065
-486.449	800.000	0.042	0.145
-485.435	108.034	-0.184	-0.219
-484.420	-56.253	0.148	-0.066
-483.405	105.389	-0.186	0.218
-482.391	109.822	-0.253	-0.302
-481.376	-54.309	0.120	0.054
-480.362	-103.319	0.189	-0.044
-479.347	15.444	0.097	-0.076
-478.332	-75.217	0.432	-0.154
-477.318	212.182	0.083	0.131
-476.303	-200.000	0.015	-0.197
-475.289	204.009	0.035	0.053
-474.274	-200.000	0.028	0.242
-473.259	-169.870	-0.210	0.007
-472.245	-67.382	-0.155	-0.061
-471.230	177.271	0.167	-0.242
-470.216	527.490	-0.024	0.057
-469.201	-142.967	-0.225	-0.022
-468.186	62.416	-0.097	0.096
-467.172	260.357	-0.100	-0.172
-466.157	-95.543	0.145	-0.039
-465.143	-4.427	0.154	0.106
-464.128	-194.717	-0.105	-0.001
-463.113	-180.648	-0.090	-0.002
-462.099	25.821	-0.160	0.132
-461.084	237.408	0.194	0.320
-460.070	188.206	0.397	0.590
-459.055	-50.901	0.105	-0.049
-458.040	-56.297	-0.245	0.108
-457.026	10.496	-0.194	-0.147
-456.011	-200.000	-0.002	0.055
-454.997	-53.472	0.127	0.058
-453.982	18.612	0.124	-0.099
-452.968	47.709	-0.084	-0.078
-451.953	-124.485	-0.194	-0.030
-450.938	-59.346	-0.120	0.051
-449.924	94.481	-0.065	0.073
-448.909	-200.000	0.008	-0.315
-447.895	92.983	0.203	-0.228
-446.880	-200.000	-0.027	0.209
-445.865	21.868	-0.214	-0.174
-444.851	-200.000	0.056	-0.282
-443.836	-110.232	-0.062	0.013
-442.822	-200.000	-0.008	0.044
-441.807	-74.977	0.315	-0.112
-440.792	141.209	-0.089	-0.117
-439.778	800.000	-0.098	0.341
-438.763	111.207	-0.167	0.200
-437.749	193.830	-0.111	-0.167
-436.734	800.000	-0.077	-0.314
-435.719	-80.596	-0.454	0.150
-434.705	-200.000	0.018	0.393
-433.690	-36.076	-0.121	-0.065
-432.676	109.645	0.005	0.006
-431.661	-144.389	-0.301	0.028
-430.646	711.643	0.055	-0.146
-429.632	-141.273	0.294	-0.030
-428.617	140.038	-0.175	-0.230
-427.603	47.371	-0.351	-0.325
-426.588	275.266	0.118	-0.207
-425.573	-91.976	0.182	-0.051
-424.559	800.000	-0.038	0.123
-423.544	800.000	-0.072	-0.266
-422.530	-152.306	0.080	0.006
-421.515	-88.564	-0.283	0.084
-420.500	-153.791	0.341	0.023
-419.486	-200.000	-0.058	-0.310
-418.471	-72.353	-0.118	0.043
-417.457	-12.931	0.093	-0.060
-416.442	-0.005	-0.163	0.116
-415.428	-82.238	-0.115	-0.037
-414.413	203.216	-0.120	0.184
-413.398	-200.000	-0.031	0.153
-412.384	-120.204	0.532	-0.090
-411.369	5.445	0.011	0.008
-410.355	468.648	-0.100	-0.222
-409.340	-40.582	-0.283	0.146
-408.325	689.323	-0.132	-0.343
-407.311	-122.698	0.288	-0.046
-406.296	332.114	-0.128	0.246
-405.282	-13.152	-0.134	0.086
-404.267	239.573	0.157	0.259
-403.252	800.000	0.108	0.304
-402.238	23.564	0.107	0.087
-401.223	710.227	-0.058	0.152
-400.209	-158.020	0.263	0.015
-399.194	338.673	0.064	-0.124
-398.179	56.271	0.117	-0.113
-397.165	32.962	-0.344	0.296
-396.150	-200.000	-0.029	0.219
-395.136	-85.920	-0.091	-0.028
-394.121	800.000	0.197	-0.611
-393.106	-200.000	-0.084	-0.369
-392.092	-200.000	-0.037	-0.257
-391.077	-6.329	0.091	-0.061
-390.063	-113.057	-0.046	0.009
-389.048	-156.878	-0.038	0.002
-388.033	317.527	0.128	0.241
-387.019	-200.000	-0.001	0.051
-386.004	-200.000	0.005	-0.039
-384.990	107.950	-0.097	0.115
-383.975	-117.036	0.075	0.014
-382.960	-98.674	0.125	0.032
-381.946	125.766	0.158	0.198
-380.931	-158.461	0.185	-0.011
-379.917	167.269	-0.091	0.128
-378.902	-200.000	-0.048	0.291
-377.888	191.287	0.167	-0.249
-376.873	-200.000	0.010	-0.136
-375.858	-200.000	-0.012	-0.103
-374.844	-63.040	-0.158	0.065
-373.829	78.949	0.089	-0.094
-372.815	144.298	0.161	-0.213
-371.800	184.467	0.056	-0.083
-370.785	-173.300	-0.145	-0.004
-369.771	800.000	0.021	0.073
-368.756	455.867	-0.079	-0.173
-367.742	-86.573	-0.092	-0.028
-366.727	-95.260	-0.104	0.028
-365.712	297.004	-0.023	0.043
-364.698	483.715	0.076	-0.171
-363.683	-7.788	0.132	0.088
-362.669	300.460	-0.134	-0.246
-361.654	197.927	0.131	-0.199
-360.639	-58.188	0.126	-0.055
-359.625	800.000	-0.072	0.294
-358.610	800.000	-0.091	-0.275
-357.596	-57.424	-0.141	0.061
-356.581	-144.421	0.290	-0.027
-355.566	586.038	0.117	-0.285
-354.552	38.452	-0.232	-0.205
-353.537	-200.000	0.023	0.243
-352.523	-200.000	0.057	-0.283
-351.508	-103.599	0.248	-0.058
-350.493	-23.585	0.019	0.011
-349.479	8.371	0.024	0.018
-348.464	-195.246	0.309	0.002
-347.450	-200.000	0.006	0.121
-346.435	131.656	0.168	0.214
-345.420	-138.065	-0.247	0.027
-344.406	-174.982	0.367	0.010
-343.391	-77.991	0.021	-0.007
-342.377	-87.547	0.291	0.087
-341.362	-200.000	-0.002	-0.172
-340.348	363.125	-0.143	-0.285
-339.333	-49.476	-0.053	-0.025
-338.318	800.000	0.045	-0.170
-337.304	-2.785	-0.115	-0.080
-336.289	202.875	-0.119	0.182
-335.275	5.759	-0.299	-0.219
-334.260	59.687	0.297	0.290
-333.245	16.239	0.060	-0.047
-332.231	295.585	0.146	0.265
-331.216	-10.138	0.224	-0.147
-330.202	386.418	-0.134	-0.273
-329.187	136.974	0.054	-0.070
-328.172	-200.000	0.005	-0.076
-327.158	-127.121	0.129	0.019
-326.143	-96.144	-0.283	0.074
-325.129	-200.000	0.005	-0.233
-324.114	422.955	0.108	-0.231
-323.099	-200.000	-0.017	-0.090
-322.085	-200.000	0.017	-0.114
-321.070	-130.279	0.325	-0.044
-320.056	-200.000	-0.022	0.273
-319.041	-200.000	0.020	-0.319
-318.026	234.964	-0.058	-0.095
-317.012	-41.998	0.184	0.093
-315.997	514.934	-0.110	0.253
-314.983	280.693	0.041	0.072
-313.968	128.057	0.243	0.306
-312.953	800.000	-0.105	-0.331
-311.939	-103.462	0.138	0.032
-310.924	301.788	0.178	0.325
-309.910	-200.000	0.001	-0.135
-308.895	134.447	-0.171	0.219
-307.880	-15.608	0.254	-0.160
-306.866	-200.000	0.019	-0.100
-305.851	-0.860	-0.426	-0.298
-304.837	-200.000	0.031	-0.200
-303.822	-200.000	-0.033	0.225
-302.807	-48.237	-0.120	-0.057
-301.793	-127.049	0.230	-0.033
-300.778	-200.000	-0.002	-0.038
-299.764	-157.288	-0.252	-0.015
-298.749	-190.096	-0.088	0.001
-297.735	-117.427	0.707	-0.126
-296.720	-53.124	-0.013	0.006
-295.705	26.848	-0.025	-0.021
-294.691	-81.787	0.186	-0.060
-293.676	-124.767	-0.183	0.028
-292.662	165.807	0.039	0.055
-291.647	800.000	0.087	0.262
-290.632	-111.789	0.364	-0.073
-289.618	-13.776	-0.227	0.145
-288.603	-80.058	-0.173	-0.057
-287.589	-200.000	-0.073	-0.339
-286.574	800.000	-0.148	-0.523
-285.559	-200.000	-0.026	-0.260
-284.545	145.782	-0.193	0.255
-283.530	498.264	0.053	-0.120
-282.516	-200.000	-0.004	0.128
-281.501	-200.000	0.044	0.228
-280.486	13.041	-0.228	0.174
-279.472	154.202	-0.030	0.040
-278.457	258.197	0.058	0.099
-277.443	40.990	-0.191	-0.170
-276.428	204.033	-0.052	0.079
-275.413	-140.917	0.521	0.053
-274.399	218.663	-0.150	0.236
-273.384	-78.352	-0.200	0.068
-272.370	800.000	-0.136	-0.408
-271.355	-109.285	0.174	0.036
-270.340	-14.527	0.255	0.162
-269.326	-133.298	0.309	-0.038
-268.311	800.000	0.019	0.068
-267.297	24.766	-0.085	0.069
-266.282	42.398	-0.034	-0.031
-265.267	-116.645	-0.206	-0.037
-264.253	42.395	0.093	-0.084
-263.238	-19.310	-0.282	-0.173
-262.224	-66.530	0.253	-0.099
-261.209	800.000	-0.053	0.178
-260.195	800.000	-0.020	-0.061
-259.180	-51.373	-0.258	0.119
-258.165	-200.000	0.039	0.356
-257.151	800.000	0.026	-0.104
-256.136	681.112	-0.049	-0.125
-255.122	-200.000	0.000	0.015
-254.107	205.762	-0.313	0.480
-253.092	-200.000	0.002	0.155
-252.078	800.000	0.058	0.162
-251.063	110.082	-0.108	0.128
-250.049	37.382	-0.055	0.048
-249.034	-200.000	0.031	-0.143
-248.019	-73.504	-0.190	0.068
-247.005	12.887	0.244	-0.186
-245.990	-7.605	0.214	-0.143
-244.976	69.183	0.292	0.296
-243.961	146.151	-0.239	0.316
-242.946	800.000	-0.097	0.337
-241.932	408.644	0.040	0.084
-240.917	229.057	-0.184	-0.296
-239.903	-126.445	-0.085	0.013
-238.888	-166.188	-0.328	-0.014
-237.873	-95.628	0.149	0.039
-236.859	74.213	0.055	-0.057
-235.844	-200.000	0.028	-0.123
-234.830	-200.000	0.063	-0.410
-233.815	-200.000	0.008	-0.049
-232.800	724.701	0.032	0.084
-231.786	-200.000	0.009	0.210
-230.771	-2.220	-0.079	-0.055
-229.757	-148.526	-0.172	0.014
-228.742	-200.000	0.004	0.164
-227.727	582.630	-0.098	0.237
-226.713	243.355	0.277	0.457
-225.698	150.341	0.262	0.351
-224.684	-200.000	-0.028	0.148
-223.669	267.353	-0.086	-0.149
-222.655	156.788	-0.171	0.233
-221.640	-41.313	-0.140	-0.071
-220.625	129.282	0.244	0.306
-219.611	-200.000	-0.020	0.329
-218.596	-200.000	-0.006	-0.110
-217.582	122.537	0.029	0.036
-216.567	33.963	0.451	0.387
-215.552	47.887	0.393	0.362
-214.538	18.229	0.155	0.122
-213.523	-34.669	0.163	0.088
-212.509	800.000	-0.114	0.379
-211.494	-200.000	0.054	0.241
-210.479	-89.761	0.188	-0.054
-209.465	-200.000	0.013	-0.202
-208.450	166.316	-0.062	0.087
-207.436	-40.518	0.212	0.108
-206.421	380.980	0.047	-0.096
-205.406	142.002	0.251	-0.328
-204.392	73.539	-0.047	-0.048
-203.377	800.000	-0.022	-0.086
-202.363	-200.000	-0.003	-0.186
-201.348	306.231	0.139	-0.255
-200.333	225.975	-0.079	0.125
-199.319	-89.285	0.228	0.066
-198.304	216.991	0.215	-0.337
-197.290	25.131	-0.139	-0.113
-196.275	800.000	-0.042	0.183
-195.260	-101.450	0.313	0.075
-194.246	371.385	0.129	0.257
-193.231	31.809	0.154	-0.131
-192.217	800.000	0.016	-0.067
-191.202	-51.588	-0.304	0.140
-190.187	-122.086	-0.266	0.043
-189.173	110.373	-0.045	-0.053
-188.158	442.361	0.151	-0.327
-187.144	-7.894	-0.206	0.137
-186.129	58.108	0.086	0.083
-185.114	800.000	-0.055	0.171
-184.100	745.922	-0.042	0.110
-183.085	-56.958	0.230	-0.100
-182.071	-126.937	-0.230	-0.033
-181.056	-200.000	-0.012	-0.076
-180.042	-112.353	0.155	-0.030
-179.027	54.763	0.138	0.131
-178.012	-13.906	0.213	-0.135
-176.998	29.281	-0.315	0.263
-175.983	-182.146	0.052	0.001
-174.969	800.000	0.059	0.171
-173.954	42.315	0.192	0.171
-172.939	-200.000	0.015	0.091
-171.925	52.905	-0.118	0.111
-170.910	-200.000	0.045	-0.213
-169.896	800.000	0.027	-0.074
-168.881	18.011	-0.207	0.162
-167.866	-200.000	0.013	0.266
-166.852	800.000	0.146	0.421
-165.837	127.885	-0.222	0.277
-164.823	99.217	-0.281	0.319
-163.808	115.830	-0.018	0.022
-162.793	35.972	0.043	0.037
-161.779	-200.000	-0.008	0.110
-160.764	-110.126	-0.071	0.015
-159.750	115.021	-0.265	0.318
-158.735	677.149	0.032	0.081
-157.720	-65.609	-0.103	-0.041
-156.706	-66.342	-0.013	-0.005
-155.691	-200.000	0.064	0.323
-154.677	-200.000	-0.019	-0.135
-153.662	549.074	0.115	-0.270
-152.647	-3.172	0.278	0.191
-151.633	800.000	-0.060	0.249
-150.618	164.902	-0.060	0.083
-149.604	-200.000	0.031	0.132
-148.589	-200.000	-0.079	-0.423
-147.574	-99.248	-0.178	-0.044
-146.560	-120.511	-0.122	-0.020
-145.545	26.176	-0.218	-0.179
-144.531	-114.414	-0.338	-0.064
-143.516	-200.000	0.025	0.123
-142.502	750.109	0.051	-0.136
-141.487	-30.120	0.181	0.101
-140.472	-116.548	-0.159	0.029
-139.458	-74.973	0.229	0.081
-138.443	63.522	0.338	-0.333
-137.429	611.432	0.064	-0.157
-136.414	216.741	-0.070	0.110
-135.399	17.354	0.038	-0.030
-134.385	-200.000	0.037	0.188
-133.370	111.308	0.254	0.301
-132.356	-63.603	-0.103	0.042
-131.341	-200.000	-0.016	-0.410
-130.326	-200.000	0.034	0.183
-129.312	-58.017	-0.164	0.070
-128.297	38.594	-0.064	-0.056
-127.283	77.564	0.174	-0.182
-126.268	-34.221	0.319	0.172
-125.253	-26.582	0.162	-0.093
-124.239	-133.062	-0.179	-0.022
-123.224	-200.000	0.061	-0.449
-122.210	-9.414	0.120	-0.079
-121.195	338.698	0.071	-0.135
-120.180	-67.847	-0.093	0.036
-119.166	-116.398	0.120	-0.022
-118.151	119.556	0.331	-0.402
-117.137	26.395	-0.164	-0.134
-116.122	184.338	0.194	-0.283
-115.107	-80.852	-0.362	0.118
-114.093	45.622	-0.179	-0.162
-113.078	172.156	0.106	0.149
-112.064	-44.841	0.282	-0.138
-111.049	800.000	-0.065	0.223
-110.034	121.265	-0.084	-0.102
-109.020	186.580	0.264	0.385
-108.005	-200.000	-0.031	-0.156
-106.991	-75.663	0.220	-0.077
-105.976	-124.256	-0.114	0.017
-104.962	47.442	0.289	0.264
-103.947	-93.358	0.290	0.079
-102.932	-200.000	-0.039	-0.308
-101.918	673.686	-0.115	0.293
-100.903	96.070	-0.132	0.148
-99.889	-44.484	0.119	-0.058
-98.874	100.871	0.087	0.099
-97.859	157.492	-0.110	-0.149
-96.845	54.427	-0.091	0.086
-95.830	-130.307	-0.103	-0.014
-94.816	-34.396	-0.109	0.059
-93.801	-20.731	0.171	-0.103
-92.786	-200.000	0.071	-0.317
-91.772	-90.983	-0.472	0.133
-90.757	-109.555	0.211	-0.044
-89.743	-4.011	-0.156	-0.106
-88.728	16.688	0.063	-0.049
-87.713	201.114	0.061	-0.093
-86.699	30.219	-0.292	-0.244
-85.684	-97.370	-0.125	-0.032
-84.670	673.203	0.149	0.379
-83.655	-115.446	0.388	0.072
-82.640	-51.013	-0.198	-0.091
-81.626	-53.091	0.056	0.025
-80.611	-11.094	0.372	0.240
-79.597	375.783	0.043	-0.086
-78.582	89.875	-0.094	-0.103
-77.567	800.000	-0.013	0.049
-76.553	-200.000	-0.048	0.331
-75.538	185.730	-0.267	0.389
-74.524	-157.983	0.063	0.004
-73.509	-168.088	0.438	0.017
-72.494	116.146	-0.239	0.286
-71.480	-200.000	-0.023	-0.149
-70.465	333.876	-0.134	-0.255
-69.451	174.085	0.192	-0.272
-68.436	-10.422	-0.173	-0.112
-67.422	-8.436	0.293	-0.193
-66.407	61.205	0.071	-0.069
-65.392	41.431	-0.075	-0.067
-64.378	296.553	0.130	0.233
-63.363	-121.147	-0.026	0.004
-62.349	800.000	-0.101	0.348
-61.334	121.419	-0.804	-0.980
-60.319	-53.651	0.885	0.396
-59.305	-200.000	-0.203	-1.022
-58.290	82.608	1.121	1.192
-57.276	577.748	0.659	1.577
-56.261	-200.000	113.391	640.372
-55.246	526.538	1529.488	3527.909
-54.232	175.152	2709.557	3842.597
-53.217	102.147	2302.979	2633.219
-52.203	36.853	1906.669	1650.101
-51.188	30.678	1694.144	1419.186
-50.173	28.093	1651.475	1364.135
-49.159	50.228	1707.612	1578.789
-48.144	48.585	1721.285	1578.951
-47.130	30.224	1678.837	1402.704
-46.115	27.515	1664.590	1370.405
-45.100	27.342	1658.951	1364.408
-44.086	27.327	1656.700	1362.390
-43.071	27.344	1653.837	1360.107
-42.057	27.243	1651.844	1357.661
-41.042	27.328	1649.020	1355.922
-40.027	27.258	1647.822	1354.364
-39.013	27.206	1645.921	1352.360
-37.998	27.214	1644.575	1351.261
-36.984	27.402	1642.642	1351.011
-35.969	27.405	1641.253	1349.839
-34.954	27.438	1639.500	1348.584
-33.940	27.372	1637.863	1346.698
-32.925	27.504	1635.613	1345.773
-31.911	27.452	1634.205	1344.177
-30.896	27.435	1632.569	1342.649
-29.881	27.328	1631.232	1340.706
-28.867	27.401	1629.214	1339.534
-27.852	27.345	1627.873	1337.966
-26.838	27.364	1626.487	1336.917
-25.823	27.406	1624.712	1335.708
-24.809	27.398	1623.889	1334.926
-23.794	27.391	1622.128	1333.368
-22.779	27.367	1620.620	1331.903
-21.765	27.378	1619.065	1330.652
-20.750	27.414	1617.386	1329.480
-19.736	27.451	1616.052	1328.600
-18.721	27.436	1615.141	1327.694
-17.706	27.361	1613.208	1325.502
-16.692	27.410	1611.737	1324.597
-15.677	27.505	1610.385	1324.127
-14.663	27.475	1609.323	1322.980
-13.648	27.537	1607.183	1321.617
-12.633	27.336	1606.446	1319.507
-11.619	27.418	1604.449	1318.405
-10.604	27.428	1603.174	1317.380
-9.590	27.562	1601.459	1316.885
-8.575	27.535	1600.801	1316.096
-7.560	27.474	1599.717	1314.714
-6.546	27.487	1598.118	1313.441
-5.531	27.417	1597.516	1312.386
-4.517	27.353	1596.761	1311.258
-3.502	27.412	1595.422	1310.528
-2.487	27.502	1593.927	1309.897
-1.473	27.385	1581.608	1298.882
-0.458	24.780	1563.112	1265.244
0.556	23.589	1565.015	1236.104
1.571	21.380	1589.429	1239.626
2.586	20.857	1601.378	1245.100
3.600	18.602	1546.914	1187.061
4.615	11.498	1440.198	1059.146
5.629	5.310	1379.401	975.802
6.644	4.266	1371.883	963.912
7.659	4.191	1371.040	962.767
8.673	4.330	1369.893	962.741
9.688	4.353	1367.985	961.454
10.702	4.251	1365.432	958.947
11.717	7.218	1370.526	980.832
12.731	14.744	1384.644	1037.767
13.746	20.978	1394.335	1083.816
14.761	22.477	1395.905	1094.265
15.775	21.881	1394.404	1089.288
16.790	20.974	1391.729	1081.481
17.804	20.336	1389.277	1075.527
18.819	19.946	1388.456	1072.380
19.834	19.874	1387.058	1070.762
20.848	19.730	1386.734	1069.528
21.863	19.581	1385.535	1067.586
22.877	19.503	1384.236	1066.009
23.892	19.509	1383.205	1065.157
24.907	19.459	1382.019	1063.840
25.921	19.396	1381.349	1062.842
26.936	19.467	1380.582	1062.598
27.950	19.458	1379.748	1061.804
28.965	19.552	1378.666	1061.453
29.980	19.753	1377.710	1061.863
30.994	19.755	1376.737	1061.031
32.009	19.862	1375.465	1060.610
33.023	19.838	1374.273	1059.453
34.038	19.757	1372.669	1057.623
35.053	19.625	1371.917	1056.147
36.067	19.637	1370.923	1055.362
37.082	19.754	1369.897	1055.188
38.096	19.719	1369.073	1054.247
39.111	19.759	1368.319	1053.816
40.126	19.559	1367.546	1051.911
41.140	19.280	1366.389	1049.231
42.155	19.174	1365.686	1047.952
43.169	19.147	1365.394	1047.473
44.184	19.059	1364.927	1046.483
45.199	19.128	1364.734	1046.667
46.213	19.251	1364.928	1047.467
47.228	19.528	1363.855	1048.237
48.242	19.572	1362.335	1047.239
49.257	19.538	1360.944	1045.874
50.271	19.538	1359.464	1044.642
51.286	19.520	1358.388	1043.616
52.301	19.519	1356.822	1042.315
53.315	19.473	1355.866	1041.206
54.330	19.281	1354.633	1039.011
55.344	19.186	1353.734	1037.656
56.359	19.341	1352.135	1037.275
57.374	19.133	1351.985	1035.813
58.388	19.129	1350.994	1034.940
59.403	19.050	1350.743	1034.183
60.417	19.078	1349.633	1033.411
61.432	18.833	1348.961	1031.333
62.447	18.952	1347.201	1030.608
63.461	18.798	1346.568	1029.109
64.476	18.901	1345.316	1028.682
65.490	18.907	1343.946	1027.578
66.505	18.943	1342.361	1026.489
67.520	18.893	1341.735	1025.621
68.534	18.936	1340.394	1024.760
69.549	18.880	1339.873	1023.937
70.563	18.792	1338.475	1022.258
71.578	18.721	1337.288	1020.839
72.593	18.648	1336.608	1019.795
73.607	18.507	1336.241	1018.586
74.622	18.662	1334.992	1018.465
75.636	18.641	1334.730	1018.050
76.651	18.796	1333.800	1018.169
77.666	18.807	1333.383	1017.823
78.680	18.916	1333.093	1018.159
79.695	18.966	1332.371	1017.812
80.709	19.185	1331.312	1018.208
81.724	19.111	1330.809	1017.295
82.739	19.295	1330.190	1017.819
83.753	19.414	1329.355	1017.795
84.768	19.521	1328.280	1017.513
85.782	19.576	1327.829	1017.400
86.797	19.670	1326.559	1016.894
87.812	19.602	1324.774	1015.035
88.826	19.507	1323.990	1013.782
89.841	19.649	1322.638	1013.493
90.855	19.688	1321.562	1012.807
91.870	19.755	1321.257	1012.876
92.884	19.769	1320.145	1012.017
93.899	19.800	1319.277	1011.445
94.914	19.918	1318.732	1011.624
95.928	19.795	1318.246	1010.445
96.943	19.732	1316.676	1008.784
97.957	19.727	1315.816	1008.006
98.972	19.630	1314.942	1006.681
99.987	19.750	1313.581	1006.247
101.001	19.693	1313.236	1005.566
102.016	19.709	1311.736	1004.421
103.030	19.605	1311.385	1003.460
104.045	19.653	1310.738	1003.155
105.060	19.404	1309.274	1000.499
106.074	19.199	1307.429	997.813
107.089	18.824	1306.244	994.652
108.103	18.907	1304.352	993.600
109.118	18.899	1303.509	992.825
110.133	18.860	1302.156	991.479
111.147	18.947	1300.438	990.586
112.162	18.975	1299.663	990.069
113.176	19.116	1298.038	989.558
114.191	19.200	1297.331	989.410
115.206	19.089	1296.741	988.237
116.220	19.063	1295.043	986.707
117.235	19.053	1293.994	985.762
118.249	18.888	1293.240	984.154
119.264	18.871	1292.030	983.052
120.279	18.796	1290.741	981.555
121.293	18.941	1289.665	981.480
122.308	18.706	1288.510	979.174
123.322	18.610	1287.781	977.981
124.337	18.660	1286.244	977.016
125.352	18.639	1285.355	976.133
126.366	18.704	1284.272	975.594
127.381	18.588	1283.418	974.199
128.395	18.629	1282.351	973.539
129.410	18.687	1281.602	973.211
130.424	18.656	1280.839	972.372
131.439	18.849	1279.928	972.683
132.454	18.965	1278.844	972.428
133.468	19.042	1278.312	972.377
134.483	19.094	1277.571	972.020
135.497	19.143	1276.555	971.434
136.512	18.975	1275.634	969.701
137.527	19.099	1274.435	969.405
138.541	19.062	1272.887	967.932
139.556	19.204	1271.961	967.942
140.570	19.380	1270.934	968.061
141.585	19.402	1269.345	966.889
142.600	19.467	1268.991	966.898
143.614	19.661	1267.671	966.891
144.629	19.632	1267.048	966.169
145.643	19.558	1265.675	964.622
146.658	19.580	1263.487	962.996
147.673	19.239	1262.416	960.189
148.687	19.107	1261.219	958.461
149.702	19.156	1260.152	957.838
150.716	19.066	1258.677	956.133
151.731	19.135	1257.371	955.437
152.746	19.052	1256.517	954.246
153.760	19.161	1254.999	953.612
154.775	19.226	1254.669	953.638
155.789	19.391	1253.360	953.471
156.804	19.417	1252.879	953.161
157.819	19.408	1251.782	952.196
158.833	19.623	1250.804	952.553
159.848	19.733	1250.228	952.635
160.862	19.537	1249.563	950.966
161.877	19.384	1247.613	948.553
162.892	19.284	1245.869	946.597
163.906	19.124	1245.409	945.283
164.921	19.152	1244.799	944.889
165.935	19.192	1244.153	944.537
166.950	19.361	1243.064	944.553
167.964	19.379	1242.350	944.023
168.979	19.238	1241.928	942.850
169.994	19.248	1240.810	941.970
171.008	19.208	1239.896	940.974
172.023	19.478	1239.426	942.012
173.037	19.579	1238.906	942.080
174.052	19.531	1238.108	941.127
175.067	19.361	1236.869	939.177
176.081	19.242	1235.245	937.217
177.096	19.073	1234.790	935.866
178.110	19.185	1233.502	935.419
179.125	19.198	1232.289	934.485
180.140	19.253	1231.312	933.959
181.154	19.444	1230.230	934.094
182.169	19.594	1228.937	933.838
183.183	19.711	1228.147	933.789
184.198	19.670	1226.766	932.436
185.213	19.709	1225.684	931.739
186.227	19.695	1225.236	931.239
187.242	19.837	1224.186	931.127
188.256	19.872	1223.213	930.490
189.271	19.884	1222.168	929.678
190.286	19.651	1221.324	927.700
191.300	19.240	1219.856	924.302
192.315	19.084	1219.106	922.814
193.329	19.178	1218.322	922.643
194.344	19.256	1217.894	922.656
195.359	19.318	1217.569	922.658
196.373	19.460	1216.730	922.701
197.388	19.572	1216.876	923.328
198.402	19.802	1216.914	924.506
199.417	19.889	1216.169	924.324
200.432	20.056	1215.105	924.323
201.446	20.053	1214.674	923.896
202.461	20.158	1213.778	923.694
203.475	20.207	1212.535	922.926
204.490	19.956	1211.155	920.462
205.504	19.763	1210.093	918.546
206.519	19.728	1208.611	917.155
207.534	19.743	1207.318	916.171
208.548	19.723	1206.632	915.465
209.563	19.794	1205.425	914.841
210.577	19.832	1204.652	914.378
211.592	19.724	1204.572	913.661
212.607	20.005	1203.366	914.151
213.621	20.034	1202.631	913.665
214.636	19.894	1201.863	912.263
215.650	19.958	1200.606	911.566
216.665	19.969	1199.889	911.000
217.680	20.202	1199.186	911.607
218.694	20.253	1198.748	911.463
219.709	20.323	1197.052	910.462
220.723	20.166	1196.798	909.362
221.738	20.130	1196.325	908.733
222.753	20.077	1195.105	907.448
223.767	20.157	1194.816	907.569
224.782	20.283	1193.953	907.491
225.796	20.367	1193.791	907.728
226.811	20.287	1192.755	906.440
227.826	20.060	1191.932	904.552
228.840	20.161	1191.218	904.455
229.855	19.946	1190.296	902.557
230.869	20.094	1189.393	902.562
231.884	19.920	1188.586	900.964
232.899	19.931	1187.641	900.226
233.913	19.893	1186.773	899.288
234.928	19.854	1185.837	898.297
235.942	19.740	1185.095	897.067
236.957	19.712	1184.715	896.554
237.972	19.708	1183.494	895.528
238.986	19.697	1182.973	895.000
240.001	19.699	1182.982	894.937
241.015	19.803	1181.431	894.223
242.030	19.860	1181.161	894.233
243.045	20.155	1179.905	894.728
244.059	20.140	1179.164	894.008
245.074	20.062	1178.853	893.292
246.088	20.265	1178.225	893.784
247.103	20.280	1177.887	893.525
248.117	20.462	1176.988	893.698
249.132	20.590	1176.908	894.216
250.147	20.769	1175.953	894.331
251.161	21.102	1174.816	895.096
252.176	20.958	1174.611	894.123
253.190	21.100	1174.045	894.341
254.205	21.105	1174.061	894.297
255.220	21.044	1172.922	893.038
256.234	21.014	1172.621	892.580
257.249	20.905	1171.855	891.356
258.263	21.072	1170.583	891.167
259.278	21.055	1169.996	890.554
260.293	21.059	1169.430	890.065
261.307	21.120	1169.040	889.999
262.322	21.281	1168.335	890.205
263.336	21.170	1168.023	889.320
264.351	21.178	1167.154	888.624
265.366	21.203	1166.522	888.192
266.380	21.219	1165.662	887.537
267.395	21.145	1164.667	886.326
268.409	21.028	1163.663	884.889
269.424	20.893	1163.264	883.822
270.439	20.960	1162.436	883.455
271.453	20.975	1161.288	882.579
272.468	20.808	1160.549	881.094
273.482	20.746	1159.922	880.231
274.497	20.678	1159.489	879.476
275.512	20.814	1158.668	879.465
276.526	20.801	1157.490	878.427
277.541	20.876	1156.950	878.318
278.555	20.901	1156.745	878.212
279.570	21.084	1155.922	878.431
280.585	21.284	1155.240	878.837
281.599	21.171	1154.787	877.851
282.614	21.003	1153.228	875.744
283.628	20.901	1152.196	874.370
284.643	20.959	1150.681	873.434
285.657	20.918	1150.124	872.728
286.672	20.999	1149.455	872.549
287.687	21.018	1147.888	871.374
288.701	20.957	1148.072	871.133
289.716	21.020	1146.704	870.334
290.730	20.982	1146.031	869.556
291.745	21.033	1145.739	869.513
292.760	21.048	1145.077	869.009
293.774	21.077	1145.054	869.059
294.789	21.344	1144.005	869.513
295.803	21.303	1143.287	868.685
296.818	21.086	1142.397	866.856
297.833	20.953	1141.580	865.500
298.847	20.961	1141.000	865.024
299.862	21.104	1140.187	865.037
300.876	21.042	1139.173	863.884
301.891	21.243	1138.646	864.406
302.906	21.382	1137.979	864.507
303.920	21.421	1137.839	864.520
304.935	21.610	1137.165	864.863
305.949	21.736	1136.376	864.807
306.964	21.657	1136.010	864.062
307.979	21.508	1135.223	862.654
308.993	21.390	1134.413	861.381
310.008	21.491	1133.851	861.375
311.022	21.592	1132.978	861.134
312.037	21.586	1132.162	860.409
313.052	21.510	1130.816	858.937
314.066	21.185	1130.175	856.776
315.081	21.172	1129.086	855.814
316.095	20.909	1128.202	853.780
317.110	21.103	1127.393	854.039
318.125	21.097	1126.841	853.516
319.139	21.053	1126.395	852.891
320.154	21.035	1125.522	852.064
321.168	21.187	1124.717	852.120
322.183	21.026	1124.511	851.106
323.197	21.262	1123.725	851.584
324.212	21.270	1123.275	851.207
325.227	21.273	1122.442	850.517
326.241	21.243	1122.008	849.963
327.256	21.134	1120.849	848.483
328.270	21.084	1120.215	847.685
329.285	21.180	1119.084	847.221
330.300	21.349	1117.989	847.133
331.314	21.224	1116.991	845.698
332.329	21.300	1116.358	845.511
333.343	21.266	1115.399	844.546
334.358	21.462	1115.016	845.131
335.373	21.552	1114.355	844.989
336.387	21.603	1113.940	844.845
337.402	21.549	1113.042	843.827
338.416	21.584	1112.744	843.694
339.431	21.684	1111.790	843.380
340.446	21.853	1111.517	843.913
341.460	21.943	1110.981	843.864
342.475	22.057	1109.946	843.549
343.489	21.959	1109.350	842.551
344.504	22.088	1108.275	842.279
345.519	22.139	1107.699	842.012
346.533	22.260	1106.965	841.958
347.548	22.262	1106.097	841.234
348.562	22.155	1105.490	840.187
349.577	21.895	1104.491	838.110
350.592	21.694	1103.557	836.366
351.606	21.688	1102.642	835.572
352.621	21.496	1101.753	833.908
353.635	21.451	1101.088	833.117
354.650	21.597	1100.540	833.324
355.665	21.778	1099.485	833.311
356.679	21.725	1099.156	832.735
357.694	21.873	1098.728	833.042
358.708	21.871	1098.367	832.685
359.723	21.788	1097.808	831.794
360.738	21.927	1096.934	831.718
361.752	21.701	1096.521	830.258
362.767	21.948	1095.406	830.511
363.781	22.008	1094.852	830.299
364.796	22.159	1094.644	830.781
365.810	22.162	1094.463	830.588
366.825	22.420	1094.016	831.391
367.840	22.553	1093.605	831.635
368.854	22.612	1093.067	831.429
369.869	22.518	1091.887	830.013
370.883	22.331	1090.995	828.384
371.898	22.282	1090.253	827.517
372.913	22.351	1089.227	826.991
373.927	22.421	1088.814	826.930
374.942	22.468	1088.869	827.121
375.956	22.544	1087.865	826.640
376.971	22.373	1087.570	825.540
377.986	22.491	1087.042	825.621
379.000	22.595	1086.552	825.660
380.015	22.652	1086.279	825.649
381.029	22.841	1085.148	825.600
382.044	22.784	1084.541	824.801
383.059	22.608	1083.902	823.420
384.073	22.670	1083.011	822.958
385.088	22.654	1082.384	822.332
386.102	22.731	1081.322	821.811
387.117	22.374	1079.808	818.928
388.132	22.234	1078.842	817.474
389.146	22.258	1078.098	816.948
390.161	22.114	1077.538	815.782
391.175	22.246	1076.996	815.914
392.190	22.426	1076.479	816.282
393.205	22.545	1075.903	816.325
394.219	22.506	1074.948	815.349
395.234	22.468	1073.653	814.120
396.248	22.263	1072.489	812.218
397.263	22.332	1071.548	811.751
398.278	22.274	1070.815	810.857
399.292	22.100	1070.017	809.378
400.307	22.010	1069.619	808.591
401.321	22.054	1069.012	808.263
402.336	22.063	1068.011	807.475
403.350	22.083	1067.231	806.908
404.365	22.085	1067.230	806.843
405.380	22.297	1066.294	807.039
406.394	22.317	1065.358	806.348
407.409	22.469	1064.871	806.606
408.423	22.634	1064.106	806.712
409.438	22.848	1063.572	807.212
410.453	22.869	1063.077	806.864
411.467	22.929	1062.430	806.574
412.482	22.974	1061.727	806.175
413.496	23.088	1061.112	806.156
414.511	23.081	1061.066	806.017
415.526	23.221	1060.337	806.031
416.540	23.254	1060.112	805.937
417.555	23.088	1059.576	804.703
418.569	23.094	1058.754	804.034
419.584	22.954	1058.457	803.102
420.599	23.007	1057.705	802.702
421.613	157.236	1403.602	1796.145
422.628	144.512	1453.986	1796.242
