DTS Sentinel unit serial number:	SN413079Multiplexer serial number:	ORYXHardware model number:	OX4-SRSoftware version number:	ORYX F/W v4.00 Oryx Data Collector v3.7.2.0data status	okinstallation	princeton_trtdifferential loss correction	single-endedforward channel	channel 2reverse channel	N/Adate	2019/09/17time	17:07:35forward acquisition time	60.00reverse acquisition time	0.00gamma	496.2192k internal	0.2291k external	0.2291temperature offset calibration	0.9980default loss term (dB/km)	0.3790temperature slope calibration	1.0000multiplexer offset coefficient	1.0000multiplexer slope coefficient	1.0000fibre end	0.00T internal ref (°C)	42.73T ext. ref 1 (°C)	0.35T ext. ref 2 (°C)	38.92length (m)	temperature (°C)	Stokes	anti-Stokes-747.200	98.374	-0.166	0.196
-746.185	-200.000	-0.024	0.198
-745.171	-200.000	0.007	0.527
-744.156	24.344	-0.147	0.125
-743.142	-105.817	-0.385	-0.089
-742.127	369.923	0.201	0.417
-741.112	-200.000	0.055	0.246
-740.098	-200.000	0.061	0.302
-739.083	-126.081	0.246	-0.038
-738.069	342.858	0.234	0.470
-737.054	-200.000	0.008	0.150
-736.039	-200.000	0.032	0.370
-735.025	55.157	0.124	-0.123
-734.010	265.974	-0.172	0.307
-732.996	58.513	-0.342	0.343
-731.981	-200.000	0.019	-0.371
-730.966	440.619	-0.121	-0.271
-729.952	-25.540	-0.231	0.140
-728.937	800.000	0.027	0.109
-727.923	100.509	-0.406	-0.482
-726.908	-36.657	-0.205	-0.113
-725.894	134.655	-0.037	0.049
-724.879	162.437	-0.043	0.062
-723.864	223.479	-0.176	-0.291
-722.850	61.929	-0.185	-0.188
-721.835	191.927	0.075	0.115
-720.821	-200.000	0.020	-0.094
-719.806	-73.431	0.128	-0.048
-718.791	-200.000	0.030	0.237
-717.777	312.422	-0.104	0.199
-716.762	-74.596	0.099	-0.036
-715.748	155.660	-0.048	-0.068
-714.733	65.371	-0.138	-0.143
-713.718	-88.646	-0.271	-0.083
-712.704	22.074	-0.156	0.130
-711.689	-108.911	0.269	0.059
-710.675	-121.044	-0.290	0.050
-709.660	-154.339	-0.092	0.006
-708.645	-87.367	0.200	0.062
-707.631	118.978	0.047	0.059
-706.616	32.817	-0.241	-0.213
-705.602	200.768	-0.114	0.179
-704.587	33.516	-0.259	0.230
-703.572	-200.000	0.007	-0.244
-702.558	696.383	0.029	0.078
-701.543	717.544	-0.069	-0.187
-700.529	-102.621	-0.168	-0.041
-699.514	-200.000	-0.006	0.318
-698.499	6.085	0.158	-0.120
-697.485	59.424	-0.110	-0.111
-696.470	-200.000	-0.027	-0.211
-695.456	-157.002	-0.282	0.018
-694.441	-200.000	0.007	-0.355
-693.426	62.232	-0.117	0.119
-692.412	-148.232	-0.327	0.028
-691.397	156.028	-0.154	0.217
-690.383	-112.117	-0.126	0.026
-689.368	505.213	0.074	-0.176
-688.354	800.000	-0.063	0.196
-687.339	-47.425	-0.212	0.105
-686.324	231.921	0.084	-0.142
-685.310	-200.000	0.000	-0.241
-684.295	-157.037	-0.169	-0.011
-683.281	260.470	-0.150	-0.264
-682.266	25.819	-0.234	-0.199
-681.251	-59.073	0.091	0.040
-680.237	108.269	-0.250	0.305
-679.222	8.931	-0.124	0.096
-678.208	-151.825	-0.097	-0.007
-677.193	800.000	-0.012	-0.039
-676.178	-102.457	-0.046	0.011
-675.164	800.000	0.029	0.115
-674.149	-139.084	-0.227	-0.025
-673.135	86.224	0.036	0.041
-672.120	-39.765	0.308	0.165
-671.105	-200.000	0.031	-0.229
-670.091	78.110	-0.071	0.077
-669.076	80.903	-0.120	-0.133
-668.062	171.104	-0.078	0.115
-667.047	-14.274	-0.097	0.064
-666.032	-200.000	-0.021	-0.211
-665.018	-196.030	0.112	-0.001
-664.003	98.813	0.185	0.218
-662.989	-45.265	-0.013	0.007
-661.974	314.010	-0.088	0.168
-660.959	-74.133	-0.330	0.122
-659.945	20.410	-0.019	-0.016
-658.930	-200.000	-0.051	0.248
-657.916	-200.000	0.011	0.218
-656.901	81.625	-0.116	-0.128
-655.886	0.398	0.296	0.216
-654.872	-142.699	-0.217	0.022
-653.857	49.688	-0.232	0.223
-652.843	-44.862	0.135	-0.069
-651.828	190.987	-0.110	-0.168
-650.814	-111.994	0.246	-0.051
-649.799	-117.999	-0.418	0.076
-648.784	-6.570	0.020	0.014
-647.770	-3.206	-0.213	-0.151
-646.755	742.635	0.134	-0.367
-645.741	119.501	-0.123	-0.156
-644.726	37.886	0.316	-0.286
-643.711	632.369	-0.059	0.152
-642.697	68.844	-0.152	-0.159
-641.682	-115.104	0.303	-0.059
-640.668	-200.000	0.022	-0.098
-639.653	265.633	0.037	-0.065
-638.638	82.442	0.220	0.243
-637.624	800.000	-0.089	-0.360
-636.609	110.443	0.064	0.079
-635.595	12.683	-0.174	-0.137
-634.580	324.092	0.038	0.074
-633.565	-68.903	0.265	0.104
-632.551	110.743	-0.059	-0.072
-631.536	10.832	-0.126	0.098
-630.522	240.613	-0.201	-0.342
-629.507	772.486	0.118	-0.327
-628.492	150.680	-0.272	-0.376
-627.478	-200.000	-0.015	0.148
-626.463	101.806	-0.122	0.145
-625.449	713.355	-0.080	0.217
-624.434	63.045	0.124	-0.126
-623.419	-200.000	-0.014	0.078
-622.405	396.810	0.055	0.118
-621.390	10.876	0.223	-0.174
-620.376	-11.509	-0.201	-0.135
-619.361	800.000	-0.040	0.174
-618.346	-51.128	-0.163	0.078
-617.332	-58.301	-0.412	-0.183
-616.317	706.131	-0.091	-0.245
-615.303	-171.149	-0.219	-0.008
-614.288	423.784	0.054	0.118
-613.273	800.000	0.081	0.228
-612.259	184.073	0.070	-0.105
-611.244	-31.125	0.056	0.032
-610.230	-84.785	0.062	0.020
-609.215	800.000	-0.074	0.250
-608.201	332.908	0.097	-0.191
-607.186	140.529	0.182	-0.245
-606.171	289.142	0.008	0.015
-605.157	-200.000	0.060	-0.319
-604.142	11.430	-0.313	-0.244
-603.128	357.193	0.095	0.192
-602.113	-43.508	0.183	0.094
-601.098	125.362	0.102	0.131
-600.084	800.000	-0.064	0.270
-599.069	35.219	0.051	-0.045
-598.055	360.521	-0.071	0.145
-597.040	-176.003	-0.098	-0.003
-596.025	61.165	0.176	-0.178
-595.011	-51.909	-0.156	-0.074
-593.996	-161.762	-0.288	0.015
-592.982	800.000	0.059	-0.207
-591.967	72.513	0.167	-0.177
-590.952	-179.807	-0.243	-0.005
-589.938	12.547	-0.254	-0.199
-588.923	-95.147	-0.077	-0.021
-587.909	-126.381	-0.130	0.020
-586.894	-77.821	-0.174	-0.061
-585.879	800.000	0.038	0.141
-584.865	0.274	0.137	0.099
-583.850	-127.918	-0.074	0.011
-582.836	-92.067	0.214	0.062
-581.821	312.404	-0.118	0.226
-580.806	-32.644	0.049	-0.028
-579.792	347.252	-0.151	0.302
-578.777	30.279	-0.025	0.022
-577.763	124.805	0.075	-0.096
-576.748	-200.000	0.039	0.186
-575.733	-67.931	0.054	-0.021
-574.719	357.405	-0.102	-0.208
-573.704	-171.000	0.379	0.013
-572.690	127.224	0.153	0.198
-571.675	-200.000	0.001	0.223
-570.661	-8.549	0.099	-0.068
-569.646	32.479	0.154	-0.135
-568.631	-200.000	0.001	-0.116
-567.617	21.359	-0.022	-0.018
-566.602	6.626	0.009	0.007
-565.588	-200.000	0.028	0.282
-564.573	800.000	-0.064	0.190
-563.558	-163.906	0.164	0.008
-562.544	-200.000	0.065	-0.307
-561.529	452.663	-0.017	-0.038
-560.515	198.038	0.090	-0.140
-559.500	-143.281	-0.291	0.028
-558.485	-200.000	0.005	-0.053
-557.471	149.453	-0.055	-0.076
-556.456	-91.878	0.140	0.040
-555.442	-200.000	-0.039	-0.205
-554.427	48.973	0.117	-0.111
-553.412	54.147	0.064	0.063
-552.398	-75.433	-0.235	-0.085
-551.383	-200.000	0.028	0.230
-550.369	-40.046	0.361	0.191
-549.354	625.533	0.096	-0.246
-548.339	767.917	0.078	-0.216
-547.325	21.915	0.285	0.236
-546.310	-200.000	-0.036	-0.217
-545.296	-17.607	-0.158	-0.101
-544.281	114.698	-0.076	0.094
-543.266	75.515	-0.248	0.266
-542.252	84.590	0.036	-0.040
-541.237	233.382	0.060	-0.101
-540.223	141.208	-0.089	-0.119
-539.208	-193.151	0.174	0.002
-538.193	800.000	-0.047	-0.144
-537.179	94.344	0.038	0.044
-536.164	182.026	0.123	-0.184
-535.150	-178.651	0.143	-0.003
-534.135	-123.354	-0.271	-0.044
-533.121	179.238	0.059	0.088
-532.106	-200.000	0.055	0.356
-531.091	-200.000	-0.020	0.105
-530.077	-147.881	0.212	-0.018
-529.062	-137.467	0.309	-0.036
-528.048	-108.816	-0.231	-0.050
-527.033	-88.939	-0.150	0.045
-526.018	255.624	-0.047	0.082
-525.004	-7.480	-0.105	-0.072
-523.989	309.714	-0.149	-0.284
-522.975	-35.711	0.133	0.073
-521.960	800.000	0.074	0.213
-520.945	-177.205	-0.202	-0.005
-519.931	-115.203	0.199	-0.038
-518.916	-66.242	-0.451	0.182
-517.902	54.390	0.125	-0.122
-516.887	-78.872	-0.215	-0.074
-515.872	-11.192	-0.062	-0.042
-514.858	-200.000	-0.005	0.026
-513.843	-200.000	0.004	0.041
-512.829	-99.720	0.252	-0.064
-511.814	-17.770	-0.160	-0.102
-510.799	800.000	-0.070	-0.277
-509.785	-89.349	0.197	0.059
-508.770	800.000	0.031	-0.108
-507.756	158.244	-0.142	0.199
-506.741	41.247	0.141	0.129
-505.726	-200.000	0.007	-0.240
-504.712	-97.068	-0.274	0.073
-503.697	414.402	-0.090	-0.195
-502.683	-28.271	0.279	0.163
-501.668	525.469	0.038	0.090
-500.653	-92.732	-0.376	0.107
-499.639	-125.441	-0.122	-0.019
-498.624	80.075	-0.019	-0.021
-497.610	48.106	0.160	-0.152
-496.595	-119.078	0.134	-0.024
-495.581	101.739	0.159	0.189
-494.566	-50.061	-0.197	0.095
-493.551	512.176	0.128	-0.303
-492.537	-119.005	-0.111	-0.020
-491.522	-75.102	0.448	-0.162
-490.508	-200.000	-0.026	0.274
-489.493	-63.155	-0.203	0.085
-488.478	388.147	-0.127	-0.266
-487.464	800.000	-0.044	-0.158
-486.449	729.282	-0.067	-0.182
-485.435	125.521	-0.078	-0.100
-484.420	800.000	0.015	0.044
-483.405	8.715	0.044	0.034
-482.391	693.504	-0.100	-0.267
-481.376	-113.275	-0.218	-0.043
-480.362	11.648	0.092	0.072
-479.347	314.872	0.007	0.013
-478.332	99.850	0.222	0.261
-477.318	493.504	0.104	0.242
-476.303	-88.184	0.442	-0.134
-475.289	-94.321	0.157	-0.043
-474.274	284.184	-0.081	-0.147
-473.259	-200.000	0.000	0.088
-472.245	500.948	0.117	-0.273
-471.230	20.935	-0.187	-0.154
-470.216	-93.550	0.245	-0.069
-469.201	-200.000	0.016	-0.176
-468.186	-116.806	-0.178	-0.033
-467.172	147.953	0.039	0.053
-466.157	-154.061	0.210	0.014
-465.143	18.931	-0.078	-0.064
-464.128	-129.220	-0.091	-0.013
-463.113	797.927	-0.137	0.381
-462.099	-47.515	0.018	0.009
-461.084	-112.250	-0.293	-0.059
-460.070	-154.724	0.206	-0.014
-459.055	118.860	-0.258	0.323
-458.040	-200.000	0.045	0.525
-457.026	-159.483	-0.073	-0.004
-456.011	71.239	0.163	-0.171
-454.997	-4.306	0.185	0.130
-453.982	800.000	0.074	0.214
-452.968	-12.450	-0.111	-0.073
-451.953	109.785	0.033	-0.040
-450.938	50.284	0.167	-0.159
-449.924	-125.654	-0.144	-0.022
-448.909	-27.083	-0.216	-0.128
-447.895	-51.532	-0.227	0.107
-446.880	86.113	0.049	-0.055
-445.865	36.016	-0.146	-0.130
-444.851	-56.994	0.147	-0.066
-443.836	-23.960	0.211	0.128
-442.822	-91.755	-0.202	0.058
-441.807	-76.983	-0.157	0.056
-440.792	90.448	-0.077	-0.087
-439.778	-200.000	-0.028	0.254
-438.763	228.211	0.140	-0.230
-437.749	800.000	-0.073	0.266
-436.734	169.885	0.142	-0.205
-435.719	-127.681	0.030	-0.004
-434.705	-103.565	-0.324	0.077
-433.690	350.818	-0.169	-0.339
-432.676	-23.446	-0.133	-0.081
-431.661	772.215	0.077	-0.212
-430.646	228.702	0.093	0.153
-429.632	664.316	0.107	0.279
-428.617	413.779	-0.116	0.250
-427.603	-70.035	-0.110	0.042
-426.588	-77.945	0.108	0.038
-425.573	487.545	0.129	-0.297
-424.559	-16.513	0.149	-0.096
-423.544	47.310	-0.119	0.112
-422.530	-200.000	-0.017	0.083
-421.515	64.745	-0.195	0.199
-420.500	-200.000	0.004	0.232
-419.486	-118.367	0.135	0.024
-418.471	25.200	-0.107	-0.090
-417.457	400.449	-0.045	-0.095
-416.442	-40.684	-0.027	0.014
-415.428	-200.000	0.028	-0.233
-414.413	-200.000	-0.000	0.251
-413.398	630.516	-0.140	0.359
-412.384	-45.429	0.099	0.050
-411.369	618.050	-0.059	-0.149
-410.355	420.467	0.155	-0.336
-409.340	-7.426	0.246	-0.168
-408.325	138.187	0.252	-0.334
-407.311	74.480	-0.308	0.327
-406.296	222.305	0.061	-0.100
-405.282	646.988	0.074	-0.192
-404.267	-126.586	-0.207	-0.031
-403.252	-200.000	-0.005	0.093
-402.238	538.737	0.077	0.186
-401.223	649.870	-0.019	0.050
-400.209	-200.000	-0.139	0.000
-399.194	-103.673	-0.080	-0.019
-398.179	800.000	-0.061	-0.188
-397.165	-19.694	-0.222	0.138
-396.150	-50.435	-0.090	0.043
-395.136	-46.285	0.256	-0.127
-394.121	63.869	0.118	-0.120
-393.106	-47.511	0.024	0.012
-392.092	-22.698	0.224	0.136
-391.077	32.099	0.101	0.088
-390.063	239.772	-0.106	0.178
-389.048	-20.980	0.254	0.157
-388.033	800.000	-0.077	0.297
-387.019	-42.510	-0.350	0.180
-386.004	-81.882	-0.118	-0.039
-384.990	260.856	0.068	0.119
-383.975	379.093	-0.071	0.147
-382.960	-76.392	-0.066	-0.023
-381.946	149.005	-0.029	0.040
-380.931	-91.410	0.375	0.108
-379.917	115.340	0.224	0.276
-378.902	204.073	-0.325	-0.509
-377.888	207.938	-0.144	-0.228
-376.873	-15.217	-0.140	-0.091
-375.858	-200.000	0.048	-0.249
-374.844	800.000	-0.004	0.013
-373.829	-26.419	0.241	-0.142
-372.815	200.786	-0.060	-0.093
-371.800	-177.645	-0.114	-0.003
-370.785	-53.649	-0.327	-0.151
-369.771	-179.345	-0.219	-0.005
-368.756	-200.000	0.036	-0.416
-367.742	72.559	-0.073	0.077
-366.727	47.278	-0.213	-0.200
-365.712	-200.000	0.005	-0.284
-364.698	-200.000	-0.023	0.139
-363.683	-71.740	-0.157	0.059
-362.669	-182.857	-0.273	-0.005
-361.654	-200.000	-0.042	0.289
-360.639	18.558	-0.198	-0.159
-359.625	-5.659	-0.292	0.202
-358.610	-35.178	0.232	0.127
-357.596	412.192	0.211	0.452
-356.581	-167.027	0.063	-0.003
-355.566	-105.744	0.310	0.071
-354.552	-200.000	0.001	0.194
-353.537	194.926	0.139	-0.212
-352.523	-169.364	0.126	0.005
-351.508	6.555	0.049	0.037
-350.493	556.111	0.027	0.067
-349.479	411.459	-0.122	0.261
-348.464	210.915	0.111	0.177
-347.450	-200.000	-0.009	0.311
-346.435	-76.360	-0.736	-0.261
-345.420	101.390	0.086	0.101
-344.406	-173.907	-0.142	-0.004
-343.391	320.193	-0.084	0.161
-342.377	377.674	0.047	0.098
-341.362	-103.092	-0.190	0.045
-340.348	133.351	-0.239	0.311
-339.333	52.216	0.143	0.138
-338.318	-157.075	0.315	0.019
-337.304	-33.059	0.261	0.146
-336.289	117.616	0.259	0.322
-335.275	-200.000	0.069	0.309
-334.260	-192.092	0.205	-0.002
-333.245	-79.762	0.063	0.022
-332.231	-10.008	-0.205	-0.137
-331.216	243.234	0.073	0.123
-330.202	-145.814	0.347	-0.031
-329.187	147.525	0.072	-0.098
-328.172	244.654	-0.111	-0.188
-327.158	288.683	0.088	0.160
-326.143	-137.363	-0.152	-0.017
-325.129	687.116	0.047	-0.123
-324.114	207.278	0.011	-0.017
-323.099	-200.000	0.004	0.131
-322.085	800.000	0.016	-0.051
-321.070	-84.847	0.130	0.041
-320.056	-200.000	-0.052	0.248
-319.041	741.308	-0.052	0.142
-318.026	238.885	0.110	0.184
-317.012	-6.703	-0.077	-0.052
-315.997	-189.659	0.341	0.004
-314.983	-116.764	-0.358	0.066
-313.968	57.758	0.165	-0.162
-312.953	-12.741	-0.120	0.079
-311.939	800.000	0.179	0.606
-310.924	-120.633	0.170	0.029
-309.910	147.421	-0.137	0.185
-308.895	-141.361	0.106	0.011
-307.880	102.706	-0.015	-0.018
-306.866	-200.000	0.040	0.190
-305.851	10.981	0.346	-0.266
-304.837	-200.000	-0.005	0.142
-303.822	-200.000	0.036	-0.327
-302.807	382.231	-0.104	-0.216
-301.793	181.177	-0.069	-0.101
-300.778	-57.659	-0.101	-0.045
-299.764	5.608	0.160	-0.119
-298.749	10.763	0.149	0.115
-297.735	800.000	-0.082	0.243
-296.720	585.029	0.086	0.213
-295.705	599.551	0.090	-0.226
-294.691	-53.740	-0.226	0.104
-293.676	-22.788	-0.123	0.075
-292.662	-121.843	0.139	0.023
-291.647	501.291	0.139	-0.323
-290.632	274.498	0.122	-0.218
-289.618	454.104	-0.017	0.037
-288.603	-200.000	-0.035	-0.164
-287.589	350.524	-0.116	-0.230
-286.574	529.356	0.136	0.323
-285.559	800.000	0.149	-0.423
-284.545	461.482	-0.145	-0.326
-283.530	-200.000	0.008	-0.128
-282.516	-124.103	0.112	0.018
-281.501	75.619	-0.152	0.161
-280.486	-200.000	0.003	-0.328
-279.472	800.000	-0.140	-0.389
-278.457	415.701	-0.112	-0.241
-277.443	35.232	0.205	0.180
-276.428	216.345	0.064	0.102
-275.413	169.509	0.071	0.102
-274.399	-103.824	-0.256	0.060
-273.384	-38.168	-0.252	-0.135
-272.370	519.572	-0.089	0.209
-271.355	-53.295	0.390	0.180
-270.340	499.910	-0.049	0.114
-269.326	-84.450	0.262	0.083
-268.311	-127.565	-0.333	0.049
-267.297	35.470	0.204	-0.180
-266.282	181.012	-0.068	-0.101
-265.267	385.900	0.021	0.043
-264.253	-144.809	0.400	-0.037
-263.238	-71.968	0.151	-0.056
-262.224	-143.671	0.184	0.018
-261.209	-29.642	0.094	0.054
-260.195	530.109	-0.168	-0.399
-259.180	338.669	0.040	-0.079
-258.165	-43.076	-0.228	0.116
-257.151	800.000	0.126	-0.448
-256.136	61.200	0.192	0.191
-255.122	-12.616	0.232	-0.152
-254.107	-200.000	-0.037	-0.258
-253.092	800.000	0.061	0.187
-252.078	119.623	-0.087	0.108
-251.063	-200.000	-0.031	0.268
-250.049	-39.193	0.290	0.153
-249.034	613.556	0.112	0.283
-248.019	-200.000	-0.035	0.438
-247.005	-200.000	0.005	-0.080
-245.990	796.920	0.119	0.330
-244.976	17.855	0.028	-0.022
-243.961	27.386	0.152	0.128
-242.946	-200.000	-0.013	-0.262
-241.932	513.156	-0.118	0.277
-240.917	67.622	-0.004	0.004
-239.903	-180.591	-0.058	0.001
-238.888	-98.907	-0.153	-0.039
-237.873	-166.133	0.261	-0.011
-236.859	-40.772	-0.241	-0.125
-235.844	-121.381	0.232	-0.039
-234.830	-200.000	0.113	-0.000
-233.815	-105.775	-0.080	0.018
-232.800	101.630	-0.076	0.089
-231.786	244.149	-0.056	-0.094
-230.771	159.599	-0.210	0.293
-229.757	42.530	-0.112	-0.102
-228.742	35.921	0.060	0.053
-227.727	6.093	-0.159	0.118
-226.713	198.847	0.111	0.170
-225.698	-139.721	-0.320	0.034
-224.684	-200.000	-0.087	0.395
-223.669	-78.042	0.381	0.132
-222.655	-200.000	0.040	0.316
-221.640	-127.888	0.420	-0.061
-220.625	184.049	0.121	-0.180
-219.611	208.824	0.074	0.117
-218.596	-200.000	0.010	-0.049
-217.582	-40.299	0.264	0.138
-216.567	800.000	-0.039	0.130
-215.552	92.604	-0.113	0.128
-214.538	17.536	0.112	-0.090
-213.523	-95.623	0.034	-0.009
-212.509	1.524	0.221	-0.160
-211.494	-109.852	0.274	0.058
-210.479	-183.094	-0.222	0.004
-209.465	-12.737	0.079	-0.051
-208.450	33.907	0.200	0.175
-207.436	-163.099	0.046	0.002
-206.421	-200.000	0.052	0.244
-205.406	800.000	0.048	-0.154
-204.392	800.000	-0.040	-0.136
-203.377	476.866	0.036	-0.081
-202.363	-32.803	-0.221	-0.123
-201.348	95.950	-0.200	-0.229
-200.333	80.118	-0.111	-0.120
-199.319	33.074	-0.205	-0.178
-198.304	-200.000	0.037	0.393
-197.290	800.000	-0.112	0.409
-196.275	32.718	-0.151	0.131
-195.260	60.808	0.038	0.037
-194.246	-67.114	-0.072	0.028
-193.231	800.000	0.046	0.147
-192.217	115.757	0.052	-0.064
-191.202	116.728	-0.168	-0.206
-190.187	42.396	-0.061	-0.056
-189.173	49.559	-0.148	0.139
-188.158	-200.000	0.027	0.227
-187.144	132.893	0.008	0.010
-186.129	48.072	0.091	-0.085
-185.114	285.285	0.117	-0.211
-184.100	78.023	-0.386	-0.413
-183.085	-61.968	0.359	-0.150
-182.071	248.953	-0.026	-0.044
-181.056	-200.000	0.076	-0.426
-180.042	-200.000	-0.019	-0.174
-179.027	188.745	0.098	-0.147
-178.012	255.228	0.178	0.305
-176.998	-49.695	-0.148	0.070
-175.983	279.588	-0.196	0.351
-174.969	-40.311	0.101	0.053
-173.954	21.920	0.262	-0.214
-172.939	-117.040	0.049	-0.009
-171.925	251.220	-0.044	-0.075
-170.910	275.265	0.162	-0.288
-169.896	-140.708	-0.224	-0.023
-168.881	121.507	-0.191	-0.238
-167.866	-200.000	-0.026	0.242
-166.852	-9.329	-0.153	0.103
-165.837	-97.536	0.260	0.068
-164.823	32.998	-0.413	0.358
-163.808	-200.000	-0.003	0.039
-162.793	-2.879	-0.259	0.181
-161.779	60.888	-0.095	-0.094
-160.764	200.385	0.259	-0.398
-159.750	-45.571	0.205	-0.102
-158.735	-96.674	-0.389	-0.102
-157.720	128.983	-0.292	-0.373
-156.706	-200.000	-0.016	-0.623
-155.691	800.000	-0.114	0.319
-154.677	139.103	0.055	0.072
-153.662	-79.571	-0.207	0.070
-152.647	-18.788	0.167	-0.104
-151.633	-6.573	0.145	0.099
-150.618	159.690	0.284	0.395
-149.604	-200.000	0.002	0.365
-148.589	-180.512	0.173	0.004
-147.574	800.000	-0.137	0.496
-146.560	-200.000	-0.001	0.083
-145.545	800.000	0.057	0.214
-144.531	-200.000	-0.007	-0.322
-143.516	278.534	-0.209	-0.373
-142.502	-28.134	0.107	0.062
-141.487	-80.966	0.322	0.107
-140.472	800.000	-0.102	0.316
-139.458	-77.943	-0.085	0.029
-138.443	800.000	0.046	0.197
-137.429	-143.552	0.275	0.026
-136.414	800.000	0.103	0.310
-135.399	800.000	-0.027	-0.110
-134.385	-35.403	-0.249	0.135
-133.370	-107.833	-0.219	-0.048
-132.356	800.000	-0.021	-0.067
-131.341	-15.823	0.345	0.220
-130.326	13.478	-0.115	-0.089
-129.312	12.622	-0.105	0.081
-128.297	-200.000	-0.045	-0.244
-127.283	-130.301	0.468	0.064
-126.268	280.374	-0.082	-0.147
-125.253	4.569	-0.178	0.130
-124.239	-153.657	0.127	0.009
-123.224	-200.000	0.038	0.169
-122.210	-181.760	0.517	-0.010
-121.195	-159.537	-0.121	-0.007
-120.180	-200.000	-0.022	0.219
-119.166	-200.000	-0.027	0.158
-118.151	405.917	0.084	-0.177
-117.137	800.000	0.079	0.296
-116.122	-23.389	0.110	0.066
-115.107	56.559	-0.013	-0.013
-114.093	-200.000	0.065	0.302
-113.078	-200.000	-0.020	0.348
-112.064	33.588	-0.322	0.280
-111.049	315.648	-0.243	0.458
-110.034	541.412	-0.151	-0.358
-109.020	93.953	-0.070	0.079
-108.005	24.187	-0.221	-0.182
-106.991	-70.436	0.155	-0.059
-105.976	114.486	-0.041	-0.050
-104.962	-121.007	-0.127	0.021
-103.947	-152.405	0.134	0.010
-102.932	-200.000	0.078	0.544
-101.918	-174.544	-0.296	-0.008
-100.903	-103.117	-0.544	0.129
-99.889	326.987	-0.061	0.117
-98.874	-200.000	-0.004	-0.069
-97.859	-116.147	-0.342	0.063
-96.845	-199.466	0.330	0.002
-95.830	702.287	0.165	0.435
-94.816	243.970	-0.044	0.075
-93.801	432.501	-0.079	-0.171
-92.786	545.318	0.145	-0.346
-91.772	-22.616	-0.095	-0.057
-90.757	800.000	0.103	0.322
-89.743	800.000	0.121	0.379
-88.728	53.374	-0.163	-0.156
-87.713	8.578	-0.168	-0.126
-86.699	-5.482	0.077	0.053
-85.684	-52.383	-0.092	0.042
-84.670	-200.000	-0.038	0.361
-83.655	-200.000	-0.118	0.557
-82.640	-200.000	0.072	0.451
-81.626	278.458	0.078	-0.139
-80.611	131.000	-0.152	-0.195
-79.597	-53.329	-0.018	-0.008
-78.582	-200.000	0.031	0.364
-77.567	-160.014	-0.114	-0.006
-76.553	-135.929	-0.269	-0.032
-75.538	-6.668	-0.138	0.094
-74.524	74.573	-0.255	0.268
-73.509	-200.000	0.065	-0.409
-72.494	333.774	0.097	-0.186
-71.480	137.652	0.118	-0.154
-70.465	-46.345	0.168	-0.082
-69.451	-28.563	-0.375	0.216
-68.436	-38.361	-0.138	0.073
-67.422	-25.842	-0.171	-0.101
-66.407	-147.588	-0.213	0.018
-65.392	-122.947	0.199	0.032
-64.378	205.629	0.060	-0.093
-63.363	-200.000	0.006	0.261
-62.349	-117.136	0.223	0.040
-61.334	1.859	-0.867	-0.623
-60.319	-130.069	0.529	0.072
-59.305	-200.000	-0.123	-0.613
-58.290	-200.000	0.039	0.535
-57.276	-200.000	0.321	1.583
-56.261	-200.000	74.200	557.607
-55.246	531.738	1343.469	3167.830
-54.232	134.575	2609.067	3374.371
-53.217	111.420	2389.058	2871.391
-52.203	52.393	1994.672	1897.200
-51.188	46.156	1780.611	1643.849
-50.173	43.300	1733.132	1577.671
-49.159	57.421	1766.329	1719.210
-48.144	63.712	1785.060	1786.766
-47.130	46.106	1748.415	1613.477
-46.115	42.806	1735.003	1575.260
-45.100	42.577	1730.673	1569.474
-44.086	42.653	1727.256	1566.903
-43.071	42.655	1724.581	1564.435
-42.057	42.565	1722.480	1561.766
-41.042	42.585	1720.141	1559.739
-40.027	42.559	1718.522	1558.007
-39.013	42.620	1716.157	1556.273
-37.998	42.649	1714.478	1554.911
-36.984	42.614	1713.258	1553.474
-35.969	42.782	1711.687	1553.284
-34.954	42.887	1709.601	1552.142
-33.940	42.622	1708.500	1549.039
-32.925	42.639	1706.555	1547.345
-31.911	42.783	1704.048	1546.113
-30.896	42.685	1702.427	1543.829
-29.881	42.775	1700.358	1542.585
-28.867	42.739	1698.802	1540.833
-27.852	42.709	1697.058	1538.961
-26.838	42.626	1696.035	1537.336
-25.823	42.776	1694.360	1536.902
-24.809	42.781	1693.294	1535.916
-23.794	42.840	1691.019	1534.240
-22.779	42.744	1690.045	1532.565
-21.765	42.777	1688.530	1531.380
-20.750	42.779	1686.135	1529.165
-19.736	42.807	1684.994	1528.281
-18.721	42.805	1683.113	1526.502
-17.706	42.786	1681.576	1524.899
-16.692	42.705	1680.338	1523.101
-15.677	42.775	1678.254	1521.683
-14.663	42.787	1677.243	1520.793
-13.648	42.710	1675.902	1518.936
-12.633	42.802	1674.145	1517.984
-11.619	42.737	1672.599	1516.025
-10.604	42.799	1671.186	1515.158
-9.590	42.741	1669.772	1513.378
-8.575	42.750	1668.800	1512.502
-7.560	42.775	1667.015	1511.009
-6.546	42.733	1666.466	1510.141
-5.531	42.693	1665.408	1508.822
-4.517	42.606	1664.146	1506.961
-3.502	42.702	1663.006	1506.590
-2.487	42.853	1660.994	1505.843
-1.473	42.799	1650.855	1496.190
-0.458	40.521	1630.508	1460.929
0.556	34.358	1626.094	1416.453
1.571	29.886	1646.852	1400.649
2.586	28.136	1659.349	1397.798
3.600	24.639	1604.876	1325.892
4.615	13.722	1483.932	1150.542
5.629	2.987	1407.220	1020.021
6.644	0.560	1395.937	995.757
7.659	0.351	1394.357	993.167
8.673	0.318	1393.443	992.208
9.688	0.182	1392.284	990.401
10.702	0.129	1389.137	987.728
11.717	3.996	1396.212	1018.141
12.731	13.322	1410.951	1090.549
13.746	18.155	1417.221	1127.233
14.761	17.507	1414.148	1120.424
15.775	16.425	1411.724	1111.295
16.790	15.362	1409.273	1102.283
17.804	14.595	1406.560	1095.029
18.819	14.152	1405.218	1090.988
19.834	13.936	1403.480	1088.126
20.848	13.533	1402.577	1084.690
21.863	13.342	1401.215	1082.292
22.877	13.196	1399.570	1079.968
23.892	13.099	1398.682	1078.556
24.907	13.118	1398.225	1078.230
25.921	13.137	1397.340	1077.578
26.936	13.140	1396.913	1077.174
27.950	13.191	1395.376	1076.223
28.965	13.196	1394.743	1075.672
29.980	13.253	1393.338	1074.868
30.994	13.278	1392.823	1074.532
32.009	13.440	1391.248	1074.278
33.023	13.381	1390.217	1073.006
34.038	13.381	1388.880	1071.880
35.053	13.303	1388.023	1070.618
36.067	13.232	1387.064	1069.324
37.082	13.376	1385.496	1068.952
38.096	13.369	1384.692	1068.192
39.111	13.405	1384.169	1067.925
40.126	13.326	1383.572	1066.858
41.140	13.219	1382.263	1065.067
42.155	13.239	1381.719	1064.683
43.169	13.144	1381.809	1064.046
44.184	13.171	1381.241	1063.685
45.199	13.219	1380.654	1063.451
46.213	13.190	1380.496	1063.049
47.228	13.188	1379.592	1062.246
48.242	13.250	1378.337	1061.582
49.257	13.272	1377.023	1060.619
50.271	13.325	1374.887	1059.217
51.286	13.304	1373.599	1057.997
52.301	13.283	1372.804	1057.155
53.315	13.258	1371.382	1055.810
54.330	13.196	1370.651	1054.755
55.344	13.230	1369.469	1053.972
56.359	13.252	1368.324	1053.133
57.374	13.208	1367.707	1052.285
58.388	13.134	1366.691	1050.944
59.403	13.099	1366.448	1050.440
60.417	13.099	1365.275	1049.447
61.432	13.132	1364.322	1048.826
62.447	13.102	1363.481	1047.898
63.461	13.095	1362.181	1046.761
64.476	13.038	1361.179	1045.537
65.490	13.092	1360.033	1044.906
66.505	13.139	1358.253	1043.744
67.520	13.070	1357.494	1042.634
68.534	13.127	1356.134	1041.856
69.549	13.240	1354.450	1041.181
70.563	13.166	1353.786	1040.114
71.578	13.027	1352.278	1037.987
72.593	12.991	1351.816	1037.317
73.607	12.969	1350.840	1036.339
74.622	12.991	1349.879	1035.645
75.636	13.053	1349.264	1035.472
76.651	13.068	1348.384	1034.797
77.666	12.998	1348.050	1034.014
78.680	13.009	1347.646	1033.682
79.695	13.073	1346.674	1033.246
80.709	13.103	1345.186	1032.201
81.724	13.101	1344.809	1031.807
82.739	13.077	1343.654	1030.681
83.753	13.227	1342.390	1030.552
84.768	13.292	1341.735	1030.362
85.782	13.263	1340.655	1029.265
86.797	13.353	1338.958	1028.428
87.812	13.241	1338.057	1026.947
88.826	13.212	1336.929	1025.811
89.841	13.131	1335.938	1024.459
90.855	13.243	1335.114	1024.428
91.870	13.293	1333.982	1023.781
92.884	13.304	1333.089	1023.075
93.899	13.329	1332.335	1022.559
94.914	13.352	1331.518	1021.984
95.928	13.378	1330.487	1021.263
96.943	13.401	1329.551	1020.593
97.957	13.260	1328.849	1019.100
98.972	13.324	1327.607	1018.447
99.987	13.335	1326.717	1017.740
101.001	13.298	1325.690	1016.637
102.016	13.268	1324.409	1015.381
103.030	13.400	1323.495	1015.399
104.045	13.350	1322.583	1014.303
105.060	13.336	1321.467	1013.272
106.074	13.312	1320.123	1012.008
107.089	13.188	1319.079	1010.357
108.103	13.152	1317.543	1008.870
109.118	13.189	1315.971	1007.806
110.133	13.192	1314.770	1006.813
111.147	13.090	1313.813	1005.369
112.162	13.197	1312.535	1004.957
113.176	13.141	1311.244	1003.538
114.191	13.242	1310.141	1003.218
115.206	13.201	1309.219	1002.172
116.220	13.182	1308.033	1001.061
117.235	13.255	1306.109	999.945
118.249	13.132	1305.748	998.838
119.264	13.206	1304.271	998.062
120.279	13.166	1303.602	997.223
121.293	13.092	1302.410	995.775
122.308	13.218	1301.238	995.553
123.322	13.202	1300.435	994.751
124.337	13.164	1299.580	993.778
125.352	13.317	1297.926	993.349
126.366	13.148	1297.047	991.571
127.381	13.147	1296.172	990.808
128.395	13.157	1295.019	989.903
129.410	13.150	1293.837	988.867
130.424	13.344	1292.680	989.056
131.439	13.253	1292.132	988.005
132.454	13.240	1291.570	987.409
133.468	13.306	1290.140	986.621
134.483	13.341	1289.768	986.463
135.497	13.213	1288.896	984.942
136.512	13.392	1287.159	984.592
137.527	13.244	1286.176	982.876
138.541	13.345	1284.385	982.017
139.556	13.390	1282.895	981.060
140.570	13.453	1281.558	980.323
141.585	13.452	1280.257	979.237
142.600	13.492	1279.306	978.656
143.614	13.493	1278.702	978.117
144.629	13.465	1277.531	976.965
145.643	13.507	1275.814	975.816
146.658	13.389	1274.811	974.269
147.673	13.345	1273.545	972.957
148.687	13.307	1272.545	971.881
149.702	13.378	1270.879	970.940
150.716	13.296	1269.630	969.418
151.731	13.347	1268.050	968.426
152.746	13.360	1266.987	967.604
153.760	13.339	1265.868	966.540
154.775	13.390	1264.544	965.740
155.789	13.449	1263.352	965.094
156.804	13.439	1262.299	964.142
157.819	13.448	1261.398	963.421
158.833	13.491	1260.933	963.230
159.848	13.515	1259.582	962.254
160.862	13.502	1258.542	961.298
161.877	13.588	1256.798	960.379
162.892	13.438	1256.044	958.852
163.906	13.432	1255.284	958.152
164.921	13.466	1254.567	957.717
165.935	13.518	1253.190	956.881
166.950	13.498	1252.783	956.366
167.964	13.540	1252.057	955.973
168.979	13.516	1251.303	955.174
169.994	13.553	1250.560	954.733
171.008	13.486	1249.978	953.819
172.023	13.647	1248.786	953.756
173.037	13.611	1248.037	952.891
174.052	13.674	1247.171	952.509
175.067	13.618	1246.052	951.245
176.081	13.535	1244.937	949.832
177.096	13.536	1244.388	949.335
178.110	13.552	1243.385	948.577
179.125	13.553	1241.988	947.436
180.140	13.618	1240.417	946.524
181.154	13.547	1239.280	945.169
182.169	13.688	1238.198	945.066
183.183	13.777	1236.508	944.194
184.198	13.739	1235.737	943.311
185.213	13.776	1234.766	942.696
186.227	13.777	1233.002	941.269
187.242	13.792	1232.430	940.832
188.256	13.968	1231.267	940.858
189.271	13.855	1230.413	939.483
190.286	13.736	1229.271	937.858
191.300	13.612	1228.547	936.523
192.315	13.524	1228.180	935.660
193.329	13.676	1227.338	935.795
194.344	13.656	1226.486	934.951
195.359	13.716	1225.855	934.726
196.373	13.779	1225.577	934.784
197.388	13.857	1225.144	934.810
198.402	13.957	1224.325	934.663
199.417	14.043	1223.751	934.626
200.432	14.067	1222.990	934.102
201.446	13.978	1222.281	932.978
202.461	14.053	1221.093	932.406
203.475	14.103	1219.965	931.742
204.490	13.977	1218.920	930.158
205.504	14.134	1217.024	929.507
206.519	14.034	1216.024	928.104
207.534	13.978	1215.522	927.323
208.548	14.047	1214.218	926.629
209.563	14.078	1213.170	925.921
210.577	14.062	1212.469	925.215
211.592	14.080	1211.566	924.547
212.607	14.023	1210.623	923.425
213.621	14.108	1209.816	923.202
214.636	14.082	1209.017	922.368
215.650	14.149	1208.039	921.910
216.665	14.231	1206.959	921.458
217.680	14.187	1205.928	920.346
218.694	14.187	1205.206	919.712
219.709	14.195	1204.487	919.127
220.723	14.189	1203.952	918.605
221.738	14.234	1202.884	917.955
222.753	14.225	1201.874	917.054
223.767	14.185	1201.603	916.546
224.782	14.310	1200.703	916.469
225.796	14.330	1200.472	916.320
226.811	14.416	1199.491	915.964
227.826	14.367	1198.730	915.032
228.840	14.367	1197.602	914.090
229.855	14.376	1197.005	913.600
230.869	14.360	1196.300	912.897
231.884	14.341	1195.429	912.045
232.899	14.284	1194.700	911.097
233.913	14.283	1194.175	910.613
234.928	14.308	1193.135	909.873
235.942	14.276	1192.353	909.024
236.957	14.292	1191.712	908.543
237.972	14.248	1191.172	907.811
238.986	14.224	1190.694	907.236
240.001	14.316	1189.535	906.773
241.015	14.429	1188.376	906.422
242.030	14.400	1187.757	905.713
243.045	14.419	1186.728	904.952
244.059	14.443	1186.198	904.599
245.074	14.425	1185.362	903.781
246.088	14.439	1184.686	903.264
247.103	14.502	1183.541	902.648
248.117	14.485	1183.377	902.350
249.132	14.598	1182.156	901.954
250.147	14.745	1181.401	902.089
251.161	14.726	1180.593	901.294
252.176	14.683	1180.202	900.680
253.190	14.719	1179.303	900.112
254.205	14.804	1178.227	899.667
255.220	14.858	1177.811	899.558
256.234	14.868	1177.384	899.210
257.249	14.873	1176.914	898.796
258.263	14.933	1175.849	898.224
259.278	14.976	1174.917	897.666
260.293	14.888	1174.948	897.138
261.307	14.918	1173.912	896.425
262.322	14.909	1173.302	895.837
263.336	15.024	1172.366	895.653
264.351	15.100	1171.867	895.603
265.366	14.976	1171.343	894.458
266.380	15.077	1170.503	894.279
267.395	14.892	1170.248	893.018
268.409	14.957	1169.113	892.416
269.424	15.056	1168.388	892.312
270.439	15.080	1167.685	891.824
271.453	15.026	1166.773	890.761
272.468	15.047	1165.595	889.898
273.482	15.014	1164.786	889.021
274.497	15.070	1165.016	889.417
275.512	15.037	1164.349	888.654
276.526	14.994	1163.577	887.758
277.541	15.053	1162.309	887.027
278.555	15.035	1161.947	886.575
279.570	15.181	1161.152	886.666
280.585	15.121	1160.282	885.604
281.599	15.175	1159.274	885.039
282.614	15.241	1158.477	884.705
283.628	15.029	1157.278	882.592
284.643	15.149	1156.357	882.445
285.657	15.199	1155.734	882.152
286.672	15.204	1154.433	881.109
287.687	15.137	1153.834	880.220
288.701	15.261	1152.629	879.876
289.716	15.223	1152.022	879.134
290.730	15.262	1151.494	878.856
291.745	15.302	1150.802	878.458
292.760	15.285	1149.929	877.627
293.774	15.373	1149.503	877.686
294.789	15.328	1148.788	876.828
295.803	15.436	1148.046	876.745
296.818	15.246	1147.560	875.305
297.833	15.438	1146.028	875.060
298.847	15.291	1145.977	874.179
299.862	15.429	1145.244	874.263
300.876	15.368	1144.337	873.171
301.891	15.533	1143.954	873.660
302.906	15.575	1143.034	873.100
303.920	15.580	1142.236	872.440
304.935	15.568	1141.763	871.938
305.949	15.586	1141.087	871.437
306.964	15.515	1140.726	870.717
307.979	15.559	1139.581	869.995
308.993	15.558	1138.762	869.286
310.008	15.701	1137.847	869.250
311.022	15.681	1137.416	868.743
312.037	15.667	1136.259	867.711
313.052	15.677	1135.219	866.889
314.066	15.626	1134.285	865.837
315.081	15.563	1133.646	864.947
316.095	15.545	1133.022	864.304
317.110	15.591	1132.136	863.786
318.125	15.586	1131.576	863.260
319.139	15.562	1130.820	862.480
320.154	15.623	1130.374	862.377
321.168	15.627	1129.771	861.862
322.183	15.683	1128.708	861.263
323.197	15.713	1128.521	861.196
324.212	15.712	1127.563	860.385
325.227	15.699	1127.229	859.989
326.241	15.764	1126.326	859.552
327.256	15.834	1125.325	859.071
328.270	15.721	1124.600	857.866
329.285	15.708	1123.428	856.831
330.300	15.755	1122.712	856.445
331.314	15.810	1121.756	855.920
332.329	15.728	1120.847	854.737
333.343	15.745	1120.156	854.220
334.358	15.810	1119.344	853.855
335.373	15.877	1118.394	853.393
336.387	15.965	1117.499	853.080
337.402	16.014	1117.065	852.922
338.416	16.110	1116.257	852.717
339.431	16.078	1115.508	851.905
340.446	15.924	1115.197	850.813
341.460	16.041	1114.800	851.027
342.475	16.145	1113.534	850.512
343.489	16.135	1112.349	849.479
344.504	16.163	1111.604	848.976
345.519	16.200	1110.680	848.384
346.533	16.102	1110.383	847.585
347.548	16.167	1109.497	847.163
348.562	16.265	1108.387	846.730
349.577	16.054	1107.931	845.250
350.592	16.122	1107.215	844.971
351.606	16.070	1106.336	843.966
352.621	16.154	1105.519	843.686
353.635	16.166	1104.929	843.220
354.650	16.190	1104.215	842.721
355.665	16.089	1103.446	841.557
356.679	16.251	1102.915	841.884
357.694	16.206	1101.995	840.885
358.708	16.257	1101.300	840.533
359.723	16.176	1101.476	840.189
360.738	16.241	1100.185	839.454
361.752	16.209	1099.705	838.856
362.767	16.194	1099.068	838.219
363.781	16.222	1098.658	837.973
364.796	16.370	1097.992	838.122
365.810	16.420	1097.063	837.588
366.825	16.354	1096.886	837.052
367.840	16.425	1096.334	836.909
368.854	16.520	1095.482	836.656
369.869	16.529	1094.608	835.957
370.883	16.527	1093.799	835.255
371.898	16.497	1092.964	834.397
372.913	16.511	1092.463	834.009
373.927	16.599	1091.837	833.893
374.942	16.693	1091.554	834.065
375.956	16.610	1090.982	833.146
376.971	16.556	1090.464	832.410
377.986	16.554	1089.526	831.612
379.000	16.603	1089.234	831.553
380.015	16.660	1088.999	831.583
381.029	16.760	1087.526	830.875
382.044	16.713	1087.099	830.246
383.059	16.768	1086.488	829.973
384.073	16.707	1085.782	829.063
385.088	16.809	1084.462	828.480
386.102	16.837	1083.661	827.932
387.117	16.762	1082.757	826.802
388.132	16.651	1082.129	825.709
389.146	16.720	1081.015	825.120
390.161	16.826	1080.217	824.951
391.175	16.805	1079.691	824.377
392.190	16.781	1078.785	823.497
393.205	16.780	1078.485	823.189
394.219	16.853	1077.292	822.560
395.234	16.827	1076.417	821.691
396.248	16.656	1075.829	820.342
397.263	16.704	1074.756	819.683
398.278	16.754	1074.009	819.284
399.292	16.680	1073.162	818.206
400.307	16.712	1072.540	817.815
401.321	16.755	1071.978	817.522
402.336	16.788	1070.980	816.849
403.350	16.828	1070.498	816.600
404.365	16.865	1069.635	816.049
405.380	16.742	1069.356	815.172
406.394	16.929	1068.170	815.095
407.409	17.045	1067.513	815.076
408.423	17.006	1066.788	814.267
409.438	17.056	1065.944	813.789
410.453	17.057	1065.553	813.421
411.467	17.072	1064.758	812.816
412.482	17.134	1063.798	812.305
413.496	17.154	1063.110	811.808
414.511	17.203	1062.830	811.752
415.526	17.287	1061.923	811.390
416.540	17.227	1061.575	810.764
417.555	17.181	1061.292	810.257
418.569	17.331	1060.595	810.371
419.584	17.267	1060.248	809.729
420.599	17.326	1059.523	809.386
421.613	79.462	1284.964	1326.272
422.628	73.291	1317.832	1326.406
