DTS Sentinel unit serial number:	SN413079Multiplexer serial number:	ORYXHardware model number:	OX4-SRSoftware version number:	ORYX F/W v4.00 Oryx Data Collector v3.7.2.0data status	okinstallation	princeton_trtdifferential loss correction	single-endedforward channel	channel 2reverse channel	N/Adate	2019/09/17time	20:19:35forward acquisition time	60.00reverse acquisition time	0.00gamma	496.2192k internal	0.2333k external	0.2333temperature offset calibration	0.9985default loss term (dB/km)	0.3790temperature slope calibration	1.0000multiplexer offset coefficient	1.0000multiplexer slope coefficient	1.0000fibre end	0.00T internal ref (°C)	31.52T ext. ref 1 (°C)	0.22T ext. ref 2 (°C)	21.91length (m)	temperature (°C)	Stokes	anti-Stokes-747.200	800.000	0.007	-0.020
-746.185	-37.600	-0.196	0.105
-745.171	-42.854	-0.187	-0.096
-744.156	-51.155	-0.408	0.192
-743.142	23.933	-0.143	-0.118
-742.127	-8.123	-0.220	0.149
-741.112	-51.259	-0.202	-0.095
-740.098	5.732	0.170	0.127
-739.083	-173.390	0.225	0.007
-738.069	167.565	0.137	0.196
-737.054	-131.905	-0.215	0.028
-736.039	-200.000	-0.028	-0.173
-735.025	87.196	0.172	-0.191
-734.010	-200.000	0.032	-0.150
-732.996	-83.766	0.053	-0.017
-731.981	-200.000	-0.003	-0.047
-730.966	-200.000	0.036	-0.162
-729.952	-200.000	0.016	0.137
-728.937	7.297	-0.311	-0.233
-727.923	205.233	-0.093	-0.145
-726.908	800.000	0.027	0.118
-725.894	-200.000	0.001	-0.014
-724.879	-108.068	-0.027	0.006
-723.864	81.069	-0.043	0.047
-722.850	-39.198	0.275	-0.145
-721.835	19.369	0.059	-0.048
-720.821	341.598	0.106	0.208
-719.806	-18.046	0.176	0.111
-718.791	-104.065	-0.197	-0.046
-717.777	-151.950	0.090	0.007
-716.762	-8.616	-0.064	-0.043
-715.748	-87.384	-0.284	-0.086
-714.733	800.000	-0.062	-0.242
-713.718	-200.000	-0.018	0.162
-712.704	160.189	-0.111	-0.156
-711.689	75.143	-0.145	-0.154
-710.675	9.595	-0.312	-0.238
-709.660	142.216	0.222	0.295
-708.645	-93.945	0.328	0.091
-707.631	161.089	0.149	0.209
-706.616	800.000	0.082	0.276
-705.602	-200.000	-0.049	0.288
-704.587	-200.000	-0.014	-0.132
-703.572	-27.112	-0.061	-0.036
-702.558	0.008	0.058	-0.042
-701.543	7.312	0.220	0.165
-700.529	800.000	0.009	-0.039
-699.514	44.912	0.085	0.079
-698.499	-75.489	-0.289	-0.103
-697.485	546.951	0.075	-0.181
-696.470	389.497	0.068	-0.142
-695.456	616.551	0.162	-0.408
-694.441	221.852	-0.097	-0.156
-693.426	-200.000	0.052	-0.232
-692.412	128.837	-0.078	-0.100
-691.397	258.941	-0.142	0.246
-690.383	63.627	-0.200	0.201
-689.368	-126.099	0.070	0.010
-688.354	800.000	0.131	-0.366
-687.339	-8.492	-0.228	0.154
-686.324	482.450	-0.038	-0.087
-685.310	185.629	-0.062	-0.092
-684.295	65.296	-0.103	0.105
-683.281	-200.000	-0.007	-0.093
-682.266	-200.000	-0.006	0.086
-681.251	-91.761	0.182	-0.052
-680.237	-90.757	0.010	0.003
-679.222	-186.915	-0.270	-0.004
-678.208	241.140	0.117	0.196
-677.193	76.211	0.250	-0.265
-676.178	-200.000	0.028	-0.150
-675.164	8.420	-0.163	0.123
-674.149	-200.000	0.015	0.064
-673.135	800.000	-0.071	-0.213
-672.120	-200.000	0.008	0.170
-671.105	664.609	-0.045	-0.116
-670.091	206.624	0.073	0.114
-669.076	-45.721	0.206	0.102
-668.062	-101.184	0.171	-0.042
-667.047	-36.833	-0.391	0.210
-666.032	-13.805	0.201	-0.131
-665.018	-62.314	-0.177	-0.074
-664.003	-59.347	-0.157	-0.068
-662.989	188.523	-0.233	-0.349
-661.974	-200.000	-0.068	-0.333
-660.959	285.299	-0.048	-0.086
-659.945	16.292	0.025	0.019
-658.930	-174.285	0.126	0.004
-657.916	-200.000	-0.004	0.252
-656.901	70.411	0.308	0.319
-655.886	-61.539	-0.384	-0.162
-654.872	115.689	0.117	-0.144
-653.857	-23.611	0.135	-0.081
-652.843	-118.182	0.295	-0.053
-651.828	-75.844	0.051	-0.018
-650.814	800.000	-0.033	-0.113
-649.799	295.198	-0.070	0.129
-648.784	-200.000	0.021	0.160
-647.770	800.000	0.038	-0.134
-646.755	-49.396	-0.133	0.063
-645.741	44.601	0.132	-0.121
-644.726	-46.354	0.099	-0.049
-643.711	-200.000	-0.020	0.103
-642.697	-2.436	-0.173	-0.121
-641.682	-200.000	0.344	-0.001
-640.668	-11.984	0.299	-0.196
-639.653	32.892	-0.233	0.202
-638.638	-105.461	-0.433	0.099
-637.624	65.755	-0.042	0.042
-636.609	347.026	0.143	0.283
-635.595	-118.919	0.061	-0.011
-634.580	-138.725	-0.168	0.018
-633.565	-200.000	0.012	-0.322
-632.551	390.462	-0.036	-0.075
-631.536	41.171	0.018	0.017
-630.522	81.106	-0.207	0.223
-629.507	246.841	0.168	0.285
-628.492	800.000	-0.016	-0.067
-627.478	-135.152	-0.132	0.016
-626.463	491.118	-0.154	-0.352
-625.449	176.309	0.199	0.290
-624.434	-51.894	-0.055	0.026
-623.419	-200.000	0.178	0.001
-622.405	-21.511	0.147	-0.090
-621.390	-200.000	0.021	-0.291
-620.376	305.332	-0.068	-0.127
-619.361	-200.000	-0.010	0.117
-618.346	424.669	-0.085	0.183
-617.332	800.000	0.036	-0.111
-616.317	352.751	0.110	0.218
-615.303	-110.289	-0.190	0.040
-614.288	62.477	-0.149	-0.149
-613.273	-200.000	-0.001	0.227
-612.259	800.000	0.016	-0.053
-611.244	213.450	-0.153	-0.242
-610.230	-49.481	0.116	-0.055
-609.215	228.919	0.037	-0.061
-608.201	113.250	-0.135	-0.164
-607.186	-89.096	0.278	-0.082
-606.171	99.771	-0.301	0.348
-605.157	307.686	0.081	0.151
-604.142	260.335	-0.057	-0.099
-603.128	-158.648	-0.150	0.009
-602.113	1.215	0.152	0.109
-601.098	-119.100	-0.083	0.014
-600.084	45.127	0.191	-0.176
-599.069	149.212	0.114	0.154
-598.055	-200.000	0.086	-0.399
-597.040	-200.000	0.002	0.270
-596.025	137.878	-0.171	0.224
-595.011	-12.793	0.133	0.087
-593.996	128.237	0.125	-0.160
-592.982	-200.000	0.009	-0.099
-591.967	-99.319	0.157	-0.040
-590.952	-200.000	-0.006	-0.203
-589.938	-137.138	-0.275	0.031
-588.923	168.271	0.199	-0.283
-587.909	-200.000	-0.027	0.263
-586.894	61.676	0.180	-0.179
-585.879	-5.575	0.168	-0.115
-584.865	-79.966	0.311	-0.104
-583.850	-200.000	-0.024	-0.326
-582.836	800.000	-0.117	0.465
-581.821	61.173	-0.307	-0.304
-580.806	-23.690	-0.338	-0.202
-579.792	80.348	0.156	0.168
-578.777	-113.553	-0.090	0.018
-577.763	-133.391	-0.329	-0.041
-576.748	-16.622	-0.189	-0.119
-575.733	-90.594	0.129	-0.037
-574.719	477.433	-0.058	0.131
-573.704	800.000	-0.053	-0.178
-572.690	-47.881	0.342	-0.165
-571.675	85.154	0.190	-0.208
-570.661	-77.452	-0.247	0.086
-569.646	800.000	-0.062	-0.244
-568.631	-40.318	-0.143	0.074
-567.617	12.033	-0.129	-0.099
-566.602	92.000	0.148	-0.166
-565.588	-200.000	-0.047	-0.286
-564.573	98.391	0.019	0.022
-563.558	800.000	0.105	0.371
-562.544	-15.179	-0.164	0.105
-561.529	159.393	0.044	-0.061
-560.515	-12.004	0.160	0.105
-559.500	20.083	0.200	0.161
-558.485	9.980	-0.343	0.260
-557.471	-112.474	-0.131	0.026
-556.456	99.770	-0.160	0.185
-555.442	194.856	-0.110	-0.166
-554.427	-20.853	-0.120	0.073
-553.412	-49.103	0.247	0.118
-552.398	-105.734	-0.050	-0.011
-551.383	588.173	-0.053	0.131
-550.369	-151.446	0.049	0.004
-549.354	-200.000	0.062	0.304
-548.339	419.030	-0.059	-0.126
-547.325	-86.969	0.015	-0.005
-546.310	391.593	0.109	0.226
-545.296	7.721	-0.267	0.199
-544.281	270.427	0.141	0.247
-543.266	-129.027	0.113	-0.016
-542.252	-200.000	-0.010	-0.149
-541.237	86.276	0.004	0.004
-540.223	-200.000	-0.002	0.054
-539.208	-114.922	0.139	-0.026
-538.193	135.548	-0.108	-0.140
-537.179	800.000	-0.036	0.120
-536.164	556.215	-0.033	-0.080
-535.150	258.191	0.172	0.295
-534.135	-135.773	0.264	-0.031
-533.121	39.969	-0.089	0.080
-532.106	83.694	0.202	-0.220
-531.091	-200.000	0.040	-0.258
-530.077	-200.000	-0.041	0.314
-529.062	-73.704	-0.057	0.021
-528.048	-91.145	0.213	0.061
-527.033	319.005	-0.186	0.352
-526.018	-121.363	0.277	-0.046
-525.004	-27.466	0.212	0.123
-523.989	55.092	0.315	0.304
-522.975	-200.000	-0.022	-0.534
-521.960	-127.696	-0.122	-0.018
-520.945	-110.686	0.248	0.051
-519.931	77.285	0.145	-0.154
-518.916	-83.229	-0.334	0.107
-517.902	86.602	0.094	0.104
-516.887	-43.211	0.193	0.097
-515.872	24.289	0.142	0.117
-514.858	-200.000	0.026	-0.255
-513.843	61.961	0.049	-0.048
-512.829	453.557	0.141	0.312
-511.814	-49.333	0.184	0.088
-510.799	248.965	-0.199	-0.336
-509.785	-73.990	-0.294	-0.106
-508.770	-74.812	0.160	-0.057
-507.756	586.472	-0.053	-0.130
-506.741	-200.000	0.020	-0.192
-505.726	-29.703	0.094	-0.053
-504.712	-72.669	0.190	0.070
-503.697	-110.088	-0.368	0.077
-502.683	26.506	-0.122	-0.101
-501.668	-124.821	0.113	-0.017
-500.653	-200.000	0.008	0.354
-499.639	273.769	0.145	0.256
-498.624	173.573	0.109	0.156
-497.610	1.673	0.248	0.178
-496.595	345.067	0.190	0.371
-495.581	800.000	-0.060	0.238
-494.566	-116.948	-0.471	0.086
-493.551	-10.778	-0.106	-0.070
-492.537	-200.000	-0.024	-0.197
-491.522	240.728	0.068	-0.112
-490.508	800.000	-0.044	-0.155
-489.493	415.149	0.093	-0.196
-488.478	419.060	0.092	-0.197
-487.464	-144.028	-0.238	-0.022
-486.449	46.591	-0.130	-0.120
-485.435	-200.000	0.038	-0.516
-484.420	-5.697	0.114	-0.078
-483.405	-50.641	-0.195	0.091
-482.391	0.776	0.152	0.108
-481.376	512.102	-0.133	-0.308
-480.362	134.732	0.156	0.202
-479.347	55.867	0.254	0.245
-478.332	-200.000	-0.065	-0.303
-477.318	251.108	-0.269	0.455
-476.303	-67.952	-0.248	0.096
-475.289	-67.133	0.398	-0.156
-474.274	-44.133	0.259	0.130
-473.259	-62.810	0.016	0.006
-472.245	-71.124	-0.061	0.023
-471.230	-75.655	-0.146	-0.052
-470.216	-200.000	-0.007	-0.067
-469.201	-200.000	-0.083	-0.478
-468.186	430.261	0.094	0.201
-467.172	374.879	-0.059	-0.119
-466.157	-29.176	-0.180	0.103
-465.143	-65.315	-0.563	-0.226
-464.128	-131.913	-0.157	-0.020
-463.113	51.866	-0.048	-0.046
-462.099	468.639	0.056	-0.126
-461.084	-85.564	0.044	0.014
-460.070	60.093	-0.241	-0.237
-459.055	79.863	0.046	0.049
-458.040	-26.276	-0.205	0.120
-457.026	-163.307	-0.260	0.012
-456.011	-162.037	0.398	-0.020
-454.997	183.853	-0.160	0.236
-453.982	-76.427	0.323	0.113
-452.968	-200.000	-0.004	0.104
-451.953	214.946	-0.135	-0.212
-450.938	7.890	-0.087	0.065
-449.924	-60.068	-0.503	0.213
-448.909	314.284	0.044	-0.082
-447.895	-148.725	0.165	0.013
-446.880	-27.231	-0.384	-0.223
-445.865	-200.000	0.042	-0.293
-444.851	-72.229	-0.152	0.056
-443.836	298.953	0.122	0.224
-442.822	42.688	-0.062	0.056
-441.807	233.847	-0.068	0.111
-440.792	4.571	-0.078	0.057
-439.778	34.002	0.186	-0.161
-438.763	158.476	-0.211	0.291
-437.749	-55.150	-0.217	-0.097
-436.734	480.201	0.076	-0.170
-435.719	-200.000	0.017	-0.147
-434.705	-22.617	0.190	0.114
-433.690	-141.001	0.196	-0.020
-432.676	-200.000	-0.043	0.282
-431.661	-110.763	-0.199	0.041
-430.646	-105.396	0.193	0.044
-429.632	-200.000	-0.032	0.162
-428.617	369.605	0.078	-0.157
-427.603	32.222	-0.163	0.140
-426.588	343.346	-0.090	0.176
-425.573	800.000	-0.057	-0.211
-424.559	800.000	-0.031	0.118
-423.544	-93.698	-0.248	0.068
-422.530	-89.630	-0.344	0.100
-421.515	358.752	-0.097	-0.192
-420.500	-200.000	0.029	-0.213
-419.486	34.763	0.078	-0.067
-418.471	689.244	0.122	-0.317
-417.457	-5.630	0.084	-0.057
-416.442	62.058	-0.071	0.071
-415.428	800.000	0.102	-0.402
-414.413	-18.696	-0.079	0.049
-413.398	-164.530	0.071	0.003
-412.384	-200.000	-0.011	-0.293
-411.369	21.676	0.334	-0.270
-410.355	380.725	-0.105	-0.214
-409.340	537.448	-0.076	0.179
-408.325	-120.661	-0.284	-0.048
-407.311	-147.966	0.420	0.035
-406.296	72.872	-0.272	-0.282
-405.282	800.000	-0.038	0.137
-404.267	82.611	0.183	-0.197
-403.252	127.350	0.058	-0.073
-402.238	-200.000	-0.015	0.357
-401.223	24.904	0.174	0.143
-400.209	800.000	-0.140	0.486
-399.194	-165.205	0.120	-0.005
-398.179	-200.000	-0.025	-0.210
-397.165	164.054	-0.078	-0.109
-396.150	747.848	-0.023	0.062
-395.136	88.104	0.209	0.230
-394.121	345.333	0.087	-0.169
-393.106	-130.756	0.114	0.015
-392.092	394.680	-0.171	-0.354
-391.077	739.245	-0.095	-0.254
-390.063	-61.624	0.239	0.100
-389.048	-71.975	-0.110	0.041
-388.033	-200.000	0.098	0.492
-387.019	169.230	-0.137	0.194
-386.004	-110.800	0.282	0.058
-384.990	135.346	-0.060	-0.078
-383.975	-200.000	0.054	0.266
-382.960	-200.000	-0.018	-0.239
-381.946	676.722	0.169	0.436
-380.931	33.298	-0.080	0.069
-379.917	-152.962	0.264	0.018
-378.902	128.247	-0.120	-0.151
-377.888	242.348	0.098	-0.162
-376.873	398.733	-0.025	0.053
-375.858	-88.008	0.068	0.020
-374.844	429.727	0.048	0.103
-373.829	-27.027	-0.320	0.185
-372.815	56.724	0.139	-0.134
-371.800	-55.604	-0.050	0.022
-370.785	800.000	0.095	0.331
-369.771	800.000	-0.130	0.444
-368.756	-200.000	-0.028	0.349
-367.742	132.814	-0.137	0.175
-366.727	-49.482	0.060	-0.028
-365.712	74.276	0.070	0.073
-364.698	-86.210	0.254	0.077
-363.683	99.426	-0.048	0.055
-362.669	133.060	-0.082	0.104
-361.654	15.197	0.120	0.093
-360.639	-200.000	-0.008	-0.082
-359.625	-144.496	0.305	-0.028
-358.610	212.639	0.149	0.232
-357.596	-66.985	0.262	-0.102
-356.581	0.057	0.223	-0.158
-355.566	597.119	-0.101	0.248
-354.552	-97.737	0.286	0.073
-353.537	310.500	-0.071	0.132
-352.523	-51.712	0.082	-0.038
-351.508	-66.034	0.133	-0.053
-350.493	-200.000	-0.061	-0.337
-349.479	-200.000	-0.034	0.302
-348.464	-134.145	-0.355	0.043
-347.450	800.000	-0.070	0.222
-346.435	-103.284	0.291	-0.068
-345.420	326.076	-0.206	-0.390
-344.406	-66.898	0.163	0.064
-343.391	-2.833	-0.068	0.047
-342.377	-138.581	-0.193	-0.021
-341.362	-59.174	-0.233	-0.100
-340.348	-37.710	0.104	0.055
-339.333	-89.484	-0.456	-0.133
-338.318	-145.574	0.155	0.014
-337.304	-200.000	-0.003	-0.156
-336.289	-106.230	0.307	0.068
-335.275	-48.601	-0.311	-0.148
-334.260	-35.060	-0.078	0.042
-333.245	39.407	-0.096	-0.085
-332.231	-66.108	-0.216	-0.085
-331.216	800.000	0.085	0.321
-330.202	461.862	0.092	-0.203
-329.187	-71.262	-0.162	0.060
-328.172	463.769	0.050	-0.111
-327.158	-200.000	0.003	0.023
-326.143	-52.140	-0.062	-0.028
-325.129	-7.837	-0.170	-0.113
-324.114	155.126	-0.206	-0.280
-323.099	-82.159	-0.334	-0.108
-322.085	-18.012	0.124	-0.077
-321.070	188.884	0.059	-0.087
-320.056	-60.845	-0.154	0.064
-319.041	-13.869	0.202	-0.129
-318.026	-200.000	-0.003	0.239
-317.012	-185.019	0.208	-0.003
-315.997	77.988	0.267	-0.282
-314.983	-73.223	-0.168	0.061
-313.968	800.000	-0.102	0.347
-312.953	354.935	0.102	-0.200
-311.939	-20.272	-0.209	0.127
-310.924	-200.000	-0.043	0.283
-309.910	376.769	0.089	0.180
-308.895	695.647	-0.041	-0.105
-307.880	674.174	-0.226	0.580
-306.866	-96.701	-0.211	-0.055
-305.851	37.412	0.311	0.272
-304.837	-96.067	0.414	0.109
-303.822	-141.220	-0.409	-0.041
-302.807	-90.730	0.373	0.106
-301.793	-200.000	0.023	0.246
-300.778	21.863	0.254	-0.205
-299.764	20.197	0.113	0.090
-298.749	252.100	0.166	-0.279
-297.735	-200.000	0.023	-0.249
-296.720	-153.514	-0.020	0.001
-295.705	-193.301	-0.233	0.002
-294.691	79.095	0.122	-0.129
-293.676	284.262	-0.165	-0.293
-292.662	-65.534	-0.092	-0.036
-291.647	-164.810	-0.098	-0.004
-290.632	52.751	-0.233	-0.220
-289.618	583.469	-0.102	-0.248
-288.603	27.688	0.050	-0.041
-287.589	800.000	-0.021	0.087
-286.574	-200.000	0.004	0.339
-285.559	-26.573	-0.327	-0.189
-284.545	-200.000	0.012	-0.130
-283.530	-78.646	0.210	0.071
-282.516	-16.444	-0.251	-0.157
-281.501	60.974	0.242	0.237
-280.486	-80.380	-0.047	0.015
-279.472	-200.000	0.033	-0.177
-278.457	-92.295	-0.166	-0.046
-277.443	-200.000	-0.038	0.318
-276.428	-115.766	0.105	0.019
-275.413	-175.342	-0.075	0.002
-274.399	-200.000	-0.001	0.078
-273.384	242.444	-0.164	-0.270
-272.370	-103.120	0.361	-0.084
-271.355	800.000	0.056	-0.159
-270.340	109.044	0.196	-0.232
-269.326	-26.847	0.132	0.076
-268.311	346.440	-0.215	-0.417
-267.297	165.647	0.138	-0.193
-266.282	-200.000	0.028	-0.331
-265.267	-132.039	0.101	0.013
-264.253	-200.000	-0.014	-0.088
-263.238	367.867	-0.157	-0.313
-262.224	120.413	-0.166	-0.203
-261.209	800.000	0.042	-0.177
-260.195	43.773	0.061	0.055
-259.180	395.612	-0.113	-0.232
-258.165	106.202	0.184	-0.216
-257.151	-35.562	-0.232	-0.124
-256.136	-92.863	-0.151	0.042
-255.122	-175.629	-0.109	0.003
-254.107	236.922	-0.021	-0.035
-253.092	576.815	-0.150	0.362
-252.078	-125.099	-0.126	0.019
-251.063	15.537	0.271	0.210
-250.049	-200.000	-0.024	0.300
-249.034	-60.571	-0.207	0.087
-248.019	42.903	0.302	-0.271
-247.005	-31.188	0.240	-0.133
-245.990	186.335	-0.171	-0.251
-244.976	-200.000	0.028	-0.173
-243.961	73.083	0.339	0.350
-242.946	10.048	-0.238	-0.178
-241.932	124.008	0.048	0.060
-240.917	-200.000	-0.054	-0.252
-239.903	52.463	-0.151	0.142
-238.888	-51.581	0.102	0.047
-237.873	-200.000	0.048	0.250
-236.859	-200.000	-0.009	0.080
-235.844	-58.673	0.223	0.095
-234.830	47.027	0.257	-0.236
-233.815	152.974	-0.247	-0.333
-232.800	602.914	0.078	-0.190
-231.786	295.549	0.051	-0.092
-230.771	-21.921	-0.127	0.076
-229.757	-98.951	0.232	0.058
-228.742	-53.218	-0.168	0.076
-227.727	-30.750	0.394	-0.220
-226.713	-128.448	-0.201	0.028
-225.698	-200.000	0.018	-0.380
-224.684	472.585	-0.120	-0.266
-223.669	212.127	-0.044	-0.068
-222.655	-119.643	-0.281	0.048
-221.640	-160.822	0.346	0.018
-220.625	-107.982	-0.034	0.007
-219.611	43.880	-0.085	0.077
-218.596	125.053	-0.206	0.255
-217.582	-200.000	0.012	0.290
-216.567	24.356	0.243	-0.198
-215.552	800.000	-0.023	-0.098
-214.538	-103.728	0.294	0.068
-213.523	-42.616	-0.171	0.086
-212.509	-200.000	0.243	0.001
-211.494	43.028	-0.287	0.258
-210.479	800.000	0.056	-0.161
-209.465	76.946	0.238	0.249
-208.450	-200.000	0.009	-0.058
-207.436	85.089	0.146	-0.158
-206.421	120.672	0.080	-0.098
-205.406	61.487	0.123	-0.121
-204.392	-120.369	-0.047	0.008
-203.377	71.391	-0.286	0.292
-202.363	800.000	0.082	0.285
-201.348	-174.343	-0.134	-0.004
-200.333	445.432	0.169	0.366
-199.319	-181.873	-0.215	0.004
-198.304	48.164	0.366	-0.337
-197.290	-149.058	0.196	0.015
-196.275	293.847	0.125	0.225
-195.260	38.814	-0.214	0.188
-194.246	-200.000	0.006	0.249
-193.231	-200.000	0.015	0.237
-192.217	800.000	-0.050	0.156
-191.202	204.470	-0.142	-0.217
-190.187	-0.132	0.290	0.203
-189.173	2.169	0.165	0.117
-188.158	159.371	-0.127	-0.174
-187.144	306.424	-0.041	0.076
-186.129	800.000	0.050	0.161
-185.114	737.587	0.073	-0.192
-184.100	-200.000	-0.048	-0.273
-183.085	108.126	0.362	-0.424
-182.071	-78.234	-0.109	-0.037
-181.056	425.172	0.087	-0.184
-180.042	-179.435	-0.258	0.006
-179.027	-200.000	-0.044	0.273
-178.012	46.350	-0.078	-0.071
-176.998	697.594	0.128	0.331
-175.983	96.281	0.022	0.025
-174.969	-200.000	-0.034	-0.238
-173.954	800.000	-0.081	0.247
-172.939	-50.436	0.258	-0.120
-171.925	-106.006	-0.039	0.009
-170.910	50.034	0.200	-0.186
-169.896	-122.634	0.280	-0.045
-168.881	-144.179	-0.126	-0.012
-167.866	241.547	-0.111	0.182
-166.852	-196.265	-0.509	0.003
-165.837	-130.181	0.317	-0.043
-164.823	-200.000	-0.004	-0.148
-163.808	31.530	-0.105	-0.089
-162.793	463.788	-0.004	0.008
-161.779	395.849	0.134	0.274
-160.764	-200.000	-0.117	0.518
-159.750	-200.000	-0.087	0.425
-158.735	-200.000	-0.041	-0.252
-157.720	-200.000	-0.028	0.156
-156.706	-146.236	0.084	-0.007
-155.691	116.615	-0.369	-0.444
-154.677	800.000	-0.063	-0.232
-153.662	-200.000	0.087	0.440
-152.647	-29.885	0.143	-0.080
-151.633	-62.765	-0.165	0.067
-150.618	208.067	-0.292	0.448
-149.604	-200.000	0.065	-0.345
-148.589	207.814	-0.237	-0.363
-147.574	79.557	-0.180	0.190
-146.560	594.228	0.050	0.120
-145.545	556.057	-0.214	0.507
-144.531	9.636	0.205	0.153
-143.516	-188.910	-0.117	-0.001
-142.502	-56.908	0.271	-0.117
-141.487	800.000	-0.195	-0.686
-140.472	-87.933	0.125	-0.037
-139.458	-200.000	0.034	0.381
-138.443	-143.864	-0.066	0.006
-137.429	-174.649	0.130	-0.004
-136.414	24.280	-0.140	-0.114
-135.399	184.240	-0.186	-0.270
-134.385	800.000	0.034	0.103
-133.370	-9.521	0.337	0.221
-132.356	-111.163	0.392	-0.079
-131.341	167.980	-0.142	-0.199
-130.326	-29.208	0.252	-0.142
-129.312	-107.238	0.202	0.044
-128.297	93.541	-0.090	-0.100
-127.283	72.948	0.154	0.158
-126.268	485.721	0.133	0.296
-125.253	174.569	0.115	-0.164
-124.239	-102.460	0.128	-0.030
-123.224	-200.000	-0.007	-0.169
-122.210	800.000	-0.107	-0.438
-121.195	-185.515	0.312	-0.005
-120.180	343.104	0.150	0.288
-119.166	-200.000	-0.031	-0.171
-118.151	2.243	0.181	-0.128
-117.137	800.000	0.054	0.181
-116.122	25.955	-0.123	0.101
-115.107	137.541	-0.062	-0.079
-114.093	118.995	-0.217	-0.264
-113.078	-200.000	-0.003	0.063
-112.064	275.633	-0.148	-0.258
-111.049	800.000	-0.153	-0.438
-110.034	16.024	-0.120	0.093
-109.020	-112.897	0.178	0.035
-108.005	5.878	0.168	0.122
-106.991	-126.652	-0.074	0.011
-105.976	-4.495	0.133	0.090
-104.962	-200.000	-0.022	0.096
-103.947	800.000	-0.046	-0.190
-102.932	310.829	-0.138	-0.254
-101.918	800.000	0.134	-0.393
-100.903	-122.880	0.345	-0.055
-99.889	-108.948	0.368	-0.077
-98.874	800.000	-0.033	0.113
-97.859	415.417	0.123	0.257
-96.845	-147.761	-0.165	-0.014
-95.830	-99.277	-0.167	0.041
-94.816	498.388	0.167	-0.378
-93.801	-152.842	0.115	-0.008
-92.786	-181.495	-0.236	-0.005
-91.772	-70.922	-0.066	0.024
-90.757	-28.173	-0.199	0.113
-89.743	-165.243	0.354	0.015
-88.728	182.935	-0.277	0.401
-87.713	268.295	-0.065	0.111
-86.699	-123.808	0.203	-0.031
-85.684	-147.635	0.332	0.027
-84.670	132.167	0.207	-0.261
-83.655	-46.067	-0.245	-0.118
-82.640	127.351	0.217	0.270
-81.626	147.122	0.124	-0.164
-80.611	-38.977	0.059	-0.030
-79.597	1.326	0.021	0.015
-78.582	82.814	0.138	0.147
-77.567	441.334	-0.115	0.246
-76.553	-16.033	0.305	-0.190
-75.538	-91.169	-0.243	0.068
-74.524	-62.499	-0.181	-0.074
-73.509	-111.471	-0.147	0.029
-72.494	246.231	0.157	0.260
-71.480	-106.112	-0.249	0.055
-70.465	623.740	0.118	-0.292
-69.451	289.013	0.119	0.212
-68.436	-144.413	0.391	-0.036
-67.422	179.468	-0.174	0.250
-66.407	62.990	0.080	0.078
-65.392	141.594	0.112	-0.146
-64.378	572.894	0.100	0.238
-63.363	-200.000	-0.005	0.050
-62.349	-179.944	-0.281	0.006
-61.334	107.634	-1.042	-1.215
-60.319	190.610	0.248	0.365
-59.305	-200.000	-0.091	-0.776
-58.290	199.559	0.666	1.000
-57.276	733.507	0.607	1.590
-56.261	-200.000	105.349	595.235
-55.246	471.293	1460.883	3217.441
-54.232	151.035	2640.259	3515.317
-53.217	103.681	2276.814	2616.893
-52.203	40.748	1896.812	1674.204
-51.188	34.921	1690.098	1447.742
-50.173	32.188	1647.535	1391.031
-49.159	50.579	1699.162	1573.312
-48.144	51.740	1714.784	1596.433
-47.130	34.327	1673.692	1429.010
-46.115	31.724	1659.032	1397.056
-45.100	31.471	1654.798	1391.548
-44.086	31.502	1652.140	1389.490
-43.071	31.441	1649.970	1387.156
-42.057	31.441	1647.196	1384.768
-41.042	31.538	1644.919	1383.523
-40.027	31.440	1643.338	1381.407
-39.013	31.396	1641.479	1379.472
-37.998	31.400	1640.050	1378.245
-36.984	31.396	1638.966	1377.249
-35.969	31.477	1637.390	1376.464
-34.954	31.572	1635.544	1375.559
-33.940	31.516	1633.593	1373.448
-32.925	31.446	1632.312	1371.807
-31.911	31.460	1630.920	1370.684
-30.896	31.577	1628.271	1369.256
-29.881	31.501	1627.607	1368.090
-28.867	31.599	1625.742	1367.187
-27.852	31.577	1624.020	1365.524
-26.838	31.504	1622.891	1363.989
-25.823	31.593	1621.566	1363.464
-24.809	31.531	1620.394	1361.973
-23.794	31.479	1618.869	1360.260
-22.779	31.576	1617.241	1359.543
-21.765	31.488	1615.632	1357.497
-20.750	31.478	1614.072	1356.061
-19.736	31.581	1612.341	1355.302
-18.721	31.612	1610.776	1354.153
-17.706	31.511	1609.379	1352.196
-16.692	31.623	1607.715	1351.550
-15.677	31.460	1607.298	1349.974
-14.663	31.582	1605.383	1349.191
-13.648	31.504	1604.404	1347.753
-12.633	31.511	1602.288	1345.971
-11.619	31.485	1601.076	1344.713
-10.604	31.481	1600.032	1343.755
-9.590	31.605	1598.410	1343.230
-8.575	31.599	1596.977	1341.928
-7.560	31.514	1596.231	1340.639
-6.546	31.551	1594.594	1339.472
-5.531	31.593	1593.696	1338.965
-4.517	31.524	1592.991	1337.826
-3.502	31.532	1591.455	1336.542
-2.487	31.595	1589.108	1334.971
-1.473	30.892	1576.666	1319.490
-0.458	26.627	1554.265	1270.834
0.556	19.953	1552.979	1226.434
1.571	16.836	1574.660	1221.022
2.586	16.065	1586.670	1224.624
3.600	14.586	1534.864	1174.134
4.615	8.336	1429.388	1052.275
5.629	1.727	1366.501	964.146
6.644	0.322	1358.312	949.438
7.659	0.230	1356.992	947.850
8.673	0.159	1356.256	946.809
9.688	0.149	1354.028	945.109
10.702	0.018	1351.316	942.310
11.717	3.052	1355.792	964.398
12.731	10.626	1367.445	1020.377
13.746	16.199	1375.097	1061.138
14.761	17.132	1374.845	1066.712
15.775	16.306	1373.256	1060.200
16.790	15.206	1370.457	1051.053
17.804	14.523	1368.129	1044.892
18.819	14.128	1367.537	1041.879
19.834	13.847	1365.142	1038.200
20.848	13.577	1364.363	1035.832
21.863	13.353	1363.285	1033.521
22.877	13.227	1361.684	1031.430
23.892	13.172	1360.630	1030.194
24.907	13.220	1359.682	1029.687
25.921	13.278	1358.678	1029.195
26.936	13.201	1358.442	1028.450
27.950	13.300	1357.324	1028.125
28.965	13.337	1356.560	1027.688
29.980	13.406	1355.121	1026.934
30.994	13.452	1354.536	1026.686
32.009	13.483	1353.401	1025.925
33.023	13.534	1351.962	1025.060
34.038	13.384	1351.451	1023.655
35.053	13.327	1350.253	1022.301
36.067	13.372	1349.302	1021.769
37.082	13.321	1348.519	1020.775
38.096	13.397	1347.436	1020.331
39.111	13.505	1346.388	1020.112
40.126	13.340	1345.689	1018.474
41.140	13.239	1344.784	1017.079
42.155	13.191	1344.705	1016.634
43.169	13.150	1344.077	1015.816
44.184	13.149	1344.291	1015.880
45.199	13.202	1343.502	1015.525
46.213	13.260	1342.520	1015.044
47.228	13.401	1341.864	1015.325
48.242	13.239	1340.973	1013.569
49.257	13.312	1339.310	1012.667
50.271	13.368	1337.978	1011.918
51.286	13.323	1336.755	1010.627
52.301	13.257	1335.437	1009.139
53.315	13.268	1334.358	1008.299
54.330	13.255	1333.840	1007.737
55.344	13.242	1332.381	1006.471
56.359	13.150	1331.533	1005.181
57.374	13.218	1330.349	1004.608
58.388	13.123	1329.585	1003.369
59.403	13.076	1329.785	1003.143
60.417	13.155	1328.241	1002.372
61.432	13.143	1327.358	1001.541
62.447	12.954	1326.575	999.720
63.461	13.053	1324.943	998.998
64.476	13.080	1324.322	998.607
65.490	13.079	1322.726	997.309
66.505	13.078	1321.092	995.980
67.520	13.129	1320.025	995.393
68.534	13.207	1318.856	994.896
69.549	13.186	1318.075	994.092
70.563	13.161	1316.989	993.036
71.578	13.106	1315.522	991.510
72.593	13.053	1315.155	990.831
73.607	12.989	1314.140	989.589
74.622	13.078	1313.228	989.353
75.636	12.988	1312.415	988.113
76.651	13.094	1311.644	988.079
77.666	13.073	1310.962	987.353
78.680	13.053	1310.966	987.148
79.695	13.085	1309.596	986.218
80.709	13.175	1308.986	986.213
81.724	13.177	1307.943	985.347
82.739	13.294	1307.012	985.260
83.753	13.182	1306.775	984.325
84.768	13.244	1305.620	983.734
85.782	13.310	1303.855	982.711
86.797	13.298	1302.837	981.789
87.812	13.278	1301.637	980.675
88.826	13.253	1300.506	979.588
89.841	13.308	1299.177	978.830
90.855	13.224	1299.169	978.236
91.870	13.362	1297.885	977.999
92.884	13.239	1297.088	976.585
93.899	13.364	1296.054	976.457
94.914	13.308	1295.497	975.620
95.928	13.507	1293.821	975.449
96.943	13.351	1293.504	974.204
97.957	13.311	1292.428	973.072
98.972	13.377	1291.622	972.766
99.987	13.300	1290.748	971.571
101.001	13.342	1289.708	970.948
102.016	13.378	1288.441	970.117
103.030	13.399	1287.556	969.490
104.045	13.319	1287.125	968.608
105.060	13.313	1285.614	967.351
106.074	13.252	1284.447	966.034
107.089	13.130	1283.173	964.279
108.103	13.135	1281.889	963.255
109.118	13.126	1280.870	962.353
110.133	13.195	1279.266	961.464
111.147	13.184	1278.141	960.471
112.162	13.202	1276.791	959.476
113.176	13.249	1275.610	958.772
114.191	13.189	1274.857	957.773
115.206	13.211	1273.914	957.110
116.220	13.228	1272.678	956.194
117.235	13.225	1271.311	955.069
118.249	13.256	1270.262	954.374
119.264	13.218	1269.378	953.405
120.279	13.262	1268.314	952.774
121.293	13.135	1267.161	951.091
122.308	13.155	1266.279	950.460
123.322	13.155	1265.319	949.656
124.337	13.167	1264.428	948.973
125.352	13.239	1262.740	948.035
126.366	13.160	1261.891	946.864
127.381	13.153	1261.181	946.204
128.395	13.231	1259.808	945.538
129.410	13.335	1258.422	945.007
130.424	13.234	1258.236	944.206
131.439	13.261	1256.941	943.307
132.454	13.252	1256.043	942.498
133.468	13.236	1255.786	942.128
134.483	13.254	1254.670	941.313
135.497	13.268	1253.449	940.393
136.512	13.348	1251.804	939.532
137.527	13.271	1250.447	937.991
138.541	13.306	1249.389	937.310
139.556	13.258	1247.972	935.897
140.570	13.239	1247.533	935.373
141.585	13.383	1245.491	934.574
142.600	13.380	1244.433	933.681
143.614	13.323	1244.322	933.196
144.629	13.385	1243.181	932.606
145.643	13.403	1241.776	931.568
146.658	13.412	1240.275	930.414
147.673	13.415	1239.057	929.434
148.687	13.462	1237.671	928.574
149.702	13.224	1236.812	926.513
150.716	13.405	1235.242	926.270
151.731	13.307	1234.328	924.954
152.746	13.437	1232.820	924.471
153.760	13.394	1232.149	923.641
154.775	13.434	1230.922	922.864
155.789	13.495	1229.927	922.379
156.804	13.500	1229.069	921.680
157.819	13.472	1227.783	920.480
158.833	13.520	1226.741	919.881
159.848	13.584	1225.938	919.553
160.862	13.609	1224.471	918.510
161.877	13.522	1224.110	917.674
162.892	13.430	1223.227	916.425
163.906	13.457	1221.895	915.494
164.921	13.539	1221.222	915.364
165.935	13.561	1220.186	914.625
166.950	13.535	1219.193	913.657
167.964	13.673	1218.340	913.696
168.979	13.656	1217.521	912.912
169.994	13.486	1217.383	911.790
171.008	13.670	1216.125	911.779
172.023	13.609	1215.590	910.964
173.037	13.659	1214.882	910.626
174.052	13.645	1213.608	909.510
175.067	13.597	1212.645	908.449
176.081	13.598	1211.682	907.649
177.096	13.612	1210.827	907.005
178.110	13.569	1209.925	906.017
179.125	13.561	1209.075	905.258
180.140	13.675	1207.430	904.564
181.154	13.709	1206.037	903.627
182.169	13.735	1205.196	903.057
183.183	13.680	1204.160	901.903
184.198	13.713	1203.003	901.137
185.213	13.687	1201.997	900.160
186.227	13.731	1200.721	899.365
187.242	13.812	1199.717	898.975
188.256	13.911	1198.379	898.425
189.271	13.910	1197.861	897.953
190.286	13.726	1196.885	896.149
191.300	13.628	1196.018	894.890
192.315	13.736	1195.034	894.659
193.329	13.620	1194.932	893.877
194.344	13.689	1194.065	893.520
195.359	13.745	1193.080	893.005
196.373	13.756	1192.992	892.921
197.388	13.831	1192.530	892.900
198.402	13.946	1191.625	892.761
199.417	13.995	1190.932	892.428
200.432	14.122	1189.975	892.308
201.446	14.032	1189.505	891.395
202.461	13.933	1188.326	889.901
203.475	14.050	1187.385	889.747
204.490	14.005	1185.973	888.370
205.504	13.993	1185.409	887.804
206.519	13.978	1183.786	886.430
207.534	14.025	1182.501	885.642
208.548	14.054	1181.705	885.118
209.563	14.001	1181.480	884.588
210.577	14.076	1179.761	883.625
211.592	14.122	1179.385	883.510
212.607	14.157	1178.081	882.640
213.621	14.132	1177.652	882.106
214.636	14.167	1176.433	881.299
215.650	14.110	1175.902	880.523
216.665	14.191	1174.888	880.118
217.680	14.267	1173.962	879.747
218.694	14.194	1173.327	878.808
219.709	14.279	1172.639	878.660
220.723	14.348	1171.812	878.331
221.738	14.250	1171.052	877.162
222.753	14.369	1170.639	877.406
223.767	14.303	1169.515	876.134
224.782	14.264	1169.050	875.507
225.796	14.396	1168.538	875.738
226.811	14.356	1167.787	874.889
227.826	14.431	1167.234	874.790
228.840	14.322	1166.237	873.394
229.855	14.305	1165.557	872.717
230.869	14.427	1164.474	872.472
231.884	14.348	1163.922	871.567
232.899	14.398	1162.876	870.967
233.913	14.367	1162.160	870.189
234.928	14.389	1161.814	869.970
235.942	14.337	1160.768	868.840
236.957	14.309	1160.442	868.373
237.972	14.365	1159.222	867.674
238.986	14.361	1159.020	867.424
240.001	14.429	1157.480	866.546
241.015	14.410	1156.878	865.925
242.030	14.348	1156.211	865.025
243.045	14.532	1155.468	865.348
244.059	14.414	1154.908	864.237
245.074	14.482	1154.345	864.093
246.088	14.528	1153.277	863.458
247.103	14.592	1152.323	862.999
248.117	14.619	1151.473	862.423
249.132	14.554	1151.156	861.772
250.147	14.668	1150.467	861.771
251.161	14.771	1149.073	861.180
252.176	14.832	1148.881	861.276
253.190	14.831	1148.280	860.743
254.205	14.865	1147.582	860.318
255.220	14.868	1147.083	859.885
256.234	14.816	1146.546	859.140
257.249	14.872	1145.821	858.806
258.263	14.910	1145.108	858.390
259.278	14.870	1145.040	858.058
260.293	14.943	1144.066	857.627
261.307	14.943	1143.699	857.277
262.322	14.987	1142.731	856.699
263.336	14.953	1141.804	855.755
264.351	14.952	1141.464	855.422
265.366	15.112	1140.667	855.563
266.380	15.023	1140.557	854.951
267.395	14.992	1139.062	853.597
268.409	15.087	1137.954	853.175
269.424	15.012	1138.188	852.892
270.439	15.107	1136.943	852.367
271.453	15.050	1136.566	851.719
272.468	15.000	1135.431	850.537
273.482	14.953	1135.173	850.033
274.497	14.937	1134.742	849.555
275.512	15.018	1134.044	849.366
276.526	15.033	1133.331	848.831
277.541	14.997	1132.448	847.913
278.555	15.174	1131.337	847.904
279.570	15.199	1130.701	847.480
280.585	15.197	1130.019	846.882
281.599	15.299	1129.077	846.615
282.614	15.218	1128.219	845.489
283.628	15.266	1126.708	844.521
284.643	15.282	1126.080	844.059
285.657	15.211	1125.499	843.192
286.672	15.213	1124.201	842.156
287.687	15.318	1123.225	841.877
288.701	15.270	1122.913	841.328
289.716	15.290	1122.177	840.804
290.730	15.301	1121.687	840.417
291.745	15.313	1120.602	839.588
292.760	15.351	1119.910	839.183
293.774	15.381	1119.371	838.856
294.789	15.534	1118.888	839.185
295.803	15.414	1118.339	838.098
296.818	15.382	1117.711	837.397
297.833	15.367	1116.545	836.371
298.847	15.396	1115.910	835.970
299.862	15.442	1114.843	835.323
300.876	15.420	1114.685	835.020
301.891	15.436	1113.910	834.448
302.906	15.488	1113.097	834.024
303.920	15.566	1112.548	833.926
304.935	15.585	1111.808	833.389
305.949	15.625	1111.264	833.107
306.964	15.588	1110.832	832.524
307.979	15.616	1109.948	831.928
308.993	15.691	1108.630	831.236
310.008	15.704	1108.041	830.789
311.022	15.793	1107.198	830.521
312.037	15.801	1106.322	829.831
313.052	15.604	1105.868	828.447
314.066	15.718	1104.961	828.253
315.081	15.628	1104.069	827.067
316.095	15.704	1103.239	826.748
317.110	15.678	1102.375	825.896
318.125	15.579	1101.772	824.890
319.139	15.588	1101.030	824.302
320.154	15.678	1100.545	824.309
321.168	15.641	1100.080	823.706
322.183	15.763	1099.202	823.575
323.197	15.767	1098.716	823.155
324.212	15.754	1098.436	822.812
325.227	15.763	1097.650	822.194
326.241	15.835	1096.991	821.977
327.256	15.804	1096.236	821.186
328.270	15.799	1095.131	820.265
329.285	15.882	1094.069	819.799
330.300	15.809	1093.511	818.955
331.314	15.902	1092.308	818.432
332.329	15.852	1091.932	817.836
333.343	15.790	1090.885	816.679
334.358	15.940	1089.784	816.509
335.373	15.901	1089.569	816.088
336.387	15.974	1088.492	815.560
337.402	15.968	1087.974	815.070
338.416	16.091	1086.989	814.854
339.431	16.082	1086.551	814.411
340.446	16.010	1086.214	813.738
341.460	16.153	1085.412	813.759
342.475	16.147	1084.469	812.950
343.489	16.121	1083.432	811.973
344.504	16.279	1082.644	812.070
345.519	16.257	1081.904	811.339
346.533	16.197	1080.835	810.179
347.548	16.303	1080.428	810.311
348.562	16.345	1079.805	809.973
349.577	16.239	1078.889	808.703
350.592	16.191	1078.321	807.978
351.606	16.103	1077.722	807.038
352.621	16.102	1076.963	806.392
353.635	16.146	1076.429	806.129
354.650	16.225	1075.553	805.782
355.665	16.270	1074.712	805.293
356.679	16.205	1074.150	804.490
357.694	16.297	1073.606	804.450
358.708	16.380	1072.944	804.282
359.723	16.372	1072.372	803.742
360.738	16.353	1071.714	803.086
361.752	16.328	1071.182	802.500
362.767	16.387	1070.638	802.300
363.781	16.381	1069.993	801.718
364.796	16.330	1069.689	801.177
365.810	16.437	1069.075	801.154
366.825	16.540	1068.391	801.057
367.840	16.508	1067.885	800.456
368.854	16.603	1067.025	800.190
369.869	16.711	1065.914	799.797
370.883	16.635	1065.171	798.809
371.898	16.693	1064.709	798.665
372.913	16.566	1064.017	797.475
373.927	16.588	1063.957	797.466
374.942	16.725	1062.472	796.924
375.956	16.594	1062.686	796.398
376.971	16.768	1061.840	796.514
377.986	16.634	1062.054	795.972
379.000	16.635	1061.245	795.303
380.015	16.800	1060.453	795.411
381.029	16.791	1059.711	794.744
382.044	16.853	1058.915	794.367
383.059	16.798	1058.763	793.926
384.073	16.679	1057.670	792.475
385.088	16.793	1056.678	792.199
386.102	16.773	1055.795	791.371
387.117	16.873	1054.776	791.005
388.132	16.816	1053.944	790.043
389.146	16.812	1053.429	789.570
390.161	16.809	1052.845	789.049
391.175	16.728	1052.130	788.065
392.190	16.850	1051.107	787.797
393.205	16.850	1050.469	787.250
394.219	16.865	1049.872	786.800
395.234	16.874	1048.922	786.060
396.248	16.825	1048.054	785.114
397.263	17.035	1046.414	784.789
398.278	16.882	1046.105	783.778
399.292	16.967	1045.690	783.793
400.307	16.919	1044.950	782.948
401.321	16.911	1044.233	782.302
402.336	16.894	1043.638	781.707
403.350	16.941	1042.727	781.173
404.365	16.925	1042.180	780.624
405.380	16.949	1041.665	780.277
406.394	16.946	1040.854	779.585
407.409	17.052	1039.930	779.312
408.423	17.150	1038.921	778.938
409.438	17.061	1038.528	778.164
410.453	17.176	1037.661	777.975
411.467	17.138	1037.094	777.304
412.482	17.273	1036.713	777.569
413.496	17.334	1035.827	777.114
414.511	17.304	1035.423	776.607
415.526	17.257	1035.170	776.132
416.540	17.402	1034.395	776.144
417.555	17.360	1033.588	775.278
418.569	17.297	1033.204	774.634
419.584	17.312	1033.068	774.532
420.599	17.435	1032.331	774.470
421.613	104.008	1321.737	1467.326
422.628	95.262	1363.890	1467.432
