DTS Sentinel unit serial number:	SN413079Multiplexer serial number:	ORYXHardware model number:	OX4-SRSoftware version number:	ORYX F/W v4.00 Oryx Data Collector v3.7.2.0data status	okinstallation	princeton_trtdifferential loss correction	single-endedforward channel	channel 2reverse channel	N/Adate	2019/09/10time	19:53:11forward acquisition time	60.00reverse acquisition time	0.00gamma	496.2192k internal	0.2328k external	0.2328temperature offset calibration	0.9945default loss term (dB/km)	0.3790temperature slope calibration	1.0000multiplexer offset coefficient	1.0000multiplexer slope coefficient	1.0000fibre end	0.00T internal ref (°C)	32.81T ext. ref 1 (°C)	-0.31T ext. ref 2 (°C)	25.70length (m)	temperature (°C)	Stokes	anti-Stokes-747.200	72.316	-0.130	-0.137
-746.185	-69.093	-0.135	0.052
-745.171	39.779	-0.276	0.250
-744.156	50.891	-0.136	-0.130
-743.142	-34.358	0.152	0.084
-742.127	-122.677	-0.128	0.021
-741.112	-53.910	0.346	-0.159
-740.098	152.161	-0.127	-0.175
-739.083	-200.000	-0.013	0.096
-738.069	289.371	0.066	0.120
-737.054	800.000	-0.043	0.126
-736.039	-7.439	0.068	0.046
-735.025	-6.897	0.139	-0.095
-734.010	-200.000	0.032	-0.193
-732.996	-14.517	-0.223	0.144
-731.981	-155.298	-0.190	0.012
-730.966	-200.000	0.015	0.168
-729.952	-16.168	0.131	0.084
-728.937	121.642	-0.111	-0.139
-727.923	-200.000	-0.017	0.147
-726.908	-200.000	-0.012	-0.182
-725.894	-34.275	-0.241	0.133
-724.879	-176.407	0.023	-0.001
-723.864	19.990	0.117	-0.095
-722.850	-62.838	0.154	0.064
-721.835	-7.437	0.176	-0.120
-720.821	-200.000	0.116	-0.558
-719.806	-30.938	0.098	0.056
-718.791	28.918	0.084	0.072
-717.777	-155.776	-0.143	0.009
-716.762	-134.034	-0.361	-0.045
-715.748	-110.983	0.216	0.045
-714.733	12.954	-0.230	-0.179
-713.718	-6.201	-0.331	0.227
-712.704	-127.496	-0.197	0.029
-711.689	-4.134	0.181	0.126
-710.675	800.000	-0.094	-0.319
-709.660	-47.449	-0.401	0.196
-708.645	325.322	-0.043	0.083
-707.631	-200.000	-0.020	-0.092
-706.616	-32.381	-0.262	-0.147
-705.602	40.570	0.279	0.253
-704.587	280.074	0.030	0.053
-703.572	800.000	0.065	0.241
-702.558	414.032	0.127	-0.271
-701.543	134.641	0.116	-0.152
-700.529	800.000	0.081	-0.314
-699.514	-200.000	0.029	-0.185
-698.499	-83.032	-0.070	-0.023
-697.485	-133.787	-0.265	0.033
-696.470	163.855	-0.155	-0.220
-695.456	-91.120	-0.124	-0.036
-694.441	352.580	0.163	-0.325
-693.426	800.000	-0.046	0.137
-692.412	-118.809	0.189	-0.034
-691.397	-200.000	0.009	-0.102
-690.383	800.000	-0.056	0.184
-689.368	-200.000	0.023	-0.220
-688.354	-76.672	-0.334	-0.118
-687.339	256.017	-0.090	0.155
-686.324	72.395	0.101	-0.106
-685.310	548.900	-0.131	0.316
-684.295	-8.845	0.066	0.044
-683.281	-47.911	-0.303	0.147
-682.266	11.343	0.118	-0.091
-681.251	57.607	0.256	0.252
-680.237	-64.423	0.354	0.145
-679.222	-20.653	-0.238	-0.147
-678.208	800.000	-0.029	-0.091
-677.193	-200.000	0.019	-0.144
-676.178	-161.331	0.325	0.017
-675.164	-43.358	-0.116	-0.059
-674.149	-99.058	-0.191	-0.049
-673.135	-125.443	-0.468	-0.072
-672.120	-63.873	0.409	0.168
-671.105	-86.880	-0.182	0.056
-670.091	-27.359	-0.138	0.081
-669.076	25.408	-0.238	0.199
-668.062	170.278	0.296	-0.425
-667.047	182.887	0.138	0.205
-666.032	800.000	0.020	-0.068
-665.018	-200.000	0.004	0.279
-664.003	800.000	0.118	-0.413
-662.989	377.415	0.069	-0.141
-661.974	140.752	-0.155	0.206
-660.959	800.000	-0.128	0.369
-659.945	413.704	-0.125	0.268
-658.930	-159.344	0.108	0.006
-657.916	-131.826	-0.067	-0.009
-656.901	-200.000	0.034	0.154
-655.886	-200.000	0.015	-0.283
-654.872	-0.685	0.235	0.167
-653.857	217.430	-0.183	0.292
-652.843	-96.803	0.143	-0.038
-651.828	85.945	0.134	-0.148
-650.814	84.929	-0.081	0.089
-649.799	104.184	-0.246	0.290
-648.784	-70.900	-0.336	-0.127
-647.770	-25.872	-0.065	0.038
-646.755	-200.000	0.045	-0.370
-645.741	-66.777	-0.241	-0.096
-644.726	-100.243	0.141	0.035
-643.711	3.334	0.121	0.089
-642.697	-24.007	0.342	-0.205
-641.682	-200.000	0.045	-0.352
-640.668	-2.006	0.107	-0.075
-639.653	1.475	-0.171	-0.123
-638.638	-108.069	0.318	-0.069
-637.624	-130.926	-0.254	-0.034
-636.609	-200.000	0.270	0.001
-635.595	14.521	-0.252	-0.198
-634.580	-200.000	-0.006	-0.189
-633.565	-61.273	-0.227	0.096
-632.551	27.946	0.034	-0.029
-631.536	-33.798	-0.249	0.138
-630.522	-72.568	-0.384	-0.142
-629.507	333.530	0.065	-0.126
-628.492	-200.000	0.047	-0.279
-627.478	233.578	0.071	-0.118
-626.463	-61.064	-0.226	0.096
-625.449	-86.337	0.152	-0.047
-624.434	-69.412	0.228	0.088
-623.419	-50.614	0.079	-0.037
-622.405	70.090	-0.203	0.211
-621.390	34.995	0.077	-0.067
-620.376	110.821	-0.233	-0.281
-619.361	103.918	-0.065	0.076
-618.346	50.708	0.269	-0.256
-617.332	-200.000	-0.004	-0.440
-616.317	77.498	-0.121	-0.129
-615.303	-200.000	-0.015	-0.176
-614.288	-200.000	0.055	0.416
-613.273	462.403	-0.050	0.112
-612.259	800.000	0.045	-0.136
-611.244	23.941	-0.040	0.033
-610.230	418.122	0.040	0.085
-609.215	-200.000	0.040	-0.455
-608.201	-91.780	-0.187	0.053
-607.186	102.123	0.214	0.250
-606.171	800.000	-0.010	-0.034
-605.157	594.702	-0.024	-0.059
-604.142	-200.000	0.012	-0.108
-603.128	544.145	-0.070	-0.167
-602.113	-200.000	-0.053	-0.344
-601.098	-200.000	0.049	-0.462
-600.084	-106.173	-0.122	0.027
-599.069	-124.821	0.108	-0.017
-598.055	375.985	-0.029	-0.058
-597.040	12.213	-0.117	-0.091
-596.025	-29.721	0.418	0.239
-595.011	216.405	-0.270	0.430
-593.996	161.401	-0.174	-0.243
-592.982	800.000	0.011	-0.040
-591.967	-68.514	-0.304	-0.118
-590.952	-185.681	-0.069	-0.001
-589.938	18.631	-0.218	-0.175
-588.923	-148.476	0.421	0.035
-587.909	-7.546	0.178	-0.121
-586.894	800.000	-0.054	0.196
-585.879	800.000	0.088	0.279
-584.865	-159.249	0.045	-0.003
-583.850	-11.743	0.121	-0.079
-582.836	68.086	-0.172	-0.176
-581.821	-200.000	-0.008	0.330
-580.806	-200.000	-0.017	-0.202
-579.792	800.000	-0.046	-0.152
-578.777	800.000	-0.023	-0.097
-577.763	178.181	-0.100	0.145
-576.748	5.773	-0.125	-0.093
-575.733	-200.000	-0.012	-0.129
-574.719	800.000	0.079	-0.314
-573.704	137.345	-0.190	-0.249
-572.690	82.893	-0.111	0.120
-571.675	584.808	-0.064	0.157
-570.661	-141.404	-0.424	0.043
-569.646	-48.637	0.281	-0.135
-568.631	-9.716	0.250	-0.167
-567.617	-53.007	-0.115	0.053
-566.602	800.000	-0.060	-0.170
-565.588	-200.000	-0.033	0.183
-564.573	-12.422	-0.099	-0.065
-563.558	305.968	0.101	0.188
-562.544	-128.553	-0.194	0.027
-561.529	34.837	0.100	-0.087
-560.515	156.726	0.048	-0.066
-559.500	-22.758	0.125	-0.076
-558.485	-162.505	0.435	0.022
-557.471	-43.682	-0.231	0.117
-556.456	-147.479	-0.186	-0.016
-555.442	-134.832	-0.144	0.017
-554.427	161.649	-0.087	0.121
-553.412	63.987	-0.041	0.041
-552.398	178.101	0.213	-0.311
-551.383	-124.047	0.220	-0.035
-550.369	-177.117	-0.243	-0.006
-549.354	73.362	-0.018	0.019
-548.339	-73.674	-0.235	-0.086
-547.325	89.832	-0.310	0.347
-546.310	21.730	0.235	-0.191
-545.296	-200.000	-0.051	-0.393
-544.281	-1.874	0.207	0.145
-543.266	800.000	-0.085	-0.247
-542.252	399.155	-0.127	0.267
-541.237	-113.508	0.029	0.006
-540.223	800.000	0.085	0.313
-539.208	6.504	-0.213	-0.158
-538.193	419.018	0.089	-0.191
-537.179	25.398	0.094	0.078
-536.164	-190.535	0.302	0.003
-535.150	225.811	0.103	-0.167
-534.135	-200.000	0.013	-0.273
-533.121	72.284	-0.049	0.051
-532.106	-200.000	0.015	0.304
-531.091	-32.756	-0.284	-0.158
-530.077	204.261	0.116	-0.180
-529.062	31.549	0.110	-0.095
-528.048	35.181	-0.160	0.140
-527.033	-40.765	-0.053	0.027
-526.018	19.761	-0.396	-0.319
-525.004	800.000	-0.065	-0.227
-523.989	240.925	0.078	0.130
-522.975	-130.837	0.396	0.053
-521.960	191.936	0.232	-0.349
-520.945	58.749	-0.187	-0.184
-519.931	221.802	0.053	0.085
-518.916	-182.172	-0.047	0.001
-517.902	-55.680	-0.306	-0.137
-516.887	28.759	-0.181	0.153
-515.872	800.000	0.093	0.313
-514.858	800.000	-0.147	-0.438
-513.843	-200.000	0.027	-0.233
-512.829	-200.000	0.029	-0.241
-511.814	-147.185	-0.526	-0.045
-510.799	-138.713	-0.194	0.021
-509.785	-149.087	0.098	0.008
-508.770	658.851	-0.022	-0.057
-507.756	-58.763	-0.114	-0.049
-506.741	-9.979	-0.390	-0.259
-505.726	-151.787	-0.095	-0.007
-504.712	-101.408	0.124	-0.030
-503.697	291.925	0.140	-0.255
-502.683	110.893	-0.241	0.289
-501.668	-107.920	-0.057	0.012
-500.653	-151.376	-0.217	0.016
-499.639	123.407	-0.173	0.216
-498.624	-7.397	0.134	0.090
-497.610	-200.000	0.061	0.352
-496.595	533.177	-0.063	-0.148
-495.581	800.000	0.079	-0.342
-494.566	-61.634	0.304	-0.127
-493.551	-160.163	-0.364	0.020
-492.537	-200.000	-0.016	-0.076
-491.522	80.635	-0.039	-0.042
-490.508	-134.548	0.085	0.010
-489.493	-79.194	-0.143	-0.048
-488.478	60.206	0.246	0.242
-487.464	-21.615	0.161	0.098
-486.449	97.119	0.189	-0.216
-485.435	289.641	0.200	0.362
-484.420	2.793	0.134	0.097
-483.405	-200.000	0.046	-0.254
-482.391	132.813	0.045	-0.058
-481.376	158.755	0.197	0.272
-480.362	-138.933	0.153	0.017
-479.347	204.667	0.083	0.128
-478.332	-200.000	-0.016	-0.092
-477.318	-30.723	-0.092	0.052
-476.303	-200.000	0.016	-0.270
-475.289	-145.572	-0.265	-0.024
-474.274	639.330	0.167	0.424
-473.259	-18.571	-0.230	-0.143
-472.245	349.700	0.061	-0.120
-471.230	518.913	0.086	0.201
-470.216	-39.379	-0.272	0.142
-469.201	-15.663	0.221	0.140
-468.186	-200.000	-0.043	0.249
-467.172	-200.000	0.037	-0.219
-466.157	786.379	-0.040	0.108
-465.143	-7.367	-0.070	0.047
-464.128	-168.079	0.049	0.002
-463.113	-151.910	0.250	-0.018
-462.099	338.258	-0.006	0.012
-461.084	172.018	-0.185	0.265
-460.070	101.462	0.244	0.283
-459.055	19.973	0.181	0.146
-458.040	78.620	0.270	0.287
-457.026	800.000	-0.055	-0.163
-456.011	-200.000	0.001	0.275
-454.997	-27.515	-0.277	-0.161
-453.982	108.732	0.153	0.182
-452.968	207.770	0.073	0.113
-451.953	-116.720	0.187	-0.034
-450.938	61.910	-0.185	-0.184
-449.924	472.928	-0.086	0.192
-448.909	148.559	0.203	-0.273
-447.895	-65.481	0.127	-0.051
-446.880	-33.139	-0.180	0.100
-445.865	-200.000	-0.018	0.307
-444.851	51.203	0.125	0.118
-443.836	570.749	0.020	0.050
-442.822	-200.000	0.001	0.089
-441.807	-84.456	-0.090	-0.028
-440.792	-33.846	-0.163	-0.089
-439.778	-4.661	0.172	0.118
-438.763	-62.688	-0.165	0.068
-437.749	-36.145	-0.013	0.007
-436.734	800.000	-0.089	-0.369
-435.719	-116.501	0.175	-0.032
-434.705	-182.807	0.297	0.005
-433.690	-139.209	-0.101	0.011
-432.676	800.000	0.048	-0.165
-431.661	97.226	0.113	-0.129
-430.646	-90.593	-0.050	0.014
-429.632	-117.103	0.291	-0.053
-428.617	800.000	0.081	0.261
-427.603	800.000	-0.024	-0.068
-426.588	618.811	0.065	-0.163
-425.573	-200.000	-0.264	0.000
-424.559	-102.686	0.358	0.085
-423.544	231.283	-0.062	-0.101
-422.530	-200.000	-0.016	-0.123
-421.515	-25.925	-0.170	0.099
-420.500	167.409	-0.085	-0.120
-419.486	800.000	-0.110	-0.357
-418.471	-132.976	0.196	0.025
-417.457	-200.000	-0.067	0.331
-416.442	-200.000	-0.002	-0.022
-415.428	-99.476	-0.329	0.082
-414.413	204.075	0.062	0.096
-413.398	68.006	0.135	-0.137
-412.384	-200.000	-0.028	-0.174
-411.369	579.126	0.079	0.192
-410.355	298.575	0.140	0.256
-409.340	-200.000	-0.004	0.158
-408.325	408.969	0.067	-0.141
-407.311	102.247	-0.012	0.015
-406.296	-33.381	0.195	-0.107
-405.282	800.000	0.053	-0.177
-404.267	55.837	0.204	0.197
-403.252	398.702	-0.095	0.197
-402.238	-63.703	0.061	-0.025
-401.223	800.000	0.021	-0.091
-400.209	291.091	-0.046	-0.082
-399.194	342.353	0.072	0.141
-398.179	-71.564	0.057	0.021
-397.165	-22.943	-0.085	0.051
-396.150	-77.478	0.254	0.088
-395.136	53.039	0.174	0.166
-394.121	800.000	-0.040	0.127
-393.106	-55.351	-0.118	0.053
-392.092	484.876	0.152	0.344
-391.077	254.802	-0.125	0.213
-390.063	25.899	-0.132	0.109
-389.048	-200.000	-0.004	-0.075
-388.033	-55.132	-0.073	0.033
-387.019	-95.807	0.192	-0.051
-386.004	-200.000	0.060	-0.264
-384.990	211.915	-0.106	0.167
-383.975	-42.086	0.227	-0.115
-382.960	-72.038	0.158	0.058
-381.946	-200.000	-0.008	0.064
-380.931	800.000	0.028	0.080
-379.917	-85.252	0.162	0.050
-378.902	-57.194	-0.142	-0.062
-377.888	45.151	0.192	0.176
-376.873	29.104	0.271	0.228
-375.858	-106.080	0.211	-0.047
-374.844	-8.618	-0.194	0.129
-373.829	228.934	0.088	-0.142
-372.815	329.260	0.022	-0.042
-371.800	800.000	0.055	0.174
-370.785	135.543	0.119	-0.154
-369.771	454.254	0.052	0.114
-368.756	-192.008	0.277	0.003
-367.742	-200.000	-0.003	-0.233
-366.727	-200.000	-0.022	-0.138
-365.712	-200.000	-0.040	0.235
-364.698	103.390	0.065	-0.076
-363.683	-200.000	0.000	0.138
-362.669	-51.172	-0.159	0.074
-361.654	423.592	-0.163	0.347
-360.639	-3.779	-0.089	0.062
-359.625	-180.525	-0.188	0.004
-358.610	-200.000	0.015	-0.116
-357.596	-200.000	0.027	-0.136
-356.581	26.093	-0.071	-0.059
-355.566	-183.467	-0.293	-0.005
-354.552	-39.306	0.083	-0.043
-353.537	120.808	0.316	0.390
-352.523	-79.402	0.109	-0.037
-351.508	-48.054	0.282	0.135
-350.493	-200.000	0.013	-0.167
-349.479	320.047	-0.078	-0.146
-348.464	-200.000	0.030	0.164
-347.450	306.349	-0.226	0.418
-346.435	800.000	0.114	0.347
-345.420	27.593	-0.195	-0.163
-344.406	-200.000	-0.031	-0.274
-343.391	-24.945	-0.246	0.145
-342.377	-157.555	-0.265	-0.016
-341.362	800.000	0.041	-0.131
-340.348	109.450	0.248	0.295
-339.333	-52.130	-0.045	-0.021
-338.318	-89.031	0.208	-0.061
-337.304	409.044	0.152	0.320
-336.289	-148.858	-0.290	0.023
-335.275	315.426	-0.011	0.021
-334.260	-93.457	0.011	-0.003
-333.245	-124.582	-0.158	0.024
-332.231	50.035	0.337	0.316
-331.216	123.450	-0.233	-0.289
-330.202	234.261	0.034	-0.056
-329.187	484.174	0.069	0.156
-328.172	196.850	0.101	-0.153
-327.158	-147.359	0.145	-0.012
-326.143	-4.842	0.092	0.063
-325.129	50.960	0.182	-0.171
-324.114	-7.006	-0.058	-0.039
-323.099	792.692	0.065	-0.177
-322.085	177.005	0.089	-0.129
-321.070	185.109	0.141	0.207
-320.056	-184.957	-0.361	-0.006
-319.041	-35.684	-0.289	0.156
-318.026	-200.000	0.044	0.306
-317.012	69.803	0.263	0.269
-315.997	499.725	0.126	0.288
-314.983	-11.077	-0.099	0.065
-313.968	-200.000	-0.073	0.434
-312.953	-41.341	0.105	0.053
-311.939	-141.560	0.289	-0.029
-310.924	9.317	0.158	-0.118
-309.910	-200.000	-0.027	-0.162
-308.895	-82.226	0.380	0.123
-307.880	-127.257	0.089	-0.013
-306.866	144.208	0.068	0.089
-305.851	106.806	-0.176	0.207
-304.837	89.594	-0.086	0.095
-303.822	148.862	-0.152	0.204
-302.807	-40.742	0.033	-0.017
-301.793	-48.059	0.153	0.073
-300.778	104.194	-0.197	0.229
-299.764	75.800	0.114	0.120
-298.749	-5.612	-0.139	-0.094
-297.735	800.000	-0.078	0.226
-296.720	800.000	-0.093	0.258
-295.705	-120.503	0.098	0.016
-294.691	10.905	-0.268	-0.203
-293.676	-200.000	0.001	-0.016
-292.662	-20.729	0.217	0.132
-291.647	-101.773	-0.178	-0.043
-290.632	-66.651	0.270	0.106
-289.618	71.308	-0.189	-0.194
-288.603	-113.952	-0.298	-0.057
-287.589	-52.689	-0.401	-0.183
-286.574	-200.000	-0.008	0.035
-285.559	51.063	-0.272	-0.255
-284.545	-200.000	-0.052	-0.364
-283.530	-200.000	-0.001	0.055
-282.516	-150.708	0.161	-0.012
-281.501	-200.000	0.007	-0.424
-280.486	800.000	-0.072	-0.221
-279.472	-106.652	0.205	0.045
-278.457	317.642	0.124	-0.233
-277.443	546.646	-0.063	-0.150
-276.428	-94.698	0.136	-0.036
-275.413	-161.292	0.335	-0.017
-274.399	-109.202	0.259	0.054
-273.384	-73.607	-0.260	0.094
-272.370	-200.000	-0.042	0.330
-271.355	330.529	-0.098	0.187
-270.340	-35.352	-0.215	-0.116
-269.326	224.502	0.070	-0.112
-268.311	-200.000	0.022	0.180
-267.297	-87.923	-0.119	-0.035
-266.282	375.413	0.140	0.282
-265.267	101.474	-0.167	0.192
-264.253	-200.000	-0.031	0.167
-263.238	-73.178	-0.355	-0.129
-262.224	37.429	0.286	-0.251
-261.209	137.146	-0.160	0.207
-260.195	-6.702	0.240	0.161
-259.180	81.999	0.071	0.076
-258.165	800.000	-0.061	-0.237
-257.151	-200.000	0.044	0.299
-256.136	3.995	-0.139	-0.100
-255.122	149.202	-0.126	-0.168
-254.107	-60.694	-0.166	-0.070
-253.092	487.776	0.063	-0.143
-252.078	-91.491	-0.232	-0.066
-251.063	-135.310	-0.203	-0.024
-250.049	-32.149	-0.162	0.090
-249.034	-150.064	-0.307	-0.024
-248.019	-183.794	0.424	0.007
-247.005	190.728	0.108	0.161
-245.990	-10.373	-0.174	-0.114
-244.976	-49.331	0.212	-0.100
-243.961	260.996	-0.115	-0.196
-242.946	-200.000	0.002	-0.128
-241.932	800.000	-0.017	-0.053
-240.917	-90.482	-0.077	0.022
-239.903	99.020	0.155	-0.177
-238.888	-62.906	-0.058	0.024
-237.873	-69.687	0.071	-0.027
-236.859	-94.401	-0.070	-0.019
-235.844	-33.368	-0.042	0.023
-234.830	-200.000	0.014	0.249
-233.815	-200.000	-0.014	0.323
-232.800	-130.090	0.176	-0.024
-231.786	0.733	-0.105	0.074
-230.771	-35.422	-0.177	-0.095
-229.757	-131.542	-0.133	-0.017
-228.742	-113.504	0.162	0.031
-227.727	-42.309	0.204	0.103
-226.713	-52.138	-0.062	-0.029
-225.698	-119.964	0.303	0.051
-224.684	616.239	0.037	-0.092
-223.669	167.413	-0.115	-0.162
-222.655	-46.319	-0.235	-0.114
-221.640	-200.000	-0.022	-0.242
-220.625	-200.000	0.044	-0.285
-219.611	-200.000	-0.031	0.167
-218.596	31.402	-0.188	-0.159
-217.582	-18.048	0.252	0.156
-216.567	-131.742	0.478	0.062
-215.552	-79.367	0.112	0.038
-214.538	-149.724	-0.254	-0.020
-213.523	163.382	0.171	0.237
-212.509	800.000	0.088	-0.272
-211.494	-154.260	0.365	0.024
-210.479	-200.000	-0.039	0.254
-209.465	-200.000	0.043	0.243
-208.450	-16.408	-0.118	-0.074
-207.436	-200.000	0.020	-0.194
-206.421	-14.251	-0.189	0.120
-205.406	-197.723	0.518	-0.003
-204.392	-77.408	0.419	-0.144
-203.377	-39.905	-0.211	-0.109
-202.363	-147.271	0.134	0.011
-201.348	-200.000	0.014	0.237
-200.333	787.874	-0.084	0.227
-199.319	45.349	-0.135	-0.123
-198.304	800.000	-0.003	0.012
-197.290	146.871	-0.069	-0.092
-196.275	-98.737	-0.071	0.018
-195.260	-159.379	-0.140	0.008
-194.246	-135.985	0.157	-0.018
-193.231	-139.330	-0.183	-0.019
-192.217	-98.483	0.189	-0.048
-191.202	212.531	0.065	-0.101
-190.187	-200.000	0.017	0.197
-189.173	33.770	0.064	0.055
-188.158	611.743	-0.020	-0.050
-187.144	282.663	-0.071	-0.126
-186.129	-200.000	0.050	0.256
-185.114	800.000	0.060	-0.225
-184.100	175.152	0.071	-0.102
-183.085	80.419	-0.279	-0.296
-182.071	-38.102	-0.117	0.061
-181.056	-115.415	0.099	0.018
-180.042	-200.000	-0.018	0.091
-179.027	73.969	-0.087	-0.090
-178.012	-9.371	0.194	0.128
-176.998	-97.341	-0.251	-0.064
-175.983	-127.267	0.134	-0.019
-174.969	-113.533	0.150	-0.029
-173.954	350.148	0.053	0.103
-172.939	38.948	0.211	0.186
-171.925	173.191	0.126	-0.179
-170.910	800.000	0.079	0.241
-169.896	-49.081	0.393	0.185
-168.881	427.612	-0.091	-0.194
-167.866	-10.874	-0.045	-0.029
-166.852	-200.000	0.037	0.250
-165.837	-26.735	-0.028	0.016
-164.823	-200.000	-0.014	0.065
-163.808	248.537	0.129	-0.215
-162.793	-200.000	-0.034	0.369
-161.779	-95.702	-0.113	-0.030
-160.764	-90.467	-0.270	0.077
-159.750	71.177	0.126	-0.129
-158.735	2.320	-0.269	0.191
-157.720	12.523	-0.202	-0.153
-156.706	24.575	-0.334	0.272
-155.691	87.440	-0.061	-0.066
-154.677	-200.000	0.031	-0.215
-153.662	-200.000	0.002	0.169
-152.647	-142.383	-0.196	-0.019
-151.633	14.137	-0.190	-0.146
-150.618	-154.011	0.259	0.017
-149.604	-9.378	0.186	-0.122
-148.589	-26.969	-0.089	0.051
-147.574	413.805	-0.061	0.129
-146.560	-67.681	-0.305	0.118
-145.545	-200.000	0.044	0.536
-144.531	47.921	-0.044	0.041
-143.516	-143.997	0.263	0.024
-142.502	-127.474	0.102	0.015
-141.487	-26.297	-0.213	-0.123
-140.472	-18.922	0.372	0.228
-139.458	800.000	0.107	-0.409
-138.443	-200.000	-0.015	0.248
-137.429	-97.572	0.095	0.024
-136.414	-34.313	-0.135	-0.073
-135.399	-25.853	-0.351	0.203
-134.385	-54.712	0.195	-0.087
-133.370	-200.000	0.031	0.191
-132.356	-63.518	0.160	0.065
-131.341	166.835	-0.102	0.142
-130.326	-50.302	-0.170	0.079
-129.312	75.181	0.191	0.198
-128.297	125.392	0.340	0.423
-127.283	317.102	0.103	-0.192
-126.268	207.147	0.086	-0.132
-125.253	-86.292	0.195	-0.059
-124.239	506.961	0.104	-0.238
-123.224	-45.750	-0.205	-0.100
-122.210	-103.320	-0.111	0.026
-121.195	-147.538	-0.238	-0.020
-120.180	363.195	-0.061	-0.120
-119.166	800.000	0.032	-0.130
-118.151	466.974	0.214	0.472
-117.137	-103.700	0.160	0.037
-116.122	228.954	0.078	0.126
-115.107	52.692	-0.156	0.146
-114.093	-22.138	0.277	0.165
-113.078	128.469	-0.238	0.299
-112.064	-200.000	-0.055	0.286
-111.049	-115.918	0.233	-0.043
-110.034	800.000	0.058	0.178
-109.020	56.327	0.222	0.212
-108.005	-200.000	0.074	-0.366
-106.991	-14.759	0.127	-0.080
-105.976	214.909	-0.150	-0.234
-104.962	-121.033	0.227	-0.037
-103.947	-91.814	0.336	0.094
-102.932	800.000	-0.073	0.204
-101.918	7.870	0.240	-0.177
-100.903	527.682	0.153	-0.355
-99.889	-44.155	-0.358	0.177
-98.874	618.138	0.105	0.260
-97.859	255.867	-0.109	0.184
-96.845	-200.000	-0.050	-0.494
-95.830	-57.555	-0.126	-0.054
-94.816	630.004	0.086	0.214
-93.801	-111.392	0.174	0.035
-92.786	-12.220	0.130	0.083
-91.772	125.490	-0.093	0.116
-90.757	-158.481	0.146	-0.008
-89.743	-55.755	0.063	0.028
-88.728	-200.000	-0.011	0.215
-87.713	678.912	-0.140	-0.357
-86.699	-200.000	-0.053	-0.299
-85.684	783.347	0.085	-0.227
-84.670	-76.974	-0.352	-0.121
-83.655	-200.000	0.001	-0.074
-82.640	-200.000	0.011	0.098
-81.626	-54.342	-0.245	-0.109
-80.611	-187.867	-0.314	-0.004
-79.597	285.714	-0.130	0.230
-78.582	69.564	0.147	-0.149
-77.567	-200.000	0.001	0.108
-76.553	76.541	0.207	0.215
-75.538	11.777	0.110	-0.083
-74.524	47.517	-0.197	0.180
-73.509	118.559	-0.259	-0.314
-72.494	-77.387	0.180	0.061
-71.480	537.404	-0.098	-0.228
-70.465	-57.630	0.342	-0.147
-69.451	-108.371	-0.357	0.076
-68.436	133.909	-0.202	0.256
-67.422	-163.617	-0.211	0.010
-66.407	199.338	0.143	-0.215
-65.392	-104.122	0.202	0.046
-64.378	116.539	0.182	0.219
-63.363	-200.000	0.061	0.398
-62.349	-97.918	-0.184	0.047
-61.334	79.992	-0.816	-0.861
-60.319	87.545	0.459	0.499
-59.305	800.000	-0.304	-0.946
-58.290	75.878	1.027	1.065
-57.276	400.762	0.714	1.470
-56.261	-200.000	100.193	611.458
-55.246	606.705	1424.131	3483.102
-54.232	186.347	2630.104	3839.746
-53.217	110.662	2290.756	2702.757
-52.203	42.096	1907.255	1698.616
-51.188	36.078	1696.541	1465.310
-50.173	33.432	1652.048	1407.202
-49.159	50.097	1701.565	1575.449
-48.144	51.935	1717.770	1604.256
-47.130	35.605	1676.010	1443.794
-46.115	32.801	1661.528	1410.338
-45.100	32.707	1656.386	1405.218
-44.086	32.682	1653.635	1402.641
-43.071	32.713	1651.151	1400.710
-42.057	32.709	1648.511	1398.386
-41.042	32.663	1646.693	1396.448
-40.027	32.637	1644.618	1394.441
-39.013	32.686	1642.522	1392.970
-37.998	32.696	1641.007	1391.703
-36.984	32.674	1639.861	1390.508
-35.969	32.808	1638.455	1390.251
-34.954	32.858	1636.531	1388.935
-33.940	32.879	1634.603	1387.394
-32.925	32.842	1632.573	1385.347
-31.911	32.855	1630.902	1383.971
-30.896	32.781	1629.410	1382.101
-29.881	32.779	1627.651	1380.547
-28.867	32.774	1625.997	1379.050
-27.852	32.779	1624.349	1377.630
-26.838	32.809	1623.236	1376.850
-25.823	32.809	1621.723	1375.517
-24.809	32.762	1620.881	1374.401
-23.794	32.827	1619.074	1373.294
-22.779	32.843	1616.955	1371.553
-21.765	32.848	1615.395	1370.213
-20.750	32.805	1614.243	1368.868
-19.736	32.838	1612.376	1367.475
-18.721	32.734	1611.719	1366.105
-17.706	32.801	1609.776	1364.890
-16.692	32.754	1608.269	1363.218
-15.677	32.705	1607.283	1361.973
-14.663	32.856	1605.946	1361.881
-13.648	32.847	1604.035	1360.138
-12.633	32.899	1602.590	1359.233
-11.619	32.970	1600.960	1358.306
-10.604	32.812	1599.586	1355.949
-9.590	32.936	1598.244	1355.650
-8.575	32.978	1596.553	1354.465
-7.560	32.867	1595.968	1353.121
-6.546	32.924	1594.289	1352.053
-5.531	32.832	1593.406	1350.586
-4.517	32.810	1592.380	1349.509
-3.502	32.810	1591.669	1348.853
-2.487	32.889	1589.981	1347.930
-1.473	32.448	1577.480	1334.159
-0.458	29.346	1557.284	1295.273
0.556	23.271	1556.306	1260.505
1.571	20.696	1580.399	1261.268
2.586	20.466	1594.245	1270.524
3.600	18.623	1542.723	1216.300
4.615	10.103	1432.295	1072.833
5.629	1.460	1364.989	967.486
6.644	-0.119	1355.809	950.905
7.659	-0.336	1355.055	948.917
8.673	-0.417	1353.854	947.480
9.688	-0.358	1351.636	946.215
10.702	-0.694	1349.007	942.176
11.717	2.918	1355.801	969.672
12.731	12.279	1373.659	1042.008
13.746	18.800	1383.256	1090.735
14.761	19.349	1384.431	1095.054
15.775	19.436	1383.636	1094.878
16.790	19.476	1383.258	1094.738
17.804	19.486	1382.722	1094.283
18.819	19.702	1382.032	1095.008
19.834	19.679	1381.527	1094.365
20.848	19.614	1380.814	1093.290
21.863	19.853	1379.586	1093.730
22.877	19.743	1379.049	1092.515
23.892	19.824	1377.804	1091.944
24.907	19.822	1376.998	1091.194
25.921	19.765	1376.554	1090.389
26.936	19.817	1375.267	1089.597
27.950	19.753	1374.203	1088.260
28.965	19.830	1372.934	1087.642
29.980	19.879	1371.278	1086.540
30.994	19.834	1370.436	1085.491
32.009	19.788	1369.119	1084.063
33.023	19.808	1367.898	1083.128
34.038	19.732	1366.898	1081.766
35.053	19.762	1365.837	1081.016
36.067	19.832	1364.853	1080.582
37.082	19.836	1363.930	1079.779
38.096	19.705	1363.300	1078.366
39.111	19.740	1362.268	1077.673
40.126	19.632	1361.968	1076.669
41.140	19.755	1360.920	1076.512
42.155	19.789	1360.676	1076.433
43.169	19.833	1360.662	1076.601
44.184	19.794	1360.206	1075.904
45.199	19.765	1359.781	1075.292
46.213	19.780	1359.377	1074.966
47.228	19.804	1358.248	1074.132
48.242	19.785	1357.093	1073.006
49.257	19.752	1355.171	1071.183
50.271	19.894	1353.848	1070.924
51.286	19.836	1352.687	1069.550
52.301	19.711	1351.557	1067.792
53.315	19.718	1350.850	1067.183
54.330	19.822	1349.688	1066.810
55.344	19.799	1348.785	1065.863
56.359	19.718	1347.929	1064.592
57.374	19.821	1346.936	1064.346
58.388	19.812	1345.944	1063.416
59.403	19.769	1345.933	1063.048
60.417	19.773	1345.372	1062.532
61.432	19.786	1344.409	1061.759
62.447	19.697	1343.376	1060.302
63.461	19.735	1342.481	1059.736
64.476	19.797	1341.315	1059.103
65.490	19.873	1339.586	1058.104
66.505	19.791	1338.073	1056.319
67.520	19.816	1337.193	1055.680
68.534	19.830	1336.465	1055.100
69.549	19.746	1335.410	1053.659
70.563	19.864	1334.101	1053.254
71.578	19.788	1333.191	1051.980
72.593	19.733	1332.861	1051.290
73.607	19.715	1331.861	1050.302
74.622	19.711	1331.016	1049.517
75.636	19.854	1330.185	1049.634
76.651	19.810	1329.637	1048.842
77.666	19.816	1328.910	1048.217
78.680	19.864	1328.120	1047.791
79.695	19.804	1327.384	1046.752
80.709	19.765	1326.732	1045.909
81.724	19.720	1325.674	1044.710
82.739	19.742	1324.709	1043.991
83.753	19.737	1323.768	1043.128
84.768	19.817	1322.281	1042.345
85.782	19.892	1320.745	1041.491
86.797	19.803	1320.151	1040.401
87.812	19.754	1319.044	1039.142
88.826	19.741	1318.214	1038.315
89.841	19.952	1316.390	1038.050
90.855	19.882	1315.778	1037.059
91.870	19.764	1315.229	1035.825
92.884	19.799	1314.268	1035.186
93.899	19.835	1313.022	1034.329
94.914	19.905	1312.654	1034.363
95.928	19.822	1311.969	1033.239
96.943	20.088	1310.099	1033.261
97.957	19.914	1309.839	1031.928
98.972	19.985	1309.057	1031.641
99.987	19.854	1308.272	1030.152
101.001	19.785	1307.201	1028.807
102.016	19.898	1306.033	1028.467
103.030	19.843	1305.018	1027.253
104.045	19.886	1304.208	1026.780
105.060	19.827	1303.497	1025.781
106.074	19.824	1302.594	1024.960
107.089	19.908	1301.042	1024.143
108.103	19.927	1299.589	1023.024
109.118	19.979	1298.492	1022.375
110.133	19.990	1297.358	1021.459
111.147	19.960	1296.008	1020.129
112.162	20.040	1294.755	1019.523
113.176	19.959	1294.000	1018.363
114.191	20.095	1292.579	1017.952
115.206	19.968	1291.821	1016.521
116.220	19.983	1290.498	1015.477
117.235	19.922	1289.615	1014.333
118.249	19.987	1288.745	1013.942
119.264	19.958	1287.773	1012.919
120.279	19.937	1287.037	1012.124
121.293	19.990	1285.997	1011.529
122.308	20.032	1285.084	1010.967
123.322	19.995	1284.197	1009.962
124.337	19.951	1282.974	1008.656
125.352	19.964	1282.175	1008.014
126.366	20.079	1281.040	1007.701
127.381	19.950	1280.349	1006.318
128.395	20.019	1279.352	1005.844
129.410	20.116	1277.857	1005.143
130.424	20.096	1277.352	1004.539
131.439	20.027	1276.346	1003.260
132.454	19.909	1275.634	1001.931
133.468	19.951	1275.003	1001.591
134.483	20.035	1273.637	1000.916
135.497	20.045	1273.132	1000.486
136.512	20.062	1271.791	999.441
137.527	20.056	1270.644	998.415
138.541	20.076	1269.348	997.428
139.556	19.928	1268.008	995.432
140.570	19.927	1267.086	994.614
141.585	20.011	1265.609	993.847
142.600	19.923	1264.861	992.671
143.614	20.110	1263.706	992.749
144.629	19.893	1263.033	990.888
145.643	19.925	1261.246	989.579
146.658	19.951	1260.699	989.214
147.673	19.942	1259.540	988.166
148.687	19.965	1258.405	987.317
149.702	19.959	1257.471	986.464
150.716	19.921	1256.391	985.314
151.731	19.992	1255.206	984.699
152.746	19.969	1254.325	983.790
153.760	20.102	1252.758	983.233
154.775	20.053	1251.523	981.893
155.789	20.043	1251.043	981.378
156.804	19.934	1249.944	979.813
157.819	20.107	1248.461	979.537
158.833	20.070	1247.985	978.872
159.848	20.157	1246.750	978.305
160.862	20.097	1246.428	977.628
161.877	19.981	1245.936	976.499
162.892	20.061	1244.887	976.044
163.906	20.152	1243.969	975.747
164.921	20.188	1243.191	975.257
165.935	20.200	1242.269	974.513
166.950	20.156	1241.488	973.569
167.964	20.098	1241.355	973.048
168.979	20.030	1240.878	972.211
169.994	20.058	1240.252	971.792
171.008	20.059	1239.431	971.066
172.023	20.121	1238.633	970.699
173.037	20.027	1237.988	969.584
174.052	20.071	1237.359	969.252
175.067	20.047	1236.506	968.362
176.081	20.200	1235.183	968.099
177.096	20.202	1234.527	967.509
178.110	20.163	1233.270	966.218
179.125	20.134	1233.009	965.770
180.140	20.248	1231.700	965.293
181.154	20.269	1230.045	964.029
182.169	20.195	1229.106	962.795
183.183	20.094	1228.336	961.544
184.198	20.126	1227.353	960.868
185.213	20.204	1226.470	960.524
186.227	20.269	1225.357	959.926
187.242	20.233	1225.035	959.389
188.256	20.215	1223.572	958.062
189.271	20.210	1222.633	957.214
190.286	20.312	1222.052	957.235
191.300	20.276	1221.668	956.651
192.315	20.142	1221.554	955.739
193.329	20.246	1220.731	955.586
194.344	20.312	1220.362	955.572
195.359	20.144	1220.280	954.500
196.373	20.155	1219.609	953.953
197.388	20.047	1219.409	953.116
198.402	20.227	1218.789	953.535
199.417	20.223	1217.978	952.797
200.432	20.221	1216.762	951.748
201.446	20.235	1216.497	951.536
202.461	20.276	1215.729	951.075
203.475	20.140	1215.161	949.803
204.490	20.149	1214.001	948.861
205.504	20.197	1212.896	948.175
206.519	20.267	1212.172	947.909
207.534	20.360	1211.221	947.589
208.548	20.307	1210.272	946.474
209.563	20.284	1209.643	945.769
210.577	20.318	1208.376	944.879
211.592	20.189	1207.834	943.672
212.607	20.264	1207.159	943.471
213.621	20.295	1206.319	942.900
214.636	20.306	1205.575	942.290
215.650	20.394	1204.131	941.559
216.665	20.347	1203.635	940.834
217.680	20.335	1203.092	940.261
218.694	20.403	1201.915	939.623
219.709	20.349	1201.197	938.688
220.723	20.313	1200.879	938.162
221.738	20.366	1200.026	937.701
222.753	20.278	1199.012	936.349
223.767	20.364	1198.574	936.389
224.782	20.501	1197.911	936.527
225.796	20.420	1197.046	935.331
226.811	20.270	1197.173	934.536
227.826	20.364	1196.461	934.404
228.840	20.373	1195.834	933.879
229.855	20.369	1195.165	933.254
230.869	20.505	1193.821	932.852
231.884	20.338	1194.038	932.045
232.899	20.472	1192.722	931.651
233.913	20.485	1192.337	931.337
234.928	20.417	1191.756	930.440
235.942	20.362	1191.182	929.612
236.957	20.419	1190.236	929.099
237.972	20.442	1189.583	928.627
238.986	20.505	1188.950	928.389
240.001	20.421	1188.509	927.513
241.015	20.535	1187.895	927.561
242.030	20.509	1186.814	926.494
243.045	20.598	1185.881	926.161
244.059	20.607	1185.328	925.694
245.074	20.604	1184.531	924.971
246.088	20.623	1183.704	924.346
247.103	20.770	1182.382	924.012
248.117	20.555	1182.457	922.847
249.132	20.573	1181.597	922.193
250.147	20.655	1180.723	921.861
251.161	20.640	1179.786	920.972
252.176	20.621	1179.303	920.412
253.190	20.669	1178.707	920.119
254.205	20.597	1178.334	919.367
255.220	20.617	1177.477	918.721
256.234	20.658	1177.360	918.763
257.249	20.648	1176.359	917.850
258.263	20.689	1175.843	917.581
259.278	20.557	1175.456	916.500
260.293	20.670	1174.660	916.395
261.307	20.704	1174.188	916.123
262.322	20.624	1173.483	915.071
263.336	20.745	1172.701	915.017
264.351	20.678	1172.392	914.343
265.366	20.773	1171.662	914.192
266.380	20.695	1171.167	913.319
267.395	20.756	1170.207	912.809
268.409	20.673	1169.475	911.721
269.424	20.760	1168.830	911.592
270.439	20.792	1168.385	911.334
271.453	20.701	1167.969	910.449
272.468	20.737	1166.876	909.708
273.482	20.695	1166.516	909.129
274.497	20.817	1166.146	909.396
275.512	20.913	1165.042	908.952
276.526	20.813	1164.707	908.090
277.541	20.916	1163.778	907.823
278.555	20.855	1163.603	907.288
279.570	20.850	1162.815	906.566
280.585	20.785	1161.921	905.453
281.599	20.897	1160.926	905.181
282.614	20.811	1159.851	903.816
283.628	20.843	1159.394	903.541
284.643	20.930	1158.739	903.404
285.657	20.889	1157.397	902.065
286.672	20.825	1156.797	901.189
287.687	20.842	1155.929	900.517
288.701	20.962	1155.244	900.523
289.716	20.905	1154.610	899.659
290.730	20.917	1153.480	898.757
291.745	20.974	1153.201	898.757
292.760	21.061	1152.504	898.581
293.774	20.939	1152.265	897.690
294.789	21.033	1151.337	897.371
295.803	21.036	1150.595	896.724
296.818	20.981	1150.089	895.972
297.833	21.059	1149.530	895.857
298.847	21.078	1148.591	895.145
299.862	20.960	1148.142	894.111
300.876	20.909	1147.641	893.379
301.891	21.069	1146.946	893.578
302.906	21.047	1146.543	893.072
303.920	21.196	1145.508	892.947
304.935	21.053	1145.138	891.849
305.949	21.061	1144.601	891.395
306.964	21.158	1143.470	890.930
307.979	21.157	1142.940	890.431
308.993	21.115	1142.303	889.643
310.008	21.101	1141.549	888.907
311.022	21.156	1140.862	888.574
312.037	21.230	1139.856	888.085
313.052	21.118	1139.177	886.912
314.066	21.139	1138.457	886.375
315.081	21.156	1138.140	886.140
316.095	21.094	1137.663	885.375
317.110	21.155	1136.351	884.583
318.125	21.207	1135.544	884.142
319.139	21.147	1135.204	883.496
320.154	21.210	1134.536	883.213
321.168	21.235	1134.166	882.975
322.183	21.245	1133.287	882.263
323.197	21.192	1133.038	881.722
324.212	21.139	1132.459	880.925
325.227	21.265	1131.684	880.881
326.241	21.225	1131.368	880.358
327.256	21.304	1130.537	880.027
328.270	21.286	1129.698	879.208
329.285	21.266	1128.748	878.291
330.300	21.284	1127.714	877.497
331.314	21.405	1127.096	877.549
332.329	21.358	1126.498	876.769
333.343	21.337	1125.864	876.091
334.358	21.424	1124.291	875.226
335.373	21.406	1124.055	874.873
336.387	21.358	1123.539	874.158
337.402	21.407	1122.755	873.712
338.416	21.482	1121.932	873.371
339.431	21.395	1121.673	872.657
340.446	21.381	1121.133	872.091
341.460	21.446	1120.232	871.634
342.475	21.474	1118.890	870.654
343.489	21.492	1118.323	870.225
344.504	21.501	1117.570	869.604
345.519	21.517	1116.560	868.825
346.533	21.577	1116.095	868.680
347.548	21.474	1115.138	867.349
348.562	21.577	1114.574	867.343
349.577	21.636	1113.732	866.904
350.592	21.479	1113.377	865.775
351.606	21.504	1112.458	865.108
352.621	21.599	1111.837	865.018
353.635	21.556	1111.528	864.487
354.650	21.608	1110.486	863.855
355.665	21.585	1110.306	863.528
356.679	21.507	1109.557	862.485
357.694	21.500	1109.223	862.113
358.708	21.600	1108.231	861.756
359.723	21.636	1107.476	861.270
360.738	21.614	1107.131	860.822
361.752	21.537	1106.743	860.061
362.767	21.597	1105.846	859.585
363.781	21.671	1105.395	859.522
364.796	21.666	1105.066	859.166
365.810	21.582	1104.241	858.038
366.825	21.668	1103.439	857.756
367.840	21.763	1103.383	858.104
368.854	21.660	1102.552	856.879
369.869	21.678	1101.743	856.261
370.883	21.929	1100.556	856.489
371.898	21.814	1100.522	855.826
372.913	21.810	1099.598	855.008
373.927	21.696	1099.571	854.360
374.942	21.807	1099.136	854.488
375.956	21.777	1098.341	853.643
376.971	21.801	1097.803	853.269
377.986	21.763	1097.804	853.008
379.000	21.822	1096.822	852.457
380.015	22.029	1095.837	852.620
381.029	21.871	1095.134	851.231
382.044	21.883	1094.606	850.807
383.059	21.918	1093.967	850.403
384.073	22.027	1092.839	849.978
385.088	21.884	1092.639	849.056
386.102	21.906	1091.936	848.538
387.117	21.882	1091.178	847.760
388.132	21.748	1090.537	846.541
389.146	21.843	1089.455	846.084
390.161	22.032	1088.576	846.236
391.175	22.001	1087.953	845.530
392.190	22.056	1087.284	845.198
393.205	21.880	1086.629	843.768
394.219	21.882	1085.702	842.982
395.234	22.052	1085.041	843.212
396.248	22.062	1084.072	842.434
397.263	21.974	1083.741	841.676
398.278	22.176	1082.640	841.716
399.292	22.092	1081.964	840.715
400.307	22.162	1081.634	840.718
401.321	22.080	1080.981	839.743
402.336	22.013	1080.163	838.714
403.350	22.032	1079.757	838.416
404.365	22.211	1078.895	838.527
405.380	22.231	1077.941	837.807
406.394	22.263	1077.216	837.322
407.409	22.232	1076.528	836.563
408.423	22.259	1076.003	836.213
409.438	22.239	1075.585	835.717
410.453	22.338	1074.720	835.441
411.467	22.231	1074.124	834.395
412.482	22.281	1073.174	833.819
413.496	22.296	1072.531	833.317
414.511	22.163	1072.050	832.242
415.526	22.192	1071.826	832.130
416.540	22.295	1071.046	831.941
417.555	22.279	1070.670	831.495
418.569	22.262	1070.324	831.076
419.584	22.399	1069.753	831.204
420.599	22.361	1069.292	830.595
421.613	148.310	1397.662	1793.034
422.628	136.652	1445.484	1793.144
