DTS Sentinel unit serial number:	SN413079Multiplexer serial number:	ORYXHardware model number:	OX4-SRSoftware version number:	ORYX F/W v4.00 Oryx Data Collector v3.7.2.0data status	okinstallation	princeton_trtdifferential loss correction	single-endedforward channel	channel 2reverse channel	N/Adate	2019/09/13time	17:03:35forward acquisition time	60.00reverse acquisition time	0.00gamma	496.2192k internal	0.2312k external	0.2312temperature offset calibration	1.0207default loss term (dB/km)	0.3790temperature slope calibration	1.0000multiplexer offset coefficient	1.0000multiplexer slope coefficient	1.0000fibre end	0.00T internal ref (°C)	35.03T ext. ref 1 (°C)	4.84T ext. ref 2 (°C)	33.98length (m)	temperature (°C)	Stokes	anti-Stokes-747.200	-24.141	0.321	-0.195
-746.185	12.188	-0.106	0.083
-745.171	-57.401	0.286	-0.127
-744.156	-10.345	0.214	0.144
-743.142	-183.781	-0.196	0.003
-742.127	-200.000	-0.006	0.141
-741.112	-89.898	-0.098	-0.029
-740.098	-200.000	-0.060	0.497
-739.083	800.000	-0.068	0.219
-738.069	-14.159	-0.342	0.224
-737.054	-114.709	-0.290	0.056
-736.039	479.945	-0.162	0.372
-735.025	13.041	-0.068	-0.053
-734.010	87.980	0.199	0.224
-732.996	-105.659	0.046	-0.011
-731.981	-12.335	0.026	0.017
-730.966	172.495	-0.221	-0.322
-729.952	800.000	-0.106	-0.449
-728.937	-165.097	0.278	-0.013
-727.923	7.608	0.209	0.159
-726.908	2.793	0.179	-0.131
-725.894	-81.229	-0.262	0.088
-724.879	-171.488	-0.316	0.011
-723.864	44.619	-0.105	0.097
-722.850	-67.611	0.285	0.113
-721.835	-83.967	-0.265	0.085
-720.821	-200.000	0.161	0.000
-719.806	135.007	0.225	-0.296
-718.791	-68.014	-0.242	0.096
-717.777	-116.658	-0.233	0.043
-716.762	-11.355	0.171	-0.114
-715.748	639.579	-0.109	-0.282
-714.733	800.000	-0.039	0.113
-713.718	152.939	-0.134	-0.185
-712.704	-200.000	0.006	-0.315
-711.689	73.469	-0.115	0.122
-710.675	303.192	0.114	-0.214
-709.660	67.447	0.146	-0.151
-708.645	30.467	-0.228	-0.197
-707.631	-125.005	-0.230	-0.036
-706.616	-146.083	0.263	-0.023
-705.602	414.953	-0.150	-0.325
-704.587	800.000	-0.002	-0.009
-703.572	284.252	-0.153	-0.278
-702.558	-27.572	0.209	0.123
-701.543	63.648	0.194	0.197
-700.529	216.106	-0.038	-0.061
-699.514	-200.000	-0.018	0.181
-698.499	55.132	-0.112	0.110
-697.485	315.945	-0.223	0.426
-696.470	-200.000	0.010	0.134
-695.456	472.061	-0.140	-0.319
-694.441	-99.097	0.292	0.075
-693.426	-200.000	0.033	0.230
-692.412	379.963	0.057	0.119
-691.397	-71.969	-0.329	-0.124
-690.383	129.253	0.100	-0.130
-689.368	-200.000	0.001	0.078
-688.354	-67.524	0.118	-0.047
-687.339	-83.004	0.076	-0.025
-686.324	-74.320	0.072	0.026
-685.310	-20.771	0.311	0.193
-684.295	-33.346	-0.058	0.032
-683.281	800.000	-0.065	0.196
-682.266	-142.029	-0.208	-0.021
-681.251	-200.000	0.009	-0.067
-680.237	400.001	-0.071	0.150
-679.222	123.545	-0.018	0.023
-678.208	615.958	0.032	0.080
-677.193	-131.350	-0.213	0.029
-676.178	155.267	0.216	-0.301
-675.164	-200.000	0.012	-0.202
-674.149	-200.000	0.014	-0.096
-673.135	99.246	0.197	-0.230
-672.120	-124.255	-0.186	-0.029
-671.105	164.491	-0.121	-0.173
-670.091	-91.219	-0.207	-0.060
-669.076	739.002	0.028	0.077
-668.062	-72.217	0.211	-0.079
-667.047	254.521	-0.309	0.535
-666.032	3.242	-0.257	-0.189
-665.018	-98.463	0.240	-0.062
-664.003	-50.161	-0.218	-0.104
-662.989	369.612	0.122	0.250
-661.974	192.024	-0.045	-0.069
-660.959	800.000	-0.011	-0.049
-659.945	-83.693	0.144	-0.047
-658.930	-200.000	-0.039	-0.268
-657.916	45.925	-0.038	-0.036
-656.901	-29.208	0.022	0.013
-655.886	102.360	-0.092	-0.109
-654.872	77.680	-0.243	0.262
-653.857	-128.106	-0.528	0.076
-652.843	-91.216	0.028	-0.008
-651.828	-29.283	0.080	-0.046
-650.814	-99.674	0.117	0.030
-649.799	212.433	-0.262	-0.418
-648.784	60.311	-0.125	0.125
-647.770	-153.797	0.119	0.008
-646.755	-106.607	-0.030	-0.007
-645.741	27.737	0.137	-0.116
-644.726	-38.380	0.091	0.048
-643.711	800.000	0.061	-0.196
-642.697	-72.600	-0.363	-0.135
-641.682	-107.075	-0.412	0.092
-640.668	99.161	-0.136	-0.159
-639.653	677.674	-0.101	-0.266
-638.638	110.720	0.237	-0.288
-637.624	-80.100	-0.179	0.061
-636.609	800.000	0.002	-0.006
-635.595	800.000	0.010	-0.032
-634.580	-41.136	-0.201	-0.105
-633.565	-8.667	-0.294	0.199
-632.551	353.825	-0.060	-0.121
-631.536	399.285	0.134	-0.283
-630.522	-177.534	0.251	-0.006
-629.507	-55.957	0.204	-0.092
-628.492	-200.000	-0.003	0.217
-627.478	689.545	0.119	-0.315
-626.463	800.000	-0.133	-0.524
-625.449	147.842	0.109	0.148
-624.434	800.000	-0.107	0.346
-623.419	-90.018	0.064	0.019
-622.405	-200.000	-0.016	-0.157
-621.390	-163.769	-0.493	-0.023
-620.376	-29.608	0.105	0.061
-619.361	-52.699	0.193	-0.090
-618.346	120.547	0.187	-0.235
-617.332	800.000	0.091	-0.294
-616.317	695.694	-0.083	-0.220
-615.303	-59.382	-0.362	-0.157
-614.288	-152.637	-0.190	0.014
-613.273	-160.367	-0.187	-0.010
-612.259	-149.558	-0.066	0.005
-611.244	589.930	0.026	-0.065
-610.230	11.111	0.126	0.097
-609.215	492.953	0.173	-0.400
-608.201	-77.594	-0.188	-0.066
-607.186	-9.523	0.327	0.220
-606.171	37.762	0.135	-0.121
-605.157	-68.250	-0.114	0.045
-604.142	334.035	0.065	0.126
-603.128	-62.442	0.197	0.083
-602.113	-186.671	-0.107	0.002
-601.098	800.000	-0.006	0.024
-600.084	-134.473	0.291	-0.036
-599.069	271.527	0.147	0.262
-598.055	-138.622	-0.192	0.021
-597.040	259.685	-0.074	0.129
-596.025	-20.673	-0.247	-0.153
-595.011	-138.885	-0.266	0.029
-593.996	27.340	-0.206	-0.175
-592.982	-40.401	0.209	-0.110
-591.967	119.538	0.136	0.170
-590.952	-200.000	-0.009	0.124
-589.938	-200.000	0.050	0.230
-588.923	218.593	-0.218	-0.350
-587.909	-134.159	-0.136	-0.017
-586.894	-200.000	-0.044	0.253
-585.879	-200.000	-0.021	0.151
-584.865	-98.549	-0.361	-0.093
-583.850	-34.243	-0.298	-0.165
-582.836	-29.568	-0.090	-0.052
-581.821	-163.943	0.119	-0.006
-580.806	98.447	-0.057	-0.067
-579.792	164.160	0.208	-0.295
-578.777	14.349	-0.303	0.239
-577.763	-119.577	0.187	-0.033
-576.748	-39.144	-0.161	0.085
-575.733	-200.000	-0.010	0.135
-574.719	-55.169	-0.225	0.102
-573.704	636.174	0.117	0.299
-572.690	387.356	0.073	0.153
-571.675	-118.747	-0.304	0.054
-570.661	248.837	-0.163	-0.278
-569.646	77.070	-0.257	-0.276
-568.631	-6.469	0.205	0.141
-567.617	-51.100	0.280	-0.132
-566.602	-200.000	-0.033	-0.165
-565.588	-159.502	-0.320	-0.018
-564.573	-31.593	0.411	-0.233
-563.558	432.272	0.040	0.087
-562.544	107.405	0.025	-0.030
-561.529	19.957	0.129	0.105
-560.515	132.422	-0.034	0.044
-559.500	114.306	0.247	0.303
-558.485	-200.000	-0.035	0.233
-557.471	800.000	0.084	0.354
-556.456	-70.794	-0.139	0.053
-555.442	74.347	-0.184	0.194
-554.427	55.585	-0.081	-0.079
-553.412	128.345	-0.234	-0.300
-552.398	-49.793	-0.391	0.187
-551.383	92.808	0.257	-0.293
-550.369	-80.972	-0.316	-0.106
-549.354	-144.477	-0.197	-0.018
-548.339	-200.000	0.005	0.040
-547.325	260.650	0.144	0.250
-546.310	-8.435	0.229	-0.155
-545.296	800.000	0.016	-0.045
-544.281	-200.000	0.022	-0.196
-543.266	-158.788	0.324	-0.019
-542.252	-108.331	0.083	0.018
-541.237	52.258	0.188	0.180
-540.223	-114.835	0.133	-0.026
-539.208	-177.938	-0.103	-0.002
-538.193	94.480	-0.229	-0.262
-537.179	184.378	0.108	-0.160
-536.164	34.905	0.049	-0.043
-535.150	-200.000	-0.009	-0.105
-534.135	514.511	-0.117	0.275
-533.121	112.330	0.082	0.099
-532.106	-200.000	0.039	-0.174
-531.091	43.147	-0.097	-0.089
-530.077	-84.565	0.060	-0.019
-529.062	-8.522	-0.263	0.178
-528.048	-153.919	0.367	0.025
-527.033	-73.372	-0.096	-0.035
-526.018	-13.997	-0.449	0.292
-525.004	-200.000	0.008	0.244
-523.989	-90.344	-0.258	-0.075
-522.975	294.786	-0.138	-0.255
-521.960	154.604	-0.098	-0.136
-520.945	-34.442	-0.283	0.156
-519.931	679.252	-0.127	-0.332
-518.916	-80.702	-0.165	0.055
-517.902	764.910	0.042	-0.114
-516.887	-200.000	-0.004	-0.053
-515.872	-147.344	0.344	0.029
-514.858	800.000	0.087	-0.354
-513.843	279.224	0.171	-0.306
-512.829	522.293	-0.139	0.328
-511.814	-200.000	-0.020	0.108
-510.799	-68.650	0.166	-0.065
-509.785	342.254	-0.102	0.201
-508.770	57.409	0.075	-0.074
-507.756	-76.911	-0.156	-0.055
-506.741	-72.175	-0.150	-0.056
-505.726	800.000	-0.107	0.360
-504.712	74.328	-0.149	0.157
-503.697	-94.466	0.033	0.009
-502.683	142.945	0.196	0.261
-501.668	-200.000	0.014	0.227
-500.653	447.357	0.032	0.071
-499.639	295.589	-0.163	0.301
-498.624	-200.000	0.031	-0.305
-497.610	800.000	-0.036	0.110
-496.595	98.964	-0.152	0.176
-495.581	310.929	-0.149	0.280
-494.566	-11.467	-0.376	-0.248
-493.551	475.517	0.129	-0.292
-492.537	226.583	-0.141	0.230
-491.522	134.748	-0.138	-0.180
-490.508	279.109	0.186	-0.333
-489.493	-200.000	-0.034	-0.170
-488.478	-200.000	-0.005	-0.344
-487.464	-200.000	-0.032	-0.163
-486.449	-129.417	-0.197	-0.027
-485.435	627.197	0.059	0.150
-484.420	355.481	0.056	0.113
-483.405	-151.951	0.233	-0.017
-482.391	-200.000	0.004	-0.165
-481.376	-122.338	-0.118	0.019
-480.362	-99.808	0.055	-0.014
-479.347	70.211	-0.090	-0.093
-478.332	-170.454	0.496	0.017
-477.318	370.509	0.083	-0.169
-476.303	800.000	0.137	-0.408
-475.289	-9.764	-0.069	0.046
-474.274	800.000	0.079	0.235
-473.259	127.478	-0.146	-0.186
-472.245	6.749	0.272	-0.204
-471.230	520.830	0.198	0.467
-470.216	-200.000	-0.042	0.239
-469.201	153.705	-0.040	0.055
-468.186	-98.081	-0.163	0.042
-467.172	800.000	0.086	0.246
-466.157	31.670	-0.138	0.119
-465.143	179.060	-0.179	-0.263
-464.128	800.000	0.082	0.269
-463.113	-200.000	-0.016	0.242
-462.099	-42.971	0.261	-0.133
-461.084	800.000	0.083	0.305
-460.070	-200.000	0.013	0.159
-459.055	-77.926	0.199	-0.069
-458.040	-200.000	-0.043	0.215
-457.026	-2.120	-0.232	0.163
-456.011	-4.263	0.138	-0.096
-454.997	800.000	-0.063	0.195
-453.982	-200.000	-0.002	0.517
-452.968	-200.000	-0.037	-0.169
-451.953	800.000	-0.067	-0.217
-450.938	-146.988	0.193	0.017
-449.924	195.289	0.265	0.403
-448.909	-141.567	0.249	0.025
-447.895	-200.000	0.050	0.270
-446.880	800.000	-0.044	-0.122
-445.865	545.638	-0.116	0.279
-444.851	800.000	-0.110	-0.316
-443.836	-168.677	-0.151	-0.006
-442.822	377.084	-0.104	-0.212
-441.807	-25.833	0.117	0.069
-440.792	49.319	-0.108	-0.102
-439.778	-45.597	0.250	-0.124
-438.763	-200.000	-0.069	-0.363
-437.749	800.000	-0.144	0.422
-436.734	-200.000	-0.020	-0.308
-435.719	7.929	0.359	-0.270
-434.705	-200.000	-0.017	0.112
-433.690	275.748	-0.092	0.164
-432.676	800.000	0.065	0.269
-431.661	800.000	0.004	-0.013
-430.646	-148.626	0.311	-0.025
-429.632	-10.789	-0.073	-0.048
-428.617	95.538	0.129	-0.147
-427.603	223.148	-0.109	0.175
-426.588	-123.468	0.106	-0.017
-425.573	256.289	-0.126	-0.216
-424.559	545.580	0.091	-0.218
-423.544	137.014	0.045	-0.058
-422.530	800.000	-0.073	-0.230
-421.515	-8.629	0.218	-0.146
-420.500	60.344	0.114	0.113
-419.486	-60.871	0.289	0.122
-418.471	-118.612	0.063	0.011
-417.457	-200.000	-0.017	-0.206
-416.442	88.211	0.112	0.125
-415.428	-35.083	0.174	-0.095
-414.413	-123.331	0.307	-0.049
-413.398	528.600	0.038	-0.089
-412.384	-57.377	0.483	0.213
-411.369	189.099	-0.108	-0.162
-410.355	800.000	-0.053	0.147
-409.340	486.228	-0.082	0.188
-408.325	-200.000	0.060	0.355
-407.311	-63.803	-0.125	-0.051
-406.296	-14.973	0.265	0.170
-405.282	-200.000	0.023	0.234
-404.267	311.451	0.038	-0.071
-403.252	-87.159	-0.120	-0.036
-402.238	-28.045	0.502	0.291
-401.223	74.574	-0.097	-0.102
-400.209	800.000	0.139	-0.487
-399.194	800.000	-0.078	-0.273
-398.179	-57.072	0.282	0.124
-397.165	-35.534	-0.204	-0.111
-396.150	68.406	0.174	0.179
-395.136	9.398	0.123	0.093
-394.121	-200.000	0.017	0.345
-393.106	-23.004	-0.166	0.100
-392.092	-200.000	0.013	-0.086
-391.077	44.926	0.146	-0.134
-390.063	177.436	-0.094	-0.137
-389.048	-102.292	0.174	0.042
-388.033	233.383	-0.164	-0.269
-387.019	-36.567	-0.326	-0.176
-386.004	22.775	0.210	-0.172
-384.990	-80.272	0.354	-0.119
-383.975	-50.963	0.053	-0.025
-382.960	94.344	-0.172	0.196
-381.946	800.000	0.118	-0.414
-380.931	-200.000	0.005	0.184
-379.917	669.849	0.078	0.202
-378.902	-46.276	0.096	-0.047
-377.888	18.043	-0.116	0.093
-376.873	323.803	0.086	-0.165
-375.858	44.507	0.038	-0.035
-374.844	92.029	-0.074	0.084
-373.829	9.205	0.292	0.221
-372.815	-149.025	-0.212	-0.017
-371.800	6.517	0.226	-0.168
-370.785	4.623	0.182	0.133
-369.771	201.475	-0.150	0.231
-368.756	31.289	-0.183	-0.157
-367.742	-94.443	-0.352	0.096
-366.727	-16.605	-0.055	-0.035
-365.712	417.101	-0.043	0.092
-364.698	-200.000	0.060	0.328
-363.683	-152.073	-0.066	-0.005
-362.669	800.000	-0.127	-0.442
-361.654	-190.049	0.236	0.003
-360.639	-92.065	0.241	0.068
-359.625	281.688	0.109	-0.196
-358.610	-144.667	0.209	-0.019
-357.596	-9.989	-0.097	0.064
-356.581	-125.672	-0.273	0.041
-355.566	-70.214	-0.390	0.148
-354.552	-200.000	0.087	0.561
-353.537	-85.885	-0.229	-0.071
-352.523	-94.553	-0.312	-0.085
-351.508	710.303	-0.104	-0.276
-350.493	141.316	-0.122	-0.162
-349.479	205.784	0.177	-0.275
-348.464	-200.000	0.045	-0.275
-347.450	-17.971	0.070	0.044
-346.435	37.055	-0.098	-0.086
-345.420	-2.737	-0.280	0.195
-344.406	-60.444	-0.201	0.086
-343.391	44.891	0.411	-0.378
-342.377	100.544	0.111	-0.129
-341.362	-60.516	0.116	0.049
-340.348	12.368	0.081	-0.063
-339.333	-200.000	-0.036	-0.372
-338.318	-109.102	0.227	-0.048
-337.304	1.343	0.163	-0.117
-336.289	78.636	-0.214	-0.229
-335.275	-45.064	-0.192	0.095
-334.260	105.830	0.092	0.109
-333.245	-49.193	-0.219	-0.105
-332.231	3.771	-0.197	-0.144
-331.216	800.000	0.117	-0.355
-330.202	-74.126	0.098	0.036
-329.187	-79.977	-0.277	0.093
-328.172	-153.599	0.374	-0.026
-327.158	-200.000	-0.026	-0.167
-326.143	-130.132	-0.181	-0.025
-325.129	-200.000	-0.022	0.243
-324.114	-200.000	0.039	0.235
-323.099	-47.073	-0.260	0.126
-322.085	132.018	0.062	-0.080
-321.070	31.936	0.154	0.132
-320.056	512.614	0.007	-0.016
-319.041	-200.000	0.053	-0.293
-318.026	800.000	-0.138	0.495
-317.012	-200.000	0.022	0.146
-315.997	0.715	-0.267	-0.190
-314.983	-115.582	0.077	0.015
-313.968	342.983	0.050	0.097
-312.953	-106.377	-0.432	0.096
-311.939	302.163	-0.095	0.175
-310.924	800.000	0.014	-0.049
-309.910	-146.019	-0.225	-0.020
-308.895	-74.188	-0.284	0.103
-307.880	333.350	-0.127	0.244
-306.866	-75.541	-0.241	0.085
-305.851	800.000	-0.059	-0.176
-304.837	479.851	-0.045	-0.103
-303.822	-200.000	-0.019	0.088
-302.807	48.917	0.102	-0.096
-301.793	105.677	0.202	0.239
-300.778	460.020	-0.067	0.148
-299.764	-96.046	0.186	0.049
-298.749	145.529	0.089	0.119
-297.735	-200.000	-0.008	0.404
-296.720	140.432	-0.108	0.143
-295.705	800.000	-0.051	0.151
-294.691	-63.847	0.365	-0.149
-293.676	-59.462	-0.137	-0.059
-292.662	-121.431	0.285	-0.047
-291.647	62.400	-0.192	0.191
-290.632	113.438	0.077	0.093
-289.618	47.343	0.121	-0.112
-288.603	-123.209	0.066	0.010
-287.589	-33.019	-0.422	0.233
-286.574	-86.133	0.102	0.031
-285.559	-88.501	0.472	-0.140
-284.545	-172.398	0.214	0.007
-283.530	27.214	0.009	0.007
-282.516	102.020	-0.102	0.118
-281.501	26.883	-0.286	-0.239
-280.486	70.304	0.322	-0.331
-279.472	106.860	0.132	-0.156
-278.457	-200.000	0.005	-0.030
-277.443	18.788	-0.105	0.084
-276.428	-181.737	-0.377	0.007
-275.413	187.564	0.130	-0.194
-274.399	115.778	0.316	-0.385
-273.384	-200.000	0.019	-0.099
-272.370	-200.000	0.050	-0.285
-271.355	125.608	-0.167	0.210
-270.340	98.734	0.069	0.079
-269.326	122.401	-0.118	-0.147
-268.311	800.000	-0.116	0.396
-267.297	307.323	-0.030	-0.057
-266.282	800.000	-0.062	-0.175
-265.267	-200.000	-0.036	0.219
-264.253	-126.037	-0.174	0.026
-263.238	800.000	0.108	-0.307
-262.224	-134.792	-0.145	-0.018
-261.209	481.024	0.101	-0.227
-260.195	26.132	-0.138	0.115
-259.180	-144.399	-0.077	-0.007
-258.165	-200.000	-0.094	0.416
-257.151	-98.491	-0.267	0.068
-256.136	800.000	-0.097	0.388
-255.122	-34.249	0.263	-0.143
-254.107	-200.000	-0.015	0.444
-253.092	-94.766	0.327	0.088
-252.078	800.000	-0.098	0.359
-251.063	-172.878	-0.131	0.004
-250.049	173.786	0.173	-0.248
-249.034	800.000	-0.014	-0.039
-248.019	-200.000	0.059	0.295
-247.005	94.470	0.241	-0.272
-245.990	150.824	-0.089	-0.120
-244.976	165.875	-0.044	-0.061
-243.961	681.533	-0.031	0.081
-242.946	-200.000	-0.061	-0.321
-241.932	800.000	0.083	-0.306
-240.917	-99.530	0.067	0.017
-239.903	-115.400	0.400	-0.075
-238.888	249.546	-0.168	-0.283
-237.873	800.000	0.023	0.084
-236.859	-200.000	-0.005	0.273
-235.844	86.620	-0.140	-0.153
-234.830	672.634	0.136	-0.351
-233.815	38.403	0.029	0.026
-232.800	-37.208	0.507	0.270
-231.786	-200.000	-0.020	-0.265
-230.771	-98.541	-0.196	-0.050
-229.757	800.000	0.070	0.212
-228.742	-19.000	0.150	0.093
-227.727	-14.089	0.322	0.206
-226.713	-77.563	0.277	-0.096
-225.698	-71.340	0.482	0.180
-224.684	-200.000	-0.030	-0.187
-223.669	395.311	0.077	0.160
-222.655	-65.834	0.058	0.023
-221.640	-106.986	-0.147	-0.032
-220.625	6.406	-0.219	-0.162
-219.611	-195.447	0.026	-0.000
-218.596	-200.000	-0.017	0.130
-217.582	-200.000	-0.011	-0.073
-216.567	-109.814	0.066	0.014
-215.552	192.888	0.073	0.110
-214.538	195.062	0.377	0.568
-213.523	91.401	0.087	-0.097
-212.509	54.238	0.295	0.283
-211.494	42.169	0.082	-0.074
-210.479	800.000	-0.094	0.294
-209.465	411.322	0.026	0.055
-208.450	800.000	0.018	-0.051
-207.436	-200.000	-0.214	0.001
-206.421	126.325	-0.143	-0.180
-205.406	-200.000	0.005	-0.262
-204.392	-96.782	0.164	0.043
-203.377	60.214	0.195	-0.192
-202.363	800.000	-0.054	-0.152
-201.348	117.388	-0.179	-0.218
-200.333	568.342	0.093	-0.223
-199.319	240.487	0.094	-0.155
-198.304	7.746	0.130	0.097
-197.290	-200.000	0.006	0.145
-196.275	163.226	0.181	0.252
-195.260	434.210	0.047	-0.101
-194.246	-200.000	-0.056	-0.419
-193.231	100.899	0.218	0.252
-192.217	204.331	-0.171	-0.263
-191.202	-9.559	-0.415	0.275
-190.187	15.969	0.171	-0.134
-189.173	82.117	-0.298	0.320
-188.158	-14.978	-0.248	0.158
-187.144	-39.813	-0.281	-0.146
-186.129	-143.340	0.051	-0.005
-185.114	-150.865	0.110	0.008
-184.100	-200.000	-0.058	0.262
-183.085	800.000	-0.066	-0.260
-182.071	-174.645	0.146	-0.004
-181.056	266.228	-0.096	0.166
-180.042	177.930	0.186	0.269
-179.027	12.318	0.125	0.095
-178.012	800.000	0.057	-0.168
-176.998	-89.482	-0.136	0.040
-175.983	-200.000	-0.014	0.289
-174.969	-75.797	-0.178	0.063
-173.954	-200.000	-0.005	0.074
-172.939	-200.000	0.019	0.096
-171.925	-124.743	0.050	-0.008
-170.910	88.107	-0.047	0.052
-169.896	-60.490	-0.351	-0.148
-168.881	192.323	-0.139	-0.208
-167.866	800.000	-0.055	-0.155
-166.852	55.456	0.337	0.324
-165.837	428.107	-0.072	-0.153
-164.823	-200.000	-0.013	0.146
-163.808	26.977	-0.203	0.169
-162.793	268.721	-0.140	0.243
-161.779	800.000	-0.010	-0.031
-160.764	-200.000	0.006	0.146
-159.750	-200.000	0.051	0.269
-158.735	230.459	0.177	0.287
-157.720	70.401	0.115	0.118
-156.706	-150.044	0.107	0.008
-155.691	327.828	-0.065	-0.123
-154.677	800.000	0.039	0.156
-153.662	-82.030	0.146	0.047
-152.647	-37.576	-0.137	-0.072
-151.633	-200.000	0.041	-0.269
-150.618	13.205	0.262	-0.201
-149.604	800.000	-0.140	-0.484
-148.589	-200.000	-0.004	0.113
-147.574	64.964	0.195	0.195
-146.560	-10.263	0.148	-0.098
-145.545	-200.000	0.041	0.286
-144.531	-200.000	-0.012	0.158
-143.516	31.319	-0.020	0.017
-142.502	800.000	0.154	0.429
-141.487	-109.752	0.119	-0.025
-140.472	-116.290	-0.057	-0.010
-139.458	-200.000	-0.030	0.138
-138.443	-150.387	-0.073	-0.006
-137.429	-8.128	-0.088	0.059
-136.414	-200.000	0.014	0.329
-135.399	52.298	0.180	0.170
-134.385	-33.153	-0.069	0.038
-133.370	-196.606	-0.284	-0.002
-132.356	-124.576	0.146	0.023
-131.341	2.359	0.074	0.053
-130.326	5.357	-0.129	-0.094
-129.312	198.023	0.062	-0.094
-128.297	456.380	-0.012	-0.026
-127.283	-29.614	0.343	0.194
-126.268	103.424	-0.071	-0.083
-125.253	-113.995	0.232	-0.045
-124.239	-133.176	0.112	0.014
-123.224	-200.000	-0.052	-0.397
-122.210	249.258	-0.058	0.097
-121.195	800.000	0.096	-0.361
-120.180	-200.000	0.053	0.280
-119.166	71.014	0.184	0.189
-118.151	8.954	0.089	-0.066
-117.137	-200.000	-0.012	0.342
-116.122	728.177	-0.103	0.273
-115.107	-35.931	0.394	0.211
-114.093	-85.018	0.494	0.153
-113.078	-80.457	0.194	0.064
-112.064	60.866	-0.237	0.233
-111.049	-168.835	-0.317	-0.012
-110.034	615.848	-0.086	-0.215
-109.020	-1.469	-0.193	0.135
-108.005	96.785	0.328	0.372
-106.991	-92.421	-0.254	-0.071
-105.976	-39.324	0.304	-0.158
-104.962	349.527	0.082	-0.160
-103.947	-55.737	-0.202	0.089
-102.932	-200.000	-0.008	-0.048
-101.918	319.904	-0.133	0.250
-100.903	134.668	0.200	-0.257
-99.889	-200.000	-0.016	-0.148
-98.874	652.690	0.101	-0.257
-97.859	800.000	0.087	-0.256
-96.845	-200.000	-0.011	-0.202
-95.830	69.651	0.173	0.176
-94.816	-46.270	0.272	-0.132
-93.801	403.775	-0.096	0.200
-92.786	-200.000	-0.016	0.111
-91.772	-79.621	0.273	0.091
-90.757	800.000	0.076	-0.232
-89.743	800.000	-0.165	0.487
-88.728	-130.165	0.115	-0.016
-87.713	349.613	0.176	-0.343
-86.699	352.336	-0.117	-0.229
-85.684	-47.406	-0.040	0.019
-84.670	800.000	-0.055	0.175
-83.655	-16.822	-0.226	0.141
-82.640	-127.936	0.172	0.024
-81.626	-110.157	-0.160	0.033
-80.611	-136.049	-0.186	-0.022
-79.597	52.255	0.174	-0.164
-78.582	33.437	0.242	0.208
-77.567	-121.244	-0.289	0.048
-76.553	-200.000	-0.043	-0.202
-75.538	-42.578	0.048	-0.024
-74.524	-130.885	0.390	-0.052
-73.509	-168.787	0.206	0.008
-72.494	-200.000	0.044	-0.374
-71.480	69.144	-0.244	-0.248
-70.465	81.150	-0.192	0.205
-69.451	-4.707	0.170	-0.116
-68.436	-147.242	0.137	-0.012
-67.422	-10.929	0.080	-0.052
-66.407	-71.636	-0.240	-0.089
-65.392	333.130	0.064	0.122
-64.378	44.126	0.208	0.189
-63.363	-20.635	0.122	-0.074
-62.349	102.523	0.309	0.357
-61.334	76.458	-0.630	-0.660
-60.319	12.159	0.292	0.222
-59.305	-200.000	-0.215	-0.985
-58.290	94.313	0.731	0.820
-57.276	717.933	0.463	1.214
-56.261	-200.000	94.137	551.724
-55.246	616.783	1381.207	3422.688
-54.232	187.547	2602.873	3836.387
-53.217	116.951	2311.463	2803.405
-52.203	44.860	1923.647	1748.528
-51.188	38.363	1710.255	1504.730
-50.173	35.537	1664.877	1443.534
-49.159	52.400	1713.004	1614.169
-48.144	55.574	1731.162	1655.399
-47.130	38.035	1687.718	1482.172
-46.115	35.188	1672.600	1447.369
-45.100	34.956	1667.226	1440.912
-44.086	34.874	1664.854	1438.188
-43.071	34.867	1662.668	1436.188
-42.057	34.871	1660.253	1434.076
-41.042	34.905	1658.355	1432.633
-40.027	34.888	1656.289	1430.666
-39.013	34.850	1654.280	1428.594
-37.998	34.903	1652.895	1427.736
-36.984	34.970	1651.369	1426.856
-35.969	35.017	1650.056	1426.019
-34.954	35.132	1648.084	1425.115
-33.940	35.048	1646.297	1422.885
-32.925	35.025	1644.845	1421.403
-31.911	35.006	1642.915	1419.541
-30.896	35.008	1641.124	1417.953
-29.881	35.018	1639.935	1416.941
-28.867	34.979	1638.445	1415.311
-27.852	34.989	1636.578	1413.713
-26.838	35.042	1635.043	1412.725
-25.823	35.021	1633.659	1411.319
-24.809	35.144	1632.028	1410.757
-23.794	35.112	1630.589	1409.223
-22.779	35.082	1629.384	1407.907
-21.765	35.026	1627.949	1406.198
-20.750	35.038	1625.847	1404.412
-19.736	35.208	1624.218	1404.197
-18.721	35.038	1623.361	1402.155
-17.706	35.073	1621.675	1400.900
-16.692	35.031	1619.733	1398.860
-15.677	35.073	1618.479	1398.024
-14.663	35.075	1616.873	1396.599
-13.648	35.006	1615.922	1395.218
-12.633	35.103	1613.825	1394.057
-11.619	35.075	1612.679	1392.811
-10.604	35.070	1610.702	1391.014
-9.590	35.038	1609.720	1389.874
-8.575	35.031	1608.716	1388.902
-7.560	35.061	1607.054	1387.629
-6.546	34.979	1606.062	1386.127
-5.531	35.038	1604.830	1385.435
-4.517	34.964	1603.866	1384.012
-3.502	35.057	1602.977	1383.862
-2.487	35.118	1601.132	1382.655
-1.473	35.277	1591.039	1375.023
-0.458	33.331	1573.594	1346.072
0.556	32.250	1572.722	1312.501
1.571	29.045	1596.116	1309.149
2.586	27.537	1607.778	1307.782
3.600	23.660	1552.788	1236.009
4.615	14.498	1440.905	1087.373
5.629	6.435	1374.045	986.506
6.644	4.778	1365.794	970.178
7.659	4.810	1364.385	969.288
8.673	4.908	1363.222	968.987
9.688	4.854	1362.051	967.730
10.702	4.994	1359.266	966.539
11.717	8.716	1366.821	994.991
12.731	17.346	1382.537	1060.371
13.746	22.470	1389.933	1097.984
14.761	22.550	1388.626	1097.349
15.775	21.684	1386.476	1090.167
16.790	20.554	1384.181	1081.242
17.804	19.820	1381.797	1074.729
18.819	19.490	1380.321	1071.437
19.834	19.268	1379.692	1069.472
20.848	19.056	1378.682	1067.284
21.863	18.943	1376.862	1065.079
22.877	18.723	1376.323	1063.204
23.892	18.675	1375.151	1061.909
24.907	18.646	1374.569	1061.186
25.921	18.726	1373.247	1060.569
26.936	18.867	1372.072	1060.436
27.950	18.863	1371.736	1060.059
28.965	18.938	1370.104	1059.161
29.980	19.051	1369.126	1059.009
30.994	19.110	1368.160	1058.535
32.009	19.241	1366.844	1058.225
33.023	19.183	1366.128	1057.220
34.038	19.136	1364.385	1055.490
35.053	18.954	1363.440	1053.549
36.067	18.998	1362.019	1052.631
37.082	18.931	1361.263	1051.539
38.096	18.992	1360.388	1051.147
39.111	19.028	1359.608	1050.669
40.126	18.904	1358.693	1049.112
41.140	18.831	1357.043	1047.301
42.155	18.528	1356.721	1045.113
43.169	18.535	1356.278	1044.718
44.184	18.558	1356.071	1044.609
45.199	18.543	1355.899	1044.296
46.213	18.690	1355.332	1044.657
47.228	18.816	1354.669	1044.824
48.242	18.930	1353.541	1044.554
49.257	18.850	1351.964	1042.755
50.271	18.863	1350.521	1041.630
51.286	18.850	1350.063	1041.106
52.301	18.839	1348.471	1039.719
53.315	18.778	1347.136	1038.231
54.330	18.550	1346.245	1036.075
55.344	18.632	1344.732	1035.312
56.359	18.608	1343.728	1034.302
57.374	18.677	1342.541	1033.714
58.388	18.608	1341.680	1032.547
59.403	18.489	1341.474	1031.578
60.417	18.477	1340.550	1030.704
61.432	18.430	1339.765	1029.725
62.447	18.307	1338.646	1028.038
63.461	18.313	1337.709	1027.264
64.476	18.283	1336.335	1025.937
65.490	18.289	1335.248	1025.047
66.505	18.337	1333.635	1024.006
67.520	18.389	1332.486	1023.342
68.534	18.376	1331.500	1022.422
69.549	18.362	1330.426	1021.422
70.563	18.256	1329.752	1020.179
71.578	18.179	1328.429	1018.618
72.593	18.131	1327.279	1017.357
73.607	18.043	1326.766	1016.353
74.622	18.160	1326.110	1016.456
75.636	18.136	1325.396	1015.676
76.651	18.209	1324.784	1015.548
77.666	18.278	1324.503	1015.652
78.680	18.267	1324.079	1015.172
79.695	18.240	1323.847	1014.745
80.709	18.548	1322.732	1015.626
81.724	18.509	1321.914	1014.678
82.739	18.581	1321.070	1014.366
83.753	18.884	1320.069	1015.295
84.768	18.864	1319.574	1014.711
85.782	19.040	1318.520	1014.848
86.797	19.020	1317.055	1013.512
87.812	18.833	1316.250	1011.701
88.826	18.819	1315.310	1010.807
89.841	18.780	1314.120	1009.572
90.855	19.032	1312.882	1010.014
91.870	19.063	1312.096	1009.502
92.884	19.061	1311.145	1008.669
93.899	19.057	1310.819	1008.302
94.914	19.146	1309.775	1007.931
95.928	19.106	1308.896	1006.932
96.943	19.014	1308.101	1005.697
97.957	19.034	1307.125	1004.971
98.972	18.978	1306.060	1003.739
99.987	19.006	1305.592	1003.450
101.001	19.014	1304.261	1002.390
102.016	19.048	1303.274	1001.740
103.030	19.006	1302.398	1000.731
104.045	19.122	1301.307	1000.480
105.060	18.884	1299.973	997.986
106.074	18.594	1298.794	995.308
107.089	18.409	1297.234	992.951
108.103	18.392	1295.881	991.732
109.118	18.330	1294.718	990.392
110.133	18.286	1293.071	988.793
111.147	18.452	1292.012	988.854
112.162	18.396	1290.957	987.637
113.176	18.520	1289.935	987.481
114.191	18.570	1289.090	987.031
115.206	18.530	1288.067	985.935
116.220	18.515	1286.735	984.738
117.235	18.507	1285.567	983.713
118.249	18.394	1284.886	982.458
119.264	18.402	1283.370	981.255
120.279	18.278	1282.261	979.613
121.293	18.254	1281.144	978.538
122.308	18.269	1279.673	977.412
123.322	18.264	1279.046	976.815
124.337	18.154	1278.148	975.419
125.352	18.195	1276.486	974.296
126.366	18.192	1275.802	973.671
127.381	18.195	1274.554	972.649
128.395	18.240	1273.656	972.135
129.410	18.229	1272.849	971.370
130.424	18.355	1272.175	971.482
131.439	18.606	1270.969	971.897
132.454	18.488	1270.365	970.681
133.468	18.524	1269.323	970.007
134.483	18.479	1268.866	969.314
135.497	18.553	1267.593	968.674
136.512	18.560	1266.587	967.861
137.527	18.555	1265.021	966.551
138.541	18.633	1263.782	965.959
139.556	18.732	1262.761	965.645
140.570	18.782	1261.236	964.679
141.585	18.847	1260.879	964.684
142.600	18.961	1259.368	964.083
143.614	18.966	1259.123	963.839
144.629	19.014	1257.947	963.119
145.643	18.970	1256.769	961.886
146.658	18.870	1255.455	960.238
147.673	18.816	1253.527	958.375
148.687	18.673	1252.062	956.374
149.702	18.633	1250.776	955.083
150.716	18.537	1249.675	953.626
151.731	18.493	1248.539	952.428
152.746	18.599	1247.318	952.004
153.760	18.607	1246.628	951.436
154.775	18.771	1245.446	951.357
155.789	18.777	1244.178	950.341
156.804	18.778	1243.367	949.643
157.819	18.916	1242.509	949.664
158.833	18.957	1241.301	948.882
159.848	19.017	1241.034	948.928
160.862	19.130	1239.147	948.020
161.877	18.757	1238.297	945.232
162.892	18.624	1236.952	943.394
163.906	18.734	1235.832	943.058
164.921	18.615	1235.505	942.074
165.935	18.662	1234.751	941.676
166.950	18.790	1233.738	941.519
167.964	18.772	1232.999	940.775
168.979	18.693	1232.729	940.051
169.994	18.586	1231.939	938.779
171.008	18.883	1230.483	939.208
172.023	18.887	1230.322	939.024
173.037	19.041	1229.357	939.047
174.052	19.025	1228.469	938.201
175.067	18.737	1227.347	935.687
176.081	18.738	1226.202	934.742
177.096	18.692	1225.446	933.828
178.110	18.758	1224.190	933.151
179.125	18.628	1223.110	931.536
180.140	18.806	1222.035	931.599
181.154	18.842	1221.143	931.036
182.169	19.029	1219.797	930.938
183.183	18.991	1218.785	929.875
184.198	19.117	1217.630	929.596
185.213	19.044	1216.630	928.353
186.227	19.192	1215.113	927.914
187.242	19.210	1214.614	927.548
188.256	19.284	1213.301	926.857
189.271	19.385	1212.664	926.837
190.286	19.000	1211.612	923.878
191.300	18.649	1210.133	920.789
192.315	18.648	1208.895	919.761
193.329	18.617	1208.911	919.522
194.344	18.765	1207.969	919.517
195.359	18.830	1208.135	919.909
196.373	18.913	1207.447	919.747
197.388	19.049	1207.048	920.095
198.402	19.279	1206.511	920.828
199.417	19.364	1206.333	921.068
200.432	19.466	1205.662	921.016
201.446	19.519	1205.114	920.798
202.461	19.590	1204.008	920.255
203.475	19.536	1203.209	919.273
204.490	19.350	1201.742	917.081
205.504	19.181	1200.175	914.905
206.519	19.144	1199.066	913.781
207.534	19.217	1197.903	913.205
208.548	19.161	1196.890	912.054
209.563	19.180	1196.185	911.537
210.577	19.219	1194.986	910.748
211.592	19.339	1194.888	911.226
212.607	19.412	1194.035	910.882
213.621	19.404	1192.891	909.888
214.636	19.374	1191.834	908.842
215.650	19.473	1191.160	908.767
216.665	19.479	1190.556	908.261
217.680	19.537	1189.933	908.007
218.694	19.605	1189.382	907.865
219.709	19.732	1187.831	907.265
220.723	19.690	1187.029	906.352
221.738	19.608	1186.284	905.276
222.753	19.569	1185.788	904.614
223.767	19.621	1184.911	904.138
224.782	19.661	1184.779	904.163
225.796	19.840	1183.770	904.250
226.811	19.763	1183.021	903.196
227.826	19.597	1182.324	901.717
228.840	19.549	1181.612	900.845
229.855	19.501	1180.935	900.000
230.869	19.531	1179.982	899.350
231.884	19.517	1179.027	898.465
232.899	19.505	1177.817	897.401
233.913	19.352	1177.672	896.418
234.928	19.326	1176.846	895.577
235.942	19.184	1176.140	894.221
236.957	19.213	1175.190	893.570
237.972	19.357	1174.199	893.485
238.986	19.437	1173.593	893.358
240.001	19.440	1173.295	893.069
241.015	19.425	1172.461	892.275
242.030	19.470	1171.732	891.875
243.045	19.573	1170.731	891.566
244.059	19.652	1170.148	891.448
245.074	19.783	1169.048	891.208
246.088	19.654	1168.842	890.312
247.103	19.727	1168.317	890.208
248.117	19.875	1167.136	889.987
249.132	20.168	1166.620	891.020
250.147	20.160	1166.155	890.545
251.161	20.358	1165.610	891.069
252.176	20.303	1165.238	890.422
253.190	20.440	1164.085	890.167
254.205	20.435	1164.262	890.196
255.220	20.419	1163.326	889.321
256.234	20.349	1162.648	888.364
257.249	20.253	1162.355	887.573
258.263	20.491	1160.900	887.598
259.278	20.385	1160.008	886.295
260.293	20.390	1160.139	886.344
261.307	20.511	1159.281	886.227
262.322	20.550	1158.522	885.766
263.336	20.600	1157.881	885.451
264.351	20.559	1157.567	884.925
265.366	20.584	1157.153	884.658
266.380	20.598	1156.260	883.968
267.395	20.452	1155.126	882.282
268.409	20.471	1154.625	881.916
269.424	20.472	1153.577	881.044
270.439	20.474	1152.936	880.487
271.453	20.267	1152.261	878.843
272.468	20.272	1151.173	877.964
273.482	20.215	1150.298	876.928
274.497	20.309	1149.773	876.927
275.512	20.270	1149.396	876.364
276.526	20.265	1148.541	875.607
277.541	20.286	1147.745	875.029
278.555	20.430	1147.285	875.327
279.570	20.548	1146.403	875.173
280.585	20.590	1146.014	875.011
281.599	20.562	1145.365	874.293
282.614	20.396	1144.133	872.445
283.628	20.396	1142.864	871.398
284.643	20.482	1141.730	870.885
285.657	20.390	1141.138	869.901
286.672	20.364	1140.320	869.067
287.687	20.547	1139.391	869.198
288.701	20.436	1138.627	867.982
289.716	20.541	1137.706	867.731
290.730	20.517	1136.929	866.940
291.745	20.476	1136.597	866.405
292.760	20.591	1135.788	866.284
293.774	20.542	1135.258	865.561
294.789	20.573	1135.159	865.565
295.803	20.703	1134.180	865.385
296.818	20.664	1133.125	864.313
297.833	20.536	1132.311	862.976
298.847	20.613	1131.441	862.621
299.862	20.569	1131.002	861.992
300.876	20.709	1130.075	861.901
301.891	20.663	1129.436	861.110
302.906	20.803	1129.267	861.601
303.920	21.072	1128.182	862.024
304.935	21.052	1127.825	861.575
305.949	21.115	1127.120	861.273
306.964	21.059	1126.736	860.626
307.979	21.016	1125.486	859.382
308.993	20.885	1125.039	858.323
310.008	20.964	1124.080	857.904
311.022	21.003	1123.593	857.648
312.037	21.041	1122.600	856.997
313.052	20.816	1122.398	855.663
314.066	20.736	1120.562	853.794
315.081	20.761	1119.650	853.146
316.095	20.579	1119.324	851.932
317.110	20.656	1118.062	851.274
318.125	20.696	1117.335	850.838
319.139	20.641	1116.778	850.071
320.154	20.681	1116.324	849.845
321.168	20.705	1115.430	849.207
322.183	20.799	1114.842	849.143
323.197	20.823	1114.324	848.791
324.212	20.884	1113.751	848.578
325.227	20.825	1113.310	847.877
326.241	20.947	1112.507	847.787
327.256	20.826	1111.928	846.681
328.270	20.732	1111.025	845.462
329.285	20.783	1109.668	844.600
330.300	20.755	1108.926	843.828
331.314	20.755	1108.168	843.174
332.329	20.737	1106.946	842.084
333.343	20.762	1106.491	841.781
334.358	20.941	1105.810	842.055
335.373	21.064	1104.746	841.763
336.387	21.102	1104.087	841.369
337.402	21.151	1103.405	841.013
338.416	21.142	1102.994	840.584
339.431	21.113	1102.278	839.823
340.446	21.309	1102.111	840.563
341.460	21.314	1101.308	839.901
342.475	21.493	1100.190	839.835
343.489	21.623	1099.572	839.913
344.504	21.518	1099.019	838.913
345.519	21.589	1098.132	838.498
346.533	21.645	1096.938	837.782
347.548	21.686	1096.715	837.734
348.562	21.602	1095.377	836.237
349.577	21.415	1094.583	834.665
350.592	21.264	1093.433	832.992
351.606	21.139	1093.091	832.062
352.621	21.102	1092.162	831.104
353.635	21.166	1091.840	831.091
354.650	21.146	1090.598	829.977
355.665	21.212	1090.392	830.062
356.679	21.418	1089.100	829.981
357.694	21.183	1088.906	828.646
358.708	21.521	1088.431	829.812
359.723	21.537	1087.855	829.379
360.738	21.515	1087.029	828.569
361.752	21.390	1086.885	827.794
362.767	21.422	1085.711	826.976
363.781	21.570	1085.197	827.215
364.796	21.606	1084.973	827.138
365.810	21.730	1084.194	827.058
366.825	21.751	1083.862	826.831
367.840	21.875	1083.701	827.218
368.854	21.967	1082.895	826.965
369.869	21.932	1082.536	826.453
370.883	21.769	1081.203	824.596
371.898	21.783	1080.211	823.830
372.913	21.798	1079.861	823.563
373.927	21.806	1079.360	823.146
374.942	22.014	1078.681	823.531
375.956	21.934	1078.612	823.029
376.971	21.973	1077.385	822.203
377.986	21.976	1076.947	821.809
379.000	22.094	1076.556	821.992
380.015	22.177	1075.948	821.840
381.029	22.239	1075.254	821.527
382.044	22.126	1074.777	820.565
383.059	22.104	1073.872	819.696
384.073	22.017	1073.388	818.850
385.088	22.079	1072.463	818.361
386.102	22.120	1071.474	817.726
387.117	21.866	1070.325	815.595
388.132	21.861	1069.493	814.864
389.146	21.825	1068.681	814.007
390.161	21.849	1067.614	813.235
391.175	21.919	1066.726	812.810
392.190	21.987	1066.131	812.597
393.205	22.082	1065.686	812.627
394.219	22.065	1064.968	811.931
395.234	21.948	1064.115	810.667
396.248	21.942	1062.618	809.426
397.263	21.949	1061.988	808.906
398.278	21.824	1061.122	807.601
399.292	21.721	1060.471	806.558
400.307	21.874	1059.505	806.457
401.321	21.730	1059.056	805.385
402.336	21.698	1058.242	804.545
403.350	21.807	1057.342	804.292
404.365	21.684	1057.376	803.680
405.380	21.985	1056.064	803.989
406.394	22.026	1055.781	803.891
407.409	22.091	1054.962	803.493
408.423	22.185	1054.501	803.504
409.438	22.168	1053.683	802.732
410.453	22.373	1052.898	802.994
411.467	22.388	1052.388	802.606
412.482	22.402	1052.019	802.315
413.496	22.531	1051.020	802.071
414.511	22.503	1050.403	801.401
415.526	22.614	1050.508	801.915
416.540	22.744	1050.080	802.109
417.555	22.680	1049.284	801.141
418.569	22.587	1048.806	800.279
419.584	22.633	1048.043	799.835
420.599	22.545	1047.531	798.976
421.613	153.795	1400.073	1788.655
422.628	141.007	1451.454	1788.774
