DTS Sentinel unit serial number:	SN413079Multiplexer serial number:	ORYXHardware model number:	OX4-SRSoftware version number:	ORYX F/W v4.00 Oryx Data Collector v3.7.2.0data status	okinstallation	princeton_trtdifferential loss correction	single-endedforward channel	channel 2reverse channel	N/Adate	2019/09/18time	00:07:34forward acquisition time	60.00reverse acquisition time	0.00gamma	496.2192k internal	0.2349k external	0.2349temperature offset calibration	0.9984default loss term (dB/km)	0.3790temperature slope calibration	1.0000multiplexer offset coefficient	1.0000multiplexer slope coefficient	1.0000fibre end	0.00T internal ref (°C)	23.75T ext. ref 1 (°C)	0.17T ext. ref 2 (°C)	17.25length (m)	temperature (°C)	Stokes	anti-Stokes-747.200	43.644	0.201	-0.184
-746.185	-36.613	0.205	-0.110
-745.171	600.226	0.117	0.289
-744.156	-162.182	0.154	0.008
-743.142	-140.842	0.054	-0.006
-742.127	800.000	-0.071	0.224
-741.112	-200.000	0.046	-0.249
-740.098	90.691	-0.177	0.198
-739.083	136.779	0.082	-0.108
-738.069	800.000	-0.043	0.174
-737.054	229.699	-0.079	0.128
-736.039	14.977	-0.232	-0.182
-735.025	-81.637	0.260	0.085
-734.010	8.733	-0.038	-0.029
-732.996	85.350	-0.200	-0.219
-731.981	-169.216	-0.249	0.009
-730.966	198.647	-0.188	-0.288
-729.952	69.861	-0.342	-0.352
-728.937	28.938	-0.199	0.168
-727.923	102.173	-0.106	-0.124
-726.908	-123.086	-0.343	-0.055
-725.894	391.224	-0.061	-0.126
-724.879	-164.540	-0.343	0.016
-723.864	223.310	0.031	0.050
-722.850	-200.000	0.004	-0.020
-721.835	-200.000	0.023	-0.447
-720.821	-75.807	0.153	0.054
-719.806	-86.988	-0.153	0.047
-718.791	-10.527	-0.135	-0.089
-717.777	-20.002	0.110	-0.068
-716.762	-43.481	-0.358	-0.181
-715.748	107.274	-0.191	-0.227
-714.733	-94.195	-0.398	0.109
-713.718	48.848	-0.170	-0.159
-712.704	-27.742	-0.227	-0.131
-711.689	-200.000	0.007	0.069
-710.675	-185.209	0.055	0.001
-709.660	161.539	-0.047	0.066
-708.645	-1.251	0.296	-0.208
-707.631	-132.188	-0.139	0.018
-706.616	534.694	-0.094	-0.222
-705.602	-45.845	-0.100	-0.049
-704.587	-57.307	0.118	-0.052
-703.572	-37.546	0.405	-0.215
-702.558	-200.000	0.070	-0.316
-701.543	356.029	-0.188	-0.374
-700.529	-81.030	-0.116	0.038
-699.514	-112.642	0.175	0.035
-698.499	-120.179	0.180	0.031
-697.485	94.634	0.292	0.331
-696.470	-200.000	0.024	-0.229
-695.456	-116.679	-0.190	0.035
-694.441	-200.000	0.007	-0.042
-693.426	197.711	-0.089	0.136
-692.412	534.416	-0.156	-0.368
-691.397	154.941	0.115	-0.158
-690.383	-57.567	0.193	-0.084
-689.368	476.761	0.018	-0.042
-688.354	683.630	-0.034	0.089
-687.339	-200.000	0.005	0.275
-686.324	361.354	-0.085	-0.170
-685.310	-54.417	-0.241	-0.109
-684.295	-200.000	-0.008	-0.391
-683.281	-70.885	0.126	0.047
-682.266	9.443	-0.058	-0.043
-681.251	-200.000	0.034	-0.232
-680.237	68.464	-0.235	0.241
-679.222	-31.066	0.182	0.102
-678.208	257.925	-0.123	-0.211
-677.193	186.191	-0.134	-0.198
-676.178	800.000	-0.077	-0.230
-675.164	99.245	0.153	0.176
-674.149	517.631	-0.177	-0.412
-673.135	-200.000	-0.035	0.201
-672.120	50.962	-0.293	-0.276
-671.105	-83.759	0.268	0.085
-670.091	327.259	0.028	-0.053
-669.076	-150.447	-0.302	0.023
-668.062	-200.000	-0.042	0.251
-667.047	-143.736	0.217	0.020
-666.032	-84.870	-0.423	-0.132
-665.018	-114.967	0.263	0.050
-664.003	334.071	0.103	-0.199
-662.989	-79.001	-0.270	-0.091
-661.974	800.000	0.094	-0.368
-660.959	54.872	0.079	-0.075
-659.945	137.354	0.275	-0.358
-658.930	-75.321	0.076	-0.027
-657.916	-200.000	0.016	0.209
-656.901	214.745	-0.128	-0.202
-655.886	100.842	0.270	-0.312
-654.872	14.356	-0.246	-0.191
-653.857	-91.019	-0.205	0.059
-652.843	7.915	-0.124	0.093
-651.828	4.942	0.271	-0.198
-650.814	-72.423	-0.139	-0.051
-649.799	-200.000	-0.016	0.409
-648.784	-138.652	-0.188	0.020
-647.770	-126.160	-0.208	-0.031
-646.755	-200.000	-0.004	0.085
-645.741	-82.235	-0.131	0.043
-644.726	-3.605	-0.280	-0.194
-643.711	-64.783	0.062	-0.025
-642.697	186.713	-0.093	0.137
-641.682	-10.059	-0.202	-0.134
-640.668	-200.000	-0.004	0.303
-639.653	-200.000	-0.005	-0.181
-638.638	-21.125	0.357	0.217
-637.624	23.912	-0.163	0.134
-636.609	195.395	0.039	-0.059
-635.595	16.937	0.208	-0.164
-634.580	-100.767	0.492	0.121
-633.565	-60.015	0.295	-0.125
-632.551	-200.000	-0.007	0.108
-631.536	-98.624	-0.140	0.036
-630.522	800.000	-0.104	-0.398
-629.507	-22.586	-0.179	-0.108
-628.492	60.148	-0.256	0.251
-627.478	-62.529	0.220	0.091
-626.463	-200.000	0.002	0.228
-625.449	800.000	-0.024	-0.083
-624.434	-200.000	0.035	0.226
-623.419	264.738	0.046	-0.079
-622.405	-200.000	-0.018	0.108
-621.390	-30.801	0.342	0.192
-620.376	63.344	0.031	-0.030
-619.361	-200.000	0.037	-0.653
-618.346	-85.600	-0.334	0.103
-617.332	-200.000	-0.002	-0.076
-616.317	76.888	0.127	-0.135
-615.303	-94.985	-0.309	0.083
-614.288	-200.000	-0.033	-0.243
-613.273	-13.685	-0.182	0.117
-612.259	-85.760	-0.142	0.044
-611.244	673.437	0.051	-0.130
-610.230	692.877	0.053	0.137
-609.215	-49.910	0.124	0.058
-608.201	-80.583	0.139	0.046
-607.186	294.376	0.118	0.214
-606.171	146.333	0.045	-0.059
-605.157	-12.844	0.355	0.230
-604.142	800.000	0.013	-0.054
-603.128	770.941	0.144	0.390
-602.113	-139.174	0.379	0.041
-601.098	-200.000	-0.020	-0.326
-600.084	800.000	0.057	0.212
-599.069	-39.124	0.366	-0.191
-598.055	800.000	-0.076	0.239
-597.040	-78.631	-0.223	0.076
-596.025	-200.000	0.009	-0.117
-595.011	-188.448	0.122	-0.002
-593.996	223.604	0.251	0.403
-592.982	-200.000	-0.020	-0.208
-591.967	-200.000	-0.098	-0.557
-590.952	3.155	0.133	0.096
-589.938	-159.681	0.127	-0.007
-588.923	236.234	0.133	-0.218
-587.909	-98.469	0.249	-0.063
-586.894	800.000	-0.060	-0.164
-585.879	-9.322	0.101	-0.067
-584.865	-17.953	-0.094	-0.059
-583.850	51.301	-0.121	0.114
-582.836	-140.976	0.294	0.030
-581.821	-128.741	-0.129	0.018
-580.806	-74.453	-0.321	0.115
-579.792	303.598	-0.132	0.242
-578.777	-200.000	-0.070	-0.319
-577.763	800.000	-0.067	-0.184
-576.748	367.428	0.039	-0.078
-575.733	-200.000	0.026	0.150
-574.719	-55.096	0.205	-0.092
-573.704	14.976	0.147	-0.114
-572.690	-200.000	0.010	-0.198
-571.675	62.939	-0.153	-0.152
-570.661	-153.931	-0.400	0.027
-569.646	376.460	-0.104	0.211
-568.631	-68.412	0.154	0.059
-567.617	-117.002	0.349	0.063
-566.602	-76.663	0.269	-0.094
-565.588	-200.000	0.194	-0.000
-564.573	42.848	-0.070	0.063
-563.558	783.524	0.121	-0.329
-562.544	-127.248	0.201	0.029
-561.529	-200.000	-0.015	-0.297
-560.515	-200.000	0.019	-0.336
-559.500	-105.002	0.434	-0.099
-558.485	177.144	-0.079	0.113
-557.471	23.271	-0.118	0.096
-556.456	-97.343	0.120	-0.031
-555.442	-200.000	0.001	-0.067
-554.427	-186.169	-0.018	0.000
-553.412	800.000	-0.095	0.266
-552.398	27.498	0.162	0.135
-551.383	40.759	0.306	-0.273
-550.369	800.000	0.068	-0.203
-549.354	-57.965	-0.247	-0.107
-548.339	-121.328	-0.281	0.047
-547.325	4.735	0.098	0.071
-546.310	-200.000	-0.013	0.183
-545.296	-104.292	-0.127	-0.029
-544.281	-200.000	-0.107	-0.509
-543.266	-28.690	-0.208	-0.118
-542.252	-200.000	-0.028	-0.214
-541.237	-21.684	-0.175	-0.105
-540.223	206.578	-0.117	-0.180
-539.208	77.956	0.214	-0.226
-538.193	-200.000	0.021	0.364
-537.179	-139.026	-0.394	0.042
-536.164	373.724	0.203	0.410
-535.150	641.877	-0.055	0.139
-534.135	-111.717	0.274	0.055
-533.121	-85.073	0.137	0.042
-532.106	-58.611	-0.291	-0.125
-531.091	-69.719	0.105	-0.040
-530.077	324.117	0.094	-0.177
-529.062	13.201	0.143	-0.110
-528.048	272.144	-0.124	-0.216
-527.033	77.978	-0.150	-0.159
-526.018	0.423	0.152	0.107
-525.004	688.376	-0.133	-0.344
-523.989	-88.302	0.308	-0.091
-522.975	4.832	-0.108	0.078
-521.960	273.420	0.104	-0.183
-520.945	310.310	0.051	-0.094
-519.931	9.541	-0.117	-0.087
-518.916	80.078	-0.066	0.070
-517.902	-75.574	-0.364	0.128
-516.887	258.519	-0.177	-0.302
-515.872	-157.338	0.355	-0.021
-514.858	-49.087	0.443	0.210
-513.843	585.800	-0.057	-0.139
-512.829	346.891	-0.036	0.070
-511.814	-144.104	-0.286	0.027
-510.799	89.607	-0.072	0.080
-509.785	-124.435	-0.106	0.016
-508.770	-119.849	0.179	-0.030
-507.756	-70.315	-0.161	0.060
-506.741	-50.684	0.183	0.085
-505.726	-200.000	0.007	0.325
-504.712	-75.208	0.155	0.055
-503.697	-47.221	0.202	0.097
-502.683	-200.000	0.007	-0.297
-501.668	800.000	0.082	-0.302
-500.653	221.871	0.170	-0.270
-499.639	37.352	-0.021	0.018
-498.624	-13.831	0.233	0.149
-497.610	800.000	0.072	-0.223
-496.595	800.000	0.073	-0.218
-495.581	24.644	0.099	0.081
-494.566	-42.997	0.342	0.171
-493.551	-112.874	0.225	0.044
-492.537	88.893	-0.302	0.332
-491.522	72.119	0.091	-0.094
-490.508	800.000	0.090	0.354
-489.493	800.000	0.007	-0.020
-488.478	-200.000	0.001	-0.170
-487.464	396.030	-0.082	-0.170
-486.449	77.778	0.134	0.141
-485.435	119.500	0.122	-0.149
-484.420	402.795	0.031	-0.065
-483.405	127.106	0.032	-0.040
-482.391	800.000	-0.109	0.448
-481.376	800.000	0.033	-0.090
-480.362	-103.810	0.211	0.049
-479.347	800.000	0.046	-0.168
-478.332	800.000	0.050	0.189
-477.318	-156.074	0.234	0.015
-476.303	19.859	0.077	-0.061
-475.289	188.145	0.138	0.204
-474.274	-200.000	0.006	0.108
-473.259	-84.725	0.310	0.096
-472.245	-65.874	-0.229	-0.090
-471.230	578.575	-0.090	0.218
-470.216	-138.496	-0.306	0.033
-469.201	-63.556	0.321	-0.130
-468.186	-200.000	0.036	0.216
-467.172	-74.652	0.523	-0.186
-466.157	196.744	0.138	0.208
-465.143	-200.000	0.024	0.205
-464.128	-46.356	-0.067	-0.032
-463.113	-122.012	-0.185	0.030
-462.099	68.688	-0.215	-0.218
-461.084	-200.000	0.006	-0.052
-460.070	-135.444	-0.150	-0.018
-459.055	-200.000	0.006	-0.046
-458.040	-71.625	0.226	-0.083
-457.026	-112.345	-0.177	-0.035
-456.011	-55.805	0.136	-0.060
-454.997	-72.598	-0.140	-0.051
-453.982	46.293	-0.186	-0.170
-452.968	-57.996	0.221	0.095
-451.953	800.000	0.080	0.322
-450.938	-17.925	0.199	0.123
-449.924	-200.000	0.026	-0.241
-448.909	-41.864	-0.379	-0.192
-447.895	71.719	-0.226	0.232
-446.880	397.525	-0.022	-0.046
-445.865	251.936	-0.094	0.158
-444.851	-53.075	-0.146	0.066
-443.836	37.578	-0.138	-0.121
-442.822	-160.891	0.226	-0.012
-441.807	800.000	0.044	0.178
-440.792	203.947	-0.133	-0.203
-439.778	-101.434	0.200	0.048
-438.763	-30.483	-0.163	0.091
-437.749	142.909	-0.095	0.125
-436.734	28.196	-0.119	-0.099
-435.719	-172.679	-0.345	0.011
-434.705	0.702	-0.172	0.122
-433.690	-154.034	-0.212	0.014
-432.676	-0.221	-0.328	-0.230
-431.661	-200.000	-0.012	0.091
-430.646	-150.562	-0.182	0.014
-429.632	-37.193	-0.165	0.087
-428.617	-31.561	0.132	-0.073
-427.603	364.578	-0.036	0.071
-426.588	71.620	0.051	0.053
-425.573	58.051	-0.185	0.179
-424.559	73.346	-0.205	-0.212
-423.544	189.584	-0.045	-0.066
-422.530	3.701	-0.036	-0.026
-421.515	28.600	-0.175	0.146
-420.500	-200.000	0.042	-0.438
-419.486	-200.000	-0.066	0.610
-418.471	-112.304	-0.142	-0.028
-417.457	-200.000	0.006	-0.175
-416.442	-109.439	0.206	-0.043
-415.428	769.203	-0.111	0.298
-414.413	27.977	0.121	0.101
-413.398	24.587	-0.176	0.144
-412.384	33.892	-0.073	-0.062
-411.369	-111.515	0.171	0.034
-410.355	800.000	0.035	0.099
-409.340	-15.332	-0.180	0.114
-408.325	190.982	-0.138	-0.205
-407.311	-65.868	0.121	0.048
-406.296	-64.241	-0.336	0.135
-405.282	-81.219	-0.045	-0.015
-404.267	-200.000	0.036	0.555
-403.252	194.163	0.189	-0.283
-402.238	-163.113	-0.339	0.016
-401.223	800.000	0.028	-0.098
-400.209	-174.830	-0.383	0.011
-399.194	-200.000	-0.025	-0.297
-398.179	127.816	-0.285	-0.356
-397.165	-130.197	0.191	-0.026
-396.150	13.480	-0.325	-0.249
-395.136	-29.707	-0.158	0.089
-394.121	-18.939	-0.086	-0.053
-393.106	-35.782	-0.339	0.181
-392.092	-138.783	-0.107	-0.011
-391.077	12.494	-0.149	0.113
-390.063	-200.000	-0.044	0.367
-389.048	-6.473	-0.228	-0.153
-388.033	33.020	0.089	0.076
-387.019	-200.000	0.027	0.149
-386.004	-63.001	0.075	0.030
-384.990	68.995	-0.083	0.084
-383.975	800.000	-0.083	0.294
-382.960	81.169	0.071	0.075
-381.946	-200.000	0.014	0.107
-380.931	99.292	0.192	0.219
-379.917	49.913	0.122	-0.114
-378.902	-131.548	0.129	0.017
-377.888	50.971	-0.201	-0.188
-376.873	-200.000	0.001	-0.130
-375.858	-19.208	0.278	0.170
-374.844	-200.000	0.075	-0.349
-373.829	-63.733	0.179	0.072
-372.815	268.426	-0.114	0.197
-371.800	-8.576	-0.097	-0.064
-370.785	-45.656	0.351	0.171
-369.771	-53.950	0.391	0.175
-368.756	235.880	-0.088	-0.144
-367.742	-200.000	-0.019	-0.109
-366.727	43.703	0.353	-0.318
-365.712	-67.608	-0.269	0.104
-364.698	-173.005	-0.517	0.016
-363.683	-64.189	0.191	0.077
-362.669	264.306	-0.288	0.494
-361.654	-200.000	-0.020	0.113
-360.639	-110.964	-0.360	-0.073
-359.625	-30.377	-0.137	-0.076
-358.610	-35.601	0.264	0.141
-357.596	-200.000	-0.008	0.322
-356.581	-36.480	-0.122	-0.065
-355.566	164.788	0.119	-0.164
-354.552	164.605	-0.253	0.351
-353.537	297.318	-0.028	-0.050
-352.523	-200.000	0.000	0.021
-351.508	800.000	-0.174	0.539
-350.493	-57.816	0.406	-0.175
-349.479	-105.358	-0.243	-0.054
-348.464	-200.000	-0.013	-0.190
-347.450	-200.000	-0.028	0.153
-346.435	243.676	0.167	0.275
-345.420	-200.000	-0.022	-0.117
-344.406	-101.988	0.288	0.068
-343.391	10.936	0.255	0.191
-342.377	-11.036	-0.087	-0.056
-341.362	88.644	0.080	-0.087
-340.348	-137.931	-0.034	0.004
-339.333	-200.000	0.004	0.214
-338.318	-147.819	0.330	-0.027
-337.304	-107.510	0.320	0.069
-336.289	-200.000	-0.029	-0.230
-335.275	-200.000	-0.032	0.358
-334.260	-76.624	-0.175	0.060
-333.245	-104.409	-0.034	0.008
-332.231	-200.000	-0.030	-0.192
-331.216	1.801	-0.186	-0.132
-330.202	-102.057	-0.162	0.038
-329.187	-200.000	-0.034	-0.231
-328.172	-200.000	-0.039	-0.336
-327.158	198.714	-0.069	0.104
-326.143	42.247	-0.234	-0.209
-325.129	646.382	-0.117	0.293
-324.114	-97.343	-0.296	0.076
-323.099	800.000	-0.063	-0.231
-322.085	-4.122	0.081	-0.055
-321.070	-200.000	-0.030	0.194
-320.056	800.000	0.031	-0.110
-319.041	-113.844	0.180	0.034
-318.026	800.000	-0.121	-0.353
-317.012	-170.420	-0.273	-0.009
-315.997	800.000	0.125	-0.365
-314.983	84.671	-0.059	0.063
-313.968	-153.273	-0.201	-0.014
-312.953	-15.008	0.190	0.119
-311.939	800.000	0.060	-0.196
-310.924	-105.077	0.091	0.020
-309.910	-7.010	0.174	0.116
-308.895	-0.023	-0.011	0.008
-307.880	452.597	-0.103	-0.225
-306.866	-80.269	-0.260	-0.085
-305.851	81.822	0.080	0.086
-304.837	36.534	-0.017	-0.015
-303.822	-200.000	0.036	-0.211
-302.807	-200.000	-0.024	-0.135
-301.793	-40.004	0.021	-0.011
-300.778	800.000	-0.091	-0.351
-299.764	-70.791	0.462	0.171
-298.749	66.576	0.228	-0.227
-297.735	-200.000	-0.029	0.158
-296.720	800.000	-0.133	0.420
-295.705	-47.041	0.113	0.054
-294.691	-141.435	-0.200	-0.020
-293.676	13.884	0.126	-0.096
-292.662	800.000	-0.060	0.202
-291.647	-40.671	0.269	-0.137
-290.632	-200.000	-0.043	-0.196
-289.618	-184.602	-0.057	-0.001
-288.603	195.482	0.074	0.111
-287.589	-140.903	0.166	-0.017
-286.574	543.470	0.097	0.226
-285.559	-82.910	-0.072	0.023
-284.545	-48.724	-0.160	0.075
-283.530	560.449	-0.139	0.329
-282.516	-61.446	0.273	-0.113
-281.501	-200.000	0.049	-0.271
-280.486	71.765	-0.227	0.231
-279.472	-14.352	0.286	0.181
-278.457	-40.733	-0.125	0.063
-277.443	6.257	0.261	-0.190
-276.428	374.815	-0.136	0.272
-275.413	1.914	0.215	0.152
-274.399	-200.000	0.036	0.232
-273.384	427.124	-0.170	0.361
-272.370	152.486	0.138	0.184
-271.355	345.651	0.039	-0.076
-270.340	-88.213	-0.118	-0.035
-269.326	-107.706	-0.060	0.013
-268.311	624.392	0.119	-0.294
-267.297	-200.000	-0.051	0.416
-266.282	16.754	0.224	0.174
-265.267	-166.817	-0.404	0.016
-264.253	-200.000	-0.021	0.139
-263.238	122.532	0.053	-0.066
-262.224	-200.000	-0.002	0.249
-261.209	-88.482	-0.080	0.023
-260.195	-122.588	0.333	-0.053
-259.180	217.896	0.175	-0.273
-258.165	-69.721	-0.138	-0.052
-257.151	-132.968	-0.405	-0.050
-256.136	-200.000	-0.018	-0.130
-255.122	4.902	-0.124	0.089
-254.107	-200.000	0.025	0.515
-253.092	-200.000	-0.051	0.234
-252.078	-95.650	-0.146	0.038
-251.063	361.648	0.081	-0.159
-250.049	-200.000	0.031	0.193
-249.034	89.084	-0.253	0.276
-248.019	526.418	0.032	0.074
-247.005	404.716	0.089	-0.184
-245.990	-33.677	0.371	-0.201
-244.976	-37.473	0.092	0.048
-243.961	800.000	0.071	-0.212
-242.946	53.237	-0.092	0.086
-241.932	669.379	0.036	0.091
-240.917	315.447	0.092	-0.171
-239.903	-200.000	0.004	0.021
-238.888	-10.934	0.164	-0.106
-237.873	-200.000	-0.030	-0.229
-236.859	445.959	0.224	-0.483
-235.844	174.416	-0.032	0.045
-234.830	-179.934	0.029	-0.001
-233.815	-32.346	0.132	-0.072
-232.800	0.127	0.069	-0.048
-231.786	-110.626	-0.296	0.060
-230.771	-42.304	-0.073	-0.036
-229.757	392.143	-0.048	0.097
-228.742	-88.080	-0.454	0.133
-227.727	-200.000	0.024	0.126
-226.713	-145.312	0.109	-0.010
-225.698	-100.669	-0.143	-0.034
-224.684	-115.338	-0.194	0.036
-223.669	700.646	0.077	0.198
-222.655	370.613	0.132	0.262
-221.640	-70.769	-0.252	0.093
-220.625	-67.420	-0.139	-0.053
-219.611	-200.000	-0.028	0.250
-218.596	-117.258	-0.189	0.034
-217.582	800.000	0.053	0.168
-216.567	-45.663	-0.098	-0.047
-215.552	57.326	0.021	0.020
-214.538	70.803	-0.135	0.137
-213.523	-114.618	-0.253	-0.047
-212.509	-107.499	-0.182	-0.039
-211.494	82.667	0.180	-0.191
-210.479	104.420	0.154	0.177
-209.465	-82.589	-0.310	-0.098
-208.450	205.572	-0.187	-0.284
-207.436	-200.000	0.070	-0.334
-206.421	-17.811	0.193	-0.118
-205.406	323.882	0.143	-0.267
-204.392	-141.198	0.013	0.001
-203.377	-7.485	-0.152	-0.100
-202.363	800.000	0.058	-0.207
-201.348	-33.754	-0.102	0.055
-200.333	800.000	-0.053	0.152
-199.319	790.374	0.055	0.147
-198.304	-200.000	-0.002	0.214
-197.290	121.074	0.096	0.117
-196.275	60.365	-0.165	-0.160
-195.260	449.728	-0.120	0.258
-194.246	-107.235	0.402	0.086
-193.231	-200.000	-0.021	-0.101
-192.217	-155.281	0.165	0.011
-191.202	-11.136	-0.142	-0.092
-190.187	88.281	-0.268	-0.291
-189.173	800.000	0.039	-0.143
-188.158	170.738	0.037	-0.052
-187.144	-154.929	-0.169	-0.011
-186.129	-124.880	-0.138	-0.021
-185.114	800.000	0.042	0.144
-184.100	-162.154	-0.264	-0.013
-183.085	-200.000	0.006	-0.296
-182.071	335.392	0.125	-0.237
-181.056	2.366	-0.290	-0.205
-180.042	-108.392	-0.077	0.016
-179.027	-54.223	0.253	0.112
-178.012	-145.648	-0.404	-0.035
-176.998	-121.826	-0.069	-0.011
-175.983	-143.202	0.368	-0.035
-174.969	800.000	0.168	-0.569
-173.954	-19.767	-0.062	0.037
-172.939	230.316	0.119	0.190
-171.925	800.000	0.101	-0.302
-170.910	-200.000	-0.021	-0.234
-169.896	-200.000	-0.001	-0.117
-168.881	-124.242	-0.188	-0.029
-167.866	800.000	-0.098	-0.329
-166.852	77.148	0.368	0.382
-165.837	-82.895	-0.147	-0.046
-164.823	-200.000	0.024	-0.279
-163.808	478.926	-0.078	-0.173
-162.793	63.174	-0.124	0.121
-161.779	-44.110	0.162	-0.079
-160.764	800.000	0.070	-0.287
-159.750	-3.407	0.292	0.199
-158.735	135.198	0.131	0.166
-157.720	-164.676	0.306	-0.014
-156.706	27.914	0.163	0.134
-155.691	556.840	0.033	0.079
-154.677	-53.664	0.105	0.047
-153.662	20.520	0.198	-0.156
-152.647	576.293	0.105	0.251
-151.633	216.767	0.049	-0.076
-150.618	8.906	0.298	0.219
-149.604	420.803	0.165	-0.345
-148.589	8.342	-0.082	-0.060
-147.574	-200.000	-0.011	-0.318
-146.560	-54.692	0.105	0.046
-145.545	-62.218	0.139	0.056
-144.531	-22.339	-0.263	0.156
-143.516	-200.000	-0.008	0.278
-142.502	187.845	0.096	0.140
-141.487	-200.000	-0.014	0.337
-140.472	325.571	-0.030	-0.057
-139.458	130.785	-0.112	0.140
-138.443	216.984	-0.104	0.161
-137.429	116.962	-0.170	0.204
-136.414	800.000	-0.009	0.035
-135.399	-200.000	-0.046	0.427
-134.385	-39.549	0.134	-0.068
-133.370	690.730	-0.134	-0.342
-132.356	-22.654	-0.121	-0.071
-131.341	-17.715	-0.067	0.041
-130.326	-200.000	-0.049	0.256
-129.312	226.835	-0.162	-0.256
-128.297	-50.685	0.139	-0.064
-127.283	322.371	-0.143	-0.266
-126.268	250.885	0.155	-0.257
-125.253	111.171	0.316	0.371
-124.239	-79.116	0.172	0.057
-123.224	-178.606	-0.330	0.007
-122.210	-35.181	-0.351	-0.186
-121.195	-200.000	-0.003	-0.113
-120.180	170.014	-0.157	-0.219
-119.166	-20.536	-0.154	-0.092
-118.151	800.000	0.028	-0.108
-117.137	-200.000	0.029	0.220
-116.122	151.387	0.191	0.254
-115.107	181.233	-0.136	0.195
-114.093	35.978	0.345	0.296
-113.078	-19.741	0.191	-0.115
-112.064	800.000	-0.042	0.174
-111.049	-79.732	0.182	0.060
-110.034	116.952	-0.257	-0.307
-109.020	-11.385	0.164	-0.105
-108.005	-200.000	0.007	-0.216
-106.991	-22.120	-0.219	-0.130
-105.976	800.000	-0.070	0.246
-104.962	9.086	0.127	-0.093
-103.947	20.771	0.097	-0.076
-102.932	-147.651	0.343	-0.028
-101.918	-84.276	0.258	0.080
-100.903	330.281	0.071	0.133
-99.889	800.000	-0.045	-0.121
-98.874	218.338	-0.125	0.194
-97.859	-200.000	-0.039	0.328
-96.845	-182.776	0.059	-0.001
-95.830	38.445	-0.057	0.050
-94.816	172.155	-0.077	0.108
-93.801	-200.000	-0.020	0.130
-92.786	68.866	-0.277	0.277
-91.772	-182.485	0.089	0.002
-90.757	-200.000	-0.040	-0.244
-89.743	-200.000	-0.021	0.170
-88.728	731.816	0.015	-0.040
-87.713	-12.066	0.217	0.139
-86.699	-127.630	-0.446	0.063
-85.684	800.000	-0.036	-0.119
-84.670	35.894	-0.130	0.112
-83.655	285.455	0.176	0.309
-82.640	-200.000	0.064	0.363
-81.626	800.000	-0.066	-0.226
-80.611	257.208	0.098	-0.164
-79.597	800.000	-0.024	0.090
-78.582	-97.907	-0.305	-0.077
-77.567	-96.156	0.231	0.060
-76.553	-29.361	-0.151	0.084
-75.538	800.000	-0.053	0.216
-74.524	-200.000	0.033	0.183
-73.509	-63.280	0.141	0.056
-72.494	-179.146	0.157	0.003
-71.480	-48.111	0.051	-0.024
-70.465	271.160	0.093	0.160
-69.451	-146.269	-0.291	-0.025
-68.436	123.537	0.085	0.104
-67.422	-182.660	0.329	-0.006
-66.407	-200.000	0.052	-0.257
-65.392	190.327	0.083	-0.121
-64.378	7.344	0.076	-0.055
-63.363	800.000	0.041	-0.156
-62.349	61.062	-0.279	-0.270
-61.334	139.887	-1.191	-1.526
-60.319	138.543	0.517	0.659
-59.305	308.219	-0.760	-1.379
-58.290	397.655	0.632	1.285
-57.276	620.894	0.651	1.593
-56.261	-200.000	122.748	661.115
-55.246	446.838	1538.856	3290.573
-54.232	147.928	2696.189	3534.516
-53.217	92.724	2277.056	2498.712
-52.203	32.820	1893.012	1592.788
-51.188	26.810	1690.753	1377.068
-50.173	24.634	1652.329	1329.551
-49.159	46.024	1720.650	1548.044
-48.144	43.849	1732.516	1542.119
-47.130	26.332	1684.062	1367.783
-46.115	23.800	1668.910	1336.408
-45.100	23.682	1663.734	1331.327
-44.086	23.716	1661.479	1329.725
-43.071	23.657	1658.816	1327.101
-42.057	23.594	1656.993	1325.117
-41.042	23.595	1655.094	1323.559
-40.027	23.626	1653.153	1322.180
-39.013	23.630	1651.186	1320.586
-37.998	23.543	1649.693	1318.695
-36.984	23.617	1648.708	1318.406
-35.969	23.759	1646.924	1317.976
-34.954	23.760	1645.346	1316.669
-33.940	23.703	1643.648	1314.835
-32.925	23.739	1641.775	1313.553
-31.911	23.699	1640.773	1312.402
-30.896	23.688	1638.792	1310.685
-29.881	23.683	1637.516	1309.572
-28.867	23.763	1635.713	1308.673
-27.852	23.805	1634.291	1307.792
-26.838	23.787	1632.271	1305.991
-25.823	23.772	1631.471	1305.189
-24.809	23.749	1630.500	1304.194
-23.794	23.712	1629.174	1302.810
-22.779	23.742	1627.277	1301.457
-21.765	23.792	1625.736	1300.537
-20.750	23.817	1624.067	1299.337
-19.736	23.856	1622.793	1298.549
-18.721	23.728	1622.078	1296.988
-17.706	23.797	1620.204	1295.946
-16.692	23.725	1618.708	1294.173
-15.677	23.739	1616.779	1292.678
-14.663	23.785	1615.929	1292.288
-13.648	23.897	1614.146	1291.618
-12.633	23.841	1612.926	1290.189
-11.619	23.839	1611.311	1288.827
-10.604	23.796	1609.871	1287.311
-9.590	23.823	1608.412	1286.295
-8.575	23.777	1607.509	1285.190
-7.560	23.825	1606.347	1284.550
-6.546	23.828	1605.097	1283.527
-5.531	23.726	1604.890	1282.574
-4.517	23.831	1602.921	1281.707
-3.502	23.793	1601.421	1280.182
-2.487	23.916	1600.153	1280.001
-1.473	23.359	1588.031	1266.274
-0.458	20.434	1569.054	1230.403
0.556	15.212	1571.017	1198.538
1.571	13.000	1595.400	1200.954
2.586	12.756	1607.820	1208.407
3.600	11.683	1553.438	1159.819
4.615	6.518	1447.476	1046.394
5.629	1.198	1389.491	970.422
6.644	0.266	1381.797	959.028
7.659	0.201	1380.653	957.739
8.673	0.094	1380.450	956.829
9.688	0.119	1378.053	955.247
10.702	0.009	1374.492	951.992
11.717	2.630	1378.052	970.994
12.731	9.493	1388.419	1021.900
13.746	15.201	1397.346	1064.748
14.761	16.780	1398.691	1075.712
15.775	16.275	1396.419	1070.667
16.790	15.267	1393.770	1062.158
17.804	14.534	1391.258	1055.512
18.819	14.047	1390.676	1051.900
19.834	13.916	1389.295	1049.933
20.848	13.729	1387.823	1047.546
21.863	13.399	1386.677	1044.502
22.877	13.234	1385.425	1042.428
23.892	13.139	1384.288	1040.884
24.907	13.127	1383.764	1040.319
25.921	13.207	1382.680	1039.916
26.936	13.246	1381.905	1039.487
27.950	13.291	1380.739	1038.801
28.965	13.269	1380.034	1038.042
29.980	13.372	1378.848	1037.702
30.994	13.391	1378.017	1037.108
32.009	13.267	1377.502	1035.850
33.023	13.319	1376.389	1035.246
34.038	13.293	1375.148	1034.059
35.053	13.310	1373.752	1033.026
36.067	13.334	1372.368	1032.040
37.082	13.358	1371.465	1031.420
38.096	13.331	1371.105	1030.891
39.111	13.446	1369.504	1030.312
40.126	13.304	1368.864	1028.853
41.140	13.208	1368.183	1027.657
42.155	13.276	1367.497	1027.473
43.169	13.250	1367.643	1027.330
44.184	13.086	1367.439	1026.066
45.199	13.237	1366.401	1026.134
46.213	13.135	1366.663	1025.602
47.228	13.288	1365.360	1025.484
48.242	13.285	1364.002	1024.359
49.257	13.362	1362.384	1023.527
50.271	13.314	1360.800	1021.950
51.286	13.295	1359.773	1020.970
52.301	13.275	1358.439	1019.756
53.315	13.317	1357.113	1018.931
54.330	13.210	1356.610	1017.802
55.344	13.302	1355.070	1017.121
56.359	13.198	1354.281	1015.798
57.374	13.250	1353.119	1015.158
58.388	13.119	1352.672	1013.928
59.403	13.145	1352.075	1013.553
60.417	13.091	1351.093	1012.393
61.432	13.168	1349.816	1011.823
62.447	13.073	1349.400	1010.838
63.461	13.079	1347.784	1009.572
64.476	12.982	1347.234	1008.479
65.490	13.044	1345.601	1007.548
66.505	13.100	1344.085	1006.666
67.520	13.187	1342.473	1005.899
68.534	13.256	1341.468	1005.473
69.549	13.177	1340.748	1004.363
70.563	13.103	1339.659	1003.013
71.578	13.219	1338.368	1002.659
72.593	13.031	1337.804	1001.011
73.607	13.066	1336.603	1000.237
74.622	13.084	1335.914	999.740
75.636	13.151	1335.004	999.372
76.651	13.119	1334.136	998.446
77.666	13.064	1333.808	997.776
78.680	13.076	1333.307	997.389
79.695	13.048	1332.572	996.580
80.709	13.166	1331.400	996.324
81.724	13.137	1330.766	995.590
82.739	13.207	1329.468	994.951
83.753	13.280	1328.387	994.495
84.768	13.317	1327.654	994.081
85.782	13.341	1326.127	992.992
86.797	13.326	1324.826	991.838
87.812	13.316	1323.598	990.770
88.826	13.358	1322.488	990.104
89.841	13.303	1321.104	988.652
90.855	13.352	1320.423	988.349
91.870	13.321	1319.414	987.323
92.884	13.341	1318.685	986.805
93.899	13.337	1317.962	986.155
94.914	13.410	1317.444	986.115
95.928	13.375	1316.276	984.943
96.943	13.408	1315.166	984.226
97.957	13.364	1314.199	983.153
98.972	13.449	1313.171	982.799
99.987	13.320	1312.314	981.306
101.001	13.433	1311.323	981.148
102.016	13.312	1310.488	979.721
103.030	13.332	1309.371	978.917
104.045	13.337	1308.642	978.316
105.060	13.383	1307.427	977.594
106.074	13.302	1306.000	975.959
107.089	13.115	1305.088	974.090
108.103	13.094	1304.058	973.110
109.118	13.081	1302.741	971.967
110.133	13.190	1301.075	971.278
111.147	13.239	1299.427	970.246
112.162	13.272	1298.144	969.398
113.176	13.205	1297.795	968.658
114.191	13.230	1296.267	967.582
115.206	13.250	1295.169	966.790
116.220	13.296	1293.818	965.966
117.235	13.249	1292.950	964.956
118.249	13.279	1291.606	964.044
119.264	13.176	1291.166	963.033
120.279	13.241	1289.845	962.337
121.293	13.227	1289.105	961.622
122.308	13.185	1287.760	960.285
123.322	13.177	1286.972	959.571
124.337	13.071	1286.074	958.199
125.352	13.312	1283.935	957.914
126.366	13.183	1283.152	956.500
127.381	13.108	1282.383	955.410
128.395	13.128	1281.347	954.668
129.410	13.189	1280.239	954.113
130.424	13.119	1279.825	953.316
131.439	13.229	1278.425	952.820
132.454	13.206	1277.460	951.885
133.468	13.259	1276.286	951.230
134.483	13.291	1275.627	950.840
135.497	13.274	1274.682	949.954
136.512	13.258	1272.785	948.363
137.527	13.233	1271.893	947.471
138.541	13.256	1270.593	946.551
139.556	13.293	1269.306	945.723
140.570	13.245	1268.796	944.985
141.585	13.291	1267.436	944.151
142.600	13.392	1266.164	943.694
143.614	13.337	1265.503	942.803
144.629	13.492	1263.863	942.379
145.643	13.495	1262.398	941.224
146.658	13.400	1261.765	940.125
147.673	13.340	1260.618	938.850
148.687	13.320	1259.471	937.799
149.702	13.269	1258.349	936.590
150.716	13.266	1256.545	935.148
151.731	13.263	1255.246	934.083
152.746	13.394	1253.990	933.805
153.760	13.459	1252.769	933.176
154.775	13.475	1251.487	932.231
155.789	13.509	1250.524	931.621
156.804	13.512	1249.428	930.738
157.819	13.471	1248.251	929.552
158.833	13.487	1247.911	929.308
159.848	13.597	1246.264	928.615
160.862	13.667	1245.256	928.171
161.877	13.551	1244.096	926.578
162.892	13.488	1243.044	925.361
163.906	13.556	1242.505	925.256
164.921	13.517	1241.386	924.124
165.935	13.613	1240.418	923.857
166.950	13.488	1240.192	922.909
167.964	13.537	1239.064	922.263
168.979	13.564	1238.123	921.629
169.994	13.564	1237.370	920.984
171.008	13.568	1236.743	920.459
172.023	13.618	1236.300	920.329
173.037	13.685	1235.531	920.047
174.052	13.800	1233.958	919.429
175.067	13.729	1232.848	918.127
176.081	13.673	1231.905	917.035
177.096	13.723	1231.132	916.656
178.110	13.619	1230.507	915.535
179.125	13.632	1229.009	914.410
180.140	13.686	1227.720	913.667
181.154	13.599	1226.882	912.484
182.169	13.696	1225.323	911.777
183.183	13.836	1223.841	911.364
184.198	13.833	1223.122	910.731
185.213	13.787	1222.111	909.645
186.227	13.741	1221.032	908.510
187.242	13.958	1219.551	908.514
188.256	13.934	1218.811	907.749
189.271	13.846	1217.896	906.507
190.286	13.798	1216.784	905.336
191.300	13.734	1215.777	904.158
192.315	13.704	1215.452	903.677
193.329	13.776	1214.660	903.400
194.344	13.662	1214.103	902.282
195.359	13.820	1213.578	902.673
196.373	13.840	1213.359	902.542
197.388	13.942	1212.388	902.293
198.402	13.935	1212.120	901.973
199.417	14.045	1211.581	902.093
200.432	14.009	1210.571	901.065
201.446	14.076	1209.573	900.601
202.461	14.149	1209.064	900.540
203.475	14.186	1207.573	899.549
204.490	14.044	1206.632	898.000
205.504	14.134	1204.929	897.142
206.519	14.071	1203.974	896.013
207.534	14.062	1203.451	895.496
208.548	13.990	1202.379	894.231
209.563	14.160	1200.726	893.836
210.577	14.144	1200.442	893.461
211.592	14.221	1199.495	893.089
212.607	14.202	1198.671	892.295
213.621	14.157	1197.577	891.158
214.636	14.166	1196.622	890.415
215.650	14.145	1196.185	889.900
216.665	14.317	1194.960	889.831
217.680	14.294	1193.997	888.911
218.694	14.305	1193.127	888.243
219.709	14.273	1192.407	887.460
220.723	14.176	1191.855	886.453
221.738	14.325	1191.144	886.641
222.753	14.365	1190.019	885.934
223.767	14.302	1189.714	885.298
224.782	14.385	1188.697	884.903
225.796	14.455	1188.322	884.917
226.811	14.433	1187.484	884.099
227.826	14.439	1186.864	883.585
228.840	14.394	1186.126	882.724
229.855	14.492	1185.343	882.580
230.869	14.403	1184.560	881.450
231.884	14.386	1183.728	880.663
232.899	14.363	1183.283	880.132
233.913	14.469	1182.220	879.823
234.928	14.361	1181.458	878.605
235.942	14.425	1180.581	878.217
236.957	14.429	1180.179	877.859
237.972	14.389	1179.139	876.797
238.986	14.428	1178.285	876.291
240.001	14.414	1177.844	875.809
241.015	14.567	1176.684	875.671
242.030	14.531	1175.808	874.754
243.045	14.578	1175.285	874.533
244.059	14.574	1174.431	873.804
245.074	14.622	1173.204	873.065
246.088	14.543	1173.033	872.444
247.103	14.589	1171.887	871.755
248.117	14.726	1171.074	871.791
249.132	14.741	1170.857	871.627
250.147	14.733	1169.833	870.749
251.161	14.755	1169.504	870.538
252.176	14.874	1168.475	870.317
253.190	14.976	1168.165	870.540
254.205	14.833	1167.659	869.344
255.220	14.945	1166.490	868.977
256.234	14.922	1166.300	868.640
257.249	14.883	1165.580	867.822
258.263	14.930	1165.095	867.627
259.278	15.067	1163.900	867.372
260.293	14.954	1163.369	866.314
261.307	15.071	1162.922	866.508
262.322	14.963	1162.240	865.366
263.336	15.036	1161.630	865.214
264.351	15.106	1160.652	864.770
265.366	15.192	1160.184	864.786
266.380	15.165	1159.341	863.947
267.395	15.102	1158.711	863.073
268.409	15.043	1157.924	862.105
269.424	15.046	1157.750	861.918
270.439	15.158	1156.901	861.783
271.453	15.076	1155.994	860.612
272.468	15.010	1155.229	859.626
273.482	15.165	1154.301	859.657
274.497	15.127	1154.008	859.168
275.512	15.182	1153.073	858.676
276.526	15.089	1152.550	857.736
277.541	15.089	1151.590	856.942
278.555	15.149	1151.015	856.746
279.570	15.243	1150.104	856.476
280.585	15.270	1149.107	855.796
281.599	15.362	1147.977	855.345
282.614	15.336	1147.224	854.575
283.628	15.256	1146.370	853.457
284.643	15.225	1145.445	852.537
285.657	15.310	1144.540	852.216
286.672	15.276	1143.552	851.236
287.687	15.329	1143.019	851.033
288.701	15.317	1142.181	850.269
289.716	15.282	1141.457	849.477
290.730	15.434	1140.576	849.520
291.745	15.516	1139.673	849.186
292.760	15.486	1139.117	848.543
293.774	15.459	1138.643	847.977
294.789	15.502	1137.988	847.632
295.803	15.459	1137.633	847.079
296.818	15.449	1136.762	846.303
297.833	15.498	1135.797	845.755
298.847	15.540	1135.119	845.387
299.862	15.641	1133.992	844.983
300.876	15.586	1133.797	844.485
301.891	15.521	1133.249	843.676
302.906	15.621	1132.184	843.310
303.920	15.643	1131.706	842.991
304.935	15.680	1131.129	842.673
305.949	15.773	1130.707	842.748
306.964	15.770	1129.406	841.691
307.979	15.763	1128.690	841.048
308.993	15.767	1127.801	840.327
310.008	15.813	1127.076	839.945
311.022	15.866	1126.101	839.408
312.037	15.792	1125.904	838.820
313.052	15.749	1124.974	837.835
314.066	15.757	1123.800	836.930
315.081	15.787	1123.141	836.511
316.095	15.766	1122.327	835.726
317.110	15.727	1121.781	835.054
318.125	15.758	1120.756	834.370
319.139	15.734	1120.242	833.793
320.154	15.797	1119.468	833.459
321.168	15.825	1119.149	833.282
322.183	15.687	1118.679	832.177
323.197	15.784	1117.679	831.839
324.212	15.862	1117.121	831.738
325.227	15.786	1117.018	831.211
326.241	15.744	1115.936	830.123
327.256	15.806	1115.147	829.771
328.270	15.761	1114.128	828.719
329.285	15.791	1113.218	828.112
330.300	15.754	1112.437	827.280
331.314	15.837	1111.217	826.704
332.329	15.927	1110.283	826.376
333.343	16.000	1109.380	825.991
334.358	15.965	1108.907	825.396
335.373	15.963	1108.107	824.714
336.387	15.964	1107.078	823.884
337.402	15.961	1106.629	823.460
338.416	16.068	1106.024	823.458
339.431	16.199	1105.068	823.316
340.446	16.120	1104.443	822.394
341.460	16.150	1103.771	821.964
342.475	16.150	1102.894	821.239
343.489	16.180	1102.501	821.021
344.504	16.213	1100.975	819.970
345.519	16.323	1100.557	820.119
346.533	16.325	1099.416	819.206
347.548	16.308	1098.987	818.735
348.562	16.348	1098.083	818.180
349.577	16.332	1097.146	817.332
350.592	16.300	1096.123	816.345
351.606	16.310	1095.631	815.952
352.621	16.208	1095.355	815.181
353.635	16.251	1094.400	814.608
354.650	16.124	1093.955	813.592
355.665	16.303	1092.950	813.637
356.679	16.271	1092.546	813.107
357.694	16.292	1091.860	812.626
358.708	16.398	1090.751	812.241
359.723	16.368	1090.494	811.834
360.738	16.432	1089.728	811.497
361.752	16.396	1089.583	811.146
362.767	16.472	1088.570	810.684
363.781	16.400	1088.344	810.096
364.796	16.521	1087.419	809.917
365.810	16.495	1086.831	809.285
366.825	16.516	1086.089	808.759
367.840	16.553	1085.886	808.713
368.854	16.609	1085.204	808.403
369.869	16.640	1084.588	808.017
370.883	16.593	1083.282	806.750
371.898	16.620	1082.629	806.320
372.913	16.701	1081.939	806.123
373.927	16.628	1081.859	805.642
374.942	16.588	1081.353	805.007
375.956	16.740	1080.526	805.039
376.971	16.698	1080.181	804.511
377.986	16.759	1079.453	804.189
379.000	16.794	1078.891	803.864
380.015	16.803	1078.419	803.485
381.029	16.903	1077.366	803.104
382.044	16.835	1076.830	802.311
383.059	16.841	1076.213	801.810
384.073	16.874	1075.601	801.436
385.088	16.822	1074.506	800.305
386.102	16.909	1073.708	800.050
387.117	16.913	1072.332	798.976
388.132	16.830	1071.420	797.834
389.146	16.815	1071.059	797.423
390.161	16.875	1070.039	796.877
391.175	16.844	1069.247	796.066
392.190	16.931	1068.832	796.095
393.205	16.982	1068.070	795.701
394.219	16.883	1067.650	794.853
395.234	16.964	1066.673	794.433
396.248	16.977	1065.128	793.275
397.263	16.873	1064.388	792.168
398.278	16.823	1063.875	791.478
399.292	16.874	1063.172	791.125
400.307	16.970	1062.252	790.821
401.321	16.887	1062.034	790.199
402.336	16.842	1060.974	789.131
403.350	16.996	1060.454	789.389
404.365	17.116	1059.470	789.147
405.380	17.098	1058.800	788.493
406.394	17.093	1058.317	788.040
407.409	17.205	1057.538	787.909
408.423	17.143	1057.003	787.154
409.438	17.195	1056.125	786.673
410.453	17.257	1055.720	786.589
411.467	17.279	1054.644	785.820
412.482	17.230	1054.281	785.252
413.496	17.231	1053.506	784.610
414.511	17.308	1052.609	784.229
415.526	17.422	1052.302	784.457
416.540	17.411	1052.209	784.265
417.555	17.443	1051.379	783.726
418.569	17.513	1050.978	783.678
419.584	17.434	1050.513	782.898
420.599	17.462	1049.850	782.465
421.613	107.944	1330.383	1487.103
422.628	99.341	1371.200	1487.192
