DTS Sentinel unit serial number:	SN413079Multiplexer serial number:	ORYXHardware model number:	OX4-SRSoftware version number:	ORYX F/W v4.00 Oryx Data Collector v3.7.2.0data status	okinstallation	princeton_trtdifferential loss correction	single-endedforward channel	channel 2reverse channel	N/Adate	2019/09/19time	07:35:35forward acquisition time	60.00reverse acquisition time	0.00gamma	496.2192k internal	0.2351k external	0.2351temperature offset calibration	1.0014default loss term (dB/km)	0.3790temperature slope calibration	1.0000multiplexer offset coefficient	1.0000multiplexer slope coefficient	1.0000fibre end	0.00T internal ref (°C)	19.31T ext. ref 1 (°C)	0.56T ext. ref 2 (°C)	14.30length (m)	temperature (°C)	Stokes	anti-Stokes-747.200	80.965	-0.053	0.058
-746.185	800.000	-0.047	0.194
-745.171	392.350	0.101	0.210
-744.156	800.000	-0.105	-0.374
-743.142	227.419	0.184	-0.298
-742.127	-200.000	0.078	0.380
-741.112	800.000	-0.073	0.234
-740.098	800.000	-0.041	-0.169
-739.083	79.625	0.127	0.136
-738.069	-120.617	-0.251	-0.042
-737.054	-29.598	-0.335	0.191
-736.039	-51.464	-0.338	0.157
-735.025	-49.808	0.192	-0.091
-734.010	145.403	-0.216	-0.288
-732.996	157.981	-0.201	-0.278
-731.981	-132.419	0.307	0.039
-730.966	-65.036	-0.195	0.078
-729.952	-200.000	0.011	-0.073
-728.937	-200.000	-0.018	-0.150
-727.923	800.000	0.072	-0.222
-726.908	-200.000	-0.075	0.479
-725.894	78.067	-0.271	-0.288
-724.879	41.352	0.126	0.113
-723.864	-65.235	-0.091	0.036
-722.850	800.000	0.085	0.292
-721.835	-200.000	0.000	-0.086
-720.821	-86.804	-0.028	-0.009
-719.806	672.428	-0.062	-0.160
-718.791	-50.474	-0.109	-0.051
-717.777	800.000	0.099	-0.363
-716.762	382.823	0.105	-0.215
-715.748	-144.677	0.063	-0.006
-714.733	-12.698	-0.275	0.179
-713.718	-43.242	0.236	-0.119
-712.704	-126.755	0.185	0.027
-711.689	-200.000	0.003	0.307
-710.675	-200.000	0.055	-0.366
-709.660	-59.686	0.206	-0.088
-708.645	-38.655	-0.406	-0.214
-707.631	-200.000	0.059	-0.319
-706.616	-200.000	-0.057	-0.290
-705.602	611.908	0.095	-0.237
-704.587	373.075	0.152	-0.308
-703.572	-76.347	0.208	0.073
-702.558	-124.147	-0.051	-0.008
-701.543	-169.847	-0.215	0.008
-700.529	34.655	-0.104	0.090
-699.514	800.000	0.082	-0.262
-698.499	375.716	-0.177	0.359
-697.485	18.371	0.123	-0.098
-696.470	-87.715	0.069	0.021
-695.456	-22.912	-0.125	0.075
-694.441	-56.450	-0.323	-0.143
-693.426	56.332	0.294	-0.285
-692.412	79.467	0.132	0.141
-691.397	-0.693	0.106	0.075
-690.383	-190.672	0.338	-0.004
-689.368	800.000	0.073	-0.303
-688.354	-39.252	-0.173	-0.090
-687.339	319.394	-0.164	-0.310
-686.324	340.791	0.128	0.248
-685.310	73.992	-0.111	-0.116
-684.295	-118.441	0.262	-0.046
-683.281	273.323	-0.276	-0.486
-682.266	-74.028	0.164	0.059
-681.251	-179.908	-0.437	0.009
-680.237	800.000	0.057	0.172
-679.222	54.057	0.093	-0.089
-678.208	800.000	-0.062	-0.250
-677.193	234.188	-0.044	-0.073
-676.178	116.309	0.174	-0.213
-675.164	-34.903	-0.119	-0.065
-674.149	-38.373	0.165	-0.087
-673.135	800.000	0.095	-0.306
-672.120	-105.573	0.034	-0.008
-671.105	800.000	0.090	-0.250
-670.091	-108.066	-0.244	-0.053
-669.076	74.675	-0.041	0.043
-668.062	730.131	0.092	0.244
-667.047	-3.197	0.254	-0.176
-666.032	-85.622	0.280	0.086
-665.018	281.689	-0.238	-0.424
-664.003	310.308	-0.058	-0.108
-662.989	800.000	0.038	-0.127
-661.974	411.410	0.065	0.138
-660.959	37.607	-0.149	-0.131
-659.945	-94.159	0.208	0.057
-658.930	-200.000	0.018	-0.385
-657.916	-1.977	0.141	-0.099
-656.901	-200.000	-0.042	0.328
-655.886	59.003	0.157	0.154
-654.872	301.096	-0.141	0.259
-653.857	-200.000	-0.019	-0.140
-652.843	628.459	0.087	-0.219
-651.828	-76.641	-0.075	0.026
-650.814	800.000	0.026	0.090
-649.799	-62.207	0.289	0.120
-648.784	130.904	-0.182	-0.232
-647.770	-200.000	0.009	0.100
-646.755	800.000	-0.043	0.164
-645.741	139.546	0.103	-0.135
-644.726	78.682	-0.111	-0.118
-643.711	3.101	-0.165	0.119
-642.697	-133.224	-0.113	0.014
-641.682	-140.516	0.080	0.008
-640.668	228.928	-0.110	0.179
-639.653	-14.900	-0.110	0.070
-638.638	-131.726	0.355	-0.046
-637.624	-24.379	-0.272	0.161
-636.609	67.557	0.137	0.140
-635.595	-163.316	0.157	-0.007
-634.580	609.093	-0.098	-0.242
-633.565	-85.318	0.160	-0.050
-632.551	22.816	-0.295	0.240
-631.536	286.186	-0.084	-0.151
-630.522	-82.498	-0.292	-0.094
-629.507	-14.405	0.221	-0.142
-628.492	-79.135	0.229	0.077
-627.478	159.207	0.095	-0.131
-626.463	-200.000	-0.034	-0.168
-625.449	-5.320	0.143	-0.098
-624.434	56.469	-0.086	-0.083
-623.419	-145.023	-0.219	0.020
-622.405	-200.000	0.002	-0.094
-621.390	-185.337	0.274	-0.004
-620.376	-52.421	-0.320	-0.147
-619.361	187.912	0.116	-0.173
-618.346	-139.626	0.440	0.047
-617.332	-109.819	0.464	-0.097
-616.317	695.924	0.004	-0.011
-615.303	104.538	-0.103	0.121
-614.288	-119.355	0.142	0.025
-613.273	-33.380	0.035	-0.019
-612.259	88.356	0.140	0.154
-611.244	104.997	0.221	0.259
-610.230	40.157	-0.052	-0.046
-609.215	-75.384	-0.165	0.058
-608.201	-90.031	0.196	0.057
-607.186	59.220	-0.234	-0.229
-606.171	800.000	0.044	-0.127
-605.157	800.000	-0.037	0.132
-604.142	248.175	-0.168	0.281
-603.128	1.820	-0.039	0.028
-602.113	-119.823	0.080	0.014
-601.098	-14.112	-0.100	-0.064
-600.084	-200.000	0.019	-0.160
-599.069	554.755	0.104	0.247
-598.055	-71.675	0.067	0.025
-597.040	3.608	0.313	-0.226
-596.025	-200.000	0.066	-0.402
-595.011	-67.447	0.158	-0.062
-593.996	-200.000	0.100	-0.570
-592.982	37.209	-0.185	0.162
-591.967	386.434	0.085	0.173
-590.952	30.916	0.124	0.105
-589.938	165.517	-0.163	-0.228
-588.923	-79.676	-0.158	0.053
-587.909	-148.798	0.244	-0.020
-586.894	-124.723	-0.045	-0.007
-585.879	-200.000	0.036	0.402
-584.865	-161.105	0.106	-0.006
-583.850	-182.825	-0.148	0.003
-582.836	800.000	0.102	-0.411
-581.821	-121.556	0.252	0.041
-580.806	-152.459	0.339	0.024
-579.792	-18.162	-0.142	-0.088
-578.777	-200.000	0.047	0.217
-577.763	-32.646	0.119	-0.066
-576.748	278.833	-0.223	0.394
-575.733	97.612	-0.146	0.166
-574.719	-130.090	0.250	0.034
-573.704	800.000	-0.078	0.232
-572.690	66.992	0.170	-0.172
-571.675	-137.607	0.176	-0.020
-570.661	534.133	-0.141	0.331
-569.646	410.879	0.027	0.057
-568.631	-82.026	-0.146	-0.047
-567.617	-124.898	0.188	-0.029
-566.602	-143.876	-0.035	0.003
-565.588	-153.332	0.333	-0.023
-564.573	-10.320	-0.218	-0.143
-563.558	355.076	0.197	-0.389
-562.544	-200.000	0.056	-0.272
-561.529	-114.071	-0.203	0.039
-560.515	235.173	-0.105	0.171
-559.500	41.385	0.110	-0.098
-558.485	-200.000	-0.046	-0.247
-557.471	147.312	-0.148	0.198
-556.456	-200.000	0.029	-0.271
-555.442	9.112	0.175	-0.131
-554.427	226.571	0.156	-0.252
-553.412	90.852	0.383	0.425
-552.398	800.000	-0.110	0.308
-551.383	14.848	0.100	0.078
-550.369	388.997	0.129	-0.264
-549.354	-81.259	-0.094	-0.031
-548.339	-62.756	-0.043	0.017
-547.325	530.274	0.054	0.125
-546.310	70.335	-0.154	-0.158
-545.296	-71.619	0.167	-0.062
-544.281	-200.000	-0.038	-0.295
-543.266	-105.475	-0.196	0.044
-542.252	800.000	-0.119	0.359
-541.237	-75.763	-0.229	0.080
-540.223	65.915	0.164	-0.165
-539.208	-200.000	0.017	-0.211
-538.193	800.000	-0.038	-0.126
-537.179	-200.000	-0.051	-0.333
-536.164	154.576	-0.133	-0.181
-535.150	-44.262	-0.065	0.032
-534.135	-59.892	-0.083	-0.035
-533.121	-200.000	-0.027	0.319
-532.106	154.684	0.083	-0.112
-531.091	-99.745	-0.246	0.061
-530.077	152.911	-0.099	-0.134
-529.062	22.896	-0.202	0.164
-528.048	439.437	0.075	0.161
-527.033	-54.566	0.250	-0.112
-526.018	-173.286	0.319	0.010
-525.004	13.709	0.071	0.055
-523.989	-156.272	-0.059	0.004
-522.975	-100.440	-0.243	0.060
-521.960	82.644	0.143	0.153
-520.945	264.402	0.147	-0.253
-519.931	-26.788	-0.133	-0.077
-518.916	-19.866	0.209	-0.128
-517.902	-200.000	-0.081	-0.420
-516.887	-200.000	-0.060	0.332
-515.872	-200.000	0.036	-0.163
-514.858	800.000	0.022	0.068
-513.843	191.694	-0.222	-0.331
-512.829	191.837	-0.079	0.118
-511.814	-161.258	-0.292	-0.015
-510.799	-103.776	0.200	-0.046
-509.785	800.000	0.023	-0.086
-508.770	-155.830	-0.159	0.010
-507.756	10.212	0.039	-0.030
-506.741	-101.905	0.155	-0.037
-505.726	-200.000	-0.022	0.215
-504.712	111.891	0.352	0.421
-503.697	80.701	-0.169	0.180
-502.683	-200.000	-0.007	-0.103
-501.668	-71.958	-0.287	-0.106
-500.653	549.221	0.132	-0.313
-499.639	-200.000	-0.034	0.229
-498.624	-173.480	-0.297	0.009
-497.610	-90.136	-0.307	0.088
-496.595	800.000	0.117	0.341
-495.581	800.000	-0.052	-0.206
-494.566	-58.495	0.143	0.061
-493.551	-24.952	0.076	0.045
-492.537	-120.487	-0.148	0.025
-491.522	800.000	-0.052	0.169
-490.508	-88.950	-0.177	-0.052
-489.493	-140.111	0.264	-0.027
-488.478	800.000	0.006	0.022
-487.464	3.750	0.334	0.241
-486.449	-102.797	0.349	0.082
-485.435	1.577	-0.307	0.218
-484.420	171.369	-0.154	0.218
-483.405	-33.563	-0.239	0.130
-482.391	90.759	-0.052	-0.057
-481.376	-16.610	-0.188	0.118
-480.362	350.344	-0.130	-0.254
-479.347	-192.785	0.086	-0.001
-478.332	-83.513	-0.061	-0.019
-477.318	800.000	0.070	-0.243
-476.303	107.921	-0.137	0.161
-475.289	71.806	0.372	0.382
-474.274	-146.693	-0.288	-0.025
-473.259	-30.794	-0.110	0.061
-472.245	800.000	0.061	-0.174
-471.230	-48.585	-0.131	0.062
-470.216	-53.268	0.058	-0.026
-469.201	71.634	0.469	-0.481
-468.186	-99.607	-0.363	0.090
-467.172	106.405	0.072	0.084
-466.157	800.000	0.069	0.231
-465.143	-79.171	-0.047	-0.016
-464.128	-200.000	0.031	0.166
-463.113	25.817	-0.327	0.269
-462.099	-200.000	-0.003	0.118
-461.084	681.380	0.047	0.120
-460.070	16.151	0.161	-0.125
-459.055	638.427	0.140	-0.352
-458.040	152.577	-0.196	0.264
-457.026	-128.425	0.356	-0.050
-456.011	800.000	-0.018	-0.070
-454.997	-68.732	-0.090	0.035
-453.982	57.666	0.215	0.207
-452.968	-39.310	-0.176	-0.091
-451.953	-29.736	0.062	-0.035
-450.938	399.906	0.153	-0.317
-449.924	800.000	0.036	0.106
-448.909	55.413	-0.310	-0.296
-447.895	99.587	0.243	0.277
-446.880	-122.632	-0.210	0.034
-445.865	91.190	0.093	-0.103
-444.851	-139.641	-0.172	0.018
-443.836	800.000	-0.061	0.192
-442.822	800.000	-0.157	-0.429
-441.807	203.867	-0.148	0.226
-440.792	-123.694	0.406	0.063
-439.778	-200.000	0.031	-0.251
-438.763	125.276	0.090	-0.112
-437.749	-200.000	0.005	0.128
-436.734	-200.000	-0.029	0.272
-435.719	415.566	-0.235	-0.494
-434.705	220.518	0.034	0.053
-433.690	-55.423	-0.034	0.015
-432.676	-177.769	-0.357	-0.008
-431.661	12.067	0.105	-0.080
-430.646	-200.000	-0.077	0.420
-429.632	-22.552	-0.156	0.093
-428.617	-85.261	-0.357	0.110
-427.603	202.106	-0.153	-0.232
-426.588	39.263	-0.096	0.085
-425.573	408.276	0.116	-0.241
-424.559	-200.000	-0.011	-0.370
-423.544	-93.915	0.096	0.026
-422.530	-200.000	-0.040	0.245
-421.515	-118.755	-0.145	-0.025
-420.500	-3.507	-0.292	0.200
-419.486	800.000	-0.108	0.302
-418.471	33.422	0.320	-0.274
-417.457	-200.000	0.039	0.484
-416.442	186.562	0.171	-0.250
-415.428	800.000	-0.062	-0.207
-414.413	-200.000	0.026	-0.310
-413.398	315.799	0.091	-0.170
-412.384	-57.003	0.225	0.098
-411.369	3.700	0.098	0.070
-410.355	-154.123	-0.408	0.027
-409.340	-158.098	-0.097	0.006
-408.325	-99.786	0.044	-0.011
-407.311	-200.000	0.011	0.184
-406.296	12.809	0.079	0.060
-405.282	-83.645	-0.260	0.082
-404.267	156.092	0.180	0.244
-403.252	-72.767	0.068	-0.025
-402.238	-65.270	-0.264	0.105
-401.223	-61.493	0.235	0.097
-400.209	11.579	-0.194	-0.146
-399.194	-153.692	0.321	0.022
-398.179	69.736	0.154	-0.156
-397.165	75.236	-0.003	0.004
-396.150	-101.528	-0.185	0.044
-395.136	252.664	-0.054	-0.090
-394.121	80.002	0.080	-0.084
-393.106	-200.000	0.018	-0.185
-392.092	271.228	-0.121	-0.210
-391.077	132.760	-0.143	-0.182
-390.063	-200.000	0.050	0.304
-389.048	-29.447	-0.166	0.093
-388.033	-200.000	-0.023	-0.138
-387.019	92.248	0.102	-0.113
-386.004	358.378	-0.087	0.170
-384.990	451.978	-0.036	0.077
-383.975	201.453	-0.097	-0.147
-382.960	800.000	0.037	-0.141
-381.946	47.149	0.062	0.057
-380.931	158.400	-0.234	-0.320
-379.917	160.980	0.122	-0.168
-378.902	-3.688	-0.222	-0.152
-377.888	263.155	0.155	-0.265
-376.873	-89.643	-0.212	0.061
-375.858	800.000	-0.053	0.178
-374.844	-48.212	0.361	0.172
-373.829	800.000	-0.039	0.108
-372.815	199.285	-0.008	0.012
-371.800	310.226	0.043	-0.080
-370.785	-106.514	0.166	0.036
-369.771	800.000	0.101	0.297
-368.756	403.416	-0.043	0.088
-367.742	289.865	0.108	0.192
-366.727	-13.999	-0.035	0.022
-365.712	-200.000	-0.009	0.135
-364.698	-68.299	0.210	-0.080
-363.683	-40.118	-0.269	-0.138
-362.669	214.502	-0.136	-0.211
-361.654	-101.468	-0.284	0.068
-360.639	800.000	-0.035	-0.114
-359.625	-200.000	-0.022	0.337
-358.610	132.274	0.120	-0.152
-357.596	11.813	-0.067	0.051
-356.581	109.106	-0.183	0.215
-355.566	-200.000	0.013	0.292
-354.552	-200.000	0.015	0.266
-353.537	-200.000	0.033	-0.173
-352.523	-200.000	0.056	-0.389
-351.508	737.271	-0.101	-0.267
-350.493	579.716	-0.079	-0.191
-349.479	800.000	0.014	-0.040
-348.464	800.000	0.010	-0.029
-347.450	177.969	-0.112	-0.160
-346.435	696.225	-0.028	-0.073
-345.420	-45.500	-0.322	-0.157
-344.406	133.332	0.324	0.411
-343.391	-113.981	-0.144	-0.027
-342.377	138.449	-0.056	0.073
-341.362	-45.035	0.289	-0.141
-340.348	-183.661	0.169	-0.003
-339.333	10.336	-0.230	0.172
-338.318	-120.544	0.298	-0.050
-337.304	316.600	0.140	-0.260
-336.289	7.838	0.069	0.051
-335.275	-184.362	0.145	0.002
-334.260	-117.936	0.266	0.047
-333.245	169.021	-0.095	0.134
-332.231	54.082	0.352	-0.332
-331.216	322.907	-0.136	0.255
-330.202	46.991	-0.198	0.181
-329.187	38.233	0.214	-0.187
-328.172	-37.734	-0.234	0.122
-327.158	107.942	-0.269	0.315
-326.143	-200.000	0.017	-0.172
-325.129	74.424	-0.267	-0.275
-324.114	18.838	0.095	0.075
-323.099	-120.140	-0.043	-0.007
-322.085	81.154	0.082	-0.087
-321.070	355.217	-0.096	-0.188
-320.056	-200.000	-0.022	-0.279
-319.041	108.094	-0.237	0.277
-318.026	800.000	0.056	-0.213
-317.012	48.121	-0.036	-0.033
-315.997	-119.541	-0.183	0.031
-314.983	-200.000	-0.018	-0.119
-313.968	27.090	-0.184	-0.151
-312.953	44.144	-0.081	-0.073
-311.939	-7.173	-0.061	0.041
-310.924	52.896	0.075	0.070
-309.910	-36.542	0.126	0.067
-308.895	-69.038	-0.222	0.084
-307.880	62.720	-0.048	0.047
-306.866	116.431	-0.201	-0.241
-305.851	-25.256	0.401	-0.233
-304.837	-177.883	0.380	-0.009
-303.822	-200.000	-0.016	0.183
-302.807	407.659	0.085	0.176
-301.793	-20.744	-0.073	-0.044
-300.778	-200.000	-0.049	-0.272
-299.764	-17.522	-0.244	0.151
-298.749	41.634	-0.012	0.011
-297.735	-82.468	-0.293	0.093
-296.720	238.689	0.103	-0.167
-295.705	301.476	0.103	0.186
-294.691	116.143	0.173	0.208
-293.676	-200.000	-0.029	-0.175
-292.662	800.000	-0.057	0.245
-291.647	-200.000	-0.028	0.135
-290.632	-200.000	0.001	-0.319
-289.618	-114.782	-0.178	-0.033
-288.603	-124.423	0.143	0.022
-287.589	461.508	-0.148	0.323
-286.574	60.545	-0.136	-0.132
-285.559	-13.037	-0.080	0.051
-284.545	-140.930	0.253	0.025
-283.530	-54.059	-0.345	-0.154
-282.516	158.996	0.166	0.226
-281.501	-112.642	0.224	-0.044
-280.486	-33.868	0.115	-0.062
-279.472	-200.000	0.063	-0.363
-278.457	-200.000	0.013	-0.150
-277.443	212.918	-0.041	0.063
-276.428	-25.626	-0.208	0.120
-275.413	-200.000	-0.032	-0.327
-274.399	3.795	-0.217	0.155
-273.384	-200.000	-0.005	-0.190
-272.370	-181.596	-0.439	-0.008
-271.355	389.398	-0.152	-0.308
-270.340	-118.052	-0.010	-0.002
-269.326	70.239	-0.016	-0.016
-268.311	800.000	0.037	-0.144
-267.297	547.669	0.113	0.265
-266.282	-139.304	0.031	-0.003
-265.267	129.567	0.158	0.198
-264.253	594.602	-0.090	-0.217
-263.238	-200.000	0.008	-0.105
-262.224	-163.554	-0.369	-0.017
-261.209	-1.794	0.286	-0.197
-260.195	24.666	0.067	-0.054
-259.180	109.336	-0.251	-0.295
-258.165	-89.446	0.455	0.131
-257.151	-200.000	0.052	-0.240
-256.136	800.000	-0.046	-0.138
-255.122	132.643	-0.128	-0.161
-254.107	-44.646	-0.145	0.071
-253.092	-200.000	0.075	-0.347
-252.078	625.979	-0.093	-0.231
-251.063	-52.430	0.238	0.108
-250.049	-54.859	0.300	0.133
-249.034	65.738	-0.451	0.447
-248.019	-200.000	-0.029	0.346
-247.005	-200.000	-0.002	0.148
-245.990	25.394	0.121	-0.098
-244.976	-116.722	0.057	-0.010
-243.961	-114.881	-0.114	-0.021
-242.946	223.355	-0.094	-0.149
-241.932	177.570	0.190	0.271
-240.917	-3.045	-0.308	-0.210
-239.903	376.792	0.078	0.156
-238.888	800.000	0.098	0.336
-237.873	371.693	0.142	-0.282
-236.859	580.783	-0.069	0.166
-235.844	800.000	-0.042	0.115
-234.830	-147.666	-0.121	-0.010
-233.815	45.906	-0.330	0.298
-232.800	-81.504	-0.203	0.065
-231.786	335.737	0.183	0.347
-230.771	-125.175	0.062	0.009
-229.757	144.289	0.209	0.273
-228.742	216.556	0.030	0.046
-227.727	-200.000	0.065	-0.284
-226.713	125.971	0.183	-0.226
-225.698	195.154	0.056	-0.084
-224.684	352.772	0.127	-0.245
-223.669	800.000	-0.014	0.057
-222.655	345.016	-0.033	0.064
-221.640	-200.000	0.054	0.282
-220.625	800.000	-0.014	0.043
-219.611	195.409	-0.137	-0.204
-218.596	-59.445	-0.412	0.173
-217.582	137.373	0.306	0.392
-216.567	800.000	-0.037	0.153
-215.552	484.482	0.115	0.257
-214.538	800.000	0.051	0.148
-213.523	530.992	-0.176	0.407
-212.509	-48.790	-0.310	-0.145
-211.494	-200.000	-0.030	-0.326
-210.479	-188.969	0.161	0.002
-209.465	134.755	0.188	-0.238
-208.450	26.910	0.089	0.073
-207.436	800.000	0.019	0.068
-206.421	-187.261	0.166	0.002
-205.406	-36.542	0.299	0.157
-204.392	-160.757	-0.201	-0.010
-203.377	43.627	0.221	0.197
-202.363	-100.215	-0.051	0.012
-201.348	-98.598	0.310	-0.077
-200.333	647.575	0.150	-0.375
-199.319	394.433	0.060	-0.122
-198.304	338.874	0.096	0.183
-197.290	-200.000	0.017	-0.126
-196.275	35.857	-0.012	0.010
-195.260	-98.141	0.091	-0.023
-194.246	91.605	-0.163	0.179
-193.231	-67.367	-0.136	-0.052
-192.217	-200.000	0.030	-0.521
-191.202	800.000	-0.114	-0.408
-190.187	253.498	-0.195	-0.325
-189.173	353.006	-0.062	0.120
-188.158	-27.994	0.160	0.090
-187.144	800.000	0.046	-0.192
-186.129	418.308	0.096	0.201
-185.114	-165.873	0.482	-0.020
-184.100	800.000	0.057	0.192
-183.085	227.481	-0.115	-0.183
-182.071	489.702	0.161	0.359
-181.056	442.075	0.137	0.293
-180.042	-95.905	-0.285	0.074
-179.027	-77.098	0.224	-0.076
-178.012	-200.000	-0.027	-0.318
-176.998	-200.000	-0.034	0.284
-175.983	100.851	-0.116	0.131
-174.969	-200.000	-0.002	-0.209
-173.954	-153.940	0.113	0.008
-172.939	761.939	-0.134	0.355
-171.925	-200.000	0.016	0.345
-170.910	-200.000	0.026	0.287
-169.896	328.149	0.117	0.220
-168.881	-200.000	-0.035	-0.362
-167.866	-173.488	-0.221	0.006
-166.852	1.467	0.252	0.177
-165.837	800.000	0.063	0.262
-164.823	-34.231	0.087	0.046
-163.808	-3.161	0.136	0.092
-162.793	800.000	0.065	-0.225
-161.779	-83.238	-0.202	0.063
-160.764	-200.000	-0.022	0.334
-159.750	800.000	-0.020	0.061
-158.735	14.643	0.035	0.027
-157.720	-118.072	0.112	-0.019
-156.706	251.164	-0.085	0.141
-155.691	-55.875	0.085	-0.037
-154.677	-120.308	0.127	0.021
-153.662	-200.000	0.074	-0.322
-152.647	-154.693	-0.381	-0.025
-151.633	119.504	0.043	0.052
-150.618	-200.000	0.004	0.172
-149.604	-23.376	0.139	-0.082
-148.589	-200.000	-0.070	0.413
-147.574	-200.000	-0.025	-0.143
-146.560	-116.403	0.301	-0.054
-145.545	-200.000	-0.065	0.307
-144.531	22.632	0.192	-0.153
-143.516	252.180	0.207	0.344
-142.502	103.846	-0.221	-0.253
-141.487	800.000	-0.129	-0.370
-140.472	519.537	0.168	-0.383
-139.458	303.343	0.033	0.060
-138.443	-200.000	0.008	0.197
-137.429	-114.183	-0.280	0.053
-136.414	194.805	-0.166	0.245
-135.399	-200.000	-0.031	-0.169
-134.385	-200.000	0.001	-0.313
-133.370	55.446	0.221	-0.208
-132.356	586.928	-0.117	-0.281
-131.341	76.712	0.279	-0.288
-130.326	800.000	-0.109	-0.376
-129.312	-7.656	0.065	0.043
-128.297	-182.909	-0.223	-0.004
-127.283	-200.000	0.010	-0.163
-126.268	-103.690	-0.284	-0.065
-125.253	82.444	-0.039	0.041
-124.239	800.000	0.039	0.142
-123.224	458.973	-0.040	-0.087
-122.210	31.372	0.121	-0.101
-121.195	-200.000	0.006	-0.236
-120.180	-200.000	-0.017	-0.126
-119.166	482.273	-0.143	-0.316
-118.151	440.020	-0.104	0.222
-117.137	-124.784	-0.090	0.014
-116.122	-42.110	-0.250	0.125
-115.107	-62.690	0.247	0.100
-114.093	-59.786	0.178	0.074
-113.078	-76.077	0.217	-0.075
-112.064	-89.187	0.305	-0.088
-111.049	35.949	0.150	-0.128
-110.034	78.204	-0.138	-0.143
-109.020	198.088	0.029	0.043
-108.005	-200.000	-0.000	0.064
-106.991	800.000	0.035	-0.116
-105.976	-200.000	-0.023	-0.316
-104.962	800.000	0.056	-0.196
-103.947	533.534	0.125	0.288
-102.932	-63.771	-0.084	0.033
-101.918	-200.000	0.008	0.263
-100.903	461.551	-0.078	0.170
-99.889	-99.290	0.277	0.068
-98.874	36.422	-0.129	-0.111
-97.859	-200.000	-0.028	0.279
-96.845	-29.788	0.279	-0.155
-95.830	800.000	-0.085	0.290
-94.816	-15.156	-0.233	-0.145
-93.801	42.260	0.311	-0.275
-92.786	-142.878	-0.317	-0.030
-91.772	800.000	0.065	0.271
-90.757	-200.000	-0.002	0.098
-89.743	-9.063	0.281	-0.183
-88.728	17.023	-0.137	0.105
-87.713	358.968	-0.042	-0.082
-86.699	-124.796	0.227	0.034
-85.684	-90.940	0.162	-0.045
-84.670	-200.000	-0.000	0.115
-83.655	53.407	0.152	0.141
-82.640	-125.554	0.120	0.018
-81.626	221.251	0.105	-0.165
-80.611	-69.345	-0.402	-0.150
-79.597	-68.059	0.044	0.017
-78.582	126.508	0.349	-0.429
-77.567	-53.368	0.203	-0.091
-76.553	-200.000	0.001	-0.144
-75.538	800.000	-0.070	-0.222
-74.524	-19.977	0.281	0.169
-73.509	-126.471	0.229	0.033
-72.494	109.168	0.033	0.039
-71.480	70.593	-0.101	0.102
-70.465	800.000	0.117	0.390
-69.451	800.000	0.054	-0.183
-68.436	49.469	0.144	-0.132
-67.422	77.284	-0.258	-0.267
-66.407	-72.366	0.344	0.124
-65.392	53.253	-0.145	0.135
-64.378	3.347	-0.028	0.020
-63.363	-139.233	0.257	-0.027
-62.349	-168.921	-0.050	-0.002
-61.334	49.831	-1.371	-1.256
-60.319	-32.711	1.094	0.591
-59.305	450.859	-0.774	-1.660
-58.290	201.888	0.717	1.074
-57.276	211.351	0.888	1.357
-56.261	-200.000	137.069	620.646
-55.246	335.872	1652.260	3113.466
-54.232	135.197	2801.678	3537.288
-53.217	77.243	2310.569	2385.978
-52.203	27.764	1909.335	1562.005
-51.188	22.139	1704.512	1351.267
-50.173	20.417	1666.970	1308.489
-49.159	40.807	1742.172	1526.131
-48.144	37.503	1750.372	1507.696
-47.130	21.641	1702.221	1345.408
-46.115	19.398	1686.128	1315.547
-45.100	19.186	1681.009	1309.890
-44.086	19.280	1678.143	1308.321
-43.071	19.155	1676.063	1305.699
-42.057	19.166	1673.373	1303.632
-41.042	19.229	1671.247	1302.400
-40.027	19.192	1669.456	1300.672
-39.013	19.174	1667.770	1299.173
-37.998	19.178	1666.484	1298.149
-36.984	19.237	1665.221	1297.555
-35.969	19.306	1663.451	1296.648
-34.954	19.364	1662.025	1295.922
-33.940	19.316	1660.068	1293.981
-32.925	19.338	1658.043	1292.520
-31.911	19.206	1657.140	1290.772
-30.896	19.260	1654.975	1289.437
-29.881	19.312	1653.449	1288.590
-28.867	19.338	1651.731	1287.391
-27.852	19.294	1650.898	1286.360
-26.838	19.259	1649.486	1284.953
-25.823	19.400	1648.376	1285.090
-24.809	19.374	1646.503	1283.383
-23.794	19.295	1645.387	1281.873
-22.779	19.430	1644.292	1281.969
-21.765	19.348	1642.309	1279.764
-20.750	19.311	1640.823	1278.286
-19.736	19.302	1639.804	1277.374
-18.721	19.390	1638.278	1276.784
-17.706	19.316	1636.843	1275.070
-16.692	19.344	1635.240	1273.978
-15.677	19.414	1633.365	1272.980
-14.663	19.314	1632.353	1271.408
-13.648	19.357	1630.900	1270.539
-12.633	19.354	1629.816	1269.621
-11.619	19.294	1628.104	1267.795
-10.604	19.275	1626.629	1266.458
-9.590	19.360	1625.464	1266.123
-8.575	19.360	1623.669	1264.679
-7.560	19.417	1622.899	1264.441
-6.546	19.288	1622.352	1263.026
-5.531	19.316	1620.835	1261.995
-4.517	19.419	1619.568	1261.715
-3.502	19.312	1618.661	1260.175
-2.487	19.483	1616.749	1259.887
-1.473	19.112	1604.492	1247.593
-0.458	16.339	1585.290	1212.729
0.556	12.051	1588.008	1184.010
1.571	10.069	1612.186	1187.385
2.586	9.942	1624.267	1195.243
3.600	9.413	1569.034	1150.714
4.615	5.382	1463.723	1046.444
5.629	1.431	1408.628	981.480
6.644	0.566	1403.070	971.956
7.659	0.580	1401.808	971.085
8.673	0.539	1401.134	970.267
9.688	0.536	1398.268	968.177
10.702	0.483	1394.531	965.167
11.717	2.500	1396.919	979.646
12.731	8.284	1405.191	1022.501
13.746	14.405	1414.670	1068.669
14.761	16.959	1418.842	1088.138
15.775	16.615	1416.725	1084.211
16.790	15.537	1414.451	1075.479
17.804	14.838	1411.645	1068.777
18.819	14.483	1410.379	1065.456
19.834	14.386	1409.015	1063.716
20.848	14.030	1408.294	1060.805
21.863	13.769	1406.416	1057.632
22.877	13.639	1405.608	1056.101
23.892	13.578	1404.724	1054.959
24.907	13.509	1404.131	1053.977
25.921	13.630	1402.628	1053.527
26.936	13.632	1401.639	1052.701
27.950	13.659	1400.905	1052.230
28.965	13.729	1399.722	1051.693
29.980	13.776	1398.954	1051.317
30.994	13.809	1397.853	1050.605
32.009	13.829	1396.786	1049.837
33.023	13.834	1395.715	1048.970
34.038	13.756	1394.579	1047.533
35.053	13.803	1393.234	1046.729
36.067	13.649	1392.792	1045.330
37.082	13.702	1391.965	1044.950
38.096	13.725	1390.756	1044.098
39.111	13.703	1390.209	1043.457
40.126	13.717	1389.150	1042.656
41.140	13.548	1388.932	1041.337
42.155	13.635	1387.657	1040.835
43.169	13.464	1387.911	1039.863
44.184	13.599	1387.387	1040.222
45.199	13.554	1387.139	1039.665
46.213	13.663	1386.293	1039.620
47.228	13.596	1385.445	1038.475
48.242	13.650	1384.217	1037.799
49.257	13.595	1382.739	1036.254
50.271	13.764	1380.844	1035.800
51.286	13.709	1379.756	1034.547
52.301	13.683	1378.529	1033.376
53.315	13.700	1377.374	1032.521
54.330	13.634	1376.536	1031.390
55.344	13.588	1375.185	1030.004
56.359	13.605	1374.365	1029.404
57.374	13.542	1373.848	1028.535
58.388	13.593	1372.801	1027.978
59.403	13.548	1372.017	1027.020
60.417	13.528	1371.547	1026.451
61.432	13.579	1370.625	1025.990
62.447	13.550	1369.253	1024.690
63.461	13.495	1368.066	1023.371
64.476	13.579	1367.090	1023.068
65.490	13.498	1365.901	1021.589
66.505	13.482	1364.180	1020.113
67.520	13.533	1362.806	1019.307
68.534	13.594	1361.756	1018.809
69.549	13.599	1360.654	1017.922
70.563	13.508	1359.961	1016.756
71.578	13.561	1358.181	1015.661
72.593	13.544	1357.509	1014.966
73.607	13.525	1356.706	1014.162
74.622	13.498	1355.849	1013.264
75.636	13.524	1355.187	1012.838
76.651	13.519	1354.474	1012.187
77.666	13.431	1353.924	1011.149
78.680	13.472	1353.621	1011.080
79.695	13.500	1352.664	1010.451
80.709	13.542	1351.481	1009.731
81.724	13.589	1350.889	1009.487
82.739	13.617	1349.562	1008.577
83.753	13.623	1348.780	1007.940
84.768	13.662	1347.923	1007.446
85.782	13.638	1346.685	1006.288
86.797	13.767	1345.296	1005.941
87.812	13.642	1343.885	1004.041
88.826	13.670	1342.839	1003.340
89.841	13.728	1341.678	1002.735
90.855	13.751	1340.541	1001.933
91.870	13.684	1340.187	1001.175
92.884	13.713	1338.778	1000.210
93.899	13.726	1338.390	999.906
94.914	13.803	1336.908	999.178
95.928	13.762	1336.132	998.262
96.943	13.755	1335.608	997.743
97.957	13.618	1334.774	996.205
98.972	13.724	1333.574	995.860
99.987	13.841	1332.291	995.511
101.001	13.719	1331.874	994.384
102.016	13.824	1330.356	993.789
103.030	13.718	1329.603	992.506
104.045	13.734	1328.306	991.543
105.060	13.776	1326.863	990.633
106.074	13.770	1325.516	989.503
107.089	13.759	1324.170	988.344
108.103	13.690	1322.927	986.917
109.118	13.597	1322.360	985.856
110.133	13.673	1320.651	984.945
111.147	13.696	1319.007	983.767
112.162	13.646	1318.083	982.698
113.176	13.670	1316.830	981.815
114.191	13.621	1316.019	980.832
115.206	13.791	1314.626	980.716
116.220	13.662	1313.169	978.780
117.235	13.830	1312.212	978.971
118.249	13.755	1311.171	977.666
119.264	13.668	1310.260	976.386
120.279	13.668	1309.200	975.514
121.293	13.673	1308.566	974.981
122.308	13.657	1307.344	973.888
123.322	13.662	1306.354	973.095
124.337	13.645	1304.933	971.852
125.352	13.688	1303.911	971.257
126.366	13.613	1303.080	970.111
127.381	13.687	1301.773	969.484
128.395	13.635	1300.637	968.253
129.410	13.645	1299.769	967.579
130.424	13.632	1298.873	966.752
131.439	13.731	1297.475	966.200
132.454	13.723	1296.594	965.410
133.468	13.748	1295.321	964.526
134.483	13.601	1294.925	963.287
135.497	13.662	1294.211	963.025
136.512	13.863	1291.949	962.426
137.527	13.757	1290.953	960.984
138.541	13.728	1289.616	959.736
139.556	13.752	1288.409	958.894
140.570	13.732	1287.522	958.028
141.585	13.769	1286.045	957.058
142.600	13.818	1285.186	956.618
143.614	13.960	1284.008	956.473
144.629	13.892	1282.781	955.083
145.643	13.875	1282.025	954.343
146.658	13.787	1280.736	952.792
147.673	13.844	1279.338	951.996
148.687	13.873	1277.913	951.016
149.702	13.890	1276.884	950.261
150.716	13.765	1275.513	948.443
151.731	13.864	1273.931	947.750
152.746	13.929	1272.598	947.041
153.760	13.873	1271.656	945.942
154.775	13.896	1270.663	945.247
155.789	13.887	1269.426	944.195
156.804	13.938	1268.429	943.660
157.819	14.036	1267.426	943.384
158.833	14.014	1266.369	942.392
159.848	14.036	1265.436	941.734
160.862	14.059	1264.122	940.807
161.877	14.090	1262.857	939.957
162.892	13.940	1262.241	938.569
163.906	13.957	1261.013	937.668
164.921	14.036	1260.242	937.454
165.935	13.955	1259.227	936.164
166.950	14.061	1258.638	936.238
167.964	14.057	1257.965	935.630
168.979	14.088	1257.090	935.072
169.994	14.026	1256.313	934.064
171.008	14.064	1255.336	933.467
172.023	14.043	1254.781	932.852
173.037	14.141	1253.869	932.642
174.052	14.165	1252.815	931.913
175.067	14.103	1251.612	930.586
176.081	14.006	1250.803	929.359
177.096	14.093	1249.767	928.998
178.110	14.139	1248.819	928.467
179.125	14.116	1247.427	927.223
180.140	14.103	1246.623	926.469
181.154	14.181	1245.064	925.659
182.169	14.208	1244.108	925.022
183.183	14.262	1242.395	923.961
184.198	14.301	1241.390	923.351
185.213	14.344	1240.222	922.640
186.227	14.392	1238.660	921.660
187.242	14.320	1237.767	920.519
188.256	14.407	1237.104	920.420
189.271	14.229	1236.272	918.739
190.286	14.334	1235.024	918.310
191.300	14.227	1234.342	917.132
192.315	14.197	1233.670	916.388
193.329	14.140	1233.219	915.655
194.344	14.219	1232.854	915.740
195.359	14.385	1231.921	915.877
196.373	14.334	1231.305	915.056
197.388	14.468	1230.544	915.144
198.402	14.376	1230.318	914.390
199.417	14.509	1229.564	914.482
200.432	14.554	1228.785	914.070
201.446	14.601	1227.489	913.282
202.461	14.580	1226.512	912.356
203.475	14.563	1225.893	911.723
204.490	14.498	1224.969	910.600
205.504	14.479	1223.570	909.379
206.519	14.577	1222.252	908.849
207.534	14.620	1221.109	908.152
208.548	14.458	1220.622	906.828
209.563	14.540	1219.422	906.307
210.577	14.698	1218.051	906.062
211.592	14.575	1217.306	904.759
212.607	14.651	1216.576	904.552
213.621	14.697	1215.415	903.855
214.636	14.731	1214.576	903.337
215.650	14.690	1213.581	902.292
216.665	14.709	1213.075	901.940
217.680	14.646	1212.431	901.043
218.694	14.712	1211.123	900.348
219.709	14.785	1210.389	900.115
220.723	14.816	1209.386	899.454
221.738	14.706	1209.280	898.706
222.753	14.815	1208.199	898.410
223.767	14.781	1207.520	897.643
224.782	14.881	1206.856	897.604
225.796	14.892	1206.061	896.995
226.811	14.870	1205.472	896.357
227.826	14.744	1205.047	895.290
228.840	14.898	1203.974	895.233
229.855	14.919	1202.964	894.518
230.869	14.951	1202.567	894.317
231.884	14.961	1201.538	893.526
232.899	14.837	1200.871	892.286
233.913	14.860	1200.165	891.804
234.928	14.916	1199.334	891.409
235.942	14.868	1198.776	890.658
236.957	14.889	1197.618	889.829
237.972	14.961	1196.613	889.389
238.986	14.907	1196.117	888.652
240.001	14.958	1195.515	888.401
241.015	14.926	1194.487	887.386
242.030	14.943	1193.907	886.966
243.045	15.035	1192.803	886.555
244.059	15.104	1192.526	886.635
245.074	15.022	1191.372	885.269
246.088	15.042	1190.671	884.771
247.103	15.126	1190.014	884.650
248.117	15.186	1188.895	884.058
249.132	15.180	1188.212	883.440
250.147	15.235	1187.520	883.138
251.161	15.297	1186.654	882.743
252.176	15.286	1186.225	882.287
253.190	15.329	1185.486	881.887
254.205	15.368	1184.689	881.417
255.220	15.290	1184.588	880.856
256.234	15.430	1183.529	880.723
257.249	15.424	1182.576	879.907
258.263	15.491	1182.294	879.972
259.278	15.413	1181.675	879.024
260.293	15.346	1181.169	878.219
261.307	15.420	1180.561	878.077
262.322	15.505	1179.403	877.582
263.336	15.595	1178.692	877.441
264.351	15.569	1177.904	876.644
265.366	15.550	1177.579	876.224
266.380	15.536	1177.242	875.822
267.395	15.419	1176.560	874.631
268.409	15.530	1175.169	874.093
269.424	15.617	1174.500	873.973
270.439	15.611	1173.991	873.485
271.453	15.559	1173.038	872.430
272.468	15.548	1172.729	872.064
273.482	15.492	1171.804	871.008
274.497	15.617	1170.839	870.862
275.512	15.646	1170.222	870.476
276.526	15.605	1169.522	869.670
277.541	15.700	1168.825	869.562
278.555	15.514	1168.560	868.330
279.570	15.590	1167.424	867.798
280.585	15.684	1166.590	867.586
281.599	15.773	1165.410	867.093
282.614	15.790	1164.377	866.333
283.628	15.766	1163.426	865.429
284.643	15.714	1162.524	864.409
285.657	15.772	1161.930	864.192
286.672	15.955	1160.342	863.870
287.687	15.748	1160.077	862.538
288.701	15.797	1159.322	862.152
289.716	15.901	1158.376	861.904
290.730	15.881	1157.534	861.098
291.745	15.825	1157.156	860.452
292.760	15.907	1156.249	860.125
293.774	15.921	1156.157	860.049
294.789	16.098	1155.097	860.091
295.803	16.007	1154.197	858.881
296.818	15.887	1153.447	857.633
297.833	16.005	1152.735	857.628
298.847	15.865	1152.399	856.588
299.862	16.043	1151.094	856.450
300.876	16.021	1150.770	856.022
301.891	16.003	1149.976	855.263
302.906	15.978	1149.581	854.769
303.920	16.127	1148.334	854.517
304.935	16.128	1147.685	853.967
305.949	16.092	1147.469	853.545
306.964	16.214	1146.729	853.536
307.979	16.154	1145.664	852.365
308.993	16.192	1145.080	852.050
310.008	16.202	1144.198	851.368
311.022	16.237	1143.320	850.816
312.037	16.224	1142.618	850.152
313.052	16.130	1141.691	848.915
314.066	16.213	1140.872	848.648
315.081	16.163	1139.824	847.543
316.095	16.219	1139.161	847.253
317.110	16.208	1138.634	846.732
318.125	16.219	1137.892	846.159
319.139	16.294	1136.811	845.657
320.154	16.218	1136.534	844.998
321.168	16.293	1135.470	844.505
322.183	16.277	1134.924	843.942
323.197	16.266	1134.904	843.800
324.212	16.264	1134.038	843.073
325.227	16.374	1133.097	842.845
326.241	16.374	1132.581	842.386
327.256	16.358	1131.671	841.554
328.270	16.164	1131.076	840.073
329.285	16.346	1129.374	839.642
330.300	16.376	1128.651	839.180
331.314	16.308	1128.241	838.459
332.329	16.378	1126.891	837.729
333.343	16.407	1126.568	837.562
334.358	16.453	1125.293	836.766
335.373	16.410	1124.514	835.899
336.387	16.444	1123.915	835.549
337.402	16.531	1122.678	834.985
338.416	16.489	1122.343	834.452
339.431	16.478	1121.719	833.864
340.446	16.504	1120.999	833.383
341.460	16.583	1120.216	833.112
342.475	16.668	1119.433	832.879
343.489	16.724	1118.415	832.319
344.504	16.630	1117.348	830.990
345.519	16.730	1116.416	830.715
346.533	16.757	1115.663	830.216
347.548	16.817	1115.394	830.233
348.562	16.782	1114.424	829.268
349.577	16.828	1113.715	828.893
350.592	16.782	1112.931	828.008
351.606	16.785	1111.866	827.159
352.621	16.735	1111.492	826.565
353.635	16.755	1111.056	826.264
354.650	16.799	1110.341	825.871
355.665	16.807	1109.500	825.214
356.679	16.861	1108.661	824.782
357.694	16.833	1108.547	824.485
358.708	16.873	1107.521	823.841
359.723	16.902	1106.935	823.474
360.738	16.803	1106.477	822.581
361.752	16.883	1105.730	822.342
362.767	16.827	1105.283	821.663
363.781	16.794	1105.092	821.289
364.796	16.829	1103.947	820.534
365.810	16.959	1103.485	820.751
366.825	16.951	1102.477	819.890
367.840	16.915	1102.227	819.455
368.854	17.165	1101.363	819.949
369.869	17.077	1100.807	819.038
370.883	17.110	1099.999	818.523
371.898	17.089	1098.876	817.514
372.913	17.191	1098.202	817.429
373.927	17.063	1098.333	816.840
374.942	17.080	1097.776	816.435
375.956	17.184	1096.784	816.122
376.971	17.257	1096.079	815.877
377.986	17.160	1095.666	815.033
379.000	17.284	1095.277	815.265
380.015	17.332	1094.827	815.089
381.029	17.331	1093.956	814.366
382.044	17.326	1093.248	813.741
383.059	17.288	1092.518	812.942
384.073	17.304	1092.111	812.645
385.088	17.386	1090.758	811.961
386.102	17.319	1089.669	810.756
387.117	17.506	1088.365	810.606
388.132	17.373	1087.858	809.523
389.146	17.460	1087.035	809.254
390.161	17.366	1086.351	808.223
391.175	17.399	1085.899	807.972
392.190	17.431	1085.161	807.505
393.205	17.451	1084.347	806.923
394.219	17.430	1083.479	806.106
395.234	17.530	1082.422	805.722
396.248	17.519	1081.272	804.741
397.263	17.455	1080.646	803.902
398.278	17.437	1079.918	803.207
399.292	17.421	1078.961	802.345
400.307	17.464	1078.593	802.205
401.321	17.489	1077.493	801.435
402.336	17.611	1076.923	801.513
403.350	17.521	1076.482	800.691
404.365	17.518	1075.479	799.858
405.380	17.634	1074.952	799.943
406.394	17.573	1074.272	799.077
407.409	17.720	1073.403	799.050
408.423	17.664	1072.869	798.320
409.438	17.724	1071.860	797.780
410.453	17.698	1071.800	797.544
411.467	17.812	1070.500	797.036
412.482	17.822	1070.053	796.678
413.496	17.853	1069.392	796.262
414.511	17.854	1068.831	795.779
415.526	17.890	1068.283	795.470
416.540	17.918	1067.856	795.208
417.555	17.855	1067.132	794.306
418.569	17.997	1066.874	794.706
419.584	18.005	1065.997	794.020
420.599	17.838	1065.917	793.115
421.613	109.700	1332.898	1493.039
422.628	101.445	1371.693	1493.098
