DTS Sentinel unit serial number:	SN413079Multiplexer serial number:	ORYXHardware model number:	OX4-SRSoftware version number:	ORYX F/W v4.00 Oryx Data Collector v3.7.2.0data status	okinstallation	princeton_trtdifferential loss correction	single-endedforward channel	channel 2reverse channel	N/Adate	2019/09/17time	01:47:35forward acquisition time	60.00reverse acquisition time	0.00gamma	496.2192k internal	0.2328k external	0.2328temperature offset calibration	0.9975default loss term (dB/km)	0.3790temperature slope calibration	1.0000multiplexer offset coefficient	1.0000multiplexer slope coefficient	1.0000fibre end	0.00T internal ref (°C)	29.62T ext. ref 1 (°C)	0.12T ext. ref 2 (°C)	24.57length (m)	temperature (°C)	Stokes	anti-Stokes-747.200	549.265	0.057	-0.139
-746.185	-17.018	-0.201	-0.128
-745.171	-200.000	0.002	-0.028
-744.156	-69.373	-0.258	-0.100
-743.142	45.662	0.243	-0.226
-742.127	-76.018	0.084	0.030
-741.112	-27.180	-0.258	-0.151
-740.098	-75.378	-0.231	0.083
-739.083	1.995	-0.078	-0.057
-738.069	-113.599	-0.244	-0.048
-737.054	34.776	-0.258	0.227
-736.039	123.484	0.188	0.238
-735.025	38.629	0.127	0.114
-734.010	72.277	-0.249	-0.261
-732.996	-63.497	0.384	-0.159
-731.981	-200.000	0.020	-0.330
-730.966	188.361	-0.185	-0.279
-729.952	58.710	0.387	-0.382
-728.937	-94.712	-0.297	0.081
-727.923	183.715	-0.214	-0.319
-726.908	-28.653	0.307	0.178
-725.894	-200.000	-0.008	-0.222
-724.879	-79.084	-0.492	-0.168
-723.864	0.924	0.190	-0.137
-722.850	-75.905	0.092	0.033
-721.835	-200.000	-0.023	0.356
-720.821	-89.333	-0.301	-0.089
-719.806	458.842	0.203	0.454
-718.791	-128.031	-0.156	-0.023
-717.777	-24.051	0.135	-0.081
-716.762	-82.535	0.170	-0.055
-715.748	-94.201	-0.296	0.082
-714.733	-200.000	-0.007	-0.175
-713.718	657.613	0.114	-0.296
-712.704	-200.000	0.155	0.000
-711.689	-78.342	0.056	-0.019
-710.675	73.720	-0.118	-0.125
-709.660	800.000	0.006	-0.025
-708.645	12.171	0.037	-0.029
-707.631	59.075	-0.192	0.190
-706.616	22.222	0.311	0.255
-705.602	131.081	-0.075	0.097
-704.587	-84.598	0.187	0.059
-703.572	-74.622	0.167	0.060
-702.558	55.425	0.162	-0.158
-701.543	97.948	-0.246	0.285
-700.529	800.000	0.089	0.251
-699.514	-200.000	-0.038	0.175
-698.499	-200.000	-0.005	0.191
-697.485	64.709	0.336	-0.340
-696.470	800.000	0.056	0.165
-695.456	643.014	-0.062	0.159
-694.441	168.264	0.150	0.215
-693.426	-132.494	0.258	-0.033
-692.412	-4.125	0.247	0.172
-691.397	-98.360	0.228	0.059
-690.383	800.000	-0.067	0.257
-689.368	800.000	0.045	0.199
-688.354	108.370	-0.193	-0.231
-687.339	76.275	0.076	-0.080
-686.324	146.291	0.085	-0.115
-685.310	800.000	0.075	-0.254
-684.295	800.000	-0.096	0.336
-683.281	-200.000	0.006	0.339
-682.266	49.731	0.098	-0.093
-681.251	-128.357	-0.291	-0.042
-680.237	-112.656	0.151	-0.030
-679.222	-200.000	-0.022	0.183
-678.208	-200.000	-0.005	-0.483
-677.193	184.311	-0.147	-0.220
-676.178	800.000	-0.044	-0.125
-675.164	234.351	-0.062	-0.103
-674.149	-200.000	0.049	0.224
-673.135	-163.972	0.173	0.008
-672.120	-22.300	0.300	0.183
-671.105	-200.000	-0.042	0.232
-670.091	-171.567	-0.429	-0.014
-669.076	-200.000	0.041	0.204
-668.062	221.190	0.234	-0.378
-667.047	-200.000	0.027	0.151
-666.032	-95.450	-0.072	0.019
-665.018	800.000	-0.117	-0.366
-664.003	759.798	0.045	-0.123
-662.989	145.710	-0.084	-0.113
-661.974	89.181	0.169	0.189
-660.959	8.250	0.230	-0.174
-659.945	196.251	-0.049	-0.076
-658.930	-38.020	-0.444	-0.237
-657.916	68.404	-0.241	-0.248
-656.901	-75.055	0.060	-0.022
-655.886	47.429	0.177	0.165
-654.872	458.566	0.122	0.271
-653.857	-106.420	0.174	0.039
-652.843	-200.000	0.035	-0.387
-651.828	-200.000	0.072	-0.421
-650.814	378.894	-0.076	-0.155
-649.799	-118.165	-0.265	-0.047
-648.784	-55.643	0.152	0.068
-647.770	-110.581	0.294	0.061
-646.755	-171.732	-0.205	0.007
-645.741	-133.197	-0.211	-0.027
-644.726	95.410	-0.042	0.048
-643.711	49.941	-0.053	0.050
-642.697	-38.102	-0.075	-0.040
-641.682	800.000	-0.048	0.179
-640.668	-115.236	0.406	-0.077
-639.653	-200.000	-0.001	0.016
-638.638	7.169	-0.276	0.207
-637.624	-90.365	-0.256	0.075
-636.609	633.146	0.020	-0.052
-635.595	-200.000	0.019	0.194
-634.580	33.900	-0.172	0.150
-633.565	139.140	-0.063	0.083
-632.551	108.191	-0.127	-0.152
-631.536	-38.701	0.109	-0.058
-630.522	149.097	-0.167	0.227
-629.507	42.506	0.251	-0.229
-628.492	-53.478	-0.078	-0.036
-627.478	800.000	0.110	0.307
-626.463	-200.000	0.008	0.148
-625.449	-121.851	-0.320	0.053
-624.434	-200.000	0.016	-0.092
-623.419	800.000	-0.065	-0.249
-622.405	-143.461	-0.228	-0.022
-621.390	334.844	-0.037	-0.071
-620.376	-125.091	-0.156	-0.024
-619.361	-57.157	-0.214	0.094
-618.346	159.539	-0.158	0.220
-617.332	-143.806	0.181	0.017
-616.317	-21.630	0.370	-0.226
-615.303	220.711	0.095	0.153
-614.288	11.674	-0.174	-0.134
-613.273	347.490	-0.025	-0.049
-612.259	-145.170	0.444	-0.040
-611.244	-97.544	0.255	0.066
-610.230	91.217	0.179	-0.201
-609.215	-94.580	-0.256	0.070
-608.201	-196.782	0.254	-0.002
-607.186	-84.066	-0.085	-0.027
-606.171	800.000	0.027	-0.112
-605.157	-135.210	-0.132	-0.016
-604.142	800.000	-0.037	-0.107
-603.128	71.892	-0.114	-0.119
-602.113	-180.270	0.151	-0.003
-601.098	-105.761	-0.290	0.066
-600.084	-200.000	-0.053	-0.296
-599.069	-101.348	-0.250	0.061
-598.055	-8.211	0.401	-0.271
-597.040	388.615	-0.139	0.288
-596.025	-59.476	0.190	-0.082
-595.011	785.804	-0.040	-0.111
-593.996	-7.832	0.325	-0.220
-592.982	-200.000	0.050	0.387
-591.967	311.187	-0.042	-0.079
-590.952	125.824	-0.176	0.222
-589.938	209.001	-0.157	-0.246
-588.923	-101.074	0.374	-0.092
-587.909	-200.000	0.041	0.211
-586.894	11.575	0.093	-0.072
-585.879	-200.000	-0.015	-0.141
-584.865	-103.568	0.281	-0.066
-583.850	249.129	0.053	-0.090
-582.836	-200.000	0.025	0.128
-581.821	-200.000	0.030	0.258
-580.806	0.182	-0.148	-0.105
-579.792	61.845	0.223	-0.222
-578.777	20.345	-0.176	-0.143
-577.763	170.819	-0.399	-0.572
-576.748	-87.871	-0.194	-0.058
-575.733	-200.000	-0.062	0.421
-574.719	325.233	0.033	-0.063
-573.704	-200.000	-0.021	-0.161
-572.690	-151.639	-0.050	0.004
-571.675	-109.097	0.292	0.062
-570.661	-114.604	-0.350	-0.067
-569.646	800.000	0.107	-0.347
-568.631	-133.412	0.081	0.010
-567.617	-175.027	-0.331	-0.009
-566.602	88.327	0.251	-0.279
-565.588	-132.039	-0.404	0.053
-564.573	276.486	0.025	0.044
-563.558	17.379	0.195	0.155
-562.544	387.180	0.178	0.368
-561.529	-97.750	0.473	-0.123
-560.515	-121.701	0.105	0.017
-559.500	198.526	0.045	-0.068
-558.485	-33.619	-0.093	0.052
-557.471	-108.164	-0.256	-0.056
-556.456	-143.035	-0.496	-0.048
-555.442	-146.080	-0.199	0.018
-554.427	-99.597	-0.137	-0.034
-553.412	405.601	0.053	0.111
-552.398	-66.292	-0.351	0.140
-551.383	6.048	-0.307	0.228
-550.369	53.013	0.121	-0.115
-549.354	-191.720	-0.280	0.003
-548.339	689.731	-0.017	-0.045
-547.325	-200.000	0.004	-0.076
-546.310	800.000	0.030	-0.091
-545.296	291.390	0.093	-0.169
-544.281	232.886	0.043	-0.070
-543.266	-36.592	0.077	-0.042
-542.252	-92.836	0.263	0.073
-541.237	-120.279	0.588	-0.100
-540.223	590.807	-0.125	-0.309
-539.208	26.949	-0.107	-0.089
-538.193	-124.239	-0.215	0.034
-537.179	-177.931	-0.418	-0.010
-536.164	21.432	0.025	-0.020
-535.150	-200.000	0.025	0.259
-534.135	-43.278	-0.246	-0.125
-533.121	43.065	-0.049	0.044
-532.106	-145.953	-0.061	-0.005
-531.091	-63.897	-0.008	-0.003
-530.077	-200.000	-0.044	-0.409
-529.062	800.000	-0.048	-0.156
-528.048	-200.000	0.000	-0.067
-527.033	-39.578	0.303	-0.158
-526.018	106.574	0.038	-0.045
-525.004	-200.000	-0.037	0.348
-523.989	-116.389	0.110	-0.020
-522.975	715.630	-0.061	0.163
-521.960	-129.635	0.134	-0.018
-520.945	-49.923	0.043	0.020
-519.931	-101.908	-0.183	-0.044
-518.916	-200.000	-0.007	-0.222
-517.902	782.677	0.064	0.176
-516.887	-200.000	-0.087	0.396
-515.872	481.189	-0.025	0.057
-514.858	-82.827	-0.151	-0.049
-513.843	-50.526	0.263	0.124
-512.829	704.707	0.070	-0.183
-511.814	800.000	0.046	-0.173
-510.799	143.124	0.149	0.198
-509.785	429.146	0.209	0.452
-508.770	-200.000	0.007	-0.139
-507.756	-42.350	-0.394	0.201
-506.741	9.702	-0.106	-0.080
-505.726	-93.186	-0.074	-0.021
-504.712	-200.000	0.015	-0.279
-503.697	307.123	0.088	0.163
-502.683	233.637	-0.135	-0.222
-501.668	-200.000	0.007	-0.109
-500.653	-159.136	0.298	-0.017
-499.639	-200.000	0.001	0.195
-498.624	64.305	-0.111	-0.112
-497.610	-105.237	0.284	0.065
-496.595	-200.000	0.018	0.089
-495.581	-200.000	0.020	0.280
-494.566	120.406	-0.234	-0.290
-493.551	-200.000	0.012	-0.107
-492.537	-200.000	-0.001	0.296
-491.522	-49.902	0.145	0.069
-490.508	-138.214	0.124	0.014
-489.493	-11.249	-0.293	-0.193
-488.478	175.312	0.044	-0.064
-487.464	-123.802	-0.306	-0.048
-486.449	-200.000	0.001	-0.292
-485.435	-88.534	0.317	0.094
-484.420	21.005	0.117	-0.095
-483.405	-200.000	-0.009	-0.046
-482.391	437.874	-0.173	-0.377
-481.376	-200.000	-0.019	-0.134
-480.362	800.000	0.079	-0.240
-479.347	-160.695	0.250	-0.013
-478.332	256.624	0.143	-0.244
-477.318	-200.000	-0.012	0.202
-476.303	587.122	0.105	-0.258
-475.289	800.000	-0.068	-0.287
-474.274	-64.607	-0.199	-0.080
-473.259	-200.000	0.014	-0.133
-472.245	-143.041	0.158	0.015
-471.230	-71.933	-0.143	0.053
-470.216	365.288	-0.122	0.246
-469.201	-84.256	0.187	-0.059
-468.186	-189.091	-0.141	-0.002
-467.172	800.000	-0.018	-0.071
-466.157	16.878	-0.058	0.045
-465.143	-28.167	-0.263	0.151
-464.128	-15.026	-0.124	-0.079
-463.113	-10.595	-0.140	-0.092
-462.099	105.629	0.165	-0.194
-461.084	-200.000	-0.016	-0.132
-460.070	800.000	0.011	-0.042
-459.055	3.913	0.328	0.239
-458.040	467.255	0.040	0.089
-457.026	-116.306	-0.382	-0.070
-456.011	14.552	-0.295	0.230
-454.997	-9.711	-0.138	0.092
-453.982	21.461	-0.127	-0.103
-452.968	-46.998	0.135	-0.066
-451.953	-77.380	-0.425	0.147
-450.938	-48.302	-0.261	0.125
-449.924	606.594	-0.090	0.224
-448.909	-200.000	-0.004	-0.166
-447.895	46.367	-0.082	-0.076
-446.880	-193.374	-0.405	0.004
-445.865	196.042	0.185	-0.280
-444.851	-59.141	-0.022	0.010
-443.836	1.445	-0.154	0.110
-442.822	392.903	0.066	-0.137
-441.807	-149.454	0.322	0.025
-440.792	-8.611	-0.256	0.171
-439.778	-200.000	-0.045	0.309
-438.763	26.763	-0.141	-0.117
-437.749	-34.081	-0.139	-0.076
-436.734	-154.789	0.055	-0.004
-435.719	-93.142	-0.276	0.076
-434.705	800.000	-0.038	-0.166
-433.690	-118.749	-0.328	-0.058
-432.676	-80.652	-0.177	0.059
-431.661	-200.000	0.051	-0.271
-430.646	-147.408	-0.026	0.002
-429.632	-88.861	-0.280	-0.083
-428.617	-72.830	-0.239	-0.088
-427.603	70.463	-0.159	0.164
-426.588	299.805	0.205	0.376
-425.573	148.502	-0.122	0.165
-424.559	-79.370	-0.129	-0.043
-423.544	-108.253	0.345	-0.074
-422.530	800.000	-0.083	0.247
-421.515	-132.910	-0.359	0.045
-420.500	27.716	-0.359	-0.301
-419.486	630.981	-0.076	-0.193
-418.471	-136.771	0.218	0.025
-417.457	63.581	-0.099	0.099
-416.442	-5.496	0.042	0.029
-415.428	117.624	-0.068	0.083
-414.413	-200.000	0.011	0.306
-413.398	-190.254	-0.104	0.001
-412.384	-108.199	0.178	-0.038
-411.369	-97.283	-0.217	-0.056
-410.355	-200.000	0.005	-0.117
-409.340	-87.358	-0.234	0.071
-408.325	-52.354	0.283	0.130
-407.311	800.000	-0.060	0.180
-406.296	-200.000	-0.004	-0.386
-405.282	-200.000	-0.045	0.200
-404.267	800.000	0.105	-0.409
-403.252	-23.219	-0.244	0.146
-402.238	145.862	-0.132	-0.175
-401.223	-87.792	0.286	-0.086
-400.209	-12.391	-0.140	0.091
-399.194	-24.709	0.055	-0.032
-398.179	293.910	-0.153	0.277
-397.165	800.000	0.095	0.261
-396.150	-106.113	0.188	0.042
-395.136	-95.818	0.204	0.054
-394.121	-150.397	0.041	-0.003
-393.106	-134.139	-0.387	-0.048
-392.092	11.503	-0.125	-0.095
-391.077	359.246	-0.175	0.347
-390.063	-51.115	0.239	0.111
-389.048	101.012	0.103	-0.119
-388.033	800.000	0.097	0.280
-387.019	-200.000	0.007	-0.038
-386.004	308.464	-0.053	-0.099
-384.990	-54.474	0.138	-0.062
-383.975	359.524	-0.093	-0.185
-382.960	-108.722	0.051	0.011
-381.946	-138.133	0.224	-0.025
-380.931	90.860	0.049	0.054
-379.917	-200.000	0.004	0.063
-378.902	-54.443	0.054	0.024
-377.888	-65.490	0.138	0.055
-376.873	-200.000	0.032	-0.206
-375.858	285.528	0.052	-0.093
-374.844	800.000	0.021	-0.064
-373.829	139.476	0.022	0.029
-372.815	180.385	-0.099	-0.144
-371.800	-127.307	0.199	0.029
-370.785	-200.000	0.027	0.628
-369.771	114.325	0.157	0.190
-368.756	-111.811	-0.252	-0.051
-367.742	800.000	0.027	0.086
-366.727	21.658	-0.156	-0.126
-365.712	-17.184	-0.328	-0.205
-364.698	-33.645	-0.033	-0.018
-363.683	-200.000	-0.024	0.205
-362.669	800.000	0.095	0.406
-361.654	-7.514	0.172	-0.115
-360.639	138.444	0.179	0.234
-359.625	184.381	-0.086	-0.127
-358.610	-200.000	0.013	-0.135
-357.596	225.870	0.086	0.139
-356.581	540.010	-0.109	-0.257
-355.566	-98.082	-0.089	0.023
-354.552	800.000	0.076	-0.259
-353.537	-200.000	0.019	0.216
-352.523	-23.696	0.095	0.057
-351.508	-146.919	-0.125	0.011
-350.493	800.000	0.028	-0.100
-349.479	-145.591	-0.329	-0.029
-348.464	76.353	0.155	0.163
-347.450	10.220	-0.359	-0.271
-346.435	-14.315	-0.302	-0.193
-345.420	156.406	0.086	0.117
-344.406	260.606	0.158	-0.271
-343.391	125.852	0.303	-0.380
-342.377	-44.559	0.179	0.089
-341.362	237.784	0.215	0.354
-340.348	-41.289	0.244	0.125
-339.333	256.285	0.044	-0.075
-338.318	36.547	-0.071	-0.062
-337.304	-5.433	-0.198	0.135
-336.289	-200.000	0.000	0.054
-335.275	-8.110	0.189	0.126
-334.260	-7.113	-0.134	-0.090
-333.245	87.158	-0.110	-0.121
-332.231	390.372	0.075	-0.154
-331.216	-17.499	0.221	-0.138
-330.202	800.000	-0.147	0.466
-329.187	207.912	0.202	0.312
-328.172	-48.054	-0.210	-0.100
-327.158	87.291	-0.241	-0.264
-326.143	800.000	0.111	-0.377
-325.129	268.248	0.129	0.224
-324.114	405.890	-0.042	-0.089
-323.099	-144.615	-0.032	0.003
-322.085	31.532	0.315	0.269
-321.070	185.717	-0.078	-0.114
-320.056	4.327	-0.095	0.069
-319.041	-23.406	-0.119	0.071
-318.026	257.659	0.184	0.314
-317.012	207.800	-0.010	0.015
-315.997	-130.024	0.133	-0.018
-314.983	15.334	0.196	-0.152
-313.968	-151.069	0.168	-0.013
-312.953	-32.414	-0.224	-0.124
-311.939	226.525	-0.212	0.342
-310.924	-59.859	0.208	0.088
-309.910	249.955	-0.041	-0.069
-308.895	1.517	0.070	0.050
-307.880	-16.105	-0.076	0.048
-306.866	-34.082	0.328	0.179
-305.851	800.000	-0.118	0.437
-304.837	-200.000	0.070	0.373
-303.822	245.415	0.082	-0.136
-302.807	-68.561	0.186	0.071
-301.793	-164.520	-0.335	0.015
-300.778	60.203	-0.326	-0.319
-299.764	103.871	0.319	0.371
-298.749	6.237	-0.149	-0.109
-297.735	-87.335	0.155	-0.046
-296.720	-110.728	0.352	0.072
-295.705	-200.000	-0.006	0.037
-294.691	-200.000	-0.034	-0.411
-293.676	-66.471	0.067	0.026
-292.662	177.757	0.050	-0.072
-291.647	229.926	0.133	-0.215
-290.632	-182.857	-0.389	0.007
-289.618	8.486	-0.185	0.138
-288.603	176.740	-0.082	-0.117
-287.589	200.156	0.271	0.412
-286.574	-90.201	-0.026	0.007
-285.559	800.000	-0.086	-0.275
-284.545	-75.299	0.297	-0.105
-283.530	-124.632	-0.189	-0.029
-282.516	-174.943	0.320	0.009
-281.501	800.000	0.131	0.437
-280.486	-200.000	-0.008	0.147
-279.472	371.179	-0.127	-0.256
-278.457	32.735	-0.048	-0.041
-277.443	21.332	0.247	-0.198
-276.428	232.890	0.209	-0.341
-275.413	137.021	-0.071	0.092
-274.399	104.248	-0.067	-0.078
-273.384	800.000	-0.081	0.222
-272.370	582.611	-0.022	0.052
-271.355	83.290	0.088	-0.095
-270.340	-85.866	-0.121	-0.037
-269.326	-124.847	-0.058	-0.009
-268.311	-21.627	0.146	0.088
-267.297	269.381	0.129	0.224
-266.282	-200.000	0.009	0.049
-265.267	40.602	-0.128	0.114
-264.253	-27.582	0.129	-0.074
-263.238	-99.890	0.234	-0.058
-262.224	250.286	0.026	-0.044
-261.209	149.451	0.083	-0.111
-260.195	-156.666	0.419	0.026
-259.180	152.341	0.291	0.392
-258.165	-200.000	-0.004	0.130
-257.151	-151.833	-0.038	0.003
-256.136	-50.735	0.153	-0.071
-255.122	-14.719	0.252	-0.160
-254.107	-166.643	-0.219	0.009
-253.092	-177.907	-0.324	0.008
-252.078	-200.000	-0.020	0.248
-251.063	-200.000	-0.010	-0.096
-250.049	45.106	0.144	-0.132
-249.034	-36.343	0.214	-0.114
-248.019	478.109	0.117	0.261
-247.005	-200.000	0.024	-0.200
-245.990	70.932	-0.195	0.199
-244.976	-200.000	0.025	-0.212
-243.961	487.182	0.094	0.212
-242.946	509.118	0.178	-0.409
-241.932	800.000	0.018	0.067
-240.917	9.331	-0.359	-0.268
-239.903	-28.944	-0.262	0.148
-238.888	32.777	-0.234	0.200
-237.873	256.340	0.056	-0.094
-236.859	-2.632	0.255	0.177
-235.844	800.000	0.066	-0.189
-234.830	-158.428	-0.134	0.008
-233.815	-52.600	0.330	0.150
-232.800	132.978	-0.227	0.289
-231.786	800.000	0.037	-0.115
-230.771	800.000	0.066	0.240
-229.757	156.857	0.110	-0.150
-228.742	-169.879	0.158	0.006
-227.727	504.128	-0.062	-0.141
-226.713	-46.876	-0.109	0.052
-225.698	800.000	0.025	-0.071
-224.684	-200.000	0.009	-0.078
-223.669	749.950	0.095	-0.253
-222.655	800.000	0.120	0.380
-221.640	340.626	0.111	-0.213
-220.625	-200.000	0.013	-0.144
-219.611	70.189	-0.111	-0.113
-218.596	-200.000	0.005	0.105
-217.582	-84.045	-0.243	-0.076
-216.567	800.000	0.055	0.210
-215.552	105.983	-0.098	0.114
-214.538	225.322	0.128	-0.205
-213.523	278.305	0.174	-0.306
-212.509	-80.758	0.140	-0.046
-211.494	10.653	-0.127	0.096
-210.479	-16.067	-0.198	0.124
-209.465	-6.933	0.216	-0.145
-208.450	-96.746	-0.158	-0.041
-207.436	-200.000	-0.061	-0.332
-206.421	116.038	0.173	-0.208
-205.406	370.882	-0.064	0.129
-204.392	607.564	0.012	-0.029
-203.377	92.032	-0.079	0.088
-202.363	-13.301	-0.231	0.148
-201.348	800.000	-0.054	0.193
-200.333	46.495	0.089	0.081
-199.319	-129.405	0.358	-0.049
-198.304	122.304	0.053	0.065
-197.290	32.737	0.063	0.054
-196.275	68.998	-0.223	0.226
-195.260	-200.000	-0.003	0.235
-194.246	51.127	0.069	-0.065
-193.231	-73.098	-0.282	0.102
-192.217	-200.000	-0.040	-0.173
-191.202	83.355	0.088	-0.095
-190.187	304.306	0.146	-0.268
-189.173	159.742	0.199	-0.273
-188.158	176.944	0.176	-0.252
-187.144	217.546	-0.084	-0.133
-186.129	-154.491	0.143	0.009
-185.114	-200.000	-0.019	0.186
-184.100	-54.948	-0.171	-0.076
-183.085	-13.484	-0.099	0.063
-182.071	-200.000	0.014	-0.138
-181.056	-41.287	-0.136	-0.069
-180.042	-103.850	0.320	0.074
-179.027	793.250	0.095	0.257
-178.012	-200.000	-0.026	-0.176
-176.998	76.481	0.175	0.183
-175.983	24.661	0.242	0.198
-174.969	-200.000	-0.040	0.299
-173.954	800.000	-0.053	0.168
-172.939	15.146	0.203	0.157
-171.925	723.978	-0.092	0.241
-170.910	-200.000	-0.007	0.248
-169.896	161.848	0.138	0.191
-168.881	-10.122	0.389	-0.254
-167.866	-200.000	0.056	0.258
-166.852	97.122	0.154	-0.174
-165.837	138.807	-0.187	0.242
-164.823	-18.359	0.299	-0.184
-163.808	-87.591	-0.276	0.082
-162.793	-200.000	-0.023	-0.227
-161.779	-127.095	0.310	0.045
-160.764	-130.100	-0.266	-0.036
-159.750	800.000	-0.085	0.267
-158.735	-7.717	0.399	0.266
-157.720	-68.651	0.175	-0.067
-156.706	223.112	-0.046	-0.073
-155.691	-200.000	0.024	0.184
-154.677	-148.855	-0.247	0.020
-153.662	-46.073	0.327	-0.159
-152.647	209.073	0.190	-0.293
-151.633	17.745	0.224	-0.175
-150.618	-200.000	0.006	-0.179
-149.604	663.269	-0.117	-0.296
-148.589	800.000	0.029	0.107
-147.574	220.351	0.081	-0.128
-146.560	54.931	0.218	-0.207
-145.545	-200.000	0.019	0.162
-144.531	-162.080	0.125	0.006
-143.516	213.845	-0.166	-0.258
-142.502	-200.000	0.039	0.453
-141.487	-135.678	-0.190	0.022
-140.472	-200.000	-0.011	0.191
-139.458	100.161	-0.112	-0.128
-138.443	800.000	-0.076	-0.274
-137.429	-52.740	0.133	-0.060
-136.414	-200.000	0.017	0.150
-135.399	-200.000	-0.035	0.417
-134.385	800.000	0.081	0.319
-133.370	-200.000	0.001	0.053
-132.356	446.587	0.099	-0.214
-131.341	800.000	-0.087	-0.373
-130.326	-127.993	0.171	-0.024
-129.312	-62.567	0.235	0.096
-128.297	168.793	-0.137	0.192
-127.283	755.721	-0.081	0.216
-126.268	106.082	0.156	0.182
-125.253	-76.542	0.364	0.126
-124.239	14.281	-0.293	-0.224
-123.224	-200.000	-0.058	-0.316
-122.210	-106.579	0.261	-0.057
-121.195	288.772	0.128	0.228
-120.180	-45.522	0.165	0.080
-119.166	-80.165	0.213	0.070
-118.151	488.704	-0.194	0.436
-117.137	711.041	0.011	-0.028
-116.122	-200.000	0.014	0.253
-115.107	-12.993	0.067	0.043
-114.093	800.000	-0.031	0.126
-113.078	69.013	0.131	-0.133
-112.064	-11.820	0.159	-0.102
-111.049	-175.112	0.225	-0.006
-110.034	54.980	0.329	0.312
-109.020	56.953	0.208	-0.199
-108.005	21.554	0.162	0.129
-106.991	41.413	0.047	-0.042
-105.976	700.283	-0.033	-0.086
-104.962	83.728	0.069	0.074
-103.947	163.258	0.173	0.239
-102.932	183.950	-0.038	0.055
-101.918	-200.000	0.011	0.168
-100.903	-163.148	0.236	-0.011
-99.889	800.000	-0.053	0.188
-98.874	26.243	0.099	0.081
-97.859	-151.072	-0.058	0.004
-96.845	-137.659	0.284	-0.031
-95.830	153.900	-0.022	-0.029
-94.816	-154.071	0.457	-0.030
-93.801	-200.000	-0.005	0.079
-92.786	-200.000	0.029	-0.194
-91.772	49.793	0.140	-0.130
-90.757	-5.236	-0.415	0.281
-89.743	-33.824	0.285	0.154
-88.728	800.000	0.026	-0.090
-87.713	-59.096	-0.121	0.051
-86.699	-70.021	-0.168	0.063
-85.684	71.240	0.052	0.053
-84.670	800.000	0.030	0.092
-83.655	-83.082	0.305	0.096
-82.640	89.526	0.070	-0.077
-81.626	800.000	-0.052	0.190
-80.611	-10.571	-0.212	-0.138
-79.597	-59.187	0.257	0.109
-78.582	14.476	-0.152	-0.116
-77.567	800.000	-0.046	-0.126
-76.553	697.459	0.166	0.429
-75.538	46.534	-0.082	0.074
-74.524	-111.869	0.297	0.059
-73.509	-29.770	-0.091	-0.051
-72.494	-146.495	-0.025	0.002
-71.480	-200.000	0.032	-0.236
-70.465	-106.548	0.112	0.025
-69.451	-200.000	-0.027	0.120
-68.436	-81.270	-0.133	0.043
-67.422	333.981	-0.175	0.333
-66.407	-66.806	-0.287	-0.111
-65.392	195.977	0.045	0.067
-64.378	264.435	-0.087	0.149
-63.363	20.709	-0.262	0.208
-62.349	-124.646	0.401	0.061
-61.334	87.929	-0.757	-0.824
-60.319	13.632	0.677	0.516
-59.305	695.050	-0.437	-1.126
-58.290	745.770	0.498	1.316
-57.276	-200.000	0.274	1.435
-56.261	-200.000	107.988	583.670
-55.246	447.753	1473.799	3182.121
-54.232	146.997	2665.130	3515.514
-53.217	99.478	2289.783	2597.986
-52.203	38.523	1901.832	1662.988
-51.188	32.836	1689.755	1434.412
-50.173	30.270	1646.792	1378.839
-49.159	48.787	1700.055	1563.770
-48.144	49.223	1715.296	1581.020
-47.130	32.400	1673.334	1416.960
-46.115	29.739	1658.989	1384.859
-45.100	29.583	1653.884	1379.379
-44.086	29.473	1651.426	1376.456
-43.071	29.429	1649.120	1374.144
-42.057	29.408	1646.419	1371.684
-41.042	29.428	1644.249	1369.969
-40.027	29.557	1641.938	1368.949
-39.013	29.519	1640.038	1367.027
-37.998	29.352	1639.044	1364.908
-36.984	29.546	1636.892	1364.496
-35.969	29.600	1635.946	1364.056
-34.954	29.590	1634.731	1362.913
-33.940	29.639	1632.865	1361.662
-32.925	29.685	1630.717	1360.161
-31.911	29.672	1628.551	1358.205
-30.896	29.605	1627.326	1356.632
-29.881	29.651	1625.989	1355.807
-28.867	29.582	1624.438	1353.950
-27.852	29.625	1622.548	1352.640
-26.838	29.667	1621.408	1351.940
-25.823	29.684	1620.081	1350.907
-24.809	29.633	1619.244	1349.779
-23.794	29.606	1617.342	1347.940
-22.779	29.619	1615.818	1346.715
-21.765	29.632	1614.011	1345.248
-20.750	29.671	1612.363	1344.110
-19.736	29.646	1611.120	1342.834
-18.721	29.581	1609.947	1341.332
-17.706	29.675	1608.324	1340.609
-16.692	29.623	1606.731	1338.853
-15.677	29.639	1605.444	1337.839
-14.663	29.652	1604.135	1336.792
-13.648	29.670	1602.149	1335.213
-12.633	29.696	1600.749	1334.180
-11.619	29.605	1599.393	1332.344
-10.604	29.702	1598.075	1331.888
-9.590	29.721	1596.833	1330.937
-8.575	29.724	1595.409	1329.721
-7.560	29.705	1594.569	1328.833
-6.546	29.626	1593.350	1327.195
-5.531	29.658	1592.106	1326.337
-4.517	29.639	1591.606	1325.728
-3.502	29.621	1589.873	1324.102
-2.487	29.839	1587.715	1323.818
-1.473	29.342	1576.775	1311.107
-0.458	26.774	1557.464	1276.936
0.556	21.656	1558.544	1246.682
1.571	19.528	1582.334	1250.207
2.586	19.197	1595.915	1258.409
3.600	17.558	1543.027	1205.008
4.615	9.792	1432.504	1067.397
5.629	1.837	1367.231	968.278
6.644	0.200	1359.004	952.023
7.659	0.121	1357.003	950.039
8.673	0.136	1356.421	949.644
9.688	0.044	1354.910	947.919
10.702	-0.085	1351.354	944.540
11.717	3.561	1357.616	971.824
12.731	12.383	1371.259	1037.421
13.746	17.407	1377.822	1074.087
14.761	17.250	1376.135	1071.691
15.775	16.219	1373.673	1063.187
16.790	15.186	1371.001	1054.521
17.804	14.492	1368.634	1048.247
18.819	14.122	1367.393	1044.878
19.834	13.826	1366.044	1041.897
20.848	13.615	1364.596	1039.382
21.863	13.378	1363.582	1037.030
22.877	13.179	1362.392	1034.788
23.892	13.153	1361.354	1033.746
24.907	13.136	1360.610	1032.979
25.921	13.150	1360.027	1032.535
26.936	13.122	1359.118	1031.581
27.950	13.277	1357.830	1031.475
28.965	13.240	1357.334	1030.780
29.980	13.377	1355.906	1030.459
30.994	13.398	1355.143	1029.916
32.009	13.340	1354.535	1029.004
33.023	13.432	1353.469	1028.670
34.038	13.451	1351.860	1027.478
35.053	13.396	1351.129	1026.488
36.067	13.358	1349.932	1025.251
37.082	13.363	1348.999	1024.482
38.096	13.411	1348.301	1024.162
39.111	13.382	1347.480	1023.266
40.126	13.292	1346.737	1022.060
41.140	13.217	1345.861	1020.837
42.155	13.179	1345.437	1020.194
43.169	13.053	1345.408	1019.303
44.184	13.135	1344.623	1019.123
45.199	13.176	1344.404	1019.116
46.213	13.197	1343.548	1018.511
47.228	13.226	1343.204	1018.335
48.242	13.251	1341.883	1017.400
49.257	13.149	1340.396	1015.557
50.271	13.257	1338.654	1014.807
51.286	13.323	1337.276	1014.077
52.301	13.307	1336.105	1013.003
53.315	13.198	1335.045	1011.442
54.330	13.164	1334.523	1010.751
55.344	13.228	1332.512	1009.531
56.359	13.249	1331.908	1009.106
57.374	13.126	1331.386	1007.874
58.388	13.155	1330.547	1007.324
59.403	13.153	1329.714	1006.597
60.417	13.214	1328.667	1006.087
61.432	13.033	1328.319	1004.628
62.447	13.057	1327.138	1003.794
63.461	12.923	1326.332	1002.282
64.476	13.005	1325.410	1001.992
65.490	12.992	1323.864	1000.659
66.505	13.037	1322.202	999.587
67.520	13.052	1321.144	998.790
68.534	13.133	1320.276	998.535
69.549	13.070	1319.128	997.198
70.563	13.082	1318.023	996.343
71.578	13.081	1316.716	995.262
72.593	12.957	1316.187	994.029
73.607	12.806	1315.603	992.587
74.622	13.015	1314.308	992.778
75.636	13.210	1312.837	992.752
76.651	13.036	1312.558	991.409
77.666	13.059	1311.834	990.912
78.680	12.980	1311.577	990.159
79.695	13.069	1310.324	989.657
80.709	13.123	1309.791	989.492
81.724	13.132	1308.855	988.747
82.739	13.189	1308.233	988.537
83.753	13.242	1307.489	988.202
84.768	13.295	1306.002	987.305
85.782	13.324	1305.108	986.713
86.797	13.257	1303.886	985.308
87.812	13.188	1302.522	983.780
88.826	13.283	1301.628	983.577
89.841	13.250	1300.501	982.445
90.855	13.202	1299.508	981.325
91.870	13.312	1298.611	981.210
92.884	13.355	1297.474	980.520
93.899	13.333	1296.902	979.871
94.914	13.439	1296.331	979.979
95.928	13.353	1295.447	978.715
96.943	13.316	1294.311	977.554
97.957	13.291	1293.399	976.633
98.972	13.293	1292.453	975.840
99.987	13.413	1291.432	975.693
101.001	13.351	1290.440	974.489
102.016	13.295	1289.735	973.543
103.030	13.322	1288.750	972.873
104.045	13.398	1287.318	972.151
105.060	13.223	1286.687	970.560
106.074	13.233	1285.310	969.498
107.089	13.181	1283.854	968.008
108.103	13.054	1282.827	966.403
109.118	13.227	1281.083	966.017
110.133	13.160	1280.025	964.743
111.147	13.119	1278.818	963.506
112.162	13.263	1276.930	962.836
113.176	13.208	1276.336	961.984
114.191	13.214	1275.703	961.456
115.206	13.274	1274.376	960.721
116.220	13.241	1273.312	959.641
117.235	13.154	1272.045	958.098
118.249	13.186	1271.007	957.418
119.264	13.263	1269.680	956.780
120.279	13.297	1268.454	955.968
121.293	13.166	1268.150	954.896
122.308	13.153	1267.160	953.989
123.322	13.114	1265.795	952.652
124.337	13.175	1264.808	952.176
125.352	13.190	1263.550	951.231
126.366	13.117	1262.385	949.852
127.381	13.135	1261.146	948.936
128.395	13.178	1260.176	948.370
129.410	13.052	1259.753	947.246
130.424	13.238	1258.482	947.271
131.439	13.270	1257.822	946.877
132.454	13.247	1256.637	945.768
133.468	13.232	1256.108	945.201
134.483	13.152	1254.729	943.619
135.497	13.228	1254.116	943.513
136.512	13.258	1252.647	942.492
137.527	13.240	1251.652	941.557
138.541	13.280	1249.727	940.254
139.556	13.345	1248.799	939.842
140.570	13.359	1247.818	939.101
141.585	13.320	1246.916	938.117
142.600	13.399	1245.399	937.344
143.614	13.443	1244.659	936.951
144.629	13.432	1243.488	935.926
145.643	13.554	1241.817	935.272
146.658	13.402	1240.945	933.674
147.673	13.299	1239.728	932.094
148.687	13.334	1238.457	931.258
149.702	13.245	1237.538	929.984
150.716	13.347	1235.611	929.021
151.731	13.381	1234.529	928.318
152.746	13.344	1233.474	927.238
153.760	13.323	1232.601	926.381
154.775	13.428	1231.111	925.767
155.789	13.429	1230.387	925.145
156.804	13.526	1229.453	924.904
157.819	13.576	1228.043	924.040
158.833	13.577	1227.070	923.231
159.848	13.592	1226.141	922.536
160.862	13.570	1225.069	921.523
161.877	13.488	1224.457	920.523
162.892	13.321	1223.624	918.890
163.906	13.429	1222.181	918.322
164.921	13.422	1221.549	917.731
165.935	13.516	1220.891	917.675
166.950	13.546	1219.716	916.876
167.964	13.456	1219.575	916.190
168.979	13.587	1218.474	916.006
169.994	13.546	1217.711	915.127
171.008	13.501	1216.878	914.173
172.023	13.643	1216.089	914.280
173.037	13.665	1214.994	913.497
174.052	13.571	1214.494	912.524
175.067	13.603	1213.042	911.529
176.081	13.579	1212.535	910.933
177.096	13.520	1211.695	909.900
178.110	13.545	1210.547	909.094
179.125	13.515	1209.337	907.941
180.140	13.587	1207.893	907.171
181.154	13.695	1206.913	906.943
182.169	13.697	1205.666	905.935
183.183	13.664	1204.533	904.828
184.198	13.718	1203.334	904.141
185.213	13.750	1202.188	903.373
186.227	13.748	1200.775	902.222
187.242	13.813	1200.465	902.258
188.256	13.790	1199.413	901.262
189.271	13.797	1198.419	900.479
190.286	13.718	1197.070	898.957
191.300	13.619	1196.377	897.817
192.315	13.597	1195.737	897.140
193.329	13.680	1195.000	896.955
194.344	13.641	1194.324	896.159
195.359	13.720	1193.836	896.139
196.373	13.803	1193.072	895.935
197.388	13.790	1192.835	895.610
198.402	13.904	1192.300	895.744
199.417	14.040	1191.467	895.768
200.432	13.970	1190.688	894.729
201.446	14.030	1189.916	894.391
202.461	14.087	1188.563	893.602
203.475	14.143	1187.460	892.993
204.490	14.036	1186.710	891.775
205.504	14.033	1185.237	890.576
206.519	14.124	1183.692	889.823
207.534	14.013	1182.414	888.188
208.548	14.044	1181.924	887.908
209.563	14.059	1181.518	887.606
210.577	14.132	1180.397	887.072
211.592	14.074	1179.749	886.201
212.607	14.168	1178.817	885.923
213.621	14.134	1178.252	885.239
214.636	14.190	1176.993	884.510
215.650	14.155	1176.205	883.655
216.665	14.243	1175.348	883.400
217.680	14.282	1174.471	882.868
218.694	14.268	1173.780	882.196
219.709	14.170	1172.968	880.993
220.723	14.186	1172.202	880.423
221.738	14.294	1170.880	879.921
222.753	14.310	1170.567	879.694
223.767	14.245	1169.671	878.597
224.782	14.333	1169.465	878.831
225.796	14.308	1168.633	877.997
226.811	14.429	1168.060	878.127
227.826	14.473	1166.756	877.296
228.840	14.338	1166.893	876.612
229.855	14.330	1165.586	875.511
230.869	14.452	1164.698	875.410
231.884	14.412	1164.097	874.669
232.899	14.303	1163.212	873.358
233.913	14.281	1162.415	872.566
234.928	14.254	1162.193	872.177
235.942	14.240	1160.995	871.130
236.957	14.333	1160.281	871.002
237.972	14.305	1159.787	870.408
238.986	14.405	1158.666	870.014
240.001	14.406	1158.326	869.684
241.015	14.326	1157.493	868.567
242.030	14.442	1156.603	868.424
243.045	14.486	1155.549	867.787
244.059	14.513	1154.591	867.129
245.074	14.557	1154.429	867.159
246.088	14.592	1153.294	866.414
247.103	14.544	1152.467	865.465
248.117	14.554	1151.920	865.032
249.132	14.545	1151.397	864.514
250.147	14.719	1150.534	864.693
251.161	14.885	1149.511	864.705
252.176	14.751	1148.894	863.469
253.190	14.755	1148.476	863.101
254.205	14.800	1147.690	862.669
255.220	14.958	1147.258	863.082
256.234	14.891	1146.748	862.276
257.249	14.904	1146.257	861.898
258.263	14.963	1145.031	861.202
259.278	14.908	1144.570	860.499
260.293	14.968	1144.442	860.632
261.307	15.051	1143.517	860.289
262.322	15.073	1142.800	859.783
263.336	15.000	1142.037	858.760
264.351	15.007	1141.570	858.369
265.366	14.991	1140.864	857.680
266.380	15.059	1139.971	857.280
267.395	14.923	1139.405	856.086
268.409	14.943	1138.746	855.618
269.424	14.942	1138.458	855.317
270.439	15.174	1137.339	855.588
271.453	15.110	1136.822	854.794
272.468	15.040	1135.875	853.649
273.482	15.022	1135.323	853.068
274.497	15.074	1134.355	852.530
275.512	15.048	1133.888	851.973
276.526	15.114	1132.943	851.521
277.541	15.091	1132.195	850.770
278.555	15.170	1131.633	850.672
279.570	15.109	1131.195	849.958
280.585	15.245	1130.386	849.964
281.599	15.172	1129.537	848.882
282.614	15.139	1128.621	847.952
283.628	15.107	1127.531	846.894
284.643	15.227	1126.599	846.728
285.657	15.239	1125.483	845.870
286.672	15.280	1124.816	845.503
287.687	15.337	1123.474	844.707
288.701	15.153	1123.301	843.577
289.716	15.224	1122.657	843.372
290.730	15.191	1121.661	842.386
291.745	15.445	1121.037	843.118
292.760	15.334	1120.474	842.062
293.774	15.406	1119.521	841.633
294.789	15.287	1119.797	841.169
295.803	15.397	1118.713	840.830
296.818	15.370	1118.108	840.169
297.833	15.459	1116.935	839.656
298.847	15.520	1116.233	839.358
299.862	15.475	1115.291	838.354
300.876	15.397	1114.855	837.564
301.891	15.478	1114.142	837.357
302.906	15.575	1113.709	837.440
303.920	15.516	1113.196	836.687
304.935	15.651	1112.377	836.670
305.949	15.693	1111.646	836.254
306.964	15.730	1110.581	835.563
307.979	15.700	1110.282	835.117
308.993	15.665	1109.222	834.072
310.008	15.781	1108.412	833.961
311.022	15.585	1108.014	832.618
312.037	15.691	1107.207	832.464
313.052	15.698	1106.129	831.613
314.066	15.562	1105.256	830.208
315.081	15.608	1104.182	829.556
316.095	15.639	1103.776	829.333
317.110	15.661	1103.044	828.819
318.125	15.663	1102.273	828.176
319.139	15.683	1101.516	827.629
320.154	15.582	1101.500	827.049
321.168	15.721	1100.276	826.741
322.183	15.657	1099.676	825.900
323.197	15.663	1099.385	825.641
324.212	15.764	1098.479	825.379
325.227	15.813	1097.873	825.093
326.241	15.808	1097.399	824.639
327.256	15.739	1096.882	823.839
328.270	15.775	1095.879	823.191
329.285	15.753	1094.782	822.184
330.300	15.697	1093.946	821.210
331.314	15.841	1093.034	821.159
332.329	15.754	1092.013	819.893
333.343	15.760	1091.491	819.456
334.358	15.859	1090.341	819.003
335.373	15.942	1089.568	818.755
336.387	15.896	1088.822	817.896
337.402	15.924	1088.153	817.458
338.416	16.085	1087.244	817.483
339.431	16.059	1086.413	816.661
340.446	15.984	1086.472	816.270
341.460	16.057	1085.657	815.939
342.475	16.131	1084.573	815.408
343.489	16.301	1083.443	815.308
344.504	16.183	1082.766	814.157
345.519	16.149	1082.155	813.460
346.533	16.177	1081.487	813.022
347.548	16.258	1080.491	812.591
348.562	16.310	1080.176	812.535
349.577	16.198	1079.203	811.191
350.592	16.181	1078.369	810.410
351.606	16.175	1077.572	809.711
352.621	16.065	1077.264	808.880
353.635	16.138	1076.304	808.439
354.650	16.225	1075.306	808.033
355.665	16.184	1075.121	807.627
356.679	16.059	1074.313	806.352
357.694	16.162	1073.721	806.329
358.708	16.286	1073.292	806.528
359.723	16.269	1072.471	805.755
360.738	16.292	1072.051	805.480
361.752	16.415	1070.822	805.069
362.767	16.453	1070.553	804.981
363.781	16.383	1070.293	804.378
364.796	16.363	1069.891	803.909
365.810	16.376	1068.851	803.121
366.825	16.367	1068.349	802.625
367.840	16.417	1067.769	802.358
368.854	16.602	1067.287	802.804
369.869	16.653	1066.472	802.360
370.883	16.632	1065.693	801.605
371.898	16.543	1064.667	800.339
372.913	16.555	1064.233	799.999
373.927	16.595	1063.986	799.931
374.942	16.635	1063.484	799.673
375.956	16.657	1062.462	798.937
376.971	16.693	1061.827	798.562
377.986	16.653	1061.744	798.238
379.000	16.767	1060.947	798.104
380.015	16.773	1060.847	797.988
381.029	16.751	1059.940	797.131
382.044	16.844	1059.106	796.870
383.059	16.778	1058.520	796.049
384.073	16.850	1057.735	795.728
385.088	16.913	1056.367	794.921
386.102	16.880	1055.901	794.346
387.117	16.632	1055.404	792.740
388.132	16.792	1053.761	792.185
389.146	16.759	1053.130	791.485
390.161	16.760	1052.571	791.000
391.175	16.832	1052.058	790.881
392.190	16.878	1051.108	790.310
393.205	16.904	1050.482	789.892
394.219	16.849	1049.999	789.204
395.234	16.828	1048.907	788.216
396.248	16.967	1047.562	787.779
397.263	16.945	1046.881	787.098
398.278	16.764	1046.122	785.614
399.292	16.867	1045.539	785.586
400.307	16.874	1044.913	785.078
401.321	16.974	1044.173	784.915
402.336	16.968	1043.611	784.399
403.350	16.852	1043.076	783.389
404.365	16.979	1042.118	783.189
405.380	17.019	1041.038	782.491
406.394	17.069	1040.757	782.443
407.409	17.072	1039.951	781.777
408.423	17.067	1039.222	781.139
409.438	17.114	1038.524	780.759
410.453	17.107	1037.861	780.164
411.467	17.115	1037.086	779.545
412.482	17.199	1036.522	779.437
413.496	17.176	1035.957	778.838
414.511	17.248	1035.469	778.733
415.526	17.268	1035.038	778.434
416.540	17.273	1034.721	778.148
417.555	17.447	1033.755	778.149
418.569	17.311	1033.554	777.306
419.584	17.373	1032.890	777.023
420.599	17.357	1032.491	776.581
421.613	103.132	1322.055	1467.620
422.628	94.427	1364.201	1467.710
