DTS Sentinel unit serial number:	SN413079Multiplexer serial number:	ORYXHardware model number:	OX4-SRSoftware version number:	ORYX F/W v4.00 Oryx Data Collector v3.7.2.0data status	okinstallation	princeton_trtdifferential loss correction	single-endedforward channel	channel 2reverse channel	N/Adate	2019/09/19time	02:23:34forward acquisition time	60.00reverse acquisition time	0.00gamma	496.2192k internal	0.2353k external	0.2353temperature offset calibration	1.0012default loss term (dB/km)	0.3790temperature slope calibration	1.0000multiplexer offset coefficient	1.0000multiplexer slope coefficient	1.0000fibre end	0.00T internal ref (°C)	21.06T ext. ref 1 (°C)	0.67T ext. ref 2 (°C)	14.67length (m)	temperature (°C)	Stokes	anti-Stokes-747.200	-200.000	0.058	-0.290
-746.185	-23.762	0.104	0.062
-745.171	42.082	-0.169	0.153
-744.156	-39.260	0.109	0.057
-743.142	695.628	0.082	0.214
-742.127	-200.000	0.028	0.283
-741.112	42.078	-0.208	0.188
-740.098	-25.636	0.051	-0.030
-739.083	-200.000	0.009	-0.267
-738.069	366.573	-0.074	0.149
-737.054	-59.649	0.196	0.084
-736.039	-6.061	-0.327	0.223
-735.025	-129.867	-0.060	-0.008
-734.010	343.071	0.016	0.031
-732.996	-200.000	-0.027	-0.175
-731.981	-200.000	-0.056	-0.533
-730.966	-200.000	0.323	-0.001
-729.952	-8.047	0.271	-0.182
-728.937	-129.197	-0.326	0.045
-727.923	800.000	0.139	0.505
-726.908	118.705	-0.263	-0.323
-725.894	94.735	0.254	-0.287
-724.879	16.352	-0.080	0.063
-723.864	24.211	0.222	0.183
-722.850	13.097	0.111	0.086
-721.835	-62.482	0.162	-0.067
-720.821	800.000	0.080	0.235
-719.806	607.490	0.047	0.116
-718.791	198.800	-0.100	-0.152
-717.777	-25.780	-0.143	-0.084
-716.762	-111.783	0.207	0.042
-715.748	787.416	-0.077	-0.211
-714.733	-200.000	0.044	-0.268
-713.718	30.980	-0.313	-0.267
-712.704	64.646	0.057	0.057
-711.689	66.909	-0.305	0.309
-710.675	-68.044	0.185	-0.072
-709.660	194.034	0.094	0.142
-708.645	36.642	-0.147	0.130
-707.631	800.000	0.052	0.198
-706.616	-200.000	-0.000	-0.502
-705.602	-105.482	-0.065	-0.015
-704.587	-5.687	0.178	-0.121
-703.572	625.089	-0.029	-0.072
-702.558	71.929	0.164	-0.169
-701.543	-200.000	-0.070	-0.406
-700.529	33.734	0.122	0.105
-699.514	105.045	0.280	-0.329
-698.499	-53.514	-0.224	-0.102
-697.485	-10.945	-0.322	0.212
-696.470	-200.000	0.012	-0.072
-695.456	70.810	0.124	-0.128
-694.441	-42.989	-0.341	0.172
-693.426	110.152	0.051	-0.060
-692.412	177.711	0.075	0.109
-691.397	-43.962	-0.189	-0.094
-690.383	-89.684	0.107	-0.031
-689.368	-157.809	-0.407	-0.024
-688.354	-179.379	-0.147	-0.003
-687.339	-65.520	0.138	-0.055
-686.324	189.398	-0.100	0.149
-685.310	43.850	-0.126	-0.114
-684.295	-200.000	-0.009	-0.239
-683.281	57.175	-0.026	0.026
-682.266	-24.483	0.041	-0.024
-681.251	800.000	-0.061	-0.181
-680.237	-200.000	0.039	-0.364
-679.222	-67.947	0.287	0.112
-678.208	-57.051	-0.242	-0.106
-677.193	126.643	-0.162	-0.204
-676.178	-200.000	-0.040	-0.232
-675.164	800.000	0.098	-0.312
-674.149	-200.000	-0.031	0.203
-673.135	800.000	0.040	-0.161
-672.120	-6.781	-0.079	0.054
-671.105	-115.806	-0.118	0.022
-670.091	-152.421	-0.344	-0.025
-669.076	-36.958	0.158	-0.084
-668.062	800.000	0.067	-0.236
-667.047	195.019	-0.162	-0.245
-666.032	-155.146	-0.439	0.029
-665.018	8.647	0.215	0.161
-664.003	442.664	-0.129	0.280
-662.989	800.000	-0.055	0.159
-661.974	-200.000	-0.004	0.195
-660.959	-111.508	0.398	-0.081
-659.945	-200.000	-0.027	0.191
-658.930	69.853	-0.382	-0.392
-657.916	196.411	-0.154	-0.234
-656.901	-161.104	0.154	0.008
-655.886	800.000	-0.057	-0.219
-654.872	-61.943	0.080	-0.033
-653.857	-148.741	0.107	0.009
-652.843	34.196	0.193	0.167
-651.828	342.525	-0.181	0.352
-650.814	-140.624	-0.144	0.015
-649.799	39.355	-0.093	-0.083
-648.784	-200.000	0.025	0.290
-647.770	800.000	0.019	-0.082
-646.755	162.996	-0.152	0.213
-645.741	212.148	-0.053	0.083
-644.726	-146.762	0.266	-0.023
-643.711	-17.280	-0.311	0.195
-642.697	-186.613	0.210	-0.003
-641.682	-200.000	-0.017	-0.183
-640.668	90.315	0.268	-0.298
-639.653	800.000	0.026	-0.108
-638.638	34.470	0.197	-0.171
-637.624	-4.309	0.153	-0.105
-636.609	0.063	-0.150	0.106
-635.595	-11.974	-0.194	0.126
-634.580	375.614	-0.050	-0.101
-633.565	-77.584	-0.058	0.020
-632.551	-74.493	0.224	0.080
-631.536	800.000	-0.029	-0.103
-630.522	-200.000	0.032	-0.273
-629.507	178.574	-0.194	0.281
-628.492	-39.782	-0.194	0.101
-627.478	263.488	-0.238	-0.410
-626.463	12.237	0.337	0.257
-625.449	800.000	0.080	0.334
-624.434	-200.000	-0.022	0.148
-623.419	-88.238	0.067	0.020
-622.405	-1.908	-0.106	0.074
-621.390	-31.945	0.028	-0.015
-620.376	-112.672	0.137	-0.027
-619.361	29.914	-0.103	-0.087
-618.346	800.000	0.036	-0.130
-617.332	-168.118	-0.122	-0.005
-616.317	800.000	-0.048	0.178
-615.303	-200.000	0.056	0.259
-614.288	-19.238	0.211	-0.130
-613.273	577.421	-0.075	0.182
-612.259	-90.367	-0.181	-0.052
-611.244	-12.496	-0.348	0.226
-610.230	-28.467	-0.190	-0.109
-609.215	-11.987	0.243	0.158
-608.201	-1.019	0.137	-0.096
-607.186	-114.982	-0.117	0.022
-606.171	-108.868	0.368	-0.078
-605.157	-67.127	0.241	0.094
-604.142	-65.619	-0.345	0.137
-603.128	525.402	0.185	-0.431
-602.113	8.473	-0.095	-0.071
-601.098	-200.000	0.007	0.322
-600.084	-200.000	0.019	0.322
-599.069	-85.346	0.388	0.120
-598.055	800.000	0.039	0.122
-597.040	-80.857	0.185	-0.061
-596.025	8.753	-0.183	0.137
-595.011	129.409	-0.166	0.210
-593.996	-156.920	-0.288	-0.017
-592.982	-63.581	0.249	-0.101
-591.967	-26.760	-0.197	0.114
-590.952	-145.376	-0.038	-0.003
-589.938	-7.243	-0.105	-0.071
-588.923	470.047	0.045	0.100
-587.909	-61.409	-0.134	-0.056
-586.894	-10.090	-0.115	-0.076
-585.879	-200.000	0.031	-0.444
-584.865	-130.652	0.145	-0.019
-583.850	208.829	0.090	0.140
-582.836	-12.296	0.101	0.065
-581.821	191.219	-0.101	-0.151
-580.806	506.141	-0.004	-0.009
-579.792	-200.000	-0.009	0.185
-578.777	-8.895	0.093	0.062
-577.763	-22.002	0.011	-0.007
-576.748	217.441	-0.107	-0.168
-575.733	186.841	-0.128	-0.189
-574.719	604.568	0.198	-0.487
-573.704	-66.768	-0.332	-0.130
-572.690	125.585	-0.236	-0.295
-571.675	-187.152	0.056	0.001
-570.661	-94.976	0.055	0.015
-569.646	-190.490	-0.015	0.000
-568.631	342.786	0.105	-0.204
-567.617	-200.000	0.007	0.283
-566.602	-200.000	-0.004	0.346
-565.588	119.574	0.279	0.342
-564.573	52.798	0.208	-0.196
-563.558	800.000	-0.092	0.268
-562.544	305.156	-0.080	0.146
-561.529	29.581	-0.166	0.140
-560.515	800.000	0.036	0.113
-559.500	800.000	-0.014	-0.052
-558.485	800.000	-0.045	-0.168
-557.471	-200.000	0.021	0.250
-556.456	-138.554	0.361	-0.039
-555.442	-72.741	0.209	-0.076
-554.427	-200.000	0.002	0.089
-553.412	-161.551	0.286	-0.015
-552.398	-200.000	-0.010	-0.226
-551.383	-60.944	-0.181	-0.076
-550.369	-46.123	-0.278	0.136
-549.354	152.695	-0.126	-0.170
-548.339	-103.329	0.104	-0.024
-547.325	25.008	-0.186	0.153
-546.310	21.038	-0.209	0.167
-545.296	285.170	-0.158	0.281
-544.281	26.153	-0.247	0.204
-543.266	-46.958	0.289	0.140
-542.252	-120.432	-0.494	-0.083
-541.237	88.361	0.124	-0.136
-540.223	366.564	-0.041	0.082
-539.208	186.344	-0.053	-0.078
-538.193	-159.424	0.330	-0.018
-537.179	41.082	-0.208	-0.186
-536.164	795.301	-0.054	0.148
-535.150	-113.908	0.340	-0.065
-534.135	600.533	0.121	-0.296
-533.121	-121.514	-0.092	-0.015
-532.106	21.811	0.196	0.158
-531.091	168.067	0.065	-0.092
-530.077	76.612	0.092	-0.097
-529.062	-200.000	0.019	0.178
-528.048	-115.044	-0.382	-0.072
-527.033	51.119	0.142	-0.133
-526.018	-200.000	0.041	0.179
-525.004	38.241	0.164	-0.144
-523.989	800.000	0.020	-0.074
-522.975	1.876	0.355	-0.253
-521.960	-200.000	0.035	0.156
-520.945	139.336	0.159	0.207
-519.931	37.814	-0.309	-0.272
-518.916	-200.000	-0.032	0.230
-517.902	-182.534	-0.440	-0.008
-516.887	-47.197	-0.259	0.125
-515.872	-86.383	0.062	0.019
-514.858	58.234	-0.106	-0.102
-513.843	-157.851	0.298	-0.017
-512.829	-93.009	0.040	0.011
-511.814	52.502	-0.075	-0.070
-510.799	-14.534	-0.163	-0.103
-509.785	800.000	-0.052	0.180
-508.770	800.000	0.025	-0.104
-507.756	271.678	0.044	-0.076
-506.741	-19.730	0.167	-0.102
-505.726	-63.523	-0.208	-0.084
-504.712	-200.000	-0.016	-0.195
-503.697	-141.388	-0.338	0.034
-502.683	9.266	-0.140	-0.104
-501.668	-20.956	0.166	0.100
-500.653	-198.278	-0.256	-0.001
-499.639	226.515	-0.132	-0.211
-498.624	203.753	-0.149	0.227
-497.610	294.753	-0.148	0.268
-496.595	-141.813	-0.277	-0.027
-495.581	296.701	-0.131	0.238
-494.566	-31.279	-0.292	0.163
-493.551	-116.919	0.156	-0.028
-492.537	800.000	0.075	0.257
-491.522	800.000	0.085	0.331
-490.508	-200.000	0.024	0.278
-489.493	53.802	0.173	0.164
-488.478	800.000	-0.095	-0.379
-487.464	251.573	-0.084	0.141
-486.449	123.343	-0.168	0.208
-485.435	-24.107	0.136	0.080
-484.420	376.745	-0.092	0.185
-483.405	-200.000	0.021	-0.132
-482.391	-121.035	-0.261	-0.043
-481.376	55.240	-0.333	0.318
-480.362	510.384	-0.035	-0.080
-479.347	51.169	-0.247	-0.232
-478.332	181.608	0.107	0.156
-477.318	-15.843	-0.214	-0.134
-476.303	16.663	0.116	0.091
-475.289	-11.429	0.130	-0.084
-474.274	-110.298	-0.124	0.025
-473.259	-72.961	0.305	-0.111
-472.245	51.634	-0.087	-0.082
-471.230	240.489	0.028	0.047
-470.216	-2.156	0.102	0.070
-469.201	-69.630	0.140	-0.053
-468.186	-200.000	0.032	0.190
-467.172	-200.000	0.008	-0.288
-466.157	24.365	0.131	0.107
-465.143	0.074	-0.147	0.103
-464.128	-31.669	0.466	-0.258
-463.113	42.262	-0.387	-0.347
-462.099	-184.479	-0.193	-0.003
-461.084	-200.000	0.046	-0.291
-460.070	59.055	-0.046	0.045
-459.055	800.000	0.105	0.321
-458.040	-200.000	0.065	-0.426
-457.026	-200.000	0.006	0.177
-456.011	335.643	-0.174	0.333
-454.997	-200.000	-0.015	0.109
-453.982	57.193	-0.225	0.217
-452.968	800.000	0.049	-0.165
-451.953	-200.000	-0.004	0.102
-450.938	800.000	0.016	0.063
-449.924	-200.000	-0.013	-0.394
-448.909	800.000	0.008	-0.022
-447.895	-200.000	0.013	0.267
-446.880	-200.000	0.002	-0.016
-445.865	-189.002	-0.051	0.001
-444.851	32.735	0.311	0.265
-443.836	-101.200	-0.254	0.061
-442.822	480.654	-0.037	-0.083
-441.807	-38.171	-0.141	0.074
-440.792	-3.417	0.203	0.139
-439.778	64.370	0.222	0.220
-438.763	145.183	-0.105	-0.138
-437.749	6.655	-0.320	-0.234
-436.734	-200.000	-0.047	0.241
-435.719	-118.952	0.166	0.029
-434.705	800.000	-0.112	0.454
-433.690	800.000	-0.098	0.419
-432.676	-29.725	0.185	-0.104
-431.661	-117.821	0.228	0.040
-430.646	663.672	0.057	-0.144
-429.632	-200.000	-0.052	0.327
-428.617	154.779	0.160	0.216
-427.603	-150.578	0.191	0.014
-426.588	-200.000	0.020	0.156
-425.573	-4.375	0.135	0.092
-424.559	-25.039	-0.157	-0.091
-423.544	800.000	0.016	-0.065
-422.530	634.293	0.044	-0.109
-421.515	14.882	-0.157	-0.121
-420.500	-200.000	0.007	0.104
-419.486	237.310	0.156	0.255
-418.471	-200.000	-0.008	-0.068
-417.457	663.426	-0.147	0.373
-416.442	-200.000	-0.033	0.176
-415.428	170.588	0.063	0.089
-414.413	-200.000	-0.033	-0.158
-413.398	367.101	-0.142	-0.281
-412.384	-47.151	-0.036	0.017
-411.369	60.979	0.219	-0.214
-410.355	-143.982	-0.098	0.009
-409.340	-200.000	0.060	-0.409
-408.325	-40.735	-0.313	0.160
-407.311	-200.000	0.060	-0.283
-406.296	-200.000	-0.052	0.253
-405.282	-67.708	-0.271	0.104
-404.267	-117.344	-0.183	-0.033
-403.252	-51.262	0.401	0.185
-402.238	519.144	0.089	-0.205
-401.223	-82.233	-0.081	0.026
-400.209	800.000	-0.047	-0.133
-399.194	-101.157	-0.226	-0.054
-398.179	298.368	-0.129	-0.234
-397.165	-200.000	-0.057	-0.334
-396.150	-200.000	0.004	0.144
-395.136	-60.249	0.104	0.043
-394.121	73.414	-0.108	-0.112
-393.106	111.428	-0.143	0.169
-392.092	-66.243	0.209	-0.082
-391.077	515.106	-0.168	-0.386
-390.063	-122.435	0.294	0.047
-389.048	-76.759	0.300	0.103
-388.033	87.007	0.054	0.059
-387.019	800.000	0.108	-0.359
-386.004	-134.126	0.247	0.030
-384.990	34.196	-0.244	0.209
-383.975	302.080	0.095	0.173
-382.960	800.000	0.043	0.119
-381.946	-120.243	0.498	-0.084
-380.931	-137.107	-0.172	0.019
-379.917	214.506	-0.162	-0.251
-378.902	94.085	0.169	-0.189
-377.888	113.690	0.127	0.151
-376.873	-54.654	-0.168	0.075
-375.858	344.846	-0.197	0.380
-374.844	58.103	0.062	-0.060
-373.829	55.848	-0.184	-0.175
-372.815	800.000	0.038	-0.109
-371.800	344.709	-0.036	0.069
-370.785	551.558	0.124	-0.292
-369.771	162.410	0.110	-0.151
-368.756	355.338	-0.018	0.036
-367.742	-77.175	0.187	-0.064
-366.727	62.401	-0.329	0.323
-365.712	127.763	-0.175	-0.219
-364.698	158.495	-0.117	-0.160
-363.683	91.575	0.173	-0.191
-362.669	-97.667	0.114	-0.029
-361.654	93.237	-0.079	0.088
-360.639	-148.633	-0.283	-0.023
-359.625	-62.206	0.148	0.061
-358.610	-200.000	0.073	0.381
-357.596	-200.000	0.037	0.186
-356.581	-61.908	0.125	-0.051
-355.566	-200.000	-0.005	-0.022
-354.552	18.225	0.179	-0.140
-353.537	53.813	0.053	0.050
-352.523	620.057	-0.150	-0.369
-351.508	800.000	0.018	-0.054
-350.493	126.664	0.210	-0.262
-349.479	250.484	-0.081	0.135
-348.464	564.112	0.102	0.242
-347.450	334.843	0.189	-0.360
-346.435	800.000	-0.026	-0.111
-345.420	-175.709	-0.007	0.000
-344.406	-200.000	0.039	0.266
-343.391	-141.778	-0.376	-0.037
-342.377	208.870	-0.088	-0.135
-341.362	197.531	-0.151	0.226
-340.348	-200.000	0.032	0.193
-339.333	-200.000	0.032	0.146
-338.318	716.616	-0.088	-0.230
-337.304	255.830	-0.050	0.084
-336.289	-11.481	-0.254	0.164
-335.275	277.104	0.074	0.130
-334.260	32.016	-0.137	0.116
-333.245	800.000	0.116	-0.454
-332.231	-10.330	-0.235	-0.153
-331.216	-45.191	0.291	-0.142
-330.202	533.648	-0.040	-0.094
-329.187	44.669	0.141	0.127
-328.172	723.696	-0.042	0.109
-327.158	299.623	-0.053	0.095
-326.143	253.908	-0.092	-0.155
-325.129	21.368	-0.215	-0.172
-324.114	313.163	0.044	0.081
-323.099	183.219	-0.117	-0.170
-322.085	6.114	-0.196	-0.143
-321.070	-200.000	-0.055	-0.392
-320.056	-70.586	-0.305	-0.113
-319.041	-189.754	-0.036	-0.000
-318.026	-200.000	-0.011	0.123
-317.012	-18.397	-0.091	0.056
-315.997	-48.163	-0.191	-0.090
-314.983	56.454	-0.098	0.094
-313.968	-200.000	0.052	-0.255
-312.953	297.659	0.277	-0.499
-311.939	-71.730	-0.153	0.056
-310.924	33.837	0.143	-0.122
-309.910	-11.234	-0.171	-0.110
-308.895	314.794	0.026	-0.048
-307.880	71.356	0.281	-0.285
-306.866	259.241	-0.163	-0.276
-305.851	95.737	-0.165	-0.184
-304.837	142.556	0.184	-0.239
-303.822	-200.000	0.003	0.131
-302.807	-54.147	-0.237	0.106
-301.793	-200.000	0.018	0.165
-300.778	800.000	0.050	0.140
-299.764	-136.592	0.197	-0.022
-298.749	800.000	-0.069	-0.258
-297.735	-200.000	0.046	-0.237
-296.720	-200.000	-0.002	-0.123
-295.705	69.660	0.131	-0.132
-294.691	14.753	0.176	0.135
-293.676	128.805	-0.146	0.182
-292.662	52.140	-0.078	0.073
-291.647	124.790	0.283	-0.349
-290.632	-200.000	0.008	0.211
-289.618	-119.721	0.123	-0.021
-288.603	-44.613	0.188	0.092
-287.589	-97.207	0.345	0.088
-286.574	-72.149	-0.292	-0.106
-285.559	76.370	0.220	0.228
-284.545	-98.318	-0.120	-0.030
-283.530	292.351	0.043	-0.076
-282.516	800.000	-0.034	0.104
-281.501	-103.212	0.424	0.098
-280.486	-100.252	-0.493	0.120
-279.472	-200.000	0.021	-0.120
-278.457	429.965	-0.079	-0.168
-277.443	-200.000	-0.012	0.102
-276.428	-200.000	-0.018	0.096
-275.413	-200.000	-0.084	-0.389
-274.399	-74.057	0.208	0.074
-273.384	251.938	0.175	-0.291
-272.370	-200.000	0.017	0.150
-271.355	519.654	-0.140	0.320
-270.340	69.997	-0.075	0.076
-269.326	-73.562	0.100	0.036
-268.311	57.963	0.157	0.150
-267.297	-102.647	0.272	-0.063
-266.282	-121.148	-0.174	-0.029
-265.267	-69.607	-0.183	0.068
-264.253	-200.000	0.028	0.197
-263.238	30.133	0.126	-0.105
-262.224	800.000	0.026	0.103
-261.209	166.964	0.218	0.303
-260.195	-125.450	0.213	0.032
-259.180	413.739	-0.139	0.290
-258.165	-86.825	-0.220	0.066
-257.151	800.000	0.078	0.228
-256.136	-93.406	-0.161	-0.044
-255.122	29.183	0.133	-0.110
-254.107	-2.182	0.242	0.166
-253.092	-200.000	0.066	-0.300
-252.078	-200.000	0.076	0.375
-251.063	155.628	0.139	-0.188
-250.049	-0.754	0.065	-0.045
-249.034	348.389	-0.091	-0.175
-248.019	655.218	-0.106	-0.266
-247.005	-173.316	0.164	-0.005
-245.990	107.383	0.138	-0.161
-244.976	38.970	-0.064	-0.056
-243.961	153.538	0.072	0.096
-242.946	-127.356	0.254	0.036
-241.932	-52.724	0.284	-0.128
-240.917	301.960	0.044	-0.080
-239.903	-109.871	-0.301	-0.062
-238.888	-49.972	-0.198	0.092
-237.873	-154.696	0.332	0.022
-236.859	111.997	0.173	0.204
-235.844	-200.000	0.009	-0.199
-234.830	54.024	-0.146	0.137
-233.815	33.901	0.218	-0.185
-232.800	33.888	-0.247	-0.210
-231.786	-172.856	-0.213	-0.006
-230.771	152.869	-0.085	-0.114
-229.757	800.000	0.025	0.089
-228.742	710.993	-0.069	-0.179
-227.727	-96.953	-0.209	-0.054
-226.713	123.734	0.072	0.089
-225.698	-200.000	-0.001	0.126
-224.684	-60.660	0.208	-0.086
-223.669	450.486	0.043	-0.093
-222.655	800.000	0.156	0.457
-221.640	-64.451	0.289	0.115
-220.625	205.728	0.064	-0.097
-219.611	-27.846	0.244	0.138
-218.596	6.891	-0.235	-0.171
-217.582	82.899	-0.446	-0.474
-216.567	90.216	-0.220	0.240
-215.552	-94.470	0.302	-0.080
-214.538	529.902	0.056	-0.130
-213.523	207.893	0.090	-0.137
-212.509	-200.000	0.024	0.275
-211.494	-200.000	-0.019	-0.322
-210.479	147.964	0.056	-0.074
-209.465	800.000	-0.005	-0.018
-208.450	201.007	0.138	-0.207
-207.436	545.438	-0.069	0.161
-206.421	13.276	0.049	0.037
-205.406	36.103	0.120	-0.103
-204.392	-151.938	-0.073	-0.005
-203.377	226.171	-0.093	-0.148
-202.363	-72.404	0.207	-0.075
-201.348	-200.000	-0.025	-0.184
-200.333	517.581	0.051	0.117
-199.319	296.468	-0.145	0.259
-198.304	-30.493	0.296	0.164
-197.290	-20.411	-0.165	0.099
-196.275	-51.625	-0.022	-0.010
-195.260	-119.559	-0.131	0.022
-194.246	308.801	-0.119	0.217
-193.231	-134.699	0.145	0.017
-192.217	16.069	-0.179	-0.137
-191.202	317.032	0.100	0.184
-190.187	142.211	0.058	-0.075
-189.173	307.886	0.078	-0.142
-188.158	-200.000	0.069	0.319
-187.144	622.828	-0.044	0.109
-186.129	32.698	-0.094	0.080
-185.114	23.070	-0.187	-0.150
-184.100	229.147	0.104	-0.165
-183.085	37.781	-0.264	-0.228
-182.071	147.703	-0.065	0.086
-181.056	-48.867	-0.105	0.049
-180.042	-200.000	0.017	-0.369
-179.027	311.643	-0.183	0.335
-178.012	380.719	-0.147	0.295
-176.998	407.100	0.160	0.330
-175.983	-113.420	0.075	0.014
-174.969	208.954	0.202	0.308
-173.954	441.952	-0.278	0.592
-172.939	168.520	-0.103	-0.143
-171.925	-84.157	0.156	-0.048
-170.910	21.399	0.157	0.124
-169.896	-107.568	0.124	-0.027
-168.881	37.328	0.076	0.065
-167.866	442.734	0.117	-0.249
-166.852	54.048	0.220	-0.206
-165.837	16.661	0.161	-0.124
-164.823	800.000	0.032	-0.097
-163.808	-200.000	-0.004	0.088
-162.793	49.751	0.106	0.097
-161.779	19.981	0.076	0.060
-160.764	35.097	0.217	-0.185
-159.750	-142.251	-0.314	-0.030
-158.735	-129.728	-0.184	-0.025
-157.720	102.612	-0.199	-0.227
-156.706	-200.000	-0.016	0.094
-155.691	22.442	0.044	-0.035
-154.677	-125.951	0.456	-0.067
-153.662	37.733	0.251	-0.218
-152.647	305.752	0.048	-0.088
-151.633	-200.000	-0.018	-0.317
-150.618	-200.000	0.074	0.444
-149.604	-90.492	0.248	0.070
-148.589	170.963	-0.045	0.063
-147.574	493.268	0.070	-0.156
-146.560	31.948	-0.232	0.195
-145.545	-39.411	0.317	0.162
-144.531	-200.000	0.022	0.123
-143.516	489.516	-0.019	0.041
-142.502	268.921	-0.183	0.312
-141.487	-10.872	-0.106	-0.068
-140.472	68.756	0.242	-0.242
-139.458	800.000	0.083	-0.327
-138.443	642.917	-0.126	0.314
-137.429	-200.000	-0.040	0.472
-136.414	800.000	-0.088	-0.249
-135.399	434.061	-0.042	-0.088
-134.385	800.000	-0.042	-0.161
-133.370	800.000	-0.052	-0.161
-132.356	111.685	-0.276	0.324
-131.341	230.595	-0.062	0.098
-130.326	221.350	0.036	-0.056
-129.312	800.000	0.059	0.221
-128.297	232.759	-0.157	-0.251
-127.283	-41.619	0.159	-0.079
-126.268	-60.460	-0.072	-0.030
-125.253	800.000	-0.052	0.188
-124.239	-113.599	0.286	-0.054
-123.224	796.707	-0.077	-0.207
-122.210	-146.804	0.409	0.034
-121.195	-200.000	0.017	-0.117
-120.180	26.227	0.075	0.061
-119.166	641.258	0.118	0.293
-118.151	712.787	0.061	0.157
-117.137	-200.000	-0.027	0.217
-116.122	-101.385	-0.281	-0.067
-115.107	-93.305	-0.340	0.092
-114.093	-53.945	0.280	-0.124
-113.078	222.863	0.243	0.381
-112.064	378.363	-0.172	-0.342
-111.049	-200.000	-0.046	-0.348
-110.034	-200.000	0.005	0.460
-109.020	-200.000	0.011	0.440
-108.005	57.896	0.293	0.279
-106.991	-120.554	0.140	0.023
-105.976	-200.000	0.001	0.034
-104.962	133.226	0.159	-0.199
-103.947	-25.573	-0.142	-0.082
-102.932	-68.943	-0.249	0.093
-101.918	265.126	-0.098	0.166
-100.903	-200.000	-0.026	0.216
-99.889	100.677	0.298	0.337
-98.874	-35.933	0.190	-0.100
-97.859	-200.000	-0.008	-0.221
-96.845	800.000	0.099	-0.306
-95.830	153.353	0.068	0.090
-94.816	-200.000	-0.104	-0.555
-93.801	-101.095	-0.179	-0.043
-92.786	484.883	-0.082	0.181
-91.772	-141.356	0.234	-0.023
-90.757	-195.333	0.018	-0.000
-89.743	-83.180	-0.342	0.107
-88.728	800.000	0.047	0.175
-87.713	800.000	0.042	-0.147
-86.699	9.619	0.163	0.120
-85.684	-126.836	-0.328	-0.047
-84.670	768.957	0.048	0.127
-83.655	-200.000	0.007	-0.200
-82.640	-6.016	0.204	0.136
-81.626	-200.000	-0.021	-0.097
-80.611	-39.961	0.165	-0.083
-79.597	800.000	-0.083	0.255
-78.582	-200.000	-0.073	0.491
-77.567	183.843	0.046	0.067
-76.553	160.098	0.171	0.232
-75.538	340.694	-0.018	-0.035
-74.524	68.373	-0.133	0.132
-73.509	-200.000	0.060	0.369
-72.494	-149.896	-0.215	-0.016
-71.480	-106.338	0.341	0.074
-70.465	-200.000	-0.064	0.461
-69.451	-200.000	-0.032	0.181
-68.436	-156.038	-0.359	-0.022
-67.422	800.000	-0.076	-0.211
-66.407	-129.843	0.195	-0.026
-65.392	510.416	0.100	0.227
-64.378	76.247	0.013	0.014
-63.363	313.999	0.050	-0.092
-62.349	-200.000	0.008	0.212
-61.334	-24.496	-1.513	-0.875
-60.319	95.772	0.738	0.818
-59.305	356.814	-0.664	-1.284
-58.290	556.349	0.566	1.324
-57.276	800.000	0.473	1.758
-56.261	-200.000	135.218	684.722
-55.246	340.984	1679.063	3182.437
-54.232	134.006	2816.005	3539.359
-53.217	82.978	2312.798	2441.014
-52.203	29.857	1910.427	1579.276
-51.188	24.061	1705.333	1365.368
-50.173	22.086	1667.919	1320.533
-49.159	44.226	1741.610	1550.341
-48.144	41.218	1750.579	1535.125
-47.130	23.610	1701.411	1358.564
-46.115	21.102	1685.846	1327.033
-45.100	21.026	1680.985	1322.579
-44.086	21.023	1678.105	1320.239
-43.071	20.946	1676.012	1317.954
-42.057	20.948	1673.576	1316.004
-41.042	20.952	1671.862	1314.634
-40.027	20.953	1669.632	1312.833
-39.013	20.948	1667.534	1311.097
-37.998	20.905	1666.390	1309.816
-36.984	21.031	1665.549	1310.056
-35.969	21.102	1663.573	1308.976
-34.954	21.117	1661.856	1307.692
-33.940	20.920	1661.255	1305.688
-32.925	21.023	1658.911	1304.561
-31.911	20.999	1657.066	1302.882
-30.896	21.085	1655.111	1301.936
-29.881	20.993	1654.023	1300.343
-28.867	21.072	1652.567	1299.734
-27.852	21.082	1651.013	1298.535
-26.838	21.069	1649.627	1297.300
-25.823	20.965	1648.452	1295.548
-24.809	21.052	1647.169	1295.139
-23.794	21.087	1645.539	1294.058
-22.779	21.077	1644.230	1292.910
-21.765	21.126	1642.195	1291.620
-20.750	21.067	1640.695	1289.954
-19.736	21.116	1639.847	1289.596
-18.721	21.189	1638.379	1288.928
-17.706	21.183	1636.626	1287.453
-16.692	21.078	1635.131	1285.452
-15.677	21.080	1634.385	1284.828
-14.663	21.136	1633.280	1284.321
-13.648	21.105	1631.519	1282.659
-12.633	21.076	1630.003	1281.203
-11.619	21.072	1628.403	1279.863
-10.604	21.073	1627.011	1278.729
-9.590	21.088	1625.767	1277.811
-8.575	21.068	1624.179	1276.367
-7.560	21.177	1623.084	1276.248
-6.546	21.135	1621.735	1274.834
-5.531	21.048	1621.156	1273.689
-4.517	21.135	1619.868	1273.262
-3.502	21.185	1618.727	1272.679
-2.487	21.140	1616.946	1270.901
-1.473	20.664	1605.086	1258.088
-0.458	17.710	1584.802	1221.017
0.556	13.054	1586.935	1189.595
1.571	10.804	1611.866	1191.694
2.586	10.620	1624.416	1199.510
3.600	10.077	1569.876	1155.251
4.615	5.876	1464.569	1049.605
5.629	1.525	1408.261	981.129
6.644	0.658	1401.786	970.964
7.659	0.677	1400.449	970.070
8.673	0.696	1399.337	969.341
9.688	0.659	1397.059	967.438
10.702	0.410	1393.880	963.564
11.717	2.648	1396.198	979.385
12.731	8.745	1405.350	1024.836
13.746	14.744	1415.023	1070.348
14.761	16.993	1417.603	1086.625
15.775	16.488	1416.217	1082.233
16.790	15.580	1413.244	1074.065
17.804	14.879	1410.599	1067.486
18.819	14.423	1409.381	1063.556
19.834	14.250	1408.519	1061.711
20.848	13.991	1406.911	1058.758
21.863	13.759	1405.627	1056.220
22.877	13.583	1404.624	1054.250
23.892	13.485	1403.326	1052.558
24.907	13.515	1402.503	1052.039
25.921	13.569	1401.825	1051.784
26.936	13.605	1400.763	1051.121
27.950	13.653	1399.775	1050.594
28.965	13.651	1398.763	1049.725
29.980	13.639	1398.081	1049.047
30.994	13.697	1397.332	1048.759
32.009	13.868	1396.042	1048.775
33.023	13.751	1394.981	1047.149
34.038	13.728	1393.628	1045.896
35.053	13.724	1392.608	1045.014
36.067	13.817	1391.151	1044.410
37.082	13.738	1390.384	1043.244
38.096	13.776	1390.131	1043.201
39.111	13.695	1388.997	1041.751
40.126	13.624	1388.221	1040.633
41.140	13.619	1387.300	1039.819
42.155	13.547	1386.560	1038.716
43.169	13.515	1386.326	1038.251
44.184	13.552	1386.446	1038.481
45.199	13.542	1386.233	1038.164
46.213	13.624	1385.179	1037.801
47.228	13.680	1384.160	1037.294
48.242	13.688	1382.690	1036.154
49.257	13.607	1381.607	1034.743
50.271	13.677	1379.864	1033.784
51.286	13.680	1378.381	1032.596
52.301	13.691	1377.395	1031.835
53.315	13.608	1375.946	1030.141
54.330	13.634	1375.452	1029.843
55.344	13.603	1373.881	1028.382
56.359	13.654	1373.026	1027.969
57.374	13.700	1371.857	1027.289
58.388	13.458	1371.549	1025.470
59.403	13.513	1371.017	1025.323
60.417	13.592	1369.958	1024.929
61.432	13.525	1369.361	1023.977
62.447	13.547	1367.956	1022.968
63.461	13.471	1367.236	1021.872
64.476	13.477	1366.065	1020.942
65.490	13.503	1364.598	1019.918
66.505	13.490	1362.947	1018.508
67.520	13.466	1361.951	1017.527
68.534	13.587	1360.601	1017.176
69.549	13.559	1359.525	1016.108
70.563	13.588	1358.285	1015.270
71.578	13.488	1357.539	1014.009
72.593	13.427	1356.439	1012.727
73.607	13.463	1355.688	1012.297
74.622	13.382	1355.095	1011.266
75.636	13.452	1353.953	1010.753
76.651	13.378	1352.985	1009.487
77.666	13.405	1353.092	1009.643
78.680	13.416	1352.295	1009.029
79.695	13.547	1351.175	1008.901
80.709	13.630	1350.297	1008.658
81.724	13.551	1349.467	1007.470
82.739	13.512	1348.783	1006.633
83.753	13.669	1347.963	1006.888
84.768	13.708	1346.648	1006.050
85.782	13.708	1345.630	1005.202
86.797	13.646	1344.109	1003.601
87.812	13.642	1343.109	1002.741
88.826	13.582	1341.795	1001.312
89.841	13.646	1340.523	1000.659
90.855	13.572	1339.660	999.476
91.870	13.678	1339.052	999.575
92.884	13.777	1338.019	999.314
93.899	13.767	1337.061	998.452
94.914	13.826	1336.232	998.098
95.928	13.879	1335.794	998.000
96.943	13.762	1334.458	996.208
97.957	13.716	1333.670	995.257
98.972	13.783	1332.678	994.829
99.987	13.634	1331.787	993.183
101.001	13.799	1330.172	992.879
102.016	13.726	1329.649	991.964
103.030	13.751	1328.624	991.265
104.045	13.718	1327.868	990.413
105.060	13.698	1326.458	989.155
106.074	13.503	1325.405	987.118
107.089	13.579	1324.010	986.444
108.103	13.587	1322.759	985.474
109.118	13.601	1321.442	984.492
110.133	13.599	1319.950	983.279
111.147	13.610	1318.767	982.375
112.162	13.634	1317.321	981.354
113.176	13.758	1315.889	980.932
114.191	13.635	1315.388	979.745
115.206	13.640	1314.270	978.854
116.220	13.651	1312.683	977.655
117.235	13.657	1312.125	977.187
118.249	13.662	1310.766	976.116
119.264	13.697	1309.718	975.454
120.279	13.641	1308.556	974.172
121.293	13.650	1307.802	973.583
122.308	13.572	1306.668	972.194
123.322	13.658	1305.356	971.637
124.337	13.632	1304.774	970.965
125.352	13.566	1303.445	969.500
126.366	13.580	1302.128	968.521
127.381	13.648	1300.786	967.829
128.395	13.660	1299.966	967.207
129.410	13.535	1299.687	966.183
130.424	13.622	1298.308	965.578
131.439	13.710	1297.382	965.319
132.454	13.763	1295.597	964.215
133.468	13.688	1295.077	963.304
134.483	13.724	1294.477	962.983
135.497	13.621	1293.381	961.485
136.512	13.762	1291.427	960.763
137.527	13.689	1290.504	959.566
138.541	13.609	1289.520	958.288
139.556	13.691	1287.914	957.485
140.570	13.775	1286.599	956.905
141.585	13.937	1284.942	956.522
142.600	13.835	1284.435	955.472
143.614	13.847	1283.843	955.015
144.629	13.903	1282.343	954.142
145.643	13.836	1281.308	952.901
146.658	13.878	1280.207	952.239
147.673	13.726	1279.045	950.420
148.687	13.833	1277.468	949.777
149.702	13.790	1276.545	948.757
150.716	13.817	1274.975	947.661
151.731	13.766	1273.658	946.307
152.746	13.806	1272.812	945.822
153.760	13.783	1272.021	945.022
154.775	13.985	1270.569	945.008
155.789	13.903	1269.366	943.562
156.804	13.958	1267.860	942.676
157.819	13.885	1267.013	941.547
158.833	13.978	1266.102	941.315
159.848	14.054	1265.069	940.893
160.862	14.081	1264.074	940.222
161.877	13.926	1263.041	938.494
162.892	13.872	1261.801	937.185
163.906	13.933	1261.126	936.946
164.921	13.942	1260.342	936.332
165.935	13.977	1259.204	935.597
166.950	13.969	1258.885	935.235
167.964	13.971	1257.801	934.360
168.979	14.038	1257.352	934.317
169.994	14.048	1256.407	933.591
171.008	14.143	1255.347	933.252
172.023	14.115	1254.649	932.492
173.037	14.177	1253.671	932.033
174.052	14.163	1252.867	931.274
175.067	14.123	1251.657	930.070
176.081	14.144	1250.403	929.172
177.096	14.065	1250.203	928.499
178.110	14.115	1248.746	927.613
179.125	14.212	1247.104	926.849
180.140	14.178	1246.330	926.005
181.154	14.213	1244.876	925.035
182.169	14.214	1243.732	924.110
183.183	14.205	1242.427	923.012
184.198	14.238	1241.353	922.315
185.213	14.265	1240.154	921.490
186.227	14.303	1239.153	920.874
187.242	14.348	1238.241	920.364
188.256	14.335	1237.450	919.625
189.271	14.291	1235.893	918.140
190.286	14.119	1235.418	916.762
191.300	14.240	1234.406	916.593
192.315	14.194	1233.705	915.737
193.329	14.208	1233.346	915.470
194.344	14.285	1232.559	915.226
195.359	14.314	1231.653	914.632
196.373	14.366	1231.165	914.476
197.388	14.423	1230.730	914.385
198.402	14.343	1230.617	913.781
199.417	14.513	1229.507	913.804
200.432	14.565	1228.899	913.560
201.446	14.545	1227.630	912.425
202.461	14.516	1227.340	911.971
203.475	14.576	1226.438	911.545
204.490	14.412	1225.099	909.575
205.504	14.605	1223.317	909.227
206.519	14.484	1222.019	907.523
207.534	14.448	1221.378	906.766
208.548	14.518	1220.253	906.233
209.563	14.562	1219.466	905.808
210.577	14.519	1218.528	904.798
211.592	14.663	1217.379	904.642
212.607	14.728	1216.392	904.182
213.621	14.528	1215.832	902.602
214.636	14.589	1214.694	902.012
215.650	14.596	1214.189	901.590
216.665	14.754	1212.778	901.316
217.680	14.724	1212.086	900.560
218.694	14.788	1211.153	900.135
219.709	14.766	1210.152	899.193
220.723	14.701	1209.718	898.442
221.738	14.633	1209.451	897.796
222.753	14.815	1208.198	897.767
223.767	14.805	1207.234	896.916
224.782	14.884	1206.732	896.888
225.796	14.846	1206.302	896.285
226.811	14.862	1205.437	895.649
227.826	14.902	1204.889	895.375
228.840	14.897	1203.859	894.505
229.855	14.846	1203.060	893.556
230.869	14.991	1201.862	893.362
231.884	14.935	1201.352	892.609
232.899	14.914	1200.773	891.986
233.913	14.823	1200.279	891.055
234.928	14.834	1199.342	890.340
235.942	14.828	1198.563	889.649
236.957	14.794	1198.015	888.986
237.972	14.913	1197.130	888.882
238.986	14.872	1196.769	888.317
240.001	14.923	1195.762	887.760
241.015	14.883	1194.824	886.773
242.030	14.860	1194.651	886.446
243.045	14.998	1193.223	886.035
244.059	15.009	1192.678	885.611
245.074	14.972	1191.885	884.747
246.088	15.026	1191.088	884.368
247.103	15.079	1189.507	883.391
248.117	15.016	1189.202	882.755
249.132	15.163	1188.712	883.087
250.147	15.186	1187.702	882.384
251.161	15.261	1186.675	881.935
252.176	15.189	1186.353	881.240
253.190	15.236	1185.950	881.109
254.205	15.262	1185.014	880.473
255.220	15.296	1184.436	880.142
256.234	15.385	1183.445	879.798
257.249	15.413	1182.936	879.488
258.263	15.474	1182.309	879.260
259.278	15.339	1181.669	878.002
260.293	15.400	1181.363	878.014
261.307	15.484	1180.468	877.712
262.322	15.536	1179.736	877.362
263.336	15.422	1179.158	876.259
264.351	15.541	1178.277	876.147
265.366	15.487	1177.509	875.217
266.380	15.594	1176.960	875.291
267.395	15.536	1176.145	874.306
268.409	15.453	1175.571	873.370
269.424	15.489	1175.217	873.214
270.439	15.661	1174.129	873.222
271.453	15.692	1172.851	872.359
272.468	15.587	1172.378	871.383
273.482	15.455	1171.961	870.310
274.497	15.566	1171.352	870.358
275.512	15.578	1170.416	869.647
276.526	15.576	1169.617	868.963
277.541	15.683	1168.709	868.765
278.555	15.597	1168.395	868.012
279.570	15.802	1167.247	868.139
280.585	15.722	1167.071	867.523
281.599	15.767	1165.749	866.694
282.614	15.761	1164.432	865.608
283.628	15.803	1163.540	865.081
284.643	15.654	1162.879	863.749
285.657	15.799	1161.482	863.380
286.672	15.772	1160.951	862.771
287.687	15.816	1160.455	862.549
288.701	15.808	1159.657	861.841
289.716	15.827	1158.879	861.280
290.730	15.867	1157.832	860.632
291.745	15.873	1156.965	859.942
292.760	15.798	1156.670	859.262
293.774	16.044	1155.532	859.595
294.789	16.015	1155.252	859.166
295.803	16.026	1154.335	858.465
296.818	15.981	1153.824	857.776
297.833	15.947	1152.745	856.726
298.847	15.921	1152.160	856.084
299.862	16.048	1151.179	855.925
300.876	15.984	1150.918	855.329
301.891	15.976	1150.404	854.830
302.906	16.008	1149.671	854.375
303.920	16.162	1148.677	854.341
304.935	16.053	1147.931	853.155
305.949	16.093	1147.439	852.919
306.964	16.164	1146.621	852.596
307.979	16.219	1145.714	852.120
308.993	16.174	1144.919	851.230
310.008	16.177	1144.047	850.521
311.022	16.246	1143.480	850.369
312.037	16.180	1142.789	849.449
313.052	16.204	1141.686	848.677
314.066	16.196	1140.443	847.637
315.081	16.196	1139.746	847.040
316.095	16.143	1139.298	846.369
317.110	16.302	1138.179	846.259
318.125	16.287	1137.813	845.835
319.139	16.302	1136.719	845.022
320.154	16.214	1136.585	844.408
321.168	16.242	1136.087	844.105
322.183	16.305	1134.815	843.401
323.197	16.175	1134.810	842.673
324.212	16.258	1134.090	842.478
325.227	16.349	1133.117	842.133
326.241	16.214	1132.620	841.018
327.256	16.278	1131.970	840.779
328.270	16.342	1130.679	840.062
329.285	16.302	1129.787	839.126
330.300	16.346	1128.866	838.588
331.314	16.377	1127.907	837.955
332.329	16.324	1127.232	837.115
333.343	16.335	1126.456	836.519
334.358	16.452	1125.296	836.166
335.373	16.525	1124.360	835.755
336.387	16.570	1123.869	835.538
337.402	16.511	1123.233	834.700
338.416	16.529	1122.467	834.148
339.431	16.535	1121.741	833.562
340.446	16.750	1121.032	834.023
341.460	16.635	1120.316	832.847
342.475	16.568	1119.943	832.167
343.489	16.590	1118.674	831.259
344.504	16.800	1117.569	831.398
345.519	16.672	1116.884	830.182
346.533	16.741	1116.050	829.829
347.548	16.732	1115.557	829.345
348.562	16.759	1114.313	828.480
349.577	16.794	1113.615	828.059
350.592	16.777	1113.320	827.684
351.606	16.789	1112.390	826.978
352.621	16.645	1111.706	825.694
353.635	16.754	1111.044	825.660
354.650	16.806	1109.836	824.940
355.665	16.761	1109.308	824.255
356.679	16.801	1108.896	824.074
357.694	16.880	1108.318	823.956
358.708	16.922	1107.441	823.431
359.723	16.926	1107.229	823.220
360.738	16.996	1106.224	822.741
361.752	16.885	1106.115	822.048
362.767	16.895	1105.447	821.530
363.781	16.881	1104.772	820.886
364.796	16.902	1103.921	820.282
365.810	16.930	1103.512	820.043
366.825	16.954	1102.753	819.523
367.840	17.144	1102.000	819.805
368.854	17.042	1101.966	819.217
369.869	17.031	1101.197	818.519
370.883	17.053	1100.243	817.842
371.898	17.014	1099.504	817.034
372.913	17.113	1098.838	816.945
373.927	17.180	1097.929	816.517
374.942	17.175	1097.475	816.081
375.956	17.311	1096.858	816.206
376.971	17.211	1096.513	815.398
377.986	17.168	1095.963	814.709
379.000	17.269	1095.349	814.667
380.015	17.218	1095.068	814.139
381.029	17.342	1093.716	813.657
382.044	17.312	1093.541	813.310
383.059	17.458	1092.267	812.985
384.073	17.439	1091.822	812.495
385.088	17.444	1090.528	811.480
386.102	17.357	1089.856	810.496
387.117	17.300	1088.816	809.380
388.132	17.493	1087.784	809.458
389.146	17.285	1087.040	807.847
390.161	17.405	1086.591	808.011
391.175	17.428	1085.987	807.597
392.190	17.382	1085.659	807.067
393.205	17.390	1084.459	806.137
394.219	17.466	1083.486	805.705
395.234	17.521	1082.345	805.043
396.248	17.503	1081.420	804.199
397.263	17.384	1080.872	803.162
398.278	17.431	1080.277	802.869
399.292	17.548	1078.882	802.312
400.307	17.408	1078.535	801.323
401.321	17.511	1078.012	801.352
402.336	17.501	1077.051	800.515
403.350	17.428	1076.792	799.911
404.365	17.513	1075.843	799.534
405.380	17.506	1075.400	799.102
406.394	17.623	1074.110	798.622
407.409	17.517	1073.886	797.887
408.423	17.567	1072.973	797.370
409.438	17.614	1072.335	797.046
410.453	17.691	1071.665	796.836
411.467	17.797	1070.783	796.608
412.482	17.725	1070.075	795.675
413.496	17.815	1069.081	795.285
414.511	17.779	1068.552	794.649
415.526	17.805	1068.531	794.688
416.540	17.858	1068.095	794.540
417.555	17.912	1067.218	794.070
418.569	17.878	1067.028	793.698
419.584	17.858	1066.388	793.057
420.599	17.908	1065.925	792.878
421.613	109.949	1332.822	1493.145
422.628	101.679	1371.645	1493.211
