DTS Sentinel unit serial number:	SN413079Multiplexer serial number:	ORYXHardware model number:	OX4-SRSoftware version number:	ORYX F/W v4.00 Oryx Data Collector v3.7.2.0data status	okinstallation	princeton_trtdifferential loss correction	single-endedforward channel	channel 2reverse channel	N/Adate	2019/09/14time	22:19:35forward acquisition time	60.00reverse acquisition time	0.00gamma	496.2192k internal	0.2324k external	0.2324temperature offset calibration	1.0064default loss term (dB/km)	0.3790temperature slope calibration	1.0000multiplexer offset coefficient	1.0000multiplexer slope coefficient	1.0000fibre end	0.00T internal ref (°C)	32.61T ext. ref 1 (°C)	4.70T ext. ref 2 (°C)	27.58length (m)	temperature (°C)	Stokes	anti-Stokes-747.200	-19.147	0.210	-0.132
-746.185	-200.000	0.054	0.264
-745.171	313.278	-0.128	0.244
-744.156	-73.980	-0.326	0.119
-743.142	-20.278	0.254	-0.158
-742.127	-200.000	0.004	0.031
-741.112	-71.657	-0.212	-0.080
-740.098	13.994	-0.373	-0.293
-739.083	2.408	0.182	0.133
-738.069	-200.000	0.023	0.374
-737.054	-116.573	0.173	-0.032
-736.039	82.195	-0.188	-0.206
-735.025	-140.981	-0.047	0.005
-734.010	800.000	0.071	0.232
-732.996	800.000	0.029	0.120
-731.981	-200.000	0.027	0.157
-730.966	800.000	0.031	0.089
-729.952	197.329	-0.193	-0.297
-728.937	800.000	0.032	-0.137
-727.923	-200.000	-0.037	0.171
-726.908	-154.994	-0.235	-0.016
-725.894	-146.863	-0.606	0.053
-724.879	468.760	-0.041	-0.094
-723.864	-43.557	-0.113	0.057
-722.850	-152.025	0.489	-0.036
-721.835	-200.000	0.010	-0.110
-720.821	52.785	0.126	-0.121
-719.806	800.000	0.047	-0.143
-718.791	11.733	-0.136	-0.106
-717.777	106.326	0.172	-0.205
-716.762	59.357	0.145	-0.144
-715.748	54.615	0.222	0.216
-714.733	-107.705	-0.350	0.077
-713.718	62.503	0.090	0.091
-712.704	119.787	0.159	-0.199
-711.689	35.944	-0.289	-0.256
-710.675	370.345	0.218	-0.445
-709.660	-45.940	0.219	0.109
-708.645	-200.000	-0.028	0.288
-707.631	-166.058	0.315	-0.014
-706.616	-73.843	0.145	-0.053
-705.602	-24.226	-0.196	-0.118
-704.587	248.945	0.110	0.188
-703.572	176.093	-0.198	-0.290
-702.558	-200.000	0.066	0.410
-701.543	-200.000	0.009	-0.391
-700.529	60.819	-0.156	-0.156
-699.514	-86.054	-0.128	-0.040
-698.499	-90.244	-0.375	0.110
-697.485	-38.920	0.215	0.114
-696.470	184.299	0.201	-0.300
-695.456	66.865	0.172	-0.176
-694.441	193.114	0.100	-0.152
-693.426	593.005	0.034	-0.084
-692.412	141.267	-0.124	-0.165
-691.397	476.929	0.190	-0.434
-690.383	-93.656	0.128	0.035
-689.368	56.691	-0.126	-0.123
-688.354	-118.152	-0.115	0.021
-687.339	-69.470	0.315	-0.122
-686.324	800.000	0.056	0.157
-685.310	-159.941	0.251	-0.014
-684.295	-200.000	-0.001	0.036
-683.281	331.977	-0.058	-0.114
-682.266	-200.000	0.025	-0.115
-681.251	96.954	0.105	-0.121
-680.237	-72.233	-0.196	-0.073
-679.222	57.421	-0.094	-0.092
-678.208	-129.160	0.116	0.016
-677.193	266.250	-0.026	-0.046
-676.178	-103.545	0.269	0.064
-675.164	7.921	-0.052	-0.039
-674.149	-200.000	-0.003	-0.349
-673.135	-91.721	-0.170	-0.049
-672.120	225.135	-0.085	-0.139
-671.105	-8.300	0.105	0.071
-670.091	-200.000	0.025	-0.123
-669.076	-135.255	-0.214	0.026
-668.062	-200.000	0.035	-0.166
-667.047	34.497	-0.217	0.191
-666.032	31.392	0.278	-0.240
-665.018	256.235	0.159	0.274
-664.003	800.000	-0.022	-0.089
-662.989	-62.981	0.119	-0.049
-661.974	-24.452	-0.200	0.120
-660.959	518.632	-0.089	-0.209
-659.945	-104.077	0.173	0.041
-658.930	399.703	-0.187	-0.394
-657.916	86.185	0.098	-0.109
-656.901	-72.974	0.235	0.087
-655.886	800.000	0.029	-0.101
-654.872	137.829	0.317	-0.418
-653.857	-200.000	-0.001	-0.093
-652.843	-86.281	-0.329	-0.102
-651.828	800.000	-0.019	0.076
-650.814	800.000	0.046	0.191
-649.799	560.557	-0.057	0.138
-648.784	-175.647	-0.040	-0.001
-647.770	-200.000	0.023	0.205
-646.755	-130.841	-0.288	-0.039
-645.741	800.000	-0.037	0.162
-644.726	-64.113	-0.272	-0.112
-643.711	-200.000	-0.263	0.001
-642.697	-44.875	-0.114	0.057
-641.682	-52.273	0.020	0.009
-640.668	-69.249	-0.178	-0.069
-639.653	-54.391	0.224	0.102
-638.638	-42.604	0.363	0.186
-637.624	-160.829	0.187	-0.010
-636.609	712.737	0.062	0.164
-635.595	-200.000	-0.016	-0.311
-634.580	6.268	-0.233	-0.173
-633.565	-104.354	-0.392	0.091
-632.551	-51.536	0.159	-0.075
-631.536	-46.794	-0.250	0.123
-630.522	-200.000	0.018	0.082
-629.507	81.595	-0.183	0.199
-628.492	800.000	0.041	-0.178
-627.478	743.916	-0.037	-0.101
-626.463	134.239	0.073	-0.095
-625.449	115.808	0.116	-0.143
-624.434	-118.218	-0.372	-0.067
-623.419	-62.392	0.142	-0.060
-622.405	-200.000	-0.006	-0.144
-621.390	109.140	-0.209	0.252
-620.376	154.892	-0.211	-0.291
-619.361	800.000	-0.087	-0.315
-618.346	-67.455	0.036	0.014
-617.332	-38.429	-0.055	0.029
-616.317	-94.891	0.338	-0.092
-615.303	-10.213	0.196	0.130
-614.288	71.865	-0.260	0.272
-613.273	-144.284	0.190	-0.018
-612.259	-145.424	0.302	0.027
-611.244	26.530	0.095	-0.080
-610.230	-132.459	-0.468	0.061
-609.215	13.271	-0.198	0.154
-608.201	104.807	0.107	-0.126
-607.186	89.040	-0.187	-0.209
-606.171	-84.876	0.176	0.055
-605.157	-200.000	0.025	-0.343
-604.142	-200.000	0.069	0.321
-603.128	-187.123	-0.151	0.002
-602.113	108.007	-0.128	0.153
-601.098	-152.118	0.077	-0.006
-600.084	-58.541	0.073	0.032
-599.069	-118.833	-0.235	-0.041
-598.055	-105.392	-0.248	-0.057
-597.040	87.986	-0.063	-0.071
-596.025	800.000	-0.011	-0.031
-595.011	367.870	-0.201	0.407
-593.996	-200.000	0.082	0.518
-592.982	-52.765	0.192	-0.089
-591.967	64.631	-0.229	-0.232
-590.952	-62.621	0.122	-0.051
-589.938	800.000	0.033	-0.122
-588.923	126.133	-0.124	-0.157
-587.909	103.552	0.152	0.180
-586.894	800.000	-0.031	0.130
-585.879	-200.000	-0.030	-0.164
-584.865	-200.000	-0.036	0.181
-583.850	171.465	-0.201	-0.289
-582.836	127.926	0.102	-0.130
-581.821	-72.322	0.130	0.048
-580.806	89.486	0.158	-0.177
-579.792	165.780	0.040	-0.056
-578.777	-51.961	-0.120	0.056
-577.763	-93.908	-0.299	-0.083
-576.748	-105.363	-0.287	-0.065
-575.733	-73.155	-0.412	0.152
-574.719	-128.942	-0.381	0.054
-573.704	41.855	-0.103	0.094
-572.690	-113.300	0.258	-0.051
-571.675	-105.637	0.098	0.022
-570.661	121.814	-0.084	-0.105
-569.646	119.083	0.132	-0.164
-568.631	-113.445	0.232	-0.046
-567.617	-89.886	0.011	0.003
-566.602	-52.631	-0.143	0.066
-565.588	532.456	0.076	-0.179
-564.573	-70.269	0.073	-0.028
-563.558	-32.069	0.066	-0.037
-562.544	800.000	-0.019	-0.080
-561.529	800.000	0.094	-0.309
-560.515	600.316	-0.085	-0.211
-559.500	-41.430	0.234	-0.121
-558.485	-200.000	0.056	-0.271
-557.471	-110.979	0.160	-0.033
-556.456	-46.196	-0.029	0.014
-555.442	-168.516	-0.261	-0.010
-554.427	-38.022	-0.121	-0.064
-553.412	-3.528	0.209	-0.146
-552.398	-200.000	0.030	0.136
-551.383	-200.000	-0.001	-0.038
-550.369	-74.156	-0.174	0.063
-549.354	112.377	0.136	0.164
-548.339	-103.005	-0.373	0.089
-547.325	-200.000	-0.008	-0.142
-546.310	619.903	0.099	-0.250
-545.296	84.643	-0.152	0.167
-544.281	139.024	-0.077	-0.101
-543.266	-66.637	-0.066	0.026
-542.252	-200.000	-0.031	-0.227
-541.237	6.009	-0.252	0.187
-540.223	33.026	-0.107	-0.093
-539.208	37.712	-0.242	-0.215
-538.193	357.586	0.121	0.243
-537.179	-200.000	0.078	0.415
-536.164	800.000	0.069	0.219
-535.150	186.887	-0.154	0.230
-534.135	-200.000	0.017	0.203
-533.121	-110.542	-0.306	-0.063
-532.106	800.000	-0.030	-0.084
-531.091	522.111	-0.155	-0.364
-530.077	526.149	-0.055	-0.131
-529.062	-110.661	0.054	0.011
-528.048	20.285	0.153	0.124
-527.033	59.830	0.069	0.069
-526.018	-36.853	-0.261	-0.140
-525.004	711.453	-0.097	0.256
-523.989	800.000	0.131	-0.512
-522.975	57.808	0.235	-0.230
-521.960	754.865	0.094	-0.256
-520.945	-200.000	0.051	-0.235
-519.931	39.809	0.049	0.044
-518.916	-85.763	0.167	-0.052
-517.902	-134.760	-0.051	-0.006
-516.887	-95.573	0.133	0.036
-515.872	-23.968	0.269	0.161
-514.858	148.642	-0.047	-0.064
-513.843	-77.686	-0.209	-0.072
-512.829	14.045	0.156	0.121
-511.814	-127.412	0.285	0.042
-510.799	-68.709	-0.406	-0.157
-509.785	69.853	-0.331	-0.341
-508.770	-174.975	-0.240	-0.007
-507.756	299.833	-0.129	-0.238
-506.741	102.579	0.051	0.060
-505.726	-33.090	0.171	0.095
-504.712	-200.000	-0.008	0.168
-503.697	-10.278	0.106	0.070
-502.683	-65.746	0.320	0.128
-501.668	-31.204	-0.316	-0.178
-500.653	-27.304	0.060	0.035
-499.639	-165.941	0.139	0.006
-498.624	-130.272	-0.233	0.032
-497.610	27.788	0.111	0.094
-496.595	0.106	-0.150	0.107
-495.581	65.291	-0.099	-0.100
-494.566	-50.459	-0.375	-0.177
-493.551	491.691	-0.082	-0.187
-492.537	-69.952	0.156	0.059
-491.522	178.442	-0.112	-0.164
-490.508	-60.649	-0.380	0.161
-489.493	97.060	0.202	0.232
-488.478	138.819	0.113	-0.149
-487.464	36.740	0.089	0.079
-486.449	-5.274	0.325	0.223
-485.435	-108.410	0.115	0.025
-484.420	280.302	-0.160	0.286
-483.405	461.164	0.131	0.292
-482.391	124.907	0.174	0.219
-481.376	-22.718	-0.304	0.183
-480.362	-138.139	0.099	-0.011
-479.347	-2.549	0.245	-0.172
-478.332	78.806	0.065	-0.069
-477.318	17.520	-0.369	0.293
-476.303	100.388	-0.186	-0.215
-475.289	134.354	0.185	0.239
-474.274	4.665	0.133	0.097
-473.259	-200.000	-0.041	-0.242
-472.245	800.000	-0.063	-0.213
-471.230	433.098	0.122	0.265
-470.216	-150.024	-0.275	-0.021
-469.201	-106.812	0.414	-0.092
-468.186	124.802	0.131	0.165
-467.172	147.903	-0.129	-0.173
-466.157	-200.000	-0.024	-0.217
-465.143	55.156	0.095	0.092
-464.128	-75.286	0.125	0.044
-463.113	-200.000	0.040	-0.207
-462.099	88.609	0.149	0.166
-461.084	179.797	-0.109	0.160
-460.070	285.131	-0.057	0.103
-459.055	-200.000	0.014	0.235
-458.040	-113.122	-0.320	-0.063
-457.026	-85.512	-0.308	-0.096
-456.011	-200.000	0.030	0.192
-454.997	-147.134	0.089	-0.008
-453.982	29.906	0.085	0.072
-452.968	-200.000	-0.031	-0.163
-451.953	-101.706	-0.378	0.092
-450.938	-200.000	0.012	-0.089
-449.924	257.680	-0.166	0.284
-448.909	-91.597	0.214	-0.061
-447.895	800.000	-0.012	-0.048
-446.880	-26.940	0.443	-0.258
-445.865	36.771	0.152	0.134
-444.851	-200.000	0.033	0.214
-443.836	-200.000	-0.004	0.049
-442.822	262.072	-0.186	-0.322
-441.807	67.826	-0.178	0.182
-440.792	-18.058	-0.051	0.032
-439.778	33.401	-0.128	-0.111
-438.763	118.504	-0.097	-0.120
-437.749	800.000	0.012	0.046
-436.734	-104.921	-0.224	0.051
-435.719	728.330	0.073	0.194
-434.705	114.477	-0.174	-0.211
-433.690	-106.328	0.115	-0.026
-432.676	-73.128	0.024	0.009
-431.661	-200.000	0.007	0.216
-430.646	-5.110	0.323	0.222
-429.632	-118.446	0.280	-0.049
-428.617	-200.000	0.006	-0.130
-427.603	800.000	0.053	0.230
-426.588	23.505	0.216	0.177
-425.573	-90.448	0.124	0.036
-424.559	-58.789	-0.086	0.037
-423.544	116.036	0.169	-0.207
-422.530	-200.000	-0.050	-0.274
-421.515	4.267	-0.312	-0.228
-420.500	-200.000	0.008	-0.125
-419.486	-119.373	-0.196	-0.034
-418.471	-200.000	-0.001	-0.032
-417.457	800.000	0.033	0.101
-416.442	2.574	0.150	0.108
-415.428	463.149	-0.107	0.237
-414.413	-200.000	0.025	0.142
-413.398	51.083	0.357	-0.337
-412.384	-200.000	0.009	0.188
-411.369	182.898	0.102	0.150
-410.355	468.984	-0.098	-0.219
-409.340	-121.860	-0.148	0.024
-408.325	89.538	-0.019	0.021
-407.311	198.647	-0.176	-0.269
-406.296	-75.344	0.076	-0.027
-405.282	-87.476	-0.322	-0.097
-404.267	287.430	-0.185	-0.332
-403.252	-200.000	0.024	-0.191
-402.238	800.000	0.155	-0.556
-401.223	-51.166	-0.389	-0.182
-400.209	770.522	-0.126	0.342
-399.194	256.365	0.059	0.100
-398.179	72.946	-0.376	0.391
-397.165	-200.000	-0.012	0.210
-396.150	-118.004	-0.197	0.035
-395.136	71.842	0.169	0.175
-394.121	800.000	-0.125	0.352
-393.106	102.393	0.286	0.333
-392.092	-13.597	-0.094	0.061
-391.077	266.669	0.117	0.204
-390.063	726.928	0.154	0.408
-389.048	98.334	0.061	0.070
-388.033	161.469	-0.116	-0.162
-387.019	643.238	0.127	-0.322
-386.004	56.716	0.112	-0.108
-384.990	-200.000	-0.002	-0.121
-383.975	-46.797	-0.181	0.088
-382.960	-76.391	-0.091	-0.032
-381.946	-111.428	0.231	-0.047
-380.931	-200.000	0.036	-0.228
-379.917	-200.000	0.004	-0.297
-378.902	15.100	0.087	0.067
-377.888	130.455	0.165	-0.211
-376.873	9.777	0.259	0.195
-375.858	800.000	-0.055	-0.214
-374.844	-200.000	-0.012	-0.278
-373.829	800.000	0.027	0.075
-372.815	-200.000	-0.006	-0.143
-371.800	271.156	0.113	-0.198
-370.785	108.019	0.192	-0.227
-369.771	86.952	0.165	0.181
-368.756	370.135	-0.094	-0.189
-367.742	-35.151	0.269	0.146
-366.727	-200.000	-0.053	-0.376
-365.712	193.479	0.092	0.138
-364.698	800.000	0.065	0.253
-363.683	-56.643	-0.360	0.158
-362.669	-146.676	-0.220	0.019
-361.654	-147.275	-0.235	-0.020
-360.639	-64.276	0.429	-0.174
-359.625	455.381	-0.045	0.100
-358.610	9.357	-0.062	0.047
-357.596	42.915	-0.402	-0.365
-356.581	-200.000	-0.009	-0.183
-355.566	-111.870	0.156	0.031
-354.552	738.707	-0.035	-0.094
-353.537	-4.751	-0.110	0.076
-352.523	-108.218	-0.090	-0.019
-351.508	-200.000	0.025	0.146
-350.493	29.276	-0.056	0.047
-349.479	416.663	-0.128	0.271
-348.464	77.495	0.226	-0.239
-347.450	-142.234	-0.087	-0.009
-346.435	412.492	-0.151	0.320
-345.420	-46.927	0.287	0.139
-344.406	64.624	-0.137	0.138
-343.391	-171.394	0.165	0.005
-342.377	-200.000	-0.030	-0.133
-341.362	-68.043	0.186	0.072
-340.348	36.440	-0.056	-0.049
-339.333	800.000	0.056	0.227
-338.318	198.423	0.154	0.234
-337.304	123.375	0.214	0.266
-336.289	142.026	-0.058	0.077
-335.275	800.000	0.023	0.072
-334.260	-143.213	0.209	0.020
-333.245	-5.523	-0.238	-0.162
-332.231	-65.632	0.373	0.148
-331.216	-83.055	-0.335	0.107
-330.202	-200.000	-0.001	0.212
-329.187	-84.080	-0.256	0.081
-328.172	182.425	0.040	0.059
-327.158	-200.000	0.047	0.209
-326.143	211.176	0.028	0.044
-325.129	116.014	-0.143	0.173
-324.114	-30.217	-0.059	0.033
-323.099	800.000	0.074	0.283
-322.085	-93.010	-0.406	-0.113
-321.070	-143.364	0.267	0.025
-320.056	-40.671	0.228	0.117
-319.041	-98.380	0.209	0.053
-318.026	-127.226	0.236	0.034
-317.012	-105.841	0.161	0.036
-315.997	7.360	0.213	-0.158
-314.983	-37.131	0.073	-0.039
-313.968	-76.355	-0.083	-0.029
-312.953	-200.000	-0.027	-0.155
-311.939	184.340	-0.012	0.017
-310.924	-200.000	0.025	-0.159
-309.910	-105.524	0.190	0.043
-308.895	-200.000	-0.049	0.363
-307.880	-128.036	0.196	0.028
-306.866	333.194	0.165	0.316
-305.851	778.366	0.083	-0.225
-304.837	-111.672	0.281	-0.057
-303.822	-197.659	0.092	0.001
-302.807	-80.667	0.112	-0.037
-301.793	62.078	0.154	-0.153
-300.778	52.382	0.174	-0.164
-299.764	192.381	0.008	-0.012
-298.749	84.430	-0.056	-0.061
-297.735	533.272	0.115	-0.269
-296.720	-178.790	0.249	0.006
-295.705	71.532	0.091	0.094
-294.691	-200.000	0.028	-0.316
-293.676	-24.680	-0.119	0.070
-292.662	1.882	0.045	0.032
-291.647	-200.000	-0.001	-0.123
-290.632	-37.519	-0.103	-0.055
-289.618	291.727	0.079	-0.143
-288.603	185.951	0.179	-0.265
-287.589	-200.000	0.005	-0.065
-286.574	-70.950	0.430	0.161
-285.559	-3.540	0.309	0.213
-284.545	-54.095	-0.183	0.082
-283.530	800.000	0.105	0.298
-282.516	-86.542	0.190	0.058
-281.501	-38.060	0.165	0.087
-280.486	-200.000	0.003	-0.117
-279.472	-171.639	0.135	0.004
-278.457	-200.000	0.004	0.146
-277.443	-93.354	-0.234	0.064
-276.428	800.000	-0.134	0.404
-275.413	194.813	-0.096	-0.144
-274.399	360.911	-0.117	-0.231
-273.384	-57.085	-0.106	-0.046
-272.370	-175.298	0.114	0.003
-271.355	-200.000	0.064	0.364
-270.340	-200.000	-0.019	-0.084
-269.326	105.508	-0.156	-0.182
-268.311	129.528	0.122	-0.155
-267.297	-86.017	-0.146	-0.045
-266.282	88.660	0.127	0.139
-265.267	168.844	-0.216	-0.305
-264.253	-102.189	-0.286	0.068
-263.238	57.348	-0.185	0.179
-262.224	160.291	0.145	-0.201
-261.209	204.050	0.131	0.201
-260.195	-76.910	-0.224	0.077
-259.180	-83.137	-0.224	0.071
-258.165	283.968	0.144	0.257
-257.151	-200.000	0.008	0.118
-256.136	-200.000	-0.063	-0.294
-255.122	80.673	-0.069	-0.074
-254.107	714.065	-0.051	0.135
-253.092	-8.469	0.148	0.099
-252.078	-200.000	0.016	0.094
-251.063	29.902	0.064	0.054
-250.049	-200.000	-0.001	-0.280
-249.034	-125.272	0.219	0.033
-248.019	31.178	-0.117	-0.099
-247.005	-45.535	0.206	-0.101
-245.990	-175.052	-0.565	-0.016
-244.976	-126.231	0.289	0.043
-243.961	-40.271	-0.026	0.014
-242.946	42.162	-0.335	0.301
-241.932	-200.000	0.017	-0.132
-240.917	-200.000	-0.009	0.079
-239.903	-200.000	-0.033	0.223
-238.888	-200.000	0.003	0.125
-237.873	33.290	-0.114	0.098
-236.859	396.695	-0.111	0.229
-235.844	-39.686	-0.035	0.018
-234.830	57.319	-0.151	-0.145
-233.815	-58.823	0.298	0.127
-232.800	-200.000	-0.055	0.366
-231.786	-200.000	-0.013	0.203
-230.771	-200.000	0.005	0.138
-229.757	257.534	0.097	0.166
-228.742	-81.117	-0.240	-0.079
-227.727	-51.826	-0.265	0.122
-226.713	800.000	-0.027	-0.114
-225.698	92.268	0.343	-0.383
-224.684	800.000	0.073	-0.207
-223.669	-21.413	0.119	0.072
-222.655	-21.765	-0.125	0.075
-221.640	178.540	-0.101	0.145
-220.625	800.000	-0.099	-0.278
-219.611	154.994	-0.111	0.150
-218.596	-37.633	0.350	0.184
-217.582	-200.000	-0.031	-0.151
-216.567	101.621	-0.069	0.079
-215.552	28.168	0.091	0.076
-214.538	160.966	-0.097	-0.135
-213.523	-188.389	0.024	0.000
-212.509	-108.852	0.215	0.046
-211.494	-105.500	0.512	0.115
-210.479	-47.473	0.060	0.029
-209.465	99.659	-0.062	-0.071
-208.450	23.044	-0.169	-0.137
-207.436	-200.000	-0.020	-0.187
-206.421	257.333	0.147	-0.251
-205.406	122.216	-0.157	-0.194
-204.392	39.293	0.287	0.254
-203.377	109.052	0.144	-0.170
-202.363	-200.000	-0.050	-0.401
-201.348	42.122	0.170	-0.152
-200.333	-16.222	-0.037	0.023
-199.319	17.186	0.113	0.088
-198.304	21.300	0.281	-0.226
-197.290	800.000	-0.082	-0.331
-196.275	80.833	-0.068	0.072
-195.260	800.000	0.043	-0.148
-194.246	-105.861	0.144	0.032
-193.231	-200.000	0.103	-0.476
-192.217	-115.042	0.203	0.038
-191.202	399.357	-0.210	0.435
-190.187	338.580	0.078	-0.150
-189.173	548.945	0.088	-0.208
-188.158	800.000	0.135	-0.529
-187.144	-106.977	0.192	-0.042
-186.129	-109.289	-0.149	-0.031
-185.114	46.568	-0.174	-0.159
-184.100	40.442	0.220	0.196
-183.085	234.518	-0.116	0.189
-182.071	800.000	-0.032	0.111
-181.056	-50.733	-0.252	0.117
-180.042	266.694	0.152	0.263
-179.027	-63.918	0.096	0.039
-178.012	45.230	-0.159	0.145
-176.998	800.000	0.013	-0.042
-175.983	-135.672	0.026	0.003
-174.969	800.000	-0.041	-0.126
-173.954	214.295	0.086	-0.134
-172.939	-200.000	0.010	0.138
-171.925	303.037	-0.108	0.197
-170.910	-167.101	0.347	-0.014
-169.896	654.206	-0.090	-0.228
-168.881	696.221	0.089	0.230
-167.866	-57.976	0.151	-0.065
-166.852	-49.674	0.249	0.117
-165.837	-200.000	0.001	-0.042
-164.823	-10.892	0.076	0.050
-163.808	-82.255	-0.538	0.173
-162.793	177.627	0.225	-0.324
-161.779	-30.553	0.348	-0.194
-160.764	136.061	-0.237	0.305
-159.750	-43.047	-0.391	0.196
-158.735	-99.569	-0.224	0.056
-157.720	76.705	0.238	-0.250
-156.706	-200.000	-0.021	0.204
-155.691	417.453	-0.033	-0.069
-154.677	-13.660	-0.175	0.112
-153.662	-200.000	-0.065	-0.306
-152.647	-5.444	0.025	0.017
-151.633	-47.230	0.148	-0.071
-150.618	-129.267	-0.176	-0.024
-149.604	184.226	0.149	-0.217
-148.589	293.748	0.202	-0.365
-147.574	-107.960	-0.235	0.050
-146.560	-122.428	0.067	-0.011
-145.545	-94.428	0.343	0.092
-144.531	160.684	0.174	-0.240
-143.516	57.325	0.119	-0.115
-142.502	289.019	0.019	-0.033
-141.487	-141.031	0.371	0.038
-140.472	106.685	0.129	0.151
-139.458	-21.281	-0.189	-0.114
-138.443	48.700	0.126	-0.117
-137.429	-171.250	-0.254	0.008
-136.414	35.914	-0.210	0.182
-135.399	-128.175	-0.200	0.028
-134.385	-50.315	-0.121	-0.056
-133.370	-200.000	-0.018	-0.110
-132.356	-76.632	0.342	0.118
-131.341	800.000	0.142	-0.533
-130.326	800.000	-0.129	-0.356
-129.312	800.000	0.046	-0.176
-128.297	-172.042	0.251	0.008
-127.283	-200.000	-0.009	0.165
-126.268	800.000	-0.030	0.108
-125.253	-45.857	0.169	-0.082
-124.239	-177.926	0.069	-0.002
-123.224	117.649	-0.035	-0.042
-122.210	-132.111	0.387	0.050
-121.195	61.509	0.182	0.178
-120.180	104.038	-0.166	-0.193
-119.166	112.781	-0.076	-0.090
-118.151	537.770	0.057	0.134
-117.137	246.928	0.030	-0.049
-116.122	-165.989	0.219	0.009
-115.107	470.311	-0.185	0.409
-114.093	-107.201	0.165	-0.036
-113.078	38.473	0.126	-0.111
-112.064	-200.000	-0.050	-0.223
-111.049	101.915	-0.137	0.158
-110.034	220.937	0.091	0.144
-109.020	-65.493	0.187	-0.074
-108.005	58.123	-0.171	-0.165
-106.991	85.212	-0.036	-0.039
-105.976	31.721	-0.148	-0.126
-104.962	287.756	0.080	-0.143
-103.947	375.628	-0.128	-0.258
-102.932	-200.000	-0.057	-0.300
-101.918	135.863	-0.168	0.215
-100.903	312.294	0.125	-0.232
-99.889	-43.704	0.216	0.107
-98.874	800.000	0.076	0.217
-97.859	185.247	0.127	-0.186
-96.845	346.163	-0.081	-0.157
-95.830	-22.798	0.061	-0.036
-94.816	342.357	-0.206	-0.397
-93.801	56.522	-0.138	-0.132
-92.786	-23.237	0.295	0.175
-91.772	-200.000	-0.050	-0.234
-90.757	-42.151	0.263	0.132
-89.743	-157.385	-0.315	0.019
-88.728	-200.000	-0.013	0.127
-87.713	129.286	0.008	-0.010
-86.699	-28.932	-0.097	0.055
-85.684	309.009	-0.034	0.063
-84.670	-200.000	0.038	0.166
-83.655	116.853	0.058	0.070
-82.640	362.915	-0.099	-0.195
-81.626	-144.091	-0.087	0.008
-80.611	69.416	0.047	-0.048
-79.597	323.059	-0.066	0.123
-78.582	-169.948	-0.163	0.006
-77.567	211.869	0.139	-0.215
-76.553	-117.385	-0.248	-0.044
-75.538	-1.014	-0.300	0.209
-74.524	7.083	-0.294	-0.215
-73.509	-200.000	0.015	-0.195
-72.494	-159.554	-0.055	-0.003
-71.480	521.567	-0.059	-0.135
-70.465	85.368	-0.130	-0.140
-69.451	-200.000	-0.036	-0.211
-68.436	800.000	0.063	-0.180
-67.422	-84.071	0.102	0.032
-66.407	389.749	0.166	0.339
-65.392	-97.148	0.202	0.052
-64.378	-25.344	0.134	-0.078
-63.363	-200.000	0.036	0.239
-62.349	662.357	-0.139	0.353
-61.334	88.786	-0.893	-0.976
-60.319	741.182	0.182	0.482
-59.305	-200.000	-0.130	-0.966
-58.290	106.542	0.717	0.835
-57.276	545.251	0.646	1.517
-56.261	-200.000	95.314	579.128
-55.246	661.503	1371.152	3471.834
-54.232	199.064	2552.443	3842.494
-53.217	114.174	2267.671	2711.415
-52.203	42.149	1894.735	1690.626
-51.188	35.842	1685.645	1456.452
-50.173	33.180	1641.109	1398.269
-49.159	50.614	1687.107	1568.416
-48.144	52.309	1703.700	1596.468
-47.130	35.476	1664.826	1435.503
-46.115	32.728	1650.695	1402.854
-45.100	32.510	1645.772	1396.990
-44.086	32.457	1643.110	1394.282
-43.071	32.482	1640.534	1392.228
-42.057	32.461	1638.083	1389.941
-41.042	32.490	1635.699	1388.072
-40.027	32.498	1634.246	1386.844
-39.013	32.484	1631.956	1384.746
-37.998	32.397	1630.780	1383.049
-36.984	32.540	1628.844	1382.406
-35.969	32.693	1627.423	1382.269
-34.954	32.630	1625.870	1380.428
-33.940	32.575	1624.714	1378.989
-32.925	32.676	1622.296	1377.623
-31.911	32.588	1620.936	1375.771
-30.896	32.572	1619.165	1374.094
-29.881	32.643	1617.435	1373.087
-28.867	32.642	1615.931	1371.755
-27.852	32.515	1614.744	1369.763
-26.838	32.580	1612.864	1368.591
-25.823	32.469	1611.830	1366.854
-24.809	32.640	1610.060	1366.537
-23.794	32.648	1608.594	1365.295
-22.779	32.661	1607.317	1364.255
-21.765	32.545	1605.493	1361.810
-20.750	32.619	1603.810	1360.867
-19.736	32.628	1602.371	1359.652
-18.721	32.666	1601.262	1358.935
-17.706	32.738	1599.239	1357.679
-16.692	32.633	1598.166	1355.962
-15.677	32.575	1596.835	1354.364
-14.663	32.692	1595.331	1353.869
-13.648	32.673	1593.973	1352.529
-12.633	32.626	1592.457	1350.856
-11.619	32.666	1590.786	1349.665
-10.604	32.646	1589.125	1348.062
-9.590	32.641	1588.282	1347.256
-8.575	32.616	1587.036	1345.970
-7.560	32.675	1585.807	1345.297
-6.546	32.730	1583.928	1344.040
-5.531	32.649	1583.539	1343.074
-4.517	32.654	1581.981	1341.740
-3.502	32.674	1580.716	1340.757
-2.487	32.721	1579.579	1340.068
-1.473	32.385	1567.947	1327.778
-0.458	29.614	1549.214	1292.511
0.556	26.061	1549.698	1261.864
1.571	23.693	1572.467	1263.466
2.586	23.160	1585.693	1270.151
3.600	20.469	1532.547	1208.776
4.615	12.422	1424.396	1071.133
5.629	5.799	1361.588	982.432
6.644	4.812	1353.824	970.595
7.659	4.675	1352.069	968.395
8.673	4.693	1351.224	967.817
9.688	4.600	1349.658	966.031
10.702	4.638	1346.375	963.834
11.717	7.576	1352.894	986.690
12.731	15.229	1365.684	1043.759
13.746	19.814	1373.040	1077.928
14.761	19.297	1371.441	1073.362
15.775	18.362	1368.571	1065.204
16.790	17.337	1365.783	1056.578
17.804	16.408	1363.950	1049.299
18.819	16.077	1362.491	1046.031
19.834	15.926	1361.083	1043.921
20.848	15.644	1359.881	1041.160
21.863	15.519	1358.147	1038.967
22.877	15.332	1357.076	1036.898
23.892	15.215	1356.459	1035.612
24.907	15.115	1355.943	1034.507
25.921	15.161	1355.110	1034.069
26.936	15.268	1353.937	1033.740
27.950	15.356	1352.719	1033.259
28.965	15.359	1351.783	1032.470
29.980	15.548	1350.450	1032.525
30.994	15.622	1349.696	1032.313
32.009	15.594	1348.598	1031.212
33.023	15.554	1347.223	1029.824
34.038	15.558	1345.867	1028.720
35.053	15.403	1345.096	1027.089
36.067	15.481	1343.445	1026.215
37.082	15.432	1342.949	1025.443
38.096	15.451	1341.788	1024.583
39.111	15.442	1341.049	1023.872
40.126	15.301	1340.391	1022.423
41.140	15.256	1339.328	1021.245
42.155	15.188	1338.715	1020.273
43.169	15.235	1338.268	1020.130
44.184	15.095	1338.287	1019.199
45.199	15.212	1338.308	1019.836
46.213	15.230	1337.733	1019.422
47.228	15.382	1336.464	1019.286
48.242	15.428	1335.098	1018.432
49.257	15.419	1333.559	1017.113
50.271	15.469	1332.302	1016.369
51.286	15.416	1330.991	1014.959
52.301	15.362	1329.698	1013.557
53.315	15.240	1328.543	1011.853
54.330	15.198	1327.879	1011.001
55.344	15.273	1325.934	1009.883
56.359	15.180	1325.638	1009.008
57.374	15.215	1324.373	1008.166
58.388	15.191	1323.707	1007.428
59.403	15.156	1323.333	1006.843
60.417	15.088	1322.307	1005.566
61.432	15.108	1321.644	1005.090
62.447	15.050	1320.597	1003.856
63.461	14.978	1319.763	1002.704
64.476	15.008	1318.365	1001.730
65.490	15.045	1317.518	1001.223
66.505	15.078	1315.867	1000.073
67.520	15.112	1314.583	999.211
68.534	15.061	1313.654	998.116
69.549	15.083	1312.467	997.255
70.563	15.055	1311.767	996.469
71.578	14.953	1310.385	994.726
72.593	14.871	1309.922	993.797
73.607	14.880	1309.060	993.111
74.622	14.856	1308.219	992.242
75.636	14.879	1307.236	991.542
76.651	14.984	1306.616	991.608
77.666	14.963	1305.946	990.891
78.680	14.984	1306.105	991.044
79.695	14.997	1305.397	990.498
80.709	15.119	1304.040	990.098
81.724	15.111	1303.323	989.424
82.739	15.166	1302.902	989.341
83.753	15.298	1301.620	989.059
84.768	15.361	1300.849	988.754
85.782	15.382	1299.802	987.994
86.797	15.360	1298.707	986.947
87.812	15.363	1297.143	985.686
88.826	15.308	1296.107	984.489
89.841	15.468	1294.850	984.388
90.855	15.442	1294.151	983.619
91.870	15.350	1293.755	982.692
92.884	15.464	1292.282	982.152
93.899	15.401	1291.756	981.296
94.914	15.460	1291.025	980.996
95.928	15.571	1290.183	980.918
96.943	15.449	1289.484	979.591
97.957	15.422	1288.245	978.403
98.972	15.504	1286.844	977.732
99.987	15.437	1286.237	976.793
101.001	15.503	1285.314	976.388
102.016	15.497	1284.331	975.521
103.030	15.508	1283.071	974.542
104.045	15.385	1282.808	973.545
105.060	15.404	1281.236	972.375
106.074	15.300	1279.605	970.451
107.089	15.131	1278.340	968.426
108.103	15.084	1277.252	967.243
109.118	15.009	1276.342	966.039
110.133	15.072	1274.566	964.971
111.147	15.056	1273.230	963.782
112.162	15.179	1271.811	963.329
113.176	15.181	1270.694	962.407
114.191	15.205	1270.089	962.003
115.206	15.223	1268.940	961.154
116.220	15.195	1267.428	959.762
117.235	15.208	1266.408	958.980
118.249	15.096	1265.826	957.813
119.264	15.277	1264.298	957.603
120.279	15.133	1263.428	956.037
121.293	14.899	1262.582	953.981
122.308	15.061	1261.326	953.872
123.322	15.075	1260.019	952.878
124.337	15.028	1259.313	951.993
125.352	15.059	1257.942	951.047
126.366	15.160	1256.723	950.612
127.381	15.163	1255.681	949.758
128.395	15.100	1254.928	948.749
129.410	15.181	1253.537	948.073
130.424	15.055	1253.183	947.008
131.439	15.182	1252.286	946.963
132.454	15.195	1251.255	946.174
133.468	15.159	1250.494	945.311
134.483	15.211	1250.186	945.290
135.497	15.187	1249.112	944.255
136.512	15.238	1247.496	943.241
137.527	15.261	1246.154	942.268
138.541	15.237	1245.418	941.492
139.556	15.385	1243.600	940.870
140.570	15.301	1242.817	939.721
141.585	15.423	1241.339	939.203
142.600	15.410	1240.287	938.251
143.614	15.442	1239.870	938.032
144.629	15.563	1238.687	937.728
145.643	15.552	1237.465	936.659
146.658	15.428	1236.382	935.068
147.673	15.321	1234.975	933.323
148.687	15.351	1233.768	932.495
149.702	15.255	1232.773	931.126
150.716	15.286	1231.540	930.289
151.731	15.361	1230.184	929.597
152.746	15.285	1229.064	928.248
153.760	15.412	1227.688	927.828
154.775	15.492	1226.391	927.205
155.789	15.394	1226.121	926.379
156.804	15.475	1225.227	926.072
157.819	15.578	1223.889	925.542
158.833	15.558	1222.874	924.582
159.848	15.695	1222.018	924.609
160.862	15.635	1221.025	923.444
161.877	15.414	1220.075	921.433
162.892	15.440	1218.939	920.633
163.906	15.436	1218.121	919.916
164.921	15.448	1217.136	919.155
165.935	15.519	1216.130	918.702
166.950	15.564	1215.357	918.283
167.964	15.538	1214.717	917.575
168.979	15.532	1214.280	917.131
169.994	15.433	1213.574	915.979
171.008	15.593	1212.243	915.762
172.023	15.569	1212.137	915.471
173.037	15.684	1210.899	915.079
174.052	15.675	1210.129	914.371
175.067	15.452	1209.360	912.494
176.081	15.459	1208.122	911.517
177.096	15.485	1207.466	911.082
178.110	15.500	1206.088	910.047
179.125	15.489	1205.119	909.176
180.140	15.439	1203.831	907.849
181.154	15.576	1202.536	907.537
182.169	15.611	1201.661	906.981
183.183	15.583	1200.242	905.678
184.198	15.782	1199.074	905.788
185.213	15.786	1198.005	904.923
186.227	15.814	1196.993	904.231
187.242	15.833	1196.021	903.518
188.256	15.850	1195.363	903.034
189.271	15.886	1194.338	902.370
190.286	15.700	1193.161	900.408
191.300	15.539	1191.990	898.584
192.315	15.473	1191.017	897.414
193.329	15.439	1190.872	897.047
194.344	15.526	1189.987	896.763
195.359	15.600	1189.508	896.719
196.373	15.665	1189.376	896.884
197.388	15.791	1188.623	896.910
198.402	15.955	1188.323	897.478
199.417	16.030	1187.591	897.244
200.432	16.000	1187.027	896.583
201.446	15.979	1186.562	896.040
202.461	16.199	1185.091	896.016
203.475	16.071	1184.355	894.702
204.490	16.058	1182.918	893.466
205.504	15.880	1181.821	891.617
206.519	15.904	1180.584	890.732
207.534	15.778	1179.549	889.207
208.548	15.831	1178.728	888.791
209.563	15.888	1177.788	888.305
210.577	16.030	1176.708	888.157
211.592	15.987	1176.017	887.333
212.607	16.222	1175.194	887.870
213.621	16.030	1174.404	886.186
214.636	16.171	1173.336	886.041
215.650	16.083	1172.923	885.189
216.665	16.177	1171.735	884.709
217.680	16.249	1170.939	884.403
218.694	16.287	1170.164	883.937
219.709	16.207	1169.372	882.842
220.723	16.271	1168.593	882.512
221.738	16.187	1168.067	881.598
222.753	16.284	1166.960	881.189
223.767	16.210	1166.492	880.374
224.782	16.364	1165.412	880.286
225.796	16.310	1165.193	879.758
226.811	16.331	1164.548	879.304
227.826	16.306	1163.966	878.654
228.840	16.298	1162.745	877.614
229.855	16.232	1162.374	876.915
230.869	16.272	1161.554	876.424
231.884	16.220	1160.675	875.417
232.899	16.244	1159.784	874.791
233.913	16.202	1159.278	874.111
234.928	16.113	1158.824	873.236
235.942	16.206	1157.511	872.649
236.957	16.292	1156.664	872.375
237.972	16.217	1155.819	871.273
238.986	16.196	1155.429	870.796
240.001	16.246	1155.071	870.705
241.015	16.300	1153.967	870.077
242.030	16.437	1152.727	869.768
243.045	16.323	1152.657	869.053
244.059	16.326	1151.772	868.324
245.074	16.463	1151.062	868.414
246.088	16.379	1150.482	867.471
247.103	16.625	1149.096	867.607
248.117	16.489	1148.917	866.701
249.132	16.755	1147.640	867.020
250.147	16.766	1147.192	866.666
251.161	16.893	1146.331	866.586
252.176	16.762	1145.881	865.500
253.190	16.931	1145.169	865.748
254.205	17.022	1144.561	865.678
255.220	16.996	1144.349	865.307
256.234	16.904	1143.723	864.287
257.249	16.870	1143.022	863.507
258.263	16.924	1141.990	862.928
259.278	16.979	1141.412	862.694
260.293	17.006	1140.800	862.289
261.307	17.027	1140.659	862.215
262.322	16.890	1140.213	861.107
263.336	16.958	1139.393	860.756
264.351	17.152	1138.490	860.980
265.366	17.040	1137.868	859.867
266.380	17.095	1136.921	859.353
267.395	17.104	1136.030	858.650
268.409	17.051	1135.362	857.803
269.424	17.004	1135.040	857.244
270.439	16.889	1134.684	856.319
271.453	16.962	1133.699	855.867
272.468	17.002	1132.819	855.328
273.482	16.992	1132.176	854.719
274.497	16.863	1131.863	853.755
275.512	16.917	1131.001	853.304
276.526	17.098	1129.462	852.973
277.541	17.045	1129.114	852.370
278.555	17.062	1128.389	851.835
279.570	17.139	1127.803	851.703
280.585	17.246	1126.906	851.486
281.599	17.250	1125.878	850.651
282.614	17.227	1125.064	849.847
283.628	17.219	1123.723	848.721
284.643	17.155	1123.069	847.833
285.657	17.225	1122.161	847.419
286.672	17.245	1120.888	846.484
287.687	17.173	1120.406	845.687
288.701	17.259	1119.567	845.407
289.716	17.288	1118.744	844.853
290.730	17.260	1117.957	844.044
291.745	17.312	1117.142	843.612
292.760	17.299	1116.850	843.255
293.774	17.379	1116.482	843.296
294.789	17.312	1116.124	842.622
295.803	17.383	1115.151	842.162
296.818	17.313	1114.304	841.102
297.833	17.190	1113.496	839.809
298.847	17.409	1112.257	839.882
299.862	17.355	1112.059	839.393
300.876	17.384	1111.713	839.202
301.891	17.384	1110.978	838.569
302.906	17.494	1110.196	838.450
303.920	17.480	1109.348	837.663
304.935	17.600	1108.900	837.842
305.949	17.721	1108.186	837.825
306.964	17.723	1107.632	837.337
307.979	17.516	1107.049	835.808
308.993	17.538	1106.041	835.083
310.008	17.649	1105.237	834.945
311.022	17.675	1104.637	834.545
312.037	17.700	1103.254	833.551
313.052	17.536	1102.895	832.404
314.066	17.592	1101.649	831.660
315.081	17.517	1101.086	830.796
316.095	17.454	1100.194	829.741
317.110	17.559	1099.308	829.511
318.125	17.552	1098.557	828.839
319.139	17.464	1098.226	828.087
320.154	17.519	1097.780	827.945
321.168	17.554	1096.821	827.319
322.183	17.517	1096.286	826.663
323.197	17.639	1095.692	826.734
324.212	17.611	1095.322	826.246
325.227	17.502	1094.758	825.219
326.241	17.724	1094.194	825.794
327.256	17.632	1093.078	824.434
328.270	17.616	1092.125	823.565
329.285	17.564	1091.090	822.462
330.300	17.576	1090.188	821.769
331.314	17.683	1089.126	821.412
332.329	17.612	1088.554	820.563
333.343	17.734	1087.661	820.405
334.358	17.747	1086.828	819.768
335.373	17.812	1086.122	819.472
336.387	17.860	1085.532	819.188
337.402	17.741	1084.999	818.142
338.416	17.971	1084.023	818.434
339.431	17.910	1083.551	817.713
340.446	17.945	1083.418	817.708
341.460	18.059	1082.362	817.382
342.475	18.057	1081.254	816.467
343.489	18.099	1080.775	816.235
344.504	18.152	1079.785	815.663
345.519	18.183	1078.673	814.903
346.533	18.295	1078.001	814.852
347.548	18.285	1077.403	814.281
348.562	18.325	1076.158	813.458
349.577	18.149	1076.034	812.459
350.592	18.050	1075.178	811.268
351.606	17.946	1074.395	810.113
352.621	17.968	1074.324	810.094
353.635	17.948	1073.353	809.196
354.650	18.016	1072.455	808.768
355.665	18.038	1071.639	808.187
356.679	18.081	1071.276	808.044
357.694	18.096	1070.121	807.171
358.708	18.248	1069.555	807.388
359.723	18.227	1069.215	806.962
360.738	18.231	1068.278	806.205
361.752	18.162	1068.055	805.637
362.767	18.251	1067.408	805.499
363.781	18.235	1066.771	804.868
364.796	18.280	1066.625	804.898
365.810	18.453	1065.643	804.903
366.825	18.400	1065.399	804.395
367.840	18.497	1064.864	804.379
368.854	18.595	1064.011	804.122
369.869	18.544	1063.197	803.197
370.883	18.490	1062.412	802.280
371.898	18.378	1061.920	801.313
372.913	18.459	1061.229	801.100
373.927	18.478	1060.872	800.846
374.942	18.589	1060.353	800.903
375.956	18.523	1060.010	800.264
376.971	18.490	1059.011	799.283
377.986	18.576	1058.461	799.202
379.000	18.778	1057.628	799.441
380.015	18.677	1057.476	798.784
381.029	18.767	1056.612	798.481
382.044	18.788	1055.782	797.878
383.059	18.751	1055.327	797.296
384.073	18.660	1054.738	796.356
385.088	18.787	1053.611	796.023
386.102	18.705	1052.948	795.072
387.117	18.607	1051.946	793.790
388.132	18.614	1050.793	792.883
389.146	18.628	1050.014	792.290
390.161	18.619	1049.495	791.789
391.175	18.633	1048.655	791.146
392.190	18.706	1048.213	791.081
393.205	18.775	1047.522	790.807
394.219	18.786	1046.776	790.227
395.234	18.692	1045.990	789.129
396.248	18.633	1044.752	787.855
397.263	18.691	1043.442	787.065
398.278	18.786	1042.776	786.925
399.292	18.699	1042.088	785.942
400.307	18.745	1041.570	785.689
401.321	18.712	1040.845	784.924
402.336	18.637	1040.633	784.348
403.350	18.747	1039.744	784.114
404.365	18.685	1039.075	783.256
405.380	18.852	1038.097	783.211
406.394	18.735	1037.466	782.134
407.409	18.863	1036.864	782.195
408.423	19.058	1036.292	782.581
409.438	19.021	1035.394	781.661
410.453	19.134	1034.783	781.644
411.467	19.042	1034.293	780.787
412.482	19.090	1033.703	780.490
413.496	19.267	1032.656	780.435
414.511	19.232	1032.142	779.820
415.526	19.237	1032.011	779.673
416.540	19.308	1031.825	779.783
417.555	19.245	1030.955	778.774
418.569	19.242	1030.526	778.366
419.584	19.337	1029.831	778.201
420.599	19.300	1029.240	777.521
421.613	151.592	1401.108	1795.331
422.628	138.280	1455.284	1795.420
