DTS Sentinel unit serial number:	SN413079Multiplexer serial number:	ORYXHardware model number:	OX4-SRSoftware version number:	ORYX F/W v4.00 Oryx Data Collector v3.7.2.0data status	okinstallation	princeton_trtdifferential loss correction	single-endedforward channel	channel 2reverse channel	N/Adate	2019/09/12time	19:27:49forward acquisition time	15.00reverse acquisition time	0.00gamma	496.2192k internal	0.2326k external	0.2326temperature offset calibration	1.0147default loss term (dB/km)	0.3790temperature slope calibration	1.0000multiplexer offset coefficient	1.0000multiplexer slope coefficient	1.0000fibre end	0.00T internal ref (°C)	32.25T ext. ref 1 (°C)	3.27T ext. ref 2 (°C)	26.83length (m)	temperature (°C)	Stokes	anti-Stokes-747.200	-84.473	0.896	0.286
-746.185	-165.733	0.825	0.036
-745.171	-200.000	-0.009	-0.625
-744.156	553.416	0.250	-0.605
-743.142	-116.924	-0.300	-0.055
-742.127	-76.381	-0.951	0.338
-741.112	-8.668	0.544	0.369
-740.098	-200.000	-0.113	0.825
-739.083	256.227	-0.367	-0.635
-738.069	-200.000	0.039	0.338
-737.054	-200.000	-0.118	0.748
-736.039	-134.362	-1.019	0.126
-735.025	-41.871	0.449	0.232
-734.010	-83.207	0.098	-0.032
-732.996	-200.000	0.060	-0.320
-731.981	800.000	0.020	0.059
-730.966	170.201	0.432	0.624
-729.952	693.017	0.278	-0.736
-728.937	-200.000	-0.017	0.501
-727.923	58.696	0.264	-0.262
-726.908	-106.119	1.224	-0.277
-725.894	109.380	0.508	-0.613
-724.879	61.198	-0.516	-0.517
-723.864	56.001	-0.405	-0.396
-722.850	-200.000	0.024	-0.351
-721.835	800.000	-0.145	-0.594
-720.821	-85.154	-0.174	0.055
-719.806	109.058	-0.324	0.390
-718.791	-34.936	-0.445	0.245
-717.777	800.000	-0.170	0.681
-716.762	-145.556	0.848	-0.077
-715.748	-66.611	-0.832	0.332
-714.733	-118.041	0.626	-0.113
-713.718	-73.497	-0.163	-0.060
-712.704	-86.859	-0.246	0.076
-711.689	26.795	0.746	-0.630
-710.675	-200.000	-0.030	0.336
-709.660	-159.365	-1.064	-0.060
-708.645	69.538	-0.521	0.540
-707.631	767.755	-0.202	-0.553
-706.616	-74.718	0.326	0.118
-705.602	513.179	0.073	0.172
-704.587	800.000	0.252	0.832
-703.572	0.459	-0.493	0.355
-702.558	415.806	0.168	-0.360
-701.543	-69.386	-0.235	0.091
-700.529	92.944	-0.260	-0.295
-699.514	-39.605	-1.295	0.683
-698.499	386.791	0.259	0.538
-697.485	156.377	-0.270	-0.375
-696.470	255.803	-0.299	-0.516
-695.456	190.878	0.174	-0.263
-694.441	-100.695	-0.237	-0.059
-693.426	497.209	-0.253	0.585
-692.412	183.377	0.446	0.663
-691.397	614.068	-0.244	0.615
-690.383	-44.686	-0.406	-0.204
-689.368	-200.000	0.048	-0.825
-688.354	242.909	0.140	-0.235
-687.339	17.799	0.240	0.192
-686.324	-58.408	-0.455	0.199
-685.310	189.208	-0.249	0.376
-684.295	-200.000	0.001	0.253
-683.281	-99.604	-1.023	-0.258
-682.266	507.477	0.232	0.542
-681.251	-128.285	0.939	0.135
-680.237	204.359	-0.226	-0.353
-679.222	-128.297	0.295	0.042
-678.208	800.000	0.082	0.323
-677.193	-156.590	-0.558	-0.035
-676.178	167.698	-0.363	-0.519
-675.164	-3.228	-0.439	-0.308
-674.149	-128.893	-1.042	-0.147
-673.135	49.421	-0.670	0.634
-672.120	137.010	0.223	0.294
-671.105	58.519	-0.068	-0.067
-670.091	800.000	0.179	0.571
-669.076	-7.914	-0.913	-0.620
-668.062	280.496	0.396	-0.712
-667.047	39.285	-0.452	0.407
-666.032	-97.602	0.987	0.258
-665.018	800.000	0.134	0.399
-664.003	90.197	0.159	0.179
-662.989	68.072	-0.200	-0.206
-661.974	164.015	0.371	0.526
-660.959	-200.000	-0.170	-0.796
-659.945	-92.730	-0.417	-0.117
-658.930	131.448	-0.414	0.535
-657.916	223.685	0.349	0.565
-656.901	104.811	0.539	-0.638
-655.886	18.642	0.889	0.715
-654.872	-200.000	0.029	0.772
-653.857	59.839	-0.360	-0.357
-652.843	-73.417	-0.524	-0.192
-651.828	800.000	-0.161	-0.481
-650.814	120.027	0.223	-0.277
-649.799	-200.000	-0.009	-0.589
-648.784	800.000	0.163	0.540
-647.770	800.000	-0.258	0.747
-646.755	39.714	-0.460	-0.415
-645.741	-23.682	-0.361	0.218
-644.726	396.208	0.408	-0.857
-643.711	800.000	-0.283	-0.958
-642.697	-168.696	1.223	0.047
-641.682	-200.000	-0.071	0.400
-640.668	493.155	0.170	-0.392
-639.653	136.171	0.109	-0.142
-638.638	79.901	-0.358	-0.386
-637.624	-103.186	0.836	0.199
-636.609	87.088	0.115	-0.127
-635.595	-18.099	-0.058	0.036
-634.580	-86.442	-0.194	-0.060
-633.565	800.000	0.248	0.937
-632.551	-200.000	-0.013	0.075
-631.536	-153.158	-0.299	-0.021
-630.522	-129.193	1.106	-0.155
-629.507	74.622	-0.214	-0.226
-628.492	-133.702	-0.780	0.098
-627.478	-118.397	0.420	0.075
-626.463	153.416	-0.203	0.279
-625.449	1.977	-0.492	-0.356
-624.434	-200.000	0.017	-0.117
-623.419	-117.745	0.649	0.117
-622.405	-65.276	-0.286	0.116
-621.390	-88.724	0.304	0.091
-620.376	-164.448	0.394	0.018
-619.361	-43.606	0.125	0.063
-618.346	-45.446	0.359	-0.179
-617.332	36.442	-0.525	-0.465
-616.317	-200.000	-0.056	0.378
-615.303	-200.000	0.043	0.193
-614.288	800.000	-0.133	0.419
-613.273	94.007	-0.233	-0.266
-612.259	272.690	-0.162	-0.287
-611.244	-45.245	0.608	-0.303
-610.230	-36.172	0.151	-0.082
-609.215	-197.588	-0.067	0.000
-608.201	190.146	-0.737	1.110
-607.186	125.565	-0.375	0.475
-606.171	-79.741	0.160	-0.054
-605.157	-67.358	0.405	0.160
-604.142	-108.015	0.327	-0.071
-603.128	119.820	0.428	-0.532
-602.113	-108.887	0.955	0.205
-601.098	800.000	0.159	0.480
-600.084	498.958	0.193	-0.446
-599.069	158.614	0.233	-0.324
-598.055	-200.000	-0.054	-0.366
-597.040	-37.073	-0.203	0.109
-596.025	-73.303	-0.415	0.152
-595.011	-90.878	0.589	-0.170
-593.996	-200.000	-0.433	0.001
-592.982	-47.138	0.157	0.077
-591.967	-76.123	-0.633	0.224
-590.952	66.054	-0.313	-0.318
-589.938	17.981	0.255	-0.204
-588.923	-94.490	-0.557	-0.152
-587.909	-72.081	-1.090	0.406
-586.894	-74.254	0.219	0.079
-585.879	557.135	-0.282	-0.681
-584.865	-174.725	-0.389	0.011
-583.850	-101.678	-0.540	0.131
-582.836	-64.131	0.296	0.121
-581.821	-176.343	0.444	0.012
-580.806	83.825	-0.129	0.141
-579.792	-132.831	0.200	-0.026
-578.777	-200.000	0.099	-0.793
-577.763	800.000	0.059	-0.170
-576.748	-200.000	0.085	-0.776
-575.733	-200.000	0.067	-0.760
-574.719	-200.000	0.051	0.454
-573.704	8.465	0.279	0.211
-572.690	800.000	0.213	-0.786
-571.675	209.046	0.207	0.324
-570.661	800.000	0.052	-0.191
-569.646	-200.000	-0.050	0.924
-568.631	659.379	-0.366	-0.943
-567.617	124.426	0.277	0.349
-566.602	-200.000	0.003	-0.247
-565.588	201.532	0.100	0.154
-564.573	220.563	0.254	0.407
-563.558	258.991	0.233	0.403
-562.544	-107.721	-0.877	-0.192
-561.529	-174.651	0.583	-0.017
-560.515	-200.000	0.183	-0.878
-559.500	-81.955	-0.618	-0.202
-558.485	-200.000	-0.080	-0.368
-557.471	-159.288	-0.493	-0.028
-556.456	-200.000	-0.063	0.296
-555.442	-109.141	0.156	0.033
-554.427	-71.810	0.272	0.101
-553.412	79.840	0.560	0.603
-552.398	-157.712	-0.401	0.024
-551.383	-120.699	0.494	0.084
-550.369	632.804	0.172	0.436
-549.354	-22.647	0.356	0.215
-548.339	-111.483	-0.341	0.070
-547.325	-100.099	-0.288	0.072
-546.310	-54.336	-0.714	-0.324
-545.296	-136.165	-0.573	0.067
-544.281	-7.295	-0.385	0.261
-543.266	-200.000	0.153	0.724
-542.252	-96.809	0.243	0.064
-541.237	-147.200	0.233	-0.020
-540.223	-96.198	0.230	-0.061
-539.208	-114.975	0.456	-0.087
-538.193	79.839	-0.424	-0.456
-537.179	-39.316	-0.825	0.433
-536.164	327.031	-0.565	1.084
-535.150	-200.000	-0.037	-0.339
-534.135	161.406	0.179	-0.251
-533.121	-196.289	-0.820	0.006
-532.106	397.043	0.210	-0.439
-531.091	-153.307	-1.043	0.073
-530.077	-200.000	-0.200	-1.174
-529.062	10.400	-0.441	-0.336
-528.048	542.963	-0.208	-0.496
-527.033	308.698	0.429	-0.801
-526.018	83.715	-0.218	-0.238
-525.004	-37.598	0.356	0.190
-523.989	58.855	0.412	0.405
-522.975	-137.808	-0.249	0.028
-521.960	83.182	-0.842	0.917
-520.945	80.150	-0.182	-0.196
-519.931	157.170	0.037	0.051
-518.916	-200.000	0.012	0.145
-517.902	25.584	0.322	-0.268
-516.887	-140.558	-0.627	-0.065
-515.872	-31.432	0.142	-0.080
-514.858	174.426	0.375	-0.543
-513.843	-159.847	0.245	-0.013
-512.829	221.759	0.164	-0.264
-511.814	-24.774	-0.492	-0.292
-510.799	89.934	-0.279	-0.312
-509.785	22.150	-0.287	0.234
-508.770	-116.008	0.808	-0.150
-507.756	90.905	0.180	0.202
-506.741	-17.474	-0.049	-0.031
-505.726	-200.000	-0.139	0.679
-504.712	295.997	-0.081	0.148
-503.697	284.760	0.284	-0.512
-502.683	117.230	-0.035	-0.043
-501.668	104.639	-0.019	-0.022
-500.653	-200.000	0.020	-0.406
-499.639	-200.000	0.044	-0.629
-498.624	-141.502	-0.727	0.073
-497.610	-11.999	0.515	0.337
-496.595	1.113	-0.572	0.410
-495.581	-69.740	0.750	0.286
-494.566	74.314	0.074	0.078
-493.551	-200.000	-0.076	-0.501
-492.537	344.573	0.117	0.229
-491.522	93.460	-0.424	0.479
-490.508	-58.252	-0.653	0.284
-489.493	606.153	-0.111	0.275
-488.478	-131.321	-0.425	-0.056
-487.464	-200.000	0.009	-0.329
-486.449	-49.461	1.076	-0.512
-485.435	97.806	0.149	-0.171
-484.420	51.254	0.603	0.572
-483.405	800.000	0.191	-0.548
-482.391	-97.610	0.464	-0.120
-481.376	-30.162	-0.475	-0.270
-480.362	-10.089	0.295	0.196
-479.347	286.644	0.147	-0.265
-478.332	19.273	0.334	0.267
-477.318	24.814	0.416	0.344
-476.303	-2.188	0.239	0.168
-475.289	399.096	-0.046	0.096
-474.274	320.642	-0.165	-0.313
-473.259	800.000	0.057	-0.246
-472.245	-42.749	0.427	-0.217
-471.230	-86.183	0.641	0.197
-470.216	800.000	0.081	0.345
-469.201	800.000	0.499	1.489
-468.186	736.324	0.235	-0.628
-467.172	258.494	-0.271	-0.466
-466.157	-74.622	-0.906	0.325
-465.143	172.717	0.371	0.533
-464.128	132.013	-0.243	0.313
-463.113	46.826	0.174	0.161
-462.099	800.000	-0.190	-0.774
-461.084	3.236	-0.218	-0.158
-460.070	800.000	-0.048	-0.181
-459.055	-200.000	-0.189	-0.853
-458.040	640.758	0.335	-0.852
-457.026	-42.945	-0.372	0.189
-456.011	154.993	0.671	-0.920
-454.997	75.525	-0.331	0.349
-453.982	417.416	0.132	0.282
-452.968	51.861	-0.550	-0.522
-451.953	-75.984	-0.600	-0.212
-450.938	-59.137	-0.429	-0.184
-449.924	800.000	0.287	0.960
-448.909	-164.713	0.556	0.025
-447.895	-78.435	-0.086	-0.029
-446.880	-200.000	-0.115	-0.829
-445.865	-99.081	1.057	-0.267
-444.851	-53.236	-0.727	-0.333
-443.836	-33.009	0.110	0.061
-442.822	800.000	0.275	-0.802
-441.807	358.902	0.393	-0.783
-440.792	35.729	-0.281	0.246
-439.778	-23.388	0.413	0.247
-438.763	-136.718	-0.506	-0.058
-437.749	264.951	-0.173	0.301
-436.734	-200.000	-0.111	0.831
-435.719	-200.000	-0.047	0.315
-434.705	-7.761	0.341	-0.230
-433.690	-20.685	-0.531	-0.325
-432.676	168.832	0.508	0.722
-431.661	-36.317	-0.515	-0.277
-430.646	-200.000	0.018	-0.088
-429.632	-86.970	0.520	0.158
-428.617	381.725	0.283	0.580
-427.603	24.285	0.235	-0.194
-426.588	20.284	-0.626	0.504
-425.573	-113.357	0.036	0.007
-424.559	-200.000	-0.195	1.169
-423.544	323.232	0.191	-0.363
-422.530	54.719	0.595	0.572
-421.515	-95.574	-0.506	-0.135
-420.500	477.705	0.233	0.525
-419.486	-140.731	-0.685	0.070
-418.471	-109.330	-0.516	-0.109
-417.457	800.000	0.235	0.891
-416.442	71.791	-0.505	-0.523
-415.428	12.989	0.821	-0.633
-414.413	294.835	0.228	0.416
-413.398	211.347	0.534	0.837
-412.384	-95.248	-0.795	0.213
-411.369	-200.000	-0.039	0.346
-410.355	-200.000	-0.047	0.337
-409.340	490.033	-0.099	0.226
-408.325	-200.000	0.198	1.359
-407.311	-200.000	0.049	-0.709
-406.296	253.041	-0.347	0.589
-405.282	-127.228	-0.768	-0.112
-404.267	-97.496	0.238	-0.062
-403.252	387.667	0.569	1.171
-402.238	276.940	-0.579	-1.024
-401.223	85.411	-0.522	-0.570
-400.209	26.460	0.173	-0.144
-399.194	142.932	0.238	0.315
-398.179	-97.883	0.319	-0.082
-397.165	-200.000	-0.173	-1.088
-396.150	-200.000	0.165	-1.073
-395.136	7.330	0.545	0.405
-394.121	-200.000	-0.053	-0.391
-393.106	-200.000	-0.040	0.538
-392.092	-200.000	0.029	-0.523
-391.077	-90.857	0.518	0.148
-390.063	-147.513	0.111	0.009
-389.048	420.205	0.226	0.481
-388.033	800.000	-0.339	1.338
-387.019	275.111	0.343	-0.605
-386.004	504.983	0.176	0.406
-384.990	464.715	-0.116	-0.258
-383.975	-118.450	0.339	-0.060
-382.960	-11.898	0.214	-0.139
-381.946	-14.810	-0.565	0.361
-380.931	84.198	-0.393	0.427
-379.917	418.588	0.296	0.630
-378.902	429.574	0.300	-0.644
-377.888	800.000	-0.188	0.583
-376.873	-35.920	-0.349	-0.188
-375.858	800.000	-0.144	-0.440
-374.844	-37.489	0.725	-0.385
-373.829	95.211	0.768	-0.870
-372.815	212.734	-0.202	0.316
-371.800	-151.767	0.235	0.017
-370.785	11.994	-0.190	0.145
-369.771	-200.000	0.070	0.707
-368.756	330.841	0.676	1.295
-367.742	124.987	0.200	-0.251
-366.727	205.876	-0.181	-0.280
-365.712	-200.000	0.005	0.378
-364.698	-100.502	0.750	0.184
-363.683	-44.006	0.454	0.227
-362.669	168.578	-0.102	0.144
-361.654	-200.000	0.031	0.151
-360.639	800.000	0.363	-1.045
-359.625	-200.000	-0.004	0.128
-358.610	-167.549	-0.252	-0.010
-357.596	15.757	-0.093	0.073
-356.581	15.285	0.790	0.616
-355.566	-200.000	-0.216	1.206
-354.552	-133.597	-0.287	0.036
-353.537	138.036	-0.376	0.490
-352.523	-75.266	-1.001	-0.355
-351.508	584.193	0.153	-0.374
-350.493	-200.000	-0.089	0.506
-349.479	728.130	0.239	-0.634
-348.464	800.000	0.192	0.642
-347.450	329.319	0.506	0.966
-346.435	-23.479	-0.215	0.128
-345.420	566.026	0.068	-0.164
-344.406	-153.452	-0.072	0.005
-343.391	-200.000	0.159	-0.727
-342.377	-121.182	0.774	-0.129
-341.362	-57.520	0.345	-0.151
-340.348	320.350	-0.259	0.488
-339.333	-13.035	0.310	0.200
-338.318	36.384	-0.479	-0.419
-337.304	149.282	0.287	-0.386
-336.289	-61.652	-0.443	0.184
-335.275	-166.329	0.328	0.014
-334.260	-200.000	-0.007	-0.612
-333.245	800.000	0.205	0.778
-332.231	-106.165	-0.513	0.114
-331.216	-129.129	-0.214	-0.030
-330.202	664.064	-0.256	0.655
-329.187	-81.541	-0.175	-0.057
-328.172	-47.262	-0.098	0.048
-327.158	-92.411	0.396	-0.110
-326.143	-50.110	-0.232	-0.109
-325.129	800.000	0.140	-0.579
-324.114	-8.345	0.793	0.529
-323.099	-33.502	-0.744	0.408
-322.085	-10.972	0.371	-0.243
-321.070	558.765	-0.114	-0.272
-320.056	-30.288	-0.969	0.546
-319.041	748.250	-0.022	0.058
-318.026	732.552	0.120	-0.318
-317.012	-200.000	-0.006	-0.160
-315.997	-200.000	-0.111	0.769
-314.983	-200.000	0.044	0.679
-313.968	-24.861	0.362	-0.213
-312.953	-162.964	0.210	-0.010
-311.939	44.130	0.765	0.696
-310.924	-200.000	-0.054	-0.298
-309.910	-116.971	-0.403	-0.073
-308.895	-16.453	0.331	0.208
-307.880	7.200	-0.547	0.405
-306.866	118.147	0.329	-0.402
-305.851	-4.474	-0.198	-0.136
-304.837	32.574	0.200	0.171
-303.822	-200.000	0.092	-0.461
-302.807	-140.061	-0.575	0.060
-301.793	-200.000	-0.101	0.787
-300.778	800.000	0.320	0.957
-299.764	559.200	-0.168	0.403
-298.749	-200.000	0.147	-0.670
-297.735	-200.000	0.102	-0.600
-296.720	274.090	-0.428	-0.751
-295.705	487.675	-0.175	-0.395
-294.691	-36.175	-1.050	-0.562
-293.676	-33.840	-0.211	0.115
-292.662	-161.551	-0.463	0.024
-291.647	163.442	0.304	-0.424
-290.632	-121.638	0.524	0.086
-289.618	305.612	-0.094	-0.174
-288.603	61.056	-0.283	-0.279
-287.589	-200.000	0.033	0.423
-286.574	-135.992	0.439	0.051
-285.559	330.545	0.135	-0.258
-284.545	111.778	0.415	-0.497
-283.530	-200.000	0.034	0.445
-282.516	-18.110	-0.517	-0.321
-281.501	-78.436	0.316	-0.107
-280.486	96.964	-0.607	-0.689
-279.472	-96.926	0.793	-0.206
-278.457	273.778	0.050	0.087
-277.443	-53.569	0.218	0.099
-276.428	800.000	0.180	0.680
-275.413	357.240	0.161	0.317
-274.399	-35.156	-0.187	-0.101
-273.384	73.512	0.623	-0.646
-272.370	-39.688	-0.289	-0.150
-271.355	87.305	-0.128	0.140
-270.340	-80.524	-0.029	0.009
-269.326	-200.000	0.057	-0.646
-268.311	3.676	-0.159	0.115
-267.297	329.439	0.200	-0.381
-266.282	-30.326	0.370	-0.208
-265.267	111.902	0.475	0.568
-264.253	-115.807	0.870	0.161
-263.238	144.809	-0.795	-1.052
-262.224	-89.580	0.226	0.066
-261.209	-200.000	0.131	0.650
-260.195	23.924	-0.184	0.150
-259.180	-56.044	-0.877	0.387
-258.165	149.248	0.320	0.429
-257.151	-200.000	-0.065	-0.975
-256.136	-200.000	0.005	-0.116
-255.122	64.902	0.384	0.383
-254.107	-200.000	-0.093	0.677
-253.092	478.899	-0.333	-0.747
-252.078	65.047	0.417	0.417
-251.063	-72.106	0.421	-0.155
-250.049	-200.000	0.010	0.168
-249.034	-154.168	0.428	0.029
-248.019	800.000	-0.284	-1.029
-247.005	-3.994	-0.284	-0.195
-245.990	507.350	-0.391	0.897
-244.976	298.839	-0.329	0.598
-243.961	73.383	-0.143	0.148
-242.946	42.539	-0.217	0.195
-241.932	800.000	0.215	-0.607
-240.917	422.565	-0.035	-0.075
-239.903	-200.000	-0.005	-0.336
-238.888	-14.458	-0.366	0.233
-237.873	800.000	0.056	-0.193
-236.859	-81.357	-0.680	-0.222
-235.844	42.639	-0.362	0.326
-234.830	-43.835	-0.543	-0.270
-233.815	243.803	-0.433	-0.718
-232.800	-36.147	0.283	-0.151
-231.786	-87.936	0.295	-0.088
-230.771	-173.743	-0.507	0.015
-229.757	-22.592	-0.575	0.344
-228.742	107.347	0.038	0.045
-227.727	-200.000	0.284	1.605
-226.713	-57.766	-0.158	-0.068
-225.698	-200.000	-0.001	-0.698
-224.684	73.157	-0.670	-0.692
-223.669	136.978	-0.173	0.223
-222.655	374.169	-0.102	-0.205
-221.640	24.629	0.631	-0.516
-220.625	57.312	-0.221	-0.213
-219.611	-51.575	0.868	0.400
-218.596	283.972	0.239	-0.425
-217.582	734.715	0.190	0.502
-216.567	10.139	-0.656	0.493
-215.552	-200.000	0.084	-0.443
-214.538	-104.898	0.342	-0.078
-213.523	-200.000	0.012	-0.281
-212.509	-107.394	-0.690	-0.150
-211.494	800.000	-0.222	0.646
-210.479	34.419	0.482	0.415
-209.465	-18.168	-0.885	0.547
-208.450	485.796	-0.140	-0.316
-207.436	-24.769	-0.709	-0.416
-206.421	-40.627	-0.319	-0.163
-205.406	23.500	0.474	-0.385
-204.392	-53.538	-0.304	0.137
-203.377	173.630	-0.173	0.247
-202.363	-60.926	0.963	0.402
-201.348	143.045	0.333	0.438
-200.333	-138.341	-0.500	0.055
-199.319	-30.487	-0.066	-0.037
-198.304	-0.389	0.129	0.090
-197.290	-200.000	-0.014	-0.650
-196.275	800.000	0.090	0.277
-195.260	-30.950	-0.098	-0.055
-194.246	-41.795	-1.111	0.563
-193.231	-82.987	0.593	0.189
-192.217	169.928	0.616	0.869
-191.202	-200.000	-0.006	-0.549
-190.187	800.000	-0.174	-0.640
-189.173	38.573	0.259	-0.228
-188.158	168.352	0.369	0.518
-187.144	48.126	0.724	0.669
-186.129	14.589	0.784	-0.604
-185.114	93.141	-0.707	-0.789
-184.100	-144.103	0.159	0.015
-183.085	23.364	0.108	0.088
-182.071	277.768	0.153	0.269
-181.056	-100.870	0.482	0.117
-180.042	430.808	0.121	-0.259
-179.027	31.584	-0.471	-0.399
-178.012	-96.865	-0.909	-0.235
-176.998	-73.613	-0.208	-0.075
-175.983	670.652	-0.369	-0.942
-174.969	-80.770	-0.778	-0.255
-173.954	336.044	0.131	0.251
-172.939	-200.000	0.127	0.689
-171.925	800.000	0.156	0.573
-170.910	-94.914	-1.028	0.274
-169.896	-165.777	0.359	-0.015
-168.881	65.630	0.196	-0.195
-167.866	-117.963	0.625	0.110
-166.852	-34.534	-0.351	-0.190
-165.837	-69.212	-0.789	0.299
-164.823	-5.178	0.069	-0.047
-163.808	319.400	0.266	-0.497
-162.793	-68.839	0.286	-0.109
-161.779	-59.172	-0.269	-0.114
-160.764	-147.072	0.628	-0.053
-159.750	85.943	-0.416	0.451
-158.735	634.697	-0.136	0.340
-157.720	-200.000	0.001	-0.230
-156.706	105.814	0.289	-0.337
-155.691	45.630	0.438	0.399
-154.677	-104.027	-0.456	0.105
-153.662	78.133	-0.552	-0.581
-152.647	-72.720	0.891	-0.323
-151.633	800.000	0.184	-0.644
-150.618	-200.000	-0.111	-0.652
-149.604	-185.692	0.305	-0.005
-148.589	66.337	0.403	-0.403
-147.574	-57.709	-0.487	0.210
-146.560	582.189	0.075	-0.181
-145.545	27.804	-0.329	0.273
-144.531	-88.156	0.452	0.133
-143.516	-78.998	0.285	-0.096
-142.502	-200.000	-0.020	-0.450
-141.487	-200.000	-0.157	0.726
-140.472	-43.483	0.468	0.233
-139.458	-75.469	0.447	-0.157
-138.443	-50.430	0.355	-0.165
-137.429	45.258	-0.739	-0.672
-136.414	412.514	-0.292	0.612
-135.399	134.114	-0.520	-0.663
-134.385	10.153	0.202	0.151
-133.370	552.077	0.077	-0.181
-132.356	-44.276	0.754	-0.372
-131.341	317.901	-0.471	0.877
-130.326	-42.596	-0.676	0.339
-129.312	190.326	0.371	-0.548
-128.297	-5.482	1.118	0.755
-127.283	-200.000	-0.135	0.660
-126.268	-200.000	0.033	0.211
-125.253	557.552	-0.204	0.483
-124.239	-200.000	0.050	-0.216
-123.224	195.327	-0.219	-0.327
-122.210	296.713	0.574	-1.037
-121.195	-118.747	-0.751	0.130
-120.180	800.000	-0.188	-0.526
-119.166	49.416	-0.619	0.573
-118.151	53.320	-0.348	-0.328
-117.137	-116.126	-0.192	0.035
-116.122	308.533	0.276	-0.507
-115.107	172.422	0.436	-0.618
-114.093	-67.555	0.411	-0.159
-113.078	317.342	0.255	0.475
-112.064	-31.133	0.293	0.162
-111.049	-200.000	0.043	0.198
-110.034	-141.413	-0.273	-0.027
-109.020	-194.815	0.372	-0.003
-108.005	269.974	0.190	-0.329
-106.991	800.000	-0.166	0.506
-105.976	142.699	0.223	0.292
-104.962	-24.076	0.583	0.343
-103.947	-129.120	-0.306	-0.042
-102.932	-134.984	-0.704	-0.084
-101.918	77.861	-0.532	-0.558
-100.903	432.909	0.607	-1.296
-99.889	-70.809	0.399	0.148
-98.874	-130.708	-0.153	-0.020
-97.859	28.020	0.281	-0.233
-96.845	-28.494	-0.539	-0.306
-95.830	22.235	0.503	-0.404
-94.816	-159.748	0.620	-0.034
-93.801	76.985	0.494	-0.516
-92.786	188.921	0.708	1.042
-91.772	81.267	0.334	-0.354
-90.757	-185.247	-0.276	0.004
-89.743	493.475	-0.199	0.448
-88.728	51.928	0.468	0.438
-87.713	515.808	0.133	0.305
-86.699	-81.229	-0.388	-0.126
-85.684	800.000	-0.144	0.550
-84.670	-46.282	0.456	-0.221
-83.655	-200.000	0.080	0.483
-82.640	-130.073	-0.730	-0.098
-81.626	-65.788	0.539	-0.212
-80.611	23.788	-0.273	0.221
-79.597	0.282	-0.461	0.324
-78.582	-104.483	-0.425	0.097
-77.567	800.000	0.149	-0.438
-76.553	208.314	-0.236	-0.363
-75.538	3.418	-0.188	0.135
-74.524	526.371	-0.363	0.841
-73.509	-85.125	0.709	-0.218
-72.494	229.188	-0.072	0.116
-71.480	-120.374	-0.346	-0.058
-70.465	-10.380	0.609	-0.396
-69.451	91.163	-0.452	-0.498
-68.436	-169.888	-0.751	0.026
-67.422	120.382	0.231	-0.282
-66.407	-200.000	0.039	0.960
-65.392	-44.784	0.925	0.453
-64.378	-200.000	0.033	-0.321
-63.363	0.579	0.489	0.343
-62.349	140.319	0.263	-0.341
-61.334	67.273	-1.015	-1.016
-60.319	-30.876	-0.438	0.243
-59.305	103.014	-0.916	-1.054
-58.290	679.535	0.240	0.613
-57.276	781.991	0.502	1.350
-56.261	-200.000	96.969	601.271
-55.246	679.820	1355.044	3463.415
-54.232	204.009	2525.528	3840.473
-53.217	114.030	2246.022	2682.068
-52.203	41.991	1879.751	1674.568
-51.188	35.677	1673.498	1443.540
-50.173	33.120	1629.794	1387.053
-49.159	51.175	1679.741	1564.432
-48.144	51.884	1696.110	1584.898
-47.130	35.190	1655.905	1424.523
-46.115	32.614	1640.942	1392.580
-45.100	32.188	1637.178	1386.188
-44.086	32.095	1633.751	1382.550
-43.071	32.040	1631.887	1380.513
-42.057	32.146	1628.812	1378.637
-41.042	32.253	1626.560	1377.456
-40.027	31.960	1625.999	1374.779
-39.013	32.077	1623.169	1373.189
-37.998	31.794	1623.237	1371.120
-36.984	31.987	1622.044	1371.473
-35.969	32.232	1619.197	1370.793
-34.954	32.260	1617.709	1369.687
-33.940	32.307	1615.644	1368.224
-32.925	32.385	1613.740	1367.124
-31.911	32.105	1613.653	1364.960
-30.896	32.534	1610.115	1365.027
-29.881	32.392	1607.815	1361.998
-28.867	32.164	1608.014	1360.459
-27.852	32.161	1606.001	1358.683
-26.838	32.173	1604.979	1357.844
-25.823	32.034	1603.179	1355.270
-24.809	32.399	1601.859	1356.730
-23.794	32.384	1600.395	1355.327
-22.779	32.307	1598.684	1353.273
-21.765	32.185	1596.300	1350.322
-20.750	32.097	1596.520	1349.821
-19.736	32.323	1593.512	1348.850
-18.721	32.573	1591.487	1348.873
-17.706	32.478	1590.760	1347.518
-16.692	32.409	1589.528	1345.930
-15.677	32.192	1588.606	1343.543
-14.663	32.298	1587.272	1343.120
-13.648	32.310	1586.367	1342.387
-12.633	32.329	1583.924	1340.402
-11.619	32.386	1582.836	1339.836
-10.604	32.030	1581.778	1336.354
-9.590	32.343	1578.469	1335.723
-8.575	32.168	1578.732	1334.653
-7.560	32.402	1577.382	1335.121
-6.546	32.223	1576.062	1332.682
-5.531	32.320	1575.316	1332.685
-4.517	32.300	1573.286	1330.770
-3.502	32.157	1573.689	1330.047
-2.487	32.244	1571.642	1328.882
-1.473	32.263	1558.648	1317.975
-0.458	29.120	1539.801	1280.173
0.556	26.761	1540.373	1247.776
1.571	23.990	1563.862	1247.298
2.586	23.468	1575.492	1252.771
3.600	20.976	1521.412	1192.640
4.615	12.244	1414.389	1052.867
5.629	4.598	1351.536	958.979
6.644	3.239	1342.124	943.888
7.659	3.288	1341.163	943.425
8.673	3.321	1339.565	942.422
9.688	3.232	1338.134	940.785
10.702	3.019	1334.576	936.905
11.717	6.606	1342.883	964.622
12.731	15.545	1359.714	1031.766
13.746	22.994	1370.819	1086.049
14.761	24.862	1372.554	1098.808
15.775	24.685	1372.105	1097.268
16.790	24.343	1370.121	1093.487
17.804	24.134	1370.077	1092.076
18.819	24.364	1369.307	1092.773
19.834	24.389	1368.055	1091.829
20.848	24.265	1367.103	1090.214
21.863	24.247	1367.256	1090.134
22.877	24.379	1365.209	1089.211
23.892	24.289	1365.232	1088.578
24.907	24.236	1364.255	1087.384
25.921	24.402	1362.668	1087.029
26.936	24.215	1362.793	1085.897
27.950	24.525	1360.802	1086.098
28.965	24.293	1360.054	1083.994
29.980	24.439	1358.693	1083.702
30.994	24.603	1357.899	1083.968
32.009	24.604	1357.443	1083.517
33.023	24.324	1356.880	1081.272
34.038	24.499	1355.887	1081.444
35.053	24.282	1353.790	1078.366
36.067	24.034	1354.187	1077.081
37.082	24.209	1351.522	1075.925
38.096	24.333	1351.440	1076.516
39.111	24.390	1350.173	1075.752
40.126	24.441	1349.618	1075.524
41.140	24.341	1348.355	1073.818
42.155	24.202	1347.810	1072.455
43.169	23.981	1347.724	1070.961
44.184	23.949	1349.175	1071.823
45.199	24.116	1346.937	1070.957
46.213	23.980	1348.118	1070.982
47.228	24.168	1347.015	1071.144
48.242	24.434	1345.684	1071.589
49.257	24.425	1344.561	1070.544
50.271	24.324	1342.846	1068.481
51.286	24.450	1342.251	1068.667
52.301	24.408	1340.774	1067.143
53.315	23.885	1340.913	1064.034
54.330	24.105	1339.217	1063.908
55.344	24.186	1337.453	1062.891
56.359	24.306	1336.009	1062.366
57.374	23.940	1336.021	1060.103
58.388	23.819	1335.509	1058.881
59.403	24.032	1334.271	1059.075
60.417	23.917	1334.117	1058.173
61.432	23.945	1333.108	1057.446
62.447	23.791	1332.492	1055.945
63.461	23.767	1331.604	1055.008
64.476	23.948	1329.574	1054.378
65.490	23.798	1328.615	1052.636
66.505	23.874	1327.922	1052.447
67.520	23.969	1326.802	1052.023
68.534	23.925	1325.158	1050.371
69.549	23.954	1323.905	1049.455
70.563	23.838	1322.440	1047.515
71.578	23.692	1322.130	1046.321
72.593	23.686	1321.980	1046.073
73.607	23.688	1320.280	1044.647
74.622	23.744	1320.884	1045.363
75.636	23.903	1319.069	1044.767
76.651	23.686	1320.153	1044.257
77.666	23.522	1319.225	1042.467
78.680	23.755	1318.764	1043.378
79.695	24.010	1316.147	1042.708
80.709	23.971	1316.672	1042.807
81.724	23.900	1316.568	1042.213
82.739	24.344	1314.535	1043.112
83.753	24.122	1315.100	1042.170
84.768	24.351	1315.090	1043.406
85.782	24.379	1313.551	1042.257
86.797	24.543	1312.361	1042.179
87.812	24.364	1311.199	1040.121
88.826	24.256	1309.455	1038.013
89.841	24.496	1308.338	1038.435
90.855	24.515	1307.268	1037.605
91.870	24.549	1306.185	1036.847
92.884	24.607	1306.254	1037.146
93.899	24.718	1304.888	1036.613
94.914	24.590	1304.289	1035.308
95.928	24.417	1304.257	1034.185
96.943	24.757	1302.630	1034.775
97.957	24.573	1302.839	1033.782
98.972	24.382	1301.803	1031.764
99.987	24.622	1300.062	1031.680
101.001	24.820	1298.317	1031.347
102.016	24.314	1298.873	1028.774
103.030	24.599	1297.233	1029.030
104.045	24.877	1295.172	1028.901
105.060	24.371	1295.328	1026.022
106.074	24.140	1294.444	1023.903
107.089	23.884	1293.198	1021.358
108.103	23.966	1291.830	1020.658
109.118	23.780	1290.890	1018.756
110.133	23.693	1288.892	1016.597
111.147	24.155	1287.447	1018.004
112.162	23.773	1287.965	1016.140
113.176	24.166	1285.942	1016.697
114.191	24.128	1285.421	1015.980
115.206	23.926	1284.893	1014.321
116.220	23.923	1283.713	1013.282
117.235	23.952	1282.484	1012.386
118.249	23.810	1281.090	1010.390
119.264	23.634	1280.656	1008.960
120.279	23.724	1278.932	1008.023
121.293	23.865	1279.406	1009.109
122.308	24.024	1277.914	1008.740
123.322	23.800	1276.161	1006.003
124.337	23.532	1276.130	1004.371
125.352	23.653	1274.408	1003.607
126.366	23.588	1273.912	1002.763
127.381	23.884	1272.290	1003.066
128.395	23.571	1271.682	1000.736
129.410	23.439	1271.492	999.750
130.424	23.245	1270.446	997.750
131.439	23.660	1268.844	998.735
132.454	23.884	1269.000	1000.031
133.468	23.892	1268.633	999.696
134.483	24.070	1268.838	1000.771
135.497	23.911	1267.933	999.077
136.512	24.077	1266.084	998.463
137.527	24.113	1265.294	997.953
138.541	23.914	1263.881	995.637
139.556	24.270	1261.569	995.716
140.570	24.010	1262.601	994.988
141.585	24.347	1261.384	995.823
142.600	24.609	1259.805	995.952
143.614	24.393	1261.017	995.612
144.629	24.686	1258.972	995.541
145.643	24.381	1258.753	993.586
146.658	24.270	1256.975	991.477
147.673	24.252	1254.634	989.439
148.687	24.222	1254.500	989.082
149.702	24.077	1253.897	987.716
150.716	23.674	1250.771	982.932
151.731	23.564	1249.857	981.520
152.746	23.962	1247.965	982.148
153.760	24.190	1247.524	982.971
154.775	24.207	1248.511	983.755
155.789	24.372	1247.376	983.680
156.804	24.040	1245.921	980.617
157.819	24.290	1244.933	981.128
158.833	24.033	1245.453	980.037
159.848	24.489	1243.765	981.130
160.862	24.192	1243.368	979.100
161.877	24.116	1242.516	977.925
162.892	23.882	1240.874	975.261
163.906	23.462	1239.868	972.083
164.921	23.957	1238.978	974.008
165.935	23.971	1239.358	974.301
166.950	24.424	1238.036	975.650
167.964	24.161	1237.582	973.768
168.979	24.170	1236.815	973.129
169.994	24.279	1235.702	972.764
171.008	23.882	1235.328	970.215
172.023	24.045	1235.224	970.939
173.037	23.957	1234.698	969.958
174.052	24.400	1233.106	971.033
175.067	24.286	1231.284	968.891
176.081	23.949	1230.905	966.676
177.096	23.758	1230.714	965.403
178.110	23.943	1229.803	965.607
179.125	23.816	1228.128	963.522
180.140	24.262	1226.959	964.931
181.154	24.318	1225.671	964.137
182.169	24.158	1225.496	963.046
183.183	24.103	1225.032	962.303
184.198	24.412	1223.431	962.625
185.213	24.447	1222.309	961.847
186.227	24.344	1221.762	960.774
187.242	24.437	1219.994	959.804
188.256	24.372	1220.245	959.566
189.271	24.381	1219.713	959.108
190.286	24.387	1218.163	957.838
191.300	24.250	1216.744	955.901
192.315	24.254	1215.887	955.164
193.329	24.482	1216.292	956.623
194.344	24.103	1215.617	953.977
195.359	23.483	1215.642	950.591
196.373	23.785	1213.565	950.494
197.388	23.764	1212.470	949.441
198.402	23.901	1213.153	950.627
199.417	24.445	1213.552	953.762
200.432	24.583	1212.533	953.614
201.446	24.661	1211.206	952.903
202.461	24.380	1211.790	951.776
203.475	24.553	1211.046	952.030
204.490	24.166	1209.365	948.565
205.504	24.048	1207.440	946.344
206.519	24.005	1207.172	945.823
207.534	23.885	1205.528	943.811
208.548	23.821	1204.603	942.666
209.563	23.953	1204.567	943.255
210.577	23.659	1203.058	940.431
211.592	24.210	1201.260	941.856
212.607	24.484	1202.259	944.006
213.621	24.659	1200.800	943.701
214.636	24.113	1200.789	940.724
215.650	24.183	1199.159	939.734
216.665	24.332	1198.433	939.866
217.680	24.498	1198.228	940.498
218.694	24.446	1197.354	939.453
219.709	24.681	1195.368	939.046
220.723	24.238	1195.720	936.914
221.738	24.623	1194.812	938.141
222.753	24.319	1193.785	935.658
223.767	24.200	1193.074	934.392
224.782	24.268	1193.345	934.878
225.796	24.401	1193.572	935.671
226.811	24.704	1191.558	935.598
227.826	24.482	1191.387	934.215
228.840	24.410	1190.838	933.327
229.855	24.233	1188.891	930.795
230.869	24.165	1189.343	930.713
231.884	23.875	1188.468	928.427
232.899	24.153	1187.278	928.869
233.913	24.027	1185.484	926.725
234.928	23.777	1185.682	925.499
235.942	23.902	1184.628	925.241
236.957	23.859	1184.705	924.999
237.972	23.657	1183.660	923.050
238.986	24.069	1182.464	924.173
240.001	23.907	1183.269	923.878
241.015	23.741	1181.202	921.325
242.030	24.068	1179.026	921.239
243.045	24.094	1180.741	922.631
244.059	24.223	1178.989	921.849
245.074	24.294	1179.122	922.236
246.088	24.318	1178.507	921.797
247.103	24.443	1177.245	921.376
248.117	24.531	1177.327	921.811
249.132	24.482	1177.506	921.618
250.147	25.065	1175.154	922.698
251.161	25.367	1174.960	924.017
252.176	25.324	1174.764	923.562
253.190	25.238	1173.651	922.164
254.205	25.096	1173.434	921.178
255.220	25.047	1173.853	921.177
256.234	25.318	1172.805	921.661
257.249	25.312	1171.790	920.755
258.263	25.008	1170.986	918.484
259.278	25.332	1170.326	919.542
260.293	25.148	1169.769	918.080
261.307	25.533	1169.855	920.038
262.322	25.430	1168.238	918.161
263.336	25.051	1168.401	916.269
264.351	25.135	1167.451	915.873
265.366	25.204	1166.837	915.659
266.380	25.273	1167.013	916.070
267.395	25.214	1165.315	914.357
268.409	25.163	1164.571	913.430
269.424	24.970	1163.316	911.383
270.439	24.837	1164.009	911.170
271.453	24.789	1163.115	910.143
272.468	24.590	1161.657	907.912
273.482	24.958	1160.454	908.761
274.497	24.824	1160.331	907.901
275.512	24.834	1159.224	907.008
276.526	24.611	1159.259	905.824
277.541	24.845	1158.302	906.180
278.555	24.807	1158.296	905.901
279.570	24.910	1158.265	906.319
280.585	25.154	1157.418	906.809
281.599	25.166	1155.678	905.426
282.614	25.080	1154.281	903.819
283.628	25.014	1153.134	902.508
284.643	24.755	1152.926	900.964
285.657	24.518	1151.602	898.654
286.672	24.997	1151.909	901.225
287.687	25.006	1150.226	899.876
288.701	25.259	1148.292	899.550
289.716	25.035	1148.617	898.600
290.730	24.884	1148.527	897.694
291.745	24.874	1146.760	896.185
292.760	24.902	1146.355	895.927
293.774	25.146	1146.150	896.911
294.789	25.518	1145.690	898.329
295.803	25.036	1145.096	895.376
296.818	25.165	1143.737	894.879
297.833	24.943	1144.240	894.084
298.847	25.019	1142.822	893.276
299.862	24.663	1142.690	891.321
300.876	24.948	1140.986	891.330
301.891	25.159	1141.604	892.783
302.906	24.900	1141.368	891.232
303.920	25.272	1139.558	891.586
304.935	25.472	1139.008	892.072
305.949	25.236	1139.379	891.113
306.964	25.442	1138.701	891.525
307.979	25.312	1137.443	889.815
308.993	25.113	1137.250	888.599
310.008	25.417	1136.181	889.190
311.022	25.286	1135.488	887.922
312.037	25.308	1134.683	887.322
313.052	25.037	1134.259	885.574
314.066	24.698	1133.484	883.218
315.081	24.613	1132.047	881.597
316.095	24.804	1131.173	881.780
317.110	24.602	1129.757	879.607
318.125	24.531	1128.766	878.408
319.139	24.761	1128.013	878.873
320.154	25.030	1127.116	879.420
321.168	24.900	1126.370	878.120
322.183	24.615	1127.728	877.701
323.197	24.577	1126.818	876.730
324.212	24.813	1126.417	877.495
325.227	25.006	1124.821	877.122
326.241	25.159	1124.466	877.517
327.256	24.760	1123.907	875.049
328.270	24.790	1121.912	873.566
329.285	24.906	1121.659	873.856
330.300	25.072	1121.618	874.558
331.314	24.778	1121.487	872.945
332.329	24.964	1119.604	872.309
333.343	24.861	1118.069	870.533
334.358	25.074	1118.347	871.709
335.373	25.171	1118.028	871.853
336.387	25.410	1117.167	872.268
337.402	25.301	1116.791	871.367
338.416	25.156	1116.047	870.005
339.431	25.470	1115.245	870.827
340.446	25.956	1114.015	872.140
341.460	25.693	1113.994	870.772
342.475	25.631	1114.227	870.580
343.489	25.792	1113.316	870.569
344.504	25.548	1112.410	868.605
345.519	25.903	1111.006	869.142
346.533	25.911	1110.325	868.575
347.548	26.130	1109.561	868.952
348.562	25.952	1108.913	867.512
349.577	25.655	1107.414	864.836
350.592	25.355	1107.337	863.255
351.606	25.377	1106.275	862.456
352.621	25.106	1104.891	860.000
353.635	25.131	1104.233	859.535
354.650	25.268	1103.504	859.544
355.665	25.097	1103.515	858.658
356.679	25.033	1103.457	858.231
357.694	25.277	1102.390	858.494
358.708	25.260	1101.769	857.853
359.723	25.401	1099.955	857.039
360.738	25.337	1100.867	857.364
361.752	25.141	1099.866	855.574
362.767	25.212	1100.106	856.028
363.781	25.233	1098.796	855.032
364.796	25.507	1098.852	856.304
365.810	25.932	1098.132	857.690
366.825	25.780	1097.784	856.618
367.840	26.159	1097.272	857.947
368.854	25.981	1097.324	857.064
369.869	26.089	1096.033	856.492
370.883	25.597	1095.675	853.801
371.898	25.732	1094.429	853.397
372.913	25.791	1092.606	852.180
373.927	25.736	1093.455	852.503
374.942	26.303	1092.741	854.555
375.956	26.221	1092.064	853.562
376.971	25.822	1091.965	851.522
377.986	25.909	1091.245	851.295
379.000	26.174	1091.371	852.573
380.015	26.206	1090.526	851.987
381.029	26.334	1088.791	851.161
382.044	26.137	1089.119	850.409
383.059	25.897	1088.927	849.058
384.073	25.961	1088.379	848.854
385.088	26.075	1086.975	848.220
386.102	26.142	1085.783	847.531
387.117	25.539	1085.407	844.330
388.132	25.693	1083.424	843.433
389.146	25.695	1083.214	843.208
390.161	25.460	1082.409	841.404
391.175	25.731	1080.948	841.464
392.190	25.349	1081.055	839.683
393.205	26.028	1080.377	842.257
394.219	26.224	1079.715	842.582
395.234	25.778	1078.793	839.704
396.248	25.765	1076.920	838.113
397.263	25.730	1075.665	836.901
398.278	25.623	1075.262	836.014
399.292	25.853	1074.922	836.745
400.307	25.880	1074.723	836.639
401.321	25.560	1074.308	834.760
402.336	25.358	1072.961	832.703
403.350	25.372	1072.530	832.357
404.365	25.401	1072.545	832.430
405.380	25.416	1072.790	832.617
406.394	25.650	1071.907	832.941
407.409	25.947	1069.368	832.265
408.423	26.259	1069.019	833.362
409.438	26.058	1069.997	833.123
410.453	26.085	1068.628	832.106
411.467	26.357	1067.683	832.548
412.482	26.212	1067.134	831.379
413.496	26.077	1066.080	829.866
414.511	26.513	1065.917	831.670
415.526	26.382	1065.596	830.744
416.540	26.615	1065.332	831.535
417.555	26.523	1064.113	830.084
418.569	26.358	1063.793	829.007
419.584	26.355	1063.516	828.704
420.599	26.092	1063.076	827.084
421.613	153.807	1404.033	1793.688
422.628	141.449	1453.649	1793.684
