DTS Sentinel unit serial number:	SN413079Multiplexer serial number:	ORYXHardware model number:	OX4-SRSoftware version number:	ORYX F/W v4.00 Oryx Data Collector v3.7.2.0data status	okinstallation	princeton_trtdifferential loss correction	single-endedforward channel	channel 2reverse channel	N/Adate	2019/09/18time	13:23:35forward acquisition time	60.00reverse acquisition time	0.00gamma	496.2192k internal	0.2319k external	0.2319temperature offset calibration	1.0000default loss term (dB/km)	0.3790temperature slope calibration	1.0000multiplexer offset coefficient	1.0000multiplexer slope coefficient	1.0000fibre end	0.00T internal ref (°C)	34.12T ext. ref 1 (°C)	0.60T ext. ref 2 (°C)	29.27length (m)	temperature (°C)	Stokes	anti-Stokes-747.200	92.646	-0.332	-0.379
-746.185	-200.000	0.101	0.490
-745.171	8.973	0.080	-0.061
-744.156	12.162	-0.098	-0.076
-743.142	-9.382	-0.126	-0.085
-742.127	-73.940	-0.194	-0.071
-741.112	35.683	0.152	0.135
-740.098	-75.551	0.412	0.148
-739.083	679.235	0.091	0.239
-738.069	280.257	-0.085	0.153
-737.054	800.000	-0.046	-0.171
-736.039	2.304	-0.285	-0.209
-735.025	572.276	0.124	0.306
-734.010	-71.940	0.390	0.147
-732.996	401.844	-0.191	-0.406
-731.981	48.633	-0.220	-0.208
-730.966	-153.634	-0.190	0.013
-729.952	-165.252	-0.154	0.007
-728.937	23.255	-0.025	-0.021
-727.923	73.827	0.199	-0.211
-726.908	-128.633	0.133	0.019
-725.894	-155.622	0.135	0.009
-724.879	-56.262	0.133	0.060
-723.864	-150.346	0.078	0.006
-722.850	-68.400	-0.204	0.080
-721.835	-45.545	-0.347	-0.174
-720.821	21.951	0.154	-0.127
-719.806	129.494	-0.137	0.177
-718.791	472.697	0.119	0.272
-717.777	800.000	-0.158	-0.570
-716.762	-99.666	-0.104	-0.026
-715.748	617.538	-0.071	-0.181
-714.733	-116.277	0.197	0.037
-713.718	556.005	0.120	-0.292
-712.704	800.000	-0.065	-0.208
-711.689	800.000	0.040	-0.149
-710.675	-187.624	-0.268	0.004
-709.660	800.000	0.123	0.474
-708.645	-124.357	-0.232	-0.037
-707.631	339.524	0.190	0.375
-706.616	-129.876	-0.114	-0.016
-705.602	-94.122	0.253	0.070
-704.587	-200.000	0.007	-0.068
-703.572	-120.867	0.354	-0.060
-702.558	-128.540	0.073	-0.011
-701.543	47.718	0.120	-0.113
-700.529	-200.000	-0.023	-0.289
-699.514	-152.701	-0.112	0.008
-698.499	-200.000	0.012	0.093
-697.485	70.013	-0.149	0.155
-696.470	-151.409	0.184	0.014
-695.456	-200.000	-0.004	-0.118
-694.441	181.553	0.252	0.375
-693.426	54.591	0.259	-0.252
-692.412	-2.228	0.279	0.198
-691.397	-70.724	0.091	0.035
-690.383	393.320	0.024	-0.051
-689.368	-137.774	-0.297	-0.034
-688.354	410.057	-0.080	-0.171
-687.339	-36.607	0.147	0.080
-686.324	800.000	-0.090	-0.329
-685.310	103.702	-0.023	0.028
-684.295	103.297	-0.182	0.215
-683.281	672.224	-0.036	-0.094
-682.266	-200.000	0.028	-0.170
-681.251	-200.000	-0.054	-0.297
-680.237	320.094	0.083	0.159
-679.222	-70.564	-0.140	0.054
-678.208	275.060	-0.304	-0.544
-677.193	566.896	-0.051	0.126
-676.178	-188.739	0.182	0.002
-675.164	-200.000	-0.023	-0.276
-674.149	-200.000	-0.001	-0.083
-673.135	-56.304	0.210	0.094
-672.120	-36.440	-0.152	0.083
-671.105	-61.756	-0.074	0.031
-670.091	800.000	-0.035	-0.136
-669.076	-58.082	0.260	-0.114
-668.062	-200.000	-0.055	0.277
-667.047	220.648	-0.086	-0.139
-666.032	733.024	-0.009	-0.024
-665.018	-94.438	0.364	0.100
-664.003	-200.000	-0.015	0.208
-662.989	-33.654	-0.155	-0.086
-661.974	-200.000	0.005	-0.309
-660.959	12.855	0.125	-0.097
-659.945	245.315	0.142	0.240
-658.930	60.142	0.159	-0.159
-657.916	-125.079	-0.197	0.030
-656.901	-92.484	-0.107	-0.030
-655.886	-36.761	-0.222	0.120
-654.872	-124.025	-0.164	0.026
-653.857	463.682	-0.113	-0.256
-652.843	-66.358	0.200	-0.080
-651.828	-69.869	-0.107	-0.041
-650.814	17.875	0.176	-0.141
-649.799	13.792	-0.080	-0.063
-648.784	-29.815	0.189	0.108
-647.770	104.644	-0.169	-0.201
-646.755	33.352	0.164	-0.143
-645.741	158.343	0.136	-0.190
-644.726	-145.587	0.296	-0.027
-643.711	-99.748	-0.149	-0.038
-642.697	35.333	-0.020	-0.018
-641.682	-200.000	-0.009	0.107
-640.668	-174.570	-0.372	0.011
-639.653	800.000	-0.067	0.221
-638.638	-200.000	0.054	-0.561
-637.624	-200.000	-0.045	-0.241
-636.609	-168.342	0.165	0.006
-635.595	103.769	0.175	-0.207
-634.580	422.459	0.179	0.388
-633.565	272.480	0.140	0.249
-632.551	-200.000	-0.030	-0.280
-631.536	-200.000	0.049	-0.266
-630.522	-144.296	-0.123	-0.012
-629.507	-80.537	-0.217	0.073
-628.492	-31.427	0.179	-0.101
-627.478	-200.000	0.008	-0.090
-626.463	-200.000	0.112	-0.531
-625.449	-80.853	-0.119	-0.040
-624.434	-102.482	-0.429	0.103
-623.419	129.317	-0.088	-0.114
-622.405	800.000	-0.013	-0.043
-621.390	346.299	0.144	0.286
-620.376	11.572	0.274	-0.212
-619.361	-129.571	0.373	0.052
-618.346	-66.094	-0.198	-0.080
-617.332	-200.000	0.074	-0.335
-616.317	585.866	-0.090	-0.223
-615.303	136.544	0.139	0.183
-614.288	800.000	-0.074	-0.265
-613.273	800.000	-0.056	0.177
-612.259	800.000	0.103	0.415
-611.244	-162.954	0.314	0.015
-610.230	-119.641	-0.213	-0.037
-609.215	59.470	-0.244	0.242
-608.201	-180.950	-0.109	-0.002
-607.186	-199.870	0.329	0.002
-606.171	-200.000	-0.018	0.090
-605.157	17.111	-0.032	0.025
-604.142	-79.296	-0.303	0.103
-603.128	800.000	-0.109	-0.339
-602.113	-200.000	0.017	-0.219
-601.098	13.653	-0.136	-0.106
-600.084	208.293	-0.207	-0.326
-599.069	-89.502	-0.072	0.021
-598.055	-154.827	-0.252	-0.017
-597.040	268.751	0.072	-0.127
-596.025	-80.373	0.230	0.077
-595.011	-112.437	-0.221	0.044
-593.996	-200.000	0.015	0.249
-592.982	-137.766	0.268	-0.030
-591.967	177.121	-0.116	0.170
-590.952	-17.011	0.084	0.053
-589.938	-38.054	0.374	-0.200
-588.923	-122.269	0.062	-0.010
-587.909	-200.000	0.036	-0.552
-586.894	727.234	-0.190	-0.510
-585.879	69.656	-0.252	0.261
-584.865	-97.087	-0.055	0.015
-583.850	-12.814	0.096	-0.063
-582.836	111.849	0.239	-0.291
-581.821	90.610	-0.122	0.137
-580.806	-131.377	-0.054	0.007
-579.792	-7.708	-0.325	-0.221
-578.777	-200.000	0.046	-0.473
-577.763	70.449	-0.254	-0.264
-576.748	-154.367	0.140	-0.009
-575.733	-149.341	0.514	0.041
-574.719	-200.000	0.013	0.164
-573.704	26.389	-0.115	-0.097
-572.690	48.084	-0.192	0.180
-571.675	-47.377	-0.035	-0.017
-570.661	35.905	0.094	0.083
-569.646	-200.000	0.052	-0.388
-568.631	114.124	-0.305	0.373
-567.617	-82.484	0.219	0.071
-566.602	-72.160	0.427	-0.159
-565.588	-5.186	0.206	0.142
-564.573	51.728	-0.250	-0.239
-563.558	41.067	-0.106	-0.096
-562.544	308.064	0.046	0.087
-561.529	-118.434	-0.471	0.084
-560.515	-68.375	0.079	-0.031
-559.500	43.297	-0.178	-0.163
-558.485	76.417	-0.278	-0.296
-557.471	-200.000	0.020	-0.296
-556.456	11.387	0.209	-0.161
-555.442	127.694	0.071	0.091
-554.427	-85.444	0.252	0.079
-553.412	-22.144	0.165	0.100
-552.398	-84.308	0.170	0.054
-551.383	79.808	0.156	-0.168
-550.369	-42.359	-0.145	-0.074
-549.354	-107.797	0.151	0.033
-548.339	-114.133	0.085	0.017
-547.325	-80.972	-0.323	0.107
-546.310	-45.547	-0.156	0.077
-545.296	-200.000	0.008	-0.061
-544.281	800.000	-0.043	-0.186
-543.266	800.000	-0.029	-0.122
-542.252	-187.871	0.180	-0.002
-541.237	-200.000	-0.034	0.383
-540.223	15.413	0.112	0.088
-539.208	800.000	0.076	0.330
-538.193	-141.870	-0.459	-0.046
-537.179	-78.249	0.123	0.042
-536.164	-200.000	-0.002	-0.166
-535.150	-200.000	-0.047	-0.233
-534.135	-69.756	0.216	-0.083
-533.121	-100.123	-0.275	0.069
-532.106	40.054	0.096	0.086
-531.091	-41.068	-0.124	0.064
-530.077	-102.553	-0.147	0.035
-529.062	390.580	-0.108	0.225
-528.048	436.503	0.072	0.158
-527.033	128.458	0.214	-0.274
-526.018	37.679	0.060	0.054
-525.004	-200.000	0.035	0.366
-523.989	641.659	-0.071	-0.182
-522.975	800.000	-0.168	-0.577
-521.960	-200.000	0.029	-0.180
-520.945	-200.000	-0.009	0.060
-519.931	-99.663	0.477	-0.120
-518.916	-200.000	0.014	0.488
-517.902	384.028	0.027	0.056
-516.887	-61.830	0.180	-0.076
-515.872	800.000	-0.048	-0.188
-514.858	-124.216	0.330	0.052
-513.843	286.605	0.121	-0.219
-512.829	370.283	-0.043	-0.087
-511.814	-69.796	-0.245	0.094
-510.799	-83.768	-0.201	-0.064
-509.785	-96.431	0.166	0.044
-508.770	800.000	0.010	-0.042
-507.756	-93.416	-0.094	0.026
-506.741	-52.324	-0.273	0.127
-505.726	728.765	-0.085	0.228
-504.712	484.189	-0.121	-0.276
-503.697	-88.886	0.241	0.072
-502.683	-200.000	0.001	-0.100
-501.668	37.088	0.073	-0.065
-500.653	69.939	-0.180	-0.186
-499.639	52.912	0.193	-0.185
-498.624	358.748	0.041	-0.082
-497.610	800.000	-0.025	0.085
-496.595	-149.869	0.142	0.011
-495.581	-200.000	-0.017	0.180
-494.566	-185.125	-0.305	0.005
-493.551	-145.879	0.033	-0.003
-492.537	-200.000	-0.010	-0.186
-491.522	116.300	0.332	-0.407
-490.508	85.408	-0.063	0.069
-489.493	-77.111	-0.353	0.123
-488.478	289.122	-0.065	0.118
-487.464	800.000	0.016	0.070
-486.449	-23.494	-0.090	0.054
-485.435	-52.857	-0.315	0.145
-484.420	299.229	0.045	-0.083
-483.405	-31.493	-0.209	0.117
-482.391	-16.944	0.098	-0.062
-481.376	-39.416	-0.222	0.117
-480.362	91.769	0.135	0.152
-479.347	294.917	0.140	0.257
-478.332	-54.073	0.040	0.018
-477.318	-69.918	-0.205	0.078
-476.303	522.073	0.065	0.152
-475.289	-200.000	0.045	-0.495
-474.274	-13.083	-0.157	-0.102
-473.259	-8.589	0.213	-0.143
-472.245	81.840	-0.095	-0.103
-471.230	-106.647	-0.263	0.059
-470.216	-49.623	-0.347	0.165
-469.201	-200.000	-0.040	0.269
-468.186	-200.000	0.041	0.232
-467.172	-32.898	-0.210	-0.117
-466.157	254.862	0.173	-0.296
-465.143	-23.810	-0.357	-0.214
-464.128	-87.702	-0.085	-0.026
-463.113	-71.530	-0.056	-0.021
-462.099	-151.216	0.119	-0.009
-461.084	-48.895	0.278	0.133
-460.070	180.422	0.138	0.202
-459.055	-146.882	-0.305	0.026
-458.040	-45.746	-0.062	0.031
-457.026	129.763	-0.055	0.070
-456.011	-22.628	0.211	-0.127
-454.997	46.337	-0.086	0.080
-453.982	27.585	0.178	-0.149
-452.968	800.000	-0.018	0.069
-451.953	-200.000	0.004	-0.131
-450.938	-191.526	-0.278	-0.003
-449.924	194.392	0.129	-0.196
-448.909	-89.628	0.108	0.032
-447.895	-66.797	-0.359	-0.142
-446.880	-38.298	-0.237	0.126
-445.865	-200.000	-0.009	0.216
-444.851	800.000	0.068	-0.202
-443.836	-200.000	-0.019	0.175
-442.822	26.386	0.340	0.285
-441.807	589.613	0.010	-0.026
-440.792	-45.385	-0.143	0.071
-439.778	17.307	0.117	-0.093
-438.763	106.161	-0.106	-0.126
-437.749	-200.000	-0.031	0.260
-436.734	-5.840	-0.070	0.048
-435.719	371.637	0.183	-0.372
-434.705	-120.800	0.094	0.016
-433.690	800.000	-0.076	-0.216
-432.676	-200.000	0.014	0.229
-431.661	-18.643	0.132	0.082
-430.646	91.067	-0.174	-0.196
-429.632	-14.510	0.199	-0.128
-428.617	20.271	-0.340	-0.275
-427.603	-120.498	0.270	0.046
-426.588	-8.667	0.410	-0.275
-425.573	-38.417	0.060	0.032
-424.559	-57.518	-0.120	-0.053
-423.544	493.758	0.116	0.266
-422.530	9.320	-0.275	0.207
-421.515	-0.413	-0.030	0.021
-420.500	-74.904	0.214	-0.077
-419.486	-155.444	0.150	0.010
-418.471	-22.495	0.328	-0.198
-417.457	-2.958	-0.099	-0.069
-416.442	800.000	-0.008	0.023
-415.428	-131.966	-0.153	-0.020
-414.413	-60.223	0.198	0.084
-413.398	-65.711	-0.119	-0.048
-412.384	224.409	0.141	0.228
-411.369	95.823	-0.194	0.221
-410.355	-175.045	-0.054	0.002
-409.340	88.305	-0.187	0.208
-408.325	-92.662	-0.175	-0.049
-407.311	155.583	-0.090	0.124
-406.296	800.000	-0.064	0.232
-405.282	-200.000	0.019	0.213
-404.267	-24.199	0.301	-0.180
-403.252	13.727	-0.124	-0.096
-402.238	33.463	-0.226	-0.196
-401.223	-14.303	0.191	0.123
-400.209	-200.000	0.016	0.084
-399.194	275.535	0.072	0.127
-398.179	-89.870	-0.171	0.050
-397.165	97.842	0.240	-0.276
-396.150	-192.255	0.373	-0.004
-395.136	-35.221	-0.173	-0.094
-394.121	274.092	0.079	0.140
-393.106	800.000	0.069	-0.222
-392.092	-200.000	0.007	0.118
-391.077	-5.014	0.187	-0.129
-390.063	-200.000	-0.002	-0.198
-389.048	46.269	0.271	-0.250
-388.033	-180.552	-0.146	0.003
-387.019	165.634	-0.110	0.156
-386.004	-28.332	-0.124	-0.072
-384.990	-135.018	0.300	0.036
-383.975	40.309	-0.112	0.100
-382.960	115.833	0.219	0.268
-381.946	-92.601	-0.308	-0.086
-380.931	-34.639	0.209	0.114
-379.917	20.879	0.222	-0.180
-378.902	-98.471	0.219	-0.056
-377.888	-91.461	-0.275	0.078
-376.873	180.790	0.111	0.163
-375.858	719.256	-0.100	0.265
-374.844	0.617	-0.049	-0.035
-373.829	-40.955	0.327	0.169
-372.815	-71.345	0.359	0.134
-371.800	-32.909	-0.238	-0.132
-370.785	54.232	0.059	0.056
-369.771	-45.343	0.145	0.072
-368.756	497.852	-0.098	0.225
-367.742	-200.000	0.066	0.338
-366.727	-51.796	-0.122	0.056
-365.712	-92.360	0.208	0.058
-364.698	-200.000	0.012	-0.127
-363.683	201.326	0.097	-0.149
-362.669	-16.954	0.079	0.049
-361.654	118.317	0.107	-0.131
-360.639	67.609	0.279	0.284
-359.625	148.531	-0.127	-0.171
-358.610	131.919	0.145	0.186
-357.596	-31.933	0.085	0.048
-356.581	78.210	0.133	0.141
-355.566	406.507	-0.050	-0.106
-354.552	-15.666	-0.202	-0.128
-353.537	190.162	0.050	0.074
-352.523	431.948	0.061	0.132
-351.508	239.666	-0.082	0.137
-350.493	-131.019	-0.107	-0.014
-349.479	240.275	-0.320	-0.532
-348.464	-121.197	0.217	0.036
-347.450	-64.790	0.244	0.099
-346.435	133.589	0.123	0.158
-345.420	4.074	0.098	0.072
-344.406	141.677	-0.089	-0.118
-343.391	439.988	0.083	0.181
-342.377	800.000	0.035	0.112
-341.362	-94.883	-0.309	0.083
-340.348	-200.000	0.007	0.196
-339.333	36.694	-0.157	0.138
-338.318	-200.000	0.046	0.343
-337.304	128.761	0.210	-0.266
-336.289	116.529	-0.115	-0.141
-335.275	606.598	0.128	0.318
-334.260	492.106	-0.077	-0.176
-333.245	69.789	-0.280	0.287
-332.231	-94.303	0.195	-0.053
-331.216	-200.000	0.061	0.358
-330.202	45.434	0.333	0.306
-329.187	-163.784	0.088	-0.004
-328.172	-95.867	-0.222	0.059
-327.158	28.102	-0.214	0.180
-326.143	49.897	0.189	-0.178
-325.129	428.389	0.144	-0.310
-324.114	32.847	-0.184	0.159
-323.099	800.000	0.066	0.260
-322.085	-200.000	-0.042	0.286
-321.070	-52.102	0.120	0.055
-320.056	-71.963	-0.237	0.088
-319.041	100.444	-0.194	0.224
-318.026	-200.000	-0.019	0.189
-317.012	-105.946	0.020	0.004
-315.997	-132.842	0.233	0.030
-314.983	800.000	0.032	-0.125
-313.968	132.193	0.144	-0.185
-312.953	-200.000	0.016	-0.373
-311.939	284.299	-0.062	-0.111
-310.924	-113.580	-0.296	0.058
-309.910	14.715	-0.383	-0.298
-308.895	-200.000	-0.037	-0.261
-307.880	-115.889	0.340	0.063
-306.866	-181.441	-0.044	-0.001
-305.851	185.328	-0.152	0.225
-304.837	148.928	0.038	0.051
-303.822	800.000	0.043	-0.176
-302.807	464.698	0.133	-0.295
-301.793	52.443	0.126	-0.120
-300.778	11.484	0.085	0.064
-299.764	635.124	-0.076	-0.191
-298.749	-1.299	0.296	-0.208
-297.735	-58.144	-0.060	0.026
-296.720	-12.481	0.028	0.018
-295.705	-147.621	-0.162	0.014
-294.691	-154.628	-0.072	0.005
-293.676	211.158	-0.291	-0.455
-292.662	255.879	-0.131	-0.223
-291.647	11.404	-0.090	-0.068
-290.632	-60.169	-0.179	-0.076
-289.618	593.802	-0.140	0.344
-288.603	-173.395	0.112	-0.003
-287.589	222.125	0.067	0.107
-286.574	-87.805	-0.072	0.022
-285.559	-13.692	-0.106	0.068
-284.545	385.938	0.101	-0.206
-283.530	-57.534	-0.195	-0.085
-282.516	800.000	-0.133	0.380
-281.501	-189.729	-0.246	-0.003
-280.486	-200.000	0.061	-0.441
-279.472	-200.000	0.014	0.157
-278.457	-200.000	-0.069	0.312
-277.443	-104.977	-0.273	0.062
-276.428	-82.525	-0.071	0.023
-275.413	-75.964	0.146	-0.051
-274.399	-76.816	0.117	0.041
-273.384	-91.825	0.104	0.029
-272.370	-32.071	-0.278	0.154
-271.355	53.171	0.292	0.278
-270.340	116.151	0.128	0.156
-269.326	800.000	-0.045	0.149
-268.311	177.132	-0.174	0.251
-267.297	-200.000	-0.011	0.115
-266.282	583.182	-0.081	0.197
-265.267	-58.832	0.267	-0.115
-264.253	-200.000	-0.009	-0.093
-263.238	-200.000	-0.030	-0.310
-262.224	701.104	-0.058	0.153
-261.209	18.348	0.091	0.072
-260.195	710.163	-0.072	-0.190
-259.180	15.545	-0.300	0.234
-258.165	-146.714	0.121	-0.010
-257.151	146.978	-0.062	-0.082
-256.136	242.864	0.071	0.118
-255.122	-0.020	0.204	0.144
-254.107	-189.540	-0.320	-0.004
-253.092	-93.818	-0.227	-0.062
-252.078	-200.000	0.124	-0.000
-251.063	-200.000	-0.014	0.098
-250.049	-200.000	0.024	-0.196
-249.034	-200.000	0.084	0.401
-248.019	800.000	0.058	0.206
-247.005	-50.064	0.221	0.104
-245.990	800.000	0.047	-0.157
-244.976	-200.000	-0.084	-0.379
-243.961	-95.275	0.189	0.050
-242.946	-104.946	-0.194	-0.044
-241.932	-132.436	0.208	0.027
-240.917	-200.000	0.026	-0.210
-239.903	412.086	0.115	0.242
-238.888	-200.000	0.005	-0.049
-237.873	204.470	0.073	0.113
-236.859	-200.000	0.002	0.095
-235.844	-48.293	-0.146	-0.070
-234.830	304.769	-0.022	0.041
-233.815	800.000	-0.007	-0.022
-232.800	-58.562	0.106	0.046
-231.786	283.097	-0.035	-0.062
-230.771	-35.897	-0.208	-0.112
-229.757	-177.417	0.153	0.004
-228.742	-14.201	0.130	0.083
-227.727	-200.000	0.073	0.496
-226.713	-75.217	0.339	0.120
-225.698	366.265	-0.091	0.183
-224.684	398.206	0.044	0.091
-223.669	-78.450	0.124	-0.042
-222.655	-151.596	-0.110	0.008
-221.640	-128.266	-0.283	-0.040
-220.625	-0.058	-0.101	-0.071
-219.611	-140.415	-0.329	-0.034
-218.596	-40.027	-0.193	-0.100
-217.582	-200.000	0.034	-0.213
-216.567	-200.000	-0.007	-0.243
-215.552	304.160	0.091	0.167
-214.538	205.122	-0.154	-0.237
-213.523	-200.000	0.027	-0.198
-212.509	-82.694	0.250	0.080
-211.494	-163.150	-0.231	0.011
-210.479	65.991	-0.058	-0.058
-209.465	-67.871	0.065	-0.025
-208.450	-200.000	-0.063	0.298
-207.436	-93.630	0.226	-0.062
-206.421	218.816	0.010	-0.016
-205.406	48.461	0.170	-0.158
-204.392	384.565	-0.124	0.253
-203.377	754.237	-0.098	0.264
-202.363	79.609	0.065	-0.069
-201.348	-200.000	0.020	-0.270
-200.333	-113.943	0.118	-0.023
-199.319	-200.000	-0.035	0.462
-198.304	733.249	0.038	0.102
-197.290	32.330	0.047	0.040
-196.275	83.786	-0.155	-0.167
-195.260	-49.429	0.289	0.136
-194.246	28.060	0.042	-0.035
-193.231	14.791	-0.164	0.127
-192.217	-57.311	0.135	0.059
-191.202	7.847	0.059	-0.044
-190.187	-178.198	0.107	-0.003
-189.173	-200.000	0.005	-0.197
-188.158	-31.637	-0.252	-0.140
-187.144	-98.057	-0.074	-0.019
-186.129	45.835	-0.142	0.130
-185.114	20.531	0.214	0.171
-184.100	-164.827	0.014	0.001
-183.085	594.994	0.024	-0.059
-182.071	-40.896	-0.169	0.087
-181.056	-146.277	-0.359	0.031
-180.042	-153.310	-0.183	-0.013
-179.027	162.986	-0.027	0.038
-178.012	-63.770	0.163	0.066
-176.998	67.777	0.200	0.203
-175.983	-53.849	0.146	0.066
-174.969	-92.630	0.277	-0.077
-173.954	-11.832	-0.221	0.144
-172.939	-68.921	-0.160	-0.061
-171.925	0.034	0.144	0.101
-170.910	-160.904	-0.153	-0.008
-169.896	34.049	0.212	-0.183
-168.881	-185.223	0.124	-0.002
-167.866	139.716	0.044	-0.057
-166.852	-124.785	-0.180	-0.028
-165.837	-200.000	-0.007	-0.072
-164.823	800.000	-0.045	-0.191
-163.808	29.300	0.268	0.225
-162.793	-177.966	0.253	0.006
-161.779	-94.783	-0.399	-0.107
-160.764	101.398	-0.145	-0.167
-159.750	-97.243	-0.387	0.100
-158.735	191.788	0.180	0.268
-157.720	-36.917	-0.223	-0.118
-156.706	800.000	-0.043	0.167
-155.691	27.637	0.265	0.221
-154.677	-70.615	0.276	-0.103
-153.662	-2.593	0.252	-0.174
-152.647	163.516	-0.106	0.147
-151.633	-44.444	-0.149	0.074
-150.618	28.912	0.084	-0.070
-149.604	-200.000	0.028	-0.331
-148.589	-101.958	-0.317	-0.076
-147.574	-137.211	-0.196	-0.022
-146.560	159.517	-0.066	-0.090
-145.545	-89.022	0.180	0.053
-144.531	67.743	-0.160	0.162
-143.516	512.801	-0.022	-0.051
-142.502	-43.154	0.086	0.043
-141.487	576.273	-0.029	-0.070
-140.472	-58.126	-0.218	0.094
-139.458	-17.390	0.200	-0.125
-138.443	284.558	-0.200	0.355
-137.429	-138.898	-0.111	0.012
-136.414	-70.820	0.230	0.086
-135.399	-77.909	0.061	0.021
-134.385	800.000	-0.034	0.099
-133.370	22.951	-0.182	-0.147
-132.356	-22.977	0.279	0.166
-131.341	800.000	-0.073	-0.206
-130.326	470.344	0.084	-0.186
-129.312	43.267	0.168	0.152
-128.297	-14.282	-0.313	0.199
-127.283	78.475	0.204	0.215
-126.268	14.894	-0.133	0.103
-125.253	800.000	0.041	-0.162
-124.239	294.014	0.022	-0.040
-123.224	206.186	0.093	0.143
-122.210	-141.089	0.228	0.023
-121.195	333.366	0.046	0.088
-120.180	258.868	-0.137	0.234
-119.166	-109.492	0.282	0.059
-118.151	-121.473	0.370	0.061
-117.137	137.451	-0.160	0.206
-116.122	-200.000	0.028	0.351
-115.107	-161.187	0.231	0.012
-114.093	-200.000	0.019	-0.213
-113.078	800.000	-0.079	-0.238
-112.064	-111.734	0.280	-0.056
-111.049	-108.912	0.261	0.055
-110.034	188.881	0.255	-0.376
-109.020	-55.713	-0.229	-0.101
-108.005	-200.000	-0.024	-0.487
-106.991	-38.672	-0.162	-0.085
-105.976	-185.032	0.548	0.008
-104.962	108.204	-0.057	0.067
-103.947	392.388	-0.154	-0.315
-102.932	-186.297	0.154	-0.002
-101.918	-123.995	-0.438	-0.068
-100.903	443.735	0.124	-0.268
-99.889	-29.307	0.153	-0.086
-98.874	-120.549	-0.417	0.070
-97.859	-73.007	-0.202	0.073
-96.845	34.682	0.125	0.108
-95.830	246.521	-0.061	0.102
-94.816	800.000	-0.053	0.156
-93.801	32.042	0.087	-0.074
-92.786	800.000	-0.046	0.195
-91.772	55.970	-0.069	0.066
-90.757	-200.000	-0.008	0.138
-89.743	-105.392	-0.085	0.019
-88.728	14.950	-0.207	0.160
-87.713	60.498	0.148	0.145
-86.699	-93.294	-0.400	0.109
-85.684	87.927	-0.138	-0.151
-84.670	40.181	0.321	0.284
-83.655	-99.324	0.100	-0.025
-82.640	-194.755	0.253	0.002
-81.626	-200.000	-0.042	0.194
-80.611	180.826	0.161	0.233
-79.597	-200.000	-0.010	-0.231
-78.582	-24.837	0.060	-0.035
-77.567	-156.622	0.361	-0.022
-76.553	92.937	0.267	0.297
-75.538	-200.000	0.008	-0.069
-74.524	796.028	0.073	-0.199
-73.509	-61.229	0.150	0.062
-72.494	127.841	0.145	-0.181
-71.480	-200.000	0.079	-0.360
-70.465	-13.424	-0.330	-0.211
-69.451	800.000	0.072	0.283
-68.436	-200.000	0.012	-0.079
-67.422	141.068	-0.168	-0.219
-66.407	-162.999	0.398	-0.019
-65.392	-200.000	0.427	0.002
-64.378	-146.953	-0.091	-0.008
-63.363	-200.000	0.007	0.099
-62.349	43.462	-0.310	-0.279
-61.334	45.549	-0.701	-0.638
-60.319	102.482	0.405	0.466
-59.305	-200.000	-0.141	-1.066
-58.290	131.352	0.666	0.843
-57.276	800.000	0.469	1.395
-56.261	-200.000	95.408	541.565
-55.246	492.062	1429.289	3224.781
-54.232	144.172	2660.209	3495.474
-53.217	103.156	2354.165	2717.214
-52.203	43.182	1960.157	1761.911
-51.188	37.267	1745.064	1522.317
-50.173	34.549	1700.750	1462.798
-49.159	50.298	1747.571	1625.788
-48.144	52.828	1764.529	1661.164
-47.130	36.979	1722.377	1500.063
-46.115	34.087	1707.293	1464.640
-45.100	33.953	1702.893	1459.782
-44.086	33.943	1699.468	1456.707
-43.071	33.974	1696.635	1454.460
-42.057	33.962	1694.266	1452.280
-41.042	34.008	1692.081	1450.701
-40.027	33.968	1690.449	1448.934
-39.013	33.984	1688.136	1447.020
-37.998	33.901	1686.589	1445.002
-36.984	34.020	1685.354	1444.791
-35.969	34.146	1683.403	1444.018
-34.954	34.133	1681.792	1442.479
-33.940	34.212	1680.148	1441.612
-32.925	34.159	1678.296	1439.567
-31.911	34.095	1676.254	1437.272
-30.896	34.094	1674.626	1435.813
-29.881	34.110	1673.050	1434.526
-28.867	34.154	1670.957	1433.007
-27.852	34.139	1669.527	1431.609
-26.838	34.067	1668.468	1430.100
-25.823	34.057	1667.131	1428.829
-24.809	34.216	1665.050	1428.177
-23.794	34.071	1664.364	1426.446
-22.779	34.161	1662.614	1425.564
-21.765	34.183	1660.441	1423.811
-20.750	34.123	1659.113	1422.167
-19.736	34.132	1658.104	1421.308
-18.721	34.216	1655.998	1420.079
-17.706	34.183	1654.695	1418.652
-16.692	34.129	1652.753	1416.531
-15.677	34.150	1651.569	1415.619
-14.663	34.113	1650.769	1414.601
-13.648	34.174	1648.723	1413.243
-12.633	34.253	1646.832	1412.153
-11.619	34.187	1645.407	1410.383
-10.604	34.140	1643.791	1408.595
-9.590	34.111	1642.947	1407.604
-8.575	34.221	1641.311	1406.955
-7.560	34.136	1640.504	1405.584
-6.546	34.128	1639.363	1404.491
-5.531	34.213	1637.976	1403.872
-4.517	34.153	1636.708	1402.287
-3.502	34.152	1635.662	1401.332
-2.487	34.201	1633.759	1400.005
-1.473	34.001	1622.020	1388.433
-0.458	31.191	1601.349	1350.385
0.556	25.601	1600.328	1310.979
1.571	22.592	1623.552	1307.596
2.586	21.498	1635.633	1309.028
3.600	19.170	1582.269	1249.344
4.615	10.826	1467.847	1102.507
5.629	2.524	1399.005	996.846
6.644	0.743	1390.105	978.888
7.659	0.612	1389.154	977.288
8.673	0.557	1387.655	975.792
9.688	0.488	1386.133	974.186
10.702	0.289	1383.269	970.808
11.717	4.039	1389.215	999.126
12.731	12.625	1402.639	1064.428
13.746	17.443	1408.844	1100.265
14.761	17.394	1407.312	1098.658
15.775	16.533	1405.319	1091.449
16.790	15.628	1402.491	1083.326
17.804	14.798	1400.495	1076.341
18.819	14.371	1398.995	1072.346
19.834	14.097	1397.546	1069.379
20.848	13.784	1396.420	1066.410
21.863	13.567	1394.942	1063.797
22.877	13.335	1393.705	1061.271
23.892	13.515	1392.415	1061.347
24.907	13.367	1392.149	1060.104
25.921	13.294	1391.008	1058.668
26.936	13.439	1389.848	1058.624
27.950	13.378	1389.088	1057.561
28.965	13.557	1387.821	1057.645
29.980	13.501	1387.263	1056.768
30.994	13.622	1386.024	1056.504
32.009	13.654	1384.995	1055.827
33.023	13.530	1384.054	1054.227
34.038	13.508	1382.403	1052.739
35.053	13.582	1381.197	1052.195
36.067	13.583	1379.862	1051.090
37.082	13.582	1379.215	1050.502
38.096	13.574	1378.698	1049.961
39.111	13.558	1377.601	1048.934
40.126	13.434	1376.937	1047.552
41.140	13.390	1376.467	1046.823
42.155	13.364	1376.279	1046.422
43.169	13.386	1376.053	1046.295
44.184	13.408	1374.968	1045.516
45.199	13.394	1374.817	1045.222
46.213	13.391	1374.188	1044.629
47.228	13.507	1373.470	1044.725
48.242	13.500	1371.995	1043.467
49.257	13.478	1370.443	1042.059
50.271	13.553	1368.611	1041.045
51.286	13.434	1368.021	1039.754
52.301	13.491	1366.513	1038.874
53.315	13.423	1365.686	1037.726
54.330	13.452	1364.241	1036.716
55.344	13.408	1363.440	1035.741
56.359	13.313	1362.188	1034.107
57.374	13.398	1360.819	1033.507
58.388	13.377	1359.930	1032.609
59.403	13.332	1360.002	1032.291
60.417	13.384	1358.866	1031.658
61.432	13.319	1357.792	1030.347
62.447	13.326	1357.238	1029.880
63.461	13.274	1356.274	1028.737
64.476	13.239	1354.834	1027.334
65.490	13.381	1353.357	1027.005
66.505	13.297	1351.667	1025.109
67.520	13.296	1351.416	1024.822
68.534	13.383	1349.580	1023.881
69.549	13.397	1348.068	1022.731
70.563	13.400	1347.231	1022.023
71.578	13.260	1346.748	1020.701
72.593	13.225	1345.010	1019.076
73.607	13.319	1344.624	1019.272
74.622	13.290	1343.358	1018.048
75.636	13.210	1342.843	1017.072
76.651	13.238	1342.282	1016.729
77.666	13.267	1341.287	1016.062
78.680	13.269	1340.783	1015.605
79.695	13.260	1340.021	1014.879
80.709	13.385	1339.235	1014.964
81.724	13.348	1338.288	1013.932
82.739	13.358	1337.403	1013.232
83.753	13.465	1335.928	1012.676
84.768	13.465	1335.547	1012.300
85.782	13.385	1334.585	1010.990
86.797	13.485	1332.664	1010.057
87.812	13.418	1331.547	1008.714
88.826	13.413	1330.502	1007.801
89.841	13.472	1329.283	1007.150
90.855	13.475	1329.025	1006.881
91.870	13.454	1328.355	1006.158
92.884	13.479	1327.095	1005.268
93.899	13.519	1326.036	1004.618
94.914	13.597	1325.320	1004.458
95.928	13.480	1324.376	1002.949
96.943	13.542	1323.735	1002.745
97.957	13.581	1322.641	1002.064
98.972	13.479	1321.826	1000.743
99.987	13.571	1320.575	1000.261
101.001	13.454	1319.867	998.930
102.016	13.438	1318.637	997.816
103.030	13.542	1318.028	997.897
104.045	13.596	1316.645	997.085
105.060	13.469	1315.929	995.689
106.074	13.341	1314.871	994.034
107.089	13.445	1313.120	993.243
108.103	13.368	1312.263	992.045
109.118	13.362	1310.553	990.631
110.133	13.351	1309.124	989.398
111.147	13.422	1308.017	988.896
112.162	13.347	1306.495	987.209
113.176	13.422	1305.642	986.924
114.191	13.476	1304.928	986.619
115.206	13.473	1303.768	985.636
116.220	13.503	1302.347	984.653
117.235	13.482	1300.912	983.358
118.249	13.361	1300.487	982.229
119.264	13.434	1298.909	981.385
120.279	13.436	1297.904	980.553
121.293	13.490	1296.681	979.864
122.308	13.414	1295.847	978.693
123.322	13.505	1294.722	978.298
124.337	13.375	1293.889	976.810
125.352	13.406	1292.651	975.977
126.366	13.420	1291.863	975.377
127.381	13.477	1290.423	974.535
128.395	13.400	1289.029	972.943
129.410	13.432	1288.330	972.520
130.424	13.476	1287.276	971.896
131.439	13.552	1286.811	971.905
132.454	13.537	1285.425	970.684
133.468	13.484	1285.048	970.002
134.483	13.530	1284.412	969.709
135.497	13.511	1282.614	968.152
136.512	13.516	1281.457	967.224
137.527	13.531	1280.767	966.704
138.541	13.512	1278.857	965.069
139.556	13.560	1277.655	964.351
140.570	13.514	1276.878	963.415
141.585	13.662	1275.325	963.018
142.600	13.610	1273.923	961.572
143.614	13.669	1272.866	961.033
144.629	13.668	1271.748	960.093
145.643	13.636	1271.100	959.339
146.658	13.584	1269.624	957.837
147.673	13.496	1268.225	956.190
148.687	13.550	1267.096	955.564
149.702	13.567	1265.696	954.522
150.716	13.489	1264.509	953.091
151.731	13.627	1262.934	952.614
152.746	13.610	1261.924	951.672
153.760	13.771	1260.290	951.280
154.775	13.659	1259.522	949.975
155.789	13.650	1259.029	949.464
156.804	13.645	1257.711	948.359
157.819	13.785	1256.045	947.818
158.833	13.805	1255.236	947.236
159.848	13.777	1254.539	946.467
160.862	13.800	1253.609	945.814
161.877	13.747	1252.517	944.604
162.892	13.741	1251.348	943.606
163.906	13.665	1250.846	942.712
164.921	13.793	1249.090	942.031
165.935	13.748	1248.928	941.571
166.950	13.711	1248.010	940.585
167.964	13.766	1246.949	940.016
168.979	13.740	1246.719	939.609
169.994	13.865	1245.958	939.659
171.008	13.779	1245.245	938.553
172.023	13.859	1243.896	937.905
173.037	13.933	1243.274	937.770
174.052	13.951	1242.130	936.925
175.067	13.833	1241.306	935.556
176.081	13.868	1240.216	934.849
177.096	13.803	1239.526	933.880
178.110	13.806	1238.237	932.847
179.125	13.822	1237.039	931.953
180.140	13.929	1235.878	931.591
181.154	13.824	1234.943	930.218
182.169	14.019	1233.364	930.037
183.183	13.990	1232.208	928.923
184.198	13.967	1231.165	927.925
185.213	14.038	1230.076	927.417
186.227	14.026	1229.192	926.602
187.242	14.066	1228.245	926.027
188.256	14.103	1227.216	925.376
189.271	14.071	1225.961	924.173
190.286	13.936	1225.304	922.846
191.300	13.812	1224.168	921.221
192.315	13.953	1223.536	921.444
193.329	13.993	1223.053	921.223
194.344	13.984	1221.951	920.259
195.359	14.011	1221.574	920.042
196.373	13.970	1221.242	919.483
197.388	14.114	1220.301	919.491
198.402	14.069	1220.101	919.009
199.417	14.243	1219.170	919.190
200.432	14.180	1218.655	918.371
201.446	14.207	1217.889	917.862
202.461	14.233	1216.783	917.087
203.475	14.274	1215.694	916.415
204.490	14.346	1213.885	915.365
205.504	14.297	1212.684	914.111
206.519	14.260	1211.776	913.141
207.534	14.278	1210.995	912.570
208.548	14.266	1209.521	911.315
209.563	14.248	1208.932	910.690
210.577	14.359	1208.506	910.893
211.592	14.352	1206.979	909.627
212.607	14.373	1206.310	909.154
213.621	14.348	1205.608	908.410
214.636	14.420	1204.668	908.016
215.650	14.346	1204.009	907.031
216.665	14.315	1203.085	906.087
217.680	14.534	1201.503	906.006
218.694	14.439	1200.901	904.959
219.709	14.529	1200.418	905.000
220.723	14.574	1199.458	904.442
221.738	14.527	1199.012	903.768
222.753	14.540	1197.825	902.868
223.767	14.560	1197.474	902.627
224.782	14.476	1196.893	901.655
225.796	14.599	1195.786	901.408
226.811	14.555	1195.634	900.978
227.826	14.565	1194.705	900.253
228.840	14.647	1193.633	899.808
229.855	14.612	1193.347	899.323
230.869	14.648	1192.558	898.839
231.884	14.622	1191.444	897.780
232.899	14.688	1190.522	897.364
233.913	14.638	1189.822	896.488
234.928	14.585	1189.246	895.689
235.942	14.585	1188.921	895.368
236.957	14.623	1187.859	894.691
237.972	14.527	1187.395	893.747
238.986	14.543	1186.450	893.040
240.001	14.579	1185.839	892.695
241.015	14.558	1185.198	892.022
242.030	14.660	1184.215	891.750
243.045	14.695	1183.142	891.046
244.059	14.727	1182.295	890.504
245.074	14.748	1181.390	889.852
246.088	14.738	1180.585	889.116
247.103	14.890	1179.762	889.224
248.117	14.827	1178.921	888.176
249.132	14.839	1178.247	887.657
250.147	14.898	1177.735	887.506
251.161	14.851	1177.131	886.722
252.176	14.935	1176.393	886.531
253.190	15.045	1175.579	886.421
254.205	14.991	1174.561	885.289
255.220	15.106	1174.411	885.706
256.234	14.944	1173.980	884.450
257.249	15.043	1172.945	884.115
258.263	15.064	1172.600	883.886
259.278	15.029	1171.984	883.159
260.293	15.040	1171.628	882.868
261.307	15.105	1170.751	882.473
262.322	15.121	1169.786	881.753
263.336	15.219	1168.882	881.506
264.351	15.229	1168.521	881.211
265.366	15.277	1167.520	880.631
266.380	15.151	1167.490	879.865
267.395	15.209	1166.276	879.179
268.409	15.213	1165.648	878.648
269.424	15.341	1164.743	878.561
270.439	15.250	1164.607	877.905
271.453	15.248	1163.460	876.951
272.468	15.163	1162.848	875.964
273.482	15.252	1161.537	875.368
274.497	15.271	1161.404	875.286
275.512	15.238	1161.093	874.805
276.526	15.337	1160.065	874.469
277.541	15.203	1159.131	872.986
278.555	15.412	1158.225	873.319
279.570	15.426	1157.682	872.902
280.585	15.382	1156.956	872.048
281.599	15.500	1155.883	871.774
282.614	15.402	1154.943	870.483
283.628	15.342	1154.016	869.396
284.643	15.388	1153.196	868.937
285.657	15.527	1151.796	868.526
286.672	15.425	1150.958	867.292
287.687	15.462	1150.342	866.942
288.701	15.513	1149.587	866.556
289.716	15.596	1148.421	866.031
290.730	15.638	1147.925	865.796
291.745	15.508	1147.428	864.675
292.760	15.569	1146.677	864.344
293.774	15.571	1146.046	863.806
294.789	15.645	1145.686	863.838
295.803	15.610	1145.251	863.255
296.818	15.617	1144.237	862.448
297.833	15.587	1143.177	861.419
298.847	15.757	1142.409	861.636
299.862	15.567	1141.641	860.009
300.876	15.763	1140.904	860.379
301.891	15.657	1140.400	859.381
302.906	15.655	1140.076	859.047
303.920	15.785	1138.858	858.719
304.935	15.830	1137.999	858.227
305.949	15.983	1137.180	858.310
306.964	15.826	1137.045	857.333
307.979	15.877	1135.992	856.725
308.993	15.811	1135.190	855.707
310.008	15.899	1134.637	855.660
311.022	15.979	1133.961	855.484
312.037	15.883	1132.642	853.925
313.052	15.936	1131.951	853.596
314.066	15.982	1130.979	853.020
315.081	15.925	1129.932	851.869
316.095	16.011	1129.361	851.796
317.110	15.887	1128.772	850.649
318.125	15.818	1128.432	849.969
319.139	15.831	1127.690	849.404
320.154	15.893	1126.642	848.851
321.168	15.852	1126.609	848.542
322.183	15.788	1125.554	847.349
323.197	15.921	1124.905	847.459
324.212	16.010	1124.068	847.200
325.227	16.006	1123.462	846.645
326.241	16.003	1123.149	846.319
327.256	15.938	1122.463	845.401
328.270	15.980	1121.120	844.528
329.285	16.060	1120.495	844.383
330.300	16.044	1119.089	843.170
331.314	16.033	1118.016	842.228
332.329	16.088	1117.607	842.124
333.343	16.164	1116.818	841.834
334.358	16.109	1115.637	840.593
335.373	16.054	1115.334	840.017
336.387	16.144	1114.083	839.447
337.402	16.212	1113.354	839.166
338.416	16.251	1112.754	838.831
339.431	16.234	1112.221	838.269
340.446	16.267	1111.483	837.803
341.460	16.273	1110.914	837.332
342.475	16.388	1109.835	837.011
343.489	16.510	1108.763	836.735
344.504	16.393	1107.897	835.429
345.519	16.415	1106.922	834.729
346.533	16.369	1106.446	834.066
347.548	16.448	1105.469	833.649
348.562	16.546	1104.785	833.542
349.577	16.381	1104.090	832.130
350.592	16.439	1103.435	831.850
351.606	16.381	1102.592	830.851
352.621	16.353	1102.235	830.374
353.635	16.391	1101.386	829.848
354.650	16.400	1100.770	829.352
355.665	16.350	1100.143	828.564
356.679	16.432	1099.275	828.237
357.694	16.473	1098.657	827.898
358.708	16.462	1097.814	827.137
359.723	16.534	1097.390	827.098
360.738	16.569	1096.478	826.507
361.752	16.491	1096.382	825.982
362.767	16.677	1095.313	826.012
363.781	16.702	1095.075	825.880
364.796	16.665	1094.068	824.867
365.810	16.606	1093.378	823.983
366.825	16.643	1092.817	823.669
367.840	16.733	1092.454	823.762
368.854	16.842	1092.070	823.927
369.869	16.812	1091.048	822.939
370.883	16.842	1090.232	822.395
371.898	16.781	1089.424	821.418
372.913	16.745	1089.134	820.950
373.927	16.951	1088.316	821.261
374.942	16.943	1087.930	820.860
375.956	16.833	1087.681	820.065
376.971	16.858	1086.753	819.413
377.986	16.847	1086.171	818.849
379.000	17.030	1085.557	819.197
380.015	16.948	1084.846	818.194
381.029	16.906	1084.613	817.743
382.044	17.022	1083.521	817.405
383.059	17.054	1082.981	817.082
384.073	17.029	1082.516	816.534
385.088	17.060	1081.249	815.659
386.102	17.017	1080.508	814.819
387.117	16.988	1079.762	814.047
388.132	16.958	1078.903	813.183
389.146	17.037	1077.693	812.576
390.161	17.001	1077.269	812.015
391.175	17.043	1076.367	811.462
392.190	16.987	1075.520	810.484
393.205	17.104	1074.933	810.530
394.219	17.167	1073.998	810.052
395.234	17.077	1073.232	808.976
396.248	17.188	1071.917	808.442
397.263	17.181	1071.074	807.697
398.278	17.054	1070.564	806.640
399.292	17.093	1069.733	806.128
400.307	17.157	1069.173	805.937
401.321	17.078	1068.487	804.974
402.336	17.149	1067.933	804.823
403.350	17.160	1067.263	804.300
404.365	17.171	1066.591	803.770
405.380	17.251	1065.493	803.252
406.394	17.320	1064.749	802.947
407.409	17.408	1063.889	802.644
408.423	17.277	1063.434	801.611
409.438	17.354	1062.960	801.544
410.453	17.383	1061.993	800.881
411.467	17.409	1061.393	800.480
412.482	17.306	1061.057	799.670
413.496	17.473	1059.851	799.477
414.511	17.498	1059.581	799.321
415.526	17.436	1058.919	798.456
416.540	17.578	1058.387	798.650
417.555	17.469	1058.043	797.811
418.569	17.494	1057.645	797.559
419.584	17.567	1057.215	797.504
420.599	17.472	1056.724	796.617
421.613	99.740	1317.532	1447.470
422.628	91.980	1355.529	1447.561
