DTS Sentinel unit serial number:	SN413079Multiplexer serial number:	ORYXHardware model number:	OX4-SRSoftware version number:	ORYX F/W v4.00 Oryx Data Collector v3.7.2.0data status	okinstallation	princeton_trtdifferential loss correction	single-endedforward channel	channel 2reverse channel	N/Adate	2019/09/14time	15:47:35forward acquisition time	60.00reverse acquisition time	0.00gamma	496.2192k internal	0.2305k external	0.2305temperature offset calibration	1.0141default loss term (dB/km)	0.3790temperature slope calibration	1.0000multiplexer offset coefficient	1.0000multiplexer slope coefficient	1.0000fibre end	0.00T internal ref (°C)	38.75T ext. ref 1 (°C)	5.12T ext. ref 2 (°C)	34.18length (m)	temperature (°C)	Stokes	anti-Stokes-747.200	-118.849	-0.353	-0.063
-746.185	45.384	0.156	0.146
-745.171	24.557	0.191	-0.161
-744.156	227.122	0.194	0.321
-743.142	800.000	-0.127	0.378
-742.127	-76.663	-0.407	0.145
-741.112	800.000	-0.082	0.283
-740.098	276.124	0.110	0.199
-739.083	-127.125	-0.166	0.025
-738.069	-200.000	0.058	0.398
-737.054	264.820	-0.161	-0.286
-736.039	-1.270	-0.115	0.083
-735.025	800.000	-0.052	0.155
-734.010	-109.648	0.153	-0.033
-732.996	-103.340	-0.220	-0.053
-731.981	174.883	-0.100	0.147
-730.966	31.959	-0.296	0.260
-729.952	-80.553	-0.034	-0.012
-728.937	800.000	0.029	0.114
-727.923	-35.308	-0.188	0.104
-726.908	-61.683	-0.160	0.068
-725.894	800.000	-0.059	-0.178
-724.879	-120.951	-0.434	-0.074
-723.864	-200.000	0.011	-0.194
-722.850	-161.051	-0.262	-0.014
-721.835	-119.389	0.062	0.011
-720.821	-140.591	-0.466	0.049
-719.806	-120.358	0.223	-0.039
-718.791	-90.172	-0.160	-0.047
-717.777	-101.361	0.230	-0.057
-716.762	-181.643	0.115	-0.002
-715.748	9.243	-0.187	0.144
-714.733	8.362	0.026	-0.020
-713.718	-200.000	-0.044	-0.412
-712.704	669.141	-0.135	0.355
-711.689	64.337	0.172	-0.176
-710.675	-200.000	0.010	-0.314
-709.660	800.000	0.023	-0.088
-708.645	-149.094	0.200	-0.016
-707.631	-67.111	0.122	0.049
-706.616	-200.000	0.002	0.052
-705.602	170.583	-0.089	0.130
-704.587	-200.000	0.010	-0.091
-703.572	-200.000	0.011	0.313
-702.558	259.342	-0.187	0.328
-701.543	-22.250	-0.074	0.046
-700.529	-67.495	0.085	-0.034
-699.514	-189.192	-0.020	-0.000
-698.499	-200.000	-0.009	0.178
-697.485	106.079	-0.024	0.029
-696.470	-6.764	0.079	-0.054
-695.456	-200.000	0.006	0.391
-694.441	-200.000	-0.038	-0.295
-693.426	27.601	-0.096	-0.082
-692.412	-200.000	-0.014	-0.081
-691.397	-200.000	0.028	-0.139
-690.383	55.351	-0.212	-0.209
-689.368	-200.000	-0.023	-0.290
-688.354	-142.916	-0.195	-0.019
-687.339	-186.583	0.253	-0.004
-686.324	-161.399	0.188	0.010
-685.310	-10.157	-0.216	0.146
-684.295	-15.673	0.203	0.131
-683.281	-60.246	-0.091	0.039
-682.266	-200.000	-0.049	-0.310
-681.251	183.622	-0.061	-0.091
-680.237	-150.287	0.031	-0.002
-679.222	-139.070	0.219	-0.024
-678.208	264.877	0.070	0.124
-677.193	-58.937	-0.120	-0.052
-676.178	800.000	0.047	0.145
-675.164	-11.980	0.032	0.021
-674.149	183.972	0.111	0.167
-673.135	-44.785	0.294	-0.149
-672.120	353.836	-0.054	0.108
-671.105	67.141	-0.117	0.121
-670.091	-40.811	-0.231	-0.122
-669.076	-103.122	-0.147	0.035
-668.062	800.000	-0.092	0.395
-667.047	87.537	0.123	0.138
-666.032	-138.514	0.265	-0.030
-665.018	291.838	-0.119	0.221
-664.003	-200.000	-0.040	0.187
-662.989	-57.033	0.465	0.208
-661.974	-200.000	-0.010	-0.130
-660.959	-63.406	-0.367	0.153
-659.945	-129.100	-0.218	0.031
-658.930	-122.252	0.035	-0.006
-657.916	553.231	-0.044	0.108
-656.901	3.100	-0.070	0.052
-655.886	280.554	-0.253	-0.458
-654.872	-62.251	0.048	0.020
-653.857	489.143	0.010	-0.023
-652.843	-125.161	-0.196	0.030
-651.828	-53.904	0.082	0.038
-650.814	-124.661	-0.287	0.045
-649.799	-200.000	0.009	-0.058
-648.784	235.097	-0.080	-0.134
-647.770	-68.998	0.074	0.029
-646.755	800.000	-0.109	0.389
-645.741	-75.249	-0.365	0.132
-644.726	-60.132	-0.179	-0.077
-643.711	95.852	0.246	0.285
-642.697	-200.000	0.011	0.109
-641.682	338.954	-0.028	-0.055
-640.668	-56.939	0.157	-0.070
-639.653	-167.616	0.227	0.009
-638.638	759.994	-0.034	0.093
-637.624	429.992	-0.037	0.082
-636.609	-102.338	0.280	0.068
-635.595	-91.124	-0.271	-0.079
-634.580	141.802	0.204	-0.274
-633.565	117.884	0.127	0.158
-632.551	-200.000	-0.019	-0.180
-631.536	14.852	-0.201	-0.159
-630.522	153.430	-0.096	-0.133
-629.507	510.413	-0.108	0.254
-628.492	162.893	0.166	0.236
-627.478	-200.000	0.051	0.442
-626.463	155.143	0.041	-0.057
-625.449	-200.000	0.038	0.323
-624.434	26.600	-0.254	-0.215
-623.419	-39.153	0.154	-0.082
-622.405	475.082	-0.104	-0.238
-621.390	13.225	-0.184	-0.145
-620.376	139.283	0.067	0.090
-619.361	-38.869	0.133	-0.071
-618.346	-117.645	0.255	0.047
-617.332	-200.000	-0.010	0.052
-616.317	800.000	0.114	0.503
-615.303	-90.164	-0.218	-0.064
-614.288	-145.318	0.215	-0.020
-613.273	31.397	-0.098	0.086
-612.259	79.633	-0.266	0.289
-611.244	138.273	0.039	0.051
-610.230	602.083	0.017	0.043
-609.215	-200.000	-0.022	0.305
-608.201	-200.000	-0.060	-0.382
-607.186	800.000	-0.060	0.187
-606.171	280.361	-0.096	0.173
-605.157	-77.987	0.114	-0.040
-604.142	153.767	-0.270	0.374
-603.128	-46.880	-0.284	-0.141
-602.113	-200.000	0.020	0.167
-601.098	226.516	0.138	-0.227
-600.084	538.752	0.061	-0.147
-599.069	-18.650	0.068	0.043
-598.055	84.075	-0.150	-0.165
-597.040	-61.575	-0.254	-0.108
-596.025	320.105	0.044	-0.084
-595.011	-200.000	0.003	-0.043
-593.996	172.499	0.158	0.230
-592.982	-95.810	0.317	-0.086
-591.967	607.044	-0.075	0.190
-590.952	-137.236	-0.087	0.010
-589.938	197.471	-0.115	-0.177
-588.923	-89.559	-0.394	0.117
-587.909	-49.806	-0.302	-0.145
-586.894	130.417	0.128	0.166
-585.879	434.649	0.051	0.112
-584.865	800.000	-0.050	0.173
-583.850	105.001	-0.076	-0.090
-582.836	-130.316	0.215	-0.030
-581.821	-42.843	-0.238	0.122
-580.806	800.000	-0.110	0.350
-579.792	-60.922	-0.234	0.100
-578.777	-8.860	-0.066	-0.045
-577.763	240.697	-0.140	0.236
-576.748	-200.000	0.012	-0.081
-575.733	-78.392	0.170	-0.059
-574.719	63.297	0.093	0.095
-573.704	470.355	-0.125	0.284
-572.690	-18.354	0.130	-0.082
-571.675	64.774	-0.136	-0.139
-570.661	-91.376	-0.247	-0.072
-569.646	-82.902	-0.120	0.039
-568.631	82.092	-0.075	0.083
-567.617	54.276	-0.092	0.090
-566.602	-160.898	-0.099	0.005
-565.588	-2.513	-0.294	-0.208
-564.573	-200.000	-0.034	-0.211
-563.558	-200.000	-0.045	-0.236
-562.544	-11.351	0.208	-0.138
-561.529	-45.846	0.184	0.092
-560.515	-200.000	-0.091	-0.424
-559.500	-29.217	-0.141	0.082
-558.485	800.000	0.043	-0.164
-557.471	-183.079	0.218	0.004
-556.456	-200.000	0.063	-0.312
-555.442	-80.424	-0.363	-0.122
-554.427	-200.000	-0.004	0.024
-553.412	800.000	-0.021	-0.063
-552.398	-46.336	-0.073	-0.036
-551.383	800.000	-0.100	-0.278
-550.369	-114.116	-0.367	0.072
-549.354	244.852	-0.101	0.172
-548.339	-100.536	-0.038	0.010
-547.325	-24.136	0.043	0.026
-546.310	75.634	0.055	0.058
-545.296	-200.000	-0.002	-0.254
-544.281	-13.821	-0.226	-0.148
-543.266	144.967	0.160	0.217
-542.252	-155.476	0.213	0.014
-541.237	346.267	-0.155	-0.307
-540.223	333.384	0.107	0.209
-539.208	-110.905	-0.122	-0.025
-538.193	-58.833	0.272	-0.119
-537.179	184.155	0.226	-0.338
-536.164	-200.000	0.029	0.128
-535.150	-200.000	0.023	0.183
-534.135	118.182	0.080	0.100
-533.121	82.248	0.167	-0.182
-532.106	800.000	-0.022	-0.080
-531.091	-122.954	0.120	-0.020
-530.077	-89.398	0.005	0.002
-529.062	514.361	0.072	0.170
-528.048	620.815	0.148	-0.376
-527.033	200.684	-0.111	0.172
-526.018	-128.757	-0.369	-0.053
-525.004	-115.449	0.249	-0.047
-523.989	800.000	-0.079	-0.226
-522.975	-200.000	0.042	-0.332
-521.960	-49.809	0.258	0.123
-520.945	254.835	0.045	-0.077
-519.931	230.097	0.066	0.108
-518.916	129.404	-0.021	-0.028
-517.902	800.000	0.079	0.277
-516.887	-200.000	0.034	-0.154
-515.872	-86.034	-0.167	0.052
-514.858	147.644	0.055	0.075
-513.843	800.000	0.053	-0.233
-512.829	-49.635	-0.321	0.154
-511.814	-123.363	0.548	0.088
-510.799	123.335	-0.060	-0.076
-509.785	-200.000	-0.050	0.277
-508.770	105.625	-0.189	0.225
-507.756	-43.144	-0.246	0.126
-506.741	-153.241	-0.079	-0.006
-505.726	800.000	0.050	-0.187
-504.712	375.530	-0.146	-0.301
-503.697	75.363	-0.256	-0.272
-502.683	286.866	-0.127	0.231
-501.668	609.963	-0.040	0.102
-500.653	334.844	-0.106	-0.208
-499.639	89.816	0.117	-0.132
-498.624	18.950	0.264	-0.213
-497.610	-139.928	-0.414	0.044
-496.595	-115.408	0.345	0.066
-495.581	-30.497	-0.265	-0.151
-494.566	-126.274	0.231	0.035
-493.551	800.000	0.059	-0.260
-492.537	-166.694	-0.037	0.002
-491.522	-87.396	0.308	0.094
-490.508	-142.801	-0.226	-0.022
-489.493	107.302	0.176	-0.211
-488.478	-19.074	-0.103	0.065
-487.464	-200.000	0.049	0.352
-486.449	408.729	0.116	-0.247
-485.435	-200.000	-0.049	0.368
-484.420	49.194	0.049	0.047
-483.405	541.290	-0.062	-0.148
-482.391	37.302	0.143	-0.128
-481.376	-200.000	-0.011	-0.302
-480.362	53.426	-0.063	-0.061
-479.347	-111.326	-0.191	-0.039
-478.332	-30.979	0.303	0.172
-477.318	40.676	-0.243	-0.221
-476.303	-91.361	0.436	-0.126
-475.289	90.146	0.071	0.080
-474.274	800.000	0.061	-0.179
-473.259	74.335	0.198	0.209
-472.245	-82.953	-0.123	-0.040
-471.230	-33.638	0.145	-0.081
-470.216	126.114	-0.129	0.164
-469.201	-99.472	-0.267	0.068
-468.186	-102.684	0.460	-0.111
-467.172	-24.060	0.040	0.024
-466.157	-74.606	-0.092	0.033
-465.143	-0.410	0.380	-0.272
-464.128	-81.353	0.174	-0.058
-463.113	-200.000	0.027	0.468
-462.099	-200.000	-0.017	0.143
-461.084	43.734	0.121	0.112
-460.070	-200.000	0.010	0.048
-459.055	6.202	0.052	-0.039
-458.040	-81.685	-0.332	-0.110
-457.026	77.395	-0.060	0.064
-456.011	-200.000	0.035	0.197
-454.997	-34.236	0.270	0.149
-453.982	-200.000	-0.007	-0.045
-452.968	184.009	0.138	0.205
-451.953	-114.709	0.148	-0.028
-450.938	-167.701	-0.125	0.005
-449.924	16.728	-0.341	0.271
-448.909	-15.336	0.097	0.063
-447.895	604.785	0.130	-0.327
-446.880	-43.009	0.268	-0.137
-445.865	-52.416	-0.235	0.110
-444.851	-109.308	-0.273	-0.058
-443.836	-80.680	0.149	-0.050
-442.822	-67.395	0.159	-0.063
-441.807	-170.388	-0.351	0.012
-440.792	800.000	0.037	-0.133
-439.778	-22.110	0.256	-0.156
-438.763	37.811	-0.051	-0.046
-437.749	37.775	-0.214	0.191
-436.734	53.861	-0.157	-0.152
-435.719	-93.527	-0.256	-0.071
-434.705	-200.000	0.022	-0.218
-433.690	16.544	-0.203	0.161
-432.676	-93.808	0.363	-0.101
-431.661	-116.223	0.060	0.011
-430.646	-111.651	0.285	-0.058
-429.632	69.672	0.223	0.231
-428.617	-59.444	-0.210	-0.091
-427.603	-54.704	0.202	0.092
-426.588	93.622	0.060	-0.069
-425.573	98.223	0.138	-0.160
-424.559	800.000	-0.011	0.046
-423.544	-127.985	0.280	-0.040
-422.530	243.980	-0.370	-0.624
-421.515	-200.000	0.028	-0.435
-420.500	-115.400	-0.183	-0.035
-419.486	-25.829	-0.361	0.214
-418.471	173.707	0.089	-0.130
-417.457	-200.000	-0.026	-0.228
-416.442	-200.000	-0.025	0.167
-415.428	-200.000	-0.075	0.333
-414.413	-200.000	-0.017	0.193
-413.398	-200.000	0.016	-0.115
-412.384	-160.646	-0.360	0.019
-411.369	57.523	0.116	-0.114
-410.355	-111.459	0.210	0.043
-409.340	82.027	0.179	0.195
-408.325	-96.947	-0.038	0.010
-407.311	-111.736	-0.168	0.034
-406.296	142.675	-0.113	0.151
-405.282	-123.960	-0.146	-0.023
-404.267	-81.026	-0.126	0.042
-403.252	-11.725	-0.140	-0.092
-402.238	21.812	0.275	0.225
-401.223	-9.303	-0.212	-0.142
-400.209	147.497	0.030	-0.041
-399.194	-153.134	0.194	0.014
-398.179	418.495	0.136	-0.292
-397.165	-105.997	-0.111	-0.025
-396.150	-134.881	0.328	-0.040
-395.136	800.000	-0.049	-0.182
-394.121	-200.000	-0.025	0.240
-393.106	-127.344	-0.070	-0.010
-392.092	-101.630	-0.108	0.026
-391.077	115.495	0.099	-0.122
-390.063	-50.556	0.280	-0.132
-389.048	-45.702	-0.131	0.065
-388.033	71.529	-0.219	0.228
-387.019	548.911	0.075	0.181
-386.004	-104.897	-0.179	-0.041
-384.990	353.992	-0.103	-0.205
-383.975	752.528	-0.055	0.148
-382.960	-200.000	-0.003	-0.269
-381.946	-137.605	0.167	-0.019
-380.931	-135.222	-0.081	-0.010
-379.917	90.756	0.060	0.068
-378.902	263.889	-0.061	-0.107
-377.888	18.740	0.078	0.063
-376.873	-170.109	-0.280	0.010
-375.858	37.753	-0.465	0.414
-374.844	-159.096	0.004	-0.000
-373.829	438.491	-0.028	-0.062
-372.815	6.164	0.051	-0.038
-371.800	-39.997	0.129	-0.068
-370.785	241.807	-0.109	-0.182
-369.771	170.177	-0.080	0.114
-368.756	-200.000	0.062	0.346
-367.742	-11.359	-0.242	0.160
-366.727	138.333	0.227	-0.299
-365.712	-2.919	-0.204	-0.143
-364.698	-121.499	-0.368	0.061
-363.683	13.720	-0.225	0.176
-362.669	-101.023	0.437	0.108
-361.654	-14.467	0.178	0.115
-360.639	40.114	0.428	-0.386
-359.625	247.358	0.107	0.181
-358.610	800.000	-0.107	0.447
-357.596	-173.936	-0.049	0.001
-356.581	-6.792	0.296	-0.202
-355.566	-200.000	0.018	0.142
-354.552	151.705	0.235	0.321
-353.537	800.000	-0.054	0.203
-352.523	-102.639	-0.377	-0.090
-351.508	-2.567	-0.095	-0.067
-350.493	-200.000	0.015	0.248
-349.479	103.019	-0.171	-0.201
-348.464	-200.000	0.079	0.440
-347.450	800.000	0.028	0.124
-346.435	160.355	-0.059	-0.082
-345.420	-93.279	-0.251	-0.070
-344.406	325.253	-0.061	-0.117
-343.391	41.386	-0.198	-0.179
-342.377	23.855	-0.232	-0.192
-341.362	-185.751	0.194	0.003
-340.348	-101.501	-0.260	-0.063
-339.333	-12.155	0.237	0.155
-338.318	693.579	-0.094	0.247
-337.304	800.000	0.133	0.375
-336.289	-34.644	0.172	0.094
-335.275	-12.705	0.105	0.069
-334.260	-71.767	0.357	0.133
-333.245	99.899	0.256	-0.297
-332.231	-36.283	-0.042	0.023
-331.216	24.528	0.133	0.110
-330.202	-200.000	0.053	-0.410
-329.187	-20.404	-0.200	-0.123
-328.172	-200.000	0.041	-0.196
-327.158	312.177	0.041	0.077
-326.143	-124.925	-0.158	-0.024
-325.129	-37.951	0.084	0.045
-324.114	-200.000	0.011	-0.290
-323.099	-105.661	0.212	0.048
-322.085	-200.000	-0.004	0.079
-321.070	59.336	0.170	-0.168
-320.056	-162.948	0.105	0.005
-319.041	144.167	-0.098	-0.131
-318.026	800.000	-0.010	-0.034
-317.012	-15.135	0.091	-0.058
-315.997	-135.822	0.217	0.026
-314.983	-19.366	-0.434	-0.269
-313.968	201.262	0.162	0.250
-312.953	-8.963	-0.108	0.072
-311.939	255.594	-0.118	0.202
-310.924	31.299	-0.086	0.074
-309.910	73.557	-0.199	-0.209
-308.895	800.000	0.032	0.111
-307.880	172.389	-0.118	0.171
-306.866	103.532	0.063	-0.074
-305.851	593.717	-0.106	-0.263
-304.837	-35.558	-0.316	0.171
-303.822	360.445	-0.144	0.289
-302.807	339.044	-0.101	-0.197
-301.793	-69.314	0.015	-0.006
-300.778	40.680	-0.402	0.363
-299.764	-76.205	0.150	0.053
-298.749	-48.740	-0.051	0.025
-297.735	244.499	0.043	-0.072
-296.720	-2.941	0.125	-0.088
-295.705	268.628	-0.179	-0.313
-294.691	-119.851	0.122	0.021
-293.676	-111.040	0.156	0.032
-292.662	-200.000	0.025	-0.120
-291.647	800.000	0.021	0.072
-290.632	6.009	-0.176	-0.130
-289.618	24.478	-0.149	-0.123
-288.603	22.231	0.140	-0.114
-287.589	54.217	0.148	0.142
-286.574	-200.000	-0.044	0.305
-285.559	-200.000	-0.024	0.179
-284.545	-200.000	0.053	-0.357
-283.530	152.168	0.095	0.130
-282.516	264.261	-0.091	-0.158
-281.501	-59.407	0.235	0.101
-280.486	159.648	0.016	0.022
-279.472	800.000	-0.044	0.127
-278.457	-110.364	0.376	-0.078
-277.443	309.778	-0.032	-0.060
-276.428	-76.320	-0.222	-0.078
-275.413	-5.478	-0.217	-0.149
-274.399	375.348	0.015	0.030
-273.384	242.031	0.043	-0.073
-272.370	136.144	-0.134	0.174
-271.355	800.000	-0.032	-0.099
-270.340	-82.159	-0.322	0.105
-269.326	-123.799	0.309	0.049
-268.311	-200.000	0.026	0.123
-267.297	-34.068	-0.253	-0.139
-266.282	-4.098	-0.311	-0.215
-265.267	-75.059	-0.182	0.065
-264.253	-42.219	0.209	-0.107
-263.238	-53.246	-0.003	-0.001
-262.224	-200.000	-0.004	-0.081
-261.209	-200.000	-0.034	-0.287
-260.195	122.184	-0.070	-0.088
-259.180	-80.581	-0.149	0.050
-258.165	-27.470	0.346	-0.201
-257.151	-136.448	-0.246	-0.029
-256.136	-200.000	-0.016	-0.082
-255.122	111.875	0.025	0.030
-254.107	-200.000	-0.020	-0.248
-253.092	-18.182	-0.056	0.035
-252.078	28.864	0.170	0.144
-251.063	6.034	0.276	-0.204
-250.049	305.643	0.215	-0.400
-249.034	-48.444	-0.382	0.184
-248.019	-98.939	0.019	0.005
-247.005	176.565	0.050	-0.072
-245.990	757.801	0.057	-0.154
-244.976	-138.235	0.168	0.019
-243.961	715.948	-0.068	-0.181
-242.946	523.890	-0.036	0.085
-241.932	-200.000	-0.041	0.350
-240.917	58.095	0.082	-0.080
-239.903	54.455	0.142	-0.136
-238.888	756.566	-0.044	0.120
-237.873	-42.072	0.419	0.214
-236.859	-98.287	0.145	-0.037
-235.844	165.876	0.163	-0.230
-234.830	800.000	-0.005	-0.020
-233.815	222.638	0.133	-0.213
-232.800	-172.268	0.340	0.011
-231.786	180.813	-0.065	-0.095
-230.771	-200.000	0.049	-0.231
-229.757	-200.000	0.011	0.088
-228.742	-134.821	0.116	0.014
-227.727	492.473	-0.072	0.165
-226.713	-58.032	-0.099	0.043
-225.698	800.000	-0.074	0.238
-224.684	-138.873	-0.143	-0.016
-223.669	-200.000	0.023	0.232
-222.655	-200.000	0.101	0.476
-221.640	-120.169	-0.377	-0.064
-220.625	800.000	-0.048	-0.188
-219.611	-157.731	0.219	0.013
-218.596	150.349	-0.125	0.169
-217.582	-25.899	0.301	0.177
-216.567	-32.636	0.366	0.203
-215.552	-200.000	-0.005	-0.227
-214.538	18.040	-0.054	0.043
-213.523	18.125	0.152	-0.121
-212.509	123.207	-0.079	0.099
-211.494	-144.554	-0.189	-0.017
-210.479	-200.000	-0.053	-0.232
-209.465	72.582	0.076	-0.079
-208.450	26.535	0.262	-0.219
-207.436	39.470	0.206	-0.184
-206.421	-102.826	-0.172	0.041
-205.406	800.000	0.027	0.109
-204.392	-200.000	-0.004	-0.184
-203.377	-35.822	0.384	-0.207
-202.363	125.815	-0.068	-0.086
-201.348	122.122	-0.163	-0.203
-200.333	11.640	-0.100	-0.077
-199.319	344.559	-0.024	0.048
-198.304	250.686	0.165	0.279
-197.290	-80.601	0.258	-0.086
-196.275	148.799	0.234	0.316
-195.260	-45.520	-0.190	0.094
-194.246	-200.000	0.030	0.280
-193.231	-43.886	-0.220	-0.110
-192.217	139.569	0.023	-0.030
-191.202	265.961	0.098	-0.170
-190.187	-69.759	0.242	-0.092
-189.173	800.000	0.102	0.314
-188.158	-200.000	0.081	-0.385
-187.144	16.505	0.200	0.157
-186.129	800.000	0.025	-0.081
-185.114	800.000	0.029	0.122
-184.100	327.728	-0.114	0.218
-183.085	-200.000	-0.019	0.310
-182.071	3.893	-0.117	0.085
-181.056	-192.048	-0.119	0.001
-180.042	-200.000	-0.019	0.356
-179.027	800.000	-0.082	-0.301
-178.012	79.745	-0.177	-0.189
-176.998	800.000	-0.103	0.393
-175.983	-120.061	0.245	0.042
-174.969	-143.434	-0.317	-0.030
-173.954	88.431	0.343	0.379
-172.939	-200.000	0.031	0.141
-171.925	-200.000	-0.030	-0.229
-170.910	-123.656	0.203	0.032
-169.896	153.474	-0.165	0.225
-168.881	-200.000	0.009	0.172
-167.866	214.863	0.183	-0.289
-166.852	-92.116	-0.205	-0.058
-165.837	-69.782	0.322	0.122
-164.823	-178.705	-0.141	0.003
-163.808	210.031	0.059	0.092
-162.793	-200.000	-0.062	-0.474
-161.779	-200.000	-0.008	-0.161
-160.764	438.837	-0.051	0.110
-159.750	-62.519	-0.087	-0.036
-158.735	-55.298	-0.207	-0.093
-157.720	-200.000	0.026	0.464
-156.706	-5.194	0.156	0.107
-155.691	163.551	0.037	0.052
-154.677	548.195	0.107	0.256
-153.662	-200.000	0.004	0.255
-152.647	-13.585	0.340	-0.219
-151.633	208.993	0.157	-0.245
-150.618	-200.000	-0.014	0.078
-149.604	-94.912	-0.215	-0.058
-148.589	-51.699	0.272	0.126
-147.574	-10.201	-0.122	0.081
-146.560	-200.000	-0.026	-0.222
-145.545	15.320	0.172	-0.134
-144.531	613.055	-0.096	-0.240
-143.516	-29.310	0.186	0.106
-142.502	-123.321	0.081	0.013
-141.487	-93.593	-0.154	-0.042
-140.472	463.574	-0.056	-0.125
-139.458	518.596	0.033	-0.077
-138.443	677.663	0.071	0.184
-137.429	-62.352	0.208	-0.086
-136.414	153.334	0.186	-0.254
-135.399	-41.050	0.348	-0.179
-134.385	-66.030	-0.371	0.147
-133.370	648.551	-0.056	0.141
-132.356	-108.110	0.042	-0.009
-131.341	145.358	-0.230	0.306
-130.326	-79.403	0.237	-0.080
-129.312	-111.789	0.144	-0.029
-128.297	151.350	0.053	-0.072
-127.283	26.289	0.206	-0.171
-126.268	44.012	0.120	0.109
-125.253	-42.886	-0.381	0.192
-124.239	-200.000	0.015	0.157
-123.224	45.876	0.237	0.218
-122.210	120.782	0.123	0.152
-121.195	800.000	0.091	0.313
-120.180	36.090	-0.035	0.030
-119.166	-97.188	-0.292	0.076
-118.151	-200.000	0.008	-0.382
-117.137	308.472	0.145	-0.269
-116.122	10.533	0.012	-0.009
-115.107	-200.000	0.008	-0.087
-114.093	800.000	0.050	0.141
-113.078	-200.000	0.006	0.320
-112.064	-31.785	-0.089	0.050
-111.049	245.228	0.051	-0.085
-110.034	16.411	-0.191	-0.150
-109.020	-24.976	-0.094	0.055
-108.005	800.000	-0.118	-0.429
-106.991	176.136	0.193	-0.278
-105.976	307.070	-0.057	-0.105
-104.962	-141.508	0.071	0.007
-103.947	396.602	-0.134	0.279
-102.932	800.000	-0.032	-0.109
-101.918	-200.000	-0.132	0.001
-100.903	158.406	0.206	0.284
-99.889	-200.000	-0.094	-0.411
-98.874	-8.993	-0.341	0.227
-97.859	47.042	0.057	0.052
-96.845	565.638	-0.066	0.160
-95.830	-200.000	0.035	-0.343
-94.816	-74.967	0.073	-0.026
-93.801	87.326	-0.032	-0.035
-92.786	89.084	-0.160	0.177
-91.772	231.430	-0.138	-0.225
-90.757	60.222	-0.075	-0.073
-89.743	800.000	-0.107	0.310
-88.728	16.390	0.412	0.323
-87.713	-52.550	-0.145	-0.067
-86.699	-109.515	-0.404	0.085
-85.684	308.067	0.123	-0.228
-84.670	-200.000	-0.043	0.209
-83.655	-101.183	0.145	-0.035
-82.640	388.894	-0.212	0.435
-81.626	15.699	-0.318	-0.248
-80.611	-200.000	-0.004	0.083
-79.597	-200.000	-0.034	-0.186
-78.582	106.944	-0.110	-0.129
-77.567	424.996	-0.127	0.272
-76.553	12.855	0.051	0.039
-75.538	800.000	-0.049	0.152
-74.524	800.000	0.026	-0.092
-73.509	126.005	-0.046	-0.058
-72.494	-200.000	-0.033	0.218
-71.480	-100.266	0.157	-0.039
-70.465	132.860	0.136	0.175
-69.451	-10.201	-0.203	0.134
-68.436	55.758	0.198	-0.191
-67.422	158.297	-0.191	0.263
-66.407	-50.041	0.215	-0.101
-65.392	-57.084	-0.151	0.066
-64.378	800.000	-0.068	0.283
-63.363	-149.184	-0.361	-0.029
-62.349	-200.000	-0.034	0.150
-61.334	-47.861	-0.541	-0.260
-60.319	800.000	-0.164	0.478
-59.305	-200.000	-0.110	-0.811
-58.290	345.518	0.542	1.056
-57.276	800.000	0.515	1.473
-56.261	-200.000	82.804	499.169
-55.246	563.176	1364.152	3272.267
-54.232	185.281	2594.378	3815.835
-53.217	115.543	2351.026	2847.436
-52.203	47.638	1962.924	1814.342
-51.188	41.978	1749.606	1572.799
-50.173	39.191	1703.666	1510.068
-49.159	53.443	1743.404	1656.159
-48.144	57.610	1762.365	1706.462
-47.130	41.862	1722.604	1547.381
-46.115	38.826	1708.040	1510.894
-45.100	38.691	1704.252	1506.449
-44.086	38.664	1701.531	1503.777
-43.071	38.571	1698.838	1500.625
-42.057	38.509	1696.244	1497.799
-41.042	38.563	1694.347	1496.478
-40.027	38.613	1692.344	1495.031
-39.013	38.580	1690.103	1492.741
-37.998	38.588	1688.629	1491.437
-36.984	38.557	1687.560	1490.197
-35.969	38.750	1685.267	1489.578
-34.954	38.854	1684.035	1489.219
-33.940	38.693	1682.460	1486.549
-32.925	38.802	1680.221	1485.340
-31.911	38.758	1678.552	1483.473
-30.896	38.848	1676.605	1482.372
-29.881	38.765	1675.096	1480.352
-28.867	38.694	1673.663	1478.489
-27.852	38.731	1672.209	1477.424
-26.838	38.743	1670.709	1476.136
-25.823	38.728	1669.298	1474.715
-24.809	38.828	1667.977	1474.242
-23.794	38.802	1666.434	1472.621
-22.779	38.841	1665.048	1471.633
-21.765	38.809	1663.107	1469.619
-20.750	38.712	1661.872	1467.742
-19.736	38.741	1660.253	1466.477
-18.721	38.753	1659.159	1465.538
-17.706	38.831	1656.899	1464.068
-16.692	38.744	1655.745	1462.336
-15.677	38.797	1654.097	1461.219
-14.663	38.719	1653.098	1459.698
-13.648	38.809	1651.468	1458.870
-12.633	38.860	1649.744	1457.667
-11.619	38.742	1648.445	1455.586
-10.604	38.861	1646.731	1454.895
-9.590	38.711	1645.559	1452.696
-8.575	38.812	1644.000	1452.011
-7.560	38.757	1643.305	1450.928
-6.546	38.809	1641.811	1449.940
-5.531	38.738	1641.037	1448.673
-4.517	38.679	1639.704	1447.002
-3.502	38.810	1638.179	1446.568
-2.487	38.748	1636.559	1444.620
-1.473	38.566	1625.118	1433.132
-0.458	35.701	1604.900	1394.501
0.556	32.967	1603.021	1355.997
1.571	30.085	1626.317	1354.551
2.586	28.958	1639.156	1356.820
3.600	25.173	1583.466	1283.573
4.615	15.198	1468.102	1123.416
5.629	6.712	1398.837	1015.896
6.644	5.226	1390.004	999.888
7.659	5.053	1388.676	997.736
8.673	5.154	1387.124	997.176
9.688	5.047	1385.913	995.535
10.702	5.147	1383.224	994.153
11.717	8.618	1390.623	1021.576
12.731	17.505	1407.285	1090.912
13.746	22.396	1413.178	1126.773
14.761	21.018	1410.011	1115.341
15.775	19.865	1407.031	1105.525
16.790	18.848	1403.856	1096.449
17.804	18.051	1401.774	1089.643
18.819	17.577	1400.737	1085.721
19.834	17.337	1399.541	1083.166
20.848	17.112	1398.241	1080.632
21.863	16.889	1396.772	1077.985
22.877	16.784	1395.755	1076.437
23.892	16.687	1394.896	1075.062
24.907	16.720	1394.175	1074.621
25.921	16.819	1392.838	1074.125
26.936	16.726	1392.257	1072.990
27.950	16.782	1391.405	1072.595
28.965	16.866	1389.842	1071.828
29.980	16.876	1389.274	1071.357
30.994	17.094	1387.612	1071.357
32.009	17.184	1386.510	1070.981
33.023	17.021	1385.493	1069.075
34.038	17.037	1383.893	1067.842
35.053	16.940	1382.888	1066.361
36.067	16.837	1381.503	1064.556
37.082	16.904	1380.724	1064.281
38.096	16.919	1379.617	1063.428
39.111	16.912	1378.644	1062.536
40.126	16.825	1377.851	1061.286
41.140	16.702	1376.895	1059.691
42.155	16.596	1376.563	1058.673
43.169	16.552	1376.245	1058.060
44.184	16.549	1375.980	1057.748
45.199	16.621	1375.292	1057.573
46.213	16.662	1374.739	1057.314
47.228	16.684	1374.218	1056.956
48.242	16.859	1372.888	1056.930
49.257	16.728	1371.440	1054.908
50.271	16.926	1369.488	1054.540
51.286	16.684	1368.921	1052.508
52.301	16.844	1367.053	1051.969
53.315	16.691	1366.087	1050.188
54.330	16.598	1365.485	1049.055
55.344	16.686	1363.703	1048.137
56.359	16.658	1362.973	1047.308
57.374	16.585	1361.980	1046.001
58.388	16.497	1361.128	1044.714
59.403	16.478	1360.928	1044.347
60.417	16.557	1359.421	1043.587
61.432	16.496	1358.963	1042.765
62.447	16.507	1357.743	1041.805
63.461	16.375	1356.690	1040.096
64.476	16.471	1355.219	1039.467
65.490	16.382	1354.125	1037.987
66.505	16.493	1352.303	1037.176
67.520	16.543	1350.688	1036.155
68.534	16.507	1350.276	1035.527
69.549	16.520	1349.354	1034.811
70.563	16.467	1348.583	1033.803
71.578	16.316	1347.415	1031.891
72.593	16.327	1345.934	1030.732
73.607	16.232	1345.635	1029.832
74.622	16.338	1344.670	1029.653
75.636	16.320	1343.936	1028.885
76.651	16.463	1342.655	1028.687
77.666	16.375	1342.765	1028.142
78.680	16.295	1342.434	1027.310
79.695	16.509	1341.070	1027.479
80.709	16.516	1341.212	1027.536
81.724	16.556	1339.936	1026.713
82.739	16.623	1338.606	1026.006
83.753	16.728	1337.801	1025.937
84.768	16.875	1336.889	1026.036
85.782	16.880	1336.067	1025.349
86.797	16.949	1334.825	1024.721
87.812	16.811	1333.671	1022.910
88.826	16.775	1332.546	1021.736
89.841	16.792	1331.329	1020.817
90.855	16.888	1330.200	1020.439
91.870	16.900	1329.332	1019.757
92.884	16.860	1328.694	1018.936
93.899	16.881	1327.957	1018.409
94.914	17.022	1326.572	1018.102
95.928	16.948	1326.308	1017.361
96.943	16.963	1325.053	1016.399
97.957	16.933	1323.991	1015.318
98.972	16.964	1322.882	1014.560
99.987	16.824	1322.095	1013.031
101.001	16.887	1320.528	1012.117
102.016	16.941	1319.679	1011.701
103.030	16.970	1318.747	1011.070
104.045	16.771	1318.268	1009.425
105.060	16.829	1316.918	1008.650
106.074	16.662	1315.624	1006.576
107.089	16.517	1314.174	1004.517
108.103	16.478	1312.939	1003.249
109.118	16.504	1311.190	1001.982
110.133	16.471	1310.053	1000.827
111.147	16.546	1308.702	1000.147
112.162	16.634	1307.473	999.639
113.176	16.580	1306.768	998.694
114.191	16.485	1305.692	997.225
115.206	16.677	1304.198	997.124
116.220	16.558	1302.971	995.396
117.235	16.620	1301.535	994.577
118.249	16.560	1301.317	993.969
119.264	16.545	1299.822	992.651
120.279	16.552	1298.904	991.906
121.293	16.552	1297.711	990.907
122.308	16.363	1296.873	989.070
123.322	16.312	1296.058	988.068
124.337	16.403	1294.710	987.481
125.352	16.501	1293.344	986.926
126.366	16.450	1292.580	985.960
127.381	16.478	1291.602	985.288
128.395	16.397	1290.286	983.724
129.410	16.492	1289.242	983.393
130.424	16.590	1288.643	983.419
131.439	16.563	1287.686	982.443
132.454	16.702	1286.761	982.457
133.468	16.667	1286.151	981.704
134.483	16.627	1285.485	980.875
135.497	16.640	1284.509	980.118
136.512	16.666	1283.083	979.096
137.527	16.784	1281.320	978.344
138.541	16.742	1280.196	977.160
139.556	16.731	1279.030	976.120
140.570	16.770	1278.186	975.614
141.585	16.852	1276.910	975.024
142.600	16.898	1275.713	974.287
143.614	16.967	1274.808	973.909
144.629	16.974	1274.200	973.398
145.643	17.029	1272.230	972.124
146.658	16.862	1271.695	970.673
147.673	16.774	1270.115	968.873
148.687	16.749	1268.868	967.693
149.702	16.694	1267.329	966.125
150.716	16.629	1266.077	964.711
151.731	16.673	1265.055	964.096
152.746	16.650	1264.293	963.303
153.760	16.628	1263.311	962.343
154.775	16.783	1262.056	962.184
155.789	16.854	1260.543	961.345
156.804	16.920	1259.548	960.878
157.819	16.896	1258.916	960.175
158.833	17.019	1257.808	959.940
159.848	17.146	1256.693	959.720
160.862	17.007	1255.995	958.319
161.877	16.890	1254.110	956.138
162.892	16.827	1253.190	954.996
163.906	16.716	1252.830	954.009
164.921	16.845	1251.310	953.491
165.935	16.833	1250.863	953.004
166.950	16.960	1249.919	952.910
167.964	16.920	1249.475	952.266
168.979	16.948	1248.484	951.579
169.994	16.846	1248.000	950.558
171.008	16.919	1247.484	950.489
172.023	17.021	1246.308	950.082
173.037	17.209	1245.259	950.249
174.052	17.048	1244.577	948.742
175.067	16.948	1243.167	947.025
176.081	16.905	1242.326	946.059
177.096	16.833	1241.559	944.993
178.110	16.928	1240.463	944.606
179.125	16.879	1239.256	943.326
180.140	16.943	1237.880	942.555
181.154	17.071	1236.825	942.375
182.169	17.050	1235.934	941.498
183.183	17.086	1234.577	940.580
184.198	17.265	1232.809	940.142
185.213	17.194	1232.313	939.288
186.227	17.180	1231.204	938.280
187.242	17.208	1230.003	937.437
188.256	17.265	1229.108	936.987
189.271	17.364	1228.295	936.831
190.286	17.200	1226.356	934.365
191.300	16.860	1226.112	932.226
192.315	16.796	1225.258	931.141
193.329	16.778	1224.817	930.626
194.344	16.996	1223.790	930.958
195.359	16.974	1223.441	930.490
196.373	17.041	1223.263	930.644
197.388	17.197	1222.492	930.828
198.402	17.352	1222.013	931.231
199.417	17.417	1221.413	931.045
200.432	17.417	1220.983	930.635
201.446	17.546	1220.254	930.704
202.461	17.535	1219.071	929.657
203.475	17.613	1217.757	928.998
204.490	17.522	1216.425	927.405
205.504	17.390	1214.986	925.506
206.519	17.409	1213.863	924.675
207.534	17.312	1212.924	923.350
208.548	17.330	1211.888	922.578
209.563	17.346	1211.088	921.973
210.577	17.319	1210.300	921.147
211.592	17.445	1209.601	921.212
212.607	17.578	1208.535	921.041
213.621	17.498	1207.986	920.106
214.636	17.508	1206.588	919.015
215.650	17.628	1205.610	918.837
216.665	17.509	1204.994	917.644
217.680	17.744	1203.840	917.949
218.694	17.746	1202.913	917.173
219.709	17.680	1202.285	916.260
220.723	17.690	1201.863	915.911
221.738	17.659	1200.971	914.980
222.753	17.618	1200.489	914.313
223.767	17.730	1199.279	913.909
224.782	17.749	1198.562	913.387
225.796	17.775	1198.067	913.065
226.811	17.758	1197.784	912.681
227.826	17.712	1196.811	911.612
228.840	17.738	1195.675	910.802
229.855	17.620	1194.991	909.572
230.869	17.672	1194.087	909.083
231.884	17.706	1193.284	908.572
232.899	17.582	1192.858	907.507
233.913	17.528	1191.946	906.443
234.928	17.555	1190.997	905.787
235.942	17.613	1190.060	905.302
236.957	17.504	1189.522	904.233
237.972	17.610	1188.638	904.044
238.986	17.592	1188.314	903.622
240.001	17.631	1187.357	903.018
241.015	17.596	1186.821	902.345
242.030	17.707	1185.833	902.102
243.045	17.755	1185.249	901.836
244.059	17.742	1184.278	900.945
245.074	17.709	1183.631	900.202
246.088	17.729	1182.858	899.640
247.103	17.912	1181.932	899.818
248.117	17.979	1180.945	899.341
249.132	18.163	1180.364	899.785
250.147	18.238	1180.268	900.030
251.161	18.315	1178.904	899.315
252.176	18.219	1178.564	898.469
253.190	18.332	1178.008	898.558
254.205	18.413	1177.323	898.384
255.220	18.455	1176.517	897.907
256.234	18.381	1175.845	896.928
257.249	18.293	1175.741	896.310
258.263	18.405	1174.484	895.855
259.278	18.318	1174.045	894.986
260.293	18.398	1173.136	894.634
261.307	18.420	1172.666	894.312
262.322	18.424	1172.410	894.058
263.336	18.526	1171.576	893.872
264.351	18.483	1170.884	893.044
265.366	18.499	1170.270	892.578
266.380	18.558	1169.070	891.892
267.395	18.547	1168.373	891.225
268.409	18.374	1167.780	889.794
269.424	18.472	1166.741	889.432
270.439	18.515	1166.292	889.236
271.453	18.449	1165.445	888.165
272.468	18.397	1164.681	887.237
273.482	18.383	1164.121	886.660
274.497	18.270	1163.856	885.793
275.512	18.342	1162.861	885.331
276.526	18.313	1162.075	884.506
277.541	18.435	1161.212	884.399
278.555	18.508	1160.359	884.046
279.570	18.543	1159.724	883.666
280.585	18.632	1158.584	883.176
281.599	18.643	1158.492	883.087
282.614	18.569	1157.015	881.502
283.628	18.511	1155.859	880.245
284.643	18.490	1155.054	879.445
285.657	18.562	1154.325	879.181
286.672	18.635	1153.238	878.649
287.687	18.568	1153.025	878.070
288.701	18.669	1151.540	877.376
289.716	18.588	1151.035	876.500
290.730	18.681	1150.146	876.218
291.745	18.627	1149.358	875.268
292.760	18.730	1148.590	875.127
293.774	18.728	1148.187	874.735
294.789	18.831	1147.822	874.904
295.803	18.816	1147.332	874.375
296.818	18.701	1146.340	872.958
297.833	18.791	1145.280	872.529
298.847	18.615	1144.851	871.234
299.862	18.705	1144.298	871.193
300.876	18.601	1143.605	870.062
301.891	18.880	1142.247	870.361
302.906	19.027	1141.757	870.658
303.920	18.927	1141.372	869.778
304.935	19.065	1140.696	869.884
305.949	19.044	1140.194	869.317
306.964	19.137	1139.158	868.923
307.979	18.996	1138.419	867.571
308.993	18.898	1137.940	866.634
310.008	19.027	1136.716	866.276
311.022	19.130	1135.961	866.141
312.037	18.905	1135.571	864.635
313.052	18.978	1134.281	863.946
314.066	18.940	1133.181	862.837
315.081	19.017	1132.112	862.335
316.095	18.916	1131.443	861.241
317.110	18.891	1131.028	860.725
318.125	18.902	1130.084	859.984
319.139	18.935	1129.350	859.516
320.154	18.803	1129.390	858.809
321.168	18.914	1128.408	858.541
322.183	19.021	1127.543	858.345
323.197	18.946	1127.389	857.776
324.212	19.080	1126.498	857.690
325.227	18.988	1126.245	856.962
326.241	19.005	1125.297	856.249
327.256	18.995	1124.284	855.351
328.270	18.949	1123.308	854.307
329.285	19.048	1122.495	854.106
330.300	18.968	1121.557	852.917
331.314	19.091	1120.552	852.688
332.329	19.020	1119.576	851.517
333.343	19.215	1118.435	851.540
334.358	19.206	1117.865	850.985
335.373	19.186	1117.302	850.384
336.387	19.289	1116.824	850.452
337.402	19.251	1116.263	849.760
338.416	19.200	1115.819	849.096
339.431	19.299	1114.510	848.514
340.446	19.400	1114.338	848.803
341.460	19.439	1113.737	848.464
342.475	19.444	1112.908	847.782
343.489	19.560	1111.761	847.404
344.504	19.532	1111.195	846.758
345.519	19.629	1109.794	846.091
346.533	19.615	1109.273	845.548
347.548	19.662	1108.483	845.102
348.562	19.680	1107.762	844.566
349.577	19.571	1106.592	843.066
350.592	19.452	1105.859	841.854
351.606	19.469	1104.890	841.125
352.621	19.360	1104.455	840.189
353.635	19.348	1103.907	839.639
354.650	19.451	1102.689	839.140
355.665	19.507	1102.296	839.040
356.679	19.512	1101.778	838.594
357.694	19.614	1100.957	838.389
358.708	19.568	1100.493	837.737
359.723	19.657	1100.093	837.792
360.738	19.613	1099.343	836.934
361.752	19.465	1098.924	835.825
362.767	19.609	1098.302	835.972
363.781	19.637	1097.394	835.345
364.796	19.756	1097.010	835.554
365.810	19.828	1096.160	835.179
366.825	19.881	1095.776	835.069
367.840	19.967	1095.241	835.002
368.854	20.061	1094.920	835.138
369.869	19.946	1094.288	834.026
370.883	19.989	1092.846	833.058
371.898	19.794	1092.490	831.778
372.913	19.847	1091.814	831.445
373.927	19.976	1091.190	831.514
374.942	19.966	1090.647	830.981
375.956	19.908	1090.195	830.284
376.971	19.846	1089.736	829.564
377.986	19.960	1089.159	829.598
379.000	20.108	1088.455	829.697
380.015	20.209	1087.402	829.300
381.029	20.237	1086.686	828.814
382.044	20.235	1086.268	828.416
383.059	20.140	1085.845	827.566
384.073	20.184	1084.819	826.920
385.088	20.186	1083.947	826.192
386.102	20.240	1083.263	825.856
387.117	20.181	1081.487	824.149
388.132	20.067	1081.029	823.181
389.146	20.071	1080.170	822.477
390.161	20.006	1079.352	821.470
391.175	20.069	1078.590	821.116
392.190	20.200	1077.870	821.119
393.205	20.198	1077.674	820.887
394.219	20.230	1076.363	819.963
395.234	20.200	1075.678	819.228
396.248	20.107	1074.895	818.122
397.263	20.090	1073.710	817.068
398.278	20.046	1073.164	816.371
399.292	20.116	1072.099	815.821
400.307	20.065	1071.578	815.112
401.321	19.942	1070.998	814.020
402.336	20.149	1069.877	814.069
403.350	20.071	1069.524	813.360
404.365	20.085	1068.673	812.705
405.380	20.223	1068.018	812.783
406.394	20.154	1067.640	812.101
407.409	20.323	1066.811	812.191
408.423	20.305	1065.864	811.310
409.438	20.486	1065.382	811.721
410.453	20.512	1064.673	811.229
411.467	20.471	1063.797	810.296
412.482	20.500	1063.531	810.160
413.496	20.699	1062.515	810.242
414.511	20.583	1062.308	809.470
415.526	20.756	1061.993	809.964
416.540	20.720	1061.346	809.229
417.555	20.686	1060.674	808.488
418.569	20.600	1060.541	807.917
419.584	20.762	1059.687	807.944
420.599	20.711	1059.026	807.133
421.613	146.989	1396.772	1768.260
422.628	135.075	1445.996	1768.396
