DTS Sentinel unit serial number:	SN413079Multiplexer serial number:	ORYXHardware model number:	OX4-SRSoftware version number:	ORYX F/W v4.00 Oryx Data Collector v3.7.2.0data status	okinstallation	princeton_trtdifferential loss correction	single-endedforward channel	channel 2reverse channel	N/Adate	2019/09/13time	15:47:35forward acquisition time	60.00reverse acquisition time	0.00gamma	496.2192k internal	0.2316k external	0.2316temperature offset calibration	1.0215default loss term (dB/km)	0.3790temperature slope calibration	1.0000multiplexer offset coefficient	1.0000multiplexer slope coefficient	1.0000fibre end	0.00T internal ref (°C)	34.69T ext. ref 1 (°C)	4.77T ext. ref 2 (°C)	29.53length (m)	temperature (°C)	Stokes	anti-Stokes-747.200	-158.237	0.175	-0.010
-746.185	-200.000	0.055	0.320
-745.171	-37.257	0.238	0.129
-744.156	-200.000	-0.003	0.093
-743.142	-18.337	-0.143	-0.091
-742.127	596.683	-0.093	0.234
-741.112	-130.540	-0.174	0.024
-740.098	27.659	-0.396	0.337
-739.083	590.995	0.150	-0.375
-738.069	-158.733	-0.359	0.021
-737.054	2.131	0.160	-0.117
-736.039	800.000	0.075	0.251
-735.025	31.659	0.026	0.023
-734.010	31.052	-0.147	-0.127
-732.996	373.490	-0.096	-0.198
-731.981	-0.614	-0.164	0.118
-730.966	150.556	0.124	0.170
-729.952	-77.574	-0.260	-0.091
-728.937	-130.103	-0.587	0.081
-727.923	-74.508	-0.121	0.044
-726.908	-200.000	0.016	-0.157
-725.894	-142.840	-0.045	0.004
-724.879	-52.285	-0.213	-0.100
-723.864	-200.000	-0.034	-0.315
-722.850	129.557	-0.158	0.205
-721.835	179.035	-0.128	0.189
-720.821	114.716	0.048	-0.060
-719.806	-133.603	-0.407	0.052
-718.791	-75.045	-0.134	-0.049
-717.777	91.474	-0.083	0.094
-716.762	509.761	0.182	-0.429
-715.748	-54.371	0.238	-0.109
-714.733	228.710	-0.158	0.261
-713.718	-113.190	-0.179	-0.036
-712.704	637.227	-0.120	0.307
-711.689	-46.800	0.104	-0.052
-710.675	13.623	-0.318	0.249
-709.660	-200.000	0.001	0.075
-708.645	216.811	0.055	0.088
-707.631	800.000	-0.038	0.152
-706.616	-86.652	-0.286	0.089
-705.602	-136.536	-0.191	0.022
-704.587	53.926	0.104	-0.101
-703.572	-200.000	0.047	-0.549
-702.558	139.240	-0.148	-0.197
-701.543	125.268	0.191	-0.244
-700.529	800.000	0.042	-0.122
-699.514	-102.405	0.206	0.050
-698.499	-191.087	-0.430	0.005
-697.485	449.658	-0.066	0.147
-696.470	800.000	0.047	-0.150
-695.456	-200.000	-0.003	-0.149
-694.441	-200.000	-0.006	-0.199
-693.426	-56.754	0.301	-0.134
-692.412	-200.000	0.020	-0.256
-691.397	-18.053	-0.061	0.039
-690.383	400.471	0.130	-0.275
-689.368	-139.534	-0.024	-0.003
-688.354	-100.882	-0.194	-0.048
-687.339	72.821	0.214	0.225
-686.324	-80.353	0.124	0.042
-685.310	800.000	-0.056	0.211
-684.295	53.357	-0.250	-0.242
-683.281	174.581	-0.258	0.377
-682.266	-200.000	0.029	0.290
-681.251	-200.000	-0.023	0.123
-680.237	-200.000	-0.007	0.137
-679.222	-148.550	0.058	0.005
-678.208	-34.457	0.130	-0.072
-677.193	451.913	0.079	0.176
-676.178	-33.265	-0.502	0.281
-675.164	800.000	0.053	-0.228
-674.149	-36.957	-0.446	0.241
-673.135	-200.000	0.024	-0.232
-672.120	44.283	-0.161	0.149
-671.105	800.000	-0.076	0.230
-670.091	-118.709	-0.226	-0.040
-669.076	800.000	0.068	0.242
-668.062	-50.379	0.100	-0.048
-667.047	-200.000	0.024	-0.192
-666.032	524.136	-0.079	-0.188
-665.018	-200.000	-0.033	0.364
-664.003	-200.000	-0.048	0.293
-662.989	344.350	0.212	0.420
-661.974	-122.703	0.269	0.044
-660.959	499.528	-0.039	0.091
-659.945	-93.471	0.212	0.059
-658.930	-200.000	0.008	0.244
-657.916	-131.669	0.244	-0.032
-656.901	-158.328	0.481	0.028
-655.886	-83.833	0.188	-0.060
-654.872	-200.000	-0.080	-0.406
-653.857	11.262	-0.078	0.061
-652.843	-122.879	-0.379	-0.062
-651.828	-200.000	0.017	0.088
-650.814	-15.656	0.214	0.138
-649.799	-150.802	-0.085	-0.006
-648.784	-26.148	-0.223	-0.132
-647.770	-25.351	-0.204	-0.122
-646.755	-135.396	-0.249	-0.030
-645.741	428.931	-0.120	-0.261
-644.726	-100.677	-0.329	-0.082
-643.711	-43.491	0.125	-0.063
-642.697	195.669	0.179	-0.275
-641.682	-4.953	0.181	-0.126
-640.668	222.294	-0.047	-0.076
-639.653	53.089	0.008	-0.007
-638.638	800.000	-0.167	0.503
-637.624	-200.000	0.018	-0.088
-636.609	138.416	-0.348	-0.461
-635.595	-200.000	0.003	-0.095
-634.580	75.416	-0.075	-0.080
-633.565	-200.000	-0.017	-0.109
-632.551	-45.084	-0.281	-0.141
-631.536	37.989	-0.132	0.119
-630.522	429.434	-0.115	0.251
-629.507	66.311	-0.176	0.181
-628.492	-115.191	0.401	0.077
-627.478	-200.000	0.010	-0.122
-626.463	-95.136	0.352	-0.096
-625.449	-141.579	-0.346	0.035
-624.434	-197.479	-0.131	0.001
-623.419	-97.817	0.308	-0.080
-622.405	223.425	0.156	-0.253
-621.390	-84.568	0.039	0.013
-620.376	-175.160	0.040	-0.001
-619.361	-43.261	0.176	-0.090
-618.346	329.360	-0.152	-0.294
-617.332	-180.145	-0.500	-0.011
-616.317	-24.162	0.069	0.042
-615.303	-118.447	-0.383	-0.068
-614.288	128.320	-0.130	0.167
-613.273	-200.000	0.016	-0.109
-612.259	27.583	-0.295	0.250
-611.244	250.124	0.130	-0.223
-610.230	306.926	-0.205	0.385
-609.215	-116.668	0.021	0.004
-608.201	-200.000	-0.027	0.224
-607.186	-56.251	-0.167	0.075
-606.171	328.287	-0.138	-0.268
-605.157	540.187	0.102	0.245
-604.142	271.384	0.174	-0.309
-603.128	-14.376	0.196	0.127
-602.113	800.000	0.039	-0.165
-601.098	286.585	0.102	-0.185
-600.084	28.530	0.125	0.106
-599.069	800.000	-0.057	-0.246
-598.055	-200.000	-0.010	-0.212
-597.040	26.639	-0.100	0.085
-596.025	-31.497	0.248	0.140
-595.011	-200.000	0.037	-0.214
-593.996	-200.000	-0.000	-0.166
-592.982	-171.137	-0.029	-0.001
-591.967	279.983	0.135	-0.244
-590.952	-8.175	0.062	0.042
-589.938	341.016	-0.116	0.228
-588.923	144.909	-0.045	-0.060
-587.909	-64.208	-0.031	-0.013
-586.894	-2.922	-0.410	0.288
-585.879	-13.558	0.431	-0.281
-584.865	-200.000	0.064	-0.293
-583.850	-200.000	-0.025	-0.246
-582.836	-27.701	-0.111	-0.065
-581.821	-19.954	0.310	0.193
-580.806	-28.892	-0.097	0.056
-579.792	-5.814	0.166	0.115
-578.777	-137.681	0.108	-0.012
-577.763	310.254	0.220	-0.414
-576.748	279.714	0.065	0.116
-575.733	646.220	-0.188	-0.484
-574.719	130.892	0.057	0.073
-573.704	-75.119	-0.115	0.041
-572.690	31.328	-0.233	-0.202
-571.675	28.734	0.311	-0.265
-570.661	-109.183	0.316	0.068
-569.646	-135.097	-0.029	-0.003
-568.631	-161.101	-0.263	0.014
-567.617	208.472	-0.311	0.490
-566.602	-31.299	-0.150	0.085
-565.588	-200.000	0.016	-0.157
-564.573	-127.596	0.251	-0.037
-563.558	-200.000	-0.065	-0.312
-562.544	-200.000	0.053	-0.239
-561.529	800.000	-0.082	-0.240
-560.515	-81.842	-0.238	0.078
-559.500	296.261	0.085	-0.156
-558.485	238.656	0.060	0.101
-557.471	151.246	-0.113	-0.154
-556.456	-1.643	-0.192	-0.136
-555.442	9.631	-0.229	-0.174
-554.427	-17.038	0.153	-0.097
-553.412	-200.000	-0.006	-0.311
-552.398	-25.432	0.120	0.071
-551.383	-200.000	0.043	0.195
-550.369	99.892	-0.061	0.071
-549.354	-120.770	0.262	-0.044
-548.339	-200.000	-0.024	0.189
-547.325	144.709	-0.117	0.157
-546.310	800.000	0.037	-0.131
-545.296	491.558	-0.120	-0.277
-544.281	364.355	-0.064	-0.129
-543.266	-83.604	0.113	-0.036
-542.252	800.000	-0.077	-0.321
-541.237	497.132	0.026	-0.060
-540.223	-200.000	0.026	0.168
-539.208	162.731	-0.117	0.165
-538.193	335.416	0.086	-0.167
-537.179	-166.289	0.394	0.017
-536.164	800.000	0.052	-0.223
-535.150	-200.000	-0.008	0.235
-534.135	-54.980	-0.161	0.073
-533.121	-107.152	0.154	-0.034
-532.106	42.786	0.216	-0.198
-531.091	284.025	-0.125	-0.226
-530.077	100.456	-0.041	0.048
-529.062	-200.000	-0.016	-0.129
-528.048	-158.202	0.155	0.009
-527.033	380.973	-0.092	-0.190
-526.018	-124.546	-0.165	-0.026
-525.004	115.001	0.092	-0.113
-523.989	-72.215	-0.256	0.095
-522.975	563.377	0.015	-0.035
-521.960	-200.000	0.003	-0.080
-520.945	-81.052	0.031	-0.010
-519.931	800.000	0.028	0.091
-518.916	354.100	-0.188	0.375
-517.902	-55.690	-0.178	0.080
-516.887	224.428	0.088	-0.142
-515.872	77.208	-0.114	0.122
-514.858	162.555	-0.087	-0.123
-513.843	-51.503	0.280	0.131
-512.829	-200.000	0.048	0.327
-511.814	557.224	0.124	0.301
-510.799	424.650	0.130	0.282
-509.785	800.000	0.041	0.128
-508.770	144.581	0.179	0.240
-507.756	174.291	0.162	-0.235
-506.741	-43.628	-0.295	0.149
-505.726	-105.142	-0.117	0.027
-504.712	-200.000	-0.008	0.131
-503.697	-160.300	0.232	-0.013
-502.683	-33.152	0.198	0.110
-501.668	-200.000	-0.001	-0.026
-500.653	-130.358	0.459	0.062
-499.639	800.000	0.087	-0.242
-498.624	-136.357	-0.379	0.044
-497.610	-200.000	-0.005	0.065
-496.595	-200.000	0.004	0.240
-495.581	-200.000	-0.003	-0.062
-494.566	512.838	0.151	-0.354
-493.551	-146.600	0.122	-0.011
-492.537	-200.000	-0.027	-0.137
-491.522	-67.950	-0.289	0.113
-490.508	-9.146	-0.309	-0.208
-489.493	-133.492	0.194	0.024
-488.478	-45.461	0.102	-0.051
-487.464	-120.187	-0.132	-0.023
-486.449	-97.122	-0.251	0.066
-485.435	-74.258	0.213	-0.077
-484.420	-133.347	0.089	0.011
-483.405	-158.849	0.443	-0.025
-482.391	-5.635	0.108	-0.075
-481.376	-200.000	-0.021	0.167
-480.362	-99.237	-0.162	0.041
-479.347	-128.692	-0.336	0.048
-478.332	-147.796	0.378	-0.032
-477.318	675.886	-0.136	-0.353
-476.303	41.930	-0.086	0.078
-475.289	-188.411	-0.444	-0.006
-474.274	-200.000	-0.004	-0.265
-473.259	-200.000	0.037	0.164
-472.245	-20.620	0.299	0.184
-471.230	75.464	0.293	0.310
-470.216	291.832	0.123	-0.224
-469.201	-133.349	-0.273	0.034
-468.186	-89.494	-0.204	-0.060
-467.172	800.000	-0.045	-0.144
-466.157	164.679	0.162	-0.229
-465.143	-39.532	0.131	-0.069
-464.128	80.807	0.084	0.091
-463.113	-137.766	0.401	-0.045
-462.099	-150.844	-0.241	0.018
-461.084	-200.000	-0.038	-0.258
-460.070	33.939	-0.266	0.232
-459.055	-138.426	0.193	0.021
-458.040	-200.000	-0.011	-0.097
-457.026	33.451	0.195	0.170
-456.011	-110.889	0.278	-0.057
-454.997	4.922	0.183	0.134
-453.982	-10.417	0.097	-0.065
-452.968	-98.070	0.318	0.082
-451.953	-55.010	-0.083	-0.038
-450.938	-81.527	0.128	-0.042
-449.924	-95.540	-0.260	0.070
-448.909	124.572	0.161	-0.202
-447.895	-66.656	-0.249	-0.099
-446.880	267.611	-0.150	-0.263
-445.865	800.000	-0.057	-0.179
-444.851	-91.946	0.313	-0.089
-443.836	202.027	0.122	-0.188
-442.822	-47.338	-0.234	-0.114
-441.807	-28.939	-0.337	0.194
-440.792	165.285	-0.043	0.061
-439.778	800.000	-0.072	0.292
-438.763	22.387	-0.190	-0.155
-437.749	800.000	0.104	-0.362
-436.734	-200.000	-0.011	-0.197
-435.719	-186.835	0.069	-0.001
-434.705	-200.000	-0.029	-0.448
-433.690	-151.890	0.483	0.035
-432.676	-141.897	0.336	-0.034
-431.661	118.119	-0.081	0.100
-430.646	800.000	0.070	0.267
-429.632	-105.887	0.218	-0.049
-428.617	-200.000	-0.044	0.331
-427.603	-200.000	-0.031	0.254
-426.588	113.438	0.087	-0.105
-425.573	783.670	-0.028	-0.076
-424.559	-104.051	-0.238	0.055
-423.544	-200.000	0.017	0.228
-422.530	40.639	-0.206	-0.186
-421.515	800.000	0.083	-0.272
-420.500	12.612	0.192	-0.148
-419.486	800.000	0.104	0.291
-418.471	290.139	0.110	0.199
-417.457	-152.480	0.214	0.015
-416.442	800.000	-0.073	-0.217
-415.428	-4.801	-0.108	-0.074
-414.413	127.570	-0.206	-0.261
-413.398	609.450	0.105	-0.263
-412.384	162.102	0.069	0.097
-411.369	800.000	-0.058	0.227
-410.355	260.066	-0.092	0.160
-409.340	-153.335	0.082	0.006
-408.325	-102.527	0.300	0.072
-407.311	-159.077	-0.350	0.020
-406.296	800.000	-0.056	-0.196
-405.282	116.388	0.077	0.094
-404.267	633.075	-0.063	0.159
-403.252	-142.438	0.230	0.023
-402.238	300.303	-0.079	0.146
-401.223	142.396	-0.119	-0.158
-400.209	-200.000	-0.033	-0.277
-399.194	-24.623	-0.241	-0.143
-398.179	800.000	-0.061	-0.222
-397.165	144.258	0.053	0.071
-396.150	-103.295	0.302	0.071
-395.136	-200.000	-0.016	-0.246
-394.121	-200.000	-0.001	0.229
-393.106	-87.485	-0.149	0.045
-392.092	800.000	0.009	0.029
-391.077	50.438	0.012	-0.012
-390.063	16.015	0.130	0.102
-389.048	-200.000	-0.013	0.080
-388.033	152.390	-0.153	0.209
-387.019	748.264	0.067	-0.180
-386.004	-200.000	-0.013	0.065
-384.990	800.000	-0.057	0.222
-383.975	-18.685	-0.075	-0.047
-382.960	-200.000	0.076	0.434
-381.946	46.577	-0.140	-0.130
-380.931	-36.215	-0.231	0.125
-379.917	-200.000	-0.033	0.307
-378.902	-122.372	0.090	0.015
-377.888	88.570	-0.196	0.217
-376.873	325.358	-0.058	0.110
-375.858	200.127	-0.148	0.226
-374.844	9.846	0.098	0.074
-373.829	-200.000	0.004	0.223
-372.815	-200.000	0.042	0.340
-371.800	800.000	0.041	0.135
-370.785	-200.000	-0.051	0.354
-369.771	800.000	0.143	-0.419
-368.756	-131.768	0.106	0.014
-367.742	-120.670	-0.179	0.030
-366.727	-35.412	-0.268	0.145
-365.712	-28.072	0.079	-0.045
-364.698	101.615	0.209	0.244
-363.683	792.325	-0.121	-0.332
-362.669	-117.922	-0.359	0.064
-361.654	87.533	0.220	0.243
-360.639	300.335	-0.265	0.488
-359.625	-78.473	-0.145	0.049
-358.610	-144.884	-0.163	0.015
-357.596	59.538	-0.218	-0.214
-356.581	-135.176	0.184	0.022
-355.566	-200.000	-0.062	-0.307
-354.552	780.723	0.098	-0.266
-353.537	800.000	-0.037	0.117
-352.523	-185.234	0.043	0.001
-351.508	214.233	0.123	-0.195
-350.493	749.107	-0.053	0.142
-349.479	-8.123	0.257	0.173
-348.464	800.000	0.062	-0.208
-347.450	20.721	-0.194	0.156
-346.435	-200.000	-0.049	-0.298
-345.420	337.702	0.045	0.087
-344.406	51.796	-0.178	-0.169
-343.391	24.277	-0.117	-0.096
-342.377	-200.000	0.033	0.259
-341.362	-110.242	0.380	-0.079
-340.348	800.000	0.102	0.299
-339.333	-114.540	-0.308	0.059
-338.318	-200.000	0.065	0.469
-337.304	243.976	-0.106	-0.177
-336.289	-92.717	0.070	0.020
-335.275	-90.007	-0.367	-0.107
-334.260	62.943	0.104	-0.104
-333.245	87.515	0.194	0.214
-332.231	-200.000	-0.066	0.316
-331.216	470.891	0.164	0.367
-330.202	129.799	-0.139	-0.177
-329.187	350.998	0.060	0.118
-328.172	-175.130	0.341	0.009
-327.158	-108.387	0.125	-0.027
-326.143	-60.463	0.310	0.131
-325.129	-105.670	0.304	-0.069
-324.114	-200.000	0.003	0.214
-323.099	800.000	0.135	0.434
-322.085	-200.000	-0.038	-0.207
-321.070	-127.816	0.206	0.030
-320.056	-133.010	-0.246	0.031
-319.041	44.811	-0.226	-0.207
-318.026	777.548	-0.082	0.224
-317.012	628.829	-0.060	-0.150
-315.997	-16.938	0.219	-0.138
-314.983	-200.000	-0.030	0.282
-313.968	101.152	-0.138	0.160
-312.953	-118.846	0.061	0.011
-311.939	12.039	0.284	-0.217
-310.924	203.478	-0.171	-0.263
-309.910	19.945	0.047	0.038
-308.895	150.520	0.219	0.296
-307.880	-59.012	-0.236	0.101
-306.866	-200.000	-0.065	-0.353
-305.851	800.000	-0.041	-0.172
-304.837	-200.000	-0.019	0.274
-303.822	426.222	-0.177	0.380
-302.807	74.054	0.166	0.173
-301.793	122.593	0.040	-0.049
-300.778	53.435	-0.268	0.256
-299.764	24.533	-0.137	0.113
-298.749	243.938	-0.092	0.153
-297.735	27.038	-0.242	-0.202
-296.720	-100.203	0.159	-0.039
-295.705	38.946	-0.249	-0.221
-294.691	190.495	0.038	0.057
-293.676	-200.000	-0.065	0.302
-292.662	294.775	-0.198	0.360
-291.647	115.931	0.081	0.099
-290.632	133.887	0.278	0.359
-289.618	-29.053	-0.172	0.098
-288.603	392.800	-0.050	-0.104
-287.589	35.238	-0.212	0.185
-286.574	631.949	0.101	-0.253
-285.559	19.930	0.102	0.081
-284.545	-55.065	-0.342	0.153
-283.530	-2.673	0.171	0.119
-282.516	238.629	0.190	0.313
-281.501	-75.164	-0.111	0.039
-280.486	318.139	-0.126	-0.238
-279.472	800.000	0.078	0.272
-278.457	-115.616	-0.235	0.044
-277.443	286.172	0.115	0.207
-276.428	-200.000	0.000	0.124
-275.413	47.548	0.034	0.031
-274.399	-4.929	-0.148	0.101
-273.384	-113.516	-0.146	-0.028
-272.370	30.496	0.205	0.174
-271.355	37.375	-0.139	-0.123
-270.340	-62.231	-0.309	0.128
-269.326	-92.034	0.236	0.066
-268.311	800.000	-0.134	-0.447
-267.297	800.000	-0.072	-0.227
-266.282	161.654	0.046	-0.064
-265.267	303.582	-0.115	-0.212
-264.253	-200.000	-0.015	-0.171
-263.238	111.466	0.088	0.105
-262.224	-159.825	0.243	0.013
-261.209	-46.421	0.169	-0.082
-260.195	117.609	0.276	0.338
-259.180	64.063	-0.191	-0.190
-258.165	235.396	0.104	0.171
-257.151	-41.666	-0.093	0.048
-256.136	-33.327	-0.310	-0.171
-255.122	-200.000	-0.022	0.168
-254.107	38.118	0.327	0.289
-253.092	-200.000	-0.001	-0.197
-252.078	177.423	-0.111	0.161
-251.063	541.054	-0.024	0.057
-250.049	-200.000	0.009	0.122
-249.034	89.409	0.372	0.412
-248.019	-55.461	-0.183	0.082
-247.005	166.518	-0.042	-0.059
-245.990	-115.598	0.397	-0.074
-244.976	-46.304	-0.323	0.158
-243.961	-137.826	0.155	0.017
-242.946	2.536	-0.124	-0.090
-241.932	-200.000	-0.027	-0.172
-240.917	270.473	-0.048	-0.084
-239.903	118.341	0.131	0.161
-238.888	532.241	-0.067	-0.157
-237.873	-25.795	0.284	-0.166
-236.859	47.170	-0.089	0.082
-235.844	-200.000	-0.044	0.259
-234.830	800.000	0.093	-0.385
-233.815	-109.019	0.068	-0.014
-232.800	800.000	0.066	-0.215
-231.786	369.537	-0.112	-0.226
-230.771	-129.312	0.136	0.019
-229.757	102.058	0.067	-0.078
-228.742	7.201	-0.112	0.083
-227.727	74.903	0.116	-0.121
-226.713	-200.000	-0.015	-0.489
-225.698	37.317	-0.114	-0.101
-224.684	295.488	-0.091	-0.166
-223.669	800.000	-0.040	-0.142
-222.655	-48.148	-0.371	-0.178
-221.640	-200.000	-0.016	-0.229
-220.625	458.516	-0.136	0.301
-219.611	-141.129	-0.012	0.001
-218.596	-184.664	-0.321	-0.005
-217.582	247.611	0.010	-0.016
-216.567	-200.000	0.007	0.096
-215.552	682.605	-0.037	0.097
-214.538	-78.137	0.270	-0.092
-213.523	800.000	0.065	-0.252
-212.509	-79.415	0.388	0.130
-211.494	-36.203	-0.211	-0.113
-210.479	501.383	0.157	0.360
-209.465	-8.662	0.034	0.023
-208.450	-200.000	-0.014	0.348
-207.436	3.248	-0.252	-0.182
-206.421	620.261	0.133	-0.332
-205.406	246.642	-0.131	0.220
-204.392	741.117	-0.086	0.228
-203.377	-200.000	-0.003	-0.209
-202.363	-200.000	0.180	0.000
-201.348	-148.654	0.249	-0.020
-200.333	-200.000	-0.013	-0.161
-199.319	-52.390	0.236	0.108
-198.304	-103.665	-0.309	0.072
-197.290	-125.845	0.227	-0.034
-196.275	-108.240	0.308	0.066
-195.260	43.536	0.220	-0.200
-194.246	-200.000	-0.008	0.147
-193.231	-200.000	0.033	0.189
-192.217	-155.313	0.234	0.015
-191.202	17.827	-0.053	-0.042
-190.187	110.121	0.155	-0.185
-189.173	-87.717	-0.161	-0.048
-188.158	-90.843	-0.148	-0.042
-187.144	181.121	-0.228	-0.332
-186.129	-61.812	-0.145	0.060
-185.114	800.000	-0.085	0.294
-184.100	-196.228	0.357	0.002
-183.085	-97.184	0.275	0.071
-182.071	-200.000	0.015	0.296
-181.056	-15.355	-0.117	0.074
-180.042	-200.000	-0.009	-0.350
-179.027	470.841	0.153	0.342
-178.012	-40.060	0.058	-0.030
-176.998	-200.000	-0.010	-0.316
-175.983	-200.000	0.004	-0.193
-174.969	30.639	-0.081	0.069
-173.954	55.323	0.289	-0.277
-172.939	-29.321	-0.223	0.126
-171.925	334.171	0.233	0.447
-170.910	129.778	0.125	0.159
-169.896	9.178	0.030	-0.023
-168.881	-86.825	0.076	-0.023
-167.866	-200.000	0.011	0.061
-166.852	4.829	-0.142	0.103
-165.837	800.000	-0.082	0.262
-164.823	148.640	0.091	-0.122
-163.808	77.772	-0.139	-0.147
-162.793	47.572	-0.081	-0.075
-161.779	45.884	0.128	-0.117
-160.764	-151.280	-0.095	0.007
-159.750	800.000	-0.098	0.295
-158.735	-200.000	0.015	0.211
-157.720	-200.000	-0.002	-0.117
-156.706	-18.093	-0.211	0.131
-155.691	96.384	0.025	-0.028
-154.677	-133.971	0.107	0.013
-153.662	800.000	-0.150	-0.523
-152.647	-54.061	-0.240	0.108
-151.633	-133.615	0.475	-0.059
-150.618	441.491	-0.060	-0.131
-149.604	-84.012	0.191	0.060
-148.589	-96.088	-0.100	-0.026
-147.574	-63.551	-0.365	-0.148
-146.560	416.436	0.037	0.078
-145.545	17.273	-0.266	0.209
-144.531	705.937	-0.080	0.210
-143.516	-32.210	-0.117	0.065
-142.502	-2.201	0.286	0.199
-141.487	-64.039	-0.192	0.078
-140.472	-81.799	0.162	0.053
-139.458	-18.904	-0.093	0.057
-138.443	800.000	-0.060	0.177
-137.429	800.000	-0.054	0.190
-136.414	599.580	-0.015	0.037
-135.399	800.000	-0.057	0.234
-134.385	-136.834	-0.187	0.021
-133.370	800.000	-0.127	-0.366
-132.356	-109.756	0.381	0.079
-131.341	521.613	0.052	-0.120
-130.326	-200.000	-0.018	0.238
-129.312	-200.000	-0.100	0.553
-128.297	-200.000	-0.020	-0.125
-127.283	-140.760	0.309	0.032
-126.268	-169.004	-0.091	-0.003
-125.253	-200.000	-0.002	0.443
-124.239	-90.534	0.190	-0.054
-123.224	-119.358	-0.089	-0.015
-122.210	-0.001	-0.260	-0.183
-121.195	800.000	-0.134	0.379
-120.180	-102.578	0.294	-0.069
-119.166	142.099	-0.148	-0.194
-118.151	279.955	-0.055	0.097
-117.137	-28.239	0.172	-0.098
-116.122	800.000	-0.065	-0.208
-115.107	62.894	0.169	0.167
-114.093	-200.000	0.008	-0.151
-113.078	800.000	-0.067	0.252
-112.064	-144.598	0.203	-0.018
-111.049	200.834	-0.201	-0.305
-110.034	-200.000	-0.048	0.262
-109.020	-24.437	0.244	-0.144
-108.005	67.983	0.239	-0.241
-106.991	78.969	0.243	0.257
-105.976	-134.166	0.166	0.020
-104.962	261.504	-0.143	-0.244
-103.947	51.467	0.202	-0.190
-102.932	376.717	0.144	-0.290
-101.918	316.890	-0.142	-0.265
-100.903	98.616	0.008	-0.009
-99.889	-4.199	-0.163	-0.112
-98.874	355.476	-0.150	0.295
-97.859	48.544	0.201	0.186
-96.845	-158.387	0.159	0.009
-95.830	235.714	0.132	0.215
-94.816	308.054	-0.083	-0.153
-93.801	800.000	0.002	-0.008
-92.786	800.000	-0.066	0.192
-91.772	202.132	0.125	0.191
-90.757	15.530	-0.028	-0.022
-89.743	-200.000	-0.049	-0.409
-88.728	38.011	-0.182	-0.159
-87.713	323.635	-0.114	0.215
-86.699	513.733	-0.093	0.214
-85.684	137.085	0.048	0.061
-84.670	-24.142	-0.219	0.129
-83.655	347.081	0.048	0.093
-82.640	-200.000	0.000	-0.040
-81.626	800.000	0.004	-0.017
-80.611	-43.963	0.022	-0.011
-79.597	67.455	0.202	0.204
-78.582	-200.000	0.010	0.397
-77.567	-200.000	0.031	-0.174
-76.553	127.388	0.094	-0.118
-75.538	-200.000	0.027	-0.311
-74.524	-12.808	0.158	-0.102
-73.509	29.962	0.223	0.188
-72.494	62.296	0.064	-0.063
-71.480	-141.323	0.254	-0.025
-70.465	3.616	-0.112	-0.080
-69.451	-200.000	-0.063	0.306
-68.436	800.000	-0.070	0.297
-67.422	38.531	0.214	0.189
-66.407	-100.254	-0.178	0.044
-65.392	-13.620	0.265	-0.169
-64.378	184.411	0.128	-0.187
-63.363	199.844	-0.035	-0.053
-62.349	-200.000	-0.026	0.231
-61.334	-66.765	-0.975	-0.380
-60.319	13.861	0.366	0.280
-59.305	-200.000	0.046	-0.733
-58.290	282.176	0.651	1.150
-57.276	489.535	0.773	1.742
-56.261	-200.000	98.497	582.256
-55.246	643.039	1399.938	3518.501
-54.232	186.224	2617.453	3838.854
-53.217	116.198	2306.022	2784.801
-52.203	44.360	1918.383	1736.264
-51.188	38.100	1705.259	1495.560
-50.173	35.197	1661.012	1434.994
-49.159	52.823	1709.888	1611.460
-48.144	56.102	1727.671	1653.025
-47.130	37.784	1682.999	1473.412
-46.115	34.726	1668.305	1437.518
-45.100	34.634	1663.052	1432.252
-44.086	34.621	1660.715	1430.084
-43.071	34.516	1657.857	1426.776
-42.057	34.553	1655.788	1425.217
-41.042	34.508	1653.628	1422.967
-40.027	34.616	1652.084	1422.386
-39.013	34.579	1649.675	1419.979
-37.998	34.543	1648.047	1418.252
-36.984	34.557	1646.843	1417.267
-35.969	34.740	1644.667	1416.693
-34.954	34.688	1643.153	1414.949
-33.940	34.669	1641.610	1413.422
-32.925	34.594	1640.113	1411.522
-31.911	34.588	1638.468	1410.007
-30.896	34.654	1636.427	1408.681
-29.881	34.690	1634.362	1407.115
-28.867	34.707	1633.329	1406.296
-27.852	34.755	1631.473	1404.996
-26.838	34.683	1629.636	1402.827
-25.823	34.712	1628.293	1401.824
-24.809	34.745	1627.041	1400.934
-23.794	34.760	1625.673	1399.812
-22.779	34.668	1624.710	1398.251
-21.765	34.674	1622.865	1396.651
-20.750	34.698	1621.020	1395.187
-19.736	34.694	1619.857	1394.102
-18.721	34.770	1618.165	1393.145
-17.706	34.749	1616.491	1391.491
-16.692	34.749	1614.660	1389.859
-15.677	34.648	1613.560	1388.125
-14.663	34.743	1612.041	1387.458
-13.648	34.760	1610.605	1386.285
-12.633	34.722	1609.209	1384.752
-11.619	34.668	1607.739	1383.047
-10.604	34.778	1605.843	1382.157
-9.590	34.771	1604.749	1381.107
-8.575	34.711	1603.662	1379.685
-7.560	34.718	1602.436	1378.622
-6.546	34.711	1601.155	1377.414
-5.531	34.723	1600.264	1376.685
-4.517	34.729	1599.085	1375.657
-3.502	34.618	1597.698	1373.608
-2.487	34.762	1596.342	1373.423
-1.473	34.445	1584.493	1360.911
-0.458	31.281	1564.465	1321.317
0.556	29.692	1562.772	1283.071
1.571	26.837	1585.419	1281.412
2.586	25.714	1598.127	1283.561
3.600	22.516	1544.470	1218.279
4.615	13.973	1434.063	1075.999
5.629	6.238	1368.894	979.028
6.644	4.704	1360.607	963.515
7.659	4.772	1359.589	963.136
8.673	4.769	1358.551	962.292
9.688	4.845	1356.816	961.451
10.702	4.822	1354.313	959.449
11.717	8.536	1361.414	987.361
12.731	17.171	1376.994	1052.290
13.746	22.632	1384.743	1092.038
14.761	22.724	1384.001	1091.927
15.775	21.881	1381.819	1084.901
16.790	20.802	1379.350	1076.201
17.804	19.961	1377.229	1069.256
18.819	19.668	1375.704	1066.168
19.834	19.405	1374.812	1063.765
20.848	19.403	1373.522	1062.657
21.863	19.167	1372.333	1060.190
22.877	19.064	1370.965	1058.406
23.892	18.913	1370.548	1057.063
24.907	18.981	1369.532	1056.607
25.921	18.989	1368.490	1055.754
26.936	19.022	1367.471	1055.082
27.950	19.071	1366.302	1054.385
28.965	19.116	1365.970	1054.311
29.980	19.345	1364.226	1054.271
30.994	19.412	1363.402	1053.954
32.009	19.362	1362.505	1052.856
33.023	19.369	1361.009	1051.653
34.038	19.294	1359.784	1050.153
35.053	19.099	1358.606	1047.963
36.067	19.109	1357.746	1047.274
37.082	19.243	1356.447	1046.991
38.096	19.183	1355.612	1045.886
39.111	19.212	1354.834	1045.374
40.126	19.125	1353.759	1043.923
41.140	19.008	1352.705	1042.308
42.155	18.729	1352.409	1040.295
43.169	18.733	1352.448	1040.258
44.184	18.680	1351.608	1039.202
45.199	18.644	1351.606	1038.892
46.213	18.910	1351.007	1039.944
47.228	19.102	1350.024	1040.257
48.242	19.084	1349.524	1039.671
49.257	19.011	1347.889	1037.883
50.271	19.047	1346.377	1036.843
51.286	19.083	1345.347	1036.173
52.301	19.110	1343.621	1034.911
53.315	18.923	1342.601	1032.912
54.330	18.803	1341.442	1031.211
55.344	18.887	1340.118	1030.607
56.359	18.776	1339.416	1029.307
57.374	18.841	1338.389	1028.820
58.388	18.686	1337.983	1027.484
59.403	18.792	1337.263	1027.475
60.417	18.646	1336.471	1025.903
61.432	18.686	1335.614	1025.393
62.447	18.580	1334.672	1023.946
63.461	18.549	1333.270	1022.597
64.476	18.445	1332.078	1020.971
65.490	18.525	1331.621	1021.008
66.505	18.499	1329.952	1019.485
67.520	18.578	1328.792	1018.975
68.534	18.549	1327.738	1017.905
69.549	18.549	1326.231	1016.656
70.563	18.499	1325.766	1015.913
71.578	18.359	1324.372	1013.929
72.593	18.259	1323.717	1012.748
73.607	18.248	1323.211	1012.203
74.622	18.249	1322.464	1011.550
75.636	18.353	1321.343	1011.219
76.651	18.473	1320.302	1011.041
77.666	18.424	1320.078	1010.490
78.680	18.422	1320.306	1010.560
79.695	18.629	1319.161	1010.813
80.709	18.614	1318.792	1010.356
81.724	18.764	1317.487	1010.146
82.739	18.860	1317.127	1010.350
83.753	18.955	1316.225	1010.124
84.768	19.053	1315.330	1009.922
85.782	19.157	1314.683	1009.947
86.797	19.233	1312.815	1008.870
87.812	19.123	1311.840	1007.382
88.826	19.117	1310.415	1006.166
89.841	19.032	1309.954	1005.226
90.855	19.237	1308.588	1005.286
91.870	19.170	1308.146	1004.470
92.884	19.235	1307.310	1004.118
93.899	19.302	1306.359	1003.685
94.914	19.339	1305.795	1003.379
95.928	19.287	1305.011	1002.387
96.943	19.131	1304.573	1001.054
97.957	19.229	1303.048	1000.366
98.972	19.164	1302.285	999.312
99.987	19.253	1300.642	998.479
101.001	19.221	1300.041	997.742
102.016	19.181	1299.189	996.772
103.030	19.176	1298.447	996.084
104.045	19.283	1297.103	995.585
105.060	19.097	1295.788	993.414
106.074	18.827	1294.136	990.500
107.089	18.561	1293.175	988.147
108.103	18.480	1292.126	986.788
109.118	18.527	1290.504	985.736
110.133	18.588	1289.245	985.035
111.147	18.599	1288.332	984.316
112.162	18.545	1286.873	982.805
113.176	18.644	1285.865	982.514
114.191	18.928	1284.260	982.821
115.206	18.726	1283.955	981.348
116.220	18.733	1282.419	980.125
117.235	18.706	1281.584	979.248
118.249	18.667	1280.476	978.091
119.264	18.505	1279.738	976.522
120.279	18.639	1277.750	975.680
121.293	18.629	1276.796	974.809
122.308	18.469	1275.992	973.198
123.322	18.387	1275.013	971.898
124.337	18.364	1273.941	970.869
125.352	18.430	1272.345	969.941
126.366	18.461	1271.506	969.390
127.381	18.521	1270.232	968.671
128.395	18.373	1270.077	967.630
129.410	18.484	1268.933	967.303
130.424	18.636	1268.055	967.404
131.439	18.651	1267.612	967.064
132.454	18.722	1266.631	966.630
133.468	18.872	1265.388	966.436
134.483	18.808	1265.401	966.003
135.497	18.626	1264.605	964.289
136.512	18.847	1262.680	963.971
137.527	18.740	1261.738	962.569
138.541	18.833	1260.254	961.873
139.556	18.946	1258.927	961.405
140.570	18.903	1258.182	960.514
141.585	19.047	1256.793	960.173
142.600	19.139	1255.926	959.938
143.614	19.169	1255.268	959.518
144.629	19.275	1253.916	958.987
145.643	19.160	1253.026	957.582
146.658	19.090	1251.156	955.681
147.673	18.889	1250.358	953.873
148.687	18.881	1248.571	952.376
149.702	18.874	1247.103	951.136
150.716	18.692	1245.869	949.107
151.731	18.669	1244.871	948.131
152.746	18.846	1243.290	947.820
153.760	18.849	1242.424	947.094
154.775	18.981	1241.722	947.203
155.789	19.109	1240.294	946.736
156.804	19.005	1239.582	945.533
157.819	19.086	1238.509	945.078
158.833	19.265	1237.842	945.464
159.848	19.292	1236.881	944.798
160.862	19.161	1236.082	943.386
161.877	19.024	1234.863	941.620
162.892	18.886	1233.165	939.487
163.906	18.759	1232.550	938.243
164.921	18.862	1231.865	938.201
165.935	18.912	1231.259	937.932
166.950	19.002	1230.378	937.665
167.964	19.041	1229.707	937.284
168.979	18.995	1228.886	936.324
169.994	18.887	1228.044	935.016
171.008	18.923	1227.385	934.625
172.023	19.070	1226.514	934.678
173.037	19.163	1225.985	934.696
174.052	19.223	1225.096	934.262
175.067	18.975	1223.611	931.702
176.081	18.913	1222.881	930.726
177.096	18.844	1221.779	929.436
178.110	18.893	1220.882	928.936
179.125	18.988	1219.528	928.335
180.140	18.975	1218.960	927.748
181.154	19.163	1217.485	927.559
182.169	19.259	1216.170	926.992
183.183	19.346	1215.383	926.780
184.198	19.367	1214.298	925.981
185.213	19.223	1213.289	924.355
186.227	19.352	1212.277	924.194
187.242	19.422	1211.126	923.614
188.256	19.424	1210.703	923.216
189.271	19.469	1209.519	922.474
190.286	19.291	1208.427	920.609
191.300	18.917	1207.093	917.515
192.315	18.905	1205.795	916.386
193.329	18.902	1205.618	916.152
194.344	18.930	1205.308	915.984
195.359	18.980	1204.953	915.898
196.373	19.095	1204.017	915.719
197.388	19.329	1203.861	916.766
198.402	19.416	1204.063	917.298
199.417	19.673	1202.934	917.721
200.432	19.682	1202.254	917.173
201.446	19.729	1201.965	917.120
202.461	19.797	1200.914	916.593
203.475	19.831	1199.642	915.723
204.490	19.706	1198.641	914.217
205.504	19.522	1197.161	912.037
206.519	19.463	1196.114	910.848
207.534	19.306	1194.783	908.923
208.548	19.416	1194.104	908.906
209.563	19.464	1193.434	908.567
210.577	19.337	1192.426	907.054
211.592	19.496	1191.609	907.187
212.607	19.734	1190.756	907.709
213.621	19.714	1189.717	906.730
214.636	19.685	1188.830	905.822
215.650	19.630	1188.059	904.866
216.665	19.738	1187.503	904.926
217.680	19.856	1186.968	905.057
218.694	19.923	1185.665	904.333
219.709	19.812	1184.853	903.057
220.723	19.830	1184.270	902.627
221.738	19.691	1183.377	901.137
222.753	19.739	1182.492	900.634
223.767	19.857	1181.752	900.606
224.782	19.916	1181.582	900.704
225.796	20.005	1181.110	900.729
226.811	19.919	1180.039	899.387
227.826	19.823	1179.336	898.271
228.840	19.845	1178.502	897.672
229.855	19.869	1177.758	897.148
230.869	19.733	1176.833	895.660
231.884	19.769	1175.907	895.061
232.899	19.594	1174.890	893.306
233.913	19.688	1174.367	893.314
234.928	19.561	1173.502	891.921
235.942	19.546	1172.982	891.367
236.957	19.616	1171.611	890.609
237.972	19.557	1170.930	889.711
238.986	19.642	1170.412	889.674
240.001	19.705	1169.080	888.908
241.015	19.652	1168.874	888.398
242.030	19.792	1168.215	888.541
243.045	19.767	1167.966	888.144
244.059	19.699	1167.254	887.174
245.074	19.933	1165.503	886.962
246.088	19.965	1165.546	887.082
247.103	19.974	1165.021	886.649
248.117	20.167	1164.281	886.994
249.132	20.253	1163.229	886.556
250.147	20.510	1162.882	887.526
251.161	20.524	1162.788	887.444
252.176	20.515	1162.177	886.856
253.190	20.711	1161.144	886.990
254.205	20.698	1160.716	886.518
255.220	20.669	1160.140	885.852
256.234	20.650	1159.373	885.087
257.249	20.707	1158.596	884.706
258.263	20.677	1158.143	884.130
259.278	20.621	1157.418	883.212
260.293	20.665	1156.996	883.035
261.307	20.754	1156.333	882.903
262.322	20.731	1155.872	882.357
263.336	20.727	1155.281	881.809
264.351	20.724	1154.565	881.167
265.366	20.924	1153.818	881.534
266.380	20.864	1152.712	880.309
267.395	20.818	1152.029	879.477
268.409	20.615	1151.459	877.936
269.424	20.627	1150.677	877.323
270.439	20.599	1150.165	876.713
271.453	20.649	1149.250	876.191
272.468	20.397	1148.124	873.987
273.482	20.481	1147.491	873.850
274.497	20.448	1147.096	873.305
275.512	20.567	1146.329	873.243
276.526	20.583	1145.150	872.349
277.541	20.587	1144.375	871.702
278.555	20.770	1143.530	871.898
279.570	20.777	1143.673	871.961
280.585	20.868	1142.969	871.804
281.599	20.913	1141.974	871.195
282.614	20.760	1140.652	869.346
283.628	20.690	1139.060	867.705
284.643	20.663	1138.715	867.231
285.657	20.568	1138.059	866.180
286.672	20.578	1137.161	865.472
287.687	20.762	1135.791	865.269
288.701	20.787	1135.334	864.965
289.716	20.752	1134.659	864.200
290.730	20.798	1133.922	863.793
291.745	20.796	1133.145	863.114
292.760	20.743	1132.794	862.507
293.774	20.936	1132.135	862.884
294.789	21.068	1131.373	862.879
295.803	21.136	1130.603	862.555
296.818	20.788	1129.923	860.239
297.833	20.684	1129.463	859.300
298.847	20.772	1128.535	858.951
299.862	20.750	1127.664	858.102
300.876	20.848	1127.029	858.025
301.891	20.928	1126.271	857.769
302.906	20.974	1125.964	857.685
303.920	21.187	1125.451	858.266
304.935	21.162	1125.129	857.821
305.949	21.352	1124.025	857.836
306.964	21.283	1123.344	856.900
307.979	21.056	1122.477	855.050
308.993	21.149	1121.783	854.902
310.008	21.156	1121.217	854.429
311.022	21.292	1120.447	854.433
312.037	21.159	1119.804	853.214
313.052	21.231	1118.112	852.203
314.066	20.991	1117.129	850.211
315.081	20.838	1116.677	849.043
316.095	20.767	1116.215	848.271
317.110	20.783	1115.212	847.510
318.125	20.892	1114.680	847.564
319.139	20.719	1113.914	846.063
320.154	20.846	1113.127	846.010
321.168	20.748	1112.730	845.155
322.183	20.939	1112.038	845.484
323.197	20.967	1111.378	845.043
324.212	21.029	1110.521	844.616
325.227	21.054	1110.494	844.642
326.241	21.041	1109.647	843.860
327.256	21.006	1109.033	843.149
328.270	20.901	1107.905	841.709
329.285	20.954	1106.976	841.186
330.300	20.946	1106.064	840.381
331.314	20.929	1105.334	839.667
332.329	20.853	1104.636	838.697
333.343	21.117	1103.487	839.020
334.358	21.322	1102.306	839.031
335.373	21.210	1102.110	838.273
336.387	21.223	1101.334	837.667
337.402	21.274	1100.652	837.321
338.416	21.421	1099.810	837.310
339.431	21.436	1099.468	837.047
340.446	21.509	1099.214	837.128
341.460	21.664	1098.537	837.279
342.475	21.703	1097.638	836.707
343.489	21.769	1096.513	836.089
344.504	21.846	1095.805	835.845
345.519	21.833	1094.857	834.984
346.533	21.753	1094.563	834.309
347.548	21.867	1093.646	834.076
348.562	21.966	1092.458	833.568
349.577	21.654	1091.796	831.504
350.592	21.612	1090.626	830.342
351.606	21.494	1089.699	829.004
352.621	21.381	1089.375	828.149
353.635	21.322	1088.630	827.232
354.650	21.443	1088.027	827.273
355.665	21.403	1087.272	826.436
356.679	21.579	1086.848	826.870
357.694	21.608	1086.285	826.504
358.708	21.708	1085.851	826.574
359.723	21.696	1085.455	826.144
360.738	21.626	1084.713	825.175
361.752	21.590	1084.428	824.718
362.767	21.781	1083.382	824.745
363.781	21.610	1083.178	823.714
364.796	21.807	1082.410	823.984
365.810	21.899	1081.615	823.736
366.825	22.063	1081.538	824.376
367.840	22.133	1081.065	824.268
368.854	22.204	1080.326	823.968
369.869	22.219	1079.415	823.269
370.883	22.048	1078.285	821.532
371.898	22.073	1077.742	821.163
372.913	21.988	1077.246	820.317
373.927	22.070	1076.654	820.175
374.942	22.092	1076.521	820.103
375.956	22.170	1075.523	819.637
376.971	22.045	1075.087	818.649
377.986	22.142	1074.711	818.742
379.000	22.325	1073.963	818.952
380.015	22.425	1073.644	819.102
381.029	22.407	1072.655	818.189
382.044	22.338	1072.465	817.653
383.059	22.307	1071.271	816.528
384.073	22.366	1070.261	815.957
385.088	22.409	1069.587	815.572
386.102	22.410	1068.736	814.854
387.117	22.158	1067.443	812.633
388.132	22.159	1066.616	811.933
389.146	22.122	1066.229	811.397
390.161	21.972	1065.565	810.129
391.175	22.100	1064.352	809.723
392.190	22.205	1063.863	809.764
393.205	22.319	1063.494	809.935
394.219	22.360	1062.361	809.193
395.234	22.262	1061.255	807.826
396.248	22.157	1060.601	806.775
397.263	22.034	1059.743	805.488
398.278	21.936	1058.984	804.388
399.292	22.018	1058.090	804.017
400.307	22.061	1057.067	803.361
401.321	21.991	1056.638	802.644
402.336	21.970	1056.178	802.130
403.350	21.839	1055.807	801.178
404.365	22.029	1055.080	801.425
405.380	22.056	1054.093	800.725
406.394	22.221	1053.176	800.710
407.409	22.327	1052.695	800.756
408.423	22.469	1051.856	800.691
409.438	22.426	1051.659	800.276
410.453	22.462	1050.967	799.841
411.467	22.599	1050.356	799.929
412.482	22.663	1049.749	799.683
413.496	22.673	1049.306	799.324
414.511	22.834	1048.605	799.449
415.526	23.022	1047.759	799.579
416.540	23.002	1047.607	799.304
417.555	22.816	1047.319	798.172
418.569	22.802	1046.744	797.598
419.584	22.900	1045.809	797.259
420.599	22.892	1045.036	796.563
421.613	155.133	1400.617	1791.187
422.628	142.176	1452.409	1791.324
