DTS Sentinel unit serial number:	SN413079Multiplexer serial number:	ORYXHardware model number:	OX4-SRSoftware version number:	ORYX F/W v4.00 Oryx Data Collector v3.7.2.0data status	okinstallation	princeton_trtdifferential loss correction	single-endedforward channel	channel 2reverse channel	N/Adate	2019/09/15time	19:47:35forward acquisition time	60.00reverse acquisition time	0.00gamma	496.2192k internal	0.2324k external	0.2324temperature offset calibration	0.9932default loss term (dB/km)	0.3790temperature slope calibration	1.0000multiplexer offset coefficient	1.0000multiplexer slope coefficient	1.0000fibre end	0.00T internal ref (°C)	36.91T ext. ref 1 (°C)	7.44T ext. ref 2 (°C)	27.01length (m)	temperature (°C)	Stokes	anti-Stokes-747.200	-61.000	0.290	-0.124
-746.185	1.829	0.202	0.147
-745.171	362.622	-0.117	0.238
-744.156	800.000	0.043	0.152
-743.142	800.000	0.054	0.221
-742.127	-84.132	-0.301	0.096
-741.112	-96.390	-0.274	-0.073
-740.098	182.951	-0.115	0.172
-739.083	26.853	0.043	0.036
-738.069	-71.543	-0.192	0.072
-737.054	800.000	-0.027	0.094
-736.039	-200.000	-0.018	0.100
-735.025	-200.000	0.022	0.207
-734.010	735.713	-0.118	0.319
-732.996	254.496	-0.163	-0.281
-731.981	-200.000	-0.002	0.043
-730.966	-42.520	-0.092	0.047
-729.952	42.679	-0.053	0.049
-728.937	-85.618	0.017	0.005
-727.923	-200.000	-0.038	-0.197
-726.908	-200.000	0.008	-0.236
-725.894	-47.452	-0.168	0.082
-724.879	88.758	-0.221	-0.248
-723.864	96.875	0.216	-0.250
-722.850	800.000	-0.077	-0.248
-721.835	-132.295	0.023	0.003
-720.821	752.872	0.044	0.119
-719.806	-158.558	0.338	-0.020
-718.791	72.578	-0.166	0.175
-717.777	-83.785	-0.144	0.046
-716.762	493.390	-0.093	0.216
-715.748	-153.683	0.262	-0.018
-714.733	-144.043	-0.306	0.029
-713.718	-123.849	-0.167	-0.027
-712.704	149.172	0.035	-0.047
-711.689	-38.692	0.047	0.025
-710.675	-94.588	0.161	0.044
-709.660	-1.021	-0.223	-0.159
-708.645	-7.213	-0.213	0.146
-707.631	-71.546	0.160	0.060
-706.616	-41.590	-0.157	-0.081
-705.602	3.073	-0.150	-0.110
-704.587	10.295	-0.070	0.054
-703.572	-200.000	0.043	0.432
-702.558	800.000	0.039	-0.129
-701.543	84.640	0.194	-0.214
-700.529	-21.294	0.294	-0.181
-699.514	19.601	-0.304	-0.246
-698.499	-168.269	0.319	-0.012
-697.485	131.343	-0.198	0.256
-696.470	642.211	-0.046	-0.118
-695.456	-200.000	-0.041	-0.258
-694.441	137.476	0.207	0.273
-693.426	-173.219	-0.103	0.003
-692.412	4.182	-0.208	0.154
-691.397	-200.000	0.029	-0.243
-690.383	800.000	-0.089	0.276
-689.368	152.171	-0.270	0.371
-688.354	-94.566	0.186	0.051
-687.339	32.540	-0.309	-0.269
-686.324	-200.000	-0.184	-0.001
-685.310	43.963	-0.394	-0.364
-684.295	-200.000	-0.011	0.217
-683.281	-103.184	-0.196	0.047
-682.266	523.625	-0.119	-0.282
-681.251	154.929	-0.135	0.187
-680.237	800.000	0.093	-0.281
-679.222	-101.995	-0.258	-0.063
-678.208	-172.273	-0.195	0.006
-677.193	149.654	-0.117	0.160
-676.178	-200.000	-0.032	-0.220
-675.164	97.651	-0.170	-0.197
-674.149	-200.000	-0.015	0.187
-673.135	800.000	-0.082	-0.247
-672.120	-115.638	0.062	0.012
-671.105	-62.831	0.258	-0.107
-670.091	-88.352	-0.307	0.092
-669.076	-200.000	0.018	-0.476
-668.062	-97.646	0.171	0.045
-667.047	-200.000	-0.064	-0.533
-666.032	-99.212	0.024	-0.006
-665.018	694.737	0.116	0.305
-664.003	-50.714	0.035	-0.017
-662.989	32.633	-0.193	-0.168
-661.974	-132.973	-0.167	-0.021
-660.959	-143.845	-0.152	0.014
-659.945	-45.251	-0.173	-0.087
-658.930	-200.000	-0.029	0.264
-657.916	151.477	0.041	-0.056
-656.901	800.000	0.068	-0.211
-655.886	-115.983	-0.239	-0.045
-654.872	-54.350	-0.191	-0.087
-653.857	800.000	0.083	-0.300
-652.843	8.523	0.319	-0.241
-651.828	76.694	-0.298	-0.318
-650.814	800.000	0.041	0.123
-649.799	-112.340	-0.140	0.028
-648.784	25.361	-0.238	0.199
-647.770	-172.320	0.062	0.002
-646.755	800.000	-0.036	-0.118
-645.741	-78.518	0.429	-0.148
-644.726	30.003	-0.202	0.173
-643.711	-50.126	0.399	-0.190
-642.697	-200.000	0.019	0.173
-641.682	83.181	-0.084	0.091
-640.668	-81.687	-0.342	-0.113
-639.653	-65.078	-0.115	-0.047
-638.638	-25.490	-0.372	-0.221
-637.624	41.731	-0.301	0.275
-636.609	-200.000	0.003	-0.230
-635.595	20.019	-0.120	-0.097
-634.580	257.181	-0.193	-0.333
-633.565	42.284	0.158	0.145
-632.551	-96.190	-0.060	0.016
-631.536	23.609	0.118	-0.097
-630.522	151.159	0.065	-0.089
-629.507	63.924	-0.196	-0.198
-628.492	-186.546	-0.255	-0.004
-627.478	800.000	0.093	-0.357
-626.463	-40.692	0.137	0.071
-625.449	743.721	-0.069	-0.186
-624.434	800.000	0.017	0.059
-623.419	800.000	0.092	0.347
-622.405	38.558	0.126	0.113
-621.390	-39.777	0.254	0.133
-620.376	739.616	-0.101	0.272
-619.361	800.000	-0.050	-0.182
-618.346	-188.379	-0.254	-0.003
-617.332	437.791	-0.078	-0.170
-616.317	114.464	0.152	-0.186
-615.303	-84.254	-0.167	-0.053
-614.288	207.033	-0.195	-0.305
-613.273	18.833	-0.267	-0.215
-612.259	800.000	-0.067	-0.199
-611.244	-200.000	0.024	-0.176
-610.230	-53.364	-0.223	0.103
-609.215	-148.561	-0.239	0.020
-608.201	-200.000	-0.040	-0.384
-607.186	-48.019	0.278	-0.135
-606.171	209.809	0.012	-0.018
-605.157	800.000	0.024	0.076
-604.142	-50.866	0.236	-0.111
-603.128	720.437	0.090	0.241
-602.113	-8.059	0.148	-0.100
-601.098	-27.183	-0.158	0.092
-600.084	218.951	0.132	0.212
-599.069	-200.000	0.039	-0.274
-598.055	800.000	-0.091	-0.352
-597.040	-87.196	-0.192	0.059
-596.025	-117.080	-0.252	0.046
-595.011	592.189	0.074	0.183
-593.996	-80.098	0.278	-0.094
-592.982	-74.914	0.255	0.092
-591.967	-53.215	0.211	-0.097
-590.952	345.152	-0.115	0.227
-589.938	722.754	0.074	-0.199
-588.923	210.437	0.071	0.111
-587.909	-41.774	-0.344	-0.177
-586.894	-46.073	-0.141	-0.070
-585.879	175.892	0.028	0.041
-584.865	-122.194	-0.073	0.012
-583.850	432.356	0.137	-0.297
-582.836	0.246	-0.114	0.081
-581.821	32.134	-0.125	0.109
-580.806	-148.872	0.431	-0.035
-579.792	-3.349	0.343	-0.240
-578.777	708.285	-0.056	-0.147
-577.763	84.934	0.223	-0.245
-576.748	426.655	0.103	-0.223
-575.733	-95.625	-0.238	-0.064
-574.719	-200.000	-0.008	-0.290
-573.704	-200.000	0.045	-0.225
-572.690	208.921	0.118	-0.186
-571.675	-200.000	0.032	-0.279
-570.661	30.705	0.138	0.118
-569.646	91.795	-0.271	-0.305
-568.631	-49.561	0.189	-0.090
-567.617	-16.983	-0.119	0.075
-566.602	7.516	-0.015	0.011
-565.588	33.069	0.105	0.091
-564.573	-0.109	-0.054	-0.038
-563.558	13.099	-0.172	0.134
-562.544	-200.000	0.014	-0.178
-561.529	-5.904	0.430	-0.295
-560.515	800.000	-0.190	-0.645
-559.500	-106.902	-0.152	0.034
-558.485	78.521	0.112	0.120
-557.471	-177.085	0.205	-0.005
-556.456	36.025	0.186	0.164
-555.442	423.713	-0.069	-0.148
-554.427	100.988	0.142	0.166
-553.412	101.787	0.110	0.128
-552.398	800.000	0.081	-0.267
-551.383	-200.000	0.002	0.156
-550.369	459.168	0.127	0.284
-549.354	800.000	-0.104	-0.346
-548.339	-94.876	-0.079	-0.021
-547.325	83.840	-0.184	0.202
-546.310	-200.000	0.024	0.438
-545.296	-200.000	-0.022	0.254
-544.281	-167.845	-0.097	-0.004
-543.266	-7.447	-0.206	0.140
-542.252	-200.000	0.007	0.350
-541.237	5.505	-0.126	0.093
-540.223	-95.123	-0.151	0.041
-539.208	-200.000	0.013	0.278
-538.193	47.570	-0.244	0.228
-537.179	-200.000	-0.055	0.429
-536.164	-122.879	-0.148	0.024
-535.150	339.538	-0.143	0.280
-534.135	9.599	-0.036	-0.027
-533.121	-82.798	-0.255	0.083
-532.106	65.934	-0.132	-0.134
-531.091	-91.517	-0.115	0.033
-530.077	171.073	-0.078	0.112
-529.062	-116.979	-0.366	-0.067
-528.048	50.358	0.130	-0.123
-527.033	92.447	-0.054	0.061
-526.018	-200.000	0.061	0.355
-525.004	-60.311	0.039	0.017
-523.989	3.199	-0.186	0.135
-522.975	308.026	-0.133	0.249
-521.960	800.000	0.100	0.305
-520.945	-128.881	-0.218	0.031
-519.931	-130.288	-0.258	0.035
-518.916	632.600	-0.043	0.109
-517.902	10.242	-0.207	0.158
-516.887	-200.000	-0.000	0.017
-515.872	-68.764	0.170	0.066
-514.858	-52.747	-0.091	-0.042
-513.843	76.277	-0.219	-0.232
-512.829	-200.000	-0.029	-0.139
-511.814	-164.879	-0.094	0.004
-510.799	-200.000	0.012	0.173
-509.785	-29.472	0.283	0.162
-508.770	800.000	-0.104	-0.286
-507.756	106.181	0.169	-0.201
-506.741	-70.109	0.260	-0.099
-505.726	-38.083	-0.355	-0.189
-504.712	-0.938	0.144	-0.102
-503.697	-167.021	-0.107	0.004
-502.683	594.795	-0.105	-0.259
-501.668	7.084	-0.088	0.066
-500.653	75.386	0.138	-0.145
-499.639	-88.912	0.321	0.095
-498.624	335.454	-0.047	-0.091
-497.610	-200.000	-0.075	-0.409
-496.595	126.729	-0.126	-0.159
-495.581	-163.923	-0.128	0.006
-494.566	525.634	0.050	-0.118
-493.551	-51.617	-0.113	0.053
-492.537	86.279	0.070	0.077
-491.522	701.019	0.067	0.177
-490.508	800.000	-0.128	0.360
-489.493	-57.133	0.317	0.140
-488.478	-9.019	0.181	-0.121
-487.464	-200.000	0.047	-0.312
-486.449	-35.982	-0.073	-0.039
-485.435	433.273	0.030	0.066
-484.420	118.977	0.227	0.280
-483.405	382.815	0.048	0.098
-482.391	-200.000	0.008	0.272
-481.376	-141.701	-0.236	-0.024
-480.362	233.826	-0.088	-0.145
-479.347	-145.189	-0.199	-0.018
-478.332	308.415	-0.040	-0.075
-477.318	287.757	0.070	-0.126
-476.303	21.135	-0.042	0.034
-475.289	-88.497	-0.203	-0.060
-474.274	-63.979	0.062	0.025
-473.259	-200.000	-0.007	0.326
-472.245	6.007	0.291	-0.215
-471.230	108.462	0.133	-0.158
-470.216	-63.322	0.237	0.097
-469.201	-200.000	-0.016	-0.087
-468.186	302.998	0.153	-0.283
-467.172	-74.152	-0.316	0.114
-466.157	56.022	0.196	0.190
-465.143	-86.155	0.156	0.048
-464.128	-18.373	0.168	0.105
-463.113	-200.000	-0.004	0.066
-462.099	59.390	-0.338	0.332
-461.084	148.205	0.045	-0.060
-460.070	-102.674	-0.271	0.064
-459.055	458.036	-0.034	-0.076
-458.040	198.226	0.189	0.289
-457.026	-54.740	0.176	-0.079
-456.011	355.435	0.057	-0.114
-454.997	19.136	0.207	0.165
-453.982	297.104	0.046	-0.085
-452.968	800.000	0.157	-0.440
-451.953	-177.836	-0.293	0.007
-450.938	356.913	-0.041	0.082
-449.924	-27.455	-0.248	-0.144
-448.909	-6.097	0.076	-0.052
-447.895	612.150	0.088	0.219
-446.880	-101.726	-0.217	0.053
-445.865	113.182	0.135	-0.163
-444.851	69.231	-0.257	0.263
-443.836	187.012	0.253	0.377
-442.822	-188.460	0.198	-0.002
-441.807	350.791	0.158	-0.311
-440.792	-126.419	-0.515	0.076
-439.778	217.147	-0.060	-0.095
-438.763	114.307	0.036	0.044
-437.749	-92.466	0.295	-0.083
-436.734	-121.128	-0.355	0.059
-435.719	-200.000	-0.003	-0.346
-434.705	-93.261	0.373	0.103
-433.690	-36.952	0.209	0.111
-432.676	46.381	-0.191	0.176
-431.661	-48.668	-0.126	0.061
-430.646	-125.113	0.191	0.029
-429.632	-79.155	0.312	-0.106
-428.617	40.451	0.268	0.240
-427.603	638.678	-0.031	-0.078
-426.588	-23.055	-0.087	-0.052
-425.573	-45.032	0.255	-0.127
-424.559	-27.103	0.258	-0.150
-423.544	-79.835	-0.130	-0.044
-422.530	318.601	0.241	0.455
-421.515	-200.000	-0.001	-0.035
-420.500	147.822	0.008	-0.010
-419.486	-134.043	0.145	0.018
-418.471	573.277	-0.087	-0.212
-417.457	-143.357	0.412	0.039
-416.442	-104.114	0.013	-0.003
-415.428	-100.491	0.284	-0.070
-414.413	-200.000	-0.035	0.257
-413.398	-200.000	-0.021	0.255
-412.384	-34.706	-0.120	0.065
-411.369	360.516	-0.135	-0.269
-410.355	-161.120	-0.240	0.013
-409.340	-200.000	-0.157	-0.716
-408.325	-71.189	0.142	-0.053
-407.311	-152.116	0.055	-0.004
-406.296	428.305	0.085	-0.183
-405.282	-131.604	0.178	-0.023
-404.267	-52.387	0.249	-0.115
-403.252	132.466	-0.147	0.188
-402.238	22.684	0.123	0.100
-401.223	800.000	-0.060	0.192
-400.209	-200.000	0.001	-0.072
-399.194	-90.669	0.086	0.025
-398.179	126.445	0.115	-0.145
-397.165	-143.046	0.172	0.017
-396.150	-118.810	0.178	-0.031
-395.136	-167.309	0.209	-0.008
-394.121	-200.000	0.043	-0.434
-393.106	6.710	-0.061	-0.045
-392.092	-200.000	0.005	-0.175
-391.077	-200.000	-0.001	0.064
-390.063	-200.000	-0.009	-0.254
-389.048	247.077	-0.049	0.082
-388.033	730.674	-0.140	-0.373
-387.019	-167.630	-0.546	-0.022
-386.004	183.182	-0.095	-0.139
-384.990	-47.856	0.201	0.097
-383.975	93.346	0.065	0.073
-382.960	-200.000	-0.017	0.192
-381.946	-54.322	-0.234	0.106
-380.931	78.701	-0.041	0.044
-379.917	-73.477	0.032	0.011
-378.902	-200.000	-0.001	0.149
-377.888	325.673	-0.189	-0.360
-376.873	91.728	-0.279	0.312
-375.858	205.882	-0.100	-0.155
-374.844	37.310	0.165	-0.146
-373.829	-44.032	0.247	-0.124
-372.815	7.870	-0.113	-0.084
-371.800	745.597	0.082	0.219
-370.785	108.988	0.138	0.164
-369.771	-78.618	0.170	0.058
-368.756	-49.875	0.054	-0.026
-367.742	203.023	-0.044	0.068
-366.727	82.972	-0.120	-0.130
-365.712	178.090	-0.055	-0.079
-364.698	67.384	-0.198	0.201
-363.683	-119.160	0.142	-0.025
-362.669	-16.162	0.139	0.088
-361.654	52.417	0.289	-0.274
-360.639	-31.874	0.393	0.219
-359.625	-132.444	-0.247	0.032
-358.610	154.359	0.174	-0.238
-357.596	52.742	-0.155	0.147
-356.581	311.433	0.087	-0.162
-355.566	114.092	0.289	0.350
-354.552	-122.425	-0.104	-0.017
-353.537	371.644	0.055	0.112
-352.523	-150.577	0.454	0.034
-351.508	-155.726	-0.106	0.007
-350.493	-200.000	0.029	0.160
-349.479	164.412	-0.083	-0.117
-348.464	326.107	-0.138	-0.262
-347.450	800.000	-0.061	-0.266
-346.435	-70.465	-0.105	-0.039
-345.420	-189.873	0.136	0.002
-344.406	12.001	-0.328	0.251
-343.391	34.004	0.116	0.101
-342.377	-148.228	0.153	0.013
-341.362	800.000	0.015	0.049
-340.348	-29.232	0.138	-0.078
-339.333	-67.349	-0.386	-0.151
-338.318	-200.000	-0.040	0.443
-337.304	-200.000	-0.000	-0.106
-336.289	146.743	-0.084	0.113
-335.275	-108.070	0.398	0.086
-334.260	-50.846	0.039	-0.018
-333.245	800.000	-0.020	0.072
-332.231	27.893	-0.416	0.348
-331.216	800.000	-0.029	0.091
-330.202	800.000	0.040	0.128
-329.187	377.750	-0.134	-0.271
-328.172	-53.781	-0.157	-0.071
-327.158	11.331	0.202	-0.154
-326.143	194.808	0.104	-0.157
-325.129	-25.433	-0.189	0.111
-324.114	800.000	0.036	-0.103
-323.099	-200.000	-0.019	-0.089
-322.085	-200.000	-0.037	0.182
-321.070	-87.724	0.327	0.098
-320.056	-146.650	0.129	-0.011
-319.041	-122.979	-0.250	-0.040
-318.026	-24.133	0.231	-0.137
-317.012	172.585	0.102	-0.146
-315.997	197.547	0.089	-0.134
-314.983	-117.645	-0.119	-0.021
-313.968	149.832	-0.088	-0.118
-312.953	3.732	-0.235	0.170
-311.939	751.581	0.039	0.106
-310.924	-157.651	-0.161	0.010
-309.910	-72.995	-0.089	-0.033
-308.895	-20.482	-0.080	0.049
-307.880	26.337	0.098	-0.081
-306.866	-113.344	-0.356	0.069
-305.851	-200.000	0.064	0.370
-304.837	155.369	0.224	0.306
-303.822	252.764	-0.144	0.244
-302.807	-68.812	-0.234	0.090
-301.793	-129.808	0.476	-0.065
-300.778	-71.805	0.196	0.072
-299.764	-117.012	-0.086	0.015
-298.749	-36.451	0.062	-0.033
-297.735	149.415	0.119	-0.160
-296.720	-130.028	0.118	-0.016
-295.705	406.741	-0.148	0.310
-294.691	-109.091	0.100	-0.021
-293.676	306.095	0.166	0.307
-292.662	220.249	-0.084	-0.134
-291.647	800.000	0.091	0.321
-290.632	-200.000	0.008	0.102
-289.618	17.818	-0.328	-0.259
-288.603	152.446	-0.051	0.069
-287.589	-72.689	0.104	0.038
-286.574	-78.547	-0.216	-0.073
-285.559	-148.947	-0.276	-0.022
-284.545	110.470	0.066	-0.079
-283.530	-200.000	-0.012	-0.181
-282.516	411.427	-0.117	-0.247
-281.501	-29.716	-0.174	-0.098
-280.486	-129.942	-0.261	-0.035
-279.472	-200.000	0.022	0.294
-278.457	-121.121	0.156	-0.026
-277.443	256.082	0.134	0.228
-276.428	-131.028	0.282	-0.037
-275.413	-20.477	-0.240	-0.146
-274.399	283.768	-0.120	-0.214
-273.384	-79.866	0.132	0.044
-272.370	800.000	0.032	0.122
-271.355	800.000	0.032	-0.100
-270.340	-64.454	0.107	0.043
-269.326	81.540	0.060	0.064
-268.311	-200.000	0.004	-0.045
-267.297	-88.010	0.291	-0.087
-266.282	17.578	0.170	0.134
-265.267	-165.150	-0.181	0.008
-264.253	-47.850	0.265	0.127
-263.238	-63.054	0.144	0.059
-262.224	-200.000	-0.050	0.358
-261.209	279.754	-0.132	-0.233
-260.195	-54.464	-0.268	-0.120
-259.180	-62.240	0.191	-0.079
-258.165	800.000	-0.010	0.039
-257.151	-55.891	-0.040	-0.018
-256.136	-200.000	-0.034	-0.381
-255.122	-20.118	-0.047	0.028
-254.107	-200.000	0.021	0.101
-253.092	239.048	0.049	-0.080
-252.078	100.790	0.119	0.137
-251.063	-101.595	-0.344	0.083
-250.049	208.871	0.042	0.065
-249.034	-68.900	0.119	0.046
-248.019	-200.000	0.034	0.503
-247.005	-73.671	0.244	-0.088
-245.990	81.182	-0.211	0.225
-244.976	-110.026	0.266	-0.055
-243.961	386.593	0.107	-0.218
-242.946	-21.993	0.248	0.149
-241.932	100.487	0.126	-0.145
-240.917	-17.155	0.041	-0.026
-239.903	148.798	-0.168	0.225
-238.888	-135.179	0.133	-0.016
-237.873	-160.209	-0.256	0.014
-236.859	-200.000	0.011	0.057
-235.844	149.876	0.069	-0.093
-234.830	101.793	-0.147	-0.170
-233.815	27.653	0.138	-0.115
-232.800	-24.892	-0.230	0.135
-231.786	434.825	0.041	0.088
-230.771	-145.997	0.096	0.008
-229.757	72.083	0.154	-0.158
-228.742	236.591	-0.074	-0.122
-227.727	-200.000	-0.019	0.238
-226.713	-200.000	0.022	0.102
-225.698	45.278	-0.106	0.097
-224.684	-46.502	-0.201	0.098
-223.669	-50.279	0.331	0.155
-222.655	-200.000	-0.034	0.259
-221.640	235.898	-0.203	-0.333
-220.625	365.370	0.045	-0.090
-219.611	7.729	0.137	-0.101
-218.596	-117.006	0.112	-0.020
-217.582	800.000	0.028	0.098
-216.567	-129.175	-0.598	0.083
-215.552	800.000	-0.055	-0.189
-214.538	-39.932	0.006	0.003
-213.523	-86.358	-0.298	0.091
-212.509	46.357	0.126	0.116
-211.494	329.249	-0.030	0.057
-210.479	-200.000	0.050	0.238
-209.465	800.000	0.105	0.307
-208.450	-56.773	0.134	0.059
-207.436	-82.268	0.201	0.065
-206.421	7.832	0.274	-0.203
-205.406	194.773	-0.022	-0.034
-204.392	-115.206	0.190	0.036
-203.377	-16.608	-0.230	0.144
-202.363	587.625	-0.107	-0.260
-201.348	-58.450	0.184	-0.079
-200.333	-192.127	-0.163	0.002
-199.319	800.000	-0.124	-0.351
-198.304	-55.922	0.292	0.129
-197.290	-200.000	-0.029	0.173
-196.275	-97.361	-0.355	0.091
-195.260	275.507	0.044	-0.078
-194.246	800.000	0.028	0.113
-193.231	-160.374	-0.041	-0.002
-192.217	98.459	-0.093	0.106
-191.202	74.625	0.378	0.392
-190.187	-101.511	-0.138	-0.033
-189.173	-77.919	0.074	0.025
-188.158	-31.566	-0.335	-0.186
-187.144	-55.039	-0.191	-0.085
-186.129	-200.000	-0.021	0.151
-185.114	-38.750	0.143	-0.075
-184.100	-138.532	0.330	0.036
-183.085	-112.595	0.039	0.008
-182.071	-63.294	0.302	-0.123
-181.056	-36.024	-0.190	0.102
-180.042	-147.492	0.310	0.026
-179.027	800.000	0.055	-0.197
-178.012	-75.450	-0.239	-0.084
-176.998	-34.996	0.084	0.045
-175.983	800.000	0.066	-0.221
-174.969	345.927	0.056	0.108
-173.954	-200.000	-0.049	0.549
-172.939	-123.208	0.294	-0.047
-171.925	800.000	-0.086	-0.281
-170.910	-200.000	-0.062	0.389
-169.896	800.000	-0.146	-0.434
-168.881	251.161	0.129	-0.216
-167.866	433.831	0.141	0.303
-166.852	-138.629	-0.243	0.026
-165.837	-117.759	-0.186	-0.033
-164.823	-101.438	-0.555	-0.133
-163.808	-56.871	0.130	0.057
-162.793	-200.000	-0.020	-0.094
-161.779	79.036	0.141	0.149
-160.764	-200.000	0.026	-0.205
-159.750	19.518	-0.310	0.246
-158.735	800.000	-0.066	0.285
-157.720	-200.000	-0.058	-0.273
-156.706	34.884	-0.138	0.119
-155.691	-132.221	0.382	0.049
-154.677	-19.386	0.008	0.005
-153.662	-200.000	-0.039	0.201
-152.647	78.712	0.048	-0.051
-151.633	268.395	-0.196	-0.340
-150.618	6.744	-0.164	-0.120
-149.604	-127.686	-0.133	0.019
-148.589	-4.049	0.312	0.213
-147.574	224.901	0.090	0.144
-146.560	6.702	0.022	-0.016
-145.545	19.392	-0.223	0.177
-144.531	-46.699	-0.294	-0.142
-143.516	-200.000	0.042	-0.207
-142.502	276.829	0.176	-0.309
-141.487	198.310	0.210	0.316
-140.472	-200.000	-0.021	-0.202
-139.458	-152.277	0.107	-0.008
-138.443	-159.873	0.315	-0.017
-137.429	-0.064	0.124	0.087
-136.414	-69.912	0.190	-0.071
-135.399	-77.235	0.090	0.031
-134.385	-88.861	0.262	0.077
-133.370	1.049	-0.300	0.212
-132.356	800.000	0.066	-0.226
-131.341	-119.060	-0.106	0.018
-130.326	-200.000	-0.029	-0.195
-129.312	-118.544	0.177	0.031
-128.297	127.254	-0.165	0.207
-127.283	44.251	0.101	-0.091
-126.268	-200.000	0.050	-0.469
-125.253	533.414	0.089	-0.208
-124.239	-200.000	0.019	-0.103
-123.224	-200.000	0.060	-0.348
-122.210	-155.886	-0.200	-0.013
-121.195	-69.584	0.445	0.168
-120.180	-70.621	-0.222	0.083
-119.166	-27.817	0.275	-0.157
-118.151	-103.920	0.451	0.104
-117.137	557.209	0.102	0.243
-116.122	-80.961	-0.008	0.003
-115.107	-165.491	0.064	-0.003
-114.093	637.997	0.150	0.375
-113.078	-38.309	-0.242	0.126
-112.064	-13.262	0.347	-0.222
-111.049	171.730	0.076	0.107
-110.034	800.000	0.072	-0.273
-109.020	-200.000	0.028	-0.423
-108.005	-200.000	-0.063	-0.513
-106.991	-42.401	-0.249	-0.125
-105.976	800.000	0.025	0.080
-104.962	130.615	-0.149	-0.188
-103.947	-25.797	0.162	-0.094
-102.932	-101.138	0.197	0.047
-101.918	533.919	0.094	0.219
-100.903	-90.183	-0.225	-0.064
-99.889	71.756	-0.093	-0.095
-98.874	349.520	0.072	-0.141
-97.859	-200.000	0.335	0.001
-96.845	10.787	0.254	-0.191
-95.830	-106.072	0.261	-0.058
-94.816	47.314	0.226	-0.207
-93.801	79.222	0.105	0.110
-92.786	33.437	0.202	-0.172
-91.772	-43.518	-0.149	0.074
-90.757	800.000	-0.025	0.096
-89.743	-200.000	0.034	0.215
-88.728	327.968	-0.139	0.262
-87.713	487.302	-0.071	0.159
-86.699	84.946	-0.102	0.110
-85.684	-2.676	0.198	-0.136
-84.670	-8.172	0.165	0.109
-83.655	-200.000	-0.054	0.240
-82.640	300.927	-0.398	0.722
-81.626	-25.966	0.159	-0.092
-80.611	36.228	-0.217	0.188
-79.597	-200.000	-0.033	-0.235
-78.582	-86.537	-0.083	0.025
-77.567	43.048	0.125	0.112
-76.553	-108.236	0.309	0.066
-75.538	205.072	-0.111	-0.170
-74.524	16.590	0.203	0.158
-73.509	42.179	0.209	0.187
-72.494	-34.776	0.122	0.065
-71.480	-21.685	0.154	-0.092
-70.465	-128.248	0.022	0.003
-69.451	-70.685	-0.257	0.095
-68.436	58.145	-0.145	-0.140
-67.422	203.401	0.115	-0.175
-66.407	173.296	0.047	-0.067
-65.392	-143.704	0.222	-0.021
-64.378	-98.877	0.323	0.081
-63.363	-69.989	-0.302	-0.113
-62.349	-200.000	0.009	-0.058
-61.334	66.810	-0.817	-0.817
-60.319	259.338	0.449	0.761
-59.305	-200.000	0.037	-0.704
-58.290	96.657	0.986	1.110
-57.276	-200.000	0.373	1.795
-56.261	-200.000	93.981	552.426
-55.246	540.944	1379.342	3228.224
-54.232	154.151	2579.854	3477.339
-53.217	111.854	2296.987	2725.122
-52.203	46.838	1915.958	1749.302
-51.188	40.308	1706.411	1508.391
-50.173	37.395	1662.043	1447.464
-49.159	53.919	1710.005	1614.378
-48.144	57.592	1727.472	1658.509
-47.130	39.913	1684.371	1485.708
-46.115	36.950	1669.664	1450.535
-45.100	36.840	1664.414	1445.103
-44.086	36.711	1661.817	1441.823
-43.071	36.731	1658.489	1439.034
-42.057	36.743	1656.382	1437.234
-41.042	36.857	1654.433	1436.331
-40.027	36.754	1652.498	1433.832
-39.013	36.771	1650.424	1432.098
-37.998	36.809	1649.095	1431.169
-36.984	36.821	1647.512	1429.827
-35.969	36.857	1646.484	1429.149
-34.954	36.974	1644.506	1428.237
-33.940	36.852	1642.871	1425.858
-32.925	36.887	1641.377	1424.764
-31.911	36.863	1639.512	1422.911
-30.896	36.859	1637.613	1421.180
-29.881	36.830	1635.858	1419.386
-28.867	36.865	1634.307	1418.240
-27.852	36.783	1633.143	1416.573
-26.838	36.941	1631.440	1416.197
-25.823	36.942	1630.206	1415.079
-24.809	36.997	1628.376	1413.830
-23.794	36.899	1627.286	1412.119
-22.779	36.971	1625.793	1411.287
-21.765	36.926	1623.785	1409.163
-20.750	36.861	1622.567	1407.578
-19.736	36.915	1621.344	1406.853
-18.721	36.905	1620.090	1405.636
-17.706	36.880	1618.514	1404.035
-16.692	36.971	1616.606	1402.977
-15.677	36.996	1615.125	1401.820
-14.663	36.997	1613.944	1400.747
-13.648	37.006	1612.510	1399.512
-12.633	36.987	1610.893	1397.916
-11.619	36.920	1609.530	1396.191
-10.604	37.012	1607.743	1395.253
-9.590	36.974	1606.583	1393.917
-8.575	37.030	1605.351	1393.196
-7.560	36.966	1604.228	1391.702
-6.546	36.912	1603.314	1390.469
-5.531	36.890	1602.516	1389.564
-4.517	36.975	1601.023	1388.823
-3.502	36.950	1600.281	1387.948
-2.487	36.939	1598.278	1386.076
-1.473	36.269	1586.011	1370.621
-0.458	32.031	1562.444	1320.465
0.556	24.076	1558.636	1271.689
1.571	20.701	1579.670	1264.259
2.586	19.576	1591.670	1265.509
3.600	17.877	1542.058	1213.887
4.615	13.250	1440.079	1102.711
5.629	8.621	1378.961	1026.189
6.644	7.576	1371.041	1013.538
7.659	7.416	1369.792	1011.507
8.673	7.440	1368.494	1010.608
9.688	7.338	1366.943	1008.726
10.702	7.131	1363.998	1005.150
11.717	9.365	1367.313	1021.706
12.731	14.113	1375.598	1058.080
13.746	17.008	1380.878	1080.515
14.761	16.997	1378.869	1078.772
15.775	15.946	1376.232	1069.946
16.790	14.814	1373.564	1060.594
17.804	14.038	1371.407	1053.916
18.819	13.615	1369.942	1050.018
19.834	13.254	1368.319	1046.393
20.848	13.065	1367.220	1044.269
21.863	12.857	1365.836	1041.804
22.877	12.728	1364.585	1039.943
23.892	12.617	1363.906	1038.630
24.907	12.707	1362.922	1038.360
25.921	12.677	1362.031	1037.400
26.936	12.688	1361.587	1037.038
27.950	12.720	1360.605	1036.397
28.965	12.760	1359.284	1035.556
29.980	12.851	1357.803	1034.904
30.994	12.914	1356.863	1034.493
32.009	12.933	1355.636	1033.586
33.023	12.982	1354.038	1032.581
34.038	12.848	1353.047	1030.897
35.053	12.941	1351.324	1030.076
36.067	12.810	1350.802	1028.769
37.082	12.886	1349.109	1027.859
38.096	12.896	1348.351	1027.253
39.111	12.816	1347.835	1026.271
40.126	12.763	1347.250	1025.405
41.140	12.682	1346.052	1023.902
42.155	12.606	1345.680	1023.052
43.169	12.469	1345.739	1022.154
44.184	12.585	1345.260	1022.421
45.199	12.629	1344.507	1022.035
46.213	12.694	1343.996	1021.959
47.228	12.758	1343.146	1021.620
48.242	12.783	1342.017	1020.820
49.257	12.742	1340.527	1019.348
50.271	12.751	1339.000	1018.148
51.286	12.712	1337.497	1016.675
52.301	12.710	1336.175	1015.572
53.315	12.730	1334.781	1014.544
54.330	12.678	1334.206	1013.694
55.344	12.573	1333.176	1012.180
56.359	12.659	1331.750	1011.535
57.374	12.523	1331.013	1010.049
58.388	12.539	1330.563	1009.718
59.403	12.544	1329.787	1009.067
60.417	12.598	1328.848	1008.597
61.432	12.516	1328.295	1007.586
62.447	12.449	1327.534	1006.511
63.461	12.477	1325.878	1005.335
64.476	12.549	1324.576	1004.699
65.490	12.520	1323.387	1003.534
66.505	12.490	1322.035	1002.238
67.520	12.487	1321.256	1001.537
68.534	12.493	1320.389	1000.830
69.549	12.439	1319.185	999.503
70.563	12.479	1318.299	998.983
71.578	12.497	1316.621	997.731
72.593	12.395	1315.937	996.510
73.607	12.369	1315.081	995.615
74.622	12.376	1314.233	994.925
75.636	12.309	1313.720	994.046
76.651	12.342	1313.196	993.758
77.666	12.379	1312.721	993.537
78.680	12.481	1312.028	993.542
79.695	12.520	1311.079	992.969
80.709	12.600	1310.535	992.953
81.724	12.546	1310.070	992.186
82.739	12.662	1308.939	991.942
83.753	12.626	1308.062	990.971
84.768	12.754	1307.387	991.140
85.782	12.747	1306.198	990.111
86.797	12.785	1304.475	988.943
87.812	12.694	1303.431	987.522
88.826	12.724	1302.232	986.708
89.841	12.743	1300.833	985.670
90.855	12.854	1299.954	985.581
91.870	12.774	1299.364	984.566
92.884	12.806	1298.552	984.060
93.899	12.836	1297.837	983.609
94.914	12.903	1296.990	983.280
95.928	12.964	1296.312	983.040
96.943	12.872	1295.015	981.425
97.957	12.809	1294.410	980.504
98.972	12.766	1293.784	979.682
99.987	12.848	1292.441	979.071
101.001	12.730	1291.366	977.469
102.016	12.798	1290.252	976.941
103.030	12.757	1289.604	976.121
104.045	12.879	1288.221	975.709
105.060	12.816	1287.121	974.418
106.074	12.741	1285.578	972.719
107.089	12.565	1283.969	970.379
108.103	12.561	1283.139	969.645
109.118	12.622	1282.078	969.115
110.133	12.675	1280.352	968.033
111.147	12.560	1279.056	966.295
112.162	12.589	1277.933	965.532
113.176	12.560	1276.958	964.537
114.191	12.624	1275.954	964.069
115.206	12.703	1274.331	963.223
116.220	12.646	1273.486	962.164
117.235	12.620	1272.458	961.149
118.249	12.608	1271.625	960.366
119.264	12.642	1270.301	959.480
120.279	12.587	1268.880	957.998
121.293	12.646	1267.802	957.445
122.308	12.653	1266.798	956.642
123.322	12.570	1265.939	955.428
124.337	12.585	1264.892	954.641
125.352	12.572	1263.906	953.736
126.366	12.469	1263.075	952.425
127.381	12.419	1261.806	951.100
128.395	12.525	1260.951	950.982
129.410	12.538	1259.798	950.105
130.424	12.607	1258.780	949.650
131.439	12.601	1258.110	949.025
132.454	12.692	1256.885	948.541
133.468	12.681	1256.451	948.067
134.483	12.682	1255.580	947.332
135.497	12.730	1254.375	946.613
136.512	12.704	1253.388	945.634
137.527	12.780	1251.642	944.669
138.541	12.762	1250.056	943.285
139.556	12.876	1248.812	942.916
140.570	12.759	1248.361	941.826
141.585	12.845	1247.001	941.206
142.600	12.876	1245.801	940.393
143.614	12.928	1245.039	940.032
144.629	12.989	1243.682	939.273
145.643	12.973	1242.511	938.212
146.658	12.866	1241.360	936.655
147.673	12.802	1239.985	935.167
148.687	12.726	1239.186	934.053
149.702	12.797	1237.430	933.048
150.716	12.761	1236.194	931.832
151.731	12.575	1235.649	930.284
152.746	12.786	1233.668	929.903
153.760	12.897	1232.354	929.455
154.775	12.740	1231.841	928.103
155.789	12.846	1231.004	927.989
156.804	12.897	1229.563	927.105
157.819	12.888	1228.586	926.237
158.833	12.926	1227.481	925.535
159.848	13.023	1226.669	925.385
160.862	13.013	1225.769	924.565
161.877	12.866	1224.588	922.773
162.892	12.792	1223.647	921.568
163.906	12.939	1222.412	921.379
164.921	12.825	1221.641	920.079
165.935	12.823	1221.235	919.676
166.950	12.855	1220.424	919.168
167.964	12.889	1219.805	918.807
168.979	12.958	1218.927	918.450
169.994	12.863	1218.060	917.185
171.008	12.962	1217.162	916.977
172.023	13.000	1216.783	916.822
173.037	13.054	1215.796	916.300
174.052	13.097	1214.833	915.729
175.067	13.036	1213.756	914.501
176.081	12.936	1212.646	913.031
177.096	12.904	1212.296	912.506
178.110	12.933	1211.061	911.655
179.125	12.951	1209.529	910.525
180.140	12.968	1208.648	909.875
181.154	13.029	1207.331	909.139
182.169	13.140	1206.107	908.744
183.183	13.140	1204.705	907.608
184.198	13.119	1203.773	906.713
185.213	13.175	1202.829	906.228
186.227	13.104	1201.963	905.107
187.242	13.224	1200.891	904.874
188.256	13.224	1199.700	903.895
189.271	13.273	1198.893	903.478
190.286	13.163	1197.580	901.808
191.300	12.986	1196.574	900.004
192.315	12.956	1196.067	899.378
193.329	12.988	1195.477	899.033
194.344	13.016	1194.483	898.359
195.359	13.004	1194.224	898.017
196.373	13.209	1193.537	898.534
197.388	13.346	1192.989	898.785
198.402	13.491	1192.423	899.068
199.417	13.409	1191.925	898.170
200.432	13.496	1190.912	897.800
201.446	13.463	1190.333	897.102
202.461	13.458	1189.265	896.190
203.475	13.513	1188.555	895.877
204.490	13.562	1186.958	894.859
205.504	13.424	1185.543	892.967
206.519	13.349	1184.628	891.792
207.534	13.424	1183.598	891.344
208.548	13.420	1182.898	890.714
209.563	13.399	1181.932	889.795
210.577	13.333	1181.050	888.699
211.592	13.370	1180.624	888.502
212.607	13.525	1179.352	888.294
213.621	13.525	1178.606	887.655
214.636	13.534	1177.689	886.935
215.650	13.643	1176.490	886.534
216.665	13.597	1176.236	886.018
217.680	13.741	1174.970	885.755
218.694	13.759	1174.476	885.400
219.709	13.622	1173.752	884.050
220.723	13.673	1172.745	883.484
221.738	13.698	1172.277	883.185
222.753	13.582	1171.389	881.821
223.767	13.663	1170.893	881.800
224.782	13.633	1170.688	881.405
225.796	13.846	1169.329	881.436
226.811	13.769	1168.883	880.613
227.826	13.766	1167.901	879.780
228.840	13.733	1167.222	879.016
229.855	13.738	1166.592	878.493
230.869	13.672	1165.702	877.396
231.884	13.615	1165.033	876.511
232.899	13.650	1164.156	875.956
233.913	13.591	1163.371	874.976
234.928	13.582	1162.788	874.415
235.942	13.602	1162.010	873.859
236.957	13.586	1161.026	872.958
237.972	13.738	1159.999	872.907
238.986	13.745	1159.393	872.413
240.001	13.664	1158.786	871.450
241.015	13.759	1157.767	871.109
242.030	13.737	1156.982	870.323
243.045	13.835	1156.640	870.505
244.059	13.932	1155.382	869.987
245.074	13.859	1154.750	869.053
246.088	13.861	1154.257	868.617
247.103	13.953	1153.543	868.483
248.117	13.913	1153.023	867.806
249.132	14.025	1152.458	867.885
250.147	14.089	1151.510	867.429
251.161	14.278	1150.509	867.584
252.176	14.032	1150.987	866.588
253.190	14.306	1149.524	866.833
254.205	14.376	1148.905	866.656
255.220	14.433	1147.850	866.077
256.234	14.411	1147.384	865.537
257.249	14.319	1146.748	864.502
258.263	14.347	1146.514	864.396
259.278	14.308	1146.099	863.803
260.293	14.313	1145.159	863.044
261.307	14.336	1144.776	862.797
262.322	14.357	1144.077	862.306
263.336	14.352	1143.412	861.702
264.351	14.480	1142.402	861.523
265.366	14.480	1141.996	861.142
266.380	14.387	1141.256	860.029
267.395	14.365	1140.685	859.407
268.409	14.397	1139.625	858.697
269.424	14.338	1139.574	858.278
270.439	14.421	1138.465	857.798
271.453	14.530	1138.092	858.001
272.468	14.288	1137.036	855.882
273.482	14.352	1136.342	855.613
274.497	14.432	1135.491	855.310
275.512	14.427	1134.884	854.748
276.526	14.390	1134.181	853.956
277.541	14.484	1133.601	853.922
278.555	14.562	1132.420	853.356
279.570	14.539	1132.092	852.920
280.585	14.590	1131.049	852.315
281.599	14.585	1130.323	851.668
282.614	14.507	1129.686	850.716
283.628	14.535	1128.287	849.729
284.643	14.478	1127.616	848.859
285.657	14.556	1126.524	848.361
286.672	14.686	1125.382	848.084
287.687	14.600	1124.581	846.971
288.701	14.585	1124.045	846.413
289.716	14.664	1122.874	845.856
290.730	14.678	1122.853	845.837
291.745	14.778	1121.781	845.464
292.760	14.676	1121.199	844.433
293.774	14.778	1120.748	844.531
294.789	14.820	1120.210	844.265
295.803	14.870	1119.359	843.800
296.818	14.743	1118.329	842.311
297.833	14.794	1117.848	842.132
298.847	14.775	1116.935	841.273
299.862	14.722	1116.278	840.436
300.876	14.842	1115.479	840.364
301.891	14.855	1114.913	839.930
302.906	14.878	1114.197	839.428
303.920	14.946	1113.822	839.414
304.935	14.962	1113.013	838.812
305.949	14.925	1112.745	838.350
306.964	15.033	1111.931	838.201
307.979	15.050	1110.936	837.463
308.993	14.967	1110.295	836.490
310.008	15.150	1109.269	836.559
311.022	14.998	1108.540	835.177
312.037	15.000	1107.959	834.677
313.052	15.133	1106.634	834.267
314.066	15.074	1105.966	833.394
315.081	14.883	1105.058	831.685
316.095	14.978	1104.498	831.661
317.110	14.917	1103.644	830.645
318.125	14.890	1103.141	830.060
319.139	14.911	1102.389	829.524
320.154	14.866	1101.988	828.926
321.168	15.056	1101.084	829.111
322.183	15.014	1100.482	828.379
323.197	14.971	1099.975	827.712
324.212	15.019	1098.984	827.127
325.227	15.076	1098.667	827.100
326.241	15.274	1097.673	827.251
327.256	15.053	1097.279	825.792
328.270	15.143	1096.414	825.511
329.285	15.133	1095.200	824.475
330.300	15.062	1094.797	823.753
331.314	15.096	1093.512	822.879
332.329	15.191	1092.546	822.546
333.343	15.099	1091.770	821.437
334.358	15.112	1090.874	820.753
335.373	15.231	1090.367	820.884
336.387	15.283	1089.645	820.522
337.402	15.305	1088.870	819.972
338.416	15.367	1088.063	819.592
339.431	15.377	1087.806	819.378
340.446	15.349	1087.215	818.722
341.460	15.366	1085.963	817.790
342.475	15.529	1085.453	818.130
343.489	15.390	1084.468	816.639
344.504	15.452	1083.681	816.272
345.519	15.512	1082.841	815.862
346.533	15.565	1081.945	815.370
347.548	15.665	1081.368	815.350
348.562	15.619	1080.456	814.364
349.577	15.490	1079.705	813.101
350.592	15.487	1078.702	812.263
351.606	15.402	1078.073	811.304
352.621	15.420	1077.371	810.791
353.635	15.460	1076.546	810.293
354.650	15.468	1076.137	809.951
355.665	15.505	1075.438	809.531
356.679	15.555	1074.832	809.246
357.694	15.601	1074.023	808.786
358.708	15.571	1073.483	808.164
359.723	15.607	1072.417	807.462
360.738	15.767	1071.617	807.559
361.752	15.696	1071.476	807.035
362.767	15.692	1071.119	806.678
363.781	15.751	1070.455	806.389
364.796	15.747	1069.760	805.777
365.810	15.974	1069.130	806.317
366.825	15.887	1068.385	805.265
367.840	15.830	1068.375	804.918
368.854	15.904	1067.644	804.646
369.869	15.926	1066.884	804.109
370.883	15.902	1065.806	803.108
371.898	15.933	1065.145	802.689
372.913	15.821	1064.940	801.928
373.927	15.910	1064.364	801.848
374.942	15.906	1063.977	801.466
375.956	15.999	1063.258	801.299
376.971	15.984	1062.615	800.673
377.986	16.073	1062.016	800.569
379.000	16.035	1061.323	799.795
380.015	16.085	1060.842	799.601
381.029	16.052	1060.383	799.028
382.044	16.189	1059.682	799.077
383.059	16.095	1059.070	798.099
384.073	16.071	1057.972	797.089
385.088	16.130	1057.011	796.573
386.102	16.245	1056.195	796.433
387.117	16.087	1055.496	795.086
388.132	16.056	1054.557	794.164
389.146	16.048	1053.759	793.453
390.161	16.063	1053.141	792.990
391.175	16.123	1052.014	792.355
392.190	16.154	1051.366	791.939
393.205	16.298	1050.960	792.240
394.219	16.353	1049.804	791.557
395.234	16.162	1049.104	790.065
396.248	16.152	1048.233	789.292
397.263	16.230	1047.167	788.783
398.278	16.010	1046.895	787.484
399.292	16.004	1046.301	786.938
400.307	16.122	1045.071	786.491
401.321	16.217	1044.294	786.279
402.336	16.167	1044.128	785.854
403.350	16.161	1043.313	785.142
404.365	16.274	1042.377	784.892
405.380	16.273	1042.091	784.604
406.394	16.327	1041.240	784.146
407.409	16.289	1040.306	783.194
408.423	16.395	1039.997	783.385
409.438	16.357	1039.746	782.951
410.453	16.451	1038.354	782.268
411.467	16.520	1037.587	781.942
412.482	16.493	1037.113	781.388
413.496	16.474	1036.988	781.138
414.511	16.519	1035.847	780.417
415.526	16.569	1035.804	780.547
416.540	16.686	1034.997	780.407
417.555	16.631	1034.397	779.635
418.569	16.637	1033.923	779.234
419.584	16.649	1033.838	779.156
420.599	16.704	1032.716	778.495
421.613	96.462	1310.542	1429.310
422.628	88.322	1350.995	1429.424
