DTS Sentinel unit serial number:	SN413079Multiplexer serial number:	ORYXHardware model number:	OX4-SRSoftware version number:	ORYX F/W v4.00 Oryx Data Collector v3.7.2.0data status	okinstallation	princeton_trtdifferential loss correction	single-endedforward channel	channel 2reverse channel	N/Adate	2019/09/13time	10:03:35forward acquisition time	60.00reverse acquisition time	0.00gamma	496.2192k internal	0.2324k external	0.2324temperature offset calibration	1.0190default loss term (dB/km)	0.3790temperature slope calibration	1.0000multiplexer offset coefficient	1.0000multiplexer slope coefficient	1.0000fibre end	0.00T internal ref (°C)	30.31T ext. ref 1 (°C)	4.49T ext. ref 2 (°C)	27.75length (m)	temperature (°C)	Stokes	anti-Stokes-747.200	-200.000	0.007	0.091
-746.185	-77.437	-0.328	0.115
-745.171	95.243	-0.229	0.263
-744.156	-36.394	0.209	0.114
-743.142	-83.676	0.390	0.126
-742.127	-200.000	-0.040	0.324
-741.112	60.387	0.386	0.386
-740.098	-200.000	-0.000	-0.003
-739.083	-141.281	0.082	0.008
-738.069	165.220	0.170	0.243
-737.054	800.000	-0.079	0.226
-736.039	118.388	-0.212	-0.264
-735.025	164.454	0.173	0.246
-734.010	162.550	0.134	-0.190
-732.996	34.240	-0.264	-0.232
-731.981	-200.000	-0.021	0.094
-730.966	-200.000	0.007	-0.120
-729.952	800.000	0.028	0.107
-728.937	-97.162	-0.396	0.104
-727.923	800.000	-0.058	0.192
-726.908	-138.173	0.173	-0.019
-725.894	-200.000	-0.051	-0.255
-724.879	-105.399	-0.219	0.050
-723.864	-200.000	0.008	0.093
-722.850	719.514	0.121	-0.324
-721.835	-79.010	-0.310	-0.106
-720.821	25.319	-0.274	0.230
-719.806	720.457	-0.029	-0.077
-718.791	-117.370	0.056	0.010
-717.777	-127.146	0.262	0.039
-716.762	800.000	-0.108	-0.371
-715.748	-89.119	-0.103	0.031
-714.733	183.214	0.097	0.144
-713.718	-200.000	0.061	0.289
-712.704	303.887	-0.019	0.035
-711.689	-200.000	0.003	-0.462
-710.675	-200.000	-0.004	-0.104
-709.660	-89.269	0.206	-0.061
-708.645	8.534	0.362	-0.275
-707.631	-46.482	-0.245	-0.121
-706.616	36.666	-0.083	-0.074
-705.602	-200.000	-0.034	-0.277
-704.587	35.722	-0.182	-0.161
-703.572	7.024	0.215	-0.162
-702.558	205.425	-0.196	-0.306
-701.543	800.000	-0.096	-0.361
-700.529	328.392	0.117	0.227
-699.514	-200.000	0.019	-0.232
-698.499	13.776	-0.230	-0.180
-697.485	-100.689	-0.240	0.060
-696.470	251.798	0.137	-0.236
-695.456	-200.000	-0.018	-0.114
-694.441	50.163	-0.214	0.203
-693.426	-60.271	-0.159	-0.068
-692.412	-9.953	-0.211	-0.141
-691.397	-53.738	0.077	-0.035
-690.383	550.806	-0.105	-0.253
-689.368	8.068	-0.275	-0.208
-688.354	8.018	0.328	-0.247
-687.339	-111.432	-0.437	0.090
-686.324	-108.129	-0.146	0.032
-685.310	-83.042	-0.180	-0.059
-684.295	-120.191	0.365	-0.063
-683.281	800.000	0.023	-0.099
-682.266	-95.232	-0.511	0.139
-681.251	-32.472	-0.245	0.138
-680.237	243.816	-0.182	-0.308
-679.222	276.594	0.175	0.313
-678.208	21.480	-0.193	0.158
-677.193	-200.000	0.016	-0.180
-676.178	404.811	0.090	-0.191
-675.164	-78.050	-0.149	0.052
-674.149	-200.000	0.027	0.156
-673.135	-1.766	0.080	0.057
-672.120	35.591	-0.151	-0.134
-671.105	-7.141	-0.049	-0.033
-670.091	-34.465	0.189	-0.104
-669.076	166.343	0.065	-0.093
-668.062	28.601	0.036	-0.031
-667.047	800.000	-0.157	-0.489
-666.032	195.005	-0.093	-0.143
-665.018	-200.000	0.022	-0.247
-664.003	-110.097	0.275	0.058
-662.989	109.592	0.083	0.100
-661.974	13.789	-0.225	0.176
-660.959	759.927	0.050	0.137
-659.945	-42.650	0.040	-0.020
-658.930	-24.535	-0.256	-0.153
-657.916	-111.566	0.165	-0.034
-656.901	-144.949	-0.317	-0.029
-655.886	-118.717	0.307	-0.054
-654.872	23.423	0.285	-0.235
-653.857	-38.358	0.236	-0.126
-652.843	102.050	0.269	-0.316
-651.828	197.675	0.127	-0.195
-650.814	344.306	0.098	0.194
-649.799	495.902	-0.186	-0.430
-648.784	-200.000	0.019	-0.269
-647.770	-4.083	-0.242	0.169
-646.755	-7.550	0.062	0.042
-645.741	-200.000	0.026	0.169
-644.726	79.544	-0.266	-0.287
-643.711	682.076	-0.114	-0.298
-642.697	-200.000	0.003	-0.158
-641.682	33.781	0.075	-0.065
-640.668	-103.516	0.197	0.047
-639.653	-200.000	0.028	-0.122
-638.638	-111.882	-0.129	0.026
-637.624	-142.312	-0.295	-0.029
-636.609	272.827	-0.105	-0.186
-635.595	39.367	0.120	0.108
-634.580	6.172	0.169	0.126
-633.565	185.726	0.067	0.100
-632.551	-72.843	0.043	-0.016
-631.536	61.970	-0.157	-0.157
-630.522	146.188	-0.117	-0.158
-629.507	-200.000	0.005	-0.213
-628.492	-64.245	0.361	-0.148
-627.478	800.000	-0.098	-0.382
-626.463	800.000	-0.055	-0.169
-625.449	800.000	0.119	-0.356
-624.434	9.135	-0.105	-0.080
-623.419	797.543	-0.110	-0.306
-622.405	-200.000	-0.019	0.146
-621.390	10.243	-0.125	0.095
-620.376	800.000	0.039	-0.150
-619.361	-108.720	-0.147	0.032
-618.346	31.808	0.091	-0.078
-617.332	-117.608	-0.220	-0.040
-616.317	-37.795	0.321	-0.171
-615.303	24.915	-0.196	-0.164
-614.288	-8.683	0.286	-0.193
-613.273	152.103	0.025	-0.035
-612.259	761.133	-0.056	-0.151
-611.244	88.348	0.266	-0.296
-610.230	-140.890	-0.390	0.040
-609.215	-14.296	0.293	-0.189
-608.201	361.634	-0.133	-0.269
-607.186	713.212	-0.052	-0.138
-606.171	605.053	-0.080	0.200
-605.157	-70.754	0.375	0.142
-604.142	-38.467	-0.277	-0.147
-603.128	800.000	0.051	-0.176
-602.113	-78.382	-0.121	-0.042
-601.098	-200.000	-0.044	0.198
-600.084	138.488	0.130	-0.171
-599.069	72.275	0.225	-0.235
-598.055	182.162	-0.212	-0.314
-597.040	389.824	-0.058	0.120
-596.025	-33.388	-0.405	-0.225
-595.011	800.000	-0.037	0.136
-593.996	-116.918	0.167	-0.031
-592.982	251.079	0.080	0.136
-591.967	-200.000	-0.040	0.296
-590.952	33.484	0.353	-0.307
-589.938	-64.603	-0.208	0.084
-588.923	16.888	-0.242	0.192
-587.909	-200.000	-0.018	-0.234
-586.894	121.237	-0.160	0.200
-585.879	559.892	0.029	0.071
-584.865	-69.751	0.198	-0.076
-583.850	35.199	0.222	-0.195
-582.836	45.618	-0.092	-0.085
-581.821	-158.480	-0.415	-0.024
-580.806	41.295	-0.289	-0.262
-579.792	648.044	0.010	0.026
-578.777	156.386	0.132	-0.183
-577.763	184.179	0.158	0.234
-576.748	-24.776	0.074	-0.044
-575.733	-88.297	-0.465	0.139
-574.719	-104.556	-0.244	0.056
-573.704	92.787	0.076	-0.086
-572.690	113.255	0.072	-0.088
-571.675	800.000	-0.068	-0.264
-570.661	120.105	-0.155	0.192
-569.646	-10.721	-0.206	-0.136
-568.631	-49.771	-0.077	0.037
-567.617	-200.000	-0.042	0.338
-566.602	-200.000	-0.024	0.214
-565.588	-69.115	-0.097	0.038
-564.573	86.377	-0.107	-0.119
-563.558	800.000	-0.087	-0.254
-562.544	48.719	0.205	-0.193
-561.529	526.290	-0.173	-0.407
-560.515	-126.717	-0.145	0.021
-559.500	-119.862	-0.131	-0.023
-558.485	800.000	0.024	0.106
-557.471	-103.075	0.348	0.083
-556.456	-200.000	0.013	-0.065
-555.442	291.548	0.178	-0.325
-554.427	149.324	0.270	-0.366
-553.412	29.811	-0.276	-0.236
-552.398	-11.251	-0.312	0.206
-551.383	506.742	-0.043	-0.100
-550.369	-81.057	-0.398	-0.132
-549.354	181.601	0.161	0.238
-548.339	138.128	-0.137	-0.180
-547.325	140.582	-0.066	-0.087
-546.310	360.886	-0.094	-0.188
-545.296	-123.011	-0.134	-0.022
-544.281	385.878	-0.021	0.043
-543.266	-130.883	-0.194	0.026
-542.252	166.761	0.025	-0.036
-541.237	123.205	-0.082	-0.103
-540.223	421.014	-0.012	-0.026
-539.208	707.667	-0.118	-0.311
-538.193	-200.000	-0.015	0.217
-537.179	800.000	-0.050	0.151
-536.164	512.347	0.161	0.375
-535.150	198.162	0.235	0.360
-534.135	-200.000	0.000	-0.015
-533.121	206.121	0.134	-0.208
-532.106	1.920	-0.312	0.225
-531.091	74.283	0.039	0.041
-530.077	11.820	0.196	0.151
-529.062	278.498	0.073	0.130
-528.048	-200.000	0.079	-0.424
-527.033	202.294	0.123	0.190
-526.018	-200.000	0.060	0.343
-525.004	161.934	-0.143	-0.200
-523.989	-99.793	-0.198	0.050
-522.975	-200.000	-0.072	-0.454
-521.960	-133.225	-0.521	-0.066
-520.945	800.000	-0.070	-0.198
-519.931	800.000	0.042	0.119
-518.916	-118.475	0.102	-0.018
-517.902	800.000	0.047	0.151
-516.887	298.395	0.095	-0.176
-515.872	-125.679	-0.239	0.036
-514.858	-52.114	-0.205	0.095
-513.843	-22.527	-0.148	-0.090
-512.829	22.442	0.037	-0.030
-511.814	134.996	0.250	-0.325
-510.799	-200.000	-0.014	-0.192
-509.785	-42.352	-0.114	-0.058
-508.770	-200.000	-0.008	0.074
-507.756	-200.000	-0.001	0.065
-506.741	-64.278	-0.149	0.061
-505.726	85.162	0.065	0.071
-504.712	31.047	-0.217	-0.186
-503.697	527.915	-0.078	0.184
-502.683	-200.000	0.016	-0.116
-501.668	800.000	0.010	0.042
-500.653	-29.749	0.351	0.200
-499.639	-88.732	-0.020	0.006
-498.624	-121.205	0.175	-0.029
-497.610	800.000	0.056	0.170
-496.595	-72.844	0.378	0.139
-495.581	-200.000	0.046	0.339
-494.566	-55.260	0.213	0.095
-493.551	-61.380	-0.425	0.179
-492.537	-135.988	0.144	0.017
-491.522	37.259	0.107	0.095
-490.508	800.000	0.050	0.187
-489.493	800.000	-0.068	0.224
-488.478	137.988	-0.150	0.196
-487.464	-85.854	-0.336	-0.104
-486.449	-142.578	-0.199	0.019
-485.435	63.432	0.189	-0.189
-484.420	800.000	-0.044	0.134
-483.405	-47.296	0.163	-0.079
-482.391	34.982	-0.363	-0.318
-481.376	-25.128	-0.264	0.156
-480.362	800.000	0.062	-0.203
-479.347	297.720	0.118	-0.217
-478.332	-200.000	-0.019	0.227
-477.318	-2.779	-0.106	-0.074
-476.303	-94.953	-0.226	-0.061
-475.289	-200.000	-0.053	0.506
-474.274	-200.000	-0.053	0.294
-473.259	45.194	0.378	0.348
-472.245	-41.971	-0.279	0.143
-471.230	179.504	0.228	-0.333
-470.216	-146.093	0.398	-0.035
-469.201	120.915	0.030	0.038
-468.186	87.134	-0.134	0.148
-467.172	-200.000	-0.043	0.458
-466.157	138.958	0.247	0.325
-465.143	-47.861	0.376	-0.182
-464.128	-22.712	0.333	0.201
-463.113	-157.543	0.113	0.007
-462.099	-93.758	-0.210	0.058
-461.084	800.000	-0.158	-0.494
-460.070	-152.554	0.033	-0.002
-459.055	-200.000	-0.030	0.298
-458.040	2.568	0.086	-0.062
-457.026	101.943	-0.141	-0.164
-456.011	-200.000	-0.006	0.293
-454.997	393.980	0.119	0.247
-453.982	-200.000	0.031	-0.194
-452.968	-164.119	-0.030	-0.001
-451.953	268.004	-0.012	-0.022
-450.938	-200.000	-0.046	-0.341
-449.924	-0.530	0.211	0.149
-448.909	355.145	-0.045	0.090
-447.895	-200.000	0.002	-0.120
-446.880	-200.000	0.001	-0.112
-445.865	-129.613	-0.165	-0.023
-444.851	-18.966	-0.121	-0.075
-443.836	-200.000	-0.042	0.236
-442.822	176.113	0.065	0.094
-441.807	-132.415	0.112	-0.014
-440.792	144.782	0.131	-0.175
-439.778	-200.000	0.045	-0.257
-438.763	-62.279	0.275	0.114
-437.749	42.331	-0.015	0.014
-436.734	-200.000	-0.007	0.079
-435.719	61.237	-0.121	-0.120
-434.705	-200.000	-0.013	0.191
-433.690	36.162	-0.175	-0.154
-432.676	798.800	0.054	0.148
-431.661	800.000	0.039	0.141
-430.646	628.632	-0.034	0.084
-429.632	-104.663	-0.185	0.042
-428.617	-4.072	0.076	-0.053
-427.603	189.365	-0.020	-0.030
-426.588	46.431	0.171	0.158
-425.573	-38.137	-0.197	0.104
-424.559	-44.283	-0.173	-0.087
-423.544	39.690	0.201	-0.180
-422.530	-200.000	0.022	-0.280
-421.515	-114.847	0.102	-0.019
-420.500	-200.000	0.013	-0.205
-419.486	69.348	-0.240	0.247
-418.471	-200.000	0.033	-0.192
-417.457	319.143	0.099	-0.187
-416.442	147.731	0.052	0.070
-415.428	-28.132	0.157	-0.091
-414.413	-200.000	-0.006	-0.059
-413.398	800.000	-0.056	0.158
-412.384	-68.026	-0.333	-0.129
-411.369	-88.178	-0.154	-0.046
-410.355	-200.000	0.043	-0.190
-409.340	-200.000	-0.023	-0.113
-408.325	-64.542	0.186	0.075
-407.311	-200.000	-0.009	-0.167
-406.296	-62.168	0.031	-0.013
-405.282	103.675	0.222	0.260
-404.267	-82.498	-0.147	0.047
-403.252	35.930	-0.174	-0.152
-402.238	-79.087	0.112	0.038
-401.223	-91.531	0.402	-0.114
-400.209	-200.000	0.005	0.251
-399.194	800.000	-0.047	-0.153
-398.179	-200.000	0.020	0.357
-397.165	67.095	0.304	0.308
-396.150	57.674	0.105	0.103
-395.136	4.939	-0.180	-0.132
-394.121	-132.330	0.221	0.028
-393.106	87.184	-0.175	-0.192
-392.092	16.868	0.175	0.138
-391.077	85.163	-0.077	-0.084
-390.063	-1.152	0.178	-0.126
-389.048	-200.000	0.094	-0.480
-388.033	-152.351	0.219	0.016
-387.019	473.757	0.048	0.108
-386.004	-200.000	0.032	0.322
-384.990	-200.000	0.012	0.235
-383.975	6.020	-0.098	0.072
-382.960	206.118	-0.141	-0.219
-381.946	-158.386	0.110	0.006
-380.931	178.340	0.054	-0.078
-379.917	-167.771	0.063	0.002
-378.902	-58.752	0.384	0.165
-377.888	211.051	-0.072	-0.113
-376.873	-44.953	0.323	-0.160
-375.858	-29.930	-0.283	0.160
-374.844	-200.000	-0.004	0.144
-373.829	-200.000	-0.015	0.302
-372.815	-39.690	-0.100	0.052
-371.800	-200.000	0.023	0.428
-370.785	-139.493	0.243	-0.026
-369.771	144.988	-0.137	-0.182
-368.756	-37.827	0.131	0.069
-367.742	-200.000	-0.011	-0.254
-366.727	120.329	-0.183	0.226
-365.712	-200.000	-0.031	-0.137
-364.698	465.330	0.113	0.251
-363.683	455.717	0.071	0.157
-362.669	402.441	-0.171	0.357
-361.654	25.617	-0.185	-0.153
-360.639	-35.152	0.247	0.134
-359.625	-21.291	-0.188	0.114
-358.610	258.003	0.193	0.331
-357.596	326.201	0.141	-0.268
-356.581	800.000	0.011	-0.034
-355.566	-37.987	-0.156	-0.083
-354.552	-200.000	-0.009	-0.251
-353.537	202.226	0.074	-0.114
-352.523	192.478	-0.368	0.552
-351.508	14.434	0.280	-0.217
-350.493	550.299	-0.123	-0.294
-349.479	800.000	-0.046	-0.186
-348.464	800.000	0.064	0.234
-347.450	684.365	0.082	0.213
-346.435	-155.185	0.160	0.010
-345.420	-14.545	0.116	-0.074
-344.406	-49.347	-0.365	0.173
-343.391	208.618	0.085	0.132
-342.377	-200.000	-0.123	0.000
-341.362	-200.000	0.006	0.090
-340.348	-39.705	0.123	0.064
-339.333	-123.843	0.353	-0.055
-338.318	9.896	0.070	-0.053
-337.304	-200.000	-0.038	0.203
-336.289	150.363	0.213	-0.288
-335.275	-200.000	0.038	0.181
-334.260	-71.466	-0.132	-0.049
-333.245	-73.230	-0.304	-0.111
-332.231	-200.000	0.068	0.426
-331.216	-52.631	-0.158	-0.072
-330.202	115.398	-0.064	-0.077
-329.187	-73.238	-0.164	-0.060
-328.172	-157.992	0.449	0.026
-327.158	-126.586	-0.301	-0.044
-326.143	43.686	-0.100	0.091
-325.129	-200.000	0.060	-0.284
-324.114	729.021	0.019	0.050
-323.099	-43.848	-0.218	-0.109
-322.085	-42.118	-0.108	0.055
-321.070	402.879	0.116	0.243
-320.056	-149.332	-0.085	-0.007
-319.041	-117.755	0.144	-0.026
-318.026	791.491	-0.083	0.226
-317.012	-200.000	-0.050	0.276
-315.997	203.459	-0.226	0.347
-314.983	800.000	-0.074	0.254
-313.968	0.507	-0.054	-0.039
-312.953	-73.878	-0.178	-0.064
-311.939	-90.989	0.216	0.062
-310.924	-93.382	0.109	0.030
-309.910	60.459	0.055	-0.054
-308.895	-200.000	0.016	-0.265
-307.880	-182.590	0.262	0.005
-306.866	77.416	-0.063	-0.067
-305.851	-64.930	0.105	0.042
-304.837	-50.173	-0.102	-0.048
-303.822	-37.312	-0.404	0.214
-302.807	-200.000	-0.024	0.378
-301.793	-16.299	-0.127	-0.080
-300.778	160.308	0.008	0.011
-299.764	-88.249	-0.190	-0.056
-298.749	-200.000	-0.064	-0.358
-297.735	226.761	0.089	0.143
-296.720	65.562	-0.165	-0.166
-295.705	288.357	-0.130	-0.233
-294.691	218.405	0.094	0.149
-293.676	65.514	0.170	0.170
-292.662	-200.000	-0.030	-0.137
-291.647	-141.007	0.409	-0.042
-290.632	106.578	0.154	0.181
-289.618	-200.000	-0.001	0.407
-288.603	-150.341	0.192	0.015
-287.589	-59.776	0.301	0.128
-286.574	-200.000	0.010	0.227
-285.559	-21.324	-0.226	0.137
-284.545	-91.743	0.081	-0.023
-283.530	-103.393	0.469	0.109
-282.516	390.839	0.067	0.138
-281.501	-46.913	0.126	-0.061
-280.486	59.246	-0.025	0.024
-279.472	-87.990	0.302	0.090
-278.457	54.166	0.349	-0.333
-277.443	82.572	-0.162	-0.175
-276.428	-200.000	-0.063	-0.320
-275.413	-61.437	-0.197	-0.082
-274.399	54.441	-0.175	-0.167
-273.384	-53.888	-0.275	0.124
-272.370	-200.000	-0.015	-0.169
-271.355	-52.565	-0.218	0.100
-270.340	-47.123	-0.015	0.007
-269.326	119.796	-0.104	0.128
-268.311	200.446	0.185	0.281
-267.297	-200.000	0.016	0.156
-266.282	40.922	0.202	-0.181
-265.267	-200.000	0.004	0.086
-264.253	-200.000	-0.032	-0.145
-263.238	35.499	0.202	-0.176
-262.224	-144.791	-0.094	0.009
-261.209	1.826	0.139	-0.099
-260.195	137.327	0.107	0.139
-259.180	-117.367	-0.132	0.024
-258.165	162.883	0.252	0.350
-257.151	36.757	0.149	0.131
-256.136	800.000	0.089	0.270
-255.122	25.320	-0.089	-0.074
-254.107	-200.000	0.014	0.086
-253.092	-113.719	0.054	0.010
-252.078	21.244	0.177	-0.143
-251.063	800.000	-0.070	0.241
-250.049	-38.447	0.058	-0.030
-249.034	-200.000	-0.012	-0.211
-248.019	-20.403	0.062	-0.038
-247.005	-200.000	-0.056	0.458
-245.990	-64.223	-0.093	0.038
-244.976	-200.000	0.039	-0.312
-243.961	592.837	0.126	0.308
-242.946	-45.422	-0.045	0.022
-241.932	186.324	-0.118	-0.173
-240.917	800.000	-0.027	-0.112
-239.903	134.219	0.218	0.279
-238.888	88.616	0.090	-0.099
-237.873	122.638	0.070	-0.087
-236.859	-108.622	0.305	-0.065
-235.844	-32.543	0.340	0.187
-234.830	-22.913	-0.082	0.049
-233.815	-200.000	0.016	0.094
-232.800	-21.747	0.318	0.191
-231.786	-96.636	-0.122	-0.032
-230.771	-10.298	-0.119	-0.078
-229.757	546.142	0.078	-0.184
-228.742	-200.000	-0.006	0.098
-227.727	800.000	0.138	-0.390
-226.713	-140.525	0.201	-0.021
-225.698	800.000	0.031	-0.122
-224.684	32.649	0.303	-0.259
-223.669	133.551	0.040	0.051
-222.655	29.534	0.167	0.140
-221.640	-99.630	0.125	0.031
-220.625	-177.969	-0.409	0.010
-219.611	-84.878	0.360	0.112
-218.596	800.000	0.018	-0.072
-217.582	66.158	-0.228	-0.229
-216.567	613.114	-0.056	0.138
-215.552	-3.305	-0.261	0.179
-214.538	-126.191	0.189	-0.028
-213.523	449.513	-0.046	-0.101
-212.509	-38.670	0.426	-0.222
-211.494	800.000	-0.029	0.121
-210.479	-25.563	0.045	0.026
-209.465	24.100	0.362	-0.295
-208.450	-200.000	0.031	0.246
-207.436	-78.427	-0.473	-0.160
-206.421	-104.369	-0.107	0.025
-205.406	-63.275	-0.428	-0.174
-204.392	800.000	0.045	0.166
-203.377	800.000	0.042	-0.132
-202.363	143.068	-0.209	-0.275
-201.348	94.346	0.043	0.048
-200.333	42.309	-0.250	0.225
-199.319	61.776	-0.010	0.009
-198.304	11.976	-0.151	0.115
-197.290	76.810	-0.076	0.080
-196.275	-200.000	0.031	-0.149
-195.260	-48.714	0.443	-0.210
-194.246	107.875	-0.114	-0.134
-193.231	-38.967	-0.537	0.279
-192.217	-200.000	0.012	-0.132
-191.202	-112.464	0.092	0.018
-190.187	34.705	0.187	0.161
-189.173	-12.124	0.197	-0.127
-188.158	-119.826	-0.139	0.024
-187.144	-154.108	0.150	0.010
-186.129	212.293	-0.053	-0.082
-185.114	-108.612	0.297	-0.063
-184.100	-65.572	0.272	0.108
-183.085	-82.124	-0.232	-0.075
-182.071	15.971	-0.348	0.271
-181.056	209.733	0.126	0.196
-180.042	252.012	0.038	0.064
-179.027	-117.271	0.247	0.044
-178.012	-90.681	-0.263	0.075
-176.998	86.146	-0.223	0.243
-175.983	-43.590	-0.214	0.107
-174.969	-99.452	-0.226	-0.056
-173.954	68.554	0.127	-0.129
-172.939	15.059	-0.081	-0.063
-171.925	39.397	0.367	0.324
-170.910	-38.478	0.388	0.203
-169.896	-40.654	-0.180	0.092
-168.881	-46.169	0.061	-0.029
-167.866	-85.405	0.097	-0.030
-166.852	-200.000	-0.052	0.283
-165.837	25.086	-0.274	-0.224
-164.823	160.557	-0.245	0.337
-163.808	321.709	-0.099	-0.187
-162.793	140.564	-0.161	0.209
-161.779	800.000	-0.054	0.209
-160.764	330.895	0.064	-0.121
-159.750	800.000	-0.032	-0.119
-158.735	140.554	0.101	-0.131
-157.720	-59.500	0.185	0.079
-156.706	-83.286	-0.190	0.060
-155.691	17.921	0.163	-0.128
-154.677	247.421	-0.128	0.212
-153.662	-200.000	-0.003	-0.036
-152.647	263.968	0.028	0.049
-151.633	-200.000	0.017	-0.329
-150.618	68.100	-0.294	-0.296
-149.604	-122.515	-0.165	-0.026
-148.589	-131.635	-0.293	0.038
-147.574	-153.501	-0.139	0.010
-146.560	34.786	-0.117	-0.101
-145.545	22.140	0.240	-0.193
-144.531	-200.000	0.024	0.147
-143.516	-200.000	-0.026	0.129
-142.502	-150.269	0.048	-0.004
-141.487	35.658	-0.153	-0.132
-140.472	8.513	0.080	-0.059
-139.458	24.983	-0.281	-0.229
-138.443	149.759	-0.059	0.079
-137.429	416.221	0.039	0.082
-136.414	-114.313	-0.208	0.040
-135.399	-200.000	-0.001	0.063
-134.385	-104.918	-0.196	-0.044
-133.370	800.000	0.107	-0.297
-132.356	25.937	-0.223	-0.183
-131.341	217.704	0.026	0.040
-130.326	-200.000	-0.035	-0.167
-129.312	135.162	0.059	-0.076
-128.297	800.000	-0.088	0.371
-127.283	-166.726	0.138	0.006
-126.268	-167.069	0.142	-0.006
-125.253	-200.000	0.022	-0.239
-124.239	-121.742	0.291	0.047
-123.224	-30.349	0.176	-0.099
-122.210	-126.207	0.058	-0.009
-121.195	464.451	0.054	0.120
-120.180	-200.000	-0.027	-0.339
-119.166	626.251	-0.166	-0.413
-118.151	800.000	0.076	0.215
-117.137	-84.459	0.480	-0.149
-116.122	-22.311	-0.266	0.159
-115.107	-146.629	-0.299	0.026
-114.093	156.997	0.031	-0.043
-113.078	-200.000	-0.001	0.351
-112.064	365.657	0.134	0.265
-111.049	294.967	-0.019	0.034
-110.034	-200.000	0.017	0.103
-109.020	-128.331	0.155	-0.022
-108.005	-66.662	-0.167	0.065
-106.991	-200.000	0.056	-0.365
-105.976	-200.000	-0.011	-0.413
-104.962	800.000	-0.022	-0.095
-103.947	72.415	-0.210	0.216
-102.932	5.736	-0.214	-0.156
-101.918	-147.823	0.100	-0.008
-100.903	-75.761	-0.004	0.001
-99.889	-200.000	-0.073	0.365
-98.874	251.801	-0.072	0.120
-97.859	-47.079	-0.283	0.136
-96.845	-25.867	0.088	-0.051
-95.830	58.496	-0.143	0.139
-94.816	800.000	0.024	-0.066
-93.801	104.673	-0.179	0.207
-92.786	-200.000	-0.064	0.332
-91.772	800.000	0.018	0.076
-90.757	350.130	0.110	-0.213
-89.743	276.879	0.112	0.196
-88.728	800.000	-0.044	0.181
-87.713	74.961	0.095	0.099
-86.699	782.155	-0.088	0.236
-85.684	-169.004	-0.103	0.004
-84.670	-45.584	-0.100	0.049
-83.655	-92.646	0.033	0.009
-82.640	26.354	-0.050	-0.041
-81.626	358.381	-0.173	0.340
-80.611	-118.368	0.185	0.032
-79.597	-200.000	0.003	0.149
-78.582	418.226	0.103	-0.217
-77.567	-200.000	-0.011	-0.287
-76.553	800.000	-0.039	0.153
-75.538	-122.366	0.122	-0.020
-74.524	-45.307	-0.122	0.060
-73.509	-48.446	-0.096	0.046
-72.494	-200.000	-0.022	0.147
-71.480	71.885	0.212	0.217
-70.465	-80.328	0.400	0.131
-69.451	105.932	0.094	-0.109
-68.436	-200.000	-0.038	-0.165
-67.422	-8.193	0.016	-0.011
-66.407	23.281	0.193	-0.156
-65.392	-80.122	0.171	0.056
-64.378	-119.560	0.176	0.030
-63.363	64.588	-0.033	0.033
-62.349	800.000	0.055	-0.211
-61.334	23.254	-0.941	-0.760
-60.319	133.782	0.581	0.739
-59.305	-200.000	-0.151	-0.986
-58.290	695.964	0.361	0.932
-57.276	800.000	0.419	1.382
-56.261	-200.000	101.639	587.381
-55.246	540.931	1441.644	3373.917
-54.232	182.203	2654.677	3843.454
-53.217	108.949	2304.336	2707.113
-52.203	39.682	1915.844	1688.190
-51.188	33.413	1702.916	1452.612
-50.173	30.950	1658.931	1396.611
-49.159	49.338	1709.375	1579.338
-48.144	49.909	1726.035	1599.004
-47.130	33.147	1685.107	1435.173
-46.115	30.451	1670.324	1402.209
-45.100	30.314	1665.386	1396.982
-44.086	30.253	1663.021	1394.478
-43.071	30.144	1660.669	1391.633
-42.057	30.178	1658.322	1389.865
-41.042	30.192	1655.872	1387.866
-40.027	30.155	1654.185	1386.118
-39.013	30.157	1652.110	1384.338
-37.998	30.154	1650.406	1382.832
-36.984	30.281	1648.932	1382.495
-35.969	30.340	1647.625	1381.783
-34.954	30.335	1646.234	1380.521
-33.940	30.259	1644.278	1378.265
-32.925	30.331	1642.662	1377.387
-31.911	30.333	1640.509	1375.541
-30.896	30.380	1638.518	1374.164
-29.881	30.387	1636.972	1372.870
-28.867	30.267	1636.085	1371.182
-27.852	30.372	1634.314	1370.419
-26.838	30.330	1632.420	1368.465
-25.823	30.332	1631.317	1367.499
-24.809	30.404	1629.556	1366.497
-23.794	30.357	1628.675	1365.362
-22.779	30.384	1627.101	1364.185
-21.765	30.330	1625.465	1362.367
-20.750	30.238	1623.889	1360.317
-19.736	30.316	1622.636	1359.780
-18.721	30.342	1621.168	1358.688
-17.706	30.340	1619.183	1356.955
-16.692	30.281	1618.287	1355.718
-15.677	30.327	1616.197	1354.253
-14.663	30.320	1615.712	1353.742
-13.648	30.381	1613.956	1352.658
-12.633	30.346	1612.367	1351.018
-11.619	30.305	1610.669	1349.246
-10.604	30.374	1609.002	1348.299
-9.590	30.354	1608.101	1347.343
-8.575	30.257	1607.248	1345.868
-7.560	30.356	1605.576	1345.137
-6.546	30.251	1604.636	1343.537
-5.531	30.335	1603.563	1343.191
-4.517	30.282	1602.237	1341.647
-3.502	30.371	1601.143	1341.316
-2.487	30.471	1599.133	1340.301
-1.473	30.373	1587.591	1329.871
-0.458	27.799	1569.198	1296.162
0.556	26.379	1570.463	1265.056
1.571	24.172	1594.967	1268.981
2.586	23.559	1607.571	1274.492
3.600	20.884	1553.296	1212.764
4.615	12.846	1443.422	1074.676
5.629	5.646	1380.914	982.996
6.644	4.460	1372.455	969.491
7.659	4.524	1371.270	968.964
8.673	4.460	1370.377	967.848
9.688	4.527	1368.611	966.933
10.702	4.417	1366.058	964.362
11.717	7.707	1372.099	989.036
12.731	15.942	1386.717	1051.078
13.746	21.705	1395.874	1094.016
14.761	22.421	1396.280	1098.712
15.775	21.878	1394.059	1093.479
16.790	20.914	1391.515	1085.389
17.804	20.040	1389.358	1078.175
18.819	19.747	1388.397	1075.511
19.834	19.647	1387.460	1074.067
20.848	19.584	1385.964	1072.419
21.863	19.251	1385.455	1069.864
22.877	19.247	1383.647	1068.352
23.892	19.150	1383.256	1067.352
24.907	19.147	1382.329	1066.522
25.921	19.076	1381.568	1065.404
26.936	19.173	1380.015	1064.713
27.950	19.205	1379.188	1064.178
28.965	19.262	1378.343	1063.782
29.980	19.428	1377.396	1063.982
30.994	19.484	1376.554	1063.581
32.009	19.622	1375.221	1063.308
33.023	19.562	1374.142	1062.009
34.038	19.504	1372.800	1060.525
35.053	19.354	1371.118	1058.206
36.067	19.286	1370.627	1057.316
37.082	19.341	1369.781	1056.911
38.096	19.435	1368.753	1056.596
39.111	19.472	1368.234	1056.332
40.126	19.112	1367.631	1053.572
41.140	19.038	1365.991	1051.759
42.155	18.953	1364.898	1050.305
43.169	18.849	1365.380	1049.947
44.184	18.925	1364.667	1049.772
45.199	18.973	1364.301	1049.689
46.213	18.984	1364.415	1049.750
47.228	19.243	1363.563	1050.585
48.242	19.264	1362.476	1049.780
49.257	19.281	1360.745	1048.456
50.271	19.242	1359.021	1046.798
51.286	19.325	1358.506	1046.814
52.301	19.301	1357.015	1045.427
53.315	19.076	1355.808	1043.043
54.330	19.006	1354.594	1041.589
55.344	18.951	1353.129	1040.042
56.359	18.988	1352.446	1039.643
57.374	18.924	1351.122	1038.148
58.388	18.824	1350.898	1037.284
59.403	18.754	1350.306	1036.317
60.417	18.791	1349.544	1035.863
61.432	18.687	1348.718	1034.505
62.447	18.717	1347.226	1033.455
63.461	18.626	1346.283	1032.089
64.476	18.533	1345.713	1031.001
65.490	18.511	1344.143	1029.578
66.505	18.653	1342.418	1029.014
67.520	18.685	1341.507	1028.419
68.534	18.643	1340.558	1027.349
69.549	18.748	1339.197	1026.841
70.563	18.568	1338.746	1025.328
71.578	18.483	1337.670	1023.908
72.593	18.443	1336.283	1022.515
73.607	18.382	1335.525	1021.481
74.622	18.350	1334.844	1020.679
75.636	18.598	1333.732	1021.219
76.651	18.442	1334.102	1020.478
77.666	18.510	1333.412	1020.269
78.680	18.654	1332.731	1020.512
79.695	18.652	1332.191	1019.998
80.709	18.960	1331.007	1020.827
81.724	18.901	1330.144	1019.727
82.739	19.001	1329.618	1019.828
83.753	19.144	1329.157	1020.226
84.768	19.301	1328.341	1020.439
85.782	19.422	1327.229	1020.212
86.797	19.432	1325.967	1019.213
87.812	19.443	1324.125	1017.771
88.826	19.272	1323.582	1016.257
89.841	19.436	1322.180	1016.051
90.855	19.300	1322.141	1015.136
91.870	19.459	1320.864	1014.997
92.884	19.467	1320.296	1014.519
93.899	19.575	1319.267	1014.273
94.914	19.662	1318.411	1014.037
95.928	19.483	1317.843	1012.460
96.943	19.429	1316.676	1011.160
97.957	19.375	1315.930	1010.177
98.972	19.328	1314.898	1009.023
99.987	19.423	1313.660	1008.538
101.001	19.438	1312.489	1007.635
102.016	19.347	1312.510	1007.035
103.030	19.373	1311.490	1006.314
104.045	19.438	1310.392	1005.757
105.060	19.218	1309.014	1003.335
106.074	18.955	1307.305	1000.403
107.089	18.694	1306.001	997.801
108.103	18.627	1304.558	996.218
109.118	18.591	1303.659	995.237
110.133	18.666	1301.591	994.002
111.147	18.665	1300.769	993.283
112.162	18.772	1299.182	992.602
113.176	18.822	1298.704	992.436
114.191	18.874	1297.689	991.873
115.206	18.770	1296.639	990.383
116.220	18.838	1295.240	989.618
117.235	18.962	1293.843	989.175
118.249	18.752	1293.118	987.331
119.264	18.652	1292.362	986.089
120.279	18.623	1291.075	984.853
121.293	18.715	1289.678	984.226
122.308	18.448	1288.757	981.906
123.322	18.424	1287.678	980.861
124.337	18.465	1286.448	980.076
125.352	18.482	1285.257	979.177
126.366	18.515	1284.120	978.414
127.381	18.502	1283.217	977.564
128.395	18.573	1281.887	976.867
129.410	18.523	1281.343	976.080
130.424	18.538	1280.850	975.704
131.439	18.739	1279.992	976.111
132.454	18.797	1279.579	976.036
133.468	18.808	1278.360	975.086
134.483	18.785	1278.050	974.627
135.497	18.770	1277.003	973.659
136.512	18.852	1275.692	973.038
137.527	18.933	1273.983	972.110
138.541	18.918	1272.794	971.028
139.556	18.949	1271.769	970.335
140.570	19.078	1271.105	970.473
141.585	19.208	1269.820	970.137
142.600	19.245	1268.925	969.572
143.614	19.344	1268.521	969.737
144.629	19.402	1267.123	968.911
145.643	19.451	1265.296	967.703
146.658	19.287	1264.281	965.923
147.673	19.106	1262.937	963.793
148.687	19.101	1261.239	962.384
149.702	18.959	1260.264	960.762
150.716	18.813	1258.763	958.720
151.731	18.921	1257.683	958.417
152.746	18.924	1256.442	957.401
153.760	18.942	1256.015	957.092
154.775	19.116	1254.303	956.668
155.789	19.196	1253.555	956.456
156.804	19.203	1252.771	955.815
157.819	19.249	1251.767	955.217
158.833	19.486	1250.854	955.750
159.848	19.581	1250.052	955.575
160.862	19.422	1249.225	953.981
161.877	19.116	1247.987	951.260
162.892	18.934	1246.442	948.996
163.906	18.861	1245.638	947.895
164.921	18.921	1244.597	947.351
165.935	19.042	1243.801	947.330
166.950	19.122	1243.107	947.157
167.964	19.093	1242.626	946.546
168.979	19.104	1241.753	945.856
169.994	18.970	1241.271	944.670
171.008	19.005	1240.745	944.381
172.023	19.137	1239.859	944.347
173.037	19.357	1238.900	944.737
174.052	19.357	1238.078	944.024
175.067	19.055	1236.740	941.269
176.081	18.880	1235.618	939.378
177.096	18.970	1234.628	939.033
178.110	18.999	1233.427	938.195
179.125	19.094	1232.350	937.807
180.140	19.231	1231.292	937.668
181.154	19.231	1230.365	936.879
182.169	19.322	1229.451	936.592
183.183	19.420	1228.447	936.280
184.198	19.473	1227.290	935.599
185.213	19.410	1226.134	934.293
186.227	19.492	1225.639	934.281
187.242	19.596	1224.318	933.752
188.256	19.515	1223.966	932.962
189.271	19.544	1222.392	931.835
190.286	19.421	1221.235	930.207
191.300	19.069	1220.083	927.354
192.315	18.952	1219.029	925.841
193.329	18.936	1218.603	925.348
194.344	18.960	1218.091	925.009
195.359	19.203	1217.871	926.064
196.373	19.236	1217.442	925.836
197.388	19.340	1216.863	925.870
198.402	19.592	1216.619	926.954
199.417	19.820	1216.138	927.733
200.432	19.913	1215.730	927.837
201.446	19.952	1214.835	927.277
202.461	19.986	1214.222	926.913
203.475	19.913	1213.278	925.720
204.490	19.652	1211.733	923.065
205.504	19.593	1210.071	921.401
206.519	19.486	1209.462	920.284
207.534	19.465	1207.912	918.910
208.548	19.459	1207.130	918.206
209.563	19.533	1206.228	917.830
210.577	19.610	1204.927	917.170
211.592	19.591	1204.840	916.918
212.607	19.830	1203.903	917.396
213.621	19.785	1203.389	916.684
214.636	19.691	1202.235	915.225
215.650	19.781	1200.787	914.514
216.665	19.926	1200.593	915.056
217.680	19.881	1199.904	914.210
218.694	19.944	1199.344	914.037
219.709	20.032	1198.025	913.412
220.723	19.949	1197.360	912.386
221.738	19.989	1196.464	911.836
222.753	19.884	1195.602	910.548
223.767	19.912	1195.483	910.522
224.782	19.993	1194.649	910.233
225.796	20.093	1194.239	910.366
226.811	20.186	1192.954	909.789
227.826	19.933	1192.255	907.853
228.840	19.871	1191.299	906.718
229.855	19.906	1190.836	906.468
230.869	19.826	1190.020	905.349
231.884	19.853	1189.281	904.850
232.899	19.624	1187.935	902.545
233.913	19.687	1187.684	902.608
234.928	19.661	1186.699	901.643
235.942	19.566	1185.848	900.417
236.957	19.619	1184.692	899.740
237.972	19.525	1184.338	898.902
238.986	19.632	1183.671	898.874
240.001	19.680	1182.761	898.350
241.015	19.709	1182.152	897.960
242.030	19.792	1181.479	897.800
243.045	19.821	1181.066	897.559
244.059	19.779	1180.353	896.716
245.074	19.978	1179.084	896.707
246.088	19.941	1178.878	896.279
247.103	20.132	1177.624	896.235
248.117	20.164	1177.379	896.134
249.132	20.405	1176.642	896.738
250.147	20.606	1176.648	897.701
251.161	20.753	1175.812	897.738
252.176	20.745	1174.872	896.904
253.190	20.839	1174.479	897.005
254.205	20.820	1174.370	896.749
255.220	20.853	1173.718	896.340
256.234	20.811	1172.795	895.340
257.249	20.765	1172.127	894.513
258.263	20.781	1171.235	893.835
259.278	20.838	1170.304	893.340
260.293	20.846	1170.003	893.071
261.307	20.983	1169.285	893.144
262.322	20.985	1168.888	892.772
263.336	21.020	1167.936	892.145
264.351	21.058	1167.421	891.868
265.366	20.939	1167.202	891.015
266.380	21.026	1166.273	890.668
267.395	20.834	1165.244	888.825
268.409	20.730	1164.551	887.688
269.424	20.792	1163.350	887.009
270.439	20.709	1162.778	886.073
271.453	20.767	1161.740	885.497
272.468	20.654	1160.845	884.165
273.482	20.546	1160.704	883.431
274.497	20.730	1159.392	883.285
275.512	20.578	1158.817	881.997
276.526	20.692	1157.899	881.802
277.541	20.612	1157.326	880.879
278.555	20.607	1157.064	880.580
279.570	20.796	1156.959	881.375
280.585	21.027	1155.477	881.335
281.599	21.077	1154.486	880.755
282.614	20.830	1153.553	878.718
283.628	20.749	1152.254	877.246
284.643	20.800	1151.242	876.653
285.657	20.670	1150.619	875.448
286.672	20.827	1149.707	875.465
287.687	20.752	1148.737	874.272
288.701	20.868	1148.043	874.249
289.716	20.819	1147.552	873.551
290.730	20.811	1146.705	872.788
291.745	20.853	1145.915	872.323
292.760	20.977	1145.330	872.420
293.774	20.992	1144.920	872.102
294.789	21.141	1144.263	872.271
295.803	21.135	1143.817	871.823
296.818	20.969	1142.263	869.733
297.833	20.950	1141.448	868.943
298.847	20.747	1141.231	867.688
299.862	20.935	1140.158	867.730
300.876	20.968	1139.813	867.560
301.891	21.087	1138.722	867.242
302.906	21.164	1138.447	867.339
303.920	21.383	1138.047	868.042
304.935	21.336	1137.121	867.030
305.949	21.566	1136.875	867.906
306.964	21.394	1136.126	866.402
307.979	21.229	1135.488	865.024
308.993	21.277	1134.313	864.291
310.008	21.384	1133.831	864.372
311.022	21.252	1133.305	863.246
312.037	21.447	1132.042	863.167
313.052	21.204	1131.024	861.116
314.066	21.134	1129.651	859.653
315.081	20.898	1128.889	857.833
316.095	20.932	1128.137	857.351
317.110	20.969	1127.553	857.017
318.125	20.854	1127.157	856.076
319.139	20.988	1126.001	855.777
320.154	20.926	1125.323	854.881
321.168	20.912	1124.855	854.383
322.183	20.956	1124.342	854.132
323.197	21.028	1123.614	853.857
324.212	20.983	1123.304	853.326
325.227	21.009	1122.846	853.031
326.241	21.071	1122.002	852.615
327.256	21.113	1121.307	852.217
328.270	20.987	1120.322	850.776
329.285	20.979	1119.234	849.840
330.300	20.963	1118.290	848.970
331.314	21.033	1117.305	848.484
332.329	21.112	1116.189	847.949
333.343	20.961	1115.949	846.955
334.358	21.267	1114.695	847.412
335.373	21.258	1114.121	846.858
336.387	21.196	1114.027	846.415
337.402	21.346	1113.049	846.320
338.416	21.478	1112.202	846.241
339.431	21.555	1111.427	845.948
340.446	21.617	1111.251	846.038
341.460	21.622	1110.834	845.670
342.475	21.829	1109.980	845.946
343.489	21.822	1109.000	845.088
344.504	21.805	1108.109	844.252
345.519	21.963	1107.118	844.186
346.533	21.990	1106.655	843.885
347.548	22.033	1106.127	843.615
348.562	21.915	1105.256	842.312
349.577	21.754	1104.108	840.588
350.592	21.648	1102.787	838.999
351.606	21.488	1102.259	837.760
352.621	21.379	1101.443	836.542
353.635	21.354	1100.461	835.604
354.650	21.398	1099.893	835.307
355.665	21.481	1099.329	835.202
356.679	21.471	1099.113	834.919
357.694	21.680	1098.214	835.157
358.708	21.677	1097.862	834.798
359.723	21.825	1096.949	834.737
360.738	21.823	1096.072	833.986
361.752	21.721	1095.655	833.110
362.767	21.599	1095.322	832.205
363.781	21.814	1094.637	832.628
364.796	21.932	1094.199	832.785
365.810	22.021	1094.153	833.098
366.825	22.110	1093.681	833.085
367.840	22.240	1093.165	833.234
368.854	22.365	1092.539	833.275
369.869	22.318	1091.789	832.406
370.883	22.216	1090.433	830.817
371.898	22.090	1089.191	829.203
372.913	22.036	1089.043	828.763
373.927	22.068	1088.740	828.609
374.942	22.205	1088.235	828.798
375.956	22.189	1087.867	828.370
376.971	22.169	1087.142	827.648
377.986	22.278	1086.568	827.654
379.000	22.389	1086.526	828.071
380.015	22.427	1085.907	827.705
381.029	22.491	1084.931	827.188
382.044	22.500	1084.032	826.472
383.059	22.530	1083.243	825.936
384.073	22.346	1082.688	824.576
385.088	22.430	1081.949	824.338
386.102	22.431	1080.749	823.351
387.117	22.303	1079.371	821.635
388.132	22.047	1078.781	819.916
389.146	22.130	1077.481	819.244
390.161	22.139	1076.955	818.811
391.175	22.031	1076.458	817.860
392.190	22.188	1075.852	818.058
393.205	22.347	1075.379	818.366
394.219	22.425	1073.954	817.568
395.234	22.288	1073.097	816.207
396.248	22.239	1072.261	815.274
397.263	22.186	1071.274	814.205
398.278	22.157	1070.564	813.457
399.292	22.049	1069.910	812.392
400.307	22.003	1068.826	811.282
401.321	21.876	1068.536	810.406
402.336	21.956	1067.818	810.158
403.350	21.873	1067.415	809.396
404.365	21.988	1066.556	809.203
405.380	22.040	1065.968	808.929
406.394	22.243	1064.840	808.934
407.409	22.444	1064.380	809.434
408.423	22.608	1063.761	809.648
409.438	22.612	1063.654	809.511
410.453	22.566	1062.970	808.710
411.467	22.702	1062.128	808.623
412.482	22.784	1061.616	808.536
413.496	22.766	1061.145	808.021
414.511	22.872	1060.500	807.946
415.526	22.845	1060.571	807.803
416.540	23.038	1059.576	807.858
417.555	23.027	1059.182	807.434
418.569	22.792	1058.548	805.805
419.584	22.686	1058.078	804.894
420.599	22.763	1057.137	804.456
421.613	156.141	1401.995	1796.180
422.628	143.501	1452.234	1796.272
