DTS Sentinel unit serial number:	SN413079Multiplexer serial number:	ORYXHardware model number:	OX4-SRSoftware version number:	ORYX F/W v4.00 Oryx Data Collector v3.7.2.0data status	okinstallation	princeton_trtdifferential loss correction	single-endedforward channel	channel 2reverse channel	N/Adate	2019/09/17time	17:11:35forward acquisition time	60.00reverse acquisition time	0.00gamma	496.2192k internal	0.2290k external	0.2290temperature offset calibration	0.9979default loss term (dB/km)	0.3790temperature slope calibration	1.0000multiplexer offset coefficient	1.0000multiplexer slope coefficient	1.0000fibre end	0.00T internal ref (°C)	42.81T ext. ref 1 (°C)	0.35T ext. ref 2 (°C)	38.92length (m)	temperature (°C)	Stokes	anti-Stokes-747.200	-200.000	0.052	-0.266
-746.185	800.000	0.043	0.157
-745.171	104.579	0.164	0.197
-744.156	-27.046	-0.194	0.116
-743.142	-148.046	0.097	-0.008
-742.127	-200.000	0.020	0.495
-741.112	-149.642	-0.086	-0.007
-740.098	434.839	0.110	0.246
-739.083	129.925	0.030	0.039
-738.069	-65.741	-0.137	-0.056
-737.054	-142.985	0.241	0.024
-736.039	-120.860	-0.202	0.035
-735.025	-93.938	-0.200	0.056
-734.010	-200.000	-0.016	0.121
-732.996	421.327	0.081	-0.178
-731.981	-200.000	-0.065	-0.355
-730.966	-200.000	0.041	-0.413
-729.952	232.075	-0.074	-0.125
-728.937	-200.000	-0.044	-0.288
-727.923	-57.629	-0.229	-0.103
-726.908	273.247	-0.162	-0.292
-725.894	800.000	0.097	-0.345
-724.879	641.442	-0.178	-0.465
-723.864	-50.665	0.074	-0.036
-722.850	-200.000	0.021	-0.216
-721.835	373.871	0.087	0.181
-720.821	189.306	-0.028	-0.044
-719.806	89.208	-0.221	-0.252
-718.791	-200.000	-0.018	-0.173
-717.777	596.164	0.145	-0.368
-716.762	-84.967	0.278	0.089
-715.748	-105.866	0.342	0.079
-714.733	611.359	0.102	0.261
-713.718	-83.923	-0.247	0.081
-712.704	221.317	-0.131	0.215
-711.689	-200.000	0.005	-0.273
-710.675	-150.920	0.161	-0.012
-709.660	-102.638	0.138	-0.034
-708.645	-68.485	0.295	-0.117
-707.631	-14.893	-0.167	0.110
-706.616	-25.468	0.368	-0.222
-705.602	-139.297	-0.149	-0.016
-704.587	-200.000	0.018	-0.084
-703.572	800.000	-0.100	-0.295
-702.558	-128.670	-0.307	0.044
-701.543	131.489	0.102	-0.134
-700.529	-200.000	-0.031	-0.145
-699.514	800.000	-0.080	-0.234
-698.499	22.547	-0.332	-0.278
-697.485	12.800	-0.060	-0.047
-696.470	-200.000	-0.056	-0.381
-695.456	-96.762	-0.325	-0.088
-694.441	436.089	-0.010	0.022
-693.426	457.143	-0.090	-0.204
-692.412	104.121	-0.231	-0.278
-691.397	800.000	-0.024	0.104
-690.383	-91.903	-0.164	-0.048
-689.368	-200.000	0.004	0.138
-688.354	-200.000	0.022	0.110
-687.339	-3.833	0.235	-0.167
-686.324	800.000	0.032	-0.099
-685.310	-92.175	0.315	-0.091
-684.295	67.894	0.169	-0.176
-683.281	172.333	0.132	0.193
-682.266	-138.593	-0.157	0.018
-681.251	-132.395	0.246	-0.032
-680.237	226.155	-0.045	-0.074
-679.222	136.132	-0.198	-0.263
-678.208	148.262	-0.061	0.085
-677.193	143.372	-0.129	0.175
-676.178	-58.967	-0.130	-0.058
-675.164	374.979	0.068	0.141
-674.149	18.400	-0.191	-0.156
-673.135	-121.385	-0.097	0.017
-672.120	-44.586	0.071	0.036
-671.105	207.766	0.199	0.318
-670.091	800.000	0.071	-0.223
-669.076	556.013	0.126	-0.310
-668.062	26.607	0.224	-0.191
-667.047	20.242	0.077	-0.063
-666.032	-200.000	0.072	-0.389
-665.018	22.463	0.282	-0.236
-664.003	-12.352	-0.184	0.123
-662.989	-124.437	0.330	0.052
-661.974	-178.900	0.284	0.007
-660.959	-62.244	0.118	-0.050
-659.945	-41.508	0.433	0.228
-658.930	1.307	0.289	-0.212
-657.916	800.000	0.101	-0.381
-656.901	-69.708	-0.078	0.030
-655.886	-132.130	-0.322	-0.043
-654.872	-153.291	-0.330	0.024
-653.857	-146.339	0.144	-0.013
-652.843	-65.526	-0.233	-0.095
-651.828	-200.000	0.013	-0.166
-650.814	-200.000	-0.021	-0.123
-649.799	-94.016	0.311	0.087
-648.784	410.035	0.120	-0.259
-647.770	203.128	0.160	-0.252
-646.755	-200.000	0.035	0.346
-645.741	-93.691	-0.219	0.062
-644.726	800.000	-0.072	0.256
-643.711	-174.168	-0.233	-0.007
-642.697	-140.234	-0.302	-0.032
-641.682	-200.000	0.001	0.048
-640.668	154.423	-0.160	-0.224
-639.653	656.712	0.064	-0.168
-638.638	-45.689	0.163	0.082
-637.624	33.004	0.141	0.124
-636.609	-31.703	-0.204	0.117
-635.595	242.305	0.013	0.022
-634.580	800.000	0.029	0.124
-633.565	48.155	-0.181	0.173
-632.551	-200.000	-0.031	0.338
-631.536	-136.999	-0.198	-0.023
-630.522	-97.278	0.235	-0.063
-629.507	172.487	-0.135	-0.198
-628.492	800.000	-0.022	-0.077
-627.478	470.023	0.020	-0.046
-626.463	-200.000	-0.023	0.176
-625.449	387.477	0.044	-0.092
-624.434	-49.474	0.343	-0.167
-623.419	535.687	0.045	0.110
-622.405	-87.536	-0.212	-0.065
-621.390	27.135	0.056	-0.048
-620.376	90.374	0.123	-0.140
-619.361	-149.858	0.151	0.012
-618.346	80.805	-0.379	0.417
-617.332	-200.000	0.009	-0.151
-616.317	800.000	0.020	-0.080
-615.303	242.209	-0.136	-0.232
-614.288	264.766	-0.091	-0.161
-613.273	-94.939	-0.173	0.048
-612.259	-86.884	0.386	0.120
-611.244	-200.000	-0.007	-0.156
-610.230	7.147	-0.166	0.126
-609.215	-200.000	0.001	0.074
-608.201	-139.340	0.319	0.035
-607.186	800.000	-0.076	0.241
-606.171	-123.681	0.374	0.060
-605.157	-84.278	0.086	0.028
-604.142	-37.725	-0.149	0.081
-603.128	110.209	-0.174	-0.212
-602.113	15.125	0.229	0.183
-601.098	7.792	-0.157	0.120
-600.084	100.124	0.096	0.114
-599.069	-141.526	0.122	-0.013
-598.055	-200.000	-0.011	-0.061
-597.040	-200.000	0.008	0.094
-596.025	-38.633	0.077	-0.041
-595.011	-119.232	-0.052	-0.009
-593.996	-200.000	0.027	-0.157
-592.982	-3.965	0.164	0.116
-591.967	1.436	-0.397	-0.290
-590.952	542.081	-0.037	0.090
-589.938	-52.930	-0.229	-0.108
-588.923	-64.156	0.317	-0.132
-587.909	-88.178	0.148	0.045
-586.894	375.242	-0.096	-0.199
-585.879	348.237	0.092	-0.184
-584.865	39.598	0.073	-0.066
-583.850	-132.411	-0.336	-0.044
-582.836	41.242	0.222	0.204
-581.821	-124.225	-0.433	-0.069
-580.806	800.000	-0.081	-0.290
-579.792	-68.420	-0.316	0.125
-578.777	234.690	-0.084	0.142
-577.763	-36.888	0.262	-0.143
-576.748	-60.015	-0.124	0.054
-575.733	-144.197	-0.347	0.033
-574.719	-132.256	-0.355	0.047
-573.704	800.000	-0.027	0.110
-572.690	-38.655	-0.050	-0.027
-571.675	-65.458	-0.294	0.120
-570.661	-200.000	0.000	0.088
-569.646	-75.391	0.305	0.111
-568.631	682.037	-0.132	0.349
-567.617	25.541	-0.147	0.125
-566.602	-72.669	0.079	-0.030
-565.588	380.303	-0.145	-0.302
-564.573	-96.661	-0.121	0.033
-563.558	-200.000	-0.055	-0.310
-562.544	114.656	-0.210	0.260
-561.529	68.280	-0.229	0.238
-560.515	8.047	-0.145	-0.111
-559.500	-200.000	-0.010	0.062
-558.485	321.800	0.222	-0.430
-557.471	800.000	0.033	0.109
-556.456	-137.101	-0.283	-0.033
-555.442	-200.000	0.018	0.168
-554.427	302.393	0.184	0.347
-553.412	-44.103	0.190	0.097
-552.398	324.856	-0.161	0.312
-551.383	89.371	-0.081	0.091
-550.369	-77.858	-0.411	-0.144
-549.354	-166.729	0.256	0.011
-548.339	25.436	-0.122	0.103
-547.325	148.273	0.215	-0.295
-546.310	-60.603	0.236	-0.102
-545.296	-144.043	0.205	-0.020
-544.281	105.584	0.078	0.094
-543.266	193.253	-0.075	0.115
-542.252	35.978	0.078	0.069
-541.237	-148.846	-0.304	0.025
-540.223	-142.927	0.204	0.020
-539.208	-82.616	-0.283	-0.093
-538.193	324.120	0.114	-0.221
-537.179	-94.072	-0.296	0.082
-536.164	-4.520	-0.034	-0.024
-535.150	-200.000	-0.024	-0.359
-534.135	-76.626	-0.138	0.049
-533.121	-29.842	0.211	-0.122
-532.106	-60.828	0.053	-0.023
-531.091	55.860	-0.134	0.132
-530.077	-131.510	-0.194	0.026
-529.062	-102.125	-0.171	0.042
-528.048	-104.503	0.234	0.055
-527.033	-132.292	0.212	0.028
-526.018	-104.021	0.213	0.050
-525.004	-136.865	0.189	0.022
-523.989	443.905	0.054	0.121
-522.975	336.746	0.121	-0.239
-521.960	-121.814	-0.204	-0.034
-520.945	102.301	-0.186	-0.220
-519.931	-92.763	0.110	0.031
-518.916	27.266	-0.128	0.109
-517.902	40.863	0.308	0.282
-516.887	-82.773	-0.306	-0.100
-515.872	-49.093	0.441	-0.214
-514.858	31.083	0.281	-0.244
-513.843	42.289	0.047	-0.044
-512.829	-127.039	-0.358	-0.053
-511.814	-8.560	0.043	-0.029
-510.799	-108.930	-0.247	-0.054
-509.785	800.000	0.070	-0.206
-508.770	-145.186	-0.275	0.025
-507.756	7.643	0.145	-0.110
-506.741	-76.439	0.310	0.110
-505.726	28.220	-0.341	0.292
-504.712	288.123	0.136	0.250
-503.697	-135.257	-0.191	0.023
-502.683	105.225	-0.170	-0.204
-501.668	62.033	-0.156	-0.157
-500.653	-143.167	-0.238	-0.023
-499.639	12.382	0.127	-0.099
-498.624	-72.180	-0.118	-0.044
-497.610	-100.899	-0.079	0.020
-496.595	-87.956	-0.230	-0.070
-495.581	195.131	-0.147	0.226
-494.566	-10.641	-0.276	-0.186
-493.551	-73.594	0.159	0.059
-492.537	-78.610	-0.197	0.068
-491.522	274.092	0.037	-0.066
-490.508	692.636	0.128	0.341
-489.493	59.489	-0.155	0.155
-488.478	-100.484	0.119	-0.030
-487.464	477.943	-0.031	-0.070
-486.449	-200.000	0.027	0.177
-485.435	-200.000	0.017	-0.304
-484.420	41.275	-0.283	-0.259
-483.405	-98.106	-0.178	-0.046
-482.391	-17.019	-0.182	0.116
-481.376	-200.000	-0.057	0.425
-480.362	438.741	-0.040	0.089
-479.347	-61.150	-0.123	-0.053
-478.332	-200.000	-0.001	0.409
-477.318	-200.000	-0.032	-0.151
-476.303	800.000	-0.059	0.165
-475.289	611.560	0.082	0.207
-474.274	145.829	0.047	0.064
-473.259	713.475	-0.064	0.172
-472.245	800.000	-0.093	-0.301
-471.230	83.407	0.098	0.108
-470.216	395.892	-0.068	0.143
-469.201	-112.519	0.322	0.065
-468.186	40.774	0.032	-0.029
-467.172	800.000	0.118	0.416
-466.157	-10.038	-0.215	0.145
-465.143	70.096	-0.237	-0.247
-464.128	-117.110	-0.175	0.032
-463.113	127.944	0.105	-0.135
-462.099	800.000	-0.065	0.183
-461.084	-200.000	-0.019	-0.126
-460.070	-200.000	0.030	-0.140
-459.055	681.610	-0.127	0.334
-458.040	183.163	0.190	-0.284
-457.026	800.000	-0.008	-0.029
-456.011	800.000	-0.038	0.135
-454.997	-40.783	0.215	0.113
-453.982	785.509	-0.132	0.367
-452.968	148.414	0.111	0.152
-451.953	-19.379	0.165	-0.104
-450.938	-56.825	0.327	0.146
-449.924	-200.000	-0.011	-0.241
-448.909	-60.512	0.406	0.174
-447.895	73.904	0.119	-0.126
-446.880	12.587	-0.181	0.141
-445.865	76.354	-0.097	0.104
-444.851	-200.000	0.007	-0.068
-443.836	-200.000	0.019	-0.249
-442.822	800.000	0.025	0.082
-441.807	160.019	0.191	0.269
-440.792	-200.000	-0.018	0.146
-439.778	87.986	-0.059	-0.066
-438.763	56.998	0.213	0.210
-437.749	23.371	0.137	0.114
-436.734	118.781	-0.029	-0.036
-435.719	18.194	-0.114	-0.092
-434.705	258.609	0.026	0.045
-433.690	-200.000	-0.047	-0.277
-432.676	800.000	0.069	0.226
-431.661	1.393	-0.166	0.121
-430.646	-0.058	0.019	0.014
-429.632	800.000	0.083	0.265
-428.617	-185.258	-0.234	-0.004
-427.603	-100.440	-0.280	-0.070
-426.588	-72.865	-0.235	0.087
-425.573	-21.515	0.419	-0.259
-424.559	-65.014	0.093	-0.038
-423.544	-5.359	0.075	-0.052
-422.530	130.426	-0.082	-0.107
-421.515	147.467	-0.240	-0.326
-420.500	-200.000	-0.017	0.351
-419.486	37.286	-0.088	0.079
-418.471	-3.374	-0.065	-0.046
-417.457	-61.762	0.083	0.035
-416.442	-109.636	0.277	-0.059
-415.428	43.786	-0.293	-0.271
-414.413	-200.000	-0.019	-0.289
-413.398	-40.884	0.109	-0.057
-412.384	387.797	-0.032	-0.067
-411.369	753.343	-0.152	0.415
-410.355	-137.414	-0.088	-0.010
-409.340	-65.199	0.158	-0.064
-408.325	800.000	-0.028	-0.093
-407.311	-87.207	-0.455	0.140
-406.296	-13.734	0.228	0.149
-405.282	-53.590	0.233	-0.108
-404.267	800.000	0.086	0.284
-403.252	-79.813	-0.091	0.031
-402.238	-2.331	-0.223	0.158
-401.223	115.567	-0.196	-0.243
-400.209	-101.871	-0.207	0.051
-399.194	-119.028	0.154	-0.027
-398.179	-87.720	-0.211	0.064
-397.165	-25.702	-0.282	0.168
-396.150	264.698	-0.105	-0.185
-395.136	-90.860	-0.111	-0.032
-394.121	-136.138	0.100	-0.012
-393.106	-42.758	0.297	-0.153
-392.092	-40.141	0.105	0.055
-391.077	132.626	0.088	0.115
-390.063	800.000	0.060	0.201
-389.048	-4.314	0.425	0.297
-388.033	88.437	0.157	-0.176
-387.019	206.619	-0.016	-0.026
-386.004	-59.529	0.379	-0.165
-384.990	-200.000	-0.031	0.310
-383.975	664.721	-0.101	-0.263
-382.960	149.294	-0.193	0.263
-381.946	-200.000	0.004	-0.028
-380.931	15.363	0.353	0.280
-379.917	44.943	0.067	-0.062
-378.902	558.403	-0.036	-0.087
-377.888	123.803	0.291	-0.369
-376.873	-86.819	-0.172	-0.053
-375.858	136.334	-0.130	0.171
-374.844	266.255	0.053	-0.093
-373.829	-174.170	-0.092	0.003
-372.815	800.000	-0.056	-0.169
-371.800	-200.000	0.028	0.149
-370.785	-65.836	-0.207	-0.083
-369.771	800.000	-0.137	-0.523
-368.756	-114.615	-0.211	-0.041
-367.742	186.647	-0.094	0.142
-366.727	-115.005	-0.363	0.070
-365.712	800.000	-0.068	0.261
-364.698	53.166	0.126	-0.122
-363.683	-86.524	0.166	-0.051
-362.669	-46.844	0.230	-0.113
-361.654	758.505	0.051	0.140
-360.639	281.860	0.088	0.159
-359.625	632.949	-0.052	-0.133
-358.610	-200.000	-0.004	0.304
-357.596	-30.970	-0.337	0.192
-356.581	397.233	-0.119	0.252
-355.566	-75.390	0.184	-0.066
-354.552	-43.586	-0.315	-0.160
-353.537	-136.322	-0.297	0.035
-352.523	-84.859	-0.314	0.100
-351.508	79.431	0.135	-0.146
-350.493	-174.325	0.313	-0.009
-349.479	-10.981	0.245	0.163
-348.464	-88.241	0.311	-0.094
-347.450	87.607	0.110	-0.122
-346.435	108.231	-0.140	-0.169
-345.420	195.990	0.045	-0.070
-344.406	174.093	-0.084	0.123
-343.391	12.360	0.208	0.162
-342.377	800.000	0.083	0.300
-341.362	800.000	-0.062	-0.189
-340.348	141.877	0.163	-0.217
-339.333	2.058	0.183	-0.133
-338.318	-159.048	-0.113	-0.006
-337.304	-54.628	0.145	0.066
-336.289	-200.000	-0.031	0.198
-335.275	108.289	-0.213	-0.256
-334.260	148.619	0.064	0.087
-333.245	26.537	0.222	-0.188
-332.231	691.408	0.021	0.055
-331.216	-200.000	-0.014	-0.125
-330.202	-78.979	-0.159	-0.054
-329.187	134.421	0.178	-0.233
-328.172	-153.309	0.126	0.009
-327.158	10.869	-0.411	-0.316
-326.143	27.207	0.191	0.161
-325.129	800.000	-0.084	-0.280
-324.114	-139.308	-0.136	0.015
-323.099	-121.236	-0.288	0.049
-322.085	-35.969	-0.061	-0.033
-321.070	-200.000	0.039	-0.297
-320.056	-102.380	-0.099	-0.024
-319.041	121.227	-0.138	-0.174
-318.026	278.441	0.050	-0.089
-317.012	-200.000	0.011	0.157
-315.997	-200.000	0.064	-0.415
-314.983	-106.981	0.134	0.030
-313.968	-79.834	0.454	-0.154
-312.953	-29.373	0.350	-0.202
-311.939	307.047	0.161	-0.303
-310.924	200.497	-0.146	0.225
-309.910	800.000	-0.060	0.263
-308.895	-200.000	-0.005	0.025
-307.880	800.000	-0.032	0.103
-306.866	-200.000	-0.008	-0.271
-305.851	-65.819	-0.258	0.104
-304.837	485.575	-0.107	0.245
-303.822	-78.562	0.282	0.097
-302.807	800.000	0.056	0.234
-301.793	91.478	0.183	0.207
-300.778	51.596	0.122	0.116
-299.764	321.732	0.091	0.174
-298.749	-118.476	0.189	0.034
-297.735	-200.000	-0.001	0.134
-296.720	-200.000	-0.068	0.309
-295.705	-200.000	0.019	-0.259
-294.691	36.364	-0.239	-0.212
-293.676	-200.000	-0.044	-0.230
-292.662	-30.859	-0.227	-0.129
-291.647	-194.318	0.282	0.002
-290.632	-200.000	0.004	-0.157
-289.618	-92.650	-0.177	-0.050
-288.603	800.000	0.056	0.213
-287.589	402.986	0.090	-0.190
-286.574	35.020	-0.136	0.120
-285.559	96.475	-0.098	0.112
-284.545	-200.000	0.075	0.374
-283.530	433.999	0.135	-0.295
-282.516	-200.000	-0.022	-0.165
-281.501	-200.000	0.024	-0.120
-280.486	-129.702	-0.294	-0.041
-279.472	18.366	0.231	-0.186
-278.457	-192.805	0.206	-0.002
-277.443	118.227	-0.129	0.161
-276.428	800.000	0.064	0.267
-275.413	800.000	0.095	0.357
-274.399	-102.113	0.173	-0.042
-273.384	32.873	-0.099	0.086
-272.370	-67.256	0.094	0.037
-271.355	445.939	-0.068	-0.150
-270.340	336.241	0.074	-0.145
-269.326	-30.460	0.146	-0.083
-268.311	5.173	0.203	0.150
-267.297	800.000	0.182	0.516
-266.282	232.753	-0.137	0.226
-265.267	800.000	-0.062	-0.196
-264.253	-4.187	-0.122	0.085
-263.238	-200.000	0.007	-0.151
-262.224	82.712	0.128	0.140
-261.209	95.323	0.034	-0.039
-260.195	-98.597	0.070	-0.018
-259.180	-149.092	-0.314	0.025
-258.165	-178.221	0.077	0.002
-257.151	-40.279	0.149	-0.078
-256.136	325.188	0.112	-0.215
-255.122	-51.813	0.312	-0.146
-254.107	-200.000	0.031	-0.383
-253.092	-200.000	0.004	0.059
-252.078	-200.000	0.007	0.059
-251.063	-48.220	-0.200	-0.097
-250.049	295.801	-0.052	0.095
-249.034	263.889	0.193	0.337
-248.019	-51.518	0.108	0.051
-247.005	-19.565	-0.170	-0.106
-245.990	-105.252	0.195	-0.045
-244.976	10.633	0.193	-0.148
-243.961	-99.592	0.075	0.019
-242.946	338.377	-0.213	-0.416
-241.932	360.193	0.076	0.153
-240.917	-92.123	0.048	-0.014
-239.903	282.779	0.065	-0.117
-238.888	593.053	0.057	-0.141
-237.873	63.845	0.142	0.143
-236.859	320.943	-0.104	-0.199
-235.844	-60.703	0.177	-0.075
-234.830	-84.121	0.060	0.019
-233.815	800.000	-0.037	0.138
-232.800	-200.000	0.052	0.237
-231.786	22.190	-0.155	0.127
-230.771	237.958	0.065	-0.109
-229.757	-200.000	0.002	-0.137
-228.742	-97.862	0.139	-0.036
-227.727	-52.966	-0.189	-0.087
-226.713	731.674	0.076	-0.205
-225.698	800.000	-0.029	0.093
-224.684	39.314	0.285	0.256
-223.669	-31.866	-0.210	-0.118
-222.655	-60.989	0.118	0.050
-221.640	-77.565	0.221	-0.077
-220.625	83.086	0.039	-0.043
-219.611	800.000	-0.064	-0.254
-218.596	-182.079	-0.185	-0.003
-217.582	414.662	-0.066	-0.140
-216.567	-61.219	-0.146	-0.062
-215.552	363.316	0.035	-0.070
-214.538	-55.479	0.101	0.045
-213.523	73.721	0.070	-0.074
-212.509	-200.000	0.063	0.514
-211.494	22.800	-0.207	-0.170
-210.479	283.889	0.142	-0.256
-209.465	-47.799	-0.197	-0.096
-208.450	-31.883	-0.289	-0.162
-207.436	-200.000	-0.001	0.096
-206.421	493.384	0.113	0.260
-205.406	25.669	-0.191	-0.159
-204.392	-71.833	0.048	0.018
-203.377	447.017	-0.007	0.016
-202.363	-53.080	0.353	-0.163
-201.348	-65.845	0.301	-0.121
-200.333	266.412	-0.153	-0.268
-199.319	-200.000	0.022	-0.201
-198.304	95.360	0.180	-0.206
-197.290	-200.000	0.018	0.150
-196.275	-159.282	0.165	0.009
-195.260	96.160	-0.174	0.200
-194.246	-168.567	0.262	-0.010
-193.231	101.252	-0.256	0.299
-192.217	7.282	-0.119	-0.089
-191.202	-65.109	0.246	0.099
-190.187	-44.691	0.326	-0.163
-189.173	168.239	0.088	0.126
-188.158	-115.860	-0.227	-0.043
-187.144	392.580	-0.058	-0.120
-186.129	-200.000	0.002	0.203
-185.114	-61.770	-0.324	0.136
-184.100	100.878	0.045	0.053
-183.085	800.000	0.052	-0.168
-182.071	-53.636	0.318	0.146
-181.056	127.956	-0.132	-0.168
-180.042	-200.000	-0.017	0.092
-179.027	59.556	0.200	0.197
-178.012	79.544	0.066	-0.071
-176.998	-110.408	0.088	0.018
-175.983	-105.479	0.147	-0.033
-174.969	-180.899	-0.211	-0.004
-173.954	-200.000	0.056	-0.276
-172.939	-2.398	-0.038	-0.027
-171.925	-54.159	-0.189	0.086
-170.910	181.251	-0.109	-0.160
-169.896	-75.180	0.226	0.081
-168.881	-200.000	-0.008	-0.140
-167.866	154.193	-0.072	0.100
-166.852	-150.231	-0.110	0.009
-165.837	-57.161	-0.204	-0.090
-164.823	50.841	-0.024	0.023
-163.808	-110.846	0.427	0.088
-162.793	63.431	0.108	-0.109
-161.779	-185.092	0.232	0.004
-160.764	-88.981	-0.332	-0.099
-159.750	15.615	0.129	-0.102
-158.735	-63.426	0.355	-0.146
-157.720	14.664	0.164	0.128
-156.706	261.478	-0.117	-0.202
-155.691	-22.745	0.065	0.039
-154.677	-200.000	-0.038	-0.239
-153.662	164.039	0.211	0.298
-152.647	-38.941	-0.268	0.141
-151.633	-200.000	0.040	-0.327
-150.618	-128.500	-0.414	0.059
-149.604	-74.515	0.193	-0.070
-148.589	-101.561	0.391	0.095
-147.574	-75.467	0.131	-0.047
-146.560	-200.000	-0.345	-0.002
-145.545	800.000	-0.043	0.166
-144.531	324.750	-0.038	0.073
-143.516	-200.000	0.042	-0.213
-142.502	-129.418	-0.372	-0.052
-141.487	-200.000	-0.032	0.440
-140.472	72.271	0.145	-0.151
-139.458	355.613	0.092	-0.182
-138.443	78.348	-0.212	0.227
-137.429	-200.000	-0.041	-0.198
-136.414	62.921	0.159	-0.159
-135.399	-53.623	0.149	-0.068
-134.385	102.674	0.138	0.162
-133.370	800.000	0.088	-0.369
-132.356	634.208	-0.035	0.088
-131.341	-42.371	0.200	0.102
-130.326	111.830	0.178	-0.215
-129.312	-200.000	0.012	-0.067
-128.297	800.000	0.096	0.267
-127.283	267.177	-0.125	0.219
-126.268	675.802	0.086	-0.225
-125.253	503.319	-0.117	-0.270
-124.239	215.614	0.146	-0.232
-123.224	-82.369	0.557	-0.181
-122.210	3.036	0.168	-0.122
-121.195	-200.000	-0.088	-0.447
-120.180	22.748	-0.073	0.060
-119.166	-200.000	0.025	0.192
-118.151	394.284	0.079	-0.164
-117.137	-164.075	0.473	-0.022
-116.122	-200.000	-0.019	-0.122
-115.107	22.036	-0.153	-0.125
-114.093	17.720	0.244	0.194
-113.078	-200.000	-0.046	0.334
-112.064	800.000	-0.023	-0.097
-111.049	-200.000	-0.013	-0.330
-110.034	-200.000	-0.024	-0.429
-109.020	-200.000	-0.040	-0.340
-108.005	-123.332	0.174	-0.028
-106.991	-120.080	-0.262	-0.045
-105.976	-200.000	0.045	0.244
-104.962	260.186	0.133	0.230
-103.947	-195.854	-0.297	0.002
-102.932	-200.000	0.139	0.000
-101.918	49.817	0.074	0.070
-100.903	-63.836	0.072	-0.030
-99.889	19.992	0.360	-0.290
-98.874	-200.000	0.000	-0.157
-97.859	-140.017	-0.082	0.009
-96.845	-200.000	-0.010	0.439
-95.830	181.866	0.281	0.413
-94.816	-200.000	0.001	-0.012
-93.801	-200.000	0.006	-0.058
-92.786	-200.000	0.024	0.198
-91.772	142.103	0.204	-0.270
-90.757	-60.353	-0.279	0.118
-89.743	-129.837	0.199	-0.027
-88.728	-136.255	0.330	0.039
-87.713	129.677	0.104	-0.132
-86.699	-54.372	0.442	0.200
-85.684	-27.209	0.196	0.114
-84.670	800.000	-0.083	-0.234
-83.655	-128.063	0.264	0.038
-82.640	-44.808	-0.232	-0.115
-81.626	-200.000	0.161	0.000
-80.611	42.309	0.182	0.165
-79.597	-200.000	0.036	0.358
-78.582	621.075	-0.050	0.127
-77.567	-175.141	-0.133	-0.004
-76.553	-200.000	0.020	-0.091
-75.538	-200.000	-0.037	0.321
-74.524	79.517	-0.127	0.136
-73.509	71.068	0.244	-0.252
-72.494	155.696	-0.253	0.348
-71.480	800.000	0.011	0.034
-70.465	83.024	0.126	-0.137
-69.451	-22.462	-0.196	0.119
-68.436	-168.884	-0.137	-0.005
-67.422	-200.000	-0.017	-0.153
-66.407	170.918	-0.136	0.195
-65.392	-36.076	0.223	-0.120
-64.378	226.094	0.056	-0.091
-63.363	-3.641	0.134	-0.093
-62.349	-200.000	-0.013	0.202
-61.334	-62.305	-0.540	-0.224
-60.319	800.000	0.170	0.582
-59.305	-200.000	0.024	-0.529
-58.290	2.044	0.486	0.350
-57.276	422.846	0.694	1.487
-56.261	-200.000	74.060	555.701
-55.246	540.232	1335.063	3169.053
-54.232	135.017	2602.014	3370.442
-53.217	111.591	2387.472	2871.778
-52.203	52.457	1994.506	1898.035
-51.188	46.235	1780.214	1644.484
-50.173	43.296	1732.478	1577.402
-49.159	57.510	1765.072	1719.071
-48.144	63.888	1783.708	1787.190
-47.130	46.166	1748.367	1614.265
-46.115	42.869	1734.342	1575.505
-45.100	42.785	1729.240	1570.152
-44.086	42.571	1727.019	1566.405
-43.071	42.658	1724.471	1564.708
-42.057	42.680	1721.671	1562.273
-41.042	42.667	1719.611	1560.242
-40.027	42.620	1717.850	1558.218
-39.013	42.685	1716.072	1557.047
-37.998	42.654	1713.678	1554.575
-36.984	42.777	1712.159	1554.083
-35.969	42.748	1711.503	1553.204
-34.954	42.964	1709.181	1552.702
-33.940	42.893	1707.357	1550.434
-32.925	42.908	1705.433	1548.741
-31.911	42.844	1703.730	1546.642
-30.896	42.796	1702.105	1544.740
-29.881	42.746	1700.524	1542.858
-28.867	42.847	1698.061	1541.338
-27.852	42.848	1696.458	1539.827
-26.838	42.801	1695.709	1538.727
-25.823	42.818	1693.682	1536.956
-24.809	42.811	1692.657	1535.916
-23.794	42.818	1691.052	1534.451
-22.779	42.788	1689.772	1533.000
-21.765	42.820	1688.023	1531.589
-20.750	42.835	1685.600	1529.448
-19.736	42.829	1684.366	1528.221
-18.721	42.848	1683.173	1527.223
-17.706	42.805	1681.690	1525.489
-16.692	42.892	1679.659	1524.243
-15.677	42.829	1678.724	1522.859
-14.663	42.831	1677.075	1521.320
-13.648	42.864	1674.935	1519.570
-12.633	42.842	1673.823	1518.335
-11.619	42.696	1672.846	1516.284
-10.604	42.861	1670.776	1515.594
-9.590	42.904	1669.452	1514.651
-8.575	42.823	1668.004	1512.667
-7.560	42.851	1667.101	1512.000
-6.546	42.837	1665.693	1510.563
-5.531	42.763	1664.541	1508.899
-4.517	42.843	1663.040	1508.081
-3.502	42.883	1661.721	1507.120
-2.487	42.945	1660.029	1505.993
-1.473	42.945	1649.799	1496.651
-0.458	40.580	1629.219	1460.538
0.556	34.015	1624.723	1413.182
1.571	29.724	1644.885	1398.219
2.586	27.777	1657.019	1393.562
3.600	24.344	1602.982	1322.592
4.615	13.611	1482.498	1149.049
5.629	3.058	1405.479	1019.568
6.644	0.605	1394.594	995.433
7.659	0.307	1393.111	992.321
8.673	0.294	1392.195	991.493
9.688	0.195	1390.349	989.446
10.702	0.042	1387.506	986.333
11.717	3.954	1394.983	1017.314
12.731	13.394	1410.095	1090.724
13.746	18.196	1416.652	1127.424
14.761	17.516	1412.997	1119.945
15.775	16.422	1410.280	1110.510
16.790	15.302	1408.022	1101.284
17.804	14.573	1404.946	1093.998
18.819	14.150	1403.552	1090.043
19.834	13.788	1402.219	1086.546
20.848	13.613	1401.141	1084.465
21.863	13.270	1399.657	1080.981
22.877	13.210	1398.214	1079.376
23.892	13.083	1397.321	1077.764
24.907	13.090	1396.598	1077.158
25.921	13.232	1395.145	1076.866
26.936	13.167	1394.791	1076.076
27.950	13.192	1393.217	1074.927
28.965	13.274	1392.929	1075.145
29.980	13.368	1391.513	1074.568
30.994	13.411	1390.853	1074.241
32.009	13.447	1389.847	1073.600
33.023	13.372	1388.744	1072.172
34.038	13.319	1387.264	1070.589
35.053	13.363	1386.078	1069.862
36.067	13.270	1385.121	1068.432
37.082	13.323	1384.039	1067.840
38.096	13.327	1383.358	1067.249
39.111	13.329	1382.224	1066.292
40.126	13.193	1381.820	1065.007
41.140	13.183	1380.866	1064.115
42.155	13.065	1380.513	1062.987
43.169	13.105	1380.099	1062.831
44.184	13.214	1379.471	1062.955
45.199	13.060	1379.623	1061.988
46.213	13.177	1379.024	1062.188
47.228	13.189	1377.730	1061.172
48.242	13.250	1376.363	1060.416
49.257	13.238	1374.872	1059.098
50.271	13.266	1373.608	1058.208
51.286	13.278	1372.571	1057.397
52.301	13.202	1371.086	1055.672
53.315	13.230	1369.678	1054.673
54.330	13.113	1369.164	1053.436
55.344	13.171	1368.092	1052.892
56.359	13.124	1366.583	1051.333
57.374	13.107	1365.838	1050.563
58.388	13.066	1365.260	1049.762
59.403	12.981	1364.524	1048.565
60.417	12.991	1363.699	1047.900
61.432	13.069	1362.465	1047.356
62.447	13.048	1361.586	1046.452
63.461	13.030	1360.616	1045.500
64.476	13.104	1359.048	1044.674
65.490	13.062	1358.450	1043.855
66.505	13.008	1356.833	1042.180
67.520	13.057	1355.082	1041.049
68.534	13.102	1353.984	1040.395
69.549	13.183	1353.026	1040.078
70.563	13.072	1352.014	1038.514
71.578	13.047	1350.918	1037.419
72.593	13.069	1349.945	1036.722
73.607	12.924	1349.142	1035.103
74.622	13.037	1347.902	1034.764
75.636	13.039	1347.036	1034.020
76.651	13.013	1346.352	1033.246
77.666	12.936	1346.096	1032.471
78.680	12.991	1345.601	1032.346
79.695	12.975	1344.540	1031.340
80.709	13.073	1343.727	1031.237
81.724	13.044	1343.053	1030.447
82.739	13.210	1341.943	1030.540
83.753	13.121	1340.750	1028.980
84.768	13.296	1339.153	1028.751
85.782	13.256	1338.593	1027.984
86.797	13.299	1337.453	1027.283
87.812	13.185	1335.929	1025.314
88.826	13.143	1335.267	1024.455
89.841	13.291	1333.816	1024.170
90.855	13.238	1332.821	1022.986
91.870	13.231	1332.158	1022.340
92.884	13.248	1330.909	1021.397
93.899	13.266	1330.177	1020.856
94.914	13.311	1329.667	1020.652
95.928	13.297	1329.013	1019.975
96.943	13.350	1327.458	1019.017
97.957	13.380	1326.174	1018.125
98.972	13.237	1325.745	1016.826
99.987	13.267	1324.823	1016.211
101.001	13.226	1323.548	1014.895
102.016	13.314	1322.362	1014.437
103.030	13.340	1321.879	1014.134
104.045	13.189	1321.324	1012.694
105.060	13.300	1319.581	1011.944
106.074	13.197	1318.537	1010.429
107.089	13.090	1317.358	1008.778
108.103	13.049	1315.975	1007.383
109.118	13.119	1314.326	1006.457
110.133	13.050	1313.391	1005.233
111.147	13.065	1311.811	1004.027
112.162	13.082	1310.729	1003.210
113.176	13.253	1309.116	1002.928
114.191	13.207	1308.564	1002.133
115.206	13.214	1307.412	1001.205
116.220	13.214	1306.024	1000.056
117.235	13.231	1304.642	999.011
118.249	13.192	1303.693	997.963
119.264	13.282	1302.151	997.232
120.279	13.180	1301.535	996.058
121.293	13.178	1300.504	995.169
122.308	13.241	1299.208	994.472
123.322	13.173	1298.331	993.303
124.337	13.050	1297.641	991.950
125.352	13.175	1296.254	991.547
126.366	13.190	1294.834	990.463
127.381	13.155	1293.715	989.310
128.395	13.117	1292.977	988.432
129.410	13.092	1291.842	987.327
130.424	13.165	1291.316	987.275
131.439	13.228	1290.159	986.681
132.454	13.262	1289.492	986.286
133.468	13.165	1288.505	984.865
134.483	13.200	1287.617	984.310
135.497	13.158	1287.054	983.541
136.512	13.256	1285.442	982.804
137.527	13.311	1284.041	981.972
138.541	13.234	1282.556	980.293
139.556	13.281	1281.295	979.523
140.570	13.306	1280.645	979.087
141.585	13.338	1278.841	977.809
142.600	13.356	1277.690	976.949
143.614	13.414	1276.940	976.632
144.629	13.420	1275.583	975.541
145.643	13.331	1274.620	974.196
146.658	13.320	1273.246	972.992
147.673	13.338	1271.720	971.850
148.687	13.375	1270.412	970.982
149.702	13.230	1269.041	968.994
150.716	13.333	1267.396	968.257
151.731	13.151	1266.533	966.445
152.746	13.286	1265.421	966.304
153.760	13.370	1263.979	965.603
154.775	13.420	1262.993	965.057
155.789	13.375	1261.497	963.566
156.804	13.374	1260.693	962.861
157.819	13.396	1260.076	962.435
158.833	13.424	1258.964	961.660
159.848	13.525	1257.627	961.144
160.862	13.502	1256.664	960.187
161.877	13.362	1255.547	958.439
162.892	13.347	1254.420	957.407
163.906	13.413	1253.711	957.165
164.921	13.397	1252.735	956.241
165.935	13.436	1251.834	955.692
166.950	13.434	1251.199	955.109
167.964	13.401	1250.839	954.563
168.979	13.503	1249.781	954.257
169.994	13.590	1248.581	953.761
171.008	13.534	1248.152	953.026
172.023	13.459	1247.252	951.823
173.037	13.589	1246.443	951.864
174.052	13.568	1245.601	951.021
175.067	13.573	1244.152	949.858
176.081	13.562	1243.555	949.257
177.096	13.504	1242.358	947.925
178.110	13.525	1241.184	947.066
179.125	13.473	1240.292	946.002
180.140	13.583	1238.927	945.506
181.154	13.577	1237.619	944.391
182.169	13.592	1236.491	943.534
183.183	13.680	1235.298	943.039
184.198	13.667	1234.042	941.922
185.213	13.622	1232.814	940.645
186.227	13.706	1231.955	940.384
187.242	13.694	1231.033	939.528
188.256	13.852	1229.735	939.351
189.271	13.678	1228.952	937.686
190.286	13.567	1228.309	936.486
191.300	13.620	1226.901	935.628
192.315	13.526	1226.414	934.643
193.329	13.533	1226.159	934.406
194.344	13.673	1224.984	934.213
195.359	13.635	1224.397	933.472
196.373	13.798	1223.432	933.568
197.388	13.810	1223.551	933.647
198.402	13.938	1222.574	933.535
199.417	13.930	1222.148	933.083
200.432	13.958	1221.156	932.401
201.446	14.054	1220.559	932.400
202.461	13.986	1219.621	931.219
203.475	13.896	1218.702	929.934
204.490	14.055	1217.345	929.702
205.504	14.004	1216.011	928.318
206.519	13.923	1214.966	926.986
207.534	13.949	1213.741	926.114
208.548	14.026	1212.259	925.333
209.563	13.956	1211.963	924.635
210.577	13.921	1211.075	923.678
211.592	13.999	1210.185	923.352
212.607	14.142	1209.186	923.302
213.621	14.010	1208.398	921.888
214.636	13.966	1207.469	920.855
215.650	14.105	1206.428	920.745
216.665	14.096	1205.660	920.027
217.680	14.144	1204.897	919.633
218.694	14.244	1203.564	919.087
219.709	14.183	1203.368	918.516
220.723	14.250	1201.953	917.727
221.738	14.220	1201.334	917.006
222.753	14.118	1200.957	916.075
223.767	14.289	1199.973	916.182
224.782	14.269	1199.482	915.621
225.796	14.276	1198.685	914.970
226.811	14.293	1197.903	914.385
227.826	14.294	1196.955	913.585
228.840	14.348	1195.950	913.032
229.855	14.281	1195.662	912.362
230.869	14.136	1194.844	910.865
231.884	14.277	1193.688	910.675
232.899	14.301	1192.887	910.111
233.913	14.243	1192.052	909.080
234.928	14.333	1191.596	909.143
235.942	14.259	1190.875	908.108
236.957	14.309	1190.059	907.679
237.972	14.334	1189.452	907.271
238.986	14.372	1187.917	906.225
240.001	14.297	1187.894	905.724
241.015	14.278	1186.731	904.650
242.030	14.362	1185.867	904.368
243.045	14.380	1184.763	903.546
244.059	14.394	1184.562	903.386
245.074	14.433	1183.263	902.528
246.088	14.408	1182.965	902.086
247.103	14.448	1182.065	901.536
248.117	14.508	1181.700	901.501
249.132	14.589	1180.430	900.890
250.147	14.527	1179.825	900.017
251.161	14.638	1179.224	900.073
252.176	14.703	1178.786	900.013
253.190	14.758	1177.975	899.608
254.205	14.772	1177.450	899.204
255.220	14.788	1176.429	898.432
256.234	14.838	1175.581	897.974
257.249	14.810	1175.373	897.582
258.263	14.764	1174.519	896.605
259.278	14.781	1174.196	896.371
260.293	14.918	1173.081	896.174
261.307	14.890	1172.503	895.502
262.322	14.937	1171.737	895.092
263.336	14.864	1171.631	894.537
264.351	14.841	1171.095	893.930
265.366	14.926	1169.887	893.378
266.380	14.980	1169.215	893.076
267.395	15.014	1168.438	892.588
268.409	14.936	1167.640	891.483
269.424	14.912	1167.110	890.871
270.439	14.934	1166.462	890.413
271.453	14.868	1165.724	889.420
272.468	14.931	1164.853	889.010
273.482	14.893	1163.892	888.000
274.497	14.928	1163.428	887.750
275.512	14.966	1162.826	887.415
276.526	14.957	1161.889	886.574
277.541	15.066	1161.184	886.533
278.555	15.087	1160.404	885.974
279.570	15.082	1159.712	885.340
280.585	15.103	1158.931	884.774
281.599	15.121	1157.968	884.057
282.614	15.109	1156.990	883.171
283.628	15.064	1156.011	882.106
284.643	15.125	1155.151	881.690
285.657	15.066	1154.419	880.746
286.672	15.199	1153.287	880.503
287.687	15.229	1152.098	879.674
288.701	15.101	1151.670	878.597
289.716	15.206	1150.886	878.475
290.730	15.210	1150.275	877.952
291.745	15.280	1149.442	877.605
292.760	15.295	1148.394	876.804
293.774	15.478	1147.594	877.070
294.789	15.325	1147.494	876.119
295.803	15.256	1146.901	875.230
296.818	15.394	1146.213	875.347
297.833	15.317	1145.362	874.218
298.847	15.308	1144.049	873.090
299.862	15.316	1143.367	872.536
300.876	15.259	1143.280	872.092
301.891	15.427	1142.284	872.133
302.906	15.477	1141.366	871.613
303.920	15.520	1141.019	871.495
304.935	15.553	1140.370	871.090
305.949	15.646	1139.436	870.780
306.964	15.561	1138.947	869.893
307.979	15.667	1137.979	869.622
308.993	15.600	1137.019	868.465
310.008	15.523	1136.741	867.778
311.022	15.684	1135.606	867.668
312.037	15.560	1134.981	866.472
313.052	15.635	1133.939	865.987
314.066	15.510	1133.077	864.611
315.081	15.473	1132.194	863.670
316.095	15.572	1131.142	863.298
317.110	15.532	1130.773	862.734
318.125	15.530	1130.137	862.163
319.139	15.560	1129.771	861.962
320.154	15.570	1128.939	861.301
321.168	15.563	1128.184	860.615
322.183	15.622	1127.294	860.160
323.197	15.608	1126.875	859.695
324.212	15.672	1125.807	859.128
325.227	15.642	1125.665	858.793
326.241	15.695	1124.995	858.475
327.256	15.669	1123.860	857.400
328.270	15.694	1122.893	856.716
329.285	15.713	1122.167	856.179
330.300	15.692	1120.995	855.106
331.314	15.735	1120.260	854.685
332.329	15.707	1119.388	853.803
333.343	15.741	1118.526	853.244
334.358	15.799	1117.981	853.048
335.373	15.905	1117.167	852.886
336.387	15.820	1116.367	851.771
337.402	15.901	1115.723	851.613
338.416	15.920	1114.824	850.949
339.431	15.907	1114.507	850.563
340.446	15.941	1113.737	850.072
341.460	15.927	1112.930	849.310
342.475	15.985	1112.025	848.836
343.489	15.979	1111.315	848.192
344.504	16.072	1110.328	847.829
345.519	16.138	1109.409	847.387
346.533	16.048	1108.443	846.123
347.548	16.225	1107.548	846.250
348.562	16.145	1106.952	845.318
349.577	16.067	1106.421	844.448
350.592	16.055	1105.540	843.641
351.606	16.003	1104.809	842.748
352.621	16.119	1103.957	842.602
353.635	16.058	1103.463	841.848
354.650	16.120	1102.353	841.236
355.665	16.095	1102.166	840.893
356.679	16.034	1101.500	840.007
357.694	16.016	1101.232	839.638
358.708	16.092	1100.080	839.065
359.723	16.060	1099.650	838.504
360.738	16.195	1098.829	838.473
361.752	16.234	1098.228	838.132
362.767	16.264	1097.804	837.884
363.781	16.297	1096.871	837.260
364.796	16.278	1096.188	836.573
365.810	16.334	1095.823	836.498
366.825	16.426	1095.274	836.462
367.840	16.375	1095.035	835.953
368.854	16.366	1094.129	835.143
369.869	16.470	1092.933	834.670
370.883	16.350	1092.069	833.344
371.898	16.414	1091.966	833.504
372.913	16.405	1091.241	832.834
373.927	16.425	1090.586	832.358
374.942	16.535	1090.035	832.404
375.956	16.512	1089.501	831.810
376.971	16.484	1088.871	831.118
377.986	16.617	1088.430	831.362
379.000	16.684	1087.597	830.983
380.015	16.613	1087.372	830.390
381.029	16.734	1086.141	829.969
382.044	16.688	1085.671	829.312
383.059	16.731	1084.941	828.890
384.073	16.638	1084.448	827.983
385.088	16.660	1083.309	827.150
386.102	16.747	1082.516	826.897
387.117	16.715	1081.359	825.782
388.132	16.741	1080.379	825.086
389.146	16.692	1079.634	824.208
390.161	16.716	1078.827	823.636
391.175	16.712	1078.634	823.397
392.190	16.735	1077.744	822.755
393.205	16.832	1076.707	822.361
394.219	16.747	1076.182	821.475
395.234	16.879	1074.899	821.059
396.248	16.805	1073.621	819.655
397.263	16.812	1073.195	819.291
398.278	16.704	1072.533	818.190
399.292	16.771	1071.650	817.767
400.307	16.904	1070.758	817.656
401.321	16.782	1070.209	816.575
402.336	16.706	1069.969	815.955
403.350	16.805	1069.067	815.670
404.365	16.755	1068.512	814.937
405.380	16.810	1067.696	814.507
406.394	16.969	1066.543	814.319
407.409	16.912	1065.764	813.376
408.423	16.981	1064.965	813.027
409.438	17.010	1064.621	812.833
410.453	17.040	1063.842	812.306
411.467	17.074	1063.059	811.799
412.482	17.011	1062.743	811.187
413.496	17.110	1061.827	810.887
414.511	17.121	1061.027	810.257
415.526	17.218	1060.779	810.461
416.540	17.229	1060.415	810.164
417.555	17.261	1059.621	809.636
418.569	17.305	1059.141	809.406
419.584	17.192	1058.677	808.445
420.599	17.261	1058.399	808.487
421.613	78.778	1284.214	1322.324
422.628	72.623	1317.115	1322.466
