DTS Sentinel unit serial number:	SN413079Multiplexer serial number:	ORYXHardware model number:	OX4-SRSoftware version number:	ORYX F/W v4.00 Oryx Data Collector v3.7.2.0data status	okinstallation	princeton_trtdifferential loss correction	single-endedforward channel	channel 2reverse channel	N/Adate	2019/09/13time	17:35:35forward acquisition time	60.00reverse acquisition time	0.00gamma	496.2192k internal	0.2314k external	0.2314temperature offset calibration	1.0215default loss term (dB/km)	0.3790temperature slope calibration	1.0000multiplexer offset coefficient	1.0000multiplexer slope coefficient	1.0000fibre end	0.00T internal ref (°C)	36.00T ext. ref 1 (°C)	5.39T ext. ref 2 (°C)	29.05length (m)	temperature (°C)	Stokes	anti-Stokes-747.200	251.548	-0.030	-0.052
-746.185	-191.212	0.200	-0.002
-745.171	-87.946	0.267	0.081
-744.156	-200.000	-0.025	0.336
-743.142	204.019	0.135	-0.212
-742.127	37.138	0.350	0.314
-741.112	-136.241	-0.141	0.017
-740.098	800.000	-0.044	0.148
-739.083	-98.945	-0.206	0.053
-738.069	457.417	-0.167	0.376
-737.054	135.679	0.067	0.088
-736.039	6.731	0.212	-0.160
-735.025	-200.000	-0.012	0.207
-734.010	-200.000	0.084	-0.485
-732.996	4.078	-0.152	-0.112
-731.981	-75.906	0.156	0.056
-730.966	-105.078	-0.252	0.058
-729.952	-139.236	-0.269	0.029
-728.937	-135.903	-0.372	0.044
-727.923	98.695	0.114	-0.134
-726.908	26.246	-0.164	0.139
-725.894	-40.132	-0.391	-0.206
-724.879	-200.000	-0.052	0.235
-723.864	-154.282	-0.143	-0.010
-722.850	110.815	0.099	0.120
-721.835	-200.000	0.000	-0.256
-720.821	-182.224	-0.287	-0.005
-719.806	-37.019	-0.127	0.069
-718.791	-200.000	-0.017	-0.097
-717.777	20.551	-0.089	0.073
-716.762	-97.626	-0.023	-0.006
-715.748	-200.000	-0.047	-0.233
-714.733	214.230	-0.232	-0.372
-713.718	-200.000	0.003	-0.070
-712.704	-78.302	0.360	-0.125
-711.689	221.350	-0.123	0.201
-710.675	-200.000	-0.031	-0.213
-709.660	35.238	0.053	-0.047
-708.645	-41.611	0.296	-0.154
-707.631	-95.842	-0.264	0.071
-706.616	246.704	0.051	-0.086
-705.602	541.371	0.127	-0.307
-704.587	-93.560	-0.429	-0.120
-703.572	34.273	0.224	-0.198
-702.558	151.596	0.152	0.209
-701.543	178.882	0.179	-0.264
-700.529	-1.652	-0.104	0.074
-699.514	135.574	0.101	0.133
-698.499	286.242	-0.113	-0.206
-697.485	-172.802	0.009	0.000
-696.470	270.572	0.207	0.369
-695.456	-200.000	0.054	0.299
-694.441	-56.813	-0.221	0.099
-693.426	-25.279	-0.213	0.127
-692.412	37.009	-0.339	-0.303
-691.397	254.403	-0.066	-0.114
-690.383	-89.628	0.158	-0.047
-689.368	-14.764	-0.187	-0.121
-688.354	-20.435	-0.051	-0.032
-687.339	-51.434	-0.201	-0.095
-686.324	-150.281	0.244	-0.019
-685.310	-66.303	-0.025	-0.010
-684.295	59.754	-0.288	-0.287
-683.281	9.468	0.330	-0.253
-682.266	-103.153	-0.363	0.087
-681.251	-68.845	0.106	0.042
-680.237	346.360	0.037	0.074
-679.222	16.027	0.304	0.242
-678.208	-200.000	0.008	0.067
-677.193	-40.921	-0.191	0.100
-676.178	-191.301	-0.322	0.003
-675.164	-79.483	-0.237	0.081
-674.149	-200.000	0.000	0.155
-673.135	45.639	0.247	0.230
-672.120	-95.200	-0.070	0.019
-671.105	-200.000	-0.065	0.323
-670.091	-38.306	-0.224	-0.120
-669.076	44.666	0.063	-0.058
-668.062	515.014	0.158	-0.373
-667.047	-200.000	-0.054	-0.417
-666.032	-10.907	-0.511	-0.341
-665.018	-89.931	-0.248	0.073
-664.003	-33.326	0.230	0.128
-662.989	-113.894	-0.306	0.060
-661.974	-90.589	0.114	-0.033
-660.959	12.062	-0.264	-0.205
-659.945	-171.869	-0.168	0.006
-658.930	-200.000	0.002	-0.043
-657.916	756.716	-0.091	0.249
-656.901	-130.789	-0.344	0.047
-655.886	-29.341	-0.079	0.046
-654.872	10.157	-0.196	0.151
-653.857	12.641	-0.287	0.224
-652.843	-74.413	-0.188	0.068
-651.828	-43.325	-0.031	0.016
-650.814	-200.000	0.062	-0.489
-649.799	-200.000	-0.053	-0.239
-648.784	-69.785	0.240	0.093
-647.770	-36.677	0.386	0.209
-646.755	-39.053	0.295	-0.156
-645.741	475.054	0.138	0.314
-644.726	-124.741	-0.366	-0.057
-643.711	-22.051	-0.022	-0.014
-642.697	219.273	-0.127	-0.205
-641.682	253.626	0.170	-0.294
-640.668	-84.747	-0.141	-0.045
-639.653	-99.591	-0.411	0.104
-638.638	-200.000	0.001	-0.146
-637.624	-66.763	-0.101	0.040
-636.609	800.000	-0.039	-0.158
-635.595	35.057	-0.113	-0.100
-634.580	-145.423	0.042	0.004
-633.565	-19.829	-0.235	0.146
-632.551	-98.405	-0.057	0.015
-631.536	52.711	-0.108	0.104
-630.522	-62.741	0.083	-0.035
-629.507	800.000	-0.082	-0.331
-628.492	-67.048	-0.244	0.097
-627.478	566.683	-0.088	0.216
-626.463	-78.928	0.161	-0.055
-625.449	-200.000	0.010	0.140
-624.434	-200.000	-0.049	-0.366
-623.419	14.546	0.152	-0.119
-622.405	-200.000	0.047	-0.230
-621.390	-200.000	-0.024	0.200
-620.376	-200.000	0.015	0.171
-619.361	-200.000	-0.023	0.293
-618.346	-35.102	-0.193	0.106
-617.332	77.496	-0.204	0.219
-616.317	800.000	0.096	0.289
-615.303	-1.901	0.230	-0.163
-614.288	618.912	0.082	-0.208
-613.273	476.914	-0.166	0.379
-612.259	-43.648	0.087	0.044
-611.244	82.179	-0.170	-0.186
-610.230	800.000	0.119	-0.473
-609.215	170.303	0.199	-0.286
-608.201	800.000	-0.089	0.300
-607.186	-23.782	-0.225	-0.136
-606.171	106.295	0.137	0.164
-605.157	49.147	-0.106	-0.101
-604.142	76.484	-0.457	0.488
-603.128	606.243	-0.093	-0.233
-602.113	800.000	0.007	0.021
-601.098	409.352	0.094	-0.201
-600.084	-105.607	0.162	-0.037
-599.069	10.943	-0.072	0.055
-598.055	128.753	0.110	0.141
-597.040	-200.000	-0.024	-0.173
-596.025	-142.456	-0.229	-0.023
-595.011	-200.000	0.022	-0.142
-593.996	-44.758	-0.133	-0.067
-592.982	93.226	-0.277	0.316
-591.967	-85.077	0.103	0.032
-590.952	100.723	-0.159	-0.186
-589.938	-188.137	0.599	-0.008
-588.923	182.676	-0.153	0.227
-587.909	-80.630	0.125	-0.042
-586.894	800.000	-0.123	-0.444
-585.879	80.876	-0.062	0.067
-584.865	-200.000	-0.036	-0.462
-583.850	-200.000	0.032	-0.245
-582.836	-155.025	-0.176	-0.012
-581.821	-200.000	0.016	-0.182
-580.806	107.116	-0.234	-0.280
-579.792	-177.855	0.319	0.008
-578.777	44.653	0.287	0.266
-577.763	-31.938	-0.245	-0.138
-576.748	609.084	0.099	-0.250
-575.733	-166.962	0.291	-0.012
-574.719	-200.000	0.019	-0.129
-573.704	-47.568	0.067	0.033
-572.690	-55.157	-0.209	0.095
-571.675	-181.146	-0.126	0.003
-570.661	-200.000	0.025	0.116
-569.646	800.000	-0.118	-0.519
-568.631	38.240	-0.078	-0.070
-567.617	-200.000	0.013	-0.069
-566.602	25.783	0.243	0.204
-565.588	-102.562	0.231	0.056
-564.573	-200.000	0.025	-0.115
-563.558	172.131	-0.038	-0.055
-562.544	-148.565	-0.414	0.034
-561.529	-195.926	0.146	-0.001
-560.515	-200.000	-0.033	-0.164
-559.500	-16.728	-0.380	-0.242
-558.485	30.331	-0.158	0.136
-557.471	-45.492	0.052	0.026
-556.456	-72.833	-0.291	-0.108
-555.442	-84.221	-0.158	0.050
-554.427	-200.000	-0.008	0.040
-553.412	-117.716	0.213	0.039
-552.398	47.806	0.178	-0.168
-551.383	-100.310	0.122	0.030
-550.369	7.483	0.129	-0.097
-549.354	80.122	0.417	0.451
-548.339	15.747	-0.108	-0.086
-547.325	-0.870	0.238	-0.170
-546.310	-81.875	0.190	-0.063
-545.296	800.000	0.051	0.153
-544.281	800.000	0.056	-0.196
-543.266	494.921	0.060	-0.138
-542.252	-119.309	0.126	-0.022
-541.237	170.932	0.065	0.093
-540.223	126.127	0.134	0.170
-539.208	-93.180	-0.237	-0.066
-538.193	44.524	-0.206	-0.190
-537.179	47.239	-0.314	0.294
-536.164	-96.597	0.199	0.053
-535.150	800.000	-0.064	-0.240
-534.135	-162.427	-0.457	-0.023
-533.121	12.024	-0.109	-0.084
-532.106	-200.000	0.019	0.232
-531.091	-200.000	-0.103	-0.490
-530.077	636.933	0.029	-0.075
-529.062	-168.487	-0.216	-0.008
-528.048	57.911	-0.226	-0.223
-527.033	800.000	-0.027	-0.086
-526.018	417.963	-0.118	0.254
-525.004	32.489	-0.279	0.243
-523.989	-200.000	-0.023	0.153
-522.975	-151.817	0.115	0.008
-521.960	-97.349	0.202	0.053
-520.945	-6.742	-0.219	0.150
-519.931	800.000	-0.033	-0.104
-518.916	303.620	-0.102	-0.191
-517.902	3.396	-0.105	-0.077
-516.887	-200.000	-0.020	0.150
-515.872	332.417	0.103	-0.199
-514.858	223.492	-0.040	0.065
-513.843	122.400	0.194	-0.243
-512.829	-74.747	-0.561	-0.203
-511.814	-81.726	-0.401	-0.132
-510.799	694.783	0.144	-0.379
-509.785	-17.495	-0.340	-0.215
-508.770	37.598	-0.124	-0.111
-507.756	-200.000	-0.015	-0.132
-506.741	-115.196	-0.108	-0.021
-505.726	123.993	-0.153	0.193
-504.712	-200.000	-0.029	-0.138
-503.697	-126.102	0.165	-0.025
-502.683	23.051	0.190	0.157
-501.668	-44.346	0.030	0.015
-500.653	-75.192	0.232	-0.083
-499.639	92.760	-0.153	0.174
-498.624	256.130	0.077	0.133
-497.610	800.000	-0.053	0.233
-496.595	-91.907	0.250	-0.071
-495.581	-88.984	0.108	-0.032
-494.566	39.636	0.154	0.139
-493.551	-97.420	0.279	0.073
-492.537	-36.241	-0.234	-0.127
-491.522	-20.995	-0.189	0.116
-490.508	-12.919	-0.453	-0.296
-489.493	755.790	0.073	0.198
-488.478	-72.656	-0.238	0.088
-487.464	208.635	0.182	-0.286
-486.449	29.141	-0.359	-0.305
-485.435	-45.630	0.265	-0.131
-484.420	48.792	0.104	0.097
-483.405	485.058	0.121	-0.276
-482.391	-194.449	-0.055	0.000
-481.376	560.342	-0.120	-0.292
-480.362	-162.072	0.273	0.014
-479.347	-75.644	0.167	0.059
-478.332	800.000	-0.056	0.170
-477.318	-158.466	-0.073	-0.004
-476.303	-102.292	0.073	0.017
-475.289	663.501	0.083	-0.215
-474.274	233.328	0.047	-0.077
-473.259	30.412	0.120	-0.103
-472.245	159.678	0.056	0.079
-471.230	-57.830	-0.325	-0.142
-470.216	-200.000	0.025	0.166
-469.201	-144.179	-0.091	-0.009
-468.186	800.000	-0.085	-0.271
-467.172	800.000	0.118	0.332
-466.157	800.000	0.053	-0.189
-465.143	-33.172	-0.194	-0.108
-464.128	-200.000	0.039	-0.219
-463.113	-119.495	-0.268	0.047
-462.099	-110.844	-0.064	-0.013
-461.084	112.540	-0.073	-0.089
-460.070	-200.000	-0.024	-0.145
-459.055	-108.783	0.190	0.041
-458.040	-104.047	0.323	0.075
-457.026	-20.201	0.098	-0.061
-456.011	-121.653	-0.189	0.031
-454.997	-99.684	0.242	-0.061
-453.982	65.117	0.186	0.189
-452.968	-159.069	-0.124	0.007
-451.953	243.737	0.129	0.217
-450.938	56.485	0.083	0.080
-449.924	-25.351	-0.163	0.097
-448.909	322.687	-0.082	-0.156
-447.895	-200.000	0.039	-0.467
-446.880	70.971	0.093	-0.097
-445.865	-107.391	-0.248	0.055
-444.851	13.364	0.387	0.300
-443.836	12.660	0.255	0.197
-442.822	675.562	-0.098	0.254
-441.807	265.727	0.111	0.194
-440.792	53.423	0.214	0.206
-439.778	314.909	-0.128	-0.241
-438.763	31.412	-0.087	0.075
-437.749	800.000	-0.038	0.155
-436.734	-200.000	0.018	-0.144
-435.719	-200.000	-0.005	0.068
-434.705	-115.881	0.336	0.063
-433.690	-200.000	0.006	-0.045
-432.676	-75.566	0.126	-0.045
-431.661	389.419	0.058	-0.120
-430.646	-4.291	-0.134	-0.093
-429.632	176.004	0.145	0.210
-428.617	-200.000	0.041	-0.312
-427.603	-151.874	0.382	0.028
-426.588	544.358	-0.108	0.259
-425.573	112.301	0.207	0.251
-424.559	-191.438	-0.302	-0.003
-423.544	103.963	0.191	-0.224
-422.530	800.000	0.092	0.263
-421.515	-200.000	-0.003	-0.424
-420.500	-200.000	-0.025	-0.156
-419.486	150.540	-0.013	-0.018
-418.471	800.000	0.107	0.372
-417.457	36.074	0.021	0.019
-416.442	153.562	-0.099	-0.135
-415.428	-200.000	0.003	0.299
-414.413	-53.289	0.184	0.084
-413.398	188.461	-0.124	0.186
-412.384	199.609	0.062	0.095
-411.369	36.282	0.138	-0.122
-410.355	-47.177	0.148	-0.072
-409.340	16.252	0.243	-0.192
-408.325	-200.000	-0.029	0.218
-407.311	-200.000	-0.057	0.388
-406.296	32.021	0.153	-0.132
-405.282	-200.000	0.010	0.432
-404.267	223.688	0.158	0.254
-403.252	-200.000	0.044	0.237
-402.238	618.616	0.134	-0.338
-401.223	-200.000	0.039	0.226
-400.209	-200.000	0.042	0.000
-399.194	-84.457	-0.142	-0.045
-398.179	314.314	0.124	0.233
-397.165	-200.000	-0.057	0.322
-396.150	49.674	0.064	-0.060
-395.136	-42.463	0.507	0.258
-394.121	108.019	0.273	-0.325
-393.106	800.000	0.010	-0.034
-392.092	-147.182	0.041	0.003
-391.077	-200.000	0.032	0.189
-390.063	-118.527	-0.215	-0.038
-389.048	60.292	-0.295	-0.292
-388.033	-12.130	0.079	-0.051
-387.019	10.443	0.050	-0.038
-386.004	-23.983	0.037	0.022
-384.990	-200.000	0.056	0.306
-383.975	-88.512	0.161	0.048
-382.960	-103.798	-0.469	0.110
-381.946	-20.884	-0.276	0.169
-380.931	15.701	0.098	0.077
-379.917	472.171	0.150	0.338
-378.902	-200.000	0.017	0.209
-377.888	88.048	-0.213	-0.236
-376.873	-77.442	0.176	0.061
-375.858	-200.000	-0.008	-0.346
-374.844	2.183	0.250	0.181
-373.829	-200.000	0.028	0.211
-372.815	-200.000	-0.043	-0.335
-371.800	800.000	-0.024	0.087
-370.785	10.336	0.076	-0.058
-369.771	800.000	-0.032	0.111
-368.756	14.026	-0.062	-0.048
-367.742	-200.000	-0.061	-0.294
-366.727	81.048	0.237	0.256
-365.712	-200.000	-0.001	0.271
-364.698	-200.000	-0.043	0.211
-363.683	612.040	0.086	0.216
-362.669	-200.000	-0.011	-0.133
-361.654	57.975	0.067	-0.065
-360.639	426.198	-0.154	0.332
-359.625	-200.000	0.030	0.165
-358.610	-181.450	-0.304	-0.006
-357.596	20.933	-0.068	0.055
-356.581	-53.599	0.094	0.043
-355.566	213.787	0.135	-0.213
-354.552	-200.000	0.017	-0.151
-353.537	-80.885	0.188	0.062
-352.523	66.751	0.084	-0.086
-351.508	-70.106	-0.406	-0.154
-350.493	104.089	0.116	0.136
-349.479	-200.000	-0.004	-0.144
-348.464	-164.413	0.133	0.006
-347.450	56.391	0.134	-0.130
-346.435	84.523	0.135	-0.148
-345.420	58.235	0.109	-0.107
-344.406	85.567	-0.140	0.153
-343.391	-200.000	0.019	-0.100
-342.377	-19.392	-0.221	-0.137
-341.362	300.115	0.064	-0.119
-340.348	-200.000	-0.026	0.241
-339.333	-72.643	0.263	0.097
-338.318	-53.321	-0.275	-0.126
-337.304	-78.209	0.232	0.079
-336.289	-200.000	0.039	0.268
-335.275	-200.000	0.048	-0.502
-334.260	-148.551	0.184	-0.015
-333.245	-200.000	-0.004	0.500
-332.231	-7.734	0.255	-0.172
-331.216	-156.921	-0.442	0.027
-330.202	24.100	-0.105	0.086
-329.187	800.000	0.062	0.271
-328.172	55.905	-0.181	0.175
-327.158	135.723	-0.158	0.205
-326.143	-200.000	-0.171	0.000
-325.129	-140.378	-0.250	-0.026
-324.114	103.384	-0.276	0.323
-323.099	800.000	0.068	0.230
-322.085	269.613	-0.070	-0.123
-321.070	115.474	0.132	-0.161
-320.056	800.000	-0.067	0.276
-319.041	-69.037	0.036	-0.014
-318.026	-69.388	-0.314	-0.120
-317.012	-36.292	0.111	0.060
-315.997	-200.000	0.007	-0.119
-314.983	800.000	-0.090	-0.324
-313.968	18.705	0.239	0.191
-312.953	-54.970	0.060	0.027
-311.939	-70.099	-0.067	-0.025
-310.924	-52.648	-0.136	-0.063
-309.910	420.642	-0.100	-0.213
-308.895	254.629	-0.111	-0.190
-307.880	800.000	-0.078	0.248
-306.866	-98.387	-0.370	0.094
-305.851	-56.790	-0.222	0.098
-304.837	-200.000	-0.027	0.211
-303.822	-200.000	-0.017	0.414
-302.807	-38.932	0.146	-0.076
-301.793	306.909	-0.149	-0.276
-300.778	800.000	0.038	-0.118
-299.764	800.000	0.034	0.131
-298.749	-200.000	-0.014	0.153
-297.735	64.106	0.276	0.277
-296.720	310.489	-0.082	0.152
-295.705	427.328	-0.030	0.064
-294.691	-135.898	0.315	-0.037
-293.676	800.000	-0.077	-0.308
-292.662	335.123	0.152	-0.293
-291.647	-174.621	-0.418	-0.012
-290.632	-103.011	0.439	0.104
-289.618	304.473	-0.096	0.177
-288.603	800.000	0.069	0.264
-287.589	-135.918	0.319	-0.037
-286.574	113.155	0.160	0.193
-285.559	-149.089	0.297	0.024
-284.545	800.000	-0.067	-0.286
-283.530	-27.103	-0.256	0.149
-282.516	249.002	0.117	-0.197
-281.501	-200.000	-0.014	-0.129
-280.486	-85.593	-0.219	-0.068
-279.472	-200.000	0.022	-0.369
-278.457	-113.828	0.324	0.063
-277.443	-130.594	0.189	-0.025
-276.428	136.728	-0.053	0.069
-275.413	41.671	0.065	0.058
-274.399	-12.554	0.069	0.045
-273.384	800.000	-0.077	0.320
-272.370	35.723	0.209	0.183
-271.355	-125.190	-0.151	0.023
-270.340	180.305	-0.083	0.121
-269.326	800.000	-0.137	0.443
-268.311	-111.117	0.177	-0.036
-267.297	800.000	-0.078	-0.251
-266.282	-200.000	-0.056	0.313
-265.267	-152.156	-0.158	0.011
-264.253	36.012	-0.226	-0.198
-263.238	-44.785	0.116	-0.058
-262.224	409.027	0.097	0.204
-261.209	-200.000	-0.017	0.497
-260.195	23.216	0.121	0.099
-259.180	68.158	0.252	-0.256
-258.165	-200.000	-0.040	-0.350
-257.151	-28.649	-0.275	0.157
-256.136	-200.000	-0.068	0.371
-255.122	-87.869	0.038	-0.011
-254.107	800.000	-0.057	0.176
-253.092	800.000	-0.103	-0.417
-252.078	727.100	-0.084	0.224
-251.063	-200.000	-0.018	-0.428
-250.049	75.084	0.112	-0.117
-249.034	22.014	-0.073	0.059
-248.019	52.436	-0.078	-0.074
-247.005	-84.134	0.218	-0.069
-245.990	700.129	0.123	0.321
-244.976	-86.142	-0.185	-0.057
-243.961	-200.000	-0.014	-0.240
-242.946	-30.245	0.132	0.074
-241.932	-115.229	0.076	0.014
-240.917	-137.441	0.272	-0.031
-239.903	-59.594	-0.029	-0.013
-238.888	-86.658	0.305	-0.093
-237.873	-45.479	0.292	0.144
-236.859	-40.461	-0.188	0.097
-235.844	-103.858	-0.106	-0.025
-234.830	-200.000	-0.030	0.253
-233.815	800.000	0.044	0.137
-232.800	-90.396	-0.079	-0.023
-231.786	-70.777	0.039	-0.015
-230.771	281.276	-0.204	-0.363
-229.757	257.269	0.220	0.376
-228.742	-29.346	-0.250	-0.142
-227.727	57.898	0.049	0.048
-226.713	50.254	0.127	-0.120
-225.698	211.013	-0.087	0.136
-224.684	-164.128	-0.252	-0.012
-223.669	-40.414	0.176	0.091
-222.655	-51.985	0.081	-0.037
-221.640	-94.049	0.081	0.022
-220.625	-63.976	0.361	-0.147
-219.611	-49.077	-0.296	-0.141
-218.596	-53.545	0.431	-0.196
-217.582	699.708	0.245	-0.639
-216.567	-71.794	0.063	-0.023
-215.552	-185.987	0.593	-0.009
-214.538	24.533	0.042	0.034
-213.523	37.487	0.150	0.132
-212.509	-200.000	-0.054	-0.410
-211.494	46.447	-0.159	-0.146
-210.479	-37.921	0.196	0.104
-209.465	-145.829	-0.249	0.022
-208.450	3.304	-0.072	-0.052
-207.436	177.175	0.039	-0.056
-206.421	26.324	-0.026	0.022
-205.406	554.345	-0.081	0.193
-204.392	-20.841	-0.228	0.139
-203.377	-70.158	-0.239	-0.090
-202.363	305.781	-0.172	-0.317
-201.348	624.488	-0.063	-0.157
-200.333	-112.066	0.316	-0.063
-199.319	287.079	-0.125	-0.224
-198.304	-4.329	-0.070	0.048
-197.290	66.712	0.245	0.248
-196.275	-126.179	0.153	-0.023
-195.260	-200.000	-0.010	0.091
-194.246	-97.669	0.266	0.069
-193.231	-200.000	0.069	-0.413
-192.217	-36.750	0.147	-0.078
-191.202	-31.760	-0.205	0.114
-190.187	-130.915	-0.266	0.035
-189.173	37.174	-0.027	0.023
-188.158	75.243	0.220	0.230
-187.144	-44.735	0.232	0.115
-186.129	-200.000	0.007	-0.207
-185.114	-112.934	0.077	0.015
-184.100	19.701	-0.101	0.080
-183.085	255.114	0.071	-0.121
-182.071	-99.674	0.141	-0.035
-181.056	-3.324	-0.095	-0.065
-180.042	-200.000	0.029	0.198
-179.027	-200.000	0.004	0.213
-178.012	122.157	-0.022	-0.027
-176.998	-200.000	-0.034	0.506
-175.983	51.463	-0.100	0.094
-174.969	-154.008	-0.260	0.018
-173.954	63.622	-0.094	0.093
-172.939	800.000	0.024	0.070
-171.925	1.936	0.304	0.217
-170.910	800.000	-0.062	-0.184
-169.896	16.418	0.083	-0.065
-168.881	-62.447	0.113	0.046
-167.866	-200.000	-0.000	-0.063
-166.852	-200.000	-0.035	0.155
-165.837	-84.420	0.052	0.016
-164.823	-139.808	-0.311	-0.033
-163.808	5.131	-0.162	-0.118
-162.793	-200.000	0.025	-0.255
-161.779	502.002	-0.110	-0.252
-160.764	107.174	0.046	0.054
-159.750	-111.237	-0.231	-0.047
-158.735	154.234	-0.169	0.229
-157.720	-200.000	-0.033	-0.194
-156.706	-89.171	-0.253	-0.074
-155.691	-169.253	-0.259	0.009
-154.677	800.000	-0.151	0.426
-153.662	-35.846	0.031	0.016
-152.647	318.819	-0.084	-0.158
-151.633	800.000	-0.039	0.128
-150.618	36.892	-0.266	0.233
-149.604	-50.783	-0.178	0.083
-148.589	-27.255	-0.181	0.104
-147.574	321.293	-0.123	-0.231
-146.560	36.677	-0.054	0.048
-145.545	65.969	0.173	0.174
-144.531	-157.024	0.129	-0.008
-143.516	-28.187	0.133	0.076
-142.502	178.312	0.043	-0.062
-141.487	114.655	-0.071	0.086
-140.472	138.752	0.336	0.437
-139.458	182.951	-0.008	-0.011
-138.443	-140.744	-0.529	0.054
-137.429	186.923	-0.128	0.188
-136.414	-0.633	0.105	0.073
-135.399	-65.613	-0.521	-0.207
-134.385	-117.299	-0.138	-0.025
-133.370	-20.653	-0.245	0.149
-132.356	140.878	-0.048	-0.063
-131.341	-21.713	-0.185	-0.112
-130.326	-70.284	-0.292	0.110
-129.312	171.451	-0.180	0.256
-128.297	-50.840	0.319	-0.148
-127.283	-73.014	-0.347	0.126
-126.268	-155.461	0.217	0.014
-125.253	441.558	-0.111	0.241
-124.239	716.537	0.033	0.088
-123.224	800.000	-0.077	0.239
-122.210	-200.000	0.025	0.187
-121.195	46.139	-0.198	-0.182
-120.180	-200.000	0.014	0.235
-119.166	154.532	-0.095	0.129
-118.151	110.744	-0.109	-0.130
-117.137	604.182	-0.083	-0.205
-116.122	-200.000	0.024	-0.155
-115.107	-38.539	-0.163	0.085
-114.093	-37.221	-0.073	0.039
-113.078	-24.013	0.207	0.122
-112.064	-200.000	0.069	0.473
-111.049	195.996	-0.212	0.319
-110.034	-107.330	0.064	-0.014
-109.020	23.089	0.104	0.084
-108.005	-136.608	0.079	-0.009
-106.991	800.000	0.043	-0.174
-105.976	-88.235	-0.029	0.009
-104.962	-40.164	0.080	-0.041
-103.947	45.768	0.214	0.196
-102.932	-137.878	0.082	-0.009
-101.918	-129.974	-0.350	-0.047
-100.903	-29.079	0.357	-0.203
-99.889	800.000	0.048	0.180
-98.874	-200.000	0.028	0.333
-97.859	800.000	-0.046	0.172
-96.845	-200.000	-0.043	-0.306
-95.830	800.000	-0.070	-0.214
-94.816	16.992	0.285	0.223
-93.801	800.000	-0.043	0.157
-92.786	260.265	-0.056	0.096
-91.772	-200.000	-0.027	0.123
-90.757	67.513	-0.219	-0.221
-89.743	266.886	-0.215	-0.371
-88.728	-80.530	0.378	0.125
-87.713	133.836	-0.238	-0.304
-86.699	-88.380	0.063	-0.019
-85.684	47.774	-0.213	0.197
-84.670	28.976	-0.069	0.058
-83.655	35.436	-0.469	-0.406
-82.640	-65.336	-0.369	-0.147
-81.626	-47.397	-0.187	-0.090
-80.611	-200.000	0.009	-0.186
-79.597	65.459	0.062	0.062
-78.582	-200.000	-0.017	0.247
-77.567	6.190	0.105	0.077
-76.553	582.106	-0.086	-0.208
-75.538	180.850	-0.056	0.081
-74.524	418.381	-0.060	-0.127
-73.509	417.315	-0.042	0.088
-72.494	-200.000	-0.037	0.195
-71.480	82.239	0.130	-0.139
-70.465	40.982	0.278	0.248
-69.451	-200.000	0.015	-0.065
-68.436	800.000	-0.063	-0.202
-67.422	-121.131	-0.129	0.021
-66.407	800.000	0.108	0.296
-65.392	583.191	-0.167	0.405
-64.378	-131.654	0.214	-0.028
-63.363	360.222	0.114	0.226
-62.349	-200.000	0.010	0.078
-61.334	81.398	-0.875	-0.934
-60.319	800.000	0.134	0.432
-59.305	-200.000	-0.253	-1.210
-58.290	163.147	0.718	0.995
-57.276	-200.000	0.257	1.758
-56.261	-200.000	93.403	553.341
-55.246	623.560	1384.249	3441.060
-54.232	187.630	2604.308	3835.178
-53.217	118.034	2318.121	2818.409
-52.203	45.935	1931.702	1763.238
-51.188	39.363	1719.320	1518.819
-50.173	36.548	1674.010	1457.545
-49.159	53.235	1721.316	1626.612
-48.144	56.603	1738.527	1668.521
-47.130	39.126	1696.057	1496.226
-46.115	36.174	1680.708	1460.314
-45.100	35.955	1676.496	1454.944
-44.086	35.929	1673.451	1452.046
-43.071	35.926	1670.650	1449.533
-42.057	35.904	1668.950	1447.837
-41.042	35.903	1666.911	1446.001
-40.027	35.951	1664.487	1444.203
-39.013	35.839	1662.864	1441.897
-37.998	35.883	1661.326	1440.836
-36.984	35.832	1660.596	1439.769
-35.969	35.944	1658.785	1438.976
-34.954	36.039	1656.981	1438.065
-33.940	36.027	1655.052	1436.241
-32.925	35.957	1653.718	1434.504
-31.911	36.103	1651.538	1433.647
-30.896	36.051	1649.942	1431.818
-29.881	36.025	1647.940	1429.831
-28.867	35.935	1646.929	1428.227
-27.852	35.986	1645.560	1427.357
-26.838	35.935	1644.219	1425.766
-25.823	36.046	1642.557	1425.085
-24.809	36.055	1640.957	1423.709
-23.794	35.936	1640.023	1421.959
-22.779	36.025	1638.020	1420.829
-21.765	35.990	1636.100	1418.844
-20.750	35.987	1634.464	1417.351
-19.736	36.068	1633.291	1416.872
-18.721	35.997	1632.179	1415.329
-17.706	36.045	1630.070	1413.794
-16.692	36.018	1628.509	1412.185
-15.677	35.956	1627.312	1410.643
-14.663	36.026	1626.210	1410.141
-13.648	36.119	1624.351	1409.152
-12.633	36.057	1623.223	1407.667
-11.619	36.014	1621.597	1405.888
-10.604	36.069	1619.781	1404.659
-9.590	36.124	1618.204	1403.635
-8.575	36.038	1617.383	1402.240
-7.560	36.059	1616.022	1401.160
-6.546	36.033	1614.915	1399.955
-5.531	36.042	1613.595	1398.819
-4.517	36.028	1612.428	1397.650
-3.502	36.005	1611.784	1396.869
-2.487	36.147	1609.837	1396.154
-1.473	35.701	1597.915	1382.552
-0.458	32.188	1576.274	1338.798
0.556	29.888	1573.507	1294.229
1.571	26.432	1595.577	1287.708
2.586	24.675	1607.531	1284.628
3.600	21.088	1552.724	1215.776
4.615	12.980	1443.307	1077.272
5.629	6.624	1379.116	989.505
6.644	5.420	1371.344	976.328
7.659	5.365	1369.805	974.804
8.673	5.402	1369.144	974.477
9.688	5.382	1367.639	973.194
10.702	5.417	1364.338	970.976
11.717	7.741	1368.952	988.636
12.731	15.327	1382.898	1046.108
13.746	21.575	1392.696	1092.546
14.761	22.535	1392.802	1098.522
15.775	21.751	1390.995	1092.115
16.790	20.677	1388.132	1083.088
17.804	19.800	1386.169	1076.010
18.819	19.439	1384.709	1072.535
19.834	19.277	1383.803	1070.732
20.848	19.155	1382.659	1068.995
21.863	18.941	1381.397	1066.600
22.877	18.873	1380.470	1065.367
23.892	18.803	1379.497	1064.091
24.907	18.723	1378.818	1062.978
25.921	18.813	1377.778	1062.636
26.936	18.734	1377.174	1061.586
27.950	18.817	1375.985	1061.088
28.965	19.051	1374.326	1061.162
29.980	19.004	1373.934	1060.475
30.994	19.090	1372.868	1060.088
32.009	19.193	1371.213	1059.350
33.023	19.244	1370.328	1058.885
34.038	19.011	1368.943	1056.292
35.053	19.052	1367.407	1055.264
36.067	18.857	1366.791	1053.498
37.082	19.010	1365.851	1053.616
38.096	19.056	1364.924	1053.091
39.111	18.971	1364.396	1052.069
40.126	18.926	1363.124	1050.720
41.140	18.805	1361.604	1048.722
42.155	18.609	1360.972	1046.945
43.169	18.605	1360.469	1046.440
44.184	18.581	1360.280	1046.058
45.199	18.489	1360.458	1045.541
46.213	18.687	1359.736	1046.095
47.228	18.841	1359.537	1046.794
48.242	18.949	1357.642	1045.896
49.257	18.997	1356.020	1044.846
50.271	18.853	1355.120	1043.185
51.286	18.845	1353.934	1042.130
52.301	18.806	1352.280	1040.528
53.315	18.624	1351.755	1038.931
54.330	18.720	1350.141	1038.179
55.344	18.571	1349.192	1036.455
56.359	18.642	1347.851	1035.764
57.374	18.493	1347.294	1034.347
58.388	18.459	1346.340	1033.314
59.403	18.500	1345.390	1032.745
60.417	18.426	1344.899	1031.831
61.432	18.402	1343.717	1030.687
62.447	18.330	1342.948	1029.574
63.461	18.340	1341.422	1028.373
64.476	18.236	1340.818	1027.192
65.490	18.492	1338.818	1027.107
66.505	18.317	1337.957	1025.305
67.520	18.427	1336.982	1025.126
68.534	18.351	1336.038	1023.858
69.549	18.370	1334.348	1022.587
70.563	18.452	1333.102	1022.028
71.578	18.257	1332.334	1020.185
72.593	18.244	1330.893	1018.918
73.607	18.104	1330.865	1017.972
74.622	18.156	1330.052	1017.571
75.636	18.204	1329.342	1017.220
76.651	18.144	1328.753	1016.322
77.666	18.242	1328.752	1016.814
78.680	18.243	1328.355	1016.424
79.695	18.357	1327.400	1016.280
80.709	18.547	1326.312	1016.487
81.724	18.533	1325.909	1016.005
82.739	18.727	1324.889	1016.282
83.753	18.652	1324.420	1015.390
84.768	18.837	1323.448	1015.647
85.782	19.113	1322.307	1016.313
86.797	19.027	1321.053	1014.750
87.812	18.900	1319.807	1012.956
88.826	18.925	1318.450	1011.971
89.841	18.930	1317.488	1011.173
90.855	19.064	1316.549	1011.151
91.870	19.090	1315.612	1010.495
92.884	19.056	1314.484	1009.339
93.899	19.060	1314.230	1009.078
94.914	19.005	1313.736	1008.286
95.928	19.027	1312.585	1007.442
96.943	18.966	1311.935	1006.500
97.957	19.046	1310.413	1005.710
98.972	19.031	1309.477	1004.815
99.987	18.964	1308.810	1003.824
101.001	19.092	1307.222	1003.263
102.016	18.977	1306.594	1002.019
103.030	18.940	1305.851	1001.145
104.045	19.076	1304.749	1001.003
105.060	18.888	1303.749	999.053
106.074	18.611	1302.112	996.103
107.089	18.474	1300.457	993.956
108.103	18.286	1299.417	991.987
109.118	18.376	1297.874	991.241
110.133	18.405	1296.880	990.560
111.147	18.438	1295.382	989.517
112.162	18.560	1294.064	989.127
113.176	18.575	1293.327	988.561
114.191	18.527	1292.366	987.465
115.206	18.589	1291.007	986.698
116.220	18.553	1290.004	985.636
117.235	18.550	1289.093	984.837
118.249	18.441	1288.216	983.450
119.264	18.481	1286.463	982.257
120.279	18.358	1285.662	980.850
121.293	18.274	1284.358	979.292
122.308	18.366	1283.097	978.766
123.322	18.297	1282.393	977.752
124.337	18.319	1280.751	976.537
125.352	18.253	1279.828	975.372
126.366	18.130	1279.151	974.071
127.381	18.206	1277.584	973.221
128.395	18.186	1276.703	972.352
129.410	18.350	1275.833	972.531
130.424	18.370	1275.067	971.976
131.439	18.533	1274.097	972.077
132.454	18.607	1273.301	971.803
133.468	18.535	1272.609	970.779
134.483	18.515	1272.160	970.237
135.497	18.548	1271.218	969.622
136.512	18.535	1269.838	968.409
137.527	18.545	1268.482	967.348
138.541	18.637	1266.817	966.510
139.556	18.707	1265.889	966.107
140.570	18.719	1265.167	965.537
141.585	18.834	1263.927	965.157
142.600	18.828	1262.856	964.217
143.614	18.920	1261.933	963.942
144.629	19.099	1260.607	963.845
145.643	18.955	1259.381	962.018
146.658	18.801	1258.344	960.279
147.673	18.772	1256.507	958.634
148.687	18.664	1255.428	957.123
149.702	18.463	1254.229	955.002
150.716	18.487	1252.423	953.677
151.731	18.514	1251.293	952.882
152.746	18.610	1250.047	952.384
153.760	18.592	1249.576	951.842
154.775	18.776	1248.151	951.688
155.789	18.835	1247.238	951.235
156.804	18.730	1246.112	949.715
157.819	18.814	1245.401	949.551
158.833	18.894	1244.691	949.368
159.848	19.015	1243.968	949.400
160.862	18.999	1242.977	948.471
161.877	18.705	1241.615	945.729
162.892	18.613	1240.114	943.997
163.906	18.613	1239.317	943.307
164.921	18.623	1238.381	942.566
165.935	18.702	1237.547	942.278
166.950	18.820	1236.902	942.353
167.964	18.872	1235.368	941.386
168.979	18.775	1235.313	940.731
169.994	18.711	1234.415	939.610
171.008	18.815	1233.375	939.305
172.023	18.847	1232.837	938.985
173.037	19.059	1232.061	939.470
174.052	18.900	1231.288	937.929
175.067	18.805	1230.323	936.593
176.081	18.580	1229.230	934.454
177.096	18.681	1228.052	934.025
178.110	18.722	1226.997	933.364
179.125	18.661	1226.076	932.248
180.140	18.805	1224.895	932.048
181.154	18.902	1223.515	931.445
182.169	18.966	1222.720	931.100
183.183	19.130	1221.268	930.799
184.198	19.043	1220.375	929.565
185.213	19.055	1219.526	928.906
186.227	19.177	1218.250	928.507
187.242	19.201	1217.068	927.655
188.256	19.235	1216.316	927.180
189.271	19.338	1215.506	927.036
190.286	19.054	1214.282	924.496
191.300	18.762	1213.231	922.044
192.315	18.599	1212.537	920.559
193.329	18.566	1211.802	919.743
194.344	18.729	1211.368	920.208
195.359	18.892	1210.422	920.283
196.373	19.019	1210.229	920.730
197.388	18.959	1209.921	920.095
198.402	19.096	1209.897	920.726
199.417	19.305	1209.179	921.220
200.432	19.482	1208.167	921.313
201.446	19.465	1207.598	920.704
202.461	19.581	1206.752	920.595
203.475	19.640	1205.384	919.783
204.490	19.430	1204.060	917.575
205.504	19.266	1202.674	915.566
206.519	19.223	1201.804	914.595
207.534	19.062	1200.851	912.937
208.548	19.288	1199.436	912.976
209.563	19.236	1198.862	912.184
210.577	19.218	1198.074	911.411
211.592	19.273	1197.252	910.995
212.607	19.465	1196.828	911.602
213.621	19.407	1195.666	910.331
214.636	19.483	1194.523	909.785
215.650	19.409	1194.138	909.019
216.665	19.629	1192.997	909.227
217.680	19.602	1192.511	908.638
218.694	19.750	1191.087	908.248
219.709	19.639	1190.427	907.079
220.723	19.545	1189.850	906.070
221.738	19.519	1189.118	905.293
222.753	19.539	1188.160	904.590
223.767	19.590	1187.567	904.326
224.782	19.777	1187.116	904.880
225.796	19.737	1187.169	904.629
226.811	19.671	1185.829	903.184
227.826	19.578	1185.366	902.268
228.840	19.462	1184.616	901.010
229.855	19.537	1183.615	900.561
230.869	19.510	1182.779	899.702
231.884	19.411	1182.166	898.643
232.899	19.374	1181.181	897.620
233.913	19.361	1180.357	896.846
234.928	19.317	1179.579	895.947
235.942	19.168	1179.065	894.707
236.957	19.354	1177.864	894.680
237.972	19.327	1177.248	893.994
238.986	19.383	1176.605	893.716
240.001	19.387	1176.073	893.255
241.015	19.408	1175.361	892.742
242.030	19.559	1174.305	892.639
243.045	19.563	1173.749	892.161
244.059	19.540	1172.640	891.119
245.074	19.595	1172.161	890.962
246.088	19.703	1171.375	890.838
247.103	19.835	1171.185	891.299
248.117	19.877	1170.344	890.798
249.132	20.090	1169.598	891.243
250.147	20.176	1168.959	891.120
251.161	20.313	1168.753	891.587
252.176	20.303	1168.130	890.984
253.190	20.380	1167.360	890.710
254.205	20.308	1166.872	889.890
255.220	20.453	1166.019	889.906
256.234	20.434	1165.238	889.131
257.249	20.437	1164.604	888.587
258.263	20.502	1163.886	888.289
259.278	20.439	1163.141	887.323
260.293	20.361	1163.057	886.779
261.307	20.564	1161.810	886.789
262.322	20.645	1161.213	886.667
263.336	20.639	1161.141	886.501
264.351	20.584	1160.499	885.654
265.366	20.534	1159.737	884.739
266.380	20.573	1158.978	884.281
267.395	20.542	1157.994	883.291
268.409	20.428	1157.165	882.007
269.424	20.332	1156.982	881.300
270.439	20.284	1156.180	880.366
271.453	20.390	1155.093	880.000
272.468	20.218	1154.569	878.652
273.482	20.217	1153.522	877.770
274.497	20.264	1153.275	877.741
275.512	20.324	1152.191	877.143
276.526	20.271	1151.355	876.163
277.541	20.249	1150.268	875.148
278.555	20.392	1150.088	875.653
279.570	20.463	1149.595	875.556
280.585	20.681	1148.866	876.021
281.599	20.665	1147.738	875.007
282.614	20.530	1146.625	873.402
283.628	20.540	1145.112	872.219
284.643	20.381	1144.667	871.008
285.657	20.517	1143.638	870.827
286.672	20.416	1142.926	869.706
287.687	20.464	1141.971	869.138
288.701	20.573	1141.053	868.911
289.716	20.642	1140.666	868.884
290.730	20.488	1139.953	867.495
291.745	20.519	1139.191	866.991
292.760	20.743	1138.269	867.328
293.774	20.578	1138.092	866.296
294.789	20.725	1137.509	866.510
295.803	20.695	1137.036	865.923
296.818	20.605	1136.215	864.773
297.833	20.485	1135.323	863.423
298.847	20.652	1134.102	863.243
299.862	20.481	1133.794	862.084
300.876	20.564	1133.206	861.973
301.891	20.705	1132.354	861.947
302.906	20.803	1131.640	861.814
303.920	20.887	1131.295	861.891
304.935	21.016	1131.045	862.259
305.949	21.116	1130.190	862.026
306.964	21.008	1129.538	860.921
307.979	20.946	1128.782	859.961
308.993	20.912	1128.061	859.170
310.008	20.941	1127.039	858.456
311.022	21.074	1126.222	858.413
312.037	21.030	1125.949	857.912
313.052	20.967	1124.462	856.396
314.066	20.706	1123.455	854.269
315.081	20.614	1122.319	852.880
316.095	20.602	1121.905	852.430
317.110	20.653	1121.119	852.009
318.125	20.652	1120.423	851.400
319.139	20.562	1119.677	850.315
320.154	20.662	1119.302	850.445
321.168	20.735	1118.305	849.970
322.183	20.580	1118.105	848.982
323.197	20.719	1117.082	848.810
324.212	20.844	1116.736	849.081
325.227	20.729	1116.454	848.233
326.241	20.749	1115.703	847.685
327.256	20.863	1114.297	847.095
328.270	20.722	1113.424	845.672
329.285	20.723	1112.851	845.168
330.300	20.762	1111.545	844.289
331.314	20.750	1111.058	843.787
332.329	20.795	1109.963	843.097
333.343	20.795	1108.789	842.131
334.358	20.951	1108.470	842.571
335.373	21.107	1107.686	842.650
336.387	20.944	1107.315	841.508
337.402	21.042	1106.536	841.314
338.416	21.143	1105.526	840.957
339.431	21.212	1105.178	840.951
340.446	21.256	1104.935	840.907
341.460	21.422	1103.882	840.826
342.475	21.498	1103.114	840.531
343.489	21.496	1101.945	839.558
344.504	21.482	1101.428	839.022
345.519	21.635	1100.219	838.760
346.533	21.536	1099.882	837.957
347.548	21.686	1099.174	838.059
348.562	21.604	1097.988	836.688
349.577	21.525	1096.844	835.366
350.592	21.287	1096.441	833.847
351.606	21.183	1095.670	832.695
352.621	21.102	1095.072	831.777
353.635	20.954	1094.357	830.459
354.650	21.283	1093.261	831.117
355.665	21.268	1092.747	830.584
356.679	21.287	1091.908	829.963
357.694	21.371	1091.472	829.955
358.708	21.400	1091.000	829.659
359.723	21.402	1090.393	829.137
360.738	21.439	1089.940	828.892
361.752	21.335	1089.638	828.097
362.767	21.483	1088.771	828.065
363.781	21.585	1088.030	827.909
364.796	21.702	1087.246	827.794
365.810	21.575	1087.222	827.102
366.825	21.751	1086.339	827.188
367.840	21.799	1086.140	827.190
368.854	21.892	1085.789	827.289
369.869	21.991	1084.644	826.810
370.883	21.866	1083.592	825.343
371.898	21.800	1082.928	824.456
372.913	21.854	1081.925	823.871
373.927	21.753	1081.857	823.275
374.942	22.025	1081.252	824.016
375.956	21.799	1080.999	822.690
376.971	21.876	1080.032	822.242
377.986	21.920	1079.738	822.153
379.000	22.086	1079.343	822.559
380.015	22.079	1078.605	821.891
381.029	22.108	1078.038	821.518
382.044	22.036	1077.229	820.492
383.059	22.147	1076.284	820.218
384.073	22.039	1075.925	819.370
385.088	22.090	1074.967	818.804
386.102	22.081	1073.475	817.555
387.117	22.061	1072.713	816.810
388.132	21.899	1071.457	815.029
389.146	21.902	1070.810	814.480
390.161	21.813	1070.277	813.589
391.175	21.778	1069.436	812.714
392.190	21.944	1069.054	813.119
393.205	22.083	1067.995	812.886
394.219	22.167	1067.225	812.619
395.234	22.023	1066.251	811.140
396.248	21.897	1065.204	809.688
397.263	21.912	1064.115	808.859
398.278	21.881	1063.637	808.282
399.292	21.737	1063.046	807.096
400.307	21.727	1062.163	806.310
401.321	21.826	1061.741	806.372
402.336	21.699	1061.153	805.271
403.350	21.754	1060.000	804.578
404.365	21.827	1059.591	804.531
405.380	21.940	1058.915	804.466
406.394	22.014	1058.165	804.160
407.409	22.109	1057.474	803.999
408.423	22.198	1056.911	803.910
409.438	22.229	1056.345	803.549
410.453	22.222	1055.813	803.042
411.467	22.431	1054.705	803.082
412.482	22.373	1054.569	802.642
413.496	22.578	1053.808	802.927
414.511	22.547	1053.203	802.253
415.526	22.610	1053.098	802.387
416.540	22.603	1052.685	801.972
417.555	22.641	1051.984	801.537
418.569	22.590	1051.286	800.706
419.584	22.481	1050.705	799.696
420.599	22.459	1050.409	799.300
421.613	154.141	1400.377	1787.417
422.628	141.425	1451.382	1787.536
