DTS Sentinel unit serial number:	SN413079Multiplexer serial number:	ORYXHardware model number:	OX4-SRSoftware version number:	ORYX F/W v4.00 Oryx Data Collector v3.7.2.0data status	okinstallation	princeton_trtdifferential loss correction	single-endedforward channel	channel 2reverse channel	N/Adate	2019/09/13time	02:47:35forward acquisition time	60.00reverse acquisition time	0.00gamma	496.2192k internal	0.2334k external	0.2334temperature offset calibration	1.0188default loss term (dB/km)	0.3790temperature slope calibration	1.0000multiplexer offset coefficient	1.0000multiplexer slope coefficient	1.0000fibre end	0.00T internal ref (°C)	27.44T ext. ref 1 (°C)	4.03T ext. ref 2 (°C)	22.29length (m)	temperature (°C)	Stokes	anti-Stokes-747.200	-161.328	0.256	0.013
-746.185	135.163	-0.224	0.293
-745.171	284.734	0.111	-0.201
-744.156	-200.000	0.026	0.344
-743.142	-43.681	0.134	0.068
-742.127	-200.000	-0.030	0.224
-741.112	800.000	-0.079	-0.231
-740.098	-112.144	-0.107	-0.022
-739.083	89.627	0.114	-0.128
-738.069	622.013	-0.064	0.163
-737.054	-200.000	-0.010	0.087
-736.039	89.623	0.102	-0.114
-735.025	70.210	0.284	0.295
-734.010	67.685	-0.147	0.151
-732.996	-145.290	0.171	0.016
-731.981	-32.882	0.160	0.090
-730.966	-200.000	0.026	0.124
-729.952	-189.107	-0.200	-0.002
-728.937	-103.157	0.043	0.010
-727.923	-134.863	-0.277	0.034
-726.908	295.899	0.060	0.111
-725.894	800.000	-0.104	-0.447
-724.879	27.736	-0.189	0.160
-723.864	800.000	0.022	-0.067
-722.850	800.000	0.046	0.169
-721.835	-31.828	-0.220	-0.124
-720.821	238.633	-0.087	0.146
-719.806	212.884	-0.056	0.088
-718.791	505.092	0.043	-0.101
-717.777	135.935	0.186	0.243
-716.762	-126.094	-0.172	0.026
-715.748	-200.000	-0.006	-0.162
-714.733	-200.000	0.046	0.394
-713.718	349.745	-0.127	0.252
-712.704	-200.000	0.021	-0.121
-711.689	400.384	0.114	-0.239
-710.675	46.747	0.269	-0.251
-709.660	456.072	0.103	-0.230
-708.645	-111.894	0.294	0.060
-707.631	245.244	-0.057	-0.096
-706.616	157.608	0.037	-0.051
-705.602	800.000	0.018	-0.060
-704.587	-45.596	0.083	-0.041
-703.572	-102.465	0.120	0.029
-702.558	219.966	-0.192	0.309
-701.543	-12.738	0.074	0.048
-700.529	-200.000	0.070	-0.360
-699.514	150.155	-0.150	0.204
-698.499	180.211	-0.093	-0.137
-697.485	-200.000	-0.030	0.373
-696.470	21.263	-0.186	-0.151
-695.456	-144.100	0.251	-0.024
-694.441	800.000	0.071	0.225
-693.426	103.579	-0.074	-0.087
-692.412	800.000	0.059	-0.168
-691.397	800.000	-0.045	-0.137
-690.383	-200.000	-0.036	-0.252
-689.368	-200.000	-0.059	-0.297
-688.354	641.367	0.003	0.008
-687.339	-52.658	0.060	-0.028
-686.324	29.634	-0.064	-0.054
-685.310	-44.680	-0.222	0.111
-684.295	-200.000	0.041	-0.234
-683.281	-200.000	0.024	0.495
-682.266	-66.186	-0.202	-0.081
-681.251	-200.000	0.032	-0.269
-680.237	170.020	0.196	0.281
-679.222	-1.809	-0.107	-0.076
-678.208	-14.169	-0.075	0.048
-677.193	17.490	-0.123	0.098
-676.178	424.489	-0.152	-0.327
-675.164	1.423	0.232	-0.168
-674.149	312.775	0.076	0.143
-673.135	93.131	-0.194	-0.219
-672.120	800.000	0.050	0.177
-671.105	-96.520	-0.176	0.046
-670.091	-20.559	0.073	0.045
-669.076	-64.534	-0.278	0.113
-668.062	-40.757	0.042	0.022
-667.047	97.655	0.226	0.260
-666.032	433.796	-0.127	-0.277
-665.018	-190.439	0.070	-0.001
-664.003	157.007	0.137	-0.189
-662.989	153.705	-0.173	0.238
-661.974	86.150	-0.219	0.241
-660.959	213.139	-0.100	0.158
-659.945	-22.859	0.139	-0.084
-658.930	-72.095	-0.160	0.060
-657.916	-200.000	-0.022	-0.201
-656.901	59.639	0.154	0.152
-655.886	-200.000	-0.028	-0.324
-654.872	-21.415	-0.111	0.068
-653.857	-192.522	-0.094	0.001
-652.843	-200.000	-0.048	-0.212
-651.828	-39.078	0.082	-0.043
-650.814	7.525	-0.022	0.016
-649.799	-60.719	-0.298	0.126
-648.784	-65.046	-0.389	-0.157
-647.770	-200.000	-0.124	-0.550
-646.755	-11.541	0.254	-0.167
-645.741	-105.224	-0.320	-0.073
-644.726	-98.739	0.270	-0.069
-643.711	800.000	-0.031	-0.101
-642.697	-200.000	0.042	-0.230
-641.682	56.061	-0.314	0.305
-640.668	-200.000	0.001	-0.037
-639.653	-54.006	-0.282	0.128
-638.638	-39.823	0.094	-0.049
-637.624	7.234	-0.307	-0.229
-636.609	-110.675	-0.205	-0.042
-635.595	800.000	-0.160	0.558
-634.580	-14.947	-0.083	-0.053
-633.565	169.760	-0.047	0.068
-632.551	-99.682	-0.661	-0.166
-631.536	-129.984	0.357	-0.049
-630.522	24.536	0.232	0.192
-629.507	169.789	-0.187	0.268
-628.492	-130.699	0.398	-0.054
-627.478	-200.000	-0.020	-0.317
-626.463	-59.164	-0.262	0.113
-625.449	-200.000	0.015	-0.183
-624.434	771.947	0.092	0.252
-623.419	21.421	0.230	0.187
-622.405	576.533	0.087	0.213
-621.390	-89.667	0.251	-0.074
-620.376	-63.596	-0.374	-0.154
-619.361	-107.760	0.180	-0.039
-618.346	-46.848	-0.118	-0.058
-617.332	-11.244	-0.254	-0.167
-616.317	620.452	0.123	0.309
-615.303	0.277	0.232	0.165
-614.288	800.000	-0.091	-0.335
-613.273	-16.622	-0.238	0.151
-612.259	470.065	-0.083	-0.187
-611.244	-23.030	-0.456	0.275
-610.230	-104.004	-0.224	-0.052
-609.215	-16.368	-0.488	-0.310
-608.201	167.701	-0.205	0.291
-607.186	-116.101	0.167	-0.031
-606.171	16.220	-0.181	-0.143
-605.157	-90.375	0.240	0.070
-604.142	46.951	-0.092	-0.085
-603.128	434.661	-0.093	-0.202
-602.113	718.000	0.057	-0.150
-601.098	-191.004	0.241	0.003
-600.084	32.373	-0.065	0.056
-599.069	800.000	-0.052	-0.227
-598.055	9.047	0.269	-0.203
-597.040	-159.201	-0.237	0.013
-596.025	800.000	0.108	0.320
-595.011	-8.212	-0.142	0.096
-593.996	-200.000	0.064	0.437
-592.982	23.809	-0.196	-0.161
-591.967	-102.696	0.414	0.099
-590.952	112.374	0.081	-0.098
-589.938	147.390	0.086	0.115
-588.923	-68.543	0.075	0.029
-587.909	385.710	0.020	0.041
-586.894	-15.133	0.041	-0.026
-585.879	-200.000	-0.027	-0.510
-584.865	-200.000	0.044	0.319
-583.850	-12.085	-0.176	-0.115
-582.836	-120.265	-0.226	0.039
-581.821	-134.627	0.318	0.039
-580.806	-78.268	0.205	0.070
-579.792	236.420	-0.066	-0.109
-578.777	187.948	0.285	-0.425
-577.763	-9.632	-0.043	-0.029
-576.748	-31.679	0.253	0.142
-575.733	-200.000	0.051	-0.562
-574.719	44.229	0.214	-0.196
-573.704	541.653	-0.115	-0.274
-572.690	134.342	0.206	-0.267
-571.675	800.000	-0.036	-0.149
-570.661	237.261	0.094	-0.155
-569.646	34.965	-0.136	-0.119
-568.631	800.000	-0.054	0.229
-567.617	93.152	0.169	-0.190
-566.602	-144.358	-0.123	-0.011
-565.588	-200.000	-0.053	0.293
-564.573	-18.227	-0.269	0.168
-563.558	-46.461	0.315	-0.154
-562.544	-200.000	-0.010	-0.180
-561.529	675.020	0.049	-0.127
-560.515	-200.000	-0.057	-0.269
-559.500	-200.000	-0.007	-0.177
-558.485	-200.000	-0.073	0.373
-557.471	635.260	-0.069	0.174
-556.456	178.797	-0.143	0.208
-555.442	-41.713	0.368	0.188
-554.427	-136.665	0.200	0.023
-553.412	513.650	0.025	0.058
-552.398	154.073	0.081	0.111
-551.383	-156.595	-0.225	0.014
-550.369	-200.000	-0.020	-0.128
-549.354	7.980	-0.146	0.109
-548.339	-65.111	-0.208	-0.084
-547.325	-200.000	-0.235	0.001
-546.310	-3.073	0.052	0.036
-545.296	-129.857	-0.371	0.051
-544.281	173.644	0.153	-0.220
-543.266	164.568	0.112	-0.158
-542.252	-149.205	-0.184	0.015
-541.237	800.000	0.041	-0.115
-540.223	-200.000	0.026	0.333
-539.208	97.713	0.081	-0.093
-538.193	800.000	-0.097	0.279
-537.179	-24.845	-0.377	-0.223
-536.164	800.000	-0.133	-0.401
-535.150	116.743	-0.164	-0.200
-534.135	-116.782	0.198	0.036
-533.121	-16.679	0.061	0.038
-532.106	36.780	-0.174	-0.154
-531.091	-89.071	0.446	-0.132
-530.077	-87.543	-0.032	-0.010
-529.062	214.762	-0.074	0.116
-528.048	-200.000	0.028	0.307
-527.033	-98.340	0.191	0.049
-526.018	358.317	-0.059	-0.118
-525.004	-27.065	0.389	0.226
-523.989	-113.259	-0.235	0.046
-522.975	77.910	0.360	-0.383
-521.960	-75.008	0.008	0.003
-520.945	60.655	-0.227	-0.224
-519.931	105.520	0.089	-0.105
-518.916	-82.610	-0.288	-0.093
-517.902	17.977	-0.163	0.129
-516.887	800.000	0.027	-0.114
-515.872	118.565	0.133	0.164
-514.858	800.000	-0.039	0.160
-513.843	-60.204	-0.169	-0.072
-512.829	-117.815	0.298	0.053
-511.814	800.000	0.057	0.219
-510.799	-109.126	-0.039	0.008
-509.785	-4.711	0.232	0.159
-508.770	-50.200	0.275	0.129
-507.756	-56.050	0.233	0.103
-506.741	-200.000	0.009	-0.041
-505.726	18.724	-0.095	0.076
-504.712	-86.789	0.256	0.078
-503.697	340.300	-0.084	0.163
-502.683	-200.000	-0.076	-0.411
-501.668	0.501	0.135	-0.096
-500.653	-116.959	0.095	0.017
-499.639	-57.030	0.075	-0.033
-498.624	134.890	0.025	0.032
-497.610	546.734	-0.148	-0.353
-496.595	89.805	-0.157	-0.174
-495.581	-135.607	-0.291	-0.034
-494.566	45.963	-0.133	-0.122
-493.551	222.160	0.099	-0.159
-492.537	-124.182	0.152	0.024
-491.522	800.000	-0.067	-0.193
-490.508	-111.683	0.422	0.085
-489.493	430.007	0.079	-0.170
-488.478	53.532	0.197	0.188
-487.464	153.286	-0.158	0.215
-486.449	-125.516	0.272	-0.041
-485.435	289.929	-0.150	0.271
-484.420	-200.000	0.055	0.266
-483.405	-8.472	0.116	-0.077
-482.391	-188.310	-0.214	-0.003
-481.376	-84.996	-0.271	0.084
-480.362	264.420	0.068	0.118
-479.347	82.399	-0.125	-0.135
-478.332	131.458	0.072	0.092
-477.318	123.606	0.050	0.062
-476.303	-178.146	0.423	0.010
-475.289	154.373	0.124	-0.169
-474.274	-200.000	0.009	0.249
-473.259	16.816	0.448	0.352
-472.245	82.296	-0.029	0.031
-471.230	-179.267	-0.134	0.003
-470.216	-2.873	0.049	0.034
-469.201	145.709	0.123	-0.164
-468.186	-145.046	-0.010	0.001
-467.172	-37.314	0.286	-0.152
-466.157	-165.085	-0.132	-0.006
-465.143	-134.611	-0.665	0.081
-464.128	-164.339	0.264	-0.012
-463.113	-200.000	-0.025	0.144
-462.099	-183.011	-0.462	-0.008
-461.084	-100.673	0.174	-0.043
-460.070	-5.267	0.213	-0.145
-459.055	-72.009	-0.131	0.048
-458.040	134.830	0.200	-0.259
-457.026	800.000	0.038	0.122
-456.011	57.339	-0.167	-0.162
-454.997	86.365	0.044	0.048
-453.982	800.000	0.058	0.244
-452.968	-2.884	0.219	0.152
-451.953	-44.439	-0.081	0.040
-450.938	-200.000	-0.035	0.256
-449.924	610.071	0.109	-0.270
-448.909	188.173	-0.073	-0.108
-447.895	-74.894	-0.127	-0.045
-446.880	-75.014	0.185	-0.066
-445.865	-54.544	-0.212	-0.095
-444.851	-67.502	-0.291	-0.114
-443.836	800.000	0.117	-0.327
-442.822	104.423	0.074	0.086
-441.807	-160.616	-0.242	-0.013
-440.792	-37.097	0.122	-0.065
-439.778	-200.000	0.019	-0.116
-438.763	304.018	-0.095	0.175
-437.749	-87.900	-0.231	-0.069
-436.734	246.067	0.146	0.244
-435.719	309.735	0.066	0.123
-434.705	800.000	0.019	-0.073
-433.690	-120.029	-0.299	0.051
-432.676	-18.587	0.012	0.007
-431.661	-69.385	-0.274	-0.104
-430.646	686.380	0.067	0.173
-429.632	213.283	0.030	-0.047
-428.617	75.314	0.161	-0.169
-427.603	-162.764	0.166	-0.008
-426.588	-200.000	0.067	0.322
-425.573	617.910	0.082	0.203
-424.559	589.229	-0.089	0.218
-423.544	800.000	-0.077	0.233
-422.530	-63.538	-0.259	0.106
-421.515	-181.569	-0.093	-0.002
-420.500	150.809	0.081	-0.110
-419.486	168.967	-0.115	0.163
-418.471	-130.860	0.096	0.013
-417.457	-28.427	-0.216	0.123
-416.442	-71.294	-0.173	-0.064
-415.428	-8.059	-0.122	0.081
-414.413	257.421	-0.048	-0.081
-413.398	63.143	-0.192	0.191
-412.384	34.797	-0.232	-0.202
-411.369	-200.000	0.015	-0.269
-410.355	-75.727	-0.200	0.071
-409.340	65.407	0.185	0.186
-408.325	-2.839	-0.101	-0.070
-407.311	800.000	-0.069	-0.287
-406.296	253.127	-0.052	0.088
-405.282	-50.935	-0.386	-0.180
-404.267	-156.300	0.176	0.011
-403.252	-200.000	-0.015	0.221
-402.238	446.879	-0.094	0.205
-401.223	597.600	0.048	-0.117
-400.209	-200.000	-0.069	0.363
-399.194	107.570	-0.057	-0.068
-398.179	64.518	-0.270	0.270
-397.165	-52.144	0.166	0.077
-396.150	-49.633	-0.113	-0.053
-395.136	-20.143	-0.073	0.045
-394.121	48.861	-0.209	-0.194
-393.106	153.827	-0.128	0.174
-392.092	800.000	-0.076	0.299
-391.077	-157.494	0.030	0.002
-390.063	-200.000	0.019	-0.257
-389.048	369.008	-0.021	-0.042
-388.033	276.823	0.090	0.158
-387.019	-75.222	0.380	-0.134
-386.004	-199.873	0.302	-0.002
-384.990	325.640	0.130	-0.247
-383.975	130.054	-0.126	-0.160
-382.960	-88.680	-0.140	-0.041
-381.946	-200.000	0.010	0.220
-380.931	340.708	-0.065	0.125
-379.917	86.615	-0.038	0.042
-378.902	188.272	-0.175	-0.259
-377.888	73.238	0.135	0.140
-376.873	185.129	0.122	0.179
-375.858	800.000	0.101	-0.353
-374.844	800.000	0.058	0.187
-373.829	800.000	0.045	0.134
-372.815	202.385	-0.053	0.082
-371.800	-200.000	-0.022	-0.188
-370.785	800.000	-0.059	-0.205
-369.771	-15.712	-0.181	0.114
-368.756	-23.526	0.145	-0.086
-367.742	800.000	0.115	-0.498
-366.727	-200.000	-0.036	0.306
-365.712	-43.688	0.435	0.217
-364.698	125.586	0.067	0.084
-363.683	159.254	-0.072	-0.100
-362.669	-200.000	0.017	0.165
-361.654	500.139	-0.072	0.163
-360.639	-158.884	-0.077	-0.004
-359.625	-5.659	-0.031	0.021
-358.610	70.388	-0.148	0.152
-357.596	241.787	0.058	0.096
-356.581	40.258	-0.150	0.134
-355.566	403.855	-0.071	-0.147
-354.552	-70.445	-0.124	-0.047
-353.537	-163.194	-0.072	-0.003
-352.523	800.000	-0.068	0.257
-351.508	12.381	0.264	0.201
-350.493	1.614	0.198	0.141
-349.479	-200.000	0.031	-0.218
-348.464	285.066	0.064	-0.115
-347.450	-47.074	-0.118	0.057
-346.435	372.409	0.106	0.213
-345.420	-200.000	-0.032	-0.165
-344.406	-200.000	-0.045	-0.217
-343.391	-200.000	-0.003	0.159
-342.377	-103.455	-0.054	-0.013
-341.362	55.489	0.227	-0.218
-340.348	-200.000	0.014	-0.294
-339.333	-92.983	0.181	0.050
-338.318	-187.840	0.220	-0.003
-337.304	636.430	0.102	0.257
-336.289	-21.827	-0.062	-0.038
-335.275	-112.255	0.133	-0.026
-334.260	451.620	-0.089	0.195
-333.245	-21.809	-0.143	-0.086
-332.231	-162.328	0.175	0.009
-331.216	-200.000	0.032	-0.520
-330.202	-145.845	0.115	-0.010
-329.187	-120.783	0.339	-0.057
-328.172	800.000	-0.020	-0.064
-327.158	206.835	-0.182	-0.280
-326.143	-41.562	0.178	-0.090
-325.129	800.000	0.061	-0.244
-324.114	-200.000	-0.024	-0.280
-323.099	-34.672	-0.125	0.068
-322.085	-200.000	0.010	0.333
-321.070	282.900	0.097	0.173
-320.056	177.864	-0.080	-0.115
-319.041	-11.688	-0.183	-0.119
-318.026	-134.882	-0.118	0.014
-317.012	-127.814	0.209	0.030
-315.997	396.659	0.037	0.077
-314.983	-200.000	-0.000	0.005
-313.968	-113.413	0.106	0.020
-312.953	259.340	-0.165	0.281
-311.939	134.186	0.110	0.141
-310.924	-49.241	0.250	0.118
-309.910	10.613	0.231	-0.174
-308.895	7.323	0.193	-0.142
-307.880	800.000	0.128	0.457
-306.866	590.352	0.050	-0.121
-305.851	418.727	-0.110	-0.233
-304.837	-200.000	0.035	-0.170
-303.822	-200.000	0.101	0.589
-302.807	165.730	-0.164	0.229
-301.793	-12.583	0.188	0.121
-300.778	-200.000	0.013	0.088
-299.764	-200.000	0.041	-0.226
-298.749	-200.000	-0.007	0.046
-297.735	800.000	-0.068	0.292
-296.720	377.866	-0.154	-0.312
-295.705	-81.565	0.390	-0.127
-294.691	232.048	0.079	-0.128
-293.676	800.000	0.125	-0.378
-292.662	119.446	0.347	0.424
-291.647	248.674	-0.191	0.319
-290.632	-69.865	-0.316	0.119
-289.618	14.177	-0.150	-0.115
-288.603	-160.091	0.249	0.013
-287.589	27.869	-0.181	-0.150
-286.574	272.990	0.156	-0.271
-285.559	42.063	-0.168	0.151
-284.545	-65.831	0.241	-0.095
-283.530	51.831	-0.146	-0.137
-282.516	9.960	-0.193	0.144
-281.501	-36.436	0.301	-0.160
-280.486	-50.863	-0.106	0.049
-279.472	63.570	0.134	0.132
-278.457	-44.922	0.601	-0.295
-277.443	-200.000	0.007	0.150
-276.428	-70.395	0.320	0.120
-275.413	66.600	-0.311	-0.312
-274.399	73.903	0.291	-0.301
-273.384	800.000	-0.040	-0.118
-272.370	-76.383	-0.190	-0.066
-271.355	352.532	-0.172	-0.337
-270.340	800.000	0.043	-0.180
-269.326	27.746	-0.153	0.128
-268.311	-98.632	-0.273	-0.069
-267.297	-47.564	-0.298	0.143
-266.282	-200.000	0.063	0.331
-265.267	128.154	-0.096	-0.121
-264.253	184.057	-0.174	-0.254
-263.238	120.707	-0.040	0.049
-262.224	-200.000	0.061	0.330
-261.209	-156.681	-0.132	-0.008
-260.195	277.794	-0.139	0.243
-259.180	98.312	-0.262	0.298
-258.165	800.000	0.049	-0.135
-257.151	-200.000	-0.010	-0.079
-256.136	27.725	-0.336	-0.279
-255.122	-107.863	0.285	-0.061
-254.107	-200.000	0.005	-0.028
-253.092	75.833	0.291	0.303
-252.078	-66.091	0.063	0.025
-251.063	-200.000	-0.018	0.085
-250.049	-6.616	0.668	-0.449
-249.034	-118.111	-0.076	0.013
-248.019	-200.000	-0.067	0.377
-247.005	-200.000	0.005	0.249
-245.990	800.000	-0.073	-0.284
-244.976	21.469	0.127	0.102
-243.961	244.078	0.170	0.281
-242.946	524.612	0.051	0.118
-241.932	473.331	0.086	0.191
-240.917	80.227	0.031	0.033
-239.903	-200.000	0.018	-0.120
-238.888	800.000	0.016	-0.053
-237.873	-108.777	0.382	-0.081
-236.859	-200.000	-0.097	0.456
-235.844	-84.218	-0.128	0.040
-234.830	739.426	0.109	0.287
-233.815	-141.556	0.173	-0.017
-232.800	-200.000	0.041	0.358
-231.786	59.619	-0.204	-0.198
-230.771	-92.743	0.016	-0.004
-229.757	-69.884	-0.254	-0.095
-228.742	-200.000	0.020	0.272
-227.727	-200.000	-0.029	0.343
-226.713	161.932	-0.098	0.135
-225.698	340.925	0.103	0.197
-224.684	-97.595	-0.227	0.058
-223.669	-200.000	0.031	-0.302
-222.655	76.986	0.149	-0.155
-221.640	-0.517	0.142	0.099
-220.625	-43.803	-0.262	0.130
-219.611	431.172	-0.179	0.381
-218.596	-200.000	-0.000	-0.143
-217.582	-200.000	0.013	0.121
-216.567	-200.000	-0.238	0.000
-215.552	-5.735	0.398	-0.268
-214.538	800.000	0.009	-0.027
-213.523	59.906	0.171	0.166
-212.509	800.000	0.048	0.138
-211.494	31.204	-0.072	0.061
-210.479	248.201	0.113	-0.188
-209.465	52.478	-0.192	0.180
-208.450	-69.912	0.271	0.102
-207.436	-92.908	0.141	0.039
-206.421	-200.000	0.013	-0.059
-205.406	-104.911	-0.272	-0.061
-204.392	83.885	0.464	0.498
-203.377	-61.998	-0.108	-0.044
-202.363	-200.000	-0.008	-0.199
-201.348	-200.000	0.006	0.053
-200.333	800.000	0.105	-0.327
-199.319	174.400	0.167	-0.238
-198.304	-55.252	0.221	0.098
-197.290	-122.304	-0.125	-0.020
-196.275	151.911	0.115	0.154
-195.260	217.446	0.077	-0.121
-194.246	-200.000	0.028	0.211
-193.231	800.000	0.058	-0.205
-192.217	-139.605	-0.249	0.026
-191.202	-200.000	-0.003	0.185
-190.187	226.786	0.110	-0.175
-189.173	-200.000	-0.044	-0.396
-188.158	-98.468	-0.115	-0.029
-187.144	-152.208	-0.260	0.019
-186.129	-133.630	-0.475	-0.058
-185.114	-25.458	0.322	-0.187
-184.100	308.722	-0.190	-0.348
-183.085	411.638	0.046	0.096
-182.071	-144.259	-0.050	-0.005
-181.056	-56.948	-0.298	0.129
-180.042	-12.415	-0.158	0.101
-179.027	-147.886	0.283	-0.023
-178.012	124.681	0.158	-0.196
-176.998	-77.218	0.287	-0.098
-175.983	149.396	-0.168	-0.224
-174.969	329.067	-0.227	0.429
-173.954	7.192	0.338	0.248
-172.939	-29.029	-0.174	-0.098
-171.925	722.233	0.020	-0.053
-170.910	137.759	0.116	-0.149
-169.896	800.000	0.098	-0.284
-168.881	170.895	-0.171	-0.241
-167.866	-90.724	-0.453	-0.128
-166.852	-63.145	-0.041	-0.017
-165.837	-200.000	-0.001	0.047
-164.823	165.011	-0.203	-0.282
-163.808	182.947	0.194	-0.281
-162.793	-120.013	-0.182	-0.031
-161.779	800.000	-0.136	0.456
-160.764	-22.146	0.155	0.092
-159.750	61.865	0.232	0.227
-158.735	-200.000	0.045	0.293
-157.720	-46.175	0.184	-0.089
-156.706	-141.385	0.105	-0.010
-155.691	172.809	-0.106	0.150
-154.677	-62.243	0.130	0.053
-153.662	-200.000	-0.257	-0.001
-152.647	-200.000	-0.014	-0.069
-151.633	800.000	0.037	-0.113
-150.618	-45.019	0.228	-0.112
-149.604	-200.000	0.093	-0.421
-148.589	800.000	0.036	0.126
-147.574	441.843	-0.100	0.215
-146.560	-179.096	-0.094	0.002
-145.545	165.319	0.104	0.144
-144.531	-200.000	0.013	0.407
-143.516	-150.261	-0.303	0.023
-142.502	17.449	0.246	0.192
-141.487	-187.610	0.150	-0.002
-140.472	800.000	-0.085	-0.323
-139.458	-35.691	-0.229	0.122
-138.443	18.141	0.092	0.072
-137.429	-118.969	0.340	-0.059
-136.414	-86.641	0.265	0.080
-135.399	-114.092	-0.266	0.051
-134.385	-200.000	0.019	-0.474
-133.370	-90.440	-0.233	0.066
-132.356	-139.197	0.109	0.012
-131.341	800.000	0.097	-0.264
-130.326	111.091	-0.046	0.054
-129.312	15.222	0.109	-0.084
-128.297	-157.490	-0.234	0.014
-127.283	30.164	0.184	0.154
-126.268	-200.000	-0.024	0.170
-125.253	-63.700	-0.151	0.061
-124.239	31.824	0.215	0.182
-123.224	270.127	-0.160	0.276
-122.210	10.864	0.330	-0.247
-121.195	-10.030	0.141	0.092
-120.180	188.081	0.161	0.236
-119.166	-24.967	-0.219	-0.127
-118.151	800.000	0.070	0.233
-117.137	-100.305	-0.131	0.032
-116.122	-72.106	0.210	0.077
-115.107	667.745	0.063	0.160
-114.093	-200.000	-0.006	0.040
-113.078	113.343	0.041	-0.049
-112.064	-69.946	0.127	-0.047
-111.049	-68.098	-0.036	0.014
-110.034	800.000	-0.098	-0.321
-109.020	800.000	-0.084	0.242
-108.005	-200.000	-0.096	-0.000
-106.991	229.186	0.097	-0.154
-105.976	-200.000	-0.004	0.210
-104.962	-138.787	-0.120	-0.013
-103.947	-116.342	-0.245	-0.044
-102.932	15.564	0.062	0.048
-101.918	21.373	-0.194	0.155
-100.903	-83.565	0.244	-0.076
-99.889	-68.988	0.179	0.068
-98.874	-133.657	-0.512	-0.063
-97.859	-200.000	0.003	-0.229
-96.845	-24.740	0.098	0.057
-95.830	168.662	-0.282	-0.393
-94.816	21.330	-0.145	-0.115
-93.801	-119.409	0.720	0.122
-92.786	-164.675	0.110	0.005
-91.772	13.303	-0.241	0.183
-90.757	-3.296	0.221	-0.151
-89.743	-129.515	0.339	0.046
-88.728	-105.677	0.326	-0.072
-87.713	0.906	-0.381	-0.267
-86.699	540.684	0.165	0.386
-85.684	-116.592	-0.383	-0.069
-84.670	-200.000	0.027	0.175
-83.655	-4.448	-0.315	0.213
-82.640	57.964	0.383	0.368
-81.626	72.462	-0.298	-0.304
-80.611	143.358	0.179	0.233
-79.597	-200.000	-0.027	-0.257
-78.582	800.000	0.027	-0.105
-77.567	-138.948	0.366	0.039
-76.553	-154.776	0.286	0.019
-75.538	-200.000	-0.026	0.149
-74.524	-34.293	-0.135	-0.072
-73.509	-94.008	0.378	0.102
-72.494	61.380	0.152	0.148
-71.480	-200.000	0.015	-0.141
-70.465	-200.000	0.020	0.243
-69.451	-16.997	0.218	-0.135
-68.436	246.353	0.122	-0.202
-67.422	-11.992	0.134	-0.086
-66.407	-200.000	-0.007	0.220
-65.392	327.289	0.170	0.318
-64.378	-104.077	0.362	0.082
-63.363	-40.413	0.086	0.044
-62.349	-200.000	0.022	-0.314
-61.334	25.119	-1.221	-0.992
-60.319	2.871	0.782	0.555
-59.305	654.122	-0.507	-1.273
-58.290	800.000	0.278	0.947
-57.276	282.712	0.885	1.554
-56.261	-200.000	114.472	656.033
-55.246	540.389	1523.645	3548.846
-54.232	177.113	2699.499	3843.675
-53.217	102.321	2287.722	2615.238
-52.203	36.669	1894.377	1636.557
-51.188	30.643	1683.547	1408.888
-50.173	28.027	1641.883	1354.610
-49.159	50.044	1697.706	1566.979
-48.144	48.652	1711.676	1569.354
-47.130	30.185	1669.210	1393.225
-46.115	27.541	1654.705	1361.342
-45.100	27.343	1649.588	1355.605
-44.086	27.267	1647.232	1353.049
-43.071	27.313	1644.154	1350.809
-42.057	27.259	1641.968	1348.558
-41.042	27.277	1640.039	1347.051
-40.027	27.320	1638.793	1346.291
-39.013	27.342	1635.918	1344.041
-37.998	27.288	1634.554	1342.468
-36.984	27.353	1633.163	1341.753
-35.969	27.353	1632.015	1340.758
-34.954	27.450	1629.944	1339.714
-33.940	27.552	1627.949	1338.771
-32.925	27.366	1626.489	1336.155
-31.911	27.477	1624.306	1335.121
-30.896	27.412	1622.581	1333.171
-29.881	27.305	1621.746	1331.652
-28.867	27.441	1619.557	1330.794
-27.852	27.463	1618.023	1329.645
-26.838	27.425	1616.407	1327.981
-25.823	27.538	1614.510	1327.194
-24.809	27.514	1613.779	1326.369
-23.794	27.427	1612.773	1324.853
-22.779	27.442	1611.169	1323.594
-21.765	27.431	1609.278	1321.906
-20.750	27.448	1608.092	1321.007
-19.736	27.388	1607.096	1319.701
-18.721	27.406	1605.051	1318.099
-17.706	27.485	1603.393	1317.259
-16.692	27.449	1602.148	1315.922
-15.677	27.384	1601.128	1314.560
-14.663	27.511	1599.847	1314.371
-13.648	27.541	1597.839	1312.889
-12.633	27.435	1596.920	1311.315
-11.619	27.505	1595.196	1310.350
-10.604	27.547	1593.393	1309.121
-9.590	27.533	1592.302	1308.077
-8.575	27.473	1591.433	1306.878
-7.560	27.494	1589.838	1305.667
-6.546	27.496	1588.852	1304.818
-5.531	27.432	1588.241	1303.810
-4.517	27.410	1587.089	1302.650
-3.502	27.452	1585.473	1301.574
-2.487	27.604	1583.582	1301.052
-1.473	27.215	1571.907	1288.652
-0.458	24.455	1553.059	1253.796
0.556	22.901	1554.517	1222.894
1.571	20.628	1578.414	1225.590
2.586	20.216	1591.039	1232.354
3.600	18.217	1537.629	1177.140
4.615	11.272	1430.542	1050.458
5.629	5.044	1370.663	967.850
6.644	3.978	1362.870	955.678
7.659	3.983	1361.741	954.838
8.673	4.079	1360.723	954.629
9.688	4.080	1359.069	953.391
10.702	4.019	1355.980	950.763
11.717	6.947	1361.549	972.619
12.731	14.787	1375.846	1031.312
13.746	21.529	1386.534	1081.023
14.761	23.201	1388.604	1092.879
15.775	22.533	1386.620	1087.100
16.790	21.641	1384.515	1079.857
17.804	20.995	1382.587	1074.276
18.819	20.704	1381.608	1071.628
19.834	20.711	1380.686	1070.860
20.848	20.647	1379.352	1069.342
21.863	20.445	1378.642	1067.452
22.877	20.422	1377.550	1066.371
23.892	20.406	1376.471	1065.344
24.907	20.169	1375.660	1063.170
25.921	20.310	1374.351	1062.925
26.936	20.391	1373.267	1062.492
27.950	20.386	1372.958	1062.127
28.965	20.479	1371.993	1061.857
29.980	20.687	1370.378	1061.780
30.994	20.733	1369.902	1061.601
32.009	20.865	1368.687	1061.365
33.023	20.702	1368.033	1059.775
34.038	20.567	1366.615	1057.760
35.053	20.525	1365.363	1056.443
36.067	20.626	1363.600	1055.596
37.082	20.526	1363.300	1054.665
38.096	20.700	1362.220	1054.789
39.111	20.602	1361.544	1053.580
40.126	20.416	1360.835	1051.812
41.140	20.122	1359.990	1049.287
42.155	19.972	1358.795	1047.367
43.169	19.879	1358.797	1046.712
44.184	19.938	1358.509	1046.755
45.199	20.006	1358.537	1047.091
46.213	20.291	1357.811	1048.162
47.228	20.381	1357.404	1048.296
48.242	20.464	1356.122	1047.719
49.257	20.402	1354.734	1046.178
50.271	20.425	1353.048	1044.924
51.286	20.424	1352.004	1044.017
52.301	20.434	1350.424	1042.766
53.315	20.233	1349.204	1040.527
54.330	20.009	1348.016	1038.176
55.344	19.990	1347.050	1037.228
56.359	20.006	1345.815	1036.278
57.374	19.866	1345.637	1035.210
58.388	19.923	1344.522	1034.602
59.403	19.783	1344.260	1033.474
60.417	19.853	1343.303	1033.064
61.432	19.760	1341.987	1031.405
62.447	19.675	1341.270	1030.257
63.461	19.626	1339.862	1028.793
64.476	19.655	1338.827	1028.079
65.490	19.624	1337.627	1026.885
66.505	19.571	1336.655	1025.733
67.520	19.748	1334.834	1025.292
68.534	19.694	1334.008	1024.249
69.549	19.567	1333.145	1022.743
70.563	19.625	1331.932	1022.065
71.578	19.447	1331.102	1020.283
72.593	19.400	1329.681	1018.825
73.607	19.281	1329.113	1017.598
74.622	19.373	1328.219	1017.367
75.636	19.481	1327.724	1017.532
76.651	19.543	1326.971	1017.233
77.666	19.454	1326.821	1016.503
78.680	19.616	1326.402	1017.048
79.695	19.656	1325.444	1016.456
80.709	19.793	1325.154	1016.950
81.724	19.939	1324.588	1017.285
82.739	20.119	1323.345	1017.299
83.753	20.228	1323.336	1017.841
84.768	20.441	1322.101	1018.049
85.782	20.591	1321.151	1018.103
86.797	20.608	1320.027	1017.249
87.812	20.535	1318.073	1015.224
88.826	20.399	1317.686	1014.042
89.841	20.546	1316.294	1013.738
90.855	20.671	1315.497	1013.767
91.870	20.668	1314.949	1013.235
92.884	20.708	1314.540	1013.063
93.899	20.847	1312.962	1012.566
94.914	20.818	1312.550	1011.989
95.928	20.810	1312.136	1011.535
96.943	20.656	1311.063	1009.727
97.957	20.509	1310.274	1008.177
98.972	20.503	1309.447	1007.415
99.987	20.496	1308.402	1006.482
101.001	20.623	1307.206	1006.204
102.016	20.691	1306.229	1005.757
103.030	20.597	1305.336	1004.440
104.045	20.497	1304.598	1003.206
105.060	20.359	1303.035	1001.120
106.074	20.091	1301.136	998.029
107.089	19.709	1299.959	994.840
108.103	19.709	1298.524	993.650
109.118	19.590	1297.265	991.916
110.133	19.660	1295.808	991.119
111.147	19.648	1294.501	989.964
112.162	19.734	1293.347	989.483
113.176	19.800	1292.599	989.203
114.191	19.805	1291.561	988.349
115.206	19.848	1290.355	987.584
116.220	19.876	1288.934	986.566
117.235	19.686	1288.145	984.794
118.249	19.875	1286.368	984.423
119.264	19.685	1285.563	982.639
120.279	19.525	1284.775	981.043
121.293	19.566	1282.845	979.714
122.308	19.495	1281.765	978.399
123.322	19.292	1280.890	976.497
124.337	19.309	1280.127	975.924
125.352	19.399	1278.951	975.449
126.366	19.172	1277.740	973.156
127.381	19.278	1276.705	972.884
128.395	19.151	1275.814	971.397
129.410	19.231	1275.469	971.502
130.424	19.418	1274.552	971.772
131.439	19.527	1273.920	971.820
132.454	19.669	1272.876	971.731
133.468	19.692	1272.259	971.304
134.483	19.704	1271.577	970.765
135.497	19.686	1271.086	970.205
136.512	19.844	1269.680	969.929
137.527	19.829	1267.929	968.422
138.541	19.746	1267.267	967.371
139.556	19.943	1265.811	967.273
140.570	20.152	1264.555	967.395
141.585	20.249	1263.415	966.975
142.600	20.373	1262.990	967.253
143.614	20.414	1262.488	967.014
144.629	20.506	1261.647	966.797
145.643	20.552	1259.974	965.683
146.658	20.200	1258.695	962.666
147.673	20.127	1257.140	960.987
148.687	20.055	1255.414	959.186
149.702	19.916	1254.519	957.644
150.716	19.812	1253.361	956.101
151.731	19.749	1251.942	954.589
152.746	19.757	1251.083	953.895
153.760	19.936	1249.972	953.948
154.775	19.976	1248.948	953.302
155.789	20.124	1248.092	953.375
156.804	20.302	1246.843	953.319
157.819	20.252	1246.479	952.678
158.833	20.401	1245.710	952.825
159.848	20.573	1244.966	953.116
160.862	20.489	1243.782	951.661
161.877	20.149	1242.128	948.456
162.892	19.830	1240.601	945.461
163.906	19.738	1239.895	944.339
164.921	19.692	1238.604	943.017
165.935	19.813	1238.585	943.579
166.950	20.029	1237.496	943.847
167.964	20.030	1236.884	943.302
168.979	19.979	1235.806	942.118
169.994	19.900	1235.435	941.320
171.008	20.035	1234.398	941.181
172.023	20.215	1234.010	941.779
173.037	20.315	1233.532	941.872
174.052	20.317	1232.729	941.190
175.067	20.004	1230.912	938.025
176.081	19.762	1230.064	935.984
177.096	19.826	1228.723	935.229
178.110	19.794	1227.782	934.255
179.125	19.897	1227.088	934.200
180.140	20.074	1226.289	934.467
181.154	20.193	1225.565	934.472
182.169	20.211	1224.301	933.521
183.183	20.273	1223.460	933.130
184.198	20.419	1221.844	932.599
185.213	20.397	1221.178	931.894
186.227	20.434	1219.876	931.012
187.242	20.499	1219.350	930.880
188.256	20.650	1218.090	930.645
189.271	20.617	1217.535	929.959
190.286	20.435	1215.784	927.566
191.300	19.979	1215.008	924.458
192.315	19.788	1214.388	922.888
193.329	19.936	1213.507	922.927
194.344	19.999	1212.811	922.649
195.359	20.025	1212.298	922.315
196.373	20.029	1212.019	922.041
197.388	20.174	1211.827	922.589
198.402	20.528	1211.447	924.100
199.417	20.552	1211.431	924.135
200.432	20.904	1210.325	925.075
201.446	20.923	1209.836	924.720
202.461	20.989	1208.996	924.349
203.475	20.929	1208.242	923.370
204.490	20.641	1206.342	920.315
205.504	20.426	1204.882	917.982
206.519	20.393	1203.771	916.879
207.534	20.328	1202.675	915.621
208.548	20.265	1201.974	914.674
209.563	20.320	1201.108	914.225
210.577	20.305	1200.124	913.316
211.592	20.541	1199.008	913.624
212.607	20.626	1199.041	914.018
213.621	20.692	1198.069	913.544
214.636	20.762	1196.711	912.795
215.650	20.549	1196.051	911.095
216.665	20.770	1195.462	911.718
217.680	20.945	1194.877	912.110
218.694	21.006	1194.037	911.707
219.709	20.958	1192.774	910.411
220.723	20.858	1191.995	909.213
221.738	20.840	1191.363	908.560
222.753	20.832	1190.478	907.763
223.767	20.743	1190.329	907.103
224.782	21.050	1189.367	907.888
225.796	21.080	1189.211	907.843
226.811	21.018	1188.461	906.867
227.826	20.808	1187.633	905.067
228.840	20.659	1186.815	903.587
229.855	20.580	1186.269	902.685
230.869	20.691	1184.909	902.144
231.884	20.601	1183.740	900.706
232.899	20.453	1182.986	899.290
233.913	20.398	1182.551	898.593
234.928	20.325	1181.690	897.480
235.942	20.254	1180.916	896.447
236.957	20.262	1180.213	895.875
237.972	20.316	1179.007	895.162
238.986	20.416	1178.525	895.229
240.001	20.363	1178.348	894.745
241.015	20.385	1177.512	894.145
242.030	20.500	1176.809	894.119
243.045	20.592	1176.030	893.924
244.059	20.768	1175.196	894.116
245.074	20.771	1174.449	893.480
246.088	20.861	1173.663	893.269
247.103	20.924	1173.561	893.432
248.117	21.149	1172.560	893.744
249.132	21.291	1172.193	894.115
250.147	21.550	1171.913	895.144
251.161	21.711	1171.521	895.590
252.176	21.790	1170.605	895.214
253.190	21.873	1170.282	895.309
254.205	21.870	1169.644	894.727
255.220	22.013	1168.723	894.675
256.234	22.039	1167.674	893.924
257.249	21.929	1167.446	893.108
258.263	21.862	1166.880	892.256
259.278	21.703	1166.762	891.280
260.293	21.904	1165.582	891.321
261.307	21.973	1164.922	891.085
262.322	22.028	1164.923	891.290
263.336	22.016	1163.633	890.161
264.351	21.992	1163.025	889.498
265.366	21.933	1163.005	889.102
266.380	22.002	1162.008	888.608
267.395	22.024	1160.938	887.827
268.409	21.808	1160.465	886.291
269.424	21.797	1159.071	885.095
270.439	21.780	1158.551	884.534
271.453	21.475	1158.047	882.531
272.468	21.422	1157.059	881.436
273.482	21.389	1156.236	880.563
274.497	21.470	1155.843	880.594
275.512	21.300	1155.156	879.136
276.526	21.346	1154.343	878.669
277.541	21.484	1153.521	878.662
278.555	21.684	1152.570	878.864
279.570	21.885	1152.420	879.679
280.585	21.973	1151.817	879.583
281.599	21.959	1150.664	878.551
282.614	21.762	1149.315	876.458
283.628	21.574	1148.075	874.498
284.643	21.468	1146.979	873.055
285.657	21.427	1147.011	872.799
286.672	21.497	1145.761	872.117
287.687	21.540	1144.704	871.452
288.701	21.710	1144.039	871.714
289.716	21.625	1143.442	870.760
290.730	21.652	1142.565	870.148
291.745	21.588	1142.358	869.597
292.760	21.695	1141.844	869.662
293.774	21.813	1141.059	869.570
294.789	21.894	1140.368	869.366
295.803	21.954	1139.898	869.229
296.818	21.678	1138.991	867.095
297.833	21.559	1137.709	865.456
298.847	21.649	1136.898	865.204
299.862	21.682	1136.283	864.825
300.876	21.632	1136.175	864.417
301.891	21.843	1134.989	864.480
302.906	21.930	1135.185	864.980
303.920	22.118	1134.429	865.256
304.935	22.235	1133.961	865.396
305.949	22.460	1133.010	865.701
306.964	22.460	1132.397	865.158
307.979	22.299	1131.380	863.513
308.993	22.242	1130.754	862.680
310.008	22.192	1130.198	861.931
311.022	22.229	1129.615	861.591
312.037	22.173	1128.512	860.403
313.052	22.076	1127.109	858.779
314.066	21.875	1126.203	857.035
315.081	21.520	1125.593	854.760
316.095	21.539	1124.581	854.006
317.110	21.518	1124.339	853.647
318.125	21.625	1123.116	853.162
319.139	21.627	1122.438	852.582
320.154	21.638	1121.686	851.989
321.168	21.755	1121.110	852.045
322.183	21.646	1120.699	851.127
323.197	21.605	1120.042	850.352
324.212	21.836	1119.263	850.811
325.227	21.671	1119.337	849.986
326.241	21.801	1118.665	850.034
327.256	21.721	1117.533	848.709
328.270	21.772	1116.366	847.998
329.285	21.760	1115.463	847.177
330.300	21.826	1114.555	846.732
331.314	21.543	1114.013	844.878
332.329	21.650	1112.983	844.540
333.343	21.801	1112.278	844.655
334.358	21.941	1111.518	844.680
335.373	22.160	1110.798	845.108
336.387	22.123	1110.430	844.579
337.402	22.083	1110.008	843.991
338.416	22.110	1109.275	843.486
339.431	22.212	1108.787	843.529
340.446	22.478	1108.401	844.439
341.460	22.713	1107.495	844.798
342.475	22.717	1106.820	844.230
343.489	22.755	1105.917	843.648
344.504	22.787	1105.089	843.093
345.519	22.874	1104.514	842.996
346.533	22.911	1103.349	842.210
347.548	22.897	1103.051	841.840
348.562	22.843	1102.113	840.793
349.577	22.559	1101.205	838.671
350.592	22.246	1100.004	836.197
351.606	22.099	1099.197	834.809
352.621	22.055	1098.213	833.780
353.635	22.029	1097.472	833.021
354.650	22.149	1096.791	832.997
355.665	22.240	1096.256	832.951
356.679	22.190	1096.037	832.474
357.694	22.340	1095.238	832.504
358.708	22.439	1095.103	832.794
359.723	22.416	1094.123	831.865
360.738	22.474	1093.532	831.618
361.752	22.557	1092.814	831.388
362.767	22.459	1092.117	830.324
363.781	22.480	1091.850	830.145
364.796	22.753	1091.357	830.986
365.810	22.957	1090.954	831.563
366.825	22.995	1090.554	831.365
367.840	23.198	1090.218	831.989
368.854	23.240	1089.655	831.682
369.869	23.177	1088.640	830.538
370.883	23.025	1087.733	829.058
371.898	22.929	1086.528	827.617
372.913	22.893	1086.397	827.275
373.927	22.887	1086.055	826.914
374.942	23.098	1085.558	827.449
375.956	22.979	1085.051	826.436
376.971	23.000	1084.419	825.977
377.986	22.982	1084.052	825.540
379.000	23.226	1083.618	826.276
380.015	23.388	1083.107	826.572
381.029	23.374	1082.272	825.794
382.044	23.222	1081.932	824.755
383.059	23.302	1081.175	824.476
384.073	23.175	1080.220	823.082
385.088	23.323	1079.254	822.962
386.102	23.345	1078.252	822.228
387.117	23.018	1076.839	819.563
388.132	22.931	1075.986	818.439
389.146	22.734	1075.399	817.006
390.161	22.633	1074.613	815.870
391.175	22.711	1073.893	815.613
392.190	22.980	1073.176	816.238
393.205	23.217	1072.276	816.576
394.219	23.226	1071.714	816.117
395.234	23.094	1070.646	814.623
396.248	22.856	1069.362	812.476
397.263	22.848	1068.741	811.898
398.278	22.795	1067.879	810.928
399.292	22.565	1067.151	809.246
400.307	22.554	1066.422	808.571
401.321	22.613	1065.440	808.026
402.336	22.653	1064.582	807.489
403.350	22.594	1063.847	806.589
404.365	22.763	1063.467	807.001
405.380	22.863	1063.170	807.163
406.394	22.978	1062.446	807.064
407.409	23.047	1062.055	807.014
408.423	23.313	1061.533	807.759
409.438	23.517	1060.793	808.052
410.453	23.472	1060.007	807.177
411.467	23.541	1059.591	807.103
412.482	23.582	1058.662	806.512
413.496	23.735	1057.905	806.556
414.511	23.752	1057.845	806.518
415.526	23.780	1057.817	806.553
416.540	23.818	1057.604	806.491
417.555	23.935	1056.720	806.277
418.569	23.754	1056.101	804.914
419.584	23.719	1054.752	803.657
420.599	23.623	1055.018	803.350
421.613	157.452	1403.956	1797.415
422.628	144.620	1454.733	1797.495
