DTS Sentinel unit serial number:	SN413079Multiplexer serial number:	ORYXHardware model number:	OX4-SRSoftware version number:	ORYX F/W v4.00 Oryx Data Collector v3.7.2.0data status	okinstallation	princeton_trtdifferential loss correction	single-endedforward channel	channel 2reverse channel	N/Adate	2019/09/13time	00:35:34forward acquisition time	60.00reverse acquisition time	0.00gamma	496.2192k internal	0.2332k external	0.2332temperature offset calibration	1.0165default loss term (dB/km)	0.3790temperature slope calibration	1.0000multiplexer offset coefficient	1.0000multiplexer slope coefficient	1.0000fibre end	0.00T internal ref (°C)	28.31T ext. ref 1 (°C)	3.70T ext. ref 2 (°C)	22.91length (m)	temperature (°C)	Stokes	anti-Stokes-747.200	103.860	-0.152	-0.179
-746.185	38.212	0.221	-0.198
-745.171	35.853	-0.164	-0.145
-744.156	-6.768	0.047	-0.032
-743.142	606.569	-0.037	-0.093
-742.127	800.000	0.157	0.484
-741.112	-141.177	0.159	0.016
-740.098	219.705	0.124	-0.200
-739.083	649.438	-0.068	-0.175
-738.069	-176.153	0.177	0.005
-737.054	-74.092	-0.242	0.088
-736.039	707.286	0.109	0.290
-735.025	800.000	0.072	0.232
-734.010	-127.949	-0.499	-0.072
-732.996	800.000	-0.038	0.135
-731.981	-59.976	0.077	0.033
-730.966	800.000	-0.061	-0.210
-729.952	-38.929	0.097	-0.051
-728.937	118.083	-0.208	-0.258
-727.923	-22.302	0.119	0.073
-726.908	53.168	-0.061	0.059
-725.894	800.000	-0.077	-0.304
-724.879	206.693	0.202	-0.316
-723.864	-58.943	-0.125	-0.054
-722.850	-159.586	0.292	-0.016
-721.835	-44.106	-0.031	-0.016
-720.821	109.416	0.106	0.128
-719.806	-139.975	-0.226	0.024
-718.791	-0.194	-0.219	-0.157
-717.777	-95.226	0.331	-0.090
-716.762	40.411	-0.099	-0.090
-715.748	-33.775	0.290	0.161
-714.733	106.069	0.082	-0.097
-713.718	145.667	-0.151	0.203
-712.704	75.050	0.211	-0.223
-711.689	209.791	-0.201	-0.317
-710.675	-200.000	-0.079	-0.392
-709.660	-82.923	0.023	0.008
-708.645	-200.000	0.012	-0.249
-707.631	800.000	-0.046	0.196
-706.616	-18.380	0.145	-0.091
-705.602	32.310	0.066	0.058
-704.587	510.381	-0.041	-0.097
-703.572	-200.000	0.000	-0.174
-702.558	-145.140	0.086	-0.008
-701.543	-200.000	0.016	-0.083
-700.529	-101.397	-0.269	0.066
-699.514	-200.000	0.024	-0.523
-698.499	-200.000	0.008	-0.286
-697.485	72.572	-0.300	0.314
-696.470	800.000	-0.056	-0.176
-695.456	-138.696	0.237	-0.026
-694.441	2.597	0.120	0.087
-693.426	-106.671	-0.225	-0.050
-692.412	-200.000	0.007	-0.203
-691.397	70.331	0.183	-0.190
-690.383	143.357	-0.218	-0.292
-689.368	-200.000	0.062	-0.278
-688.354	-23.925	-0.418	-0.251
-687.339	-59.355	-0.350	0.151
-686.324	-200.000	0.003	-0.112
-685.310	-200.000	-0.034	-0.194
-684.295	-200.000	-0.037	-0.184
-683.281	-95.273	-0.119	0.032
-682.266	66.154	0.212	0.216
-681.251	-53.641	-0.402	0.184
-680.237	-200.000	0.012	0.123
-679.222	93.642	0.172	0.196
-678.208	203.256	0.157	0.244
-677.193	-200.000	-0.005	-0.326
-676.178	-174.450	-0.431	-0.012
-675.164	-11.989	-0.149	0.098
-674.149	726.992	-0.039	-0.105
-673.135	800.000	-0.103	-0.371
-672.120	172.496	-0.055	-0.080
-671.105	-200.000	-0.011	0.107
-670.091	385.394	0.169	0.349
-669.076	118.487	0.140	-0.173
-668.062	26.990	-0.113	-0.095
-667.047	117.166	-0.071	-0.088
-666.032	64.424	0.106	-0.107
-665.018	800.000	-0.013	-0.043
-664.003	-48.216	-0.175	-0.085
-662.989	-200.000	-0.039	-0.239
-661.974	-200.000	-0.036	-0.214
-660.959	-93.957	-0.123	-0.034
-659.945	24.753	-0.209	0.173
-658.930	262.024	0.003	0.005
-657.916	-83.208	0.062	0.020
-656.901	-200.000	-0.025	-0.139
-655.886	101.123	-0.027	-0.031
-654.872	-72.372	-0.289	-0.107
-653.857	-109.344	0.091	-0.019
-652.843	-17.640	0.152	0.096
-651.828	264.931	-0.070	-0.123
-650.814	-75.824	-0.118	0.042
-649.799	-75.573	0.206	-0.074
-648.784	-200.000	0.000	0.080
-647.770	154.836	-0.129	0.178
-646.755	-157.860	-0.017	0.001
-645.741	800.000	-0.049	0.173
-644.726	72.045	0.205	0.214
-643.711	-200.000	0.067	-0.350
-642.697	800.000	-0.061	-0.237
-641.682	-200.000	-0.019	0.446
-640.668	-62.394	-0.117	-0.049
-639.653	-46.509	0.186	0.091
-638.638	-66.691	-0.089	0.035
-637.624	800.000	-0.144	0.409
-636.609	-63.415	-0.023	-0.009
-635.595	-200.000	0.034	0.286
-634.580	-200.000	0.052	0.457
-633.565	-62.904	-0.254	0.105
-632.551	-200.000	-0.053	-0.305
-631.536	-125.876	0.056	-0.008
-630.522	-51.541	0.198	-0.092
-629.507	184.424	0.072	0.107
-628.492	-200.000	0.004	-0.020
-627.478	243.716	0.146	-0.246
-626.463	-45.625	-0.183	-0.091
-625.449	-155.763	0.153	-0.010
-624.434	101.541	-0.112	0.130
-623.419	70.679	0.199	-0.206
-622.405	130.040	-0.173	0.222
-621.390	-107.418	-0.284	-0.062
-620.376	222.223	0.014	-0.023
-619.361	184.153	-0.062	-0.092
-618.346	246.574	-0.126	0.212
-617.332	-200.000	-0.001	-0.171
-616.317	33.009	0.253	-0.220
-615.303	-31.451	0.091	0.051
-614.288	5.956	-0.167	0.124
-613.273	336.451	0.041	0.079
-612.259	800.000	-0.079	-0.272
-611.244	-200.000	-0.009	-0.197
-610.230	-151.022	0.325	-0.025
-609.215	147.823	-0.234	0.315
-608.201	-200.000	0.024	-0.430
-607.186	-200.000	0.040	0.364
-606.171	85.350	0.212	0.232
-605.157	-8.021	0.422	-0.285
-604.142	203.092	0.100	0.155
-603.128	-93.639	-0.354	0.098
-602.113	-104.176	0.129	0.030
-601.098	-6.098	0.235	-0.161
-600.084	129.693	-0.175	-0.224
-599.069	-99.546	-0.209	0.053
-598.055	247.399	-0.058	0.098
-597.040	35.184	-0.321	-0.281
-596.025	-200.000	-0.013	-0.247
-595.011	800.000	0.166	-0.476
-593.996	-200.000	0.042	0.193
-592.982	-148.455	0.198	0.016
-591.967	-46.823	0.198	0.097
-590.952	-200.000	-0.037	0.371
-589.938	-200.000	0.030	-0.288
-588.923	2.426	0.258	0.187
-587.909	-78.476	-0.381	0.130
-586.894	-200.000	0.010	-0.138
-585.879	344.340	-0.149	0.293
-584.865	-31.427	-0.148	-0.083
-583.850	28.818	-0.133	-0.113
-582.836	-200.000	0.024	0.286
-581.821	-64.865	0.097	-0.039
-580.806	-160.603	-0.229	0.012
-579.792	-139.328	-0.056	-0.006
-578.777	427.141	0.046	-0.098
-577.763	596.986	-0.081	-0.200
-576.748	800.000	-0.021	-0.070
-575.733	800.000	0.058	-0.185
-574.719	80.348	0.176	0.189
-573.704	-200.000	-0.005	0.136
-572.690	11.510	-0.122	-0.093
-571.675	579.968	0.096	-0.235
-570.661	225.303	0.149	-0.242
-569.646	800.000	-0.087	-0.329
-568.631	26.019	-0.150	0.125
-567.617	44.396	-0.237	0.218
-566.602	-96.017	-0.188	0.050
-565.588	800.000	0.104	0.370
-564.573	-49.331	0.166	0.079
-563.558	-200.000	-0.035	0.160
-562.544	-177.393	0.271	-0.007
-561.529	-200.000	-0.040	-0.200
-560.515	-12.325	0.232	0.151
-559.500	-152.445	-0.081	-0.006
-558.485	-129.253	0.173	0.024
-557.471	796.590	0.050	0.138
-556.456	258.982	0.116	-0.200
-555.442	68.726	0.043	-0.044
-554.427	650.327	-0.154	0.394
-553.412	-200.000	-0.010	0.147
-552.398	-200.000	-0.011	-0.186
-551.383	-92.729	0.359	0.100
-550.369	74.090	0.221	-0.232
-549.354	-25.988	0.056	-0.033
-548.339	-52.872	0.089	0.041
-547.325	155.357	0.107	0.147
-546.310	58.868	-0.061	-0.060
-545.296	-200.000	-0.032	-0.148
-544.281	-200.000	-0.038	0.334
-543.266	800.000	0.095	0.330
-542.252	178.621	0.125	-0.182
-541.237	-3.833	0.060	0.041
-540.223	-105.573	-0.234	-0.053
-539.208	108.025	0.200	-0.237
-538.193	67.489	0.130	-0.132
-537.179	-200.000	0.012	0.058
-536.164	-200.000	-0.021	-0.144
-535.150	44.153	0.264	-0.241
-534.135	-200.000	0.038	0.207
-533.121	-200.000	-0.085	-0.418
-532.106	800.000	-0.091	-0.364
-531.091	-114.821	0.386	0.074
-530.077	38.398	0.093	-0.083
-529.062	800.000	0.041	0.122
-528.048	-200.000	-0.013	0.175
-527.033	192.116	-0.107	-0.161
-526.018	-3.818	-0.154	-0.107
-525.004	-112.797	0.087	0.017
-523.989	-71.528	-0.409	0.153
-522.975	684.189	0.120	0.313
-521.960	-200.000	0.004	0.176
-520.945	-64.558	-0.105	-0.043
-519.931	246.679	-0.040	0.067
-518.916	779.137	0.108	0.296
-517.902	-78.422	-0.164	-0.056
-516.887	-99.494	-0.387	-0.097
-515.872	45.459	0.269	-0.248
-514.858	160.206	0.127	-0.177
-513.843	-200.000	-0.017	-0.188
-512.829	213.784	-0.195	-0.307
-511.814	106.435	0.129	-0.153
-510.799	120.115	0.097	-0.119
-509.785	-6.538	0.221	0.150
-508.770	462.446	0.085	0.190
-507.756	20.916	0.178	-0.144
-506.741	-158.394	0.214	-0.012
-505.726	-200.000	-0.013	0.202
-504.712	-63.812	-0.367	0.150
-503.697	77.589	0.189	0.201
-502.683	-200.000	-0.000	-0.042
-501.668	213.708	0.161	-0.254
-500.653	568.800	-0.075	-0.182
-499.639	472.861	0.083	-0.186
-498.624	234.862	0.129	-0.213
-497.610	-7.293	-0.077	0.052
-496.595	-105.339	-0.385	0.087
-495.581	-183.618	0.296	0.005
-494.566	-68.255	-0.138	0.053
-493.551	136.999	0.248	-0.323
-492.537	374.932	0.150	-0.304
-491.522	205.283	0.167	0.259
-490.508	257.867	0.172	-0.295
-489.493	-200.000	0.009	-0.114
-488.478	-14.599	-0.307	0.196
-487.464	-200.000	0.044	-0.216
-486.449	-114.606	0.259	-0.049
-485.435	290.227	0.156	-0.281
-484.420	128.695	-0.184	0.234
-483.405	-200.000	0.011	-0.140
-482.391	-75.455	0.148	0.053
-481.376	431.495	-0.066	0.142
-480.362	45.012	-0.078	-0.071
-479.347	464.820	-0.125	-0.279
-478.332	-200.000	-0.050	-0.251
-477.318	800.000	0.044	0.124
-476.303	-56.276	-0.058	0.025
-475.289	-200.000	-0.034	0.181
-474.274	-78.540	0.094	-0.032
-473.259	-169.252	-0.520	-0.019
-472.245	72.148	0.209	-0.216
-471.230	243.406	0.196	0.327
-470.216	-200.000	0.042	0.528
-469.201	-123.307	-0.137	0.022
-468.186	-200.000	-0.002	-0.168
-467.172	-15.049	0.276	0.176
-466.157	7.161	-0.118	0.088
-465.143	424.058	-0.207	-0.444
-464.128	-21.524	0.159	-0.096
-463.113	-200.000	-0.011	0.104
-462.099	800.000	-0.075	0.274
-461.084	333.478	-0.123	0.236
-460.070	-200.000	-0.018	0.190
-459.055	-135.626	-0.209	0.025
-458.040	-163.616	-0.090	-0.004
-457.026	-73.030	-0.320	-0.117
-456.011	32.413	-0.135	-0.116
-454.997	113.062	0.021	0.026
-453.982	-78.535	0.300	0.102
-452.968	146.165	0.233	0.311
-451.953	800.000	-0.025	-0.077
-450.938	85.894	0.139	-0.153
-449.924	-42.930	-0.306	-0.154
-448.909	-25.449	-0.243	-0.143
-447.895	-200.000	-0.003	-0.077
-446.880	-38.734	0.260	-0.136
-445.865	-101.489	-0.112	0.027
-444.851	316.727	-0.093	0.174
-443.836	139.723	0.217	0.284
-442.822	-47.141	-0.117	-0.057
-441.807	-154.839	0.243	0.016
-440.792	-200.000	-0.051	-0.271
-439.778	-121.004	0.464	0.078
-438.763	-129.646	0.207	0.028
-437.749	-98.291	0.091	0.023
-436.734	4.852	0.013	0.009
-435.719	-157.039	-0.324	-0.020
-434.705	-22.244	-0.072	-0.044
-433.690	91.274	0.060	-0.067
-432.676	41.311	-0.265	-0.238
-431.661	800.000	0.070	0.225
-430.646	-77.526	-0.383	-0.132
-429.632	49.067	0.244	0.228
-428.617	357.709	0.100	0.199
-427.603	367.067	-0.126	-0.254
-426.588	-92.008	-0.110	0.031
-425.573	-183.553	-0.300	0.005
-424.559	800.000	-0.039	0.141
-423.544	-200.000	-0.020	-0.163
-422.530	253.426	0.127	0.216
-421.515	-200.000	-0.033	0.335
-420.500	-83.011	0.165	0.053
-419.486	800.000	-0.128	0.415
-418.471	800.000	-0.115	0.384
-417.457	-121.640	-0.082	0.013
-416.442	-58.428	-0.130	-0.056
-415.428	-107.001	-0.043	0.009
-414.413	800.000	-0.041	0.120
-413.398	-130.641	0.135	-0.018
-412.384	-200.000	-0.012	0.059
-411.369	-65.871	-0.096	0.038
-410.355	-79.722	0.213	-0.071
-409.340	10.222	-0.216	0.163
-408.325	800.000	0.087	-0.251
-407.311	-157.750	0.260	-0.015
-406.296	102.899	-0.265	-0.308
-405.282	-200.000	-0.074	-0.328
-404.267	800.000	0.030	0.095
-403.252	-200.000	-0.031	0.254
-402.238	150.288	-0.131	0.176
-401.223	25.475	-0.168	-0.139
-400.209	9.974	-0.224	-0.169
-399.194	-141.556	0.371	0.037
-398.179	800.000	0.033	-0.092
-397.165	-200.000	-0.008	-0.096
-396.150	-132.057	0.225	0.029
-395.136	-86.261	0.163	0.050
-394.121	-64.677	-0.278	0.112
-393.106	-24.886	-0.127	-0.075
-392.092	-200.000	-0.029	0.127
-391.077	-15.072	-0.335	-0.213
-390.063	194.538	-0.105	0.158
-389.048	-108.286	-0.266	0.057
-388.033	-86.923	-0.244	0.074
-387.019	800.000	0.039	-0.130
-386.004	-63.943	0.240	0.097
-384.990	-65.048	0.093	-0.037
-383.975	-7.657	0.383	0.257
-382.960	-158.101	0.343	0.020
-381.946	-36.397	-0.059	-0.031
-380.931	45.785	-0.144	-0.132
-379.917	336.098	0.077	-0.147
-378.902	771.552	-0.076	-0.205
-377.888	-99.367	0.146	-0.037
-376.873	800.000	0.062	0.232
-375.858	283.272	0.075	0.133
-374.844	-200.000	-0.006	0.175
-373.829	-200.000	-0.005	0.184
-372.815	-200.000	-0.024	0.299
-371.800	-200.000	0.011	0.223
-370.785	136.141	-0.172	-0.223
-369.771	-34.009	0.252	-0.137
-368.756	-114.981	-0.234	0.044
-367.742	-17.165	-0.121	-0.076
-366.727	-38.109	-0.271	-0.143
-365.712	555.840	0.074	-0.177
-364.698	11.775	0.140	-0.107
-363.683	-200.000	0.021	-0.306
-362.669	-4.102	0.115	0.079
-361.654	-122.524	0.135	0.022
-360.639	142.237	0.112	-0.147
-359.625	-43.116	0.030	0.015
-358.610	71.983	-0.098	-0.101
-357.596	35.966	-0.069	-0.060
-356.581	784.742	0.022	-0.058
-355.566	55.270	0.182	0.174
-354.552	-200.000	-0.055	-0.253
-353.537	-21.181	-0.218	-0.132
-352.523	-44.730	-0.368	0.182
-351.508	-89.947	-0.276	-0.080
-350.493	219.972	0.028	0.044
-349.479	-184.048	-0.378	0.006
-348.464	-200.000	0.009	-0.117
-347.450	110.860	-0.137	0.163
-346.435	-102.816	0.240	0.056
-345.420	-160.796	-0.155	-0.008
-344.406	78.529	0.141	0.149
-343.391	-73.007	-0.219	-0.079
-342.377	-26.164	0.123	-0.071
-341.362	-88.956	0.283	-0.083
-340.348	-32.652	-0.219	0.121
-339.333	375.838	0.038	-0.076
-338.318	206.079	0.036	0.056
-337.304	-200.000	-0.008	-0.057
-336.289	-163.516	-0.037	0.002
-335.275	-56.229	-0.137	0.060
-334.260	-200.000	0.001	0.098
-333.245	800.000	0.077	0.260
-332.231	-126.698	0.325	0.048
-331.216	-16.053	0.153	0.097
-330.202	-15.740	-0.340	0.215
-329.187	228.378	-0.036	0.058
-328.172	84.944	-0.136	0.148
-327.158	-98.455	-0.283	-0.072
-326.143	83.456	-0.130	-0.140
-325.129	219.134	-0.119	-0.189
-324.114	-162.144	-0.425	-0.021
-323.099	8.242	0.247	-0.183
-322.085	-78.402	-0.253	0.086
-321.070	9.627	0.110	0.082
-320.056	544.974	0.066	-0.156
-319.041	-79.997	-0.326	-0.108
-318.026	268.922	0.087	0.151
-317.012	33.765	0.094	-0.081
-315.997	187.291	0.078	-0.115
-314.983	-42.363	-0.048	-0.024
-313.968	144.887	-0.111	0.147
-312.953	602.771	-0.065	-0.159
-311.939	-200.000	0.016	-0.445
-310.924	737.001	-0.047	0.125
-309.910	-110.119	-0.202	0.042
-308.895	-111.302	0.155	0.031
-307.880	188.120	0.175	0.258
-306.866	-46.537	-0.185	0.090
-305.851	-140.426	0.104	-0.011
-304.837	800.000	-0.026	0.093
-303.822	94.774	-0.218	0.245
-302.807	-49.510	0.104	-0.049
-301.793	51.877	0.020	-0.019
-300.778	-200.000	-0.021	0.168
-299.764	450.529	-0.143	-0.312
-298.749	-150.141	0.259	0.020
-297.735	-133.338	0.354	0.044
-296.720	-53.005	-0.240	-0.109
-295.705	234.575	-0.097	-0.158
-294.691	223.098	0.029	0.047
-293.676	100.813	-0.143	-0.164
-292.662	-200.000	-0.203	-0.001
-291.647	740.786	-0.100	-0.264
-290.632	-19.745	-0.290	0.177
-289.618	-98.065	-0.080	-0.020
-288.603	-102.530	0.213	0.050
-287.589	-138.262	0.070	0.008
-286.574	502.386	0.052	-0.118
-285.559	-117.636	-0.362	-0.064
-284.545	-0.164	0.076	-0.053
-283.530	-200.000	-0.020	0.368
-282.516	-167.400	0.388	-0.015
-281.501	306.971	-0.026	-0.048
-280.486	129.681	0.096	-0.121
-279.472	-73.020	-0.115	0.042
-278.457	-31.399	0.373	-0.207
-277.443	229.255	0.103	0.166
-276.428	265.286	-0.084	-0.145
-275.413	-200.000	-0.006	-0.262
-274.399	-87.236	-0.125	0.037
-273.384	120.827	-0.077	-0.095
-272.370	-21.654	0.256	-0.154
-271.355	7.847	-0.268	-0.199
-270.340	569.520	-0.041	0.098
-269.326	-159.064	-0.068	0.004
-268.311	800.000	0.029	-0.103
-267.297	14.648	-0.240	0.185
-266.282	-118.131	-0.407	0.072
-265.267	-148.808	-0.303	-0.024
-264.253	-103.145	0.295	0.069
-263.238	88.898	-0.302	0.332
-262.224	301.261	-0.160	0.291
-261.209	-108.890	-0.253	-0.053
-260.195	-133.828	0.305	0.037
-259.180	-20.738	-0.188	0.114
-258.165	-6.040	-0.233	-0.157
-257.151	-144.021	-0.161	-0.015
-256.136	-200.000	0.008	-0.069
-255.122	5.403	0.220	-0.160
-254.107	-200.000	-0.018	0.291
-253.092	-22.801	-0.214	-0.127
-252.078	-200.000	-0.010	-0.088
-251.063	-178.966	0.295	-0.007
-250.049	-116.459	-0.058	0.011
-249.034	-114.823	0.390	0.074
-248.019	-73.642	-0.329	0.118
-247.005	168.363	-0.232	-0.326
-245.990	241.374	-0.193	-0.318
-244.976	800.000	0.029	0.103
-243.961	800.000	-0.029	-0.091
-242.946	-105.429	-0.057	0.013
-241.932	-75.934	0.273	0.095
-240.917	800.000	0.048	-0.161
-239.903	84.275	0.087	0.093
-238.888	40.214	0.187	-0.166
-237.873	-121.883	-0.135	-0.022
-236.859	-139.752	0.035	0.004
-235.844	-3.088	0.034	-0.023
-234.830	544.258	0.089	0.210
-233.815	466.881	-0.099	-0.220
-232.800	291.894	0.108	-0.194
-231.786	-56.159	-0.088	-0.039
-230.771	69.759	-0.134	0.137
-229.757	-101.383	-0.073	0.018
-228.742	292.815	0.058	0.104
-227.727	65.214	0.324	0.323
-226.713	-164.586	0.201	0.009
-225.698	-92.852	0.176	0.049
-224.684	-200.000	-0.023	-0.145
-223.669	-107.627	0.270	-0.058
-222.655	609.719	0.041	-0.102
-221.640	-59.941	-0.107	0.045
-220.625	-200.000	0.074	0.352
-219.611	734.971	-0.063	-0.165
-218.596	-94.332	0.118	-0.032
-217.582	-16.177	0.161	-0.101
-216.567	-109.587	0.337	0.070
-215.552	266.430	0.139	-0.239
-214.538	35.065	-0.136	-0.117
-213.523	218.388	0.066	0.104
-212.509	-49.266	-0.086	-0.040
-211.494	-77.093	-0.145	-0.050
-210.479	515.585	-0.053	0.122
-209.465	-200.000	0.015	-0.212
-208.450	-60.032	0.346	0.145
-207.436	-38.990	0.112	0.058
-206.421	800.000	-0.055	0.223
-205.406	42.082	0.279	0.250
-204.392	-20.596	0.199	0.121
-203.377	191.534	0.107	0.159
-202.363	485.218	0.077	0.173
-201.348	-28.815	-0.352	0.199
-200.333	800.000	-0.151	-0.462
-199.319	166.486	-0.088	-0.123
-198.304	-163.740	-0.110	-0.005
-197.290	-39.333	-0.315	-0.163
-196.275	-91.210	0.270	-0.076
-195.260	-89.179	-0.383	-0.111
-194.246	-129.747	0.277	-0.038
-193.231	-83.645	0.284	0.089
-192.217	-24.887	0.127	0.074
-191.202	-2.705	-0.075	-0.052
-190.187	278.969	-0.044	0.077
-189.173	-163.444	-0.148	-0.007
-188.158	-31.849	0.095	0.052
-187.144	60.936	-0.186	0.182
-186.129	-163.656	-0.171	0.008
-185.114	-8.001	0.137	-0.091
-184.100	91.800	0.222	0.246
-183.085	-80.930	-0.196	0.064
-182.071	84.471	0.187	0.201
-181.056	-117.399	0.168	-0.030
-180.042	67.623	0.148	-0.149
-179.027	37.427	-0.232	0.202
-178.012	-150.523	0.180	-0.014
-176.998	-14.048	0.353	-0.224
-175.983	-200.000	-0.030	-0.143
-174.969	-10.337	-0.208	0.136
-173.954	-91.150	0.325	0.092
-172.939	-19.333	-0.272	-0.166
-171.925	-20.070	0.267	-0.162
-170.910	-6.742	-0.143	-0.096
-169.896	-32.961	0.152	-0.083
-168.881	52.351	0.107	0.100
-167.866	-85.452	0.428	0.131
-166.852	-47.813	-0.164	-0.078
-165.837	183.727	0.044	-0.064
-164.823	363.040	0.100	0.198
-163.808	67.881	-0.232	0.233
-162.793	230.689	0.037	0.059
-161.779	-25.047	-0.095	0.055
-160.764	46.281	-0.118	-0.108
-159.750	800.000	-0.054	-0.196
-158.735	-200.000	-0.007	-0.096
-157.720	43.742	-0.115	-0.103
-156.706	-49.781	0.194	0.091
-155.691	161.357	-0.091	0.126
-154.677	-200.000	0.048	0.213
-153.662	-130.909	0.022	-0.003
-152.647	-108.566	0.220	0.046
-151.633	-200.000	-0.019	-0.105
-150.618	-78.207	0.188	0.064
-149.604	-7.605	0.200	-0.133
-148.589	-12.173	0.188	-0.121
-147.574	-77.853	0.411	-0.140
-146.560	800.000	-0.154	0.438
-145.545	-100.197	-0.318	-0.078
-144.531	-200.000	-0.077	0.499
-143.516	-200.000	-0.003	0.192
-142.502	800.000	-0.033	-0.113
-141.487	-108.085	0.154	-0.033
-140.472	-200.000	0.005	-0.237
-139.458	-200.000	-0.036	0.195
-138.443	800.000	-0.056	-0.232
-137.429	-60.221	-0.059	-0.025
-136.414	-200.000	0.017	-0.220
-135.399	-67.265	0.390	-0.151
-134.385	-68.160	0.132	0.050
-133.370	-82.137	-0.029	-0.009
-132.356	53.911	0.176	-0.166
-131.341	-133.306	-0.217	-0.027
-130.326	419.617	0.084	0.178
-129.312	-136.107	-0.404	0.047
-128.297	419.281	0.114	0.240
-127.283	-98.501	0.215	-0.054
-126.268	-92.034	-0.187	-0.052
-125.253	200.789	-0.087	0.132
-124.239	-200.000	0.009	0.055
-123.224	-156.145	0.310	-0.019
-122.210	800.000	0.048	-0.157
-121.195	264.467	0.029	0.049
-120.180	81.756	-0.119	-0.126
-119.166	-198.624	0.071	0.000
-118.151	-90.138	0.073	0.021
-117.137	13.134	-0.245	0.187
-116.122	-200.000	0.037	0.529
-115.107	138.684	0.075	0.096
-114.093	-147.730	0.155	-0.013
-113.078	-32.889	-0.242	0.132
-112.064	-200.000	-0.016	0.425
-111.049	101.677	-0.183	-0.209
-110.034	-26.518	0.216	0.124
-109.020	-96.965	0.110	0.028
-108.005	-147.584	-0.061	-0.005
-106.991	273.629	0.085	0.148
-105.976	-62.705	-0.176	-0.071
-104.962	108.676	-0.217	-0.254
-103.947	-109.050	0.295	0.062
-102.932	89.014	-0.025	0.028
-101.918	93.951	0.091	0.101
-100.903	0.348	0.086	-0.060
-99.889	263.071	0.046	-0.078
-98.874	-85.047	-0.167	-0.051
-97.859	-19.902	-0.078	0.047
-96.845	233.769	-0.046	0.074
-95.830	39.499	-0.321	0.282
-94.816	113.613	0.204	-0.243
-93.801	-200.000	-0.033	-0.231
-92.786	-39.521	0.014	-0.007
-91.772	-100.516	0.233	0.057
-90.757	800.000	-0.074	0.271
-89.743	-107.739	-0.291	-0.062
-88.728	63.874	0.152	-0.150
-87.713	202.600	0.246	0.372
-86.699	-139.704	0.206	0.021
-85.684	-60.900	0.491	0.204
-84.670	67.666	-0.143	-0.143
-83.655	-200.000	-0.008	-0.252
-82.640	-67.247	-0.099	0.038
-81.626	177.679	0.098	-0.141
-80.611	321.419	-0.081	0.151
-79.597	-121.477	-0.071	0.012
-78.582	-200.000	0.033	-0.342
-77.567	-13.477	-0.173	0.110
-76.553	-200.000	0.007	0.145
-75.538	-86.132	0.132	-0.040
-74.524	-188.220	-0.174	0.002
-73.509	800.000	-0.077	-0.244
-72.494	-99.903	0.351	-0.086
-71.480	150.325	0.143	0.190
-70.465	-115.107	-0.154	0.029
-69.451	43.286	0.109	0.097
-68.436	6.747	-0.121	-0.088
-67.422	174.458	0.102	-0.144
-66.407	-43.897	-0.114	-0.056
-65.392	-200.000	-0.005	0.033
-64.378	-90.584	0.289	-0.082
-63.363	-132.481	0.271	0.034
-62.349	-60.332	0.091	0.038
-61.334	14.832	-0.965	-0.739
-60.319	113.242	0.401	0.476
-59.305	800.000	-0.320	-1.103
-58.290	146.962	0.701	0.924
-57.276	640.916	0.481	1.199
-56.261	-200.000	112.651	631.916
-55.246	520.338	1517.613	3484.118
-54.232	177.114	2696.441	3843.068
-53.217	103.289	2283.663	2622.035
-52.203	37.469	1889.940	1641.074
-51.188	31.611	1678.539	1413.375
-50.173	29.015	1636.121	1358.471
-49.159	49.405	1691.359	1557.892
-48.144	48.942	1705.290	1567.193
-47.130	31.111	1663.172	1396.473
-46.115	28.454	1648.818	1364.622
-45.100	28.198	1643.787	1358.502
-44.086	28.113	1641.328	1355.786
-43.071	28.096	1638.723	1353.457
-42.057	28.186	1636.384	1352.133
-41.042	28.175	1634.014	1350.037
-40.027	28.253	1632.023	1348.918
-39.013	28.153	1630.066	1346.507
-37.998	28.152	1628.623	1345.255
-36.984	28.206	1627.421	1344.604
-35.969	28.276	1625.993	1343.884
-34.954	28.323	1623.923	1342.469
-33.940	28.320	1622.570	1341.273
-32.925	28.272	1620.441	1339.110
-31.911	28.324	1618.946	1338.200
-30.896	28.394	1617.087	1337.123
-29.881	28.361	1615.030	1335.131
-28.867	28.216	1614.038	1333.199
-27.852	28.298	1612.129	1332.167
-26.838	28.232	1611.853	1331.401
-25.823	28.397	1609.550	1330.651
-24.809	28.390	1608.700	1329.843
-23.794	28.387	1607.362	1328.658
-22.779	28.324	1605.686	1326.770
-21.765	28.341	1603.987	1325.430
-20.750	28.353	1602.555	1324.283
-19.736	28.367	1601.756	1323.670
-18.721	28.302	1600.442	1322.065
-17.706	28.312	1598.845	1320.767
-16.692	28.314	1597.534	1319.646
-15.677	28.326	1596.110	1318.498
-14.663	28.374	1594.387	1317.368
-13.648	28.387	1593.034	1316.294
-12.633	28.333	1591.744	1314.791
-11.619	28.264	1590.545	1313.251
-10.604	28.341	1588.332	1311.923
-9.590	28.352	1587.408	1311.186
-8.575	28.340	1586.267	1310.105
-7.560	28.341	1585.127	1309.120
-6.546	28.489	1583.605	1308.864
-5.531	28.297	1583.071	1307.003
-4.517	28.306	1581.793	1305.963
-3.502	28.361	1580.134	1304.934
-2.487	28.386	1578.881	1304.023
-1.473	28.086	1566.952	1292.000
-0.458	25.117	1547.697	1255.320
0.556	22.982	1549.500	1223.418
1.571	20.463	1573.123	1224.231
2.586	20.054	1584.983	1230.448
3.600	17.940	1532.414	1175.004
4.615	11.036	1426.457	1049.295
5.629	4.870	1365.472	966.192
6.644	3.682	1358.310	953.709
7.659	3.686	1356.909	952.663
8.673	3.696	1356.352	952.255
9.688	3.726	1354.327	950.930
10.702	3.699	1351.321	948.569
11.717	6.497	1357.376	969.975
12.731	14.483	1371.147	1029.205
13.746	21.350	1382.418	1080.164
14.761	23.158	1384.840	1093.140
15.775	22.738	1382.642	1088.723
16.790	21.834	1380.860	1081.648
17.804	21.174	1378.816	1075.883
18.819	21.038	1377.663	1074.050
19.834	21.012	1376.693	1073.039
20.848	21.031	1376.119	1072.617
21.863	20.850	1375.390	1070.841
22.877	20.742	1374.052	1069.038
23.892	20.704	1373.244	1068.086
24.907	20.585	1372.344	1066.562
25.921	20.673	1371.103	1066.039
26.936	20.628	1370.660	1065.327
27.950	20.679	1369.232	1064.433
28.965	20.867	1368.402	1064.844
29.980	20.914	1367.965	1064.699
30.994	21.066	1366.779	1064.604
32.009	21.069	1365.759	1063.738
33.023	21.053	1364.678	1062.704
34.038	20.966	1362.967	1060.744
35.053	20.770	1362.308	1058.948
36.067	20.836	1360.874	1058.140
37.082	20.865	1359.840	1057.417
38.096	20.899	1359.174	1057.012
39.111	20.871	1358.922	1056.554
40.126	20.723	1357.583	1054.525
41.140	20.454	1356.561	1052.008
42.155	20.360	1355.548	1050.561
43.169	20.207	1355.748	1049.696
44.184	20.333	1355.184	1049.931
45.199	20.357	1355.014	1049.846
46.213	20.617	1354.828	1051.183
47.228	20.860	1353.872	1051.815
48.242	20.782	1353.095	1050.646
49.257	20.707	1351.411	1048.796
50.271	20.621	1350.057	1047.133
51.286	20.718	1348.511	1046.427
52.301	20.691	1347.440	1045.338
53.315	20.560	1346.245	1043.535
54.330	20.390	1345.468	1041.822
55.344	20.404	1343.898	1040.597
56.359	20.365	1342.950	1039.537
57.374	20.321	1341.827	1038.313
58.388	20.214	1341.374	1037.230
59.403	20.171	1341.131	1036.692
60.417	20.072	1340.410	1035.454
61.432	20.072	1339.224	1034.443
62.447	19.894	1338.452	1032.697
63.461	19.806	1337.261	1031.158
64.476	19.736	1336.332	1029.937
65.490	19.899	1334.688	1029.548
66.505	19.965	1332.894	1028.465
67.520	19.925	1332.317	1027.690
68.534	19.928	1331.393	1026.903
69.549	19.855	1330.449	1025.652
70.563	19.834	1328.981	1024.304
71.578	19.698	1328.072	1022.710
72.593	19.613	1327.014	1021.304
73.607	19.634	1326.515	1020.952
74.622	19.753	1325.772	1020.995
75.636	19.772	1325.277	1020.633
76.651	19.881	1324.261	1020.403
77.666	19.832	1324.421	1020.147
78.680	19.935	1323.847	1020.223
79.695	19.943	1322.729	1019.316
80.709	20.130	1322.597	1020.227
81.724	20.322	1322.250	1020.996
82.739	20.315	1321.075	1019.957
83.753	20.643	1320.405	1021.277
84.768	20.847	1319.895	1021.989
85.782	20.916	1319.042	1021.644
86.797	20.994	1318.066	1021.255
87.812	20.771	1316.574	1018.704
88.826	20.843	1315.197	1017.968
89.841	20.909	1314.238	1017.519
90.855	20.958	1313.537	1017.172
91.870	20.983	1313.079	1016.876
92.884	21.088	1312.198	1016.713
93.899	21.103	1311.460	1016.143
94.914	21.030	1311.063	1015.321
95.928	21.110	1309.848	1014.752
96.943	21.067	1308.845	1013.638
97.957	20.914	1308.490	1012.383
98.972	20.911	1307.440	1011.462
99.987	20.936	1306.359	1010.683
101.001	21.035	1304.956	1010.083
102.016	20.939	1303.622	1008.405
103.030	20.984	1303.683	1008.622
104.045	20.922	1302.311	1007.113
105.060	20.671	1301.318	1004.809
106.074	20.398	1299.284	1001.574
107.089	20.078	1297.690	998.412
108.103	19.935	1296.184	996.344
109.118	19.907	1295.046	995.219
110.133	19.911	1293.819	994.210
111.147	20.093	1292.183	993.907
112.162	20.115	1291.575	993.477
113.176	20.109	1290.697	992.684
114.191	20.143	1289.864	992.148
115.206	20.258	1288.450	991.628
116.220	20.093	1287.406	989.798
117.235	20.178	1285.493	988.720
118.249	19.965	1284.969	987.015
119.264	19.876	1283.907	985.607
120.279	19.859	1282.552	984.386
121.293	19.862	1281.512	983.515
122.308	19.717	1280.455	981.797
123.322	19.522	1279.626	979.963
124.337	19.567	1278.318	979.129
125.352	19.547	1277.213	978.087
126.366	19.483	1276.447	977.050
127.381	19.566	1275.525	976.726
128.395	19.444	1274.216	974.949
129.410	19.612	1273.439	975.219
130.424	19.648	1273.267	975.203
131.439	19.839	1272.403	975.528
132.454	19.932	1271.578	975.336
133.468	19.996	1270.958	975.132
134.483	20.104	1269.832	974.795
135.497	20.056	1269.620	974.275
136.512	20.159	1268.393	973.822
137.527	20.157	1266.579	972.332
138.541	20.206	1265.684	971.834
139.556	20.258	1264.631	971.235
140.570	20.365	1263.882	971.170
141.585	20.545	1263.230	971.586
142.600	20.645	1261.992	971.110
143.614	20.770	1261.466	971.315
144.629	20.890	1260.664	971.282
145.643	20.728	1259.994	969.775
146.658	20.572	1257.640	967.013
147.673	20.433	1256.182	965.033
148.687	20.284	1254.558	962.875
149.702	20.167	1253.688	961.472
150.716	20.155	1252.040	960.053
151.731	20.011	1250.875	958.280
152.746	20.031	1250.128	957.734
153.760	20.228	1249.003	957.878
154.775	20.323	1247.837	957.421
155.789	20.491	1247.069	957.672
156.804	20.395	1246.651	956.741
157.819	20.600	1245.373	956.801
158.833	20.703	1244.993	956.990
159.848	20.923	1244.149	957.467
160.862	20.876	1243.331	956.494
161.877	20.398	1241.400	952.304
162.892	20.068	1240.092	949.409
163.906	19.936	1239.682	948.288
164.921	20.015	1238.370	947.631
165.935	20.066	1237.953	947.509
166.950	20.237	1237.187	947.773
167.964	20.438	1236.227	948.049
168.979	20.273	1235.550	946.547
169.994	20.104	1235.156	945.239
171.008	20.259	1233.789	944.951
172.023	20.409	1233.465	945.440
173.037	20.686	1233.051	946.545
174.052	20.618	1231.931	945.232
175.067	20.302	1230.264	942.153
176.081	20.085	1228.821	939.787
177.096	19.867	1229.280	938.877
178.110	20.147	1227.666	939.076
179.125	20.160	1226.789	938.393
180.140	20.308	1226.009	938.511
181.154	20.557	1224.872	938.903
182.169	20.515	1224.170	938.057
183.183	20.683	1222.860	937.875
184.198	20.693	1221.698	936.954
185.213	20.768	1220.545	936.389
186.227	20.733	1219.933	935.652
187.242	20.777	1218.951	935.052
188.256	20.864	1218.291	934.927
189.271	20.976	1217.230	934.632
190.286	20.745	1215.965	932.339
191.300	20.268	1214.631	928.684
192.315	20.103	1213.754	927.048
193.329	20.107	1213.198	926.563
194.344	20.235	1212.439	926.585
195.359	20.156	1212.103	925.825
196.373	20.334	1211.522	926.246
197.388	20.394	1211.509	926.478
198.402	20.758	1211.179	928.081
199.417	21.003	1210.767	928.991
200.432	21.155	1210.634	929.617
201.446	21.320	1209.503	929.542
202.461	21.266	1209.749	929.360
203.475	21.337	1208.133	928.414
204.490	20.950	1206.514	925.039
205.504	20.662	1205.160	922.390
206.519	20.604	1203.659	920.849
207.534	20.427	1202.812	919.185
208.548	20.516	1202.096	919.027
209.563	20.624	1201.266	918.883
210.577	20.575	1200.603	918.038
211.592	20.753	1199.689	918.194
212.607	20.966	1198.949	918.672
213.621	20.980	1198.197	918.086
214.636	20.812	1197.245	916.391
215.650	20.872	1196.216	915.839
216.665	21.054	1195.675	916.297
217.680	21.261	1195.231	916.962
218.694	21.328	1193.987	916.278
219.709	21.288	1193.090	915.299
220.723	21.178	1192.260	914.006
221.738	21.155	1191.585	913.289
222.753	21.064	1190.827	912.149
223.767	21.118	1189.968	911.692
224.782	21.132	1189.952	911.676
225.796	21.400	1189.366	912.544
226.811	21.252	1188.934	911.358
227.826	21.137	1187.675	909.713
228.840	21.077	1186.439	908.375
229.855	20.959	1185.724	907.134
230.869	20.954	1184.987	906.465
231.884	20.687	1184.495	904.617
232.899	20.693	1183.336	903.682
233.913	20.565	1182.973	902.665
234.928	20.485	1181.847	901.307
235.942	20.552	1180.904	900.859
236.957	20.448	1180.547	899.966
237.972	20.401	1179.621	898.936
238.986	20.533	1178.963	899.039
240.001	20.499	1178.584	898.492
241.015	20.552	1177.505	897.868
242.030	20.702	1176.549	897.831
243.045	20.911	1175.660	898.153
244.059	20.852	1175.519	897.659
245.074	21.031	1174.857	897.997
246.088	21.011	1174.287	897.378
247.103	21.210	1173.496	897.719
248.117	21.245	1173.320	897.684
249.132	21.546	1172.972	898.883
250.147	21.843	1172.176	899.721
251.161	22.049	1171.749	900.370
252.176	21.945	1171.401	899.487
253.190	22.109	1170.577	899.614
254.205	22.214	1170.207	899.789
255.220	22.193	1170.075	899.502
256.234	22.140	1169.482	898.695
257.249	22.063	1168.034	897.109
258.263	22.032	1167.823	896.708
259.278	22.091	1166.448	895.873
260.293	22.063	1166.374	895.595
261.307	22.223	1165.941	895.997
262.322	22.261	1165.485	895.763
263.336	22.232	1164.529	894.803
264.351	22.220	1164.068	894.306
265.366	22.202	1163.488	893.693
266.380	22.390	1162.588	893.873
267.395	22.211	1161.970	892.414
268.409	22.036	1160.655	890.438
269.424	21.905	1160.287	889.413
270.439	21.939	1159.687	889.043
271.453	21.856	1158.516	887.648
272.468	21.724	1157.442	886.078
273.482	21.639	1156.801	885.079
274.497	21.612	1156.225	884.424
275.512	21.546	1155.499	883.458
276.526	21.623	1155.147	883.499
277.541	21.727	1154.111	883.154
278.555	21.821	1153.553	883.120
279.570	22.084	1153.265	884.146
280.585	22.272	1152.735	884.608
281.599	22.293	1151.626	883.787
282.614	21.896	1150.554	880.892
283.628	21.828	1149.070	879.333
284.643	21.815	1148.154	878.489
285.657	21.816	1147.331	877.788
286.672	21.848	1146.314	877.093
287.687	21.882	1145.471	876.540
288.701	21.912	1144.786	876.092
289.716	21.992	1143.795	875.651
290.730	21.940	1143.181	874.844
291.745	21.925	1142.763	874.372
292.760	21.918	1142.488	874.049
293.774	22.043	1141.904	874.148
294.789	22.361	1141.363	875.240
295.803	22.169	1141.143	874.039
296.818	22.025	1139.428	871.932
297.833	21.850	1138.841	870.539
298.847	21.895	1137.756	869.856
299.862	21.828	1137.551	869.288
300.876	21.908	1136.605	868.882
301.891	22.107	1135.881	869.240
302.906	22.210	1135.646	869.491
303.920	22.341	1135.421	869.890
304.935	22.604	1134.436	870.355
305.949	22.657	1134.388	870.506
306.964	22.621	1133.530	869.590
307.979	22.415	1132.529	867.733
308.993	22.290	1131.397	866.173
310.008	22.372	1130.980	866.177
311.022	22.514	1130.356	866.323
312.037	22.618	1129.104	865.801
313.052	22.268	1128.107	863.239
314.066	22.072	1126.771	861.182
315.081	21.836	1125.975	859.337
316.095	21.830	1124.523	858.125
317.110	21.808	1124.279	857.758
318.125	21.686	1123.971	856.847
319.139	21.792	1122.992	856.542
320.154	21.823	1122.660	856.368
321.168	21.806	1121.895	855.627
322.183	21.877	1121.163	855.337
323.197	21.889	1121.068	855.248
324.212	21.895	1120.514	854.780
325.227	21.969	1120.065	854.720
326.241	22.055	1119.258	854.445
327.256	21.924	1118.721	853.322
328.270	21.821	1117.422	851.756
329.285	21.790	1116.641	850.934
330.300	21.914	1115.402	850.520
331.314	21.903	1114.306	849.555
332.329	21.950	1113.533	849.116
333.343	21.950	1112.863	848.530
334.358	22.282	1111.915	849.337
335.373	22.354	1111.758	849.487
336.387	22.470	1111.060	849.439
337.402	22.356	1110.508	848.394
338.416	22.376	1109.949	847.987
339.431	22.561	1109.522	848.477
340.446	22.722	1108.899	848.698
341.460	22.901	1108.212	848.959
342.475	23.006	1107.686	848.988
343.489	22.986	1106.901	848.212
344.504	23.107	1105.791	847.867
345.519	23.178	1105.113	847.613
346.533	23.191	1104.445	847.087
347.548	23.167	1104.132	846.659
348.562	23.111	1103.078	845.508
349.577	22.867	1101.550	843.096
350.592	22.518	1100.977	840.915
351.606	22.290	1099.873	838.912
352.621	22.304	1098.967	838.213
353.635	22.200	1098.525	837.309
354.650	22.192	1097.757	836.612
355.665	22.216	1097.029	836.097
356.679	22.449	1096.621	836.817
357.694	22.430	1096.181	836.317
358.708	22.630	1095.477	836.655
359.723	22.688	1094.868	836.390
360.738	22.668	1094.433	835.892
361.752	22.681	1093.816	835.408
362.767	22.609	1093.367	834.651
363.781	22.652	1092.891	834.417
364.796	22.764	1092.554	834.614
365.810	23.005	1092.054	835.297
366.825	23.191	1091.411	835.608
367.840	23.457	1091.004	836.479
368.854	23.430	1090.516	835.903
369.869	23.347	1089.903	834.969
370.883	23.230	1088.523	833.285
371.898	23.034	1087.676	831.642
372.913	23.092	1087.314	831.564
373.927	23.137	1087.037	831.492
374.942	23.207	1086.813	831.574
375.956	23.190	1086.188	830.945
376.971	23.240	1085.226	830.367
377.986	23.302	1084.831	830.281
379.000	23.488	1084.325	830.694
380.015	23.514	1084.167	830.620
381.029	23.622	1083.168	830.288
382.044	23.638	1082.469	829.752
383.059	23.520	1081.522	828.406
384.073	23.494	1080.857	827.700
385.088	23.549	1079.937	827.180
386.102	23.454	1078.973	825.925
387.117	23.324	1077.462	824.088
388.132	22.927	1076.773	821.645
389.146	22.801	1075.903	820.321
390.161	22.972	1074.996	820.350
391.175	22.931	1074.650	819.824
392.190	23.130	1073.826	820.047
393.205	23.330	1073.559	820.697
394.219	23.314	1072.819	819.981
395.234	23.170	1071.993	818.614
396.248	23.109	1070.328	816.988
397.263	22.981	1069.611	815.779
398.278	22.885	1068.669	814.546
399.292	22.848	1067.796	813.636
400.307	22.783	1067.070	812.710
401.321	22.749	1066.442	812.007
402.336	22.650	1066.202	811.295
403.350	22.556	1065.863	810.534
404.365	22.855	1065.087	811.245
405.380	22.875	1064.652	810.931
406.394	22.951	1063.814	810.571
407.409	23.278	1062.848	811.264
408.423	23.423	1062.688	811.734
409.438	23.581	1061.978	811.842
410.453	23.643	1061.295	811.533
411.467	23.714	1060.937	811.508
412.482	23.695	1060.379	810.923
413.496	23.834	1059.500	810.815
414.511	23.878	1059.528	810.965
415.526	23.999	1059.333	811.298
416.540	24.076	1058.500	810.938
417.555	24.126	1057.732	810.504
418.569	23.835	1057.254	808.742
419.584	23.852	1056.345	808.052
420.599	23.907	1055.904	807.893
421.613	156.301	1403.242	1796.704
422.628	143.578	1453.819	1796.781
