DTS Sentinel unit serial number:	SN413079Multiplexer serial number:	ORYXHardware model number:	OX4-SRSoftware version number:	ORYX F/W v4.00 Oryx Data Collector v3.7.2.0data status	okinstallation	princeton_trtdifferential loss correction	single-endedforward channel	channel 2reverse channel	N/Adate	2019/09/17time	06:23:35forward acquisition time	60.00reverse acquisition time	0.00gamma	496.2192k internal	0.2332k external	0.2332temperature offset calibration	0.9978default loss term (dB/km)	0.3790temperature slope calibration	1.0000multiplexer offset coefficient	1.0000multiplexer slope coefficient	1.0000fibre end	0.00T internal ref (°C)	28.31T ext. ref 1 (°C)	0.13T ext. ref 2 (°C)	21.68length (m)	temperature (°C)	Stokes	anti-Stokes-747.200	-35.221	-0.013	0.007
-746.185	-200.000	-0.050	0.322
-745.171	-63.981	0.224	0.092
-744.156	65.206	-0.272	0.277
-743.142	67.717	0.108	0.111
-742.127	-200.000	-0.061	-0.284
-741.112	81.549	-0.026	0.028
-740.098	-126.682	-0.155	-0.023
-739.083	-10.440	-0.113	0.076
-738.069	-91.761	-0.234	0.067
-737.054	-52.574	-0.150	0.070
-736.039	20.236	-0.177	-0.144
-735.025	430.328	0.082	0.178
-734.010	-135.718	0.326	-0.039
-732.996	-200.000	-0.004	-0.124
-731.981	-200.000	-0.036	0.170
-730.966	-189.897	0.122	0.001
-729.952	-65.129	-0.073	-0.030
-728.937	482.907	0.038	0.087
-727.923	800.000	0.037	-0.103
-726.908	-60.062	0.243	-0.104
-725.894	13.049	-0.417	0.324
-724.879	498.718	-0.210	0.487
-723.864	760.836	-0.021	-0.056
-722.850	476.820	0.020	0.046
-721.835	525.666	-0.055	-0.129
-720.821	-200.000	-0.016	-0.223
-719.806	507.192	-0.169	-0.395
-718.791	127.233	-0.256	-0.326
-717.777	204.918	0.239	-0.373
-716.762	-103.921	0.158	0.037
-715.748	397.366	0.086	0.180
-714.733	-99.193	0.308	-0.078
-713.718	742.507	-0.076	0.206
-712.704	103.489	-0.300	-0.354
-711.689	106.971	-0.165	-0.197
-710.675	-46.182	-0.134	-0.066
-709.660	-200.000	0.038	-0.363
-708.645	-200.000	-0.103	0.000
-707.631	40.625	-0.234	-0.212
-706.616	-200.000	0.010	-0.254
-705.602	66.748	-0.211	-0.216
-704.587	800.000	-0.007	0.027
-703.572	71.123	-0.284	0.296
-702.558	45.940	0.236	-0.219
-701.543	-200.000	-0.086	-0.410
-700.529	181.847	0.099	-0.146
-699.514	-147.279	-0.405	0.035
-698.499	110.488	0.161	0.194
-697.485	-200.000	0.026	-0.198
-696.470	800.000	0.034	0.146
-695.456	-152.710	-0.237	0.017
-694.441	-113.402	0.206	0.041
-693.426	358.369	0.148	0.296
-692.412	-130.152	-0.272	-0.037
-691.397	73.593	0.038	0.040
-690.383	143.321	-0.229	0.305
-689.368	-200.000	-0.041	-0.205
-688.354	-28.437	-0.093	0.054
-687.339	-95.028	0.170	-0.046
-686.324	100.700	0.026	-0.030
-685.310	76.411	-0.093	-0.099
-684.295	114.806	-0.134	0.164
-683.281	-116.711	-0.367	0.068
-682.266	-200.000	0.007	0.085
-681.251	-200.000	-0.070	-0.410
-680.237	-149.546	0.176	0.014
-679.222	-51.512	-0.228	-0.107
-678.208	-200.000	-0.006	0.197
-677.193	-200.000	-0.013	0.068
-676.178	-138.166	0.145	-0.016
-675.164	-146.238	-0.221	0.019
-674.149	3.483	-0.414	-0.303
-673.135	42.341	0.081	-0.074
-672.120	-108.301	0.145	-0.031
-671.105	-124.961	-0.071	0.011
-670.091	247.342	0.145	-0.245
-669.076	-200.000	0.015	-0.209
-668.062	362.532	-0.100	0.201
-667.047	800.000	0.052	-0.194
-666.032	-3.972	0.296	-0.206
-665.018	-200.000	0.016	-0.078
-664.003	149.255	-0.215	0.291
-662.989	-150.460	-0.094	-0.007
-661.974	-200.000	-0.000	-0.223
-660.959	-200.000	0.018	0.226
-659.945	12.659	-0.312	-0.242
-658.930	-131.897	0.360	-0.047
-657.916	-119.202	-0.227	0.040
-656.901	90.829	-0.232	-0.261
-655.886	-114.008	0.142	0.028
-654.872	530.787	0.133	-0.315
-653.857	493.699	-0.047	-0.108
-652.843	636.310	-0.062	-0.157
-651.828	-110.353	-0.161	0.034
-650.814	-200.000	0.014	0.117
-649.799	-88.272	-0.176	-0.053
-648.784	495.994	0.090	0.207
-647.770	306.999	-0.098	0.183
-646.755	800.000	-0.018	0.079
-645.741	439.655	-0.071	-0.155
-644.726	645.813	0.121	0.310
-643.711	-138.114	0.278	-0.031
-642.697	-167.337	-0.218	0.009
-641.682	800.000	-0.067	0.282
-640.668	199.172	0.101	0.155
-639.653	15.806	-0.242	0.191
-638.638	-200.000	0.061	-0.316
-637.624	-78.541	0.142	0.049
-636.609	-58.893	-0.243	-0.105
-635.595	67.701	-0.189	0.194
-634.580	2.215	-0.061	-0.044
-633.565	-200.000	0.043	0.435
-632.551	-200.000	-0.009	-0.299
-631.536	800.000	0.036	-0.146
-630.522	800.000	-0.080	-0.266
-629.507	69.593	-0.048	0.049
-628.492	-126.389	-0.316	-0.047
-627.478	104.228	0.248	-0.292
-626.463	16.186	0.143	0.113
-625.449	-66.805	-0.093	-0.037
-624.434	-200.000	0.011	-0.193
-623.419	0.969	0.315	0.226
-622.405	22.423	-0.227	-0.186
-621.390	153.073	0.276	0.377
-620.376	-48.327	0.105	0.050
-619.361	94.692	0.101	0.115
-618.346	-200.000	-0.006	-0.321
-617.332	-22.196	-0.343	-0.208
-616.317	198.236	0.111	-0.170
-615.303	-200.000	-0.000	0.004
-614.288	5.695	-0.221	0.163
-613.273	3.138	0.024	-0.017
-612.259	-90.520	-0.264	-0.076
-611.244	-126.306	0.160	0.024
-610.230	58.278	0.148	0.145
-609.215	-61.600	0.174	-0.073
-608.201	198.656	0.101	0.155
-607.186	45.179	0.060	-0.055
-606.171	800.000	-0.035	0.100
-605.157	-108.854	-0.177	-0.038
-604.142	331.830	-0.126	-0.244
-603.128	-200.000	0.074	-0.444
-602.113	-200.000	-0.024	-0.371
-601.098	-16.894	-0.158	-0.100
-600.084	347.434	0.220	0.433
-599.069	66.811	-0.172	0.175
-598.055	-81.318	-0.188	0.062
-597.040	87.017	-0.147	-0.163
-596.025	81.835	-0.045	0.049
-595.011	175.195	0.070	-0.102
-593.996	454.442	0.081	-0.179
-592.982	-3.739	-0.550	-0.382
-591.967	800.000	-0.071	-0.200
-590.952	664.104	0.059	0.153
-589.938	-118.585	0.157	-0.028
-588.923	69.213	-0.076	-0.078
-587.909	-17.038	0.199	-0.126
-586.894	800.000	0.106	-0.319
-585.879	-167.487	0.320	0.013
-584.865	-94.106	-0.222	0.061
-583.850	456.948	-0.040	-0.090
-582.836	-64.208	-0.063	-0.026
-581.821	800.000	-0.074	0.210
-580.806	-139.660	0.036	-0.004
-579.792	97.357	0.205	-0.235
-578.777	-11.499	0.115	0.076
-577.763	-200.000	-0.011	-0.092
-576.748	-200.000	0.003	0.413
-575.733	58.580	0.306	0.300
-574.719	55.633	0.113	-0.109
-573.704	8.625	-0.145	-0.109
-572.690	27.984	-0.130	0.109
-571.675	-200.000	0.020	-0.199
-570.661	-88.023	-0.055	0.017
-569.646	-121.713	0.168	0.028
-568.631	129.596	0.018	-0.023
-567.617	-39.610	-0.167	0.087
-566.602	118.174	0.041	0.050
-565.588	344.996	0.111	0.218
-564.573	83.164	0.260	0.283
-563.558	800.000	0.051	-0.164
-562.544	218.896	0.037	0.059
-561.529	-108.955	-0.275	-0.059
-560.515	77.564	0.144	0.153
-559.500	40.718	0.071	-0.064
-558.485	-104.827	-0.191	-0.044
-557.471	-104.445	0.352	-0.081
-556.456	484.273	0.078	-0.177
-555.442	503.619	0.051	-0.119
-554.427	-200.000	0.002	0.025
-553.412	-200.000	0.021	0.107
-552.398	139.486	0.064	0.084
-551.383	-129.933	-0.349	-0.048
-550.369	-130.420	-0.235	0.032
-549.354	350.834	0.157	-0.310
-548.339	-13.615	-0.366	-0.237
-547.325	800.000	-0.051	-0.188
-546.310	-22.986	-0.206	0.124
-545.296	-191.869	-0.178	-0.002
-544.281	-200.000	0.049	-0.549
-543.266	21.346	-0.050	-0.041
-542.252	-200.000	-0.002	-0.306
-541.237	276.272	-0.116	-0.206
-540.223	127.812	0.178	-0.225
-539.208	-200.000	0.052	-0.264
-538.193	79.155	-0.162	-0.173
-537.179	800.000	0.088	0.366
-536.164	18.953	0.280	-0.224
-535.150	471.498	-0.060	0.135
-534.135	78.431	-0.185	0.197
-533.121	-3.706	-0.294	0.204
-532.106	36.227	0.017	0.015
-531.091	124.054	-0.081	0.101
-530.077	-88.385	-0.315	-0.094
-529.062	-55.691	0.210	0.094
-528.048	-35.114	0.158	0.086
-527.033	417.275	-0.108	-0.230
-526.018	10.449	0.171	0.130
-525.004	-200.000	0.355	0.002
-523.989	-128.373	0.229	0.033
-522.975	-200.000	0.018	0.358
-521.960	-118.244	0.119	0.021
-520.945	-111.318	0.273	0.056
-519.931	85.579	-0.124	0.136
-518.916	-48.661	0.393	-0.188
-517.902	-23.947	0.093	0.055
-516.887	800.000	0.039	0.166
-515.872	800.000	-0.040	-0.157
-514.858	-97.373	-0.147	0.038
-513.843	-200.000	-0.035	-0.181
-512.829	-200.000	0.048	0.301
-511.814	-136.135	-0.366	-0.043
-510.799	-117.082	-0.166	-0.030
-509.785	800.000	0.112	-0.363
-508.770	13.445	-0.105	-0.082
-507.756	4.261	0.198	-0.145
-506.741	-74.815	-0.430	0.154
-505.726	10.800	0.140	0.107
-504.712	510.465	-0.117	-0.271
-503.697	800.000	-0.043	0.134
-502.683	-200.000	-0.007	-0.062
-501.668	-131.047	-0.116	0.015
-500.653	166.593	0.173	-0.244
-499.639	-200.000	-0.068	-0.321
-498.624	257.222	0.181	0.310
-497.610	90.619	-0.245	0.273
-496.595	-200.000	0.012	0.166
-495.581	-200.000	0.034	-0.207
-494.566	249.386	0.186	0.314
-493.551	-124.607	0.129	-0.020
-492.537	-65.286	-0.207	0.083
-491.522	318.782	0.082	0.155
-490.508	-42.156	0.171	0.087
-489.493	-176.439	0.193	-0.005
-488.478	296.890	0.121	-0.221
-487.464	14.861	0.141	0.110
-486.449	-96.344	0.122	-0.032
-485.435	-109.982	-0.471	-0.098
-484.420	-200.000	-0.003	0.368
-483.405	150.121	0.238	0.322
-482.391	-118.988	-0.263	0.046
-481.376	15.885	0.102	0.080
-480.362	-17.772	0.361	0.226
-479.347	411.258	-0.135	0.286
-478.332	-88.674	0.133	0.039
-477.318	-147.604	0.528	0.044
-476.303	-200.000	-0.002	-0.098
-475.289	54.014	-0.217	0.208
-474.274	185.456	0.091	-0.135
-473.259	-93.589	-0.289	-0.079
-472.245	362.170	0.100	0.200
-471.230	0.391	0.074	-0.053
-470.216	662.568	0.086	0.222
-469.201	9.648	-0.078	0.059
-468.186	-200.000	0.014	-0.247
-467.172	17.076	0.255	0.201
-466.157	-70.370	-0.089	0.033
-465.143	140.363	0.201	0.264
-464.128	388.753	0.105	-0.216
-463.113	4.527	-0.214	0.156
-462.099	800.000	0.081	0.237
-461.084	233.344	-0.194	0.317
-460.070	-200.000	0.008	-0.379
-459.055	-75.595	0.083	-0.029
-458.040	107.214	0.238	-0.281
-457.026	-200.000	0.018	-0.408
-456.011	49.405	-0.318	-0.297
-454.997	-77.736	-0.301	-0.103
-453.982	-136.491	0.097	0.011
-452.968	110.212	0.125	0.150
-451.953	-94.770	0.190	0.051
-450.938	-121.947	-0.099	0.016
-449.924	800.000	0.076	0.221
-448.909	800.000	0.024	0.091
-447.895	-168.602	-0.367	-0.014
-446.880	317.374	-0.122	-0.230
-445.865	166.312	-0.016	0.023
-444.851	-200.000	-0.007	0.065
-443.836	217.598	0.099	0.157
-442.822	-92.276	0.281	-0.079
-441.807	-200.000	0.017	-0.355
-440.792	800.000	-0.018	0.065
-439.778	-77.448	-0.252	0.087
-438.763	70.902	0.127	0.131
-437.749	-200.000	0.015	0.122
-436.734	-30.320	-0.177	0.100
-435.719	-9.212	0.208	-0.138
-434.705	-142.810	0.248	-0.024
-433.690	-25.513	-0.220	0.129
-432.676	84.933	-0.062	0.067
-431.661	-8.349	0.295	-0.197
-430.646	-126.637	0.138	0.020
-429.632	-200.000	-0.003	-0.309
-428.617	-79.759	0.085	0.028
-427.603	-139.176	0.240	-0.026
-426.588	-93.330	-0.071	-0.020
-425.573	51.476	0.124	0.117
-424.559	-200.000	0.058	0.296
-423.544	800.000	-0.084	0.312
-422.530	-71.628	-0.408	-0.151
-421.515	360.371	-0.061	0.122
-420.500	800.000	-0.045	-0.184
-419.486	375.798	-0.033	-0.067
-418.471	-98.180	0.130	0.033
-417.457	800.000	-0.114	0.313
-416.442	-86.648	-0.124	0.038
-415.428	-200.000	-0.062	-0.319
-414.413	-200.000	-0.011	-0.146
-413.398	-41.016	-0.160	-0.082
-412.384	-200.000	0.029	-0.211
-411.369	-27.201	-0.178	-0.103
-410.355	11.076	0.043	0.033
-409.340	800.000	0.037	-0.142
-408.325	223.457	0.120	-0.192
-407.311	295.035	0.202	-0.368
-406.296	800.000	-0.052	-0.215
-405.282	33.048	-0.172	0.148
-404.267	24.708	0.068	-0.056
-403.252	-92.035	0.209	0.059
-402.238	-106.545	0.350	-0.078
-401.223	-92.888	-0.128	-0.035
-400.209	24.875	0.224	0.184
-399.194	-169.699	0.139	-0.005
-398.179	5.689	-0.220	0.162
-397.165	591.158	-0.137	0.337
-396.150	-129.915	0.420	0.057
-395.136	194.484	0.190	0.285
-394.121	-38.704	0.168	0.088
-393.106	233.702	0.112	0.184
-392.092	-104.295	-0.324	0.075
-391.077	-25.571	0.113	-0.066
-390.063	-200.000	0.016	0.272
-389.048	-200.000	0.016	0.125
-388.033	-100.722	0.145	-0.036
-387.019	-72.625	-0.320	-0.117
-386.004	800.000	0.070	0.247
-384.990	-93.508	0.113	-0.031
-383.975	-155.597	-0.369	-0.024
-382.960	-7.719	0.209	-0.140
-381.946	-111.416	0.374	0.076
-380.931	59.618	-0.230	0.225
-379.917	44.628	0.228	0.208
-378.902	-96.639	-0.115	0.030
-377.888	-16.822	-0.238	0.150
-376.873	18.613	-0.067	0.053
-375.858	68.940	-0.234	-0.239
-374.844	135.979	-0.094	-0.121
-373.829	235.201	-0.176	-0.288
-372.815	-17.952	0.233	0.145
-371.800	-142.961	0.058	0.006
-370.785	-117.594	-0.251	0.045
-369.771	243.763	-0.098	0.163
-368.756	298.233	0.071	-0.129
-367.742	-53.632	0.130	0.059
-366.727	16.232	0.113	0.088
-365.712	121.036	0.235	-0.290
-364.698	-63.707	-0.186	-0.076
-363.683	12.295	-0.195	-0.149
-362.669	-200.000	0.001	0.121
-361.654	214.847	-0.033	0.052
-360.639	68.129	-0.064	0.065
-359.625	-110.217	0.122	0.025
-358.610	-200.000	-0.056	-0.273
-357.596	-38.927	0.199	0.104
-356.581	-63.469	-0.173	0.070
-355.566	21.592	0.176	0.142
-354.552	103.343	-0.064	0.075
-353.537	-200.000	0.032	-0.214
-352.523	-92.095	-0.125	0.035
-351.508	476.033	0.008	0.018
-350.493	-200.000	0.019	0.281
-349.479	-108.807	-0.079	0.017
-348.464	-60.630	-0.155	0.065
-347.450	2.179	0.265	0.190
-346.435	-200.000	-0.028	-0.509
-345.420	72.025	-0.152	-0.157
-344.406	800.000	0.072	-0.255
-343.391	80.741	0.074	-0.079
-342.377	783.729	-0.100	-0.271
-341.362	-8.975	0.095	0.063
-340.348	-154.531	0.239	-0.016
-339.333	22.547	-0.222	0.180
-338.318	13.508	0.084	-0.065
-337.304	-65.952	0.118	-0.047
-336.289	-91.841	0.203	-0.057
-335.275	779.476	-0.088	-0.239
-334.260	-121.747	0.063	-0.010
-333.245	90.189	0.046	0.051
-332.231	800.000	0.066	0.250
-331.216	198.060	0.262	-0.396
-330.202	482.475	0.066	0.149
-329.187	-1.537	-0.149	0.104
-328.172	-27.486	-0.129	0.074
-327.158	36.094	0.130	-0.113
-326.143	372.888	0.015	0.029
-325.129	158.165	-0.279	0.383
-324.114	-200.000	0.003	-0.266
-323.099	1.850	-0.127	-0.091
-322.085	614.361	-0.127	0.316
-321.070	326.409	-0.160	0.302
-320.056	349.842	0.172	-0.337
-319.041	255.388	0.041	0.069
-318.026	-200.000	-0.004	0.059
-317.012	-200.000	0.064	-0.641
-315.997	-14.980	0.211	0.134
-314.983	97.121	0.054	0.062
-313.968	-14.882	-0.051	0.032
-312.953	-68.930	0.327	0.125
-311.939	-200.000	-0.005	0.170
-310.924	45.574	-0.155	-0.142
-309.910	259.289	-0.042	0.072
-308.895	-27.979	0.124	-0.071
-307.880	182.320	-0.108	0.157
-306.866	244.099	-0.107	-0.177
-305.851	800.000	-0.046	0.196
-304.837	-135.117	0.222	0.026
-303.822	-200.000	-0.065	0.295
-302.807	-200.000	-0.005	-0.115
-301.793	-78.169	-0.372	-0.127
-300.778	-54.875	0.128	0.057
-299.764	108.160	0.273	0.322
-298.749	-179.883	0.277	-0.006
-297.735	-18.711	-0.251	0.154
-296.720	-200.000	-0.036	0.350
-295.705	438.962	0.068	-0.147
-294.691	30.664	-0.186	-0.157
-293.676	-51.835	0.079	-0.036
-292.662	102.243	-0.129	0.148
-291.647	-145.519	-0.173	0.015
-290.632	-10.664	-0.020	0.013
-289.618	57.592	0.272	-0.262
-288.603	-200.000	-0.036	0.207
-287.589	-200.000	-0.006	0.181
-286.574	141.223	-0.310	-0.405
-285.559	5.363	0.221	-0.161
-284.545	-129.284	0.069	0.010
-283.530	-200.000	0.019	0.152
-282.516	800.000	0.057	-0.240
-281.501	-60.966	0.635	-0.265
-280.486	9.979	-0.154	-0.116
-279.472	-200.000	0.037	-0.241
-278.457	-18.261	0.161	-0.099
-277.443	-24.254	-0.092	0.054
-276.428	61.688	-0.075	-0.074
-275.413	800.000	-0.026	-0.089
-274.399	215.642	-0.109	-0.170
-273.384	99.170	-0.082	0.094
-272.370	65.725	-0.325	-0.325
-271.355	-79.388	0.044	0.015
-270.340	800.000	-0.098	0.376
-269.326	199.211	0.057	0.087
-268.311	-81.623	0.285	-0.092
-267.297	82.850	-0.260	-0.279
-266.282	62.412	-0.083	0.082
-265.267	-24.191	-0.040	-0.024
-264.253	-143.576	-0.318	-0.030
-263.238	23.547	0.135	-0.110
-262.224	260.558	-0.161	-0.275
-261.209	532.093	-0.033	-0.076
-260.195	800.000	-0.074	-0.301
-259.180	-88.873	0.287	0.084
-258.165	-200.000	0.039	0.465
-257.151	-112.771	-0.136	-0.027
-256.136	128.045	-0.074	-0.093
-255.122	-98.512	-0.224	-0.056
-254.107	-34.924	-0.146	-0.079
-253.092	-52.324	-0.234	0.107
-252.078	-171.161	0.237	0.008
-251.063	-200.000	0.013	0.441
-250.049	-35.641	0.253	0.135
-249.034	-113.869	0.244	-0.047
-248.019	-103.465	0.196	0.046
-247.005	-200.000	-0.023	0.213
-245.990	719.789	-0.045	-0.118
-244.976	-63.701	-0.230	0.093
-243.961	207.439	0.060	-0.092
-242.946	800.000	0.021	-0.081
-241.932	-57.829	-0.332	-0.143
-240.917	-80.841	0.333	-0.109
-239.903	-51.987	-0.123	-0.056
-238.888	264.604	0.116	0.199
-237.873	800.000	-0.057	-0.211
-236.859	-106.414	0.165	-0.036
-235.844	478.133	-0.050	0.111
-234.830	574.537	0.113	0.272
-233.815	-29.277	-0.080	-0.045
-232.800	160.604	-0.242	0.334
-231.786	-200.000	0.008	0.039
-230.771	-24.955	-0.364	0.213
-229.757	-14.632	0.129	0.081
-228.742	-39.056	-0.137	0.071
-227.727	-84.869	0.273	0.085
-226.713	-103.452	-0.287	-0.067
-225.698	25.884	-0.296	-0.243
-224.684	1.113	0.072	-0.051
-223.669	800.000	0.016	-0.046
-222.655	-118.189	-0.230	0.040
-221.640	599.498	0.100	-0.245
-220.625	-32.551	0.202	0.111
-219.611	-65.295	0.079	-0.031
-218.596	-110.195	0.213	-0.044
-217.582	122.398	0.242	0.298
-216.567	630.296	-0.111	0.276
-215.552	-162.018	-0.312	0.015
-214.538	-200.000	0.050	-0.372
-213.523	-200.000	0.031	-0.207
-212.509	-200.000	0.018	-0.234
-211.494	98.171	-0.170	-0.193
-210.479	-48.269	0.175	-0.083
-209.465	-103.434	0.114	-0.026
-208.450	161.176	-0.161	-0.221
-207.436	47.684	-0.086	0.079
-206.421	194.188	-0.187	0.279
-205.406	-200.000	-0.041	0.272
-204.392	723.903	-0.143	0.375
-203.377	694.835	-0.071	-0.184
-202.363	-121.610	-0.134	0.022
-201.348	-26.390	0.061	0.035
-200.333	800.000	-0.034	0.112
-199.319	-200.000	-0.029	-0.145
-198.304	46.996	-0.120	-0.110
-197.290	800.000	0.062	0.184
-196.275	-30.460	-0.378	0.211
-195.260	800.000	-0.013	0.053
-194.246	-200.000	-0.028	-0.519
-193.231	-86.894	-0.124	0.037
-192.217	-200.000	0.022	0.193
-191.202	800.000	-0.045	-0.147
-190.187	-9.581	0.363	-0.238
-189.173	-117.535	0.157	-0.028
-188.158	43.471	-0.125	-0.112
-187.144	627.280	-0.005	0.011
-186.129	-79.459	0.199	0.066
-185.114	-19.774	-0.037	0.022
-184.100	-153.697	-0.353	0.024
-183.085	319.879	0.016	0.030
-182.071	-19.556	-0.214	-0.130
-181.056	-200.000	0.035	0.182
-180.042	-117.327	0.216	0.039
-179.027	-200.000	0.012	0.349
-178.012	-200.000	-0.003	-0.137
-176.998	-56.208	0.265	0.116
-175.983	-200.000	0.026	-0.221
-174.969	12.066	0.243	0.184
-173.954	-200.000	0.008	0.106
-172.939	-197.997	-0.118	-0.001
-171.925	-6.670	-0.340	-0.228
-170.910	508.864	0.279	0.637
-169.896	68.676	0.067	0.067
-168.881	-17.811	-0.052	0.032
-167.866	59.573	-0.048	0.046
-166.852	-88.445	-0.511	-0.150
-165.837	226.795	0.118	-0.188
-164.823	-200.000	-0.055	0.359
-163.808	-15.958	0.416	-0.260
-162.793	-81.203	0.127	0.041
-161.779	-66.395	-0.093	0.036
-160.764	194.858	0.057	0.086
-159.750	29.313	0.166	-0.139
-158.735	248.461	0.102	-0.170
-157.720	155.241	-0.061	0.083
-156.706	22.467	0.064	-0.051
-155.691	-31.297	-0.103	0.057
-154.677	-87.299	-0.362	-0.108
-153.662	59.084	-0.098	0.095
-152.647	-80.556	0.247	-0.081
-151.633	136.899	-0.161	0.207
-150.618	800.000	0.101	0.394
-149.604	65.772	-0.025	0.025
-148.589	-54.563	-0.238	-0.106
-147.574	-32.341	0.344	-0.189
-146.560	500.663	0.049	-0.112
-145.545	-200.000	-0.022	0.107
-144.531	-200.000	0.019	-0.117
-143.516	-200.000	0.019	-0.179
-142.502	164.780	0.217	0.301
-141.487	-27.560	-0.243	-0.139
-140.472	-123.844	-0.373	-0.058
-139.458	-152.516	0.379	-0.027
-138.443	51.918	0.024	0.023
-137.429	651.918	0.132	0.331
-136.414	448.404	0.096	0.209
-135.399	46.635	-0.140	-0.128
-134.385	389.722	-0.033	0.068
-133.370	345.362	0.057	0.109
-132.356	557.361	0.097	-0.229
-131.341	63.433	0.099	0.097
-130.326	-15.876	-0.192	-0.120
-129.312	41.724	-0.118	-0.105
-128.297	385.675	0.139	0.282
-127.283	-121.034	0.294	-0.048
-126.268	-200.000	0.078	0.469
-125.253	53.329	0.067	0.064
-124.239	12.915	0.360	0.273
-123.224	-91.831	0.285	0.080
-122.210	-68.813	-0.156	0.059
-121.195	-129.741	-0.188	0.025
-120.180	-200.000	-0.040	-0.192
-119.166	129.674	-0.091	0.115
-118.151	134.259	0.137	0.174
-117.137	-89.932	-0.422	0.121
-116.122	2.612	0.109	-0.077
-115.107	-22.829	0.101	0.060
-114.093	557.507	0.047	-0.112
-113.078	694.634	0.021	-0.053
-112.064	-61.091	0.255	-0.106
-111.049	15.099	-0.067	-0.051
-110.034	25.474	-0.203	0.166
-109.020	26.852	0.108	0.089
-108.005	-98.770	-0.330	0.083
-106.991	103.082	-0.177	0.204
-105.976	-101.172	0.266	-0.064
-104.962	-200.000	0.097	-0.000
-103.947	93.606	0.122	0.136
-102.932	-200.000	0.016	-0.496
-101.918	-54.725	-0.142	-0.063
-100.903	671.555	0.111	-0.282
-99.889	-76.527	-0.153	-0.053
-98.874	-70.991	0.181	-0.067
-97.859	69.152	0.164	0.166
-96.845	-45.169	-0.091	0.045
-95.830	800.000	-0.041	0.139
-94.816	-36.714	0.123	0.065
-93.801	252.332	0.131	0.218
-92.786	-90.252	0.128	-0.036
-91.772	247.310	-0.069	-0.115
-90.757	800.000	-0.029	0.099
-89.743	-116.786	-0.118	0.021
-88.728	-200.000	-0.047	0.420
-87.713	58.816	0.218	0.210
-86.699	67.706	0.127	-0.127
-85.684	250.429	0.147	0.244
-84.670	-112.373	-0.274	-0.054
-83.655	330.832	-0.031	0.058
-82.640	-200.000	0.007	0.247
-81.626	-57.513	0.309	0.133
-80.611	-196.841	-0.224	-0.001
-79.597	74.881	0.197	-0.203
-78.582	-200.000	-0.026	-0.468
-77.567	-200.000	0.017	-0.129
-76.553	-200.000	0.016	-0.206
-75.538	-200.000	0.022	0.169
-74.524	201.491	0.050	0.075
-73.509	41.067	-0.263	0.233
-72.494	-18.826	-0.150	0.091
-71.480	18.924	0.099	-0.078
-70.465	40.296	0.061	0.054
-69.451	-130.114	-0.196	-0.026
-68.436	-200.000	0.011	-0.051
-67.422	24.013	-0.211	-0.170
-66.407	-93.938	-0.490	0.132
-65.392	-200.000	-0.034	-0.286
-64.378	-83.092	0.085	-0.027
-63.363	-200.000	-0.013	0.136
-62.349	0.260	0.226	0.158
-61.334	78.735	-1.221	-1.279
-60.319	-14.741	0.589	0.370
-59.305	-200.000	-0.051	-1.224
-58.290	39.876	0.956	0.840
-57.276	559.606	0.706	1.669
-56.261	-200.000	111.787	643.293
-55.246	476.512	1501.427	3323.440
-54.232	146.739	2676.035	3521.960
-53.217	99.963	2286.817	2595.157
-52.203	37.628	1897.391	1648.996
-51.188	31.635	1686.268	1420.161
-50.173	28.972	1644.240	1364.979
-49.159	51.176	1698.133	1577.432
-48.144	50.304	1711.975	1583.678
-47.130	31.242	1671.302	1404.380
-46.115	28.388	1656.537	1370.602
-45.100	28.226	1651.096	1364.844
-44.086	28.188	1649.104	1362.861
-43.071	28.105	1646.886	1360.355
-42.057	28.130	1644.064	1358.153
-41.042	28.286	1641.706	1357.306
-40.027	28.149	1640.411	1355.169
-39.013	28.137	1638.313	1353.291
-37.998	28.114	1636.911	1351.913
-36.984	28.129	1635.366	1350.694
-35.969	28.243	1633.957	1350.320
-34.954	28.292	1632.523	1349.439
-33.940	28.357	1630.383	1348.095
-32.925	28.203	1629.262	1345.978
-31.911	28.319	1626.974	1344.893
-30.896	28.292	1625.180	1343.155
-29.881	28.221	1623.781	1341.423
-28.867	28.360	1621.502	1340.509
-27.852	28.228	1620.506	1338.663
-26.838	28.296	1619.260	1338.077
-25.823	28.365	1617.645	1337.198
-24.809	28.318	1616.788	1336.094
-23.794	28.297	1615.572	1334.877
-22.779	28.342	1613.821	1333.708
-21.765	28.344	1612.285	1332.404
-20.750	28.340	1610.402	1330.763
-19.736	28.333	1609.676	1330.056
-18.721	28.302	1608.451	1328.768
-17.706	28.410	1606.328	1327.742
-16.692	28.387	1604.759	1326.231
-15.677	28.417	1603.603	1325.440
-14.663	28.384	1602.490	1324.224
-13.648	28.360	1600.554	1322.400
-12.633	28.366	1599.331	1321.380
-11.619	28.423	1597.647	1320.351
-10.604	28.353	1596.536	1318.874
-9.590	28.320	1595.242	1317.513
-8.575	28.442	1593.864	1317.199
-7.560	28.374	1592.874	1315.842
-6.546	28.387	1592.023	1315.179
-5.531	28.409	1590.611	1314.119
-4.517	28.300	1589.673	1312.515
-3.502	28.276	1588.715	1311.498
-2.487	28.384	1586.170	1310.116
-1.473	28.035	1574.546	1297.985
-0.458	24.766	1554.764	1258.664
0.556	19.185	1555.290	1224.241
1.571	16.671	1577.399	1223.387
2.586	16.142	1590.114	1229.282
3.600	14.931	1537.169	1179.714
4.615	8.383	1430.152	1054.385
5.629	1.704	1367.267	965.671
6.644	0.226	1360.429	951.429
7.659	0.086	1358.929	949.413
8.673	0.072	1357.991	948.582
9.688	0.136	1355.395	947.087
10.702	-0.053	1352.734	943.960
11.717	3.295	1357.588	968.339
12.731	11.105	1369.245	1025.934
13.746	16.535	1377.438	1066.309
14.761	17.158	1377.182	1069.945
15.775	16.333	1374.604	1062.656
16.790	15.375	1371.898	1054.451
17.804	14.578	1369.400	1047.437
18.819	14.083	1368.406	1043.481
19.834	13.883	1366.928	1041.005
20.848	13.655	1365.521	1038.417
21.863	13.378	1364.886	1036.107
22.877	13.255	1363.167	1033.938
23.892	13.185	1362.448	1032.867
24.907	13.121	1361.693	1031.801
25.921	13.269	1360.100	1031.429
26.936	13.243	1359.975	1031.075
27.950	13.224	1359.330	1030.379
28.965	13.281	1358.131	1029.736
29.980	13.397	1356.757	1029.323
30.994	13.470	1356.059	1029.159
32.009	13.561	1355.080	1028.886
33.023	13.528	1353.793	1027.614
34.038	13.442	1353.115	1026.476
35.053	13.488	1351.410	1025.374
36.067	13.333	1350.876	1023.922
37.082	13.350	1349.425	1022.833
38.096	13.431	1348.790	1022.762
39.111	13.404	1348.258	1022.105
40.126	13.268	1347.578	1020.655
41.140	13.269	1346.510	1019.767
42.155	13.241	1345.746	1018.925
43.169	13.280	1345.944	1019.227
44.184	13.242	1345.181	1018.319
45.199	13.252	1344.880	1018.065
46.213	13.332	1344.126	1017.895
47.228	13.264	1343.635	1017.017
48.242	13.308	1342.086	1016.027
49.257	13.357	1340.909	1015.345
50.271	13.382	1339.281	1014.175
51.286	13.317	1338.090	1012.785
52.301	13.319	1337.024	1011.900
53.315	13.237	1336.099	1010.608
54.330	13.306	1334.839	1009.989
55.344	13.268	1333.861	1008.927
56.359	13.244	1332.824	1007.908
57.374	13.269	1332.193	1007.496
58.388	13.174	1331.267	1006.123
59.403	13.170	1330.866	1005.711
60.417	13.063	1330.316	1004.553
61.432	13.134	1329.048	1003.937
62.447	13.075	1328.315	1002.936
63.461	13.165	1326.763	1002.222
64.476	13.151	1325.453	1001.060
65.490	13.036	1324.489	999.549
66.505	13.058	1323.385	998.760
67.520	13.176	1321.738	998.142
68.534	13.240	1320.398	997.426
69.549	13.195	1319.463	996.361
70.563	13.151	1318.664	995.402
71.578	13.115	1317.641	994.330
72.593	13.097	1316.482	993.256
73.607	13.110	1315.670	992.635
74.622	12.971	1315.341	991.465
75.636	13.178	1314.347	991.866
76.651	13.123	1313.065	990.482
77.666	13.124	1312.925	990.296
78.680	13.051	1312.868	989.728
79.695	13.042	1311.685	988.697
80.709	13.110	1311.012	988.506
81.724	13.117	1310.246	987.886
82.739	13.152	1309.156	987.185
83.753	13.268	1307.858	986.807
84.768	13.334	1306.867	986.369
85.782	13.391	1305.861	985.864
86.797	13.350	1304.711	984.661
87.812	13.262	1303.643	983.245
88.826	13.258	1302.577	982.330
89.841	13.300	1301.487	981.671
90.855	13.320	1300.656	981.079
91.870	13.421	1299.820	980.956
92.884	13.425	1298.488	979.888
93.899	13.342	1298.105	979.020
94.914	13.374	1297.396	978.592
95.928	13.394	1296.601	978.022
96.943	13.373	1295.595	977.052
97.957	13.353	1294.570	976.077
98.972	13.413	1293.597	975.609
99.987	13.466	1292.581	975.068
101.001	13.427	1291.628	974.035
102.016	13.340	1290.680	972.719
103.030	13.386	1289.724	972.187
104.045	13.382	1289.253	971.719
105.060	13.438	1287.807	970.871
106.074	13.283	1286.884	969.184
107.089	13.132	1285.513	967.180
108.103	13.222	1284.104	966.559
109.118	13.191	1283.054	965.504
110.133	13.144	1281.919	964.291
111.147	13.256	1280.424	963.735
112.162	13.229	1278.992	962.413
113.176	13.327	1277.929	962.099
114.191	13.280	1277.490	961.411
115.206	13.338	1276.109	960.621
116.220	13.165	1275.341	958.956
117.235	13.230	1273.938	958.191
118.249	13.284	1272.713	957.499
119.264	13.295	1271.762	956.761
120.279	13.265	1270.531	955.576
121.293	13.255	1269.955	955.003
122.308	13.285	1268.898	954.294
123.322	13.176	1267.961	952.876
124.337	13.271	1266.800	952.470
125.352	13.270	1266.015	951.788
126.366	13.194	1264.981	950.491
127.381	13.132	1263.960	949.284
128.395	13.098	1263.034	948.310
129.410	13.247	1261.622	948.017
130.424	13.249	1260.743	947.285
131.439	13.273	1259.677	946.541
132.454	13.370	1258.781	946.338
133.468	13.313	1258.171	945.467
134.483	13.275	1257.312	944.524
135.497	13.284	1256.249	943.692
136.512	13.317	1255.026	942.878
137.527	13.303	1253.604	941.644
138.541	13.315	1252.348	940.686
139.556	13.320	1250.713	939.401
140.570	13.418	1249.773	939.171
141.585	13.421	1248.278	937.983
142.600	13.376	1247.793	937.279
143.614	13.529	1246.556	937.131
144.629	13.544	1245.660	936.461
145.643	13.538	1244.369	935.375
146.658	13.399	1243.201	933.629
147.673	13.457	1241.711	932.753
148.687	13.302	1241.261	931.460
149.702	13.361	1239.463	930.360
150.716	13.398	1238.167	929.515
151.731	13.425	1237.075	928.764
152.746	13.433	1235.656	927.659
153.760	13.490	1234.496	927.025
154.775	13.569	1233.304	926.489
155.789	13.675	1232.276	926.230
156.804	13.546	1231.175	924.601
157.819	13.588	1230.467	924.221
158.833	13.609	1229.642	923.638
159.848	13.741	1228.220	923.219
160.862	13.625	1227.642	922.060
161.877	13.544	1226.615	920.754
162.892	13.522	1225.402	919.642
163.906	13.510	1224.460	918.788
164.921	13.599	1223.569	918.531
165.935	13.557	1223.044	917.821
166.950	13.494	1222.769	917.188
167.964	13.455	1221.941	916.269
168.979	13.657	1220.806	916.451
169.994	13.682	1219.986	915.896
171.008	13.566	1219.350	914.697
172.023	13.704	1218.341	914.619
173.037	13.695	1217.671	913.986
174.052	13.736	1216.476	913.234
175.067	13.732	1215.281	912.232
176.081	13.609	1214.800	911.117
177.096	13.655	1213.805	910.541
178.110	13.778	1212.197	909.928
179.125	13.641	1211.545	908.606
180.140	13.655	1210.381	907.732
181.154	13.714	1209.056	906.981
182.169	13.845	1207.119	906.162
183.183	13.769	1206.926	905.522
184.198	13.824	1205.795	904.893
185.213	13.922	1204.417	904.313
186.227	13.864	1203.235	903.030
187.242	13.841	1202.599	902.346
188.256	14.010	1201.221	902.153
189.271	13.958	1200.512	901.259
190.286	13.888	1199.319	899.901
191.300	13.767	1198.475	898.536
192.315	13.712	1198.076	897.860
193.329	13.691	1197.338	897.111
194.344	13.764	1196.754	896.992
195.359	13.834	1196.193	896.868
196.373	13.935	1195.388	896.731
197.388	14.007	1195.319	896.987
198.402	14.013	1194.719	896.489
199.417	14.087	1193.814	896.130
200.432	14.147	1192.741	895.567
201.446	14.141	1192.157	895.020
202.461	14.101	1191.187	893.997
203.475	14.151	1189.876	893.204
204.490	14.197	1189.013	892.724
205.504	14.148	1187.594	891.314
206.519	14.069	1186.987	890.360
207.534	14.089	1185.404	889.198
208.548	14.002	1185.040	888.383
209.563	14.190	1183.983	888.513
210.577	14.224	1182.954	887.843
211.592	14.157	1182.082	886.754
212.607	14.162	1181.382	886.179
213.621	14.202	1180.381	885.563
214.636	14.297	1179.310	885.186
215.650	14.287	1178.407	884.374
216.665	14.263	1177.774	883.696
217.680	14.367	1176.560	883.258
218.694	14.390	1175.974	882.862
219.709	14.339	1175.247	881.967
220.723	14.389	1174.404	881.520
221.738	14.270	1173.566	880.188
222.753	14.418	1172.723	880.259
223.767	14.374	1172.294	879.623
224.782	14.333	1171.626	878.827
225.796	14.418	1171.268	878.933
226.811	14.481	1170.038	878.263
227.826	14.503	1169.407	877.827
228.840	14.482	1168.361	876.852
229.855	14.375	1168.188	876.081
230.869	14.412	1167.327	875.556
231.884	14.313	1166.869	874.612
232.899	14.530	1165.546	874.680
233.913	14.399	1165.242	873.693
234.928	14.398	1164.222	872.844
235.942	14.280	1163.754	871.796
236.957	14.313	1163.063	871.377
237.972	14.529	1161.836	871.510
238.986	14.465	1161.466	870.820
240.001	14.442	1160.864	870.172
241.015	14.461	1159.249	868.979
242.030	14.543	1159.134	869.247
243.045	14.629	1158.268	868.967
244.059	14.647	1157.271	868.236
245.074	14.644	1156.566	867.612
246.088	14.676	1155.487	866.893
247.103	14.702	1154.836	866.464
248.117	14.605	1154.339	865.513
249.132	14.720	1153.509	865.407
250.147	14.806	1152.839	865.274
251.161	14.859	1152.104	864.921
252.176	14.881	1151.735	864.679
253.190	14.907	1151.166	864.311
254.205	14.915	1150.106	863.483
255.220	14.932	1149.591	863.103
256.234	14.841	1149.206	862.269
257.249	14.987	1148.457	862.384
258.263	14.936	1147.516	861.338
259.278	14.990	1147.177	861.287
260.293	14.906	1146.899	860.567
261.307	15.067	1146.136	860.750
262.322	15.078	1145.530	860.275
263.336	15.063	1144.820	859.588
264.351	15.130	1144.331	859.487
265.366	15.108	1143.275	858.505
266.380	15.091	1143.058	858.182
267.395	15.125	1141.437	857.060
268.409	15.114	1141.406	856.905
269.424	15.134	1140.489	856.243
270.439	15.188	1140.030	856.102
271.453	15.189	1139.040	855.287
272.468	15.216	1138.088	854.633
273.482	15.003	1137.706	853.184
274.497	15.165	1137.062	853.449
275.512	15.111	1136.650	852.791
276.526	15.310	1135.303	852.717
277.541	15.111	1134.815	851.265
278.555	15.165	1134.169	850.978
279.570	15.290	1133.513	851.044
280.585	15.327	1132.394	850.316
281.599	15.322	1131.288	849.387
282.614	15.274	1130.588	848.542
283.628	15.336	1129.743	848.148
284.643	15.344	1128.746	847.365
285.657	15.426	1127.769	846.967
286.672	15.397	1127.152	846.285
287.687	15.375	1126.322	845.476
288.701	15.265	1125.583	844.293
289.716	15.416	1124.488	844.155
290.730	15.505	1123.645	843.896
291.745	15.360	1123.348	842.869
292.760	15.413	1122.702	842.575
293.774	15.438	1122.091	842.168
294.789	15.449	1121.821	841.945
295.803	15.496	1120.897	841.414
296.818	15.577	1120.202	841.221
297.833	15.513	1119.344	840.183
298.847	15.494	1118.624	839.477
299.862	15.570	1117.794	839.159
300.876	15.665	1117.004	838.965
301.891	15.680	1116.272	838.416
302.906	15.601	1115.810	837.601
303.920	15.652	1115.235	837.347
304.935	15.687	1114.543	836.929
305.949	15.808	1113.883	836.964
306.964	15.761	1113.423	836.309
307.979	15.697	1112.663	835.345
308.993	15.772	1111.781	834.980
310.008	15.786	1111.051	834.429
311.022	15.705	1110.511	833.546
312.037	15.845	1109.272	833.238
313.052	15.732	1108.414	831.958
314.066	15.680	1107.557	830.988
315.081	15.617	1106.857	830.077
316.095	15.696	1105.987	829.741
317.110	15.684	1105.573	829.295
318.125	15.776	1104.496	828.867
319.139	15.807	1103.868	828.478
320.154	15.762	1103.282	827.743
321.168	15.712	1102.978	827.196
322.183	15.671	1102.403	826.488
323.197	15.707	1101.853	826.181
324.212	15.788	1100.862	825.761
325.227	15.892	1100.337	825.806
326.241	15.769	1099.701	824.653
327.256	15.893	1098.684	824.424
328.270	15.883	1098.021	823.806
329.285	15.772	1097.232	822.597
330.300	15.966	1096.172	822.677
331.314	15.959	1095.097	821.765
332.329	15.988	1094.246	821.193
333.343	15.931	1093.336	820.159
334.358	15.856	1092.680	819.233
335.373	16.025	1091.990	819.460
336.387	15.960	1091.354	818.595
337.402	15.926	1090.789	817.937
338.416	16.032	1089.849	817.670
339.431	16.072	1089.352	817.419
340.446	16.124	1088.888	817.252
341.460	16.278	1088.101	817.333
342.475	16.372	1086.985	816.877
343.489	16.318	1085.938	815.761
344.504	16.313	1085.058	815.004
345.519	16.268	1084.456	814.262
346.533	16.267	1083.871	813.745
347.548	16.410	1083.093	813.775
348.562	16.355	1082.292	812.837
349.577	16.283	1081.506	811.832
350.592	16.249	1080.788	811.054
351.606	16.232	1080.318	810.551
352.621	16.208	1079.353	809.639
353.635	16.275	1078.660	809.370
354.650	16.258	1077.980	808.704
355.665	16.318	1077.368	808.462
356.679	16.335	1076.957	808.162
357.694	16.398	1076.416	807.989
358.708	16.425	1075.627	807.453
359.723	16.418	1074.812	806.734
360.738	16.501	1074.219	806.613
361.752	16.268	1073.932	805.218
362.767	16.385	1073.305	805.232
363.781	16.496	1072.729	805.259
364.796	16.560	1072.077	805.005
365.810	16.529	1071.887	804.643
366.825	16.571	1070.797	803.950
367.840	16.526	1070.464	803.419
368.854	16.745	1069.357	803.556
369.869	16.707	1069.045	803.067
370.883	16.701	1067.992	802.176
371.898	16.547	1067.590	801.074
372.913	16.734	1066.791	801.291
373.927	16.705	1066.313	800.720
374.942	16.616	1065.798	799.843
375.956	16.816	1065.068	800.172
376.971	16.835	1064.525	799.781
377.986	16.731	1064.349	799.088
379.000	16.757	1063.696	798.648
380.015	16.792	1062.974	798.199
381.029	16.877	1062.528	798.195
382.044	16.883	1061.722	797.551
383.059	16.838	1060.933	796.675
384.073	16.932	1059.914	796.277
385.088	16.891	1059.147	795.440
386.102	16.998	1058.173	795.139
387.117	16.986	1056.910	794.066
388.132	16.910	1056.368	793.229
389.146	16.902	1055.983	792.833
390.161	16.956	1054.827	792.148
391.175	16.922	1054.365	791.571
392.190	16.970	1053.668	791.205
393.205	16.994	1053.109	790.824
394.219	16.926	1052.407	789.914
395.234	17.132	1050.878	789.650
396.248	16.948	1050.313	788.302
397.263	16.972	1049.279	787.567
398.278	17.039	1048.670	787.352
399.292	16.961	1047.685	786.182
400.307	16.895	1047.491	785.662
401.321	17.003	1046.470	785.326
402.336	17.023	1045.891	784.915
403.350	17.077	1045.206	784.580
404.365	17.060	1044.523	783.921
405.380	17.035	1043.838	783.221
406.394	17.111	1043.091	782.942
407.409	17.168	1042.249	782.501
408.423	17.246	1041.413	782.163
409.438	17.224	1040.917	781.623
410.453	17.320	1040.081	781.367
411.467	17.265	1039.682	780.743
412.482	17.211	1039.086	779.982
413.496	17.372	1038.014	779.844
414.511	17.327	1037.849	779.445
415.526	17.389	1037.305	779.251
416.540	17.405	1036.682	778.788
417.555	17.283	1036.378	777.933
418.569	17.397	1035.732	777.901
419.584	17.467	1035.167	777.728
420.599	17.456	1034.895	777.403
421.613	104.471	1324.087	1474.035
422.628	95.728	1366.182	1474.126
