DTS Sentinel unit serial number:	SN413079Multiplexer serial number:	ORYXHardware model number:	OX4-SRSoftware version number:	ORYX F/W v4.00 Oryx Data Collector v3.7.2.0data status	okinstallation	princeton_trtdifferential loss correction	single-endedforward channel	channel 2reverse channel	N/Adate	2019/09/10time	21:41:10forward acquisition time	60.00reverse acquisition time	0.00gamma	496.2192k internal	0.2330k external	0.2330temperature offset calibration	0.9944default loss term (dB/km)	0.3790temperature slope calibration	1.0000multiplexer offset coefficient	1.0000multiplexer slope coefficient	1.0000fibre end	0.00T internal ref (°C)	30.97T ext. ref 1 (°C)	-0.30T ext. ref 2 (°C)	24.26length (m)	temperature (°C)	Stokes	anti-Stokes-747.200	-78.150	-0.251	0.087
-746.185	800.000	0.049	0.193
-745.171	176.242	-0.258	-0.378
-744.156	800.000	-0.053	-0.176
-743.142	87.815	-0.176	0.196
-742.127	-83.410	-0.246	0.079
-741.112	23.327	-0.338	-0.279
-740.098	800.000	0.100	0.320
-739.083	261.892	-0.085	0.148
-738.069	-200.000	0.015	0.251
-737.054	755.050	-0.116	0.315
-736.039	163.509	-0.161	-0.228
-735.025	-130.761	-0.044	-0.006
-734.010	-55.107	0.266	0.120
-732.996	800.000	-0.085	-0.372
-731.981	-88.151	-0.174	-0.052
-730.966	72.207	-0.248	0.260
-729.952	5.124	-0.288	-0.214
-728.937	43.119	-0.198	-0.182
-727.923	-200.000	-0.001	-0.022
-726.908	-200.000	0.044	0.250
-725.894	800.000	0.061	0.250
-724.879	73.684	0.246	0.259
-723.864	800.000	-0.034	-0.127
-722.850	42.517	-0.143	0.131
-721.835	-3.392	-0.059	0.042
-720.821	10.251	-0.308	-0.236
-719.806	-200.000	0.047	-0.360
-718.791	-91.766	-0.530	-0.152
-717.777	-200.000	-0.019	-0.242
-716.762	325.845	0.036	-0.070
-715.748	-200.000	0.046	-0.306
-714.733	-200.000	-0.077	-0.469
-713.718	10.296	0.301	-0.231
-712.704	77.583	0.336	-0.360
-711.689	-69.510	-0.538	-0.207
-710.675	4.459	-0.232	-0.171
-709.660	38.374	-0.153	-0.137
-708.645	-141.628	0.246	-0.025
-707.631	192.184	0.170	-0.259
-706.616	800.000	-0.105	-0.436
-705.602	-130.912	-0.157	-0.021
-704.587	202.404	0.198	0.308
-703.572	-108.065	0.264	-0.058
-702.558	307.464	0.148	-0.276
-701.543	115.113	-0.197	0.241
-700.529	-21.941	-0.165	-0.101
-699.514	2.961	-0.220	-0.161
-698.499	-200.000	0.032	0.229
-697.485	-200.000	-0.002	-0.100
-696.470	85.455	0.156	0.172
-695.456	-200.000	-0.005	-0.254
-694.441	-97.600	0.104	-0.027
-693.426	-95.866	0.236	0.063
-692.412	648.648	-0.092	0.237
-691.397	56.861	-0.162	-0.159
-690.383	-89.762	-0.460	-0.135
-689.368	226.260	0.138	-0.224
-688.354	-74.877	-0.400	-0.144
-687.339	-69.788	0.180	-0.069
-686.324	-200.000	0.007	0.404
-685.310	-107.597	0.112	0.025
-684.295	38.223	0.316	0.282
-683.281	25.841	0.198	0.165
-682.266	45.776	-0.350	-0.325
-681.251	-154.983	0.223	-0.015
-680.237	-74.756	-0.265	-0.096
-679.222	-157.274	-0.133	-0.008
-678.208	-148.225	-0.081	-0.007
-677.193	-114.455	0.197	0.038
-676.178	114.767	-0.186	0.228
-675.164	281.989	0.057	-0.103
-674.149	-153.218	-0.088	0.006
-673.135	-90.244	-0.192	0.056
-672.120	-65.550	-0.132	0.053
-671.105	253.844	-0.061	-0.104
-670.091	602.138	0.121	0.303
-669.076	800.000	-0.113	-0.357
-668.062	-200.000	0.080	-0.358
-667.047	124.405	-0.138	-0.175
-666.032	73.198	0.054	0.056
-665.018	-101.550	0.243	0.059
-664.003	459.440	0.093	0.207
-662.989	-154.166	-0.383	0.026
-661.974	579.764	0.014	0.035
-660.959	578.058	0.090	-0.220
-659.945	-120.858	-0.487	-0.082
-658.930	428.263	-0.045	-0.097
-657.916	-200.000	0.371	-0.000
-656.901	-35.486	-0.243	0.133
-655.886	-25.834	0.164	-0.097
-654.872	15.941	-0.097	0.076
-653.857	-200.000	-0.023	0.264
-652.843	101.267	-0.073	0.086
-651.828	-200.000	-0.049	-0.321
-650.814	-111.397	0.219	0.045
-649.799	176.574	-0.143	-0.209
-648.784	-119.987	-0.345	-0.059
-647.770	-76.972	0.194	0.068
-646.755	417.481	0.093	-0.199
-645.741	23.573	-0.148	-0.122
-644.726	800.000	-0.028	-0.107
-643.711	530.083	0.066	0.156
-642.697	475.456	0.074	-0.167
-641.682	403.582	0.033	-0.070
-640.668	-128.516	-0.113	-0.016
-639.653	-170.488	-0.254	0.009
-638.638	223.813	0.022	0.036
-637.624	-200.000	-0.364	0.000
-636.609	800.000	0.050	-0.164
-635.595	-200.000	0.076	-0.341
-634.580	-65.939	-0.232	-0.093
-633.565	625.515	0.139	-0.352
-632.551	44.197	-0.031	0.029
-631.536	154.932	0.030	0.042
-630.522	-97.815	-0.166	-0.043
-629.507	-116.387	-0.296	0.055
-628.492	-118.443	0.056	-0.010
-627.478	-112.043	0.052	-0.010
-626.463	109.980	-0.042	-0.051
-625.449	-36.992	-0.063	0.034
-624.434	215.183	-0.151	0.240
-623.419	-11.483	0.292	0.192
-622.405	156.976	0.146	0.203
-621.390	800.000	-0.031	-0.092
-620.376	93.677	-0.189	-0.214
-619.361	-138.321	-0.346	-0.038
-618.346	-200.000	0.000	0.249
-617.332	121.323	-0.062	-0.078
-616.317	800.000	0.033	0.121
-615.303	800.000	-0.030	0.097
-614.288	79.951	0.058	-0.062
-613.273	-200.000	0.068	-0.431
-612.259	-13.770	0.101	0.065
-611.244	-200.000	-0.008	0.170
-610.230	800.000	0.012	-0.048
-609.215	66.005	0.129	0.132
-608.201	29.296	0.224	0.191
-607.186	-23.975	0.162	-0.097
-606.171	800.000	-0.016	-0.067
-605.157	190.414	0.039	0.058
-604.142	-200.000	-0.013	0.104
-603.128	-28.629	0.220	-0.127
-602.113	-149.883	-0.402	0.032
-601.098	1.855	0.230	-0.166
-600.084	-200.000	0.027	0.321
-599.069	-200.000	-0.029	0.331
-598.055	128.579	0.074	0.094
-597.040	-21.144	0.156	-0.095
-596.025	-200.000	-0.001	-0.258
-595.011	-132.155	0.455	0.059
-593.996	800.000	-0.030	0.121
-592.982	-125.602	0.337	-0.051
-591.967	250.154	0.115	0.195
-590.952	182.420	-0.221	-0.326
-589.938	-81.508	-0.208	-0.069
-588.923	-96.097	0.041	0.011
-587.909	612.241	0.076	0.190
-586.894	-16.293	-0.173	0.110
-585.879	487.894	0.022	-0.051
-584.865	40.209	-0.104	-0.093
-583.850	800.000	0.069	0.191
-582.836	-87.022	-0.230	-0.070
-581.821	-124.549	0.243	-0.038
-580.806	-46.766	-0.179	-0.088
-579.792	-98.038	-0.269	-0.069
-578.777	-178.288	0.182	0.004
-577.763	47.414	0.199	-0.186
-576.748	-26.732	-0.251	-0.147
-575.733	-84.042	-0.259	-0.082
-574.719	206.831	0.014	0.022
-573.704	800.000	0.100	-0.311
-572.690	-172.455	0.337	-0.011
-571.675	52.060	-0.174	-0.165
-570.661	256.898	0.177	-0.303
-569.646	15.998	-0.116	-0.091
-568.631	800.000	0.104	0.289
-567.617	-72.622	0.104	-0.038
-566.602	800.000	0.063	-0.222
-565.588	37.120	0.226	0.200
-564.573	93.929	0.216	-0.244
-563.558	-119.690	-0.345	-0.060
-562.544	-1.942	-0.294	0.207
-561.529	178.023	-0.066	-0.096
-560.515	490.724	-0.048	0.110
-559.500	-45.113	0.318	0.158
-558.485	337.893	0.157	0.305
-557.471	-200.000	0.046	0.277
-556.456	-200.000	0.062	0.334
-555.442	108.095	0.167	-0.199
-554.427	-123.864	0.192	-0.030
-553.412	258.250	-0.161	-0.276
-552.398	-91.862	-0.156	0.044
-551.383	101.969	-0.053	0.061
-550.369	-132.292	-0.202	-0.026
-549.354	800.000	0.047	0.137
-548.339	-72.738	-0.122	0.045
-547.325	-157.188	0.163	0.010
-546.310	161.676	-0.219	0.306
-545.296	74.666	0.252	-0.265
-544.281	682.520	-0.094	0.244
-543.266	-109.737	-0.477	-0.100
-542.252	178.505	0.105	-0.153
-541.237	84.647	0.184	0.201
-540.223	45.089	-0.116	-0.107
-539.208	340.304	-0.087	-0.169
-538.193	388.229	0.144	-0.297
-537.179	-31.252	-0.121	-0.068
-536.164	334.532	-0.070	-0.136
-535.150	-14.867	0.104	0.066
-534.135	800.000	-0.067	0.215
-533.121	-200.000	0.017	0.127
-532.106	187.116	0.243	-0.362
-531.091	-44.494	-0.103	-0.051
-530.077	-40.446	-0.156	0.081
-529.062	-136.189	0.129	0.015
-528.048	-7.958	0.232	-0.156
-527.033	-105.516	-0.047	-0.011
-526.018	-136.233	0.212	0.025
-525.004	147.922	-0.163	0.219
-523.989	205.626	0.138	-0.214
-522.975	800.000	0.085	-0.286
-521.960	800.000	-0.064	0.239
-520.945	-9.074	0.469	0.314
-519.931	-91.646	0.398	0.113
-518.916	-22.188	0.105	0.064
-517.902	134.644	-0.233	0.302
-516.887	132.609	-0.164	0.211
-515.872	800.000	-0.034	-0.097
-514.858	538.265	-0.060	0.141
-513.843	800.000	0.042	0.169
-512.829	-200.000	-0.036	-0.315
-511.814	155.099	0.218	-0.300
-510.799	-112.795	0.221	0.044
-509.785	800.000	0.029	-0.081
-508.770	310.355	-0.102	0.190
-507.756	-76.729	0.063	0.022
-506.741	98.154	-0.122	-0.140
-505.726	38.025	0.264	-0.234
-504.712	-104.637	0.144	-0.033
-503.697	-200.000	0.061	0.303
-502.683	129.026	0.141	0.179
-501.668	-200.000	-0.064	0.306
-500.653	-13.147	-0.183	-0.119
-499.639	339.871	-0.021	0.040
-498.624	99.963	-0.065	0.075
-497.610	699.750	-0.067	0.175
-496.595	172.445	-0.177	0.254
-495.581	-200.000	-0.013	0.183
-494.566	60.713	-0.244	-0.241
-493.551	77.587	0.129	-0.137
-492.537	-126.383	0.308	0.046
-491.522	-200.000	0.032	-0.231
-490.508	-200.000	0.014	0.198
-489.493	-41.364	0.272	-0.140
-488.478	23.581	-0.029	-0.024
-487.464	-9.457	-0.223	0.148
-486.449	-95.470	-0.185	0.050
-485.435	-66.885	-0.282	0.111
-484.420	-200.000	0.027	0.122
-483.405	56.706	0.122	-0.119
-482.391	528.393	0.015	0.035
-481.376	83.724	0.240	-0.261
-480.362	-200.000	-0.007	-0.103
-479.347	164.619	-0.212	0.298
-478.332	-80.012	0.393	-0.132
-477.318	605.102	0.065	0.161
-476.303	-200.000	-0.004	0.104
-475.289	-200.000	0.039	0.226
-474.274	89.388	-0.067	0.074
-473.259	108.855	-0.094	-0.112
-472.245	-55.243	0.095	-0.042
-471.230	147.133	0.115	-0.154
-470.216	-89.031	0.056	0.017
-469.201	-149.926	0.379	0.029
-468.186	800.000	-0.017	0.073
-467.172	-200.000	-0.007	-0.351
-466.157	39.108	-0.145	0.129
-465.143	-64.758	-0.169	0.068
-464.128	241.753	-0.079	0.131
-463.113	480.676	0.099	-0.223
-462.099	-14.743	0.276	-0.177
-461.084	-200.000	0.034	-0.304
-460.070	-200.000	0.007	-0.033
-459.055	-152.483	0.387	-0.028
-458.040	-183.636	-0.144	0.002
-457.026	-200.000	-0.083	0.395
-456.011	-151.765	0.179	-0.013
-454.997	-43.022	0.233	-0.117
-453.982	-147.120	-0.372	0.032
-452.968	-51.486	0.209	-0.097
-451.953	-112.263	-0.443	0.088
-450.938	368.278	0.081	-0.163
-449.924	-43.530	0.042	-0.021
-448.909	-56.822	-0.176	0.078
-447.895	-200.000	0.033	-0.193
-446.880	-200.000	0.019	-0.150
-445.865	95.923	-0.099	0.112
-444.851	-63.238	-0.133	0.055
-443.836	-200.000	0.003	-0.327
-442.822	800.000	0.077	-0.267
-441.807	800.000	0.085	-0.251
-440.792	800.000	0.039	0.117
-439.778	-156.382	0.115	-0.007
-438.763	800.000	0.057	-0.220
-437.749	800.000	-0.029	-0.083
-436.734	666.941	0.054	0.138
-435.719	579.765	-0.067	-0.164
-434.705	22.531	0.071	-0.057
-433.690	-200.000	-0.020	0.105
-432.676	35.844	-0.229	0.200
-431.661	-162.894	-0.115	-0.006
-430.646	-20.351	0.244	0.149
-429.632	98.465	0.088	0.101
-428.617	-76.257	-0.147	-0.052
-427.603	-200.000	0.026	-0.142
-426.588	318.404	-0.074	-0.140
-425.573	-63.981	0.191	-0.078
-424.559	191.014	0.104	0.156
-423.544	-95.510	0.146	0.039
-422.530	-152.967	-0.229	-0.016
-421.515	325.957	0.114	-0.217
-420.500	-90.213	0.186	0.054
-419.486	-200.000	0.022	0.230
-418.471	-69.502	0.417	-0.159
-417.457	-94.470	-0.141	-0.038
-416.442	283.881	-0.076	-0.135
-415.428	800.000	-0.093	-0.272
-414.413	-117.113	-0.347	-0.063
-413.398	-120.015	-0.218	0.037
-412.384	110.567	-0.129	-0.154
-411.369	531.704	0.090	-0.212
-410.355	19.887	-0.101	-0.081
-409.340	203.039	-0.026	0.040
-408.325	185.907	0.130	0.192
-407.311	331.061	-0.103	0.196
-406.296	-159.548	-0.153	0.008
-405.282	-18.601	-0.115	0.072
-404.267	577.442	-0.147	0.357
-403.252	800.000	0.041	0.123
-402.238	-83.206	0.276	-0.088
-401.223	-42.731	-0.190	0.096
-400.209	192.363	0.154	0.230
-399.194	14.700	-0.196	0.152
-398.179	-71.997	-0.184	0.068
-397.165	-200.000	0.008	0.142
-396.150	543.874	0.081	-0.193
-395.136	-184.405	0.123	-0.002
-394.121	-200.000	0.001	0.115
-393.106	-200.000	0.016	0.137
-392.092	-42.485	0.102	-0.052
-391.077	-200.000	-0.033	0.000
-390.063	186.324	0.129	0.190
-389.048	208.595	-0.156	-0.242
-388.033	50.266	-0.198	0.185
-387.019	82.549	0.080	-0.086
-386.004	388.624	0.148	0.304
-384.990	-92.078	0.271	0.076
-383.975	-48.738	-0.066	0.031
-382.960	681.337	0.106	-0.274
-381.946	-200.000	0.037	-0.164
-380.931	-200.000	0.060	0.270
-379.917	-116.650	-0.208	-0.038
-378.902	800.000	0.055	0.167
-377.888	-200.000	0.040	0.407
-376.873	661.025	0.056	0.143
-375.858	181.481	-0.110	0.160
-374.844	30.075	0.044	-0.037
-373.829	-200.000	0.021	-0.253
-372.815	323.165	0.022	0.042
-371.800	-200.000	-0.024	0.228
-370.785	198.535	-0.297	-0.451
-369.771	-64.950	0.184	0.074
-368.756	-75.205	-0.381	-0.135
-367.742	57.010	-0.251	0.243
-366.727	-47.641	0.142	0.068
-365.712	326.023	-0.047	-0.090
-364.698	-79.274	-0.088	0.030
-363.683	41.937	-0.188	-0.170
-362.669	-200.000	-0.014	-0.087
-361.654	800.000	0.080	0.324
-360.639	-29.187	0.250	-0.142
-359.625	-200.000	0.003	-0.093
-358.610	-200.000	-0.066	-0.348
-357.596	64.631	-0.461	0.461
-356.581	-200.000	-0.018	-0.168
-355.566	-73.582	-0.078	-0.028
-354.552	81.263	0.305	-0.327
-353.537	-143.221	-0.430	-0.041
-352.523	-175.374	-0.133	-0.004
-351.508	-182.124	0.439	-0.008
-350.493	257.188	0.064	-0.109
-349.479	-126.142	-0.274	-0.041
-348.464	-60.234	-0.106	-0.045
-347.450	-123.118	0.327	0.052
-346.435	465.050	-0.123	0.274
-345.420	47.861	0.138	0.128
-344.406	60.614	0.100	-0.098
-343.391	-62.102	-0.206	-0.085
-342.377	-31.496	-0.179	-0.100
-341.362	-70.276	0.131	0.049
-340.348	415.349	0.056	0.119
-339.333	800.000	-0.105	-0.291
-338.318	3.621	-0.086	-0.062
-337.304	-136.848	-0.149	-0.017
-336.289	162.941	0.141	0.196
-335.275	-200.000	0.055	0.298
-334.260	-64.903	0.081	0.032
-333.245	800.000	-0.057	0.158
-332.231	-139.710	0.285	-0.030
-331.216	800.000	-0.102	0.286
-330.202	800.000	0.060	-0.220
-329.187	-117.005	-0.156	0.028
-328.172	-105.522	0.341	0.077
-327.158	-200.000	-0.023	0.119
-326.143	800.000	0.112	-0.321
-325.129	-200.000	0.024	0.206
-324.114	88.718	0.083	-0.092
-323.099	28.905	-0.322	0.270
-322.085	-60.734	0.137	0.057
-321.070	-2.908	0.104	-0.072
-320.056	71.944	-0.112	-0.115
-319.041	97.410	-0.105	-0.119
-318.026	289.471	-0.141	-0.253
-317.012	277.665	0.090	-0.159
-315.997	404.597	-0.098	-0.205
-314.983	800.000	0.025	0.072
-313.968	353.207	-0.032	0.062
-312.953	36.405	0.360	-0.314
-311.939	790.720	-0.184	-0.499
-310.924	-144.221	-0.212	-0.020
-309.910	310.529	0.156	-0.288
-308.895	-149.419	0.267	0.021
-307.880	-200.000	-0.016	0.309
-306.866	-63.252	0.172	-0.070
-305.851	225.818	0.172	0.276
-304.837	800.000	0.111	0.417
-303.822	-200.000	-0.032	0.227
-302.807	800.000	-0.066	0.188
-301.793	24.653	-0.185	0.151
-300.778	14.912	0.133	0.103
-299.764	-200.000	0.020	0.224
-298.749	-36.675	0.317	0.168
-297.735	-200.000	-0.004	-0.062
-296.720	113.109	-0.260	-0.312
-295.705	66.419	-0.324	0.326
-294.691	-200.000	-0.064	-0.335
-293.676	-20.623	-0.194	-0.118
-292.662	-200.000	-0.083	0.533
-291.647	3.370	-0.159	0.114
-290.632	106.969	-0.193	-0.227
-289.618	-30.946	0.315	-0.176
-288.603	-14.339	-0.176	0.112
-287.589	179.967	-0.172	0.249
-286.574	119.354	-0.100	0.123
-285.559	-98.729	0.073	0.018
-284.545	-76.375	-0.290	-0.101
-283.530	-61.511	-0.194	-0.080
-282.516	-14.418	-0.275	0.175
-281.501	-167.953	0.319	-0.012
-280.486	800.000	-0.065	-0.255
-279.472	294.550	-0.047	-0.085
-278.457	23.368	-0.338	0.274
-277.443	298.810	-0.150	-0.273
-276.428	800.000	-0.047	-0.177
-275.413	-200.000	-0.031	0.213
-274.399	800.000	-0.102	-0.321
-273.384	-149.888	-0.173	-0.013
-272.370	-200.000	-0.004	-0.022
-271.355	-87.806	0.304	0.091
-270.340	102.220	0.183	-0.211
-269.326	46.263	-0.221	0.202
-268.311	-200.000	-0.048	0.407
-267.297	109.661	-0.239	0.283
-266.282	-0.669	-0.075	0.053
-265.267	130.634	-0.078	-0.099
-264.253	48.395	0.168	-0.155
-263.238	-24.832	0.132	-0.078
-262.224	162.097	-0.090	-0.125
-261.209	-200.000	0.019	-0.394
-260.195	-74.250	0.210	0.075
-259.180	800.000	-0.038	0.149
-258.165	-31.291	0.164	-0.091
-257.151	17.945	-0.075	0.059
-256.136	355.233	0.048	-0.095
-255.122	431.054	0.037	-0.079
-254.107	332.125	0.104	-0.198
-253.092	-33.693	-0.390	-0.213
-252.078	-135.109	-0.026	-0.003
-251.063	68.078	0.042	0.043
-250.049	-200.000	-0.062	0.337
-249.034	63.614	0.313	0.310
-248.019	800.000	-0.072	-0.281
-247.005	800.000	0.035	0.101
-245.990	283.379	-0.117	0.207
-244.976	-79.053	0.168	-0.056
-243.961	-200.000	-0.020	-0.157
-242.946	401.611	0.082	0.170
-241.932	-200.000	-0.015	0.095
-240.917	-69.058	0.507	-0.193
-239.903	52.301	-0.209	-0.197
-238.888	-150.145	0.189	-0.014
-237.873	28.174	0.166	-0.138
-236.859	409.684	-0.054	0.114
-235.844	-200.000	-0.012	-0.202
-234.830	-38.317	0.181	0.095
-233.815	75.576	0.074	0.077
-232.800	-144.289	0.404	-0.037
-231.786	125.134	0.207	-0.258
-230.771	47.376	-0.149	0.137
-229.757	-200.000	0.037	0.239
-228.742	402.663	0.075	0.155
-227.727	-179.368	-0.183	0.004
-226.713	-97.508	-0.280	-0.072
-225.698	15.936	0.217	-0.169
-224.684	-23.839	0.261	-0.154
-223.669	-137.743	-0.283	-0.031
-222.655	-3.856	0.174	0.119
-221.640	244.490	-0.090	-0.149
-220.625	794.203	0.112	0.305
-219.611	123.661	0.099	0.122
-218.596	188.778	0.142	0.209
-217.582	-200.000	0.014	-0.105
-216.567	366.966	0.150	0.298
-215.552	193.066	0.134	0.200
-214.538	-127.126	-0.422	-0.061
-213.523	207.632	0.079	-0.122
-212.509	169.113	0.075	-0.105
-211.494	20.053	0.337	-0.268
-210.479	-142.583	-0.159	-0.015
-209.465	127.134	-0.261	-0.326
-208.450	-200.000	-0.015	0.302
-207.436	234.708	-0.167	-0.272
-206.421	-200.000	-0.009	0.201
-205.406	180.211	0.084	0.122
-204.392	-117.796	-0.252	0.045
-203.377	-64.275	0.203	-0.081
-202.363	-200.000	0.001	-0.063
-201.348	80.291	-0.079	0.084
-200.333	-122.730	-0.217	0.035
-199.319	37.894	0.090	0.079
-198.304	-74.615	0.071	-0.025
-197.290	-83.172	-0.129	-0.041
-196.275	-113.837	-0.103	0.020
-195.260	-122.804	0.344	0.055
-194.246	292.673	-0.035	0.062
-193.231	-14.660	-0.068	-0.043
-192.217	-134.991	0.196	0.023
-191.202	-17.252	0.048	0.030
-190.187	800.000	-0.103	0.297
-189.173	477.737	-0.064	0.142
-188.158	-19.443	-0.149	0.091
-187.144	-200.000	-0.021	-0.222
-186.129	101.278	0.285	-0.327
-185.114	212.174	0.093	-0.144
-184.100	69.615	-0.100	0.102
-183.085	308.330	0.045	0.082
-182.071	40.917	-0.167	-0.149
-181.056	-1.780	-0.415	0.288
-180.042	-28.317	0.075	-0.043
-179.027	-70.311	-0.124	-0.046
-178.012	-58.183	0.198	0.085
-176.998	190.332	-0.151	0.223
-175.983	-174.425	0.379	-0.011
-174.969	-99.958	0.285	-0.070
-173.954	-61.772	0.235	-0.097
-172.939	-91.263	-0.306	0.086
-171.925	-186.735	-0.145	0.002
-170.910	-24.189	0.103	-0.061
-169.896	-27.204	-0.102	0.059
-168.881	-200.000	-0.059	-0.339
-167.866	-21.556	-0.224	-0.134
-166.852	-200.000	-0.013	-0.273
-165.837	656.680	-0.131	-0.330
-164.823	-40.006	0.042	-0.022
-163.808	-114.280	0.438	0.083
-162.793	-53.626	0.184	0.083
-161.779	245.390	-0.136	-0.226
-160.764	64.577	-0.116	-0.115
-159.750	687.788	0.088	-0.226
-158.735	-200.000	0.070	0.464
-157.720	-200.000	-0.028	0.285
-156.706	-107.594	-0.452	0.097
-155.691	-200.000	-0.028	0.201
-154.677	-150.071	-0.320	-0.024
-153.662	-110.906	-0.221	0.045
-152.647	242.775	0.061	0.100
-151.633	9.323	0.156	-0.116
-150.618	-77.842	-0.433	0.147
-149.604	43.328	0.137	0.123
-148.589	35.671	0.303	0.262
-147.574	-114.713	0.354	0.067
-146.560	24.109	0.159	0.129
-145.545	172.018	0.032	-0.046
-144.531	1.427	0.061	0.043
-143.516	-62.969	-0.136	-0.055
-142.502	-49.172	0.098	-0.046
-141.487	-200.000	-0.018	0.079
-140.472	-70.986	-0.155	0.057
-139.458	105.057	-0.082	-0.095
-138.443	-55.838	-0.164	-0.072
-137.429	106.287	0.107	-0.124
-136.414	-63.274	-0.186	0.075
-135.399	800.000	-0.054	-0.148
-134.385	-119.970	-0.505	-0.085
-133.370	-34.433	-0.253	0.136
-132.356	16.628	0.030	0.023
-131.341	-85.479	-0.313	-0.096
-130.326	-144.350	0.295	0.027
-129.312	-82.891	-0.137	-0.043
-128.297	-200.000	-0.031	0.247
-127.283	36.840	0.105	0.091
-126.268	-69.797	0.134	0.050
-125.253	-7.333	-0.279	0.186
-124.239	525.178	0.046	0.106
-123.224	71.149	0.179	-0.183
-122.210	-200.000	-0.008	0.367
-121.195	-200.000	-0.002	-0.039
-120.180	-200.000	-0.051	0.500
-119.166	-77.828	-0.153	-0.052
-118.151	800.000	-0.071	-0.257
-117.137	-200.000	-0.041	-0.313
-116.122	-85.868	-0.239	-0.073
-115.107	-200.000	0.042	0.180
-114.093	58.657	0.108	-0.104
-113.078	724.209	-0.048	0.125
-112.064	-200.000	0.014	-0.278
-111.049	-9.826	0.180	-0.118
-110.034	800.000	-0.117	0.391
-109.020	-171.507	0.143	0.005
-108.005	-86.234	0.174	-0.053
-106.991	-110.535	0.175	-0.036
-105.976	494.727	-0.096	0.215
-104.962	-77.508	-0.161	-0.055
-103.947	-109.905	0.132	-0.027
-102.932	168.602	-0.154	-0.216
-101.918	537.456	-0.124	0.289
-100.903	-14.787	0.263	0.166
-99.889	243.260	-0.201	0.331
-98.874	53.368	0.124	-0.116
-97.859	69.103	0.167	-0.169
-96.845	137.686	-0.272	-0.350
-95.830	800.000	-0.054	-0.208
-94.816	8.972	-0.233	0.173
-93.801	-38.980	0.238	0.123
-92.786	-75.762	-0.107	0.037
-91.772	-10.379	-0.081	-0.053
-90.757	-171.963	-0.212	0.007
-89.743	130.235	0.135	-0.170
-88.728	177.332	0.159	0.227
-87.713	198.648	-0.124	-0.186
-86.699	-12.198	0.046	-0.029
-85.684	800.000	0.093	-0.374
-84.670	190.430	0.131	-0.193
-83.655	366.519	-0.048	0.095
-82.640	54.230	-0.046	-0.043
-81.626	-51.774	-0.020	0.009
-80.611	-200.000	0.014	0.343
-79.597	371.968	0.125	0.248
-78.582	-200.000	0.001	0.266
-77.567	204.706	-0.133	0.202
-76.553	45.256	0.154	-0.139
-75.538	353.655	-0.157	0.306
-74.524	-200.000	0.005	-0.181
-73.509	204.947	-0.125	-0.191
-72.494	800.000	-0.021	0.064
-71.480	47.708	0.216	-0.198
-70.465	-200.000	-0.022	-0.182
-69.451	-26.108	-0.121	-0.070
-68.436	-34.522	0.183	-0.098
-67.422	-70.172	-0.102	0.038
-66.407	305.103	-0.041	0.075
-65.392	81.869	-0.195	0.207
-64.378	-200.000	-0.021	-0.152
-63.363	-200.000	0.063	0.530
-62.349	128.344	-0.116	0.145
-61.334	43.035	-1.260	-1.126
-60.319	396.136	0.298	0.610
-59.305	800.000	-0.244	-0.867
-58.290	679.845	0.489	1.247
-57.276	800.000	0.440	1.848
-56.261	-200.000	99.546	618.220
-55.246	567.436	1428.491	3399.724
-54.232	187.087	2632.302	3846.015
-53.217	110.214	2277.210	2680.199
-52.203	40.499	1891.487	1669.564
-51.188	34.242	1679.916	1435.763
-50.173	31.545	1636.601	1378.848
-49.159	50.308	1685.648	1560.811
-48.144	51.246	1702.058	1582.948
-47.130	33.845	1661.249	1416.622
-46.115	31.136	1646.653	1384.061
-45.100	30.894	1641.877	1378.205
-44.086	30.884	1639.157	1375.793
-43.071	30.863	1637.386	1374.098
-42.057	30.828	1634.628	1371.469
-41.042	30.906	1632.676	1370.353
-40.027	30.843	1630.644	1368.129
-39.013	30.821	1628.756	1366.330
-37.998	30.777	1627.457	1364.864
-36.984	30.827	1625.869	1363.841
-35.969	31.016	1623.937	1363.547
-34.954	31.019	1622.533	1362.340
-33.940	30.981	1620.825	1360.571
-32.925	31.007	1618.879	1359.072
-31.911	30.934	1617.506	1357.338
-30.896	30.941	1615.860	1355.952
-29.881	30.882	1614.124	1354.014
-28.867	30.914	1612.292	1352.652
-27.852	31.004	1610.423	1351.688
-26.838	30.936	1609.318	1350.208
-25.823	30.925	1608.143	1349.090
-24.809	31.052	1606.680	1348.728
-23.794	30.988	1605.429	1347.166
-22.779	30.985	1603.863	1345.771
-21.765	31.073	1601.444	1344.326
-20.750	30.948	1600.741	1342.785
-19.736	30.956	1599.339	1341.609
-18.721	31.088	1597.450	1340.918
-17.706	31.044	1596.219	1339.520
-16.692	31.004	1594.909	1338.075
-15.677	31.060	1593.358	1337.123
-14.663	30.934	1592.047	1335.073
-13.648	31.017	1590.563	1334.365
-12.633	30.950	1589.258	1332.742
-11.619	31.058	1587.370	1331.878
-10.604	31.020	1585.660	1330.117
-9.590	30.926	1584.830	1328.699
-8.575	31.055	1583.323	1328.301
-7.560	30.991	1582.460	1327.069
-6.546	30.987	1581.496	1326.180
-5.531	31.062	1580.105	1325.490
-4.517	31.015	1579.066	1324.236
-3.502	31.112	1577.810	1323.813
-2.487	31.090	1576.130	1322.200
-1.473	30.730	1564.167	1309.578
-0.458	27.773	1544.529	1272.501
0.556	21.724	1544.851	1239.265
1.571	19.384	1568.892	1241.611
2.586	19.064	1582.083	1249.619
3.600	17.382	1530.096	1196.627
4.615	9.290	1421.176	1058.274
5.629	1.364	1356.370	959.970
6.644	-0.125	1348.210	944.756
7.659	-0.255	1346.984	942.993
8.673	-0.361	1346.006	941.562
9.688	-0.469	1344.242	939.565
10.702	-0.622	1340.951	936.224
11.717	2.549	1347.505	960.628
12.731	11.716	1364.123	1030.368
13.746	18.759	1376.280	1084.079
14.761	20.267	1377.240	1094.258
15.775	20.378	1377.490	1095.059
16.790	20.479	1376.570	1094.868
17.804	20.500	1375.606	1094.134
18.819	20.669	1375.862	1095.309
19.834	20.777	1375.124	1095.306
20.848	20.729	1374.715	1094.577
21.863	20.844	1373.768	1094.450
22.877	20.739	1372.966	1093.055
23.892	20.774	1372.259	1092.614
24.907	20.720	1371.296	1091.411
25.921	20.716	1370.377	1090.561
26.936	20.707	1369.312	1089.557
27.950	20.847	1367.772	1089.111
28.965	20.803	1366.797	1087.966
29.980	20.731	1365.730	1086.571
30.994	20.745	1364.576	1085.641
32.009	20.773	1363.209	1084.633
33.023	20.891	1361.850	1084.188
34.038	20.818	1361.171	1083.101
35.053	20.772	1360.070	1081.841
36.067	20.889	1358.742	1081.415
37.082	20.716	1358.035	1079.685
38.096	20.768	1356.897	1079.005
39.111	20.740	1356.626	1078.520
40.126	20.820	1355.691	1078.178
41.140	20.845	1354.737	1077.477
42.155	20.799	1354.959	1077.274
43.169	20.671	1355.200	1076.583
44.184	20.667	1354.883	1076.210
45.199	20.671	1354.303	1075.675
46.213	20.785	1353.819	1075.903
47.228	20.691	1352.831	1074.443
48.242	20.787	1351.276	1073.702
49.257	20.833	1349.618	1072.576
50.271	20.754	1348.595	1071.181
51.286	20.768	1347.129	1070.007
52.301	20.796	1345.966	1069.163
53.315	20.758	1345.292	1068.295
54.330	20.796	1344.580	1067.872
55.344	20.794	1343.365	1066.798
56.359	20.671	1342.268	1065.083
57.374	20.627	1341.555	1064.149
58.388	20.822	1340.393	1064.326
59.403	20.610	1341.020	1063.438
60.417	20.683	1339.929	1062.923
61.432	20.704	1339.341	1062.491
62.447	20.862	1337.918	1062.230
63.461	20.730	1336.948	1060.564
64.476	20.812	1335.699	1059.977
65.490	20.887	1334.007	1058.996
66.505	20.852	1332.469	1057.469
67.520	20.769	1331.694	1056.258
68.534	20.784	1330.850	1055.582
69.549	20.786	1329.823	1054.690
70.563	20.755	1329.167	1053.890
71.578	20.762	1327.899	1052.830
72.593	20.715	1327.434	1052.083
73.607	20.768	1326.318	1051.429
74.622	20.752	1325.508	1050.594
75.636	20.800	1324.748	1050.188
76.651	20.726	1324.504	1049.457
77.666	20.735	1323.671	1048.760
78.680	20.675	1323.728	1048.352
79.695	20.696	1322.602	1047.491
80.709	20.790	1321.318	1046.944
81.724	20.818	1320.353	1046.256
82.739	20.817	1319.403	1045.407
83.753	20.732	1318.480	1044.076
84.768	20.788	1317.441	1043.495
85.782	20.815	1316.629	1042.920
86.797	20.866	1315.242	1042.033
87.812	20.873	1314.280	1041.223
88.826	20.848	1312.918	1039.901
89.841	20.838	1311.825	1038.882
90.855	20.882	1311.040	1038.434
91.870	20.883	1310.160	1037.650
92.884	20.794	1309.712	1036.675
93.899	20.831	1308.633	1035.947
94.914	20.882	1307.782	1035.486
95.928	20.835	1306.769	1034.312
96.943	20.816	1306.205	1033.662
97.957	20.844	1305.662	1033.305
98.972	20.891	1304.018	1032.191
99.987	20.855	1303.415	1031.408
101.001	20.871	1302.287	1030.519
102.016	20.939	1301.288	1030.043
103.030	20.869	1300.418	1028.845
104.045	20.878	1299.249	1027.885
105.060	20.874	1298.324	1027.039
106.074	21.052	1296.855	1026.834
107.089	20.947	1296.588	1025.916
108.103	20.970	1295.161	1024.832
109.118	20.992	1294.037	1023.979
110.133	20.889	1293.122	1022.559
111.147	20.958	1291.470	1021.567
112.162	21.032	1290.399	1021.061
113.176	20.984	1289.368	1019.874
114.191	20.892	1288.871	1018.857
115.206	20.960	1287.601	1018.156
116.220	20.946	1286.494	1017.112
117.235	20.968	1285.822	1016.618
118.249	20.903	1284.815	1015.352
119.264	20.954	1283.330	1014.384
120.279	20.819	1282.881	1013.155
121.293	21.034	1281.860	1013.508
122.308	20.971	1281.108	1012.459
123.322	21.000	1280.556	1012.101
124.337	21.027	1278.943	1010.896
125.352	21.023	1278.682	1010.573
126.366	20.956	1277.795	1009.399
127.381	21.056	1276.210	1008.635
128.395	21.045	1275.435	1007.866
129.410	21.093	1274.256	1007.123
130.424	20.994	1273.738	1006.052
131.439	20.944	1273.261	1005.300
132.454	20.886	1272.122	1003.977
133.468	20.966	1271.437	1003.811
134.483	20.880	1270.980	1002.867
135.497	21.011	1269.854	1002.641
136.512	20.970	1268.778	1001.465
137.527	20.994	1267.612	1000.594
138.541	20.864	1266.659	999.010
139.556	20.935	1265.213	998.187
140.570	20.948	1264.102	997.298
141.585	20.904	1263.292	996.317
142.600	20.879	1261.973	995.046
143.614	20.902	1261.133	994.428
144.629	20.899	1260.149	993.545
145.643	20.802	1258.877	991.901
146.658	20.845	1258.002	991.372
147.673	20.875	1257.115	990.756
148.687	20.890	1255.956	989.841
149.702	20.878	1254.760	988.743
150.716	20.923	1253.711	988.083
151.731	20.898	1252.741	987.087
152.746	20.996	1252.018	986.985
153.760	20.978	1250.420	985.540
154.775	21.064	1249.010	984.828
155.789	20.910	1248.779	983.688
156.804	20.931	1247.641	982.821
157.819	20.945	1246.852	982.190
158.833	21.008	1246.036	981.817
159.848	21.043	1244.894	981.025
160.862	21.080	1244.409	980.766
161.877	21.045	1243.315	979.621
162.892	20.984	1242.670	978.685
163.906	21.153	1241.703	978.780
164.921	21.065	1241.540	978.072
165.935	21.131	1240.672	977.673
166.950	21.158	1239.901	977.130
167.964	21.091	1239.557	976.400
168.979	21.088	1238.806	975.705
169.994	21.205	1238.057	975.682
171.008	21.140	1237.683	974.936
172.023	21.071	1237.231	974.111
173.037	21.096	1236.045	973.227
174.052	21.082	1235.536	972.663
175.067	21.072	1234.591	971.779
176.081	21.107	1233.553	971.067
177.096	21.225	1232.515	970.824
178.110	21.070	1232.084	969.533
179.125	21.238	1230.664	969.264
180.140	21.184	1229.860	968.246
181.154	21.103	1228.955	966.998
182.169	21.074	1227.761	965.815
183.183	21.078	1226.530	964.785
184.198	21.116	1225.737	964.281
185.213	21.167	1224.876	963.801
186.227	21.116	1224.131	962.851
187.242	21.175	1223.234	962.383
188.256	21.240	1221.776	961.510
189.271	21.215	1220.860	960.567
190.286	21.171	1220.587	960.022
191.300	21.192	1220.261	959.797
192.315	21.225	1219.746	959.489
193.329	21.215	1218.853	958.650
194.344	21.238	1218.792	958.639
195.359	21.194	1218.406	958.012
196.373	21.150	1217.528	956.996
197.388	21.201	1217.294	957.008
198.402	21.103	1217.458	956.515
199.417	21.223	1216.333	956.200
200.432	21.182	1215.930	955.573
201.446	21.094	1215.073	954.336
202.461	21.204	1214.231	954.189
203.475	21.171	1213.230	953.139
204.490	21.219	1212.474	952.725
205.504	21.177	1211.723	951.821
206.519	21.252	1210.376	951.085
207.534	21.328	1209.208	950.496
208.548	21.322	1208.835	950.089
209.563	21.225	1208.178	948.961
210.577	21.283	1207.109	948.353
211.592	21.193	1206.236	947.096
212.607	21.357	1205.297	947.164
213.621	21.381	1204.176	946.327
214.636	21.281	1203.977	945.546
215.650	21.355	1203.105	945.178
216.665	21.369	1201.799	944.142
217.680	21.309	1201.080	943.168
218.694	21.408	1200.350	943.049
219.709	21.377	1199.887	942.432
220.723	21.348	1199.197	941.653
221.738	21.313	1198.410	940.761
222.753	21.340	1197.526	940.130
223.767	21.285	1197.471	939.707
224.782	21.404	1196.848	939.777
225.796	21.355	1196.353	939.041
226.811	21.379	1195.299	938.259
227.826	21.416	1194.661	937.873
228.840	21.406	1194.502	937.614
229.855	21.391	1193.477	936.643
230.869	21.513	1192.908	936.771
231.884	21.466	1191.767	935.540
232.899	21.472	1191.019	934.898
233.913	21.427	1190.804	934.407
234.928	21.471	1190.377	934.225
235.942	21.491	1189.609	933.645
236.957	21.369	1189.407	932.753
237.972	21.398	1188.532	932.138
238.986	21.485	1187.686	931.860
240.001	21.500	1187.111	931.404
241.015	21.492	1186.258	930.612
242.030	21.567	1185.383	930.239
243.045	21.632	1184.847	930.084
244.059	21.558	1184.180	929.084
245.074	21.403	1183.804	927.883
246.088	21.621	1182.590	928.007
247.103	21.625	1181.673	927.225
248.117	21.604	1180.838	926.379
249.132	21.649	1180.012	925.884
250.147	21.558	1179.280	924.749
251.161	21.655	1178.827	924.821
252.176	21.711	1178.156	924.508
253.190	21.619	1177.556	923.474
254.205	21.673	1176.730	923.025
255.220	21.665	1175.913	922.265
256.234	21.739	1175.833	922.509
257.249	21.648	1175.412	921.618
258.263	21.584	1174.724	920.661
259.278	21.688	1174.022	920.575
260.293	21.650	1173.970	920.253
261.307	21.704	1172.945	919.651
262.322	21.689	1172.257	918.953
263.336	21.761	1171.494	918.650
264.351	21.689	1171.029	917.825
265.366	21.688	1170.533	917.350
266.380	21.749	1169.720	916.950
267.395	21.751	1169.129	916.417
268.409	21.580	1168.434	914.898
269.424	21.798	1167.590	915.297
270.439	21.717	1167.367	914.617
271.453	21.762	1166.829	914.347
272.468	21.692	1166.228	913.434
273.482	21.802	1165.278	913.178
274.497	21.779	1165.231	912.943
275.512	21.846	1164.352	912.524
276.526	21.832	1163.193	911.461
277.541	21.711	1163.078	910.661
278.555	21.809	1161.964	910.219
279.570	21.700	1161.606	909.287
280.585	21.719	1160.846	908.711
281.599	21.856	1159.615	908.379
282.614	21.788	1159.038	907.494
283.628	21.910	1158.109	907.317
284.643	21.788	1157.410	906.059
285.657	21.831	1156.231	905.276
286.672	21.705	1155.771	904.190
287.687	21.931	1154.885	904.578
288.701	21.916	1154.056	903.772
289.716	21.908	1153.874	903.511
290.730	21.901	1153.089	902.777
291.745	22.024	1151.746	902.277
292.760	21.944	1151.767	901.805
293.774	21.982	1151.157	901.443
294.789	21.917	1150.892	900.823
295.803	22.003	1149.956	900.450
296.818	22.005	1149.585	900.089
297.833	22.003	1148.411	899.079
298.847	22.151	1147.720	899.219
299.862	22.088	1147.015	898.262
300.876	22.088	1146.406	897.710
301.891	22.089	1146.129	897.415
302.906	22.088	1145.305	896.684
303.920	22.174	1144.791	896.644
304.935	22.065	1144.193	895.541
305.949	22.187	1143.128	895.248
306.964	21.978	1142.925	893.944
307.979	22.171	1142.088	894.197
308.993	22.207	1141.281	893.666
310.008	22.172	1140.920	893.126
311.022	22.163	1140.170	892.415
312.037	22.166	1139.121	891.529
313.052	22.086	1138.377	890.464
314.066	22.121	1137.362	889.767
315.081	22.120	1136.975	889.383
316.095	22.229	1136.343	889.358
317.110	22.182	1135.842	888.651
318.125	22.131	1135.373	887.950
319.139	22.166	1134.637	887.468
320.154	22.242	1134.145	887.392
321.168	22.140	1133.651	886.409
322.183	22.195	1132.664	885.840
323.197	22.122	1132.309	885.115
324.212	22.238	1131.488	884.978
325.227	22.215	1131.302	884.637
326.241	22.268	1130.717	884.370
327.256	22.154	1130.081	883.223
328.270	22.245	1128.926	882.699
329.285	22.273	1128.176	882.171
330.300	22.193	1127.699	881.319
331.314	22.251	1126.708	880.759
332.329	22.275	1125.805	880.097
333.343	22.409	1124.706	879.826
334.358	22.339	1124.076	878.908
335.373	22.435	1123.340	878.732
336.387	22.400	1123.077	878.275
337.402	22.420	1122.157	877.576
338.416	22.406	1121.656	877.040
339.431	22.400	1120.878	876.323
340.446	22.382	1120.373	875.759
341.460	22.429	1120.023	875.642
342.475	22.506	1119.013	875.159
343.489	22.520	1117.670	874.103
344.504	22.418	1117.326	873.250
345.519	22.455	1116.106	872.399
346.533	22.503	1115.548	872.124
347.548	22.516	1114.896	871.603
348.562	22.572	1114.060	871.151
349.577	22.545	1113.243	870.300
350.592	22.472	1112.506	869.287
351.606	22.437	1111.860	868.530
352.621	22.453	1111.558	868.299
353.635	22.597	1110.757	868.305
354.650	22.535	1110.283	867.554
355.665	22.684	1109.679	867.735
356.679	22.608	1109.062	866.803
357.694	22.533	1108.725	866.095
358.708	22.645	1107.568	865.663
359.723	22.665	1106.798	865.081
360.738	22.531	1106.667	864.247
361.752	22.590	1106.140	864.046
362.767	22.640	1105.486	863.706
363.781	22.714	1105.079	863.674
364.796	22.715	1104.564	863.199
365.810	22.603	1104.203	862.294
366.825	22.641	1103.584	861.919
367.840	22.670	1103.183	861.671
368.854	22.713	1102.216	861.049
369.869	22.837	1101.500	861.019
370.883	22.780	1100.567	859.936
371.898	22.740	1100.047	859.260
372.913	22.847	1099.473	859.255
373.927	22.851	1098.889	858.741
374.942	22.942	1098.315	858.659
375.956	22.799	1097.961	857.615
376.971	22.861	1097.477	857.461
377.986	22.716	1097.228	856.487
379.000	22.765	1096.655	856.200
380.015	22.879	1095.633	855.879
381.029	22.939	1094.799	855.445
382.044	22.852	1094.233	854.505
383.059	22.962	1093.418	854.322
384.073	22.918	1093.015	853.720
385.088	22.900	1092.294	852.994
386.102	22.880	1091.723	852.379
387.117	22.986	1090.485	851.844
388.132	22.978	1089.914	851.288
389.146	22.991	1088.863	850.454
390.161	22.896	1088.634	849.738
391.175	22.932	1087.888	849.259
392.190	22.963	1087.086	848.704
393.205	22.970	1086.274	848.030
394.219	22.945	1085.741	847.419
395.234	23.025	1084.789	846.984
396.248	23.121	1083.767	846.569
397.263	23.207	1082.873	846.209
398.278	23.025	1082.624	845.068
399.292	23.085	1082.078	844.853
400.307	23.068	1081.100	843.937
401.321	22.996	1080.820	843.298
402.336	23.008	1080.301	842.873
403.350	23.086	1079.213	842.323
404.365	23.236	1078.411	842.335
405.380	23.206	1077.936	841.746
406.394	23.240	1077.553	841.536
407.409	23.344	1076.352	841.018
408.423	23.175	1076.063	839.917
409.438	23.204	1075.430	839.485
410.453	23.332	1074.632	839.393
411.467	23.363	1073.689	838.731
412.482	23.280	1072.943	837.683
413.496	23.232	1072.630	837.134
414.511	23.334	1071.723	836.833
415.526	23.217	1071.646	836.148
416.540	23.445	1070.578	836.318
417.555	23.198	1070.779	835.233
418.569	23.351	1069.886	835.185
419.584	23.464	1069.218	835.121
420.599	23.398	1068.838	834.442
421.613	149.374	1399.216	1798.870
422.628	137.595	1447.323	1798.936
