DTS Sentinel unit serial number:	SN413079Multiplexer serial number:	ORYXHardware model number:	OX4-SRSoftware version number:	ORYX F/W v4.00 Oryx Data Collector v3.7.2.0data status	okinstallation	princeton_trtdifferential loss correction	single-endedforward channel	channel 2reverse channel	N/Adate	2019/09/12time	19:16:49forward acquisition time	15.00reverse acquisition time	0.00gamma	496.2192k internal	0.2325k external	0.2325temperature offset calibration	1.0139default loss term (dB/km)	0.3790temperature slope calibration	1.0000multiplexer offset coefficient	1.0000multiplexer slope coefficient	1.0000fibre end	0.00T internal ref (°C)	32.50T ext. ref 1 (°C)	3.17T ext. ref 2 (°C)	27.05length (m)	temperature (°C)	Stokes	anti-Stokes-747.200	-38.074	0.601	-0.322
-746.185	-164.764	0.434	-0.020
-745.171	40.696	0.218	-0.199
-744.156	53.928	0.381	-0.369
-743.142	-106.185	-0.683	-0.155
-742.127	-120.389	0.069	0.012
-741.112	-56.669	-0.080	0.036
-740.098	-200.000	0.029	0.343
-739.083	119.028	0.405	-0.505
-738.069	800.000	-0.158	0.592
-737.054	-61.722	-0.701	-0.296
-736.039	-26.182	-0.551	0.326
-735.025	209.054	-0.215	-0.340
-734.010	624.166	0.225	-0.573
-732.996	36.663	-0.201	-0.179
-731.981	22.998	-0.252	0.208
-730.966	-29.564	0.754	-0.434
-729.952	-95.867	-0.441	0.119
-728.937	-73.857	0.680	0.249
-727.923	-120.243	-0.687	-0.118
-726.908	800.000	-0.067	0.202
-725.894	363.005	0.172	-0.348
-724.879	-114.545	-0.581	0.112
-723.864	-200.000	-0.138	0.726
-722.850	-200.000	-0.123	-0.550
-721.835	800.000	-0.065	-0.247
-720.821	-168.100	-0.508	-0.020
-719.806	765.798	-0.364	-0.996
-718.791	-58.844	-0.523	-0.228
-717.777	-11.961	-0.264	-0.175
-716.762	490.572	0.147	-0.340
-715.748	168.754	-0.227	-0.326
-714.733	458.320	-0.357	-0.800
-713.718	133.723	-0.324	-0.423
-712.704	800.000	-0.219	0.855
-711.689	-106.122	-0.317	0.072
-710.675	-22.425	-1.251	0.763
-709.660	800.000	-0.133	-0.370
-708.645	1.205	0.325	0.235
-707.631	-147.476	-0.706	0.060
-706.616	-112.557	-0.594	0.119
-705.602	-77.965	-0.245	0.085
-704.587	8.570	0.665	-0.504
-703.572	314.743	-0.049	0.094
-702.558	92.099	-0.389	0.441
-701.543	5.090	-0.525	-0.389
-700.529	44.419	0.467	-0.432
-699.514	21.229	-0.408	0.334
-698.499	-64.689	-0.837	0.342
-697.485	28.885	-0.302	0.258
-696.470	72.700	-0.305	0.321
-695.456	426.625	0.142	0.309
-694.441	88.860	0.304	-0.341
-693.426	-200.000	-0.096	-0.515
-692.412	-101.218	-0.426	0.105
-691.397	-34.190	-0.576	0.319
-690.383	245.388	0.385	-0.652
-689.368	114.218	0.531	-0.650
-688.354	750.630	0.256	-0.695
-687.339	73.464	0.246	-0.260
-686.324	463.684	-0.524	-1.178
-685.310	800.000	0.210	-0.803
-684.295	226.947	0.496	-0.810
-683.281	-200.000	0.087	0.645
-682.266	210.032	0.281	0.444
-681.251	421.420	0.206	-0.444
-680.237	25.088	0.045	-0.037
-679.222	-23.969	0.505	-0.304
-678.208	26.560	0.344	-0.290
-677.193	277.062	-0.175	0.312
-676.178	-3.634	-0.340	0.238
-675.164	72.877	0.029	-0.030
-674.149	-28.195	-0.404	0.235
-673.135	-95.513	-0.348	0.094
-672.120	-200.000	0.064	0.889
-671.105	287.475	0.502	0.913
-670.091	-35.345	-0.310	-0.170
-669.076	-200.000	0.019	-0.637
-668.062	-200.000	0.070	0.313
-667.047	-51.347	0.433	0.204
-666.032	208.837	0.434	0.683
-665.018	35.460	-0.422	0.372
-664.003	-139.358	-0.068	0.007
-662.989	-200.000	-0.086	-0.402
-661.974	139.333	0.157	-0.207
-660.959	-58.794	-0.848	0.369
-659.945	800.000	0.220	0.711
-658.930	-169.972	-0.686	0.025
-657.916	439.060	-0.041	0.089
-656.901	-200.000	0.237	-1.078
-655.886	-200.000	-0.055	0.531
-654.872	-7.971	-0.816	-0.553
-653.857	-14.052	0.263	0.170
-652.843	36.609	-0.266	-0.236
-651.828	-200.000	-0.012	0.606
-650.814	-87.565	0.892	-0.271
-649.799	-107.887	0.908	-0.198
-648.784	800.000	-0.124	0.461
-647.770	221.728	-0.494	-0.799
-646.755	-200.000	-0.041	-0.219
-645.741	-98.679	0.200	0.051
-644.726	33.669	-0.708	0.619
-643.711	216.502	0.186	-0.298
-642.697	800.000	0.166	0.504
-641.682	800.000	-0.193	-0.747
-640.668	234.926	0.211	0.350
-639.653	-103.861	-0.765	-0.180
-638.638	-36.520	-0.556	-0.301
-637.624	-149.935	0.783	0.061
-636.609	-132.546	-0.931	0.120
-635.595	800.000	0.328	1.001
-634.580	107.733	0.608	-0.727
-633.565	47.745	0.258	-0.241
-632.551	92.018	0.394	-0.446
-631.536	-86.392	-0.380	0.117
-630.522	67.503	0.186	0.191
-629.507	800.000	-0.155	0.603
-628.492	-80.008	0.354	-0.119
-627.478	348.925	-0.300	-0.595
-626.463	130.045	0.386	0.496
-625.449	28.743	-0.261	-0.222
-624.434	153.078	0.135	-0.185
-623.419	-200.000	-0.016	0.528
-622.405	-200.000	-0.007	-0.057
-621.390	-200.000	-0.669	0.001
-620.376	-95.661	-0.336	-0.090
-619.361	-2.942	0.407	0.285
-618.346	16.669	-0.350	-0.278
-617.332	800.000	0.050	-0.138
-616.317	274.353	0.179	0.319
-615.303	136.794	-0.138	0.181
-614.288	461.097	0.208	0.466
-613.273	-71.831	-0.534	0.200
-612.259	-34.502	0.236	0.130
-611.244	800.000	-0.095	-0.370
-610.230	-119.535	0.380	-0.066
-609.215	-170.731	-0.757	0.026
-608.201	171.178	-0.146	-0.210
-607.186	-154.022	-1.371	0.094
-606.171	275.645	-0.162	0.288
-605.157	-60.583	0.833	0.355
-604.142	167.647	0.161	0.230
-603.128	212.125	-0.440	-0.696
-602.113	-94.453	0.362	0.099
-601.098	264.951	0.181	0.317
-600.084	67.845	-0.803	-0.823
-599.069	135.754	-0.686	0.896
-598.055	-0.274	-0.395	0.282
-597.040	800.000	0.087	-0.247
-596.025	626.334	-0.089	-0.225
-595.011	142.032	-0.230	0.306
-593.996	258.106	0.245	-0.422
-592.982	-127.557	-0.581	-0.085
-591.967	-11.945	-0.154	-0.101
-590.952	-200.000	-0.040	0.302
-589.938	-1.485	-0.172	0.122
-588.923	-107.969	-0.362	-0.079
-587.909	-135.848	-0.450	-0.053
-586.894	70.598	-0.565	-0.586
-585.879	-77.260	0.147	-0.051
-584.865	-80.583	-1.362	0.455
-583.850	372.163	0.086	0.175
-582.836	-59.647	0.804	-0.346
-581.821	84.200	-0.560	-0.613
-580.806	40.192	0.748	0.674
-579.792	308.772	0.424	0.793
-578.777	-200.000	-0.019	-0.515
-577.763	141.826	-0.305	0.405
-576.748	3.252	-0.713	0.520
-575.733	-187.456	0.923	0.012
-574.719	-141.567	-0.503	-0.051
-573.704	-103.632	0.289	-0.068
-572.690	800.000	-0.066	-0.205
-571.675	0.926	-0.220	-0.158
-570.661	209.778	0.295	-0.463
-569.646	278.354	0.295	-0.526
-568.631	74.306	-0.634	0.667
-567.617	-200.000	0.020	-0.184
-566.602	-173.599	0.550	0.017
-565.588	-16.744	-0.227	-0.144
-564.573	-200.000	-0.031	0.154
-563.558	-200.000	0.053	-0.269
-562.544	-200.000	-0.213	-1.140
-561.529	-67.751	1.593	-0.624
-560.515	-200.000	0.077	-0.535
-559.500	-130.782	-0.489	0.066
-558.485	-93.319	0.402	-0.112
-557.471	364.736	-0.510	1.029
-556.456	273.220	0.088	-0.156
-555.442	-4.647	0.365	-0.252
-554.427	156.143	-0.359	-0.496
-553.412	-200.000	0.036	0.665
-552.398	429.743	0.129	-0.280
-551.383	-148.679	-1.345	0.110
-550.369	-75.943	-0.631	0.224
-549.354	-200.000	0.069	0.425
-548.339	-200.000	-0.100	0.862
-547.325	106.534	0.634	-0.753
-546.310	800.000	-0.122	-0.340
-545.296	15.839	-0.597	0.470
-544.281	566.430	0.222	-0.539
-543.266	800.000	-0.069	-0.211
-542.252	-200.000	-0.014	0.447
-541.237	-20.201	0.428	0.264
-540.223	-200.000	0.002	0.516
-539.208	-200.000	0.102	-0.812
-538.193	17.656	-0.410	0.327
-537.179	-106.654	0.734	0.163
-536.164	-107.821	-0.669	-0.146
-535.150	-200.000	-0.038	-0.204
-534.135	39.277	-0.268	-0.240
-533.121	-200.000	0.056	-0.395
-532.106	800.000	-0.197	0.655
-531.091	85.187	0.182	-0.199
-530.077	-31.529	0.790	0.444
-529.062	-62.640	-0.444	0.184
-528.048	-55.051	0.359	0.162
-527.033	-131.943	0.997	0.130
-526.018	103.119	0.052	0.061
-525.004	-200.000	0.009	-0.485
-523.989	-149.269	0.412	0.033
-522.975	-79.795	-0.724	0.244
-521.960	-200.000	-0.106	-0.493
-520.945	800.000	-0.140	0.450
-519.931	-131.413	0.442	-0.058
-518.916	-200.000	-0.076	-0.489
-517.902	-114.793	-0.325	0.062
-516.887	-200.000	0.047	0.495
-515.872	7.970	0.383	0.287
-514.858	-121.957	0.669	0.110
-513.843	-70.812	0.461	0.174
-512.829	-200.000	-0.021	-0.323
-511.814	216.500	-0.099	0.158
-510.799	-166.409	0.246	-0.010
-509.785	206.428	0.262	-0.408
-508.770	-115.006	0.093	0.018
-507.756	76.503	-0.115	0.121
-506.741	800.000	0.229	0.741
-505.726	490.606	-0.303	0.692
-504.712	-50.332	-0.291	0.138
-503.697	-156.749	0.834	-0.051
-502.683	-200.000	-0.105	-0.540
-501.668	-200.000	0.028	-0.670
-500.653	-31.492	-0.182	-0.102
-499.639	-31.538	-0.604	-0.339
-498.624	-91.031	0.378	0.109
-497.610	-161.808	0.609	-0.031
-496.595	7.084	0.702	-0.523
-495.581	-158.308	-0.593	-0.035
-494.566	283.264	0.257	-0.460
-493.551	-200.000	-0.049	-0.374
-492.537	367.602	-0.217	0.439
-491.522	-119.592	0.833	0.144
-490.508	-200.000	-0.071	-0.679
-489.493	54.398	0.467	0.449
-488.478	-112.794	0.211	0.042
-487.464	800.000	-0.135	-0.456
-486.449	134.100	0.162	0.210
-485.435	-200.000	0.001	0.179
-484.420	800.000	0.103	0.322
-483.405	272.050	0.233	0.410
-482.391	-200.000	0.105	-0.827
-481.376	-200.000	0.040	0.366
-480.362	-126.290	-0.675	-0.101
-479.347	-200.000	0.045	0.795
-478.332	-200.000	-0.041	0.502
-477.318	76.007	-0.145	0.154
-476.303	54.031	0.661	0.634
-475.289	-200.000	0.039	0.211
-474.274	-157.978	-0.857	-0.050
-473.259	59.127	-0.159	-0.156
-472.245	-67.489	0.373	0.146
-471.230	692.715	0.127	0.333
-470.216	800.000	0.178	0.730
-469.201	-200.000	0.031	0.255
-468.186	36.345	0.586	-0.515
-467.172	-9.787	0.555	0.369
-466.157	79.240	0.171	0.182
-465.143	800.000	0.099	0.323
-464.128	-49.466	-0.555	0.264
-463.113	13.816	0.646	-0.501
-462.099	191.043	0.308	0.462
-461.084	-126.160	0.412	0.062
-460.070	20.630	0.673	0.543
-459.055	500.954	0.155	-0.357
-458.040	-166.505	-0.446	-0.019
-457.026	54.275	-0.353	0.339
-456.011	-100.554	-0.550	0.136
-454.997	-200.000	0.003	0.178
-453.982	-0.466	-0.825	0.584
-452.968	800.000	0.150	-0.629
-451.953	243.968	0.328	0.549
-450.938	74.689	0.586	-0.615
-449.924	-51.439	0.141	-0.066
-448.909	-149.540	-0.547	0.043
-447.895	-200.000	-0.072	0.616
-446.880	-67.719	-0.722	0.282
-445.865	-48.328	-0.140	-0.067
-444.851	-85.589	0.426	-0.132
-443.836	-200.000	-0.062	0.608
-442.822	56.950	0.677	-0.657
-441.807	709.929	-0.102	-0.268
-440.792	119.028	-0.505	-0.623
-439.778	182.381	-0.061	0.090
-438.763	-70.924	0.338	-0.127
-437.749	-132.486	0.288	0.037
-436.734	584.554	-0.046	-0.112
-435.719	15.195	0.433	0.339
-434.705	-200.000	-0.152	-0.793
-433.690	-21.499	-0.299	0.182
-432.676	800.000	-0.147	0.533
-431.661	485.228	-0.049	0.112
-430.646	-50.400	0.733	-0.345
-429.632	800.000	0.160	0.532
-428.617	14.736	-0.202	-0.157
-427.603	-119.218	-0.262	0.046
-426.588	-55.094	-0.869	-0.390
-425.573	711.124	0.209	-0.552
-424.559	17.625	-0.902	0.714
-423.544	-200.000	0.148	0.691
-422.530	223.672	0.075	0.121
-421.515	143.748	0.577	0.765
-420.500	-200.000	-0.177	1.123
-419.486	52.521	0.435	-0.414
-418.471	393.976	0.394	0.816
-417.457	800.000	0.116	0.441
-416.442	150.810	-0.092	-0.124
-415.428	172.485	0.640	-0.917
-414.413	800.000	0.190	0.783
-413.398	-110.852	0.993	0.204
-412.384	800.000	0.092	0.325
-411.369	-127.141	-0.590	0.086
-410.355	17.390	0.479	-0.379
-409.340	800.000	0.077	0.310
-408.325	43.824	-0.408	-0.372
-407.311	95.425	-0.227	0.257
-406.296	-200.000	0.021	-0.345
-405.282	-200.000	0.054	-0.750
-404.267	-200.000	-0.130	-0.878
-403.252	31.849	0.532	0.456
-402.238	81.863	0.284	0.306
-401.223	76.767	0.314	0.332
-400.209	-106.571	0.626	0.139
-399.194	-99.351	-0.592	-0.149
-398.179	85.031	-0.284	-0.310
-397.165	61.009	-0.870	-0.860
-396.150	-200.000	0.182	0.825
-395.136	750.205	-0.144	0.386
-394.121	-200.000	0.058	-0.266
-393.106	-106.825	0.411	-0.091
-392.092	-200.000	0.122	-1.089
-391.077	-200.000	-0.027	0.450
-390.063	-104.968	0.421	-0.096
-389.048	320.380	0.483	0.913
-388.033	-87.496	-0.524	0.158
-387.019	37.406	-0.387	0.341
-386.004	6.386	-0.794	0.586
-384.990	-55.809	-0.455	-0.202
-383.975	-121.478	-0.445	0.074
-382.960	55.593	0.286	-0.275
-381.946	-168.280	1.085	0.042
-380.931	-135.991	-0.768	0.090
-379.917	547.388	-0.365	-0.870
-378.902	87.873	0.606	-0.668
-377.888	-86.100	0.205	0.063
-376.873	271.867	0.070	0.123
-375.858	0.905	0.435	-0.310
-374.844	571.130	-0.131	0.316
-373.829	800.000	-0.246	0.771
-372.815	800.000	-0.123	-0.513
-371.800	-57.770	-0.817	-0.355
-370.785	800.000	-0.055	-0.155
-369.771	-2.706	-0.714	0.496
-368.756	-200.000	0.051	0.539
-367.742	-15.832	-0.537	-0.340
-366.727	-99.819	0.768	0.191
-365.712	-159.334	0.368	-0.020
-364.698	24.413	0.418	-0.344
-363.683	-57.297	0.201	0.088
-362.669	-115.525	0.260	-0.049
-361.654	-24.542	-0.253	0.150
-360.639	50.703	0.593	-0.558
-359.625	-8.758	0.618	-0.412
-358.610	-200.000	0.019	-0.269
-357.596	-200.000	-0.082	-0.377
-356.581	276.009	0.358	0.632
-355.566	601.451	0.140	0.347
-354.552	-200.000	-0.057	-0.760
-353.537	-98.384	0.497	0.126
-352.523	407.336	0.289	-0.607
-351.508	800.000	0.252	-0.821
-350.493	-200.000	-0.010	0.430
-349.479	-38.324	0.149	-0.078
-348.464	800.000	-0.295	0.902
-347.450	-181.396	0.233	-0.005
-346.435	51.405	-0.325	0.307
-345.420	145.805	0.324	-0.431
-344.406	25.955	0.088	-0.072
-343.391	-53.243	0.286	-0.130
-342.377	-6.142	0.510	0.346
-341.362	-191.433	0.702	0.007
-340.348	-59.299	-0.385	0.165
-339.333	-200.000	-0.007	0.584
-338.318	-200.000	0.027	-0.124
-337.304	-12.485	-0.499	0.324
-336.289	-102.956	-1.046	-0.247
-335.275	-158.042	-0.403	0.024
-334.260	-200.000	0.123	-0.563
-333.245	240.412	0.062	-0.102
-332.231	-93.368	-0.595	-0.164
-331.216	44.589	-0.096	-0.087
-330.202	-69.219	-0.447	0.170
-329.187	205.128	0.271	0.418
-328.172	-200.000	-0.027	0.156
-327.158	800.000	-0.037	0.110
-326.143	40.589	-0.247	-0.221
-325.129	410.101	-0.299	-0.629
-324.114	117.285	-0.313	0.382
-323.099	-200.000	0.053	0.404
-322.085	122.697	-0.300	0.373
-321.070	788.190	-0.217	0.591
-320.056	800.000	-0.212	0.650
-319.041	42.537	0.676	0.610
-318.026	-138.682	-0.434	-0.047
-317.012	-120.906	0.333	-0.056
-315.997	-2.248	0.492	-0.342
-314.983	16.606	-0.543	-0.426
-313.968	-192.533	-0.166	-0.002
-312.953	-98.036	0.695	0.178
-311.939	8.308	-0.329	0.245
-310.924	190.843	0.251	0.374
-309.910	-123.555	-0.948	0.149
-308.895	166.976	0.361	-0.508
-307.880	-171.299	0.552	-0.018
-306.866	-200.000	0.251	-1.099
-305.851	800.000	-0.012	0.043
-304.837	183.079	0.177	-0.260
-303.822	-81.876	0.179	-0.058
-302.807	-152.409	0.478	0.034
-301.793	33.397	-0.458	-0.394
-300.778	155.118	0.501	-0.683
-299.764	226.136	0.239	-0.385
-298.749	58.763	0.516	0.503
-297.735	-68.712	-0.687	0.264
-296.720	75.039	-0.362	-0.378
-295.705	107.768	0.378	0.446
-294.691	800.000	-0.049	-0.166
-293.676	61.113	0.381	-0.375
-292.662	-172.180	-1.282	-0.041
-291.647	11.696	-0.667	-0.507
-290.632	341.170	-0.166	-0.322
-289.618	800.000	-0.136	0.583
-288.603	-200.000	0.138	-0.677
-287.589	-115.257	0.534	0.100
-286.574	-200.000	-0.081	0.361
-285.559	515.878	-0.113	-0.261
-284.545	800.000	-0.108	0.342
-283.530	800.000	0.193	-0.682
-282.516	-32.701	0.208	-0.115
-281.501	371.375	0.124	-0.249
-280.486	242.517	-0.331	0.549
-279.472	-105.607	-0.333	-0.075
-278.457	-90.486	0.555	0.159
-277.443	-153.447	1.041	0.072
-276.428	-187.174	-0.496	0.007
-275.413	-67.693	0.419	0.162
-274.399	154.028	-0.046	-0.062
-273.384	800.000	-0.082	0.319
-272.370	-200.000	0.704	0.001
-271.355	-183.017	0.308	-0.005
-270.340	82.108	0.131	-0.141
-269.326	800.000	-0.142	0.482
-268.311	-200.000	0.028	-0.138
-267.297	113.769	-0.720	-0.867
-266.282	-70.742	0.625	0.234
-265.267	202.653	0.366	0.559
-264.253	18.965	0.937	-0.744
-263.238	-57.694	0.186	0.080
-262.224	-200.000	-0.030	-0.163
-261.209	800.000	-0.204	-0.839
-260.195	-53.617	0.041	0.018
-259.180	379.300	0.059	-0.119
-258.165	-90.446	-0.462	0.133
-257.151	-60.775	0.669	0.281
-256.136	23.619	-0.512	0.417
-255.122	166.242	-0.591	-0.828
-254.107	202.272	0.437	-0.668
-253.092	252.198	0.311	-0.525
-252.078	98.779	0.202	0.230
-251.063	240.797	0.435	-0.718
-250.049	-117.195	0.287	0.052
-249.034	-93.626	-0.692	-0.189
-248.019	-200.000	0.067	-0.401
-247.005	85.824	-0.613	0.667
-245.990	121.411	-0.292	-0.359
-244.976	77.628	0.608	-0.641
-243.961	-103.135	-0.575	0.135
-242.946	-106.728	0.190	-0.042
-241.932	800.000	0.036	0.147
-240.917	71.193	-0.162	-0.166
-239.903	-200.000	0.063	0.353
-238.888	-83.415	-1.007	-0.319
-237.873	-5.673	0.318	0.216
-236.859	800.000	0.181	-0.639
-235.844	-100.344	0.207	-0.051
-234.830	232.525	0.139	-0.226
-233.815	218.214	-0.400	0.632
-232.800	318.705	0.113	0.212
-231.786	95.713	-0.220	-0.248
-230.771	576.663	0.219	-0.529
-229.757	-200.000	-0.071	-1.058
-228.742	-129.703	-0.135	-0.018
-227.727	135.134	-0.051	-0.065
-226.713	-45.791	-0.630	-0.308
-225.698	111.215	-0.315	0.376
-224.684	-200.000	0.034	0.212
-223.669	-1.549	0.374	-0.261
-222.655	-200.000	-0.004	-0.521
-221.640	310.463	-0.216	0.400
-220.625	624.828	-0.244	0.607
-219.611	-93.948	-0.605	0.164
-218.596	505.432	0.155	-0.354
-217.582	-155.117	-0.401	-0.026
-216.567	-119.366	-0.764	-0.131
-215.552	402.081	0.291	0.605
-214.538	-200.000	0.074	-0.590
-213.523	129.039	-0.127	0.161
-212.509	143.689	-0.265	-0.349
-211.494	7.704	-0.659	0.488
-210.479	-70.973	-1.101	-0.410
-209.465	-200.000	-0.020	1.128
-208.450	-133.966	-0.772	0.095
-207.436	800.000	0.149	-0.471
-206.421	-68.170	-1.129	0.434
-205.406	-64.597	0.257	0.103
-204.392	-200.000	-0.044	0.772
-203.377	-177.817	0.057	0.001
-202.363	604.917	0.165	0.405
-201.348	-91.515	-0.368	-0.104
-200.333	800.000	0.169	-0.514
-199.319	-69.292	-0.437	-0.166
-198.304	221.423	0.341	0.540
-197.290	-200.000	0.045	-0.934
-196.275	-133.182	-0.117	-0.015
-195.260	-96.420	0.022	0.006
-194.246	800.000	0.085	-0.283
-193.231	-200.000	-0.118	-0.876
-192.217	1.462	-0.492	0.350
-191.202	-72.495	0.214	0.078
-190.187	-13.423	0.814	-0.521
-189.173	-130.999	0.490	0.065
-188.158	800.000	-0.174	-0.544
-187.144	21.000	0.461	0.369
-186.129	-200.000	0.192	-0.871
-185.114	64.843	0.097	-0.096
-184.100	0.585	0.229	-0.161
-183.085	-166.188	-0.590	0.025
-182.071	397.267	-0.399	-0.823
-181.056	153.015	-0.066	0.089
-180.042	493.469	0.318	-0.720
-179.027	-200.000	0.011	0.810
-178.012	-91.752	0.614	0.172
-176.998	-200.000	0.083	0.558
-175.983	292.855	0.191	0.343
-174.969	40.695	-0.164	-0.146
-173.954	800.000	0.135	0.523
-172.939	-68.613	0.706	0.270
-171.925	699.746	0.193	0.500
-170.910	-134.372	-0.096	0.012
-169.896	639.800	-0.220	-0.551
-168.881	-200.000	-0.019	-0.125
-167.866	268.879	0.165	-0.286
-166.852	304.005	-0.132	0.241
-165.837	-200.000	0.038	0.207
-164.823	-157.874	0.347	-0.020
-163.808	40.457	0.210	-0.186
-162.793	-175.166	-0.844	-0.023
-161.779	-180.152	-0.256	-0.005
-160.764	193.594	-0.297	0.443
-159.750	-1.467	0.743	0.516
-158.735	681.126	-0.114	0.292
-157.720	165.042	0.171	0.238
-156.706	124.110	0.344	-0.426
-155.691	74.824	-0.711	0.738
-154.677	627.758	0.074	0.185
-153.662	-21.383	-0.419	0.252
-152.647	51.690	0.678	-0.636
-151.633	82.127	0.098	-0.104
-150.618	225.281	-0.519	0.828
-149.604	-200.000	0.014	0.453
-148.589	275.200	-0.391	-0.683
-147.574	-200.000	-0.019	0.282
-146.560	-200.000	0.074	-1.044
-145.545	-200.000	-0.087	0.562
-144.531	-44.949	-0.511	-0.251
-143.516	189.708	0.201	-0.297
-142.502	-200.000	-0.007	0.213
-141.487	305.184	-0.280	0.513
-140.472	354.774	-0.325	-0.637
-139.458	45.487	0.414	-0.377
-138.443	-105.438	0.110	0.025
-137.429	-78.760	-0.084	0.028
-136.414	-200.000	0.075	-0.486
-135.399	6.928	-0.425	-0.312
-134.385	485.494	0.519	1.164
-133.370	94.153	-0.305	-0.341
-132.356	-135.114	-0.929	-0.110
-131.341	-30.382	0.538	-0.301
-130.326	-149.724	0.286	-0.022
-129.312	-200.000	-0.006	0.242
-128.297	-45.891	0.274	-0.133
-127.283	-97.878	0.864	0.220
-126.268	-20.099	0.438	0.266
-125.253	21.954	0.167	-0.134
-124.239	800.000	0.191	0.593
-123.224	25.264	-0.166	-0.135
-122.210	-130.505	0.385	-0.051
-121.195	54.851	0.325	-0.309
-120.180	-53.453	0.242	0.109
-119.166	-200.000	0.143	1.278
-118.151	0.009	-0.358	0.251
-117.137	-68.339	-0.482	0.185
-116.122	285.451	-0.064	-0.114
-115.107	-173.627	-0.131	-0.004
-114.093	9.383	-0.326	-0.242
-113.078	-58.407	-0.262	-0.112
-112.064	251.246	-0.271	0.454
-111.049	-39.789	-0.336	-0.173
-110.034	-159.279	0.353	0.020
-109.020	126.610	0.064	0.079
-108.005	-100.404	0.577	0.141
-106.991	-200.000	-0.154	-0.757
-105.976	21.563	-0.212	0.170
-104.962	371.238	-0.350	0.700
-103.947	-58.076	0.260	0.112
-102.932	158.410	0.422	-0.576
-101.918	-139.770	-0.503	-0.053
-100.903	-160.333	-0.088	-0.005
-99.889	-32.179	-0.150	0.083
-98.874	74.366	-0.283	-0.293
-97.859	192.967	0.294	-0.437
-96.845	-31.793	0.539	0.297
-95.830	-26.516	-0.853	0.492
-94.816	49.376	-0.416	0.385
-93.801	31.633	0.336	-0.285
-92.786	800.000	0.070	0.209
-91.772	-160.973	0.114	-0.006
-90.757	-47.104	-0.720	0.345
-89.743	-44.274	0.438	0.216
-88.728	-23.655	0.777	-0.458
-87.713	-197.353	-0.573	-0.004
-86.699	660.525	0.141	-0.356
-85.684	222.068	0.220	0.349
-84.670	-128.813	0.051	0.007
-83.655	-200.000	-0.093	0.849
-82.640	-47.175	0.207	0.099
-81.626	-30.253	-0.612	0.342
-80.611	800.000	-0.106	-0.377
-79.597	-139.367	0.261	-0.027
-78.582	-1.751	-0.443	0.306
-77.567	101.281	0.294	-0.337
-76.553	-200.000	-0.017	0.459
-75.538	-200.000	0.067	-0.308
-74.524	-51.377	-0.107	-0.049
-73.509	800.000	-0.128	-0.460
-72.494	185.579	-0.644	0.939
-71.480	-109.431	-0.666	-0.138
-70.465	345.691	-0.429	-0.829
-69.451	40.601	-0.739	0.655
-68.436	-144.179	-0.153	0.014
-67.422	-29.812	-0.612	0.343
-66.407	58.670	0.171	-0.165
-65.392	466.307	-0.223	-0.490
-64.378	274.050	0.143	0.249
-63.363	-25.771	-0.667	-0.386
-62.349	-22.464	0.437	0.260
-61.334	13.716	-1.499	-1.144
-60.319	70.219	0.644	0.653
-59.305	258.851	0.597	-1.011
-58.290	800.000	0.203	0.563
-57.276	800.000	0.652	2.212
-56.261	-200.000	96.225	598.382
-55.246	682.105	1353.075	3463.264
-54.232	204.367	2522.202	3839.041
-53.217	113.224	2246.513	2675.933
-52.203	41.812	1881.730	1675.112
-51.188	35.751	1673.850	1444.641
-50.173	33.061	1630.496	1387.446
-49.159	51.409	1678.142	1564.927
-48.144	51.870	1695.054	1584.068
-47.130	35.423	1654.969	1425.682
-46.115	32.419	1642.204	1392.438
-45.100	32.240	1636.608	1386.319
-44.086	32.431	1633.599	1385.120
-43.071	32.560	1629.960	1382.926
-42.057	32.363	1628.144	1379.885
-41.042	32.707	1625.461	1380.081
-40.027	32.480	1624.276	1377.355
-39.013	32.315	1623.320	1375.283
-37.998	32.381	1621.347	1374.040
-36.984	32.474	1620.006	1373.531
-35.969	32.518	1617.549	1371.708
-34.954	32.628	1615.081	1370.364
-33.940	32.816	1612.820	1369.755
-32.925	32.579	1612.672	1367.855
-31.911	32.405	1611.578	1365.610
-30.896	32.273	1610.457	1363.652
-29.881	32.446	1607.615	1362.443
-28.867	32.436	1606.995	1361.789
-27.852	32.454	1605.219	1360.361
-26.838	32.422	1603.804	1358.879
-25.823	32.385	1602.083	1357.096
-24.809	32.378	1600.995	1356.074
-23.794	32.493	1600.266	1356.226
-22.779	32.548	1598.177	1354.797
-21.765	32.459	1596.951	1353.065
-20.750	32.519	1594.033	1350.968
-19.736	32.631	1593.382	1351.167
-18.721	32.674	1591.317	1349.670
-17.706	32.245	1590.841	1346.142
-16.692	32.371	1590.255	1346.498
-15.677	32.622	1587.533	1345.929
-14.663	32.564	1585.802	1343.998
-13.648	32.677	1584.627	1343.756
-12.633	32.644	1583.672	1342.657
-11.619	32.804	1581.372	1341.788
-10.604	32.499	1580.250	1338.614
-9.590	32.368	1579.377	1336.895
-8.575	32.567	1578.175	1337.233
-7.560	32.604	1576.681	1336.179
-6.546	32.420	1575.446	1333.773
-5.531	32.640	1574.013	1334.064
-4.517	32.442	1573.578	1332.241
-3.502	32.399	1571.957	1330.515
-2.487	32.735	1570.350	1331.474
-1.473	32.175	1559.774	1318.525
-0.458	29.187	1540.189	1281.175
0.556	27.205	1538.398	1250.391
1.571	24.533	1562.364	1251.064
2.586	23.659	1576.275	1255.913
3.600	20.972	1522.729	1194.754
4.615	12.244	1414.936	1054.258
5.629	4.792	1349.297	959.477
6.644	3.241	1341.903	944.624
7.659	3.050	1340.620	942.464
8.673	3.149	1340.377	942.815
9.688	3.240	1338.339	941.855
10.702	2.831	1335.105	937.001
11.717	6.599	1341.027	964.144
12.731	15.884	1358.438	1033.840
13.746	23.625	1370.769	1090.903
14.761	25.004	1371.359	1099.748
15.775	24.597	1371.006	1096.869
16.790	24.536	1369.567	1095.247
17.804	24.433	1368.988	1094.058
18.819	24.379	1369.293	1093.873
19.834	24.568	1367.312	1093.347
20.848	24.541	1366.449	1092.395
21.863	24.416	1367.507	1092.382
22.877	24.629	1365.282	1091.810
23.892	24.604	1364.043	1090.568
24.907	24.503	1363.985	1089.809
25.921	24.488	1363.708	1089.402
26.936	24.598	1361.206	1087.977
27.950	24.565	1360.865	1087.407
28.965	24.699	1359.611	1087.123
29.980	24.615	1358.425	1085.564
30.994	24.573	1358.770	1085.491
32.009	24.843	1356.860	1085.507
33.023	24.793	1355.119	1083.717
34.038	24.542	1355.409	1082.332
35.053	24.583	1354.435	1081.708
36.067	24.370	1354.170	1080.109
37.082	24.508	1350.893	1078.233
38.096	24.514	1350.761	1078.068
39.111	24.599	1350.710	1078.444
40.126	24.486	1349.720	1076.876
41.140	24.545	1347.603	1075.452
42.155	24.228	1348.055	1073.807
43.169	24.351	1347.488	1073.997
44.184	24.445	1347.262	1074.289
45.199	24.330	1347.353	1073.578
46.213	24.529	1347.306	1074.638
47.228	24.762	1345.689	1074.655
48.242	24.427	1346.522	1073.213
49.257	24.688	1343.568	1072.327
50.271	24.449	1342.261	1069.755
51.286	24.659	1341.059	1069.959
52.301	24.563	1339.778	1068.272
53.315	24.545	1339.126	1067.552
54.330	24.489	1338.115	1066.317
55.344	24.554	1337.629	1066.221
56.359	24.522	1336.767	1065.249
57.374	24.569	1335.057	1064.073
58.388	24.287	1334.561	1061.903
59.403	24.201	1334.197	1061.010
60.417	24.458	1333.646	1062.006
61.432	24.364	1332.455	1060.403
62.447	24.229	1331.560	1058.792
63.461	24.274	1330.145	1057.844
64.476	24.193	1329.246	1056.557
65.490	24.357	1328.624	1056.938
66.505	23.979	1328.168	1054.246
67.520	24.260	1326.164	1054.221
68.534	24.102	1325.726	1052.847
69.549	24.197	1323.923	1051.883
70.563	24.174	1323.727	1051.496
71.578	24.023	1323.038	1049.968
72.593	24.012	1320.864	1048.082
73.607	23.882	1320.676	1047.075
74.622	23.963	1320.918	1047.652
75.636	24.207	1318.996	1047.466
76.651	24.116	1318.647	1046.562
77.666	24.116	1318.605	1046.436
78.680	24.236	1317.650	1046.295
79.695	24.180	1316.819	1045.210
80.709	24.274	1316.616	1045.511
81.724	24.419	1316.051	1045.815
82.739	24.450	1315.305	1045.312
83.753	24.682	1313.386	1045.054
84.768	24.726	1313.609	1045.392
85.782	24.722	1312.592	1044.467
86.797	24.898	1311.705	1044.701
87.812	24.576	1309.877	1041.273
88.826	24.916	1308.824	1042.324
89.841	24.683	1308.131	1040.322
90.855	24.478	1308.377	1039.234
91.870	24.753	1306.611	1039.337
92.884	24.791	1305.236	1038.375
93.899	24.816	1304.857	1038.125
94.914	24.892	1304.453	1038.153
95.928	24.882	1302.819	1036.702
96.943	24.859	1302.791	1036.453
97.957	24.834	1301.442	1035.143
98.972	24.813	1300.317	1034.036
99.987	24.728	1299.256	1032.612
101.001	24.608	1298.781	1031.450
102.016	24.701	1297.745	1031.070
103.030	25.008	1296.368	1031.657
104.045	24.704	1296.279	1029.741
105.060	24.672	1295.528	1028.871
106.074	24.308	1293.618	1025.169
107.089	24.161	1292.859	1023.634
108.103	24.329	1291.518	1023.444
109.118	24.252	1290.278	1021.934
110.133	24.138	1289.503	1020.573
111.147	24.039	1286.917	1017.869
112.162	24.040	1286.776	1017.676
113.176	24.351	1285.633	1018.458
114.191	24.668	1283.999	1018.883
115.206	24.303	1285.505	1017.902
116.220	24.476	1284.279	1017.824
117.235	24.244	1282.396	1014.921
118.249	23.852	1280.787	1011.333
119.264	24.218	1279.127	1012.013
120.279	24.207	1278.984	1011.746
121.293	24.318	1278.592	1011.978
122.308	24.092	1277.444	1009.695
123.322	23.611	1278.000	1007.315
124.337	24.101	1276.453	1008.784
125.352	24.137	1274.531	1007.381
126.366	24.106	1274.066	1006.748
127.381	24.314	1273.351	1007.268
128.395	23.899	1271.925	1003.708
129.410	23.907	1270.662	1002.672
130.424	23.799	1271.204	1002.398
131.439	23.848	1269.960	1001.607
132.454	24.150	1270.043	1003.281
133.468	24.442	1268.859	1003.904
134.483	24.153	1268.102	1001.591
135.497	24.419	1266.727	1001.907
136.512	24.268	1266.119	1000.492
137.527	24.280	1265.435	999.930
138.541	24.296	1262.969	997.983
139.556	24.481	1262.761	998.766
140.570	24.376	1262.055	997.533
141.585	24.705	1261.216	998.617
142.600	24.603	1260.115	997.088
143.614	24.886	1258.921	997.632
144.629	24.685	1259.007	996.491
145.643	24.532	1258.561	995.201
146.658	24.549	1256.127	993.281
147.673	24.516	1254.466	991.697
148.687	24.525	1254.500	991.686
149.702	24.346	1253.289	989.646
150.716	24.047	1251.903	986.807
151.731	23.851	1250.429	984.475
152.746	24.108	1249.304	984.924
153.760	24.252	1249.898	986.099
154.775	24.567	1248.443	986.605
155.789	24.708	1246.597	985.834
156.804	24.857	1245.391	985.619
157.819	24.643	1244.155	983.374
158.833	24.505	1244.040	982.436
159.848	24.764	1243.564	983.400
160.862	24.487	1243.539	981.769
161.877	24.355	1241.544	979.379
162.892	24.331	1241.091	978.805
163.906	24.061	1240.620	976.868
164.921	23.830	1238.816	974.094
165.935	24.091	1239.246	975.777
166.950	24.579	1237.250	976.787
167.964	24.430	1236.519	975.306
168.979	24.582	1235.412	975.178
169.994	24.419	1235.849	974.546
171.008	24.209	1235.402	972.961
172.023	24.638	1233.661	973.844
173.037	24.631	1234.210	974.152
174.052	24.459	1233.040	972.204
175.067	24.620	1231.280	971.607
176.081	24.202	1230.632	968.739
177.096	24.334	1229.736	968.666
178.110	24.258	1229.238	967.776
179.125	24.106	1228.234	966.073
180.140	24.531	1226.849	967.204
181.154	24.311	1226.515	965.662
182.169	24.458	1223.944	964.345
183.183	24.458	1224.013	964.317
184.198	24.690	1222.539	964.318
185.213	24.687	1221.841	963.670
186.227	24.518	1222.967	963.556
187.242	24.422	1221.018	961.420
188.256	24.577	1219.945	961.324
189.271	24.631	1219.681	961.323
190.286	24.499	1217.832	959.074
191.300	24.423	1216.746	957.725
192.315	24.496	1215.087	956.725
193.329	24.528	1216.278	957.746
194.344	24.189	1216.012	955.635
195.359	24.177	1213.557	953.555
196.373	24.162	1212.184	952.314
197.388	24.052	1213.963	953.041
198.402	24.310	1212.793	953.415
199.417	24.549	1212.981	954.758
200.432	25.038	1212.228	956.691
201.446	24.720	1212.232	954.911
202.461	24.646	1211.706	954.019
203.475	24.848	1210.739	954.249
204.490	24.604	1208.249	950.904
205.504	24.647	1206.474	949.650
206.519	24.675	1205.008	948.565
207.534	24.231	1205.172	946.250
208.548	23.904	1205.188	944.443
209.563	24.324	1203.355	945.147
210.577	24.291	1202.455	944.186
211.592	23.893	1203.170	942.555
212.607	24.555	1202.536	945.480
213.621	24.830	1200.990	945.634
214.636	24.535	1199.925	943.154
215.650	24.536	1199.297	942.584
216.665	24.783	1198.032	942.804
217.680	24.740	1198.154	942.591
218.694	25.014	1196.317	942.504
219.709	24.677	1196.139	940.506
220.723	24.895	1194.733	940.467
221.738	24.619	1194.578	938.810
222.753	24.579	1193.491	937.661
223.767	24.359	1192.130	935.358
224.782	24.489	1193.092	936.714
225.796	24.708	1192.872	937.604
226.811	24.594	1192.456	936.597
227.826	24.630	1191.377	935.853
228.840	24.498	1189.794	933.841
229.855	24.487	1189.656	933.590
230.869	24.611	1188.329	933.113
231.884	24.329	1187.865	931.194
232.899	24.387	1186.627	930.443
233.913	24.440	1185.620	929.847
234.928	24.140	1185.980	928.485
235.942	24.426	1184.690	928.881
236.957	23.909	1184.050	925.605
237.972	24.125	1183.140	925.935
238.986	24.151	1182.236	925.284
240.001	24.176	1182.388	925.451
241.015	24.258	1181.420	925.036
242.030	24.374	1180.417	924.770
243.045	24.316	1180.426	924.396
244.059	24.204	1180.419	923.727
245.074	24.486	1179.077	924.057
246.088	24.707	1177.152	923.606
247.103	24.739	1177.708	924.126
248.117	24.880	1176.788	924.048
249.132	25.078	1175.961	924.342
250.147	24.983	1176.612	924.279
251.161	25.212	1175.544	924.538
252.176	25.010	1175.257	923.190
253.190	25.342	1173.859	923.718
254.205	25.660	1172.588	924.270
255.220	25.564	1171.789	923.069
256.234	25.534	1172.607	923.476
257.249	25.473	1172.862	923.283
258.263	25.358	1170.935	921.095
259.278	25.478	1170.062	920.938
260.293	25.458	1169.399	920.231
261.307	25.193	1170.146	919.381
262.322	25.186	1169.293	918.594
263.336	25.421	1168.266	918.909
264.351	25.319	1167.753	917.903
265.366	25.426	1166.375	917.285
266.380	25.442	1166.291	917.218
267.395	25.421	1165.399	916.329
268.409	25.345	1165.080	915.609
269.424	25.180	1164.278	914.060
270.439	25.207	1163.785	913.727
271.453	25.361	1163.278	914.032
272.468	25.389	1161.480	912.680
273.482	25.011	1161.217	910.474
274.497	24.765	1160.747	908.775
275.512	24.956	1159.054	908.337
276.526	24.996	1159.115	908.505
277.541	24.922	1158.269	907.390
278.555	25.233	1157.542	908.316
279.570	25.239	1157.856	908.508
280.585	25.295	1157.437	908.384
281.599	25.540	1155.191	907.777
282.614	25.119	1155.265	905.632
283.628	24.997	1153.551	903.590
284.643	24.961	1152.527	902.526
285.657	25.056	1151.371	902.020
286.672	25.076	1151.023	901.770
287.687	24.850	1150.878	900.437
288.701	25.014	1150.054	900.541
289.716	25.265	1148.320	900.363
290.730	25.180	1147.502	899.213
291.745	25.124	1146.920	898.396
292.760	24.991	1146.728	897.502
293.774	25.184	1145.758	897.627
294.789	25.426	1145.715	898.726
295.803	25.537	1145.193	898.793
296.818	25.070	1144.352	895.718
297.833	25.240	1142.994	895.426
298.847	25.103	1142.631	894.377
299.862	25.158	1142.402	894.395
300.876	25.139	1142.045	893.940
301.891	25.277	1141.107	893.816
302.906	25.369	1140.293	893.558
303.920	25.738	1139.733	894.870
304.935	25.705	1139.103	894.133
305.949	25.585	1139.091	893.450
306.964	25.693	1138.700	893.602
307.979	25.796	1137.470	893.067
308.993	25.506	1136.653	890.908
310.008	25.446	1135.988	890.014
311.022	25.982	1135.127	891.910
312.037	25.710	1135.004	890.389
313.052	25.512	1134.083	888.612
314.066	25.122	1133.352	886.032
315.081	25.086	1131.415	884.261
316.095	24.860	1130.402	882.276
317.110	24.988	1130.191	882.666
318.125	25.026	1129.136	881.949
319.139	24.798	1128.366	880.150
320.154	25.104	1128.394	881.596
321.168	25.077	1126.675	880.046
322.183	25.185	1126.037	880.000
323.197	25.100	1126.419	879.801
324.212	24.902	1126.428	878.758
325.227	25.195	1125.592	879.465
326.241	25.384	1125.093	879.923
327.256	24.989	1124.573	877.505
328.270	25.034	1123.657	876.935
329.285	25.230	1122.127	876.621
330.300	25.215	1121.989	876.361
331.314	25.108	1120.902	874.911
332.329	24.842	1120.200	872.988
333.343	24.895	1119.208	872.400
334.358	25.448	1117.693	873.832
335.373	25.640	1118.262	875.130
336.387	25.534	1117.220	873.722
337.402	25.710	1116.405	873.861
338.416	25.778	1116.200	873.956
339.431	25.624	1115.140	872.301
340.446	26.008	1114.193	873.343
341.460	25.816	1114.336	872.450
342.475	26.146	1113.858	873.596
343.489	25.751	1112.914	870.866
344.504	26.016	1111.828	871.218
345.519	26.160	1111.244	871.381
346.533	26.221	1110.685	871.160
347.548	26.406	1109.906	871.363
348.562	25.960	1109.482	868.801
349.577	25.662	1108.568	866.575
350.592	25.734	1106.587	865.299
351.606	25.344	1106.399	863.199
352.621	25.389	1104.725	862.032
353.635	25.337	1104.732	861.712
354.650	25.432	1103.699	861.287
355.665	25.149	1103.815	859.944
356.679	25.530	1103.455	861.411
357.694	25.416	1102.635	860.150
358.708	25.700	1100.970	860.133
359.723	25.810	1101.334	860.864
360.738	25.803	1100.321	859.964
361.752	25.381	1099.776	857.449
362.767	25.754	1099.590	859.006
363.781	25.718	1097.700	857.285
364.796	26.039	1098.306	859.208
365.810	25.890	1097.939	858.138
366.825	26.223	1097.350	859.186
367.840	26.168	1096.960	858.541
368.854	26.443	1095.982	859.008
369.869	26.344	1095.781	858.306
370.883	26.222	1094.820	856.898
371.898	25.631	1094.956	854.122
372.913	26.066	1093.664	855.100
373.927	26.157	1092.266	854.363
374.942	26.093	1092.370	854.064
375.956	25.965	1092.874	853.777
376.971	26.296	1090.526	853.430
377.986	26.448	1089.832	853.530
379.000	25.987	1090.516	851.815
380.015	26.218	1090.129	852.526
381.029	26.326	1089.847	852.740
382.044	26.196	1088.980	851.374
383.059	26.176	1088.107	850.521
384.073	26.146	1087.586	849.896
385.088	26.171	1087.456	849.840
386.102	26.249	1086.234	849.177
387.117	25.954	1084.560	846.406
388.132	25.954	1083.676	845.640
389.146	25.786	1082.599	843.937
390.161	25.790	1081.306	842.874
391.175	25.525	1081.255	841.519
392.190	25.734	1081.572	842.670
393.205	26.348	1080.133	844.346
394.219	26.258	1079.331	843.221
395.234	25.925	1078.656	841.067
396.248	25.694	1078.496	839.790
397.263	25.777	1076.568	838.601
398.278	25.674	1076.136	837.714
399.292	25.829	1074.803	837.321
400.307	25.880	1074.500	837.248
401.321	25.703	1074.801	836.585
402.336	25.522	1072.912	834.200
403.350	25.575	1071.669	833.409
404.365	25.312	1072.532	832.785
405.380	25.791	1071.578	834.187
406.394	25.909	1070.472	833.799
407.409	26.001	1069.819	833.641
408.423	26.362	1069.801	835.222
409.438	26.233	1068.929	833.873
410.453	26.429	1067.983	833.966
411.467	26.449	1067.087	833.284
412.482	26.411	1066.749	832.769
413.496	26.369	1067.144	832.813
414.511	26.590	1065.936	832.813
415.526	26.656	1064.830	832.178
416.540	26.482	1065.898	832.139
417.555	26.447	1064.865	831.098
418.569	26.299	1064.365	829.952
419.584	26.617	1063.170	830.408
420.599	26.412	1063.026	829.280
421.613	153.225	1403.972	1792.434
422.628	140.898	1453.639	1792.485
