DTS Sentinel unit serial number:	SN413079Multiplexer serial number:	ORYXHardware model number:	OX4-SRSoftware version number:	ORYX F/W v4.00 Oryx Data Collector v3.7.2.0data status	okinstallation	princeton_trtdifferential loss correction	single-endedforward channel	channel 2reverse channel	N/Adate	2019/09/17time	21:47:34forward acquisition time	60.00reverse acquisition time	0.00gamma	496.2192k internal	0.2342k external	0.2342temperature offset calibration	0.9986default loss term (dB/km)	0.3790temperature slope calibration	1.0000multiplexer offset coefficient	1.0000multiplexer slope coefficient	1.0000fibre end	0.00T internal ref (°C)	26.50T ext. ref 1 (°C)	0.19T ext. ref 2 (°C)	19.06length (m)	temperature (°C)	Stokes	anti-Stokes-747.200	173.918	0.225	0.325
-746.185	317.692	0.034	0.064
-745.171	223.671	0.185	0.300
-744.156	-200.000	-0.039	0.206
-743.142	-200.000	0.001	-0.110
-742.127	376.260	-0.057	-0.116
-741.112	118.735	0.331	0.409
-740.098	-85.155	-0.082	-0.026
-739.083	800.000	-0.035	-0.114
-738.069	161.575	0.196	0.275
-737.054	800.000	-0.015	-0.047
-736.039	-108.758	-0.177	-0.038
-735.025	800.000	0.106	0.361
-734.010	399.949	-0.131	0.275
-732.996	451.049	0.019	-0.042
-731.981	-102.385	-0.337	0.081
-730.966	-95.434	-0.095	-0.025
-729.952	2.680	0.028	-0.020
-728.937	-130.935	-0.350	-0.047
-727.923	-200.000	-0.003	0.270
-726.908	38.993	-0.082	-0.074
-725.894	-68.521	0.312	-0.121
-724.879	-200.000	0.018	-0.214
-723.864	800.000	-0.035	0.100
-722.850	55.052	-0.172	-0.167
-721.835	144.195	-0.078	0.104
-720.821	-22.160	-0.264	-0.161
-719.806	-42.569	-0.137	-0.070
-718.791	25.212	0.169	-0.141
-717.777	-167.735	-0.505	-0.020
-716.762	-121.685	0.145	-0.024
-715.748	63.458	0.161	-0.161
-714.733	2.751	-0.038	-0.027
-713.718	-200.000	0.026	-0.287
-712.704	-51.403	0.233	0.109
-711.689	-63.262	-0.395	-0.163
-710.675	350.744	-0.040	0.078
-709.660	111.127	-0.054	0.065
-708.645	-99.688	0.216	0.054
-707.631	-200.000	-0.001	-0.042
-706.616	35.274	0.319	-0.280
-705.602	-200.000	0.029	-0.496
-704.587	103.065	0.155	-0.181
-703.572	523.332	-0.062	-0.146
-702.558	-83.236	-0.019	-0.006
-701.543	-94.689	-0.175	-0.048
-700.529	126.806	-0.177	-0.225
-699.514	800.000	0.082	0.308
-698.499	-58.408	0.112	-0.049
-697.485	-200.000	0.001	0.318
-696.470	-50.602	-0.299	0.141
-695.456	-102.903	-0.505	0.120
-694.441	232.450	0.139	0.229
-693.426	-186.327	0.202	-0.003
-692.412	-31.095	-0.342	-0.193
-691.397	102.460	-0.003	-0.003
-690.383	-189.188	0.074	-0.001
-689.368	566.010	0.052	-0.125
-688.354	485.108	-0.257	-0.584
-687.339	442.939	0.148	-0.324
-686.324	-200.000	-0.038	0.368
-685.310	186.197	0.128	0.191
-684.295	-200.000	-0.053	0.269
-683.281	85.525	-0.069	-0.075
-682.266	-18.058	-0.059	0.037
-681.251	-200.000	0.030	0.183
-680.237	-35.137	-0.423	0.230
-679.222	295.300	0.140	-0.256
-678.208	77.336	-0.213	0.226
-677.193	137.295	0.132	0.173
-676.178	-200.000	-0.023	0.246
-675.164	-200.000	-0.023	0.133
-674.149	-134.887	-0.466	0.056
-673.135	800.000	-0.090	0.319
-672.120	55.215	-0.274	-0.265
-671.105	131.940	0.029	0.038
-670.091	235.934	-0.157	-0.259
-669.076	96.291	-0.150	-0.172
-668.062	-200.000	0.002	-0.305
-667.047	41.910	0.324	-0.294
-666.032	-200.000	0.025	0.130
-665.018	-71.516	0.287	-0.107
-664.003	-28.197	0.080	0.046
-662.989	-92.512	-0.375	-0.105
-661.974	-43.040	0.331	-0.167
-660.959	-200.000	-0.051	0.258
-659.945	-137.973	-0.105	0.012
-658.930	-90.044	-0.183	-0.053
-657.916	800.000	0.122	-0.438
-656.901	-62.038	0.036	0.015
-655.886	-200.000	0.031	-0.258
-654.872	-182.379	0.147	0.003
-653.857	-102.612	-0.193	-0.046
-652.843	800.000	0.023	-0.081
-651.828	-200.000	0.043	0.249
-650.814	-200.000	0.008	0.113
-649.799	-200.000	-0.020	-0.231
-648.784	-126.998	0.217	0.032
-647.770	-45.650	-0.077	-0.038
-646.755	800.000	-0.026	-0.107
-645.741	800.000	-0.022	0.089
-644.726	-200.000	-0.023	0.235
-643.711	-200.000	-0.032	0.292
-642.697	800.000	0.037	-0.134
-641.682	-200.000	0.022	-0.104
-640.668	657.449	0.013	0.034
-639.653	66.417	0.100	-0.102
-638.638	123.979	0.159	0.200
-637.624	-123.305	0.402	0.064
-636.609	-22.552	-0.082	-0.049
-635.595	339.130	-0.096	0.187
-634.580	252.823	-0.047	0.080
-633.565	-50.077	0.167	-0.079
-632.551	506.194	-0.137	-0.317
-631.536	-48.186	0.294	-0.141
-630.522	363.183	-0.154	0.308
-629.507	483.932	0.100	0.227
-628.492	118.683	0.085	0.105
-627.478	454.287	-0.086	0.190
-626.463	221.135	-0.039	0.063
-625.449	-55.715	-0.167	-0.074
-624.434	56.883	-0.288	-0.279
-623.419	184.251	-0.061	-0.089
-622.405	-88.028	0.261	0.078
-621.390	-62.503	-0.154	0.064
-620.376	59.183	0.292	-0.287
-619.361	46.612	-0.038	0.035
-618.346	736.171	-0.116	0.310
-617.332	631.069	-0.112	0.281
-616.317	800.000	-0.048	0.160
-615.303	212.014	-0.051	0.080
-614.288	-56.339	-0.146	0.065
-613.273	-200.000	-0.070	-0.372
-612.259	-62.447	-0.118	0.049
-611.244	-56.918	-0.166	0.073
-610.230	133.227	-0.092	-0.119
-609.215	-200.000	-0.003	-0.064
-608.201	40.705	0.054	-0.048
-607.186	197.398	-0.095	-0.145
-606.171	-17.560	0.276	-0.173
-605.157	-62.876	-0.147	-0.061
-604.142	800.000	-0.085	-0.233
-603.128	-158.885	0.382	0.022
-602.113	-96.867	-0.258	0.067
-601.098	-37.865	0.232	0.123
-600.084	300.669	0.057	-0.105
-599.069	-118.954	0.222	0.039
-598.055	424.943	0.103	-0.220
-597.040	-17.638	-0.472	-0.295
-596.025	267.497	-0.113	-0.197
-595.011	29.696	-0.123	-0.104
-593.996	-46.848	0.137	0.066
-592.982	-134.504	-0.066	0.008
-591.967	-107.303	0.120	-0.026
-590.952	-160.482	-0.139	0.007
-589.938	-152.787	-0.129	0.009
-588.923	-200.000	0.033	-0.313
-587.909	5.033	-0.102	0.074
-586.894	-7.393	0.036	-0.024
-585.879	31.178	0.278	0.237
-584.865	-15.021	0.189	0.121
-583.850	40.072	0.110	-0.098
-582.836	331.885	0.043	0.083
-581.821	800.000	-0.097	-0.293
-580.806	-200.000	-0.025	0.274
-579.792	-25.835	0.371	0.217
-578.777	-44.069	-0.242	-0.121
-577.763	-57.181	0.172	-0.075
-576.748	-30.611	0.145	0.082
-575.733	98.029	-0.194	0.222
-574.719	800.000	-0.120	0.362
-573.704	-5.488	-0.260	0.178
-572.690	-114.983	0.484	0.092
-571.675	-95.232	0.103	-0.028
-570.661	-200.000	-0.021	-0.222
-569.646	236.300	-0.100	0.164
-568.631	499.055	0.064	0.146
-567.617	299.214	-0.137	-0.250
-566.602	-200.000	-0.035	-0.183
-565.588	-55.720	0.110	0.049
-564.573	-144.999	-0.239	-0.022
-563.558	-182.893	-0.155	-0.003
-562.544	77.340	-0.056	0.059
-561.529	130.857	0.085	0.108
-560.515	800.000	0.098	-0.324
-559.500	-80.393	-0.244	-0.081
-558.485	134.245	0.100	-0.129
-557.471	-46.323	-0.065	0.032
-556.456	-200.000	-0.009	-0.326
-555.442	160.341	-0.176	-0.244
-554.427	-21.988	-0.147	0.089
-553.412	122.943	0.090	-0.113
-552.398	-200.000	-0.054	-0.295
-551.383	-104.903	0.315	-0.072
-550.369	-200.000	0.039	-0.201
-549.354	-154.063	-0.095	0.006
-548.339	-165.797	-0.350	0.015
-547.325	-30.193	-0.195	-0.110
-546.310	-72.233	-0.242	0.089
-545.296	-87.548	0.474	0.142
-544.281	-32.780	-0.211	-0.116
-543.266	151.925	0.068	-0.092
-542.252	-45.901	0.283	0.139
-541.237	3.433	-0.130	-0.094
-540.223	95.098	-0.157	-0.178
-539.208	-133.690	-0.370	0.046
-538.193	612.938	-0.112	0.277
-537.179	411.791	0.114	0.240
-536.164	-200.000	-0.002	0.107
-535.150	407.256	0.068	-0.143
-534.135	79.321	-0.172	-0.183
-533.121	409.367	-0.143	-0.300
-532.106	162.789	0.196	-0.273
-531.091	-103.737	-0.342	0.080
-530.077	-99.626	0.056	-0.014
-529.062	-25.548	-0.132	0.077
-528.048	-72.909	0.340	0.124
-527.033	546.118	0.197	0.467
-526.018	132.154	0.172	-0.220
-525.004	28.872	0.138	0.116
-523.989	800.000	0.081	0.226
-522.975	0.878	-0.153	-0.109
-521.960	-200.000	-0.003	0.447
-520.945	4.570	0.127	-0.093
-519.931	4.685	-0.248	-0.181
-518.916	87.299	0.153	-0.168
-517.902	-28.646	0.142	0.081
-516.887	92.866	0.321	-0.359
-515.872	-200.000	0.035	0.203
-514.858	-113.312	0.079	0.015
-513.843	90.914	-0.077	0.086
-512.829	-83.942	-0.072	0.023
-511.814	46.672	-0.156	-0.144
-510.799	86.120	-0.146	-0.159
-509.785	-105.135	-0.168	0.038
-508.770	-200.000	-0.049	0.275
-507.756	171.833	0.214	-0.305
-506.741	239.106	0.211	0.349
-505.726	272.115	-0.150	0.263
-504.712	68.284	-0.125	0.127
-503.697	-137.722	-0.027	0.003
-502.683	-29.308	0.311	0.177
-501.668	43.533	-0.146	0.132
-500.653	189.821	-0.095	-0.142
-499.639	-134.428	0.339	-0.041
-498.624	-200.000	0.054	-0.355
-497.610	281.566	-0.085	-0.151
-496.595	-200.000	0.003	0.260
-495.581	-139.942	0.252	0.026
-494.566	-95.232	-0.107	0.029
-493.551	-164.651	0.321	0.014
-492.537	-102.598	0.055	0.013
-491.522	-50.342	-0.159	0.074
-490.508	-99.004	0.449	-0.113
-489.493	-200.000	-0.026	0.190
-488.478	-127.715	-0.232	0.033
-487.464	331.183	0.096	0.183
-486.449	-74.949	-0.293	-0.104
-485.435	-129.390	0.155	0.021
-484.420	123.252	-0.071	-0.088
-483.405	-159.729	0.092	0.005
-482.391	43.271	0.153	-0.139
-481.376	108.624	-0.189	-0.224
-480.362	-110.149	-0.336	0.069
-479.347	15.572	-0.142	0.110
-478.332	-200.000	0.026	-0.117
-477.318	800.000	-0.033	-0.107
-476.303	-78.083	-0.310	0.106
-475.289	26.867	0.332	-0.276
-474.274	-44.752	-0.188	0.093
-473.259	-61.384	0.265	0.110
-472.245	70.500	-0.113	0.116
-471.230	-149.723	0.280	0.022
-470.216	-157.450	0.049	-0.003
-469.201	800.000	-0.025	-0.078
-468.186	92.264	0.161	0.180
-467.172	-63.991	-0.120	0.049
-466.157	800.000	-0.056	0.190
-465.143	-46.469	-0.396	0.193
-464.128	-72.357	0.430	0.158
-463.113	180.596	-0.016	0.024
-462.099	800.000	0.070	-0.217
-461.084	75.148	-0.213	0.223
-460.070	220.341	-0.204	0.323
-459.055	132.769	0.124	-0.159
-458.040	800.000	0.030	-0.086
-457.026	-96.833	-0.319	-0.083
-456.011	552.492	0.028	0.066
-454.997	-200.000	0.042	-0.408
-453.982	485.180	-0.142	-0.321
-452.968	-35.368	0.221	-0.119
-451.953	240.730	0.051	0.084
-450.938	185.756	-0.081	0.119
-449.924	2.539	0.081	0.058
-448.909	-200.000	-0.195	0.001
-447.895	-113.143	-0.154	0.030
-446.880	-42.187	0.312	0.158
-445.865	-163.933	-0.234	-0.011
-444.851	800.000	0.027	-0.101
-443.836	-150.600	-0.093	0.007
-442.822	674.520	-0.089	0.228
-441.807	-200.000	0.363	0.000
-440.792	-5.249	-0.235	0.160
-439.778	-61.139	0.095	0.040
-438.763	-3.482	-0.381	0.262
-437.749	-200.000	0.019	0.097
-436.734	-62.011	-0.466	-0.193
-435.719	-149.408	-0.226	-0.018
-434.705	503.023	-0.126	0.288
-433.690	800.000	0.112	0.448
-432.676	-78.514	0.208	0.071
-431.661	798.061	-0.013	0.034
-430.646	212.110	-0.135	-0.210
-429.632	198.630	-0.146	-0.221
-428.617	-122.397	-0.196	-0.032
-427.603	-174.614	-0.191	0.005
-426.588	318.979	-0.062	-0.116
-425.573	196.672	0.046	-0.070
-424.559	404.061	-0.083	0.172
-423.544	800.000	0.084	-0.332
-422.530	202.593	-0.089	-0.136
-421.515	519.020	0.064	-0.149
-420.500	-23.599	-0.269	0.160
-419.486	636.187	-0.125	0.314
-418.471	134.458	-0.166	0.213
-417.457	-200.000	0.006	0.276
-416.442	183.882	0.026	-0.038
-415.428	-200.000	0.009	-0.254
-414.413	-30.340	0.186	-0.105
-413.398	-164.959	-0.142	0.006
-412.384	800.000	-0.063	-0.212
-411.369	-200.000	0.089	-0.430
-410.355	-117.966	-0.058	0.010
-409.340	-51.409	0.010	-0.005
-408.325	40.874	0.138	-0.123
-407.311	209.348	0.085	-0.131
-406.296	-177.329	-0.255	-0.006
-405.282	9.782	-0.067	-0.050
-404.267	-10.951	0.097	-0.063
-403.252	-32.292	0.187	0.103
-402.238	-68.651	0.362	0.139
-401.223	-38.561	0.153	0.080
-400.209	-200.000	-0.063	-0.302
-399.194	800.000	0.016	0.061
-398.179	61.938	0.229	0.226
-397.165	800.000	0.045	-0.168
-396.150	188.577	0.098	-0.145
-395.136	-200.000	-0.060	-0.363
-394.121	251.603	-0.075	-0.126
-393.106	800.000	0.203	-0.577
-392.092	608.113	0.022	-0.053
-391.077	-102.845	-0.325	0.076
-390.063	-37.438	0.104	-0.055
-389.048	-60.565	0.122	-0.051
-388.033	151.771	-0.197	0.266
-387.019	12.892	-0.110	-0.084
-386.004	7.293	-0.127	-0.094
-384.990	10.107	0.172	-0.129
-383.975	224.098	0.127	0.203
-382.960	-177.591	-0.292	0.007
-381.946	-157.894	-0.208	-0.012
-380.931	725.258	0.024	-0.063
-379.917	-9.858	-0.325	0.213
-378.902	-200.000	0.008	-0.155
-377.888	-200.000	-0.020	-0.112
-376.873	298.222	0.028	-0.050
-375.858	59.646	-0.161	0.157
-374.844	260.442	0.026	-0.044
-373.829	-132.228	0.152	-0.019
-372.815	206.458	0.243	0.374
-371.800	537.226	0.022	0.052
-370.785	800.000	-0.030	-0.122
-369.771	521.349	0.158	-0.367
-368.756	237.653	-0.050	0.083
-367.742	25.486	0.227	0.186
-366.727	-28.634	-0.445	0.253
-365.712	376.786	-0.090	0.181
-364.698	-34.169	0.221	-0.120
-363.683	751.384	-0.105	-0.280
-362.669	261.814	-0.066	0.112
-361.654	-200.000	0.010	-0.178
-360.639	800.000	0.018	-0.067
-359.625	132.410	0.113	0.143
-358.610	383.469	0.105	-0.213
-357.596	-100.453	0.235	0.057
-356.581	-200.000	0.052	-0.427
-355.566	64.960	0.059	0.059
-354.552	-200.000	0.055	0.255
-353.537	-175.171	0.271	-0.007
-352.523	-15.989	-0.060	-0.038
-351.508	9.937	-0.160	0.120
-350.493	64.276	-0.217	0.216
-349.479	-50.877	0.284	-0.132
-348.464	-200.000	-0.054	-0.240
-347.450	800.000	0.081	0.229
-346.435	-9.805	-0.097	0.064
-345.420	37.911	0.097	-0.085
-344.406	180.721	-0.224	0.325
-343.391	421.378	0.054	-0.114
-342.377	-200.000	0.012	0.107
-341.362	48.622	0.138	-0.128
-340.348	-200.000	0.001	0.256
-339.333	167.022	0.247	0.345
-338.318	-35.362	0.274	0.147
-337.304	11.049	-0.033	0.025
-336.289	121.575	0.086	-0.105
-335.275	-32.340	-0.210	-0.116
-334.260	-67.862	0.155	-0.060
-333.245	381.969	0.087	-0.177
-332.231	-173.301	0.068	-0.002
-331.216	-124.870	0.447	-0.068
-330.202	195.421	0.104	-0.156
-329.187	-200.000	0.044	0.328
-328.172	539.836	-0.157	-0.368
-327.158	-200.000	-0.001	-0.385
-326.143	7.350	0.304	0.224
-325.129	46.346	0.234	-0.214
-324.114	-48.538	-0.117	-0.055
-323.099	-200.000	0.010	-0.047
-322.085	76.390	-0.101	0.105
-321.070	-190.359	0.291	0.003
-320.056	-40.979	-0.353	-0.180
-319.041	-89.897	-0.170	0.049
-318.026	-200.000	0.006	0.102
-317.012	81.058	-0.266	0.283
-315.997	-15.944	0.249	-0.156
-314.983	-200.000	0.053	-0.401
-313.968	-200.000	0.013	0.538
-312.953	-200.000	-0.003	-0.351
-311.939	17.128	0.138	-0.108
-310.924	800.000	0.054	0.159
-309.910	800.000	0.104	0.330
-308.895	-69.465	0.104	0.039
-307.880	-70.495	0.201	0.075
-306.866	102.252	0.094	-0.108
-305.851	-20.853	-0.102	0.061
-304.837	221.081	0.086	-0.137
-303.822	518.530	0.180	0.414
-302.807	-125.778	0.126	0.019
-301.793	-149.794	-0.239	0.018
-300.778	113.154	-0.169	0.202
-299.764	11.678	0.215	0.163
-298.749	38.213	-0.114	0.100
-297.735	800.000	0.027	0.076
-296.720	8.233	0.235	0.174
-295.705	149.600	-0.276	-0.368
-294.691	161.577	-0.097	0.133
-293.676	800.000	-0.026	-0.097
-292.662	-127.287	-0.119	0.017
-291.647	-200.000	0.014	0.212
-290.632	-67.259	0.113	-0.044
-289.618	98.306	0.272	0.308
-288.603	563.946	-0.027	0.065
-287.589	-10.094	0.126	0.083
-286.574	-163.535	0.337	-0.016
-285.559	-200.000	0.087	0.436
-284.545	554.442	0.162	0.383
-283.530	1.333	0.145	-0.102
-282.516	800.000	0.131	0.464
-281.501	173.474	-0.121	0.172
-280.486	-176.441	-0.576	-0.015
-279.472	-200.000	0.003	-0.170
-278.457	343.965	-0.089	-0.172
-277.443	-2.421	0.092	-0.063
-276.428	35.419	-0.134	-0.115
-275.413	-27.210	0.309	-0.177
-274.399	-57.955	-0.191	-0.082
-273.384	-91.543	0.262	-0.073
-272.370	-12.695	0.190	-0.122
-271.355	138.281	-0.140	-0.181
-270.340	-40.155	-0.146	0.075
-269.326	-73.159	0.184	0.066
-268.311	12.787	-0.241	-0.183
-267.297	223.355	-0.148	0.235
-266.282	-127.822	0.133	-0.019
-265.267	-200.000	0.010	0.051
-264.253	-67.758	0.126	0.049
-263.238	800.000	-0.036	-0.148
-262.224	46.139	-0.235	0.214
-261.209	13.533	0.041	-0.031
-260.195	1.430	-0.241	-0.171
-259.180	425.035	-0.124	-0.263
-258.165	131.565	-0.149	-0.188
-257.151	800.000	0.079	-0.320
-256.136	-67.926	-0.150	-0.057
-255.122	800.000	0.059	-0.164
-254.107	231.536	0.082	-0.133
-253.092	-108.395	-0.301	0.064
-252.078	239.748	-0.085	-0.139
-251.063	-123.991	0.244	-0.038
-250.049	591.232	-0.049	0.119
-249.034	-139.015	0.286	-0.031
-248.019	207.327	-0.139	0.213
-247.005	421.168	0.124	0.262
-245.990	-56.542	-0.270	-0.117
-244.976	800.000	0.036	0.124
-243.961	124.829	0.115	-0.142
-242.946	-118.358	0.461	-0.080
-241.932	-11.493	0.117	0.075
-240.917	-200.000	0.012	-0.215
-239.903	800.000	-0.021	-0.067
-238.888	71.693	0.092	0.094
-237.873	-125.767	0.084	0.012
-236.859	227.005	-0.235	-0.375
-235.844	-44.254	-0.064	-0.031
-234.830	-132.533	-0.182	0.023
-233.815	-200.000	0.026	0.116
-232.800	29.788	0.258	-0.216
-231.786	240.286	0.149	0.243
-230.771	-120.106	0.232	0.039
-229.757	-200.000	0.001	0.117
-228.742	-200.000	0.006	-0.281
-227.727	-144.745	0.302	-0.027
-226.713	-78.044	-0.174	-0.059
-225.698	-128.680	0.115	0.016
-224.684	-46.717	0.211	-0.101
-223.669	-8.969	-0.117	-0.077
-222.655	800.000	-0.074	0.286
-221.640	-200.000	-0.104	-0.653
-220.625	414.800	-0.170	0.355
-219.611	146.701	-0.115	-0.151
-218.596	800.000	-0.085	0.267
-217.582	-75.107	-0.199	0.070
-216.567	-57.047	-0.241	-0.104
-215.552	224.654	-0.077	-0.122
-214.538	487.523	-0.072	0.162
-213.523	-200.000	-0.075	0.416
-212.509	-200.000	0.019	-0.149
-211.494	82.584	0.151	0.161
-210.479	2.514	0.229	0.163
-209.465	113.877	0.122	0.146
-208.450	2.311	-0.165	0.117
-207.436	35.434	0.170	-0.146
-206.421	22.554	-0.322	-0.258
-205.406	-86.254	-0.362	0.109
-204.392	-75.964	0.324	0.112
-203.377	-66.477	-0.352	0.137
-202.363	682.452	-0.032	-0.082
-201.348	14.951	0.369	-0.283
-200.333	57.778	-0.153	0.147
-199.319	11.717	0.294	-0.221
-198.304	-54.331	0.056	0.025
-197.290	100.111	0.153	-0.174
-196.275	-142.847	-0.235	0.022
-195.260	-117.261	0.299	0.053
-194.246	59.294	-0.091	0.088
-193.231	-78.647	-0.147	0.049
-192.217	281.343	0.127	-0.223
-191.202	800.000	-0.053	-0.156
-190.187	-29.471	-0.131	-0.074
-189.173	-74.717	-0.115	0.040
-188.158	-147.514	-0.202	-0.017
-187.144	59.576	-0.100	-0.096
-186.129	44.447	-0.203	-0.183
-185.114	-126.856	0.622	0.090
-184.100	-44.608	-0.193	-0.095
-183.085	-200.000	0.001	-0.049
-182.071	20.450	-0.155	0.123
-181.056	-19.017	-0.084	-0.051
-180.042	800.000	0.030	-0.123
-179.027	151.004	0.181	0.242
-178.012	-105.464	-0.245	0.055
-176.998	-200.000	-0.025	-0.190
-175.983	123.355	-0.141	0.173
-174.969	503.414	-0.124	0.280
-173.954	-200.000	0.008	0.442
-172.939	-95.143	-0.159	0.042
-171.925	-123.591	0.277	-0.043
-170.910	112.266	-0.162	0.192
-169.896	-200.000	0.023	-0.250
-168.881	-67.147	0.184	0.071
-167.866	-77.020	-0.115	-0.039
-166.852	16.215	-0.027	0.021
-165.837	-24.848	0.083	-0.048
-164.823	271.908	-0.099	-0.171
-163.808	800.000	0.126	0.345
-162.793	-123.129	0.115	0.018
-161.779	-7.967	0.080	0.053
-160.764	169.312	0.254	0.355
-159.750	31.908	-0.210	0.177
-158.735	-200.000	-0.041	-0.404
-157.720	227.074	0.194	-0.308
-156.706	-200.000	0.048	0.449
-155.691	-200.000	-0.457	0.002
-154.677	-115.423	0.075	0.014
-153.662	-10.735	0.061	-0.040
-152.647	-143.396	-0.271	0.025
-151.633	-166.890	0.054	-0.002
-150.618	-106.974	-0.069	0.015
-149.604	-1.845	0.203	0.140
-148.589	506.840	0.084	0.190
-147.574	170.949	0.095	0.133
-146.560	757.558	0.049	0.131
-145.545	20.523	-0.387	0.306
-144.531	-121.192	-0.155	0.025
-143.516	-111.874	-0.239	-0.047
-142.502	-79.520	-0.151	-0.050
-141.487	-200.000	-0.013	-0.164
-140.472	-200.000	0.099	-0.509
-139.458	46.280	-0.182	-0.165
-138.443	76.196	-0.282	0.292
-137.429	-73.736	-0.275	0.098
-136.414	331.329	0.093	-0.175
-135.399	215.124	-0.153	0.237
-134.385	52.592	0.201	0.188
-133.370	-155.293	0.393	-0.025
-132.356	332.300	0.157	-0.296
-131.341	106.307	-0.112	-0.130
-130.326	-200.000	-0.040	0.232
-129.312	-37.676	-0.058	0.030
-128.297	-200.000	0.036	-0.290
-127.283	10.248	0.113	-0.084
-126.268	-200.000	-0.036	0.170
-125.253	-124.354	0.290	-0.044
-124.239	463.284	0.078	-0.171
-123.224	-58.203	0.167	-0.071
-122.210	381.773	0.070	-0.141
-121.195	-40.506	0.176	-0.089
-120.180	-200.000	-0.084	0.363
-119.166	-43.783	-0.239	-0.118
-118.151	800.000	0.028	0.111
-117.137	-194.944	0.152	-0.001
-116.122	800.000	0.110	-0.305
-115.107	-4.388	-0.169	-0.114
-114.093	153.450	0.125	0.167
-113.078	-129.119	-0.139	0.019
-112.064	-200.000	0.026	-0.114
-111.049	-55.861	0.472	0.206
-110.034	9.208	-0.092	-0.068
-109.020	-200.000	0.034	-0.327
-108.005	490.002	-0.091	0.203
-106.991	-98.141	0.153	-0.038
-105.976	215.112	-0.081	-0.125
-104.962	86.755	0.210	0.226
-103.947	800.000	-0.043	0.151
-102.932	238.072	-0.010	-0.016
-101.918	-99.463	0.261	0.064
-100.903	800.000	-0.053	-0.177
-99.889	800.000	0.057	0.203
-98.874	800.000	0.096	-0.331
-97.859	-39.310	0.184	-0.094
-96.845	-200.000	0.007	0.078
-95.830	-51.643	0.090	-0.041
-94.816	-103.078	0.071	-0.016
-93.801	800.000	-0.103	0.332
-92.786	-72.682	-0.092	-0.033
-91.772	351.788	0.081	-0.157
-90.757	194.562	-0.087	0.129
-89.743	296.695	-0.042	-0.076
-88.728	262.644	-0.123	0.208
-87.713	611.574	0.135	0.329
-86.699	601.312	-0.099	0.239
-85.684	-65.514	0.372	0.146
-84.670	800.000	0.016	0.051
-83.655	-54.611	0.135	0.060
-82.640	-39.313	0.446	-0.228
-81.626	444.032	0.068	0.146
-80.611	800.000	-0.089	-0.310
-79.597	-200.000	0.037	-0.176
-78.582	-200.000	-0.037	-0.170
-77.567	-21.414	0.049	-0.029
-76.553	-200.000	-0.021	-0.344
-75.538	135.997	0.133	-0.169
-74.524	-61.755	0.169	-0.069
-73.509	125.663	0.188	-0.231
-72.494	800.000	-0.047	-0.134
-71.480	196.759	0.072	0.107
-70.465	-200.000	-0.092	0.409
-69.451	55.693	0.094	-0.089
-68.436	-119.930	0.449	-0.075
-67.422	-42.525	0.222	-0.110
-66.407	120.909	0.067	0.082
-65.392	-200.000	-0.007	-0.362
-64.378	-69.170	0.147	-0.055
-63.363	-137.051	-0.272	-0.030
-62.349	240.037	-0.217	0.352
-61.334	0.118	-1.267	-0.881
-60.319	579.482	0.278	0.664
-59.305	-200.000	-0.253	-1.170
-58.290	368.297	0.668	1.318
-57.276	654.738	0.590	1.476
-56.261	-200.000	114.670	624.900
-55.246	449.301	1499.462	3223.165
-54.232	150.492	2665.489	3529.454
-53.217	93.287	2260.496	2492.897
-52.203	35.011	1876.912	1602.171
-51.188	29.555	1674.760	1388.660
-50.173	27.261	1634.113	1338.047
-49.159	46.362	1693.354	1530.405
-48.144	45.162	1707.670	1534.275
-47.130	29.048	1663.034	1374.932
-46.115	26.481	1648.499	1343.827
-45.100	26.371	1643.437	1338.833
-44.086	26.397	1641.204	1337.147
-43.071	26.372	1638.193	1334.457
-42.057	26.367	1636.388	1332.900
-41.042	26.375	1634.409	1331.295
-40.027	26.384	1632.855	1330.044
-39.013	26.361	1630.564	1327.951
-37.998	26.354	1629.268	1326.797
-36.984	26.352	1627.693	1325.446
-35.969	26.419	1626.549	1324.954
-34.954	26.551	1624.183	1323.939
-33.940	26.468	1623.157	1322.443
-32.925	26.491	1621.235	1320.988
-31.911	26.511	1619.399	1319.589
-30.896	26.480	1617.573	1317.820
-29.881	26.421	1616.690	1316.622
-28.867	26.522	1614.997	1315.920
-27.852	26.481	1613.594	1314.431
-26.838	26.525	1612.059	1313.450
-25.823	26.509	1611.384	1312.729
-24.809	26.480	1609.903	1311.263
-23.794	26.549	1608.103	1310.241
-22.779	26.556	1606.738	1309.127
-21.765	26.482	1604.868	1307.015
-20.750	26.468	1603.697	1305.913
-19.736	26.484	1602.211	1304.765
-18.721	26.601	1600.836	1304.435
-17.706	26.592	1599.405	1303.154
-16.692	26.450	1598.412	1301.269
-15.677	26.585	1596.376	1300.536
-14.663	26.548	1594.981	1299.076
-13.648	26.593	1593.402	1298.064
-12.633	26.564	1592.396	1296.982
-11.619	26.527	1590.384	1295.032
-10.604	26.536	1589.325	1294.179
-9.590	26.559	1587.904	1293.137
-8.575	26.614	1586.149	1292.049
-7.560	26.573	1585.804	1291.425
-6.546	26.480	1584.469	1289.622
-5.531	26.560	1582.995	1288.941
-4.517	26.550	1581.919	1287.942
-3.502	26.524	1580.997	1286.958
-2.487	26.659	1578.592	1285.907
-1.473	25.999	1566.863	1271.648
-0.458	22.683	1546.748	1232.152
0.556	17.216	1546.860	1197.385
1.571	14.619	1569.586	1196.275
2.586	14.097	1582.001	1201.860
3.600	12.968	1529.742	1154.160
4.615	7.259	1425.054	1037.781
5.629	1.537	1364.911	957.925
6.644	0.279	1357.770	944.939
7.659	0.173	1356.482	943.293
8.673	0.162	1355.556	942.496
9.688	0.127	1353.435	940.724
10.702	0.005	1349.764	937.329
11.717	2.930	1354.033	958.481
12.731	10.121	1364.762	1011.083
13.746	15.801	1373.175	1052.867
14.761	17.021	1373.737	1060.834
15.775	16.313	1371.658	1054.717
16.790	15.332	1368.964	1046.435
17.804	14.572	1367.161	1040.227
18.819	14.217	1365.815	1036.898
19.834	13.876	1364.618	1033.772
20.848	13.614	1363.252	1031.020
21.863	13.491	1361.991	1029.211
22.877	13.268	1360.678	1026.744
23.892	13.177	1359.949	1025.535
24.907	13.238	1358.708	1024.889
25.921	13.203	1358.027	1024.066
26.936	13.329	1357.144	1024.087
27.950	13.265	1356.207	1022.893
28.965	13.419	1355.436	1023.176
29.980	13.430	1354.132	1022.171
30.994	13.405	1353.605	1021.524
32.009	13.456	1352.600	1020.993
33.023	13.421	1351.504	1019.859
34.038	13.354	1350.404	1018.523
35.053	13.339	1349.465	1017.633
36.067	13.319	1348.357	1016.585
37.082	13.379	1347.511	1016.229
38.096	13.473	1346.181	1015.711
39.111	13.363	1345.577	1014.493
40.126	13.386	1344.601	1013.806
41.140	13.296	1343.866	1012.609
42.155	13.263	1343.080	1011.725
43.169	13.220	1343.073	1011.371
44.184	13.234	1342.937	1011.265
45.199	13.270	1342.500	1011.063
46.213	13.257	1341.854	1010.411
47.228	13.392	1340.683	1010.261
48.242	13.274	1339.280	1008.397
49.257	13.375	1338.402	1008.263
50.271	13.325	1336.419	1006.376
51.286	13.351	1335.420	1005.694
52.301	13.314	1334.067	1004.362
53.315	13.333	1333.359	1003.851
54.330	13.217	1332.264	1002.233
55.344	13.258	1330.556	1001.110
56.359	13.229	1329.764	1000.247
57.374	13.227	1329.117	999.663
58.388	13.203	1328.425	998.911
59.403	13.140	1328.085	998.185
60.417	13.141	1327.213	997.446
61.432	13.175	1326.184	996.790
62.447	13.102	1325.207	995.525
63.461	13.099	1323.870	994.417
64.476	13.092	1323.288	993.851
65.490	13.126	1321.667	992.747
66.505	13.120	1320.114	991.460
67.520	13.127	1319.094	990.646
68.534	13.179	1317.826	989.921
69.549	13.189	1316.914	989.203
70.563	13.103	1316.271	988.120
71.578	13.122	1314.840	987.075
72.593	13.105	1314.178	986.384
73.607	13.058	1313.635	985.610
74.622	12.976	1312.676	984.312
75.636	12.993	1311.862	983.718
76.651	13.043	1310.989	983.275
77.666	13.101	1309.884	982.706
78.680	13.071	1309.829	982.395
79.695	13.094	1308.772	981.653
80.709	13.151	1308.016	981.336
81.724	13.128	1307.291	980.572
82.739	13.145	1305.991	979.610
83.753	13.313	1304.954	979.742
84.768	13.274	1304.423	979.027
85.782	13.403	1302.560	978.304
86.797	13.301	1301.736	976.992
87.812	13.281	1300.493	975.856
88.826	13.293	1299.261	974.916
89.841	13.298	1298.187	974.056
90.855	13.283	1297.431	973.313
91.870	13.313	1296.443	972.665
92.884	13.320	1295.763	972.111
93.899	13.414	1294.444	971.581
94.914	13.542	1293.744	971.722
95.928	13.469	1292.924	970.593
96.943	13.357	1292.057	969.202
97.957	13.367	1291.307	968.610
98.972	13.361	1290.183	967.644
99.987	13.402	1289.212	967.074
101.001	13.406	1288.086	966.168
102.016	13.294	1287.733	965.160
103.030	13.382	1286.423	964.605
104.045	13.426	1285.568	964.137
105.060	13.309	1284.128	962.294
106.074	13.267	1283.274	961.321
107.089	13.248	1281.994	960.167
108.103	13.166	1281.087	958.928
109.118	13.198	1279.222	957.630
110.133	13.207	1278.204	956.840
111.147	13.201	1276.698	955.591
112.162	13.274	1275.629	955.129
113.176	13.291	1274.187	954.060
114.191	13.247	1273.239	953.016
115.206	13.270	1272.194	952.279
116.220	13.288	1271.183	951.544
117.235	13.299	1269.882	950.548
118.249	13.287	1269.105	949.814
119.264	13.284	1267.885	948.801
120.279	13.188	1266.964	947.475
121.293	13.157	1266.203	946.642
122.308	13.056	1265.198	945.234
123.322	13.178	1263.673	944.707
124.337	13.260	1262.670	944.344
125.352	13.196	1261.610	943.102
126.366	13.304	1260.305	942.655
127.381	13.120	1260.117	941.383
128.395	13.153	1258.240	940.086
129.410	13.234	1257.216	939.697
130.424	13.308	1256.557	939.543
131.439	13.227	1255.789	938.428
132.454	13.220	1254.874	937.617
133.468	13.232	1253.867	936.850
134.483	13.323	1252.915	936.574
135.497	13.313	1251.727	935.545
136.512	13.293	1250.458	934.400
137.527	13.363	1248.979	933.607
138.541	13.288	1247.549	932.033
139.556	13.359	1246.491	931.563
140.570	13.348	1245.679	930.810
141.585	13.431	1244.286	930.155
142.600	13.398	1243.143	929.033
143.614	13.458	1242.848	929.067
144.629	13.484	1241.349	928.010
145.643	13.556	1239.729	927.116
146.658	13.478	1239.051	926.094
147.673	13.524	1236.832	924.609
148.687	13.352	1236.743	923.502
149.702	13.266	1235.311	921.872
150.716	13.346	1233.867	921.157
151.731	13.318	1232.804	920.124
152.746	13.293	1232.044	919.341
153.760	13.482	1230.316	919.017
154.775	13.473	1229.509	918.282
155.789	13.405	1228.618	917.158
156.804	13.523	1227.184	916.661
157.819	13.587	1226.375	916.332
158.833	13.529	1225.505	915.280
159.848	13.695	1224.303	915.217
160.862	13.510	1223.889	913.802
161.877	13.460	1222.053	912.079
162.892	13.467	1221.479	911.605
163.906	13.358	1220.755	910.388
164.921	13.430	1219.689	909.904
165.935	13.468	1218.602	909.224
166.950	13.554	1217.833	909.042
167.964	13.606	1216.898	908.549
168.979	13.521	1216.517	907.716
169.994	13.554	1215.865	907.328
171.008	13.660	1214.617	906.901
172.023	13.565	1213.972	905.817
173.037	13.613	1213.450	905.609
174.052	13.577	1212.622	904.718
175.067	13.608	1211.400	903.895
176.081	13.610	1210.237	902.958
177.096	13.669	1209.292	902.492
178.110	13.629	1208.590	901.669
179.125	13.669	1206.999	900.620
180.140	13.776	1205.401	899.929
181.154	13.717	1204.762	899.053
182.169	13.603	1203.998	897.787
183.183	13.687	1202.706	897.198
184.198	13.757	1201.449	896.562
185.213	13.818	1200.280	895.935
186.227	13.811	1199.274	895.068
187.242	13.916	1197.870	894.506
188.256	13.855	1197.273	893.653
189.271	13.806	1196.394	892.654
190.286	13.799	1195.007	891.504
191.300	13.722	1194.299	890.483
192.315	13.722	1193.566	889.860
193.329	13.718	1193.459	889.677
194.344	13.788	1192.172	889.015
195.359	13.849	1191.816	889.000
196.373	13.860	1191.155	888.486
197.388	13.856	1190.801	888.122
198.402	13.957	1190.403	888.288
199.417	14.015	1189.642	887.950
200.432	14.082	1188.291	887.220
201.446	13.991	1187.905	886.370
202.461	14.082	1186.751	885.915
203.475	14.129	1185.842	885.404
204.490	14.148	1184.367	884.328
205.504	14.046	1183.574	883.113
206.519	14.087	1182.360	882.349
207.534	13.999	1181.185	880.929
208.548	14.097	1179.929	880.434
209.563	14.102	1179.513	880.070
210.577	14.147	1178.731	879.646
211.592	14.074	1178.037	878.666
212.607	14.155	1177.266	878.439
213.621	14.233	1176.346	878.089
214.636	14.146	1175.850	877.181
215.650	14.141	1174.964	876.416
216.665	14.193	1173.758	875.714
217.680	14.179	1172.760	874.815
218.694	14.256	1171.961	874.545
219.709	14.325	1171.089	874.182
220.723	14.396	1170.407	873.968
221.738	14.342	1169.535	872.958
222.753	14.412	1169.184	872.986
223.767	14.342	1168.546	872.065
224.782	14.396	1167.343	871.372
225.796	14.370	1167.023	870.918
226.811	14.382	1166.417	870.451
227.826	14.503	1165.601	870.397
228.840	14.423	1164.873	869.360
229.855	14.454	1164.225	868.963
230.869	14.422	1163.443	868.132
231.884	14.482	1162.718	867.829
232.899	14.374	1161.884	866.571
233.913	14.396	1161.180	866.080
234.928	14.413	1160.403	865.511
235.942	14.472	1159.615	865.153
236.957	14.355	1158.826	863.884
237.972	14.507	1157.816	863.842
238.986	14.406	1157.462	862.977
240.001	14.350	1156.638	861.998
241.015	14.431	1155.773	861.696
242.030	14.537	1155.031	861.613
243.045	14.522	1154.449	861.026
244.059	14.500	1153.789	860.344
245.074	14.538	1152.873	859.777
246.088	14.640	1151.848	859.466
247.103	14.613	1151.173	858.745
248.117	14.601	1150.534	858.130
249.132	14.639	1149.844	857.738
250.147	14.690	1149.383	857.581
251.161	14.728	1148.453	857.004
252.176	14.856	1147.524	856.888
253.190	14.899	1146.797	856.494
254.205	14.859	1146.573	856.045
255.220	14.961	1145.372	855.596
256.234	14.955	1144.962	855.181
257.249	14.995	1144.083	854.651
258.263	14.910	1143.967	854.055
259.278	14.916	1143.331	853.535
260.293	14.984	1142.610	853.270
261.307	15.001	1142.293	853.043
262.322	14.985	1141.490	852.290
263.336	15.038	1140.675	851.876
264.351	15.092	1139.832	851.443
265.366	15.026	1139.817	851.019
266.380	15.032	1138.650	850.105
267.395	15.118	1138.247	850.164
268.409	14.962	1137.521	848.758
269.424	15.030	1136.863	848.534
270.439	15.113	1136.242	848.420
271.453	15.123	1135.183	847.601
272.468	14.931	1134.486	846.037
273.482	15.150	1133.604	846.408
274.497	15.103	1133.365	845.919
275.512	15.082	1132.799	845.317
276.526	15.017	1131.791	844.160
277.541	15.141	1130.987	844.113
278.555	15.174	1129.952	843.431
279.570	15.230	1129.546	843.335
280.585	15.210	1128.630	842.473
281.599	15.216	1127.526	841.606
282.614	15.250	1127.045	841.344
283.628	15.162	1125.928	839.995
284.643	15.252	1125.151	839.792
285.657	15.194	1124.432	838.892
286.672	15.266	1123.253	838.296
287.687	15.218	1122.784	837.633
288.701	15.350	1121.742	837.439
289.716	15.362	1121.021	836.887
290.730	15.369	1120.017	836.098
291.745	15.448	1119.130	835.759
292.760	15.416	1118.647	835.162
293.774	15.420	1117.956	834.590
294.789	15.412	1117.714	834.296
295.803	15.454	1117.190	834.044
296.818	15.569	1116.014	833.662
297.833	15.524	1115.190	832.750
298.847	15.501	1114.785	832.258
299.862	15.468	1114.092	831.504
300.876	15.487	1113.092	830.779
301.891	15.577	1112.311	830.564
302.906	15.590	1111.719	830.116
303.920	15.592	1111.076	829.573
304.935	15.633	1110.554	829.309
305.949	15.715	1109.800	829.076
306.964	15.820	1109.111	829.006
307.979	15.693	1108.680	827.987
308.993	15.640	1108.163	827.268
310.008	15.618	1107.029	826.240
311.022	15.700	1106.287	826.016
312.037	15.705	1105.408	825.310
313.052	15.763	1104.533	824.865
314.066	15.732	1103.723	824.039
315.081	15.664	1102.953	823.056
316.095	15.611	1102.573	822.440
317.110	15.716	1101.617	822.167
318.125	15.800	1100.495	821.669
319.139	15.670	1100.159	820.712
320.154	15.665	1100.054	820.534
321.168	15.693	1099.214	819.974
322.183	15.736	1098.394	819.498
323.197	15.842	1097.819	819.511
324.212	15.775	1097.520	818.890
325.227	15.722	1096.352	817.689
326.241	15.724	1095.908	817.297
327.256	15.836	1095.069	817.141
328.270	15.775	1094.312	816.210
329.285	15.708	1093.595	815.276
330.300	15.809	1092.681	815.014
331.314	15.857	1091.552	814.328
332.329	15.734	1091.001	813.252
333.343	15.912	1089.456	812.887
334.358	15.805	1089.368	812.235
335.373	15.858	1088.199	811.544
336.387	15.976	1087.212	811.308
337.402	15.991	1087.019	811.165
338.416	15.962	1086.296	810.412
339.431	16.007	1085.382	809.875
340.446	15.999	1084.916	809.415
341.460	16.143	1083.810	809.210
342.475	16.136	1083.359	808.769
343.489	16.106	1082.953	808.252
344.504	16.188	1080.995	807.111
345.519	16.204	1080.571	806.798
346.533	16.356	1079.677	806.784
347.548	16.286	1079.335	806.125
348.562	16.330	1078.500	805.639
349.577	16.283	1077.727	804.766
350.592	16.287	1076.828	804.046
351.606	16.353	1075.732	803.466
352.621	16.144	1075.533	802.254
353.635	16.122	1075.263	801.875
354.650	16.216	1074.344	801.570
355.665	16.204	1073.761	801.005
356.679	16.380	1072.800	801.049
357.694	16.354	1072.084	800.323
358.708	16.313	1072.149	800.104
359.723	16.348	1071.189	799.486
360.738	16.361	1070.460	798.930
361.752	16.352	1069.961	798.444
362.767	16.374	1069.581	798.196
363.781	16.376	1068.847	797.585
364.796	16.460	1068.249	797.466
365.810	16.536	1067.560	797.241
366.825	16.492	1066.870	796.446
367.840	16.578	1066.481	796.490
368.854	16.517	1065.808	795.629
369.869	16.699	1064.546	795.474
370.883	16.563	1063.986	794.344
371.898	16.737	1063.074	794.412
372.913	16.606	1062.932	793.621
373.927	16.655	1062.487	793.449
374.942	16.624	1061.518	792.506
375.956	16.660	1061.270	792.420
376.971	16.768	1060.556	792.323
377.986	16.694	1060.284	791.704
379.000	16.773	1059.464	791.391
380.015	16.667	1058.992	790.473
381.029	16.828	1058.499	790.785
382.044	16.810	1057.614	789.973
383.059	16.738	1057.161	789.225
384.073	16.837	1056.325	788.996
385.088	16.851	1055.087	788.067
386.102	16.907	1054.167	787.569
387.117	16.795	1053.413	786.416
388.132	16.858	1052.419	785.896
389.146	16.867	1051.649	785.293
390.161	16.816	1051.361	784.772
391.175	16.840	1050.415	784.106
392.190	16.946	1049.340	783.726
393.205	17.068	1048.704	783.743
394.219	17.054	1047.935	783.037
395.234	17.046	1047.016	782.245
396.248	16.934	1046.143	781.006
397.263	17.071	1045.161	780.835
398.278	16.912	1044.750	779.726
399.292	16.905	1044.389	779.358
400.307	16.927	1043.224	778.522
401.321	16.947	1042.807	778.233
402.336	16.976	1042.388	777.982
403.350	16.934	1041.283	776.895
404.365	16.924	1041.111	776.651
405.380	17.244	1039.894	777.139
406.394	17.097	1039.173	775.859
407.409	17.147	1038.449	775.481
408.423	17.151	1037.724	774.890
409.438	17.144	1037.433	774.572
410.453	17.127	1036.968	774.077
411.467	17.266	1035.426	773.490
412.482	17.347	1034.958	773.441
413.496	17.371	1033.962	772.738
414.511	17.262	1034.026	772.219
415.526	17.192	1033.896	771.738
416.540	17.326	1033.264	771.807
417.555	17.386	1032.443	771.398
418.569	17.346	1031.998	770.813
419.584	17.527	1031.343	771.077
420.599	17.375	1031.076	770.120
421.613	107.008	1326.727	1482.199
422.628	97.979	1369.736	1482.285
