DTS Sentinel unit serial number:	SN413079Multiplexer serial number:	ORYXHardware model number:	OX4-SRSoftware version number:	ORYX F/W v4.00 Oryx Data Collector v3.7.2.0data status	okinstallation	princeton_trtdifferential loss correction	single-endedforward channel	channel 2reverse channel	N/Adate	2019/09/14time	18:43:35forward acquisition time	60.00reverse acquisition time	0.00gamma	496.2192k internal	0.2319k external	0.2319temperature offset calibration	1.0104default loss term (dB/km)	0.3790temperature slope calibration	1.0000multiplexer offset coefficient	1.0000multiplexer slope coefficient	1.0000fibre end	0.00T internal ref (°C)	36.17T ext. ref 1 (°C)	4.93T ext. ref 2 (°C)	29.90length (m)	temperature (°C)	Stokes	anti-Stokes-747.200	69.879	0.191	-0.199
-746.185	202.640	0.097	-0.151
-745.171	-200.000	-0.028	-0.162
-744.156	-65.696	0.249	-0.101
-743.142	-200.000	-0.041	-0.254
-742.127	137.448	0.179	-0.237
-741.112	14.065	-0.034	-0.027
-740.098	-19.187	0.048	0.030
-739.083	-95.588	-0.255	0.069
-738.069	386.761	-0.083	-0.174
-737.054	-34.118	-0.205	0.114
-736.039	-117.612	0.235	0.043
-735.025	-37.924	0.134	0.072
-734.010	-62.039	-0.090	0.038
-732.996	205.520	-0.208	-0.326
-731.981	-115.263	-0.093	-0.018
-730.966	251.128	0.094	0.162
-729.952	-48.376	-0.336	-0.164
-728.937	219.978	-0.065	0.106
-727.923	-14.270	0.247	-0.161
-726.908	800.000	0.029	-0.110
-725.894	-16.834	0.166	0.106
-724.879	-200.000	-0.014	0.181
-723.864	51.012	-0.060	-0.057
-722.850	-200.000	-0.001	-0.146
-721.835	800.000	-0.032	0.128
-720.821	-28.393	-0.358	0.209
-719.806	85.171	-0.267	0.296
-718.791	494.696	-0.133	0.310
-717.777	-68.721	-0.081	0.032
-716.762	552.048	0.109	-0.264
-715.748	-63.670	-0.186	0.077
-714.733	178.791	-0.120	-0.176
-713.718	47.542	0.039	0.037
-712.704	201.405	0.054	0.084
-711.689	-56.200	-0.148	0.067
-710.675	104.436	0.145	0.172
-709.660	44.053	-0.200	-0.185
-708.645	-102.899	0.494	0.119
-707.631	182.872	0.108	0.161
-706.616	411.460	-0.120	-0.257
-705.602	800.000	0.087	-0.263
-704.587	-154.294	-0.277	-0.019
-703.572	800.000	0.129	0.478
-702.558	161.664	-0.127	0.179
-701.543	-50.051	0.120	0.057
-700.529	800.000	-0.053	-0.156
-699.514	-200.000	-0.044	-0.303
-698.499	652.637	0.067	0.174
-697.485	-81.246	-0.318	0.106
-696.470	160.537	-0.040	-0.056
-695.456	-200.000	0.001	0.018
-694.441	-200.000	-0.061	-0.404
-693.426	382.166	-0.159	-0.331
-692.412	-97.791	-0.053	0.014
-691.397	3.712	-0.264	-0.195
-690.383	-140.395	-0.514	-0.054
-689.368	-63.748	-0.354	0.146
-688.354	-109.454	-0.144	0.031
-687.339	800.000	-0.031	-0.113
-686.324	-114.089	-0.408	0.080
-685.310	-200.000	-0.007	-0.245
-684.295	-58.965	0.134	-0.059
-683.281	144.237	0.087	0.117
-682.266	-200.000	-0.037	0.367
-681.251	800.000	-0.053	0.181
-680.237	-162.577	-0.033	-0.002
-679.222	-200.000	-0.047	0.403
-678.208	-72.268	0.336	0.126
-677.193	23.233	-0.188	0.156
-676.178	800.000	0.038	-0.114
-675.164	-108.647	-0.446	-0.096
-674.149	800.000	0.051	-0.199
-673.135	800.000	0.042	-0.120
-672.120	636.447	-0.032	0.082
-671.105	-200.000	0.027	0.196
-670.091	111.687	-0.187	-0.228
-669.076	-88.972	0.050	-0.015
-668.062	332.167	0.090	-0.175
-667.047	-47.047	-0.304	0.150
-666.032	-118.854	0.034	0.006
-665.018	-200.000	-0.006	0.133
-664.003	-129.813	0.216	0.030
-662.989	-114.860	0.375	0.072
-661.974	151.463	-0.019	0.026
-660.959	423.440	-0.039	0.084
-659.945	-200.000	0.030	0.312
-658.930	-64.677	0.565	0.231
-657.916	800.000	0.062	-0.202
-656.901	229.353	-0.085	-0.140
-655.886	90.509	0.105	-0.118
-654.872	-200.000	-0.007	-0.262
-653.857	-68.919	0.079	0.031
-652.843	367.908	-0.138	-0.281
-651.828	-56.336	0.283	-0.127
-650.814	22.707	-0.144	-0.119
-649.799	-44.458	0.100	0.051
-648.784	-8.138	0.223	-0.151
-647.770	7.700	-0.233	0.175
-646.755	-108.571	-0.363	-0.079
-645.741	-93.386	0.204	0.057
-644.726	800.000	-0.136	-0.414
-643.711	-79.643	-0.122	0.042
-642.697	-200.000	-0.007	-0.125
-641.682	-22.798	-0.326	-0.198
-640.668	-53.322	0.143	0.066
-639.653	112.138	-0.181	-0.221
-638.638	-200.000	0.010	0.106
-637.624	-5.379	-0.279	0.193
-636.609	475.531	-0.136	-0.309
-635.595	-200.000	0.068	0.302
-634.580	-200.000	0.026	0.211
-633.565	319.616	-0.043	0.082
-632.551	800.000	0.154	-0.440
-631.536	-124.967	0.225	-0.035
-630.522	800.000	-0.022	-0.066
-629.507	423.578	0.051	-0.111
-628.492	112.646	-0.148	0.180
-627.478	-200.000	-0.014	0.183
-626.463	61.235	0.199	-0.199
-625.449	328.638	0.046	-0.088
-624.434	-192.996	-0.044	0.000
-623.419	-30.958	-0.223	-0.127
-622.405	227.750	0.199	-0.326
-621.390	-74.457	0.281	0.102
-620.376	-200.000	-0.010	0.168
-619.361	-192.531	0.285	0.003
-618.346	-31.379	-0.177	0.100
-617.332	-100.847	0.250	0.062
-616.317	-144.944	-0.215	-0.020
-615.303	-31.396	-0.329	-0.186
-614.288	-105.686	0.128	-0.029
-613.273	-40.444	-0.124	-0.065
-612.259	-143.999	0.209	-0.020
-611.244	-95.915	-0.175	0.047
-610.230	-86.784	0.388	0.119
-609.215	800.000	-0.060	-0.174
-608.201	-200.000	0.022	-0.149
-607.186	-10.231	0.126	-0.084
-606.171	-74.596	-0.103	0.037
-605.157	800.000	-0.052	0.157
-604.142	-87.311	-0.116	-0.035
-603.128	-200.000	0.017	0.215
-602.113	89.008	0.123	-0.138
-601.098	-200.000	0.010	0.070
-600.084	322.003	0.152	-0.291
-599.069	-200.000	0.052	-0.233
-598.055	-86.711	0.102	-0.031
-597.040	-88.589	0.296	-0.089
-596.025	169.737	0.190	-0.273
-595.011	-200.000	0.033	-0.282
-593.996	-200.000	0.042	-0.288
-592.982	108.429	0.045	-0.054
-591.967	-81.077	0.068	0.023
-590.952	800.000	-0.133	-0.498
-589.938	-61.062	0.157	0.067
-588.923	-200.000	-0.013	-0.080
-587.909	-99.140	-0.348	-0.088
-586.894	-82.829	0.332	0.108
-585.879	120.119	-0.125	-0.157
-584.865	800.000	0.024	-0.093
-583.850	-43.807	-0.334	-0.169
-582.836	117.518	0.208	0.257
-581.821	-91.227	-0.289	-0.083
-580.806	800.000	-0.052	0.166
-579.792	198.812	-0.053	0.082
-578.777	453.616	-0.096	0.213
-577.763	-200.000	0.001	-0.084
-576.748	-23.655	-0.006	-0.004
-575.733	-200.000	-0.026	0.226
-574.719	-121.583	0.101	-0.017
-573.704	-112.762	-0.122	0.024
-572.690	-130.210	-0.199	0.027
-571.675	-118.040	-0.284	-0.051
-570.661	455.544	0.039	-0.087
-569.646	-30.465	0.060	0.034
-568.631	-56.826	-0.431	-0.191
-567.617	198.333	-0.233	0.358
-566.602	-95.646	-0.307	0.082
-565.588	152.430	-0.140	0.192
-564.573	-72.006	0.059	-0.022
-563.558	-72.409	0.034	0.013
-562.544	389.686	0.063	0.131
-561.529	583.233	0.064	0.159
-560.515	69.611	0.226	0.234
-559.500	-81.469	0.191	-0.063
-558.485	60.000	-0.111	-0.110
-557.471	-28.515	-0.218	-0.126
-556.456	-32.635	0.265	-0.148
-555.442	402.971	0.103	0.218
-554.427	-200.000	0.069	0.317
-553.412	800.000	0.066	-0.186
-552.398	303.447	-0.037	-0.069
-551.383	-200.000	-0.005	0.144
-550.369	-200.000	0.265	0.000
-549.354	-200.000	0.011	0.224
-548.339	-200.000	-0.038	0.205
-547.325	177.143	0.130	-0.190
-546.310	800.000	0.039	-0.145
-545.296	50.803	0.128	-0.122
-544.281	180.846	-0.171	0.253
-543.266	-200.000	-0.041	-0.199
-542.252	-13.144	0.202	0.132
-541.237	800.000	-0.067	-0.268
-540.223	-101.129	-0.092	-0.023
-539.208	123.778	0.136	-0.171
-538.193	-150.547	0.162	-0.012
-537.179	-152.712	-0.452	0.032
-536.164	-190.938	-0.366	0.004
-535.150	449.237	-0.031	-0.068
-534.135	-115.422	-0.221	0.042
-533.121	-200.000	0.009	0.133
-532.106	-19.590	0.214	0.133
-531.091	8.390	-0.131	0.099
-530.077	146.349	-0.072	-0.097
-529.062	800.000	0.019	0.055
-528.048	41.407	-0.208	-0.189
-527.033	-32.600	0.186	0.104
-526.018	-63.548	0.224	0.092
-525.004	800.000	0.113	-0.432
-523.989	-21.196	0.225	-0.138
-522.975	5.219	-0.078	-0.058
-521.960	-134.735	-0.451	0.055
-520.945	800.000	0.079	-0.317
-519.931	-96.838	-0.176	-0.046
-518.916	469.107	-0.243	0.546
-517.902	-105.469	-0.229	-0.052
-516.887	-34.192	-0.053	0.029
-515.872	800.000	-0.078	0.289
-514.858	88.510	0.113	-0.125
-513.843	33.182	0.058	-0.050
-512.829	6.903	0.324	-0.242
-511.814	83.594	0.153	-0.167
-510.799	-43.726	-0.111	-0.056
-509.785	-200.000	0.041	-0.182
-508.770	6.252	-0.298	0.222
-507.756	-200.000	-0.041	-0.193
-506.741	190.581	0.217	-0.326
-505.726	-200.000	-0.063	-0.313
-504.712	-111.299	-0.124	-0.025
-503.697	-44.111	-0.101	-0.051
-502.683	548.292	-0.175	0.420
-501.668	-64.765	0.191	0.078
-500.653	-166.535	0.101	-0.004
-499.639	-94.132	-0.234	0.064
-498.624	146.168	-0.132	-0.178
-497.610	597.899	0.061	0.151
-496.595	48.221	0.050	0.047
-495.581	568.432	0.076	0.185
-494.566	399.366	0.056	-0.119
-493.551	54.033	0.129	-0.124
-492.537	-57.719	-0.141	0.062
-491.522	-200.000	-0.269	0.001
-490.508	182.213	-0.193	-0.285
-489.493	-74.603	-0.253	-0.091
-488.478	798.984	0.080	-0.221
-487.464	800.000	-0.059	-0.201
-486.449	623.213	0.067	-0.169
-485.435	-119.877	0.269	-0.046
-484.420	800.000	-0.079	-0.337
-483.405	-33.639	0.092	-0.051
-482.391	-65.175	0.406	0.164
-481.376	165.650	-0.427	-0.604
-480.362	-200.000	-0.037	-0.580
-479.347	-200.000	0.055	0.372
-478.332	800.000	-0.097	0.421
-477.318	-200.000	0.032	0.171
-476.303	800.000	0.066	-0.234
-475.289	18.273	-0.104	-0.083
-474.274	800.000	-0.117	0.337
-473.259	800.000	0.069	0.261
-472.245	-7.131	0.348	0.237
-471.230	307.963	0.097	0.182
-470.216	-200.000	0.013	-0.184
-469.201	-90.619	0.337	0.097
-468.186	0.643	0.349	-0.250
-467.172	-200.000	0.014	-0.357
-466.157	-55.168	-0.160	0.072
-465.143	-200.000	0.060	0.317
-464.128	-110.363	-0.502	0.105
-463.113	-122.515	0.140	-0.023
-462.099	198.977	0.046	-0.070
-461.084	-64.758	0.356	0.144
-460.070	800.000	-0.045	0.156
-459.055	-44.036	-0.180	-0.090
-458.040	-44.196	0.326	-0.163
-457.026	800.000	-0.064	-0.250
-456.011	-49.748	0.044	0.021
-454.997	87.485	0.126	0.139
-453.982	-9.331	-0.096	0.064
-452.968	800.000	0.064	0.194
-451.953	-200.000	0.056	-0.361
-450.938	-141.024	-0.071	0.007
-449.924	-98.010	0.316	0.081
-448.909	-127.608	-0.105	0.015
-447.895	-71.685	-0.102	0.038
-446.880	-40.486	0.100	-0.052
-445.865	800.000	-0.040	-0.114
-444.851	681.345	0.129	-0.337
-443.836	-80.314	-0.111	-0.037
-442.822	281.737	0.141	0.253
-441.807	17.164	0.189	-0.150
-440.792	-114.789	-0.200	0.038
-439.778	-133.024	0.317	-0.040
-438.763	-79.906	0.190	-0.064
-437.749	-136.711	0.126	0.014
-436.734	-27.268	0.127	-0.074
-435.719	-200.000	-0.013	-0.192
-434.705	87.852	0.198	0.219
-433.690	243.108	-0.220	0.368
-432.676	128.068	-0.227	-0.289
-431.661	56.408	0.074	0.072
-430.646	-156.918	-0.281	0.017
-429.632	119.096	0.148	0.183
-428.617	217.381	0.026	0.042
-427.603	-200.000	-0.041	-0.195
-426.588	112.632	-0.139	0.168
-425.573	800.000	-0.072	-0.269
-424.559	21.845	0.320	-0.260
-423.544	-200.000	-0.026	-0.191
-422.530	-200.000	0.018	0.106
-421.515	-111.292	-0.156	0.032
-420.500	62.696	0.018	0.018
-419.486	-72.470	0.160	0.059
-418.471	800.000	0.013	0.039
-417.457	-83.103	0.091	-0.029
-416.442	1.012	0.093	0.066
-415.428	-200.000	0.031	-0.175
-414.413	800.000	-0.033	0.101
-413.398	-38.027	-0.006	-0.003
-412.384	81.337	-0.017	0.018
-411.369	-200.000	-0.006	0.122
-410.355	-123.072	0.261	-0.042
-409.340	434.536	-0.059	-0.127
-408.325	551.458	0.081	0.195
-407.311	-81.476	-0.258	-0.085
-406.296	-105.857	-0.268	-0.060
-405.282	-53.127	0.115	-0.053
-404.267	172.555	0.106	-0.152
-403.252	150.175	0.240	0.325
-402.238	150.994	0.110	-0.149
-401.223	32.443	-0.074	-0.064
-400.209	496.892	-0.028	-0.064
-399.194	-200.000	-0.011	0.237
-398.179	800.000	-0.042	0.168
-397.165	168.302	0.188	0.267
-396.150	800.000	-0.106	-0.352
-395.136	-200.000	-0.038	-0.290
-394.121	-82.638	-0.234	0.076
-393.106	-200.000	-0.068	0.409
-392.092	-88.673	-0.134	0.040
-391.077	-200.000	0.003	0.250
-390.063	-62.979	-0.085	-0.035
-389.048	-33.770	0.234	0.129
-388.033	-108.020	0.242	0.052
-387.019	-90.731	0.255	0.074
-386.004	398.172	0.059	0.124
-384.990	122.380	0.164	0.205
-383.975	750.604	-0.065	0.176
-382.960	-34.161	-0.155	-0.085
-381.946	460.669	0.111	0.247
-380.931	-68.203	-0.154	0.060
-379.917	-148.333	-0.208	0.017
-378.902	-95.209	0.199	-0.053
-377.888	250.221	-0.057	0.097
-376.873	-200.000	-0.000	0.164
-375.858	-12.137	0.156	-0.102
-374.844	-114.995	-0.257	-0.049
-373.829	-56.311	0.341	-0.151
-372.815	-103.051	-0.263	0.062
-371.800	-200.000	0.028	-0.151
-370.785	-83.203	-0.246	0.079
-369.771	-1.945	0.065	0.045
-368.756	-62.462	0.126	-0.052
-367.742	154.275	-0.196	-0.268
-366.727	-46.102	0.046	0.022
-365.712	204.455	0.017	0.027
-364.698	-200.000	-0.053	0.489
-363.683	-28.822	-0.320	0.183
-362.669	800.000	-0.050	0.214
-361.654	-98.677	-0.182	0.046
-360.639	21.913	0.303	-0.246
-359.625	800.000	0.035	-0.109
-358.610	-149.544	-0.088	0.007
-357.596	514.018	0.151	-0.352
-356.581	288.680	0.116	0.210
-355.566	5.149	-0.290	0.213
-354.552	800.000	0.081	-0.287
-353.537	-7.201	-0.151	0.102
-352.523	-123.648	0.192	0.030
-351.508	194.140	0.148	0.224
-350.493	-200.000	0.038	0.174
-349.479	24.201	0.337	0.277
-348.464	-136.938	-0.438	-0.050
-347.450	202.219	0.249	-0.383
-346.435	-13.763	-0.278	0.179
-345.420	-36.375	-0.085	0.046
-344.406	-65.501	0.240	0.096
-343.391	79.189	-0.202	0.215
-342.377	77.704	-0.184	-0.195
-341.362	62.888	-0.250	0.249
-340.348	218.121	-0.057	-0.091
-339.333	-4.157	-0.145	-0.100
-338.318	-200.000	0.003	-0.231
-337.304	61.475	-0.059	0.058
-336.289	150.465	-0.092	-0.124
-335.275	-33.073	0.236	-0.130
-334.260	-18.141	0.056	-0.035
-333.245	240.905	0.077	-0.127
-332.231	67.059	0.215	0.218
-331.216	-200.000	0.007	0.204
-330.202	-116.065	0.245	-0.045
-329.187	-67.065	0.275	0.108
-328.172	-136.888	-0.139	-0.016
-327.158	-200.000	-0.041	-0.181
-326.143	800.000	0.064	-0.268
-325.129	56.514	0.148	-0.143
-324.114	-54.604	0.253	-0.114
-323.099	-60.436	0.101	0.043
-322.085	-52.617	-0.189	-0.087
-321.070	-4.291	0.040	0.028
-320.056	48.262	-0.057	0.053
-319.041	92.552	-0.129	-0.144
-318.026	-91.324	-0.471	-0.134
-317.012	-143.537	0.175	-0.017
-315.997	38.269	-0.107	0.095
-314.983	-51.596	-0.423	-0.197
-313.968	-200.000	0.020	-0.209
-312.953	137.933	-0.154	-0.201
-311.939	8.880	-0.205	-0.154
-310.924	132.974	-0.218	-0.280
-309.910	29.764	-0.233	0.197
-308.895	73.393	-0.128	-0.133
-307.880	-47.324	0.141	-0.068
-306.866	-200.000	0.077	-0.480
-305.851	252.446	-0.228	0.386
-304.837	-22.688	-0.266	0.160
-303.822	303.683	0.029	-0.053
-302.807	-52.208	0.208	0.096
-301.793	140.135	0.126	0.165
-300.778	-67.760	-0.112	0.044
-299.764	111.726	-0.109	0.130
-298.749	-75.555	0.237	-0.084
-297.735	220.965	-0.090	0.144
-296.720	-91.146	0.232	-0.066
-295.705	-156.237	0.205	-0.013
-294.691	-128.199	-0.089	-0.013
-293.676	439.277	0.112	0.244
-292.662	-75.035	0.295	0.105
-291.647	-130.268	0.007	-0.001
-290.632	-200.000	-0.003	0.045
-289.618	-139.260	-0.160	0.017
-288.603	31.380	-0.106	-0.091
-287.589	-35.519	0.129	0.069
-286.574	-61.022	0.078	0.033
-285.559	-104.757	0.063	0.014
-284.545	0.088	-0.066	-0.047
-283.530	800.000	0.011	0.042
-282.516	-18.855	-0.039	0.024
-281.501	-128.141	0.401	0.057
-280.486	138.667	-0.238	0.310
-279.472	-200.000	0.012	-0.153
-278.457	-152.806	0.259	0.018
-277.443	-200.000	-0.001	0.080
-276.428	-200.000	-0.008	-0.177
-275.413	-78.825	0.265	-0.090
-274.399	-103.704	0.342	0.079
-273.384	160.150	0.151	-0.210
-272.370	-200.000	0.037	-0.173
-271.355	67.810	-0.201	0.204
-270.340	-100.972	0.102	0.025
-269.326	800.000	-0.042	0.144
-268.311	148.098	0.053	-0.071
-267.297	-113.614	0.060	-0.012
-266.282	-90.570	-0.193	-0.055
-265.267	80.464	0.188	0.201
-264.253	128.915	-0.169	0.214
-263.238	-200.000	-0.116	0.512
-262.224	23.075	-0.076	0.062
-261.209	328.380	0.166	0.317
-260.195	-151.011	-0.315	0.024
-259.180	103.820	-0.110	0.129
-258.165	-200.000	0.008	0.150
-257.151	155.768	-0.069	0.094
-256.136	-53.847	-0.309	-0.140
-255.122	-52.206	-0.416	-0.192
-254.107	64.393	0.064	0.064
-253.092	113.935	-0.127	-0.153
-252.078	771.542	-0.030	0.082
-251.063	-135.479	-0.267	0.032
-250.049	-90.766	-0.184	0.053
-249.034	22.342	-0.140	0.113
-248.019	-200.000	-0.001	-0.462
-247.005	-200.000	-0.006	-0.247
-245.990	800.000	-0.111	0.412
-244.976	-200.000	-0.002	-0.040
-243.961	428.513	-0.102	-0.219
-242.946	107.088	0.070	0.083
-241.932	162.934	0.200	0.278
-240.917	83.513	-0.112	-0.121
-239.903	800.000	0.100	0.360
-238.888	-200.000	0.020	-0.237
-237.873	800.000	-0.048	0.165
-236.859	144.325	-0.111	-0.146
-235.844	159.346	-0.094	-0.129
-234.830	70.849	-0.064	0.066
-233.815	77.569	0.168	-0.177
-232.800	800.000	0.050	-0.209
-231.786	-184.358	0.137	-0.002
-230.771	48.280	-0.133	-0.123
-229.757	149.541	-0.121	0.162
-228.742	-0.057	0.441	0.312
-227.727	742.628	-0.028	-0.075
-226.713	-114.894	0.209	0.039
-225.698	189.954	-0.070	0.104
-224.684	-200.000	-0.019	0.134
-223.669	800.000	-0.109	-0.461
-222.655	-29.832	0.003	0.002
-221.640	-200.000	0.035	0.373
-220.625	-3.153	-0.084	-0.058
-219.611	-200.000	0.047	-0.250
-218.596	131.284	-0.114	0.146
-217.582	800.000	-0.027	0.103
-216.567	-80.109	-0.127	0.042
-215.552	800.000	0.098	0.268
-214.538	-200.000	0.018	0.319
-213.523	-62.261	0.083	-0.034
-212.509	-69.841	0.186	-0.070
-211.494	-89.107	0.076	0.022
-210.479	242.666	0.120	-0.199
-209.465	-129.168	0.122	0.017
-208.450	388.165	0.102	0.208
-207.436	589.603	-0.083	-0.203
-206.421	-200.000	0.028	-0.154
-205.406	-59.039	0.274	0.117
-204.392	203.515	-0.094	0.144
-203.377	-141.876	-0.111	0.011
-202.363	-56.382	0.066	-0.029
-201.348	-89.148	-0.155	0.045
-200.333	179.573	0.248	0.360
-199.319	103.507	0.187	0.217
-198.304	-94.499	-0.165	-0.045
-197.290	-78.011	0.182	0.062
-196.275	-150.679	0.025	0.002
-195.260	-110.686	-0.559	0.114
-194.246	157.734	0.213	0.292
-193.231	19.925	0.135	0.108
-192.217	109.544	0.179	0.212
-191.202	-149.784	0.288	-0.022
-190.187	-115.936	-0.282	0.052
-189.173	800.000	0.016	-0.062
-188.158	-110.049	0.118	-0.025
-187.144	-123.438	0.127	0.020
-186.129	72.057	0.190	-0.195
-185.114	-200.000	-0.029	-0.129
-184.100	642.071	0.069	0.174
-183.085	800.000	-0.063	0.233
-182.071	-76.760	-0.221	-0.076
-181.056	271.353	-0.080	0.140
-180.042	800.000	0.051	0.189
-179.027	-200.000	0.006	-0.144
-178.012	-200.000	-0.005	-0.023
-176.998	21.683	0.078	0.063
-175.983	433.308	-0.016	-0.035
-174.969	-151.480	0.216	-0.016
-173.954	-130.698	-0.205	-0.027
-172.939	800.000	0.049	0.144
-171.925	-200.000	0.042	0.271
-170.910	-200.000	-0.002	0.123
-169.896	-58.208	0.103	-0.044
-168.881	-155.926	-0.040	0.003
-167.866	-154.110	-0.122	-0.008
-166.852	-6.624	0.169	-0.114
-165.837	8.157	-0.149	-0.111
-164.823	-78.841	-0.242	-0.082
-163.808	-77.363	0.217	-0.075
-162.793	-200.000	0.014	-0.450
-161.779	-28.816	0.196	-0.111
-160.764	104.565	-0.117	-0.137
-159.750	69.353	-0.124	0.126
-158.735	-129.630	0.311	0.042
-157.720	-25.339	0.123	-0.072
-156.706	800.000	-0.070	0.269
-155.691	-9.177	-0.240	0.159
-154.677	-54.745	-0.118	0.053
-153.662	-200.000	0.050	0.265
-152.647	-200.000	0.035	-0.315
-151.633	-200.000	-0.029	0.127
-150.618	356.163	-0.158	0.311
-149.604	800.000	0.138	-0.467
-148.589	-45.604	0.123	-0.060
-147.574	-200.000	0.020	0.214
-146.560	-200.000	-0.012	0.293
-145.545	-86.765	-0.373	-0.113
-144.531	273.225	0.098	0.171
-143.516	-15.942	0.280	-0.176
-142.502	-145.190	-0.056	-0.005
-141.487	-200.000	0.022	-0.224
-140.472	-86.575	-0.065	-0.020
-139.458	-117.232	-0.261	0.047
-138.443	-118.818	0.316	0.055
-137.429	-91.655	-0.295	0.083
-136.414	78.627	0.071	0.075
-135.399	-200.000	-0.009	-0.258
-134.385	299.914	0.024	0.044
-133.370	758.672	-0.079	0.212
-132.356	226.039	0.185	-0.297
-131.341	800.000	-0.126	0.359
-130.326	731.737	0.082	0.217
-129.312	20.876	-0.207	0.165
-128.297	111.274	0.113	0.135
-127.283	-200.000	0.006	0.046
-126.268	800.000	0.050	-0.189
-125.253	-163.308	0.051	-0.002
-124.239	-10.470	-0.331	0.217
-123.224	84.815	-0.101	0.109
-122.210	-6.395	-0.421	0.284
-121.195	572.135	-0.056	-0.135
-120.180	156.809	-0.143	0.195
-119.166	364.932	0.095	0.188
-118.151	20.133	-0.317	-0.252
-117.137	258.592	0.074	0.127
-116.122	94.964	0.095	0.106
-115.107	411.663	-0.075	0.158
-114.093	41.814	0.410	0.367
-113.078	118.870	-0.074	0.090
-112.064	-82.304	-0.210	-0.067
-111.049	-77.243	-0.308	-0.106
-110.034	-17.004	0.480	0.299
-109.020	-154.741	0.200	-0.013
-108.005	-94.606	0.165	0.044
-106.991	-22.540	-0.199	0.119
-105.976	-200.000	-0.034	0.603
-104.962	-111.083	0.083	0.017
-103.947	131.717	0.116	0.147
-102.932	667.866	-0.065	0.166
-101.918	710.695	-0.115	0.300
-100.903	-3.841	-0.268	-0.184
-99.889	152.207	0.119	0.160
-98.874	246.926	0.032	-0.053
-97.859	-200.000	0.024	0.207
-96.845	76.206	0.149	-0.156
-95.830	-18.156	0.403	-0.249
-94.816	-200.000	0.015	-0.180
-93.801	5.422	0.199	0.145
-92.786	-200.000	-0.001	0.068
-91.772	-84.577	-0.212	-0.066
-90.757	57.381	0.232	0.223
-89.743	-57.556	-0.316	-0.137
-88.728	-53.067	-0.323	0.146
-87.713	-62.425	0.304	0.125
-86.699	249.340	0.097	0.161
-85.684	204.661	-0.052	-0.080
-84.670	-200.000	-0.028	0.219
-83.655	94.891	-0.098	-0.110
-82.640	-40.319	0.069	-0.035
-81.626	9.351	-0.176	0.131
-80.611	-89.215	0.064	-0.019
-79.597	800.000	-0.010	0.029
-78.582	146.105	0.033	-0.044
-77.567	-200.000	-0.080	-0.405
-76.553	-74.850	-0.258	0.091
-75.538	44.227	-0.134	0.122
-74.524	-121.302	0.366	-0.060
-73.509	127.777	-0.152	0.190
-72.494	192.784	-0.007	0.010
-71.480	-200.000	-0.029	-0.135
-70.465	800.000	0.042	-0.141
-69.451	800.000	0.049	-0.178
-68.436	260.586	0.032	0.054
-67.422	-200.000	0.026	0.231
-66.407	-200.000	-0.024	-0.244
-65.392	184.625	-0.099	0.145
-64.378	-143.383	-0.235	-0.022
-63.363	751.537	0.078	-0.207
-62.349	-200.000	-0.012	0.069
-61.334	33.556	-0.669	-0.573
-60.319	285.309	0.327	0.581
-59.305	-200.000	-0.062	-1.057
-58.290	135.244	0.740	0.948
-57.276	800.000	0.369	1.571
-56.261	-200.000	93.562	558.077
-55.246	643.258	1374.828	3451.480
-54.232	191.008	2588.905	3834.649
-53.217	120.291	2300.765	2811.985
-52.203	46.165	1918.938	1749.966
-51.188	39.606	1708.204	1507.780
-50.173	36.655	1663.137	1445.928
-49.159	54.060	1709.926	1618.750
-48.144	57.476	1728.341	1661.951
-47.130	39.298	1685.155	1484.876
-46.115	36.357	1669.956	1449.382
-45.100	36.110	1665.337	1443.471
-44.086	36.089	1662.812	1441.068
-43.071	36.026	1660.119	1438.203
-42.057	36.052	1657.741	1436.281
-41.042	36.072	1655.910	1434.790
-40.027	36.073	1654.360	1433.395
-39.013	35.985	1652.142	1430.766
-37.998	35.971	1651.119	1429.720
-36.984	35.984	1649.721	1428.543
-35.969	36.221	1647.567	1428.378
-34.954	36.150	1646.066	1426.495
-33.940	36.251	1644.211	1425.580
-32.925	36.229	1642.161	1423.580
-31.911	36.268	1640.615	1422.475
-30.896	36.260	1638.591	1420.605
-29.881	36.181	1637.465	1418.991
-28.867	36.176	1635.973	1417.605
-27.852	36.153	1634.703	1416.280
-26.838	36.178	1633.053	1414.973
-25.823	36.144	1631.307	1413.160
-24.809	36.238	1630.206	1412.834
-23.794	36.138	1628.826	1410.849
-22.779	36.180	1626.990	1409.509
-21.765	36.206	1625.389	1408.256
-20.750	36.133	1623.926	1406.404
-19.736	36.284	1622.395	1406.119
-18.721	36.220	1620.872	1404.282
-17.706	36.197	1619.182	1402.595
-16.692	36.139	1618.206	1401.272
-15.677	36.191	1616.506	1400.118
-14.663	36.193	1615.548	1399.251
-13.648	36.263	1614.110	1398.457
-12.633	36.224	1612.139	1396.412
-11.619	36.259	1610.477	1395.169
-10.604	36.189	1609.071	1393.386
-9.590	36.196	1608.239	1392.667
-8.575	36.266	1606.445	1391.561
-7.560	36.120	1605.266	1389.434
-6.546	36.137	1604.265	1388.631
-5.531	36.165	1603.077	1387.753
-4.517	36.147	1601.746	1386.414
-3.502	36.144	1600.727	1385.455
-2.487	36.246	1599.425	1385.006
-1.473	35.793	1587.956	1371.791
-0.458	32.713	1566.836	1331.776
0.556	29.136	1566.071	1294.330
1.571	26.370	1589.140	1293.516
2.586	25.547	1602.617	1298.436
3.600	22.431	1549.187	1233.243
4.615	13.566	1438.340	1086.989
5.629	6.179	1372.528	990.765
6.644	5.008	1364.107	977.263
7.659	5.025	1362.062	975.815
8.673	4.831	1361.281	973.956
9.688	4.866	1359.817	973.041
10.702	4.858	1357.178	971.017
11.717	7.995	1363.868	995.344
12.731	16.012	1377.856	1055.886
13.746	20.767	1384.669	1090.883
14.761	20.226	1382.426	1085.635
15.775	19.216	1379.800	1077.164
16.790	18.142	1377.236	1068.361
17.804	17.222	1374.789	1060.633
18.819	16.849	1373.624	1057.311
19.834	16.652	1372.205	1054.897
20.848	16.306	1371.265	1051.923
21.863	16.106	1369.906	1049.543
22.877	16.011	1368.904	1048.093
23.892	16.076	1367.535	1047.358
24.907	15.854	1367.399	1045.780
25.921	16.023	1366.353	1045.936
26.936	16.033	1364.823	1044.734
27.950	16.036	1364.287	1044.252
28.965	16.171	1362.783	1043.841
29.980	16.216	1361.633	1043.147
30.994	16.381	1360.630	1043.307
32.009	16.357	1359.843	1042.463
33.023	16.345	1358.473	1041.245
34.038	16.279	1357.297	1039.845
35.053	16.056	1356.498	1037.770
36.067	16.221	1354.484	1037.149
37.082	16.237	1353.901	1036.712
38.096	16.231	1353.258	1036.089
39.111	16.161	1352.666	1035.119
40.126	16.186	1351.617	1034.375
41.140	15.982	1350.352	1032.067
42.155	15.833	1350.159	1030.914
43.169	15.856	1350.077	1030.904
44.184	15.824	1349.145	1029.905
45.199	15.885	1348.910	1030.003
46.213	16.057	1347.837	1030.147
47.228	16.092	1347.513	1030.022
48.242	16.079	1346.076	1028.752
49.257	16.134	1344.490	1027.784
50.271	16.151	1342.783	1026.494
51.286	16.118	1342.142	1025.710
52.301	16.114	1340.733	1024.516
53.315	16.012	1339.591	1022.936
54.330	15.995	1338.582	1021.974
55.344	16.004	1337.115	1020.818
56.359	16.054	1336.542	1020.592
57.374	15.970	1335.176	1018.951
58.388	15.871	1334.506	1017.750
59.403	15.857	1333.998	1017.189
60.417	15.848	1333.652	1016.782
61.432	15.738	1332.943	1015.488
62.447	15.826	1331.450	1014.787
63.461	15.739	1330.402	1013.373
64.476	15.697	1329.268	1012.168
65.490	15.750	1328.099	1011.511
66.505	15.769	1326.226	1010.109
67.520	15.798	1325.346	1009.523
68.534	15.759	1324.172	1008.306
69.549	15.749	1323.381	1007.550
70.563	15.860	1322.075	1007.131
71.578	15.667	1321.154	1005.186
72.593	15.563	1320.177	1003.735
73.607	15.510	1319.713	1002.974
74.622	15.558	1318.889	1002.546
75.636	15.632	1317.999	1002.225
76.651	15.662	1317.353	1001.824
77.666	15.666	1316.829	1001.361
78.680	15.711	1316.412	1001.225
79.695	15.780	1315.547	1000.883
80.709	15.865	1314.960	1000.859
81.724	15.849	1314.121	1000.035
82.739	15.856	1313.430	999.462
83.753	16.064	1312.150	999.632
84.768	16.151	1311.514	999.575
85.782	16.142	1310.731	998.835
86.797	16.105	1308.938	997.163
87.812	16.070	1307.942	996.111
88.826	16.040	1306.815	994.987
89.841	16.021	1305.724	993.956
90.855	16.005	1305.369	993.499
91.870	16.078	1303.989	992.792
92.884	16.195	1303.012	992.651
93.899	16.209	1302.396	992.178
94.914	16.251	1301.552	991.692
95.928	16.319	1300.385	991.113
96.943	16.175	1299.816	989.751
97.957	16.086	1299.017	988.528
98.972	16.103	1297.852	987.656
99.987	16.171	1296.544	986.970
101.001	16.146	1295.661	986.065
102.016	16.200	1294.937	985.741
103.030	16.189	1294.126	984.977
104.045	16.151	1293.204	983.961
105.060	16.113	1291.754	982.554
106.074	15.994	1290.282	980.653
107.089	15.850	1289.028	978.777
108.103	15.777	1288.036	977.509
109.118	15.945	1286.196	977.001
110.133	15.779	1285.073	975.104
111.147	15.827	1283.998	974.479
112.162	15.814	1282.763	973.382
113.176	15.942	1281.541	973.103
114.191	16.001	1280.578	972.626
115.206	15.895	1279.310	970.967
116.220	15.905	1278.434	970.275
117.235	15.904	1277.110	969.176
118.249	15.795	1276.048	967.659
119.264	15.826	1274.710	966.736
120.279	15.807	1273.813	965.861
121.293	15.841	1272.715	965.138
122.308	15.790	1272.006	964.227
123.322	15.777	1270.739	963.107
124.337	15.761	1269.639	962.094
125.352	15.820	1268.378	961.393
126.366	15.710	1267.284	959.846
127.381	15.782	1266.484	959.566
128.395	15.782	1265.569	958.791
129.410	15.747	1264.982	958.062
130.424	15.845	1263.935	957.740
131.439	15.877	1263.222	957.296
132.454	15.908	1262.056	956.505
133.468	15.927	1261.232	955.905
134.483	15.888	1260.841	955.305
135.497	15.895	1259.656	954.359
136.512	15.968	1258.162	953.557
137.527	16.004	1256.500	952.418
138.541	16.008	1255.688	951.738
139.556	16.078	1254.038	950.802
140.570	16.049	1253.477	950.127
141.585	16.190	1251.973	949.696
142.600	16.258	1250.833	949.132
143.614	16.191	1249.964	948.012
144.629	16.333	1248.581	947.672
145.643	16.185	1247.809	946.175
146.658	16.089	1246.569	944.611
147.673	16.109	1244.867	943.350
148.687	15.958	1244.245	941.952
149.702	15.886	1242.543	940.180
150.716	15.984	1241.181	939.611
151.731	16.002	1240.235	938.915
152.746	16.086	1238.575	938.037
153.760	16.017	1237.789	936.978
154.775	16.044	1236.678	936.202
155.789	16.222	1235.843	936.476
156.804	16.179	1234.733	935.314
157.819	16.241	1233.773	934.848
158.833	16.306	1233.187	934.681
159.848	16.343	1231.884	933.814
160.862	16.305	1230.948	932.810
161.877	16.000	1230.091	930.395
162.892	16.093	1228.639	929.730
163.906	16.199	1227.423	929.309
164.921	16.064	1226.615	927.876
165.935	16.119	1226.053	927.669
166.950	16.068	1225.529	926.908
167.964	16.148	1224.652	926.606
168.979	16.238	1223.527	926.164
169.994	16.139	1222.995	925.139
171.008	16.197	1222.145	924.733
172.023	16.317	1221.772	925.023
173.037	16.299	1220.658	923.998
174.052	16.289	1219.792	923.209
175.067	16.117	1218.813	921.443
176.081	16.196	1217.469	920.778
177.096	16.085	1216.659	919.480
178.110	16.211	1215.374	919.115
179.125	16.162	1214.191	917.872
180.140	16.219	1212.986	917.190
181.154	16.294	1211.884	916.683
182.169	16.410	1210.722	916.353
183.183	16.316	1210.048	915.251
184.198	16.404	1208.811	914.708
185.213	16.403	1207.851	913.900
186.227	16.651	1205.923	913.696
187.242	16.436	1205.828	912.382
188.256	16.542	1204.663	911.994
189.271	16.553	1203.669	911.218
190.286	16.369	1202.244	909.068
191.300	16.195	1201.337	907.367
192.315	16.096	1201.095	906.572
193.329	16.238	1199.982	906.415
194.344	16.220	1199.526	905.892
195.359	16.334	1199.309	906.260
196.373	16.430	1198.740	906.263
197.388	16.558	1198.493	906.683
198.402	16.651	1198.188	906.872
199.417	16.674	1197.501	906.395
200.432	16.827	1196.351	906.261
201.446	16.763	1195.837	905.453
202.461	16.802	1194.775	904.777
203.475	16.858	1193.976	904.389
204.490	16.728	1192.649	902.610
205.504	16.537	1191.991	901.016
206.519	16.687	1190.238	900.407
207.534	16.654	1188.930	899.162
208.548	16.607	1188.409	898.441
209.563	16.686	1187.439	898.044
210.577	16.671	1186.613	897.264
211.592	16.625	1185.760	896.294
212.607	16.766	1184.790	896.226
213.621	16.760	1184.188	895.663
214.636	16.842	1182.931	895.064
215.650	16.790	1182.251	894.200
216.665	16.779	1181.261	893.314
217.680	16.878	1180.629	893.277
218.694	16.994	1179.488	892.947
219.709	17.054	1178.357	892.324
220.723	16.995	1177.594	891.358
221.738	16.784	1177.912	890.411
222.753	16.849	1176.665	889.732
223.767	16.923	1175.858	889.431
224.782	17.017	1175.162	889.316
225.796	17.148	1174.307	889.281
226.811	17.036	1174.295	888.605
227.826	16.929	1173.380	887.271
228.840	16.938	1172.290	886.415
229.855	17.007	1171.340	885.982
230.869	17.088	1170.776	885.897
231.884	16.908	1170.238	884.476
232.899	16.868	1169.549	883.667
233.913	16.944	1168.175	882.947
234.928	16.997	1167.407	882.565
235.942	16.880	1167.009	881.576
236.957	16.873	1166.445	881.035
237.972	16.815	1165.736	880.122
238.986	16.905	1164.807	879.806
240.001	16.933	1164.390	879.562
241.015	16.903	1163.284	878.489
242.030	17.008	1162.457	878.335
243.045	17.103	1161.478	878.009
244.059	17.077	1160.964	877.407
245.074	17.013	1160.304	876.501
246.088	17.066	1159.296	875.934
247.103	17.160	1158.648	875.850
248.117	17.329	1157.796	876.001
249.132	17.283	1157.381	875.374
250.147	17.459	1156.661	875.657
251.161	17.581	1155.918	875.642
252.176	17.422	1155.652	874.546
253.190	17.597	1154.791	874.719
254.205	17.553	1154.154	873.930
255.220	17.702	1153.565	874.173
256.234	17.611	1153.155	873.315
257.249	17.695	1152.288	873.016
258.263	17.696	1151.542	872.375
259.278	17.681	1150.940	871.765
260.293	17.625	1150.280	870.901
261.307	17.687	1149.779	870.762
262.322	17.714	1149.177	870.369
263.336	17.769	1148.639	870.165
264.351	17.673	1148.652	869.607
265.366	17.754	1147.476	869.051
266.380	17.907	1146.185	868.779
267.395	17.769	1145.576	867.535
268.409	17.715	1144.668	866.500
269.424	17.657	1144.294	865.845
270.439	17.626	1144.087	865.452
271.453	17.704	1142.995	864.943
272.468	17.579	1142.236	863.661
273.482	17.670	1141.167	863.239
274.497	17.691	1140.586	862.829
275.512	17.694	1139.697	862.095
276.526	17.628	1139.449	861.498
277.541	17.653	1138.319	860.692
278.555	17.719	1137.708	860.486
279.570	17.900	1136.818	860.652
280.585	17.927	1136.099	860.168
281.599	17.966	1135.362	859.730
282.614	17.904	1134.293	858.533
283.628	17.840	1133.584	857.597
284.643	17.938	1132.160	856.934
285.657	17.753	1131.634	855.536
286.672	17.855	1130.101	854.809
287.687	17.882	1129.898	854.715
288.701	17.878	1128.969	853.919
289.716	17.952	1128.239	853.660
290.730	17.938	1127.574	853.012
291.745	17.937	1126.810	852.351
292.760	17.959	1126.309	852.007
293.774	18.044	1125.563	851.794
294.789	18.084	1125.239	851.672
295.803	18.028	1124.839	851.012
296.818	18.099	1123.693	850.425
297.833	18.056	1123.003	849.615
298.847	18.041	1121.954	848.669
299.862	18.061	1121.556	848.395
300.876	18.049	1120.849	847.723
301.891	18.105	1120.168	847.413
302.906	18.222	1119.169	847.160
303.920	18.330	1118.620	847.206
304.935	18.409	1118.010	847.059
305.949	18.369	1117.450	846.359
306.964	18.411	1116.699	845.925
307.979	18.258	1116.031	844.588
308.993	18.229	1115.501	843.968
310.008	18.304	1114.736	843.684
311.022	18.366	1113.802	843.211
312.037	18.372	1112.886	842.471
313.052	18.254	1112.174	841.278
314.066	18.178	1110.928	839.885
315.081	18.130	1109.824	838.745
316.095	18.102	1109.417	838.222
317.110	18.090	1108.679	837.533
318.125	18.139	1107.853	837.073
319.139	18.205	1107.019	836.692
320.154	18.252	1106.525	836.476
321.168	18.133	1105.799	835.270
322.183	18.263	1105.218	835.394
323.197	18.260	1104.658	834.881
324.212	18.282	1104.224	834.590
325.227	18.304	1103.765	834.276
326.241	18.355	1102.495	833.488
327.256	18.308	1101.952	832.774
328.270	18.216	1100.819	831.398
329.285	18.311	1100.129	831.266
330.300	18.253	1098.940	830.012
331.314	18.263	1098.556	829.695
332.329	18.268	1097.632	828.951
333.343	18.345	1096.882	828.683
334.358	18.451	1095.710	828.235
335.373	18.421	1095.556	827.901
336.387	18.447	1094.541	827.187
337.402	18.454	1093.659	826.480
338.416	18.540	1092.994	826.321
339.431	18.702	1092.276	826.486
340.446	18.747	1091.563	826.088
341.460	18.728	1091.455	825.841
342.475	18.882	1090.114	825.491
343.489	18.791	1089.403	824.447
344.504	18.842	1088.751	824.121
345.519	18.922	1087.793	823.708
346.533	18.929	1086.719	822.858
347.548	18.848	1086.357	822.124
348.562	19.010	1085.375	822.079
349.577	18.772	1084.899	820.509
350.592	18.768	1083.790	819.581
351.606	18.648	1083.514	818.725
352.621	18.645	1082.265	817.696
353.635	18.746	1081.701	817.676
354.650	18.731	1081.124	817.099
355.665	18.703	1080.208	816.200
356.679	18.795	1079.540	816.061
357.694	18.868	1079.158	816.047
358.708	18.841	1078.422	815.289
359.723	18.933	1077.847	815.220
360.738	18.939	1076.980	814.517
361.752	18.792	1077.083	813.830
362.767	18.917	1076.256	813.722
363.781	18.898	1075.743	813.173
364.796	18.915	1075.129	812.720
365.810	19.104	1074.626	813.159
366.825	19.195	1073.914	812.976
367.840	19.249	1073.383	812.759
368.854	19.356	1072.884	812.814
369.869	19.232	1072.113	811.574
370.883	19.124	1071.166	810.276
371.898	19.250	1070.374	810.197
372.913	19.215	1069.577	809.360
373.927	19.164	1069.507	808.993
374.942	19.213	1068.952	808.730
375.956	19.367	1068.226	808.834
376.971	19.205	1067.957	807.799
377.986	19.409	1067.140	808.063
379.000	19.273	1066.985	807.238
380.015	19.341	1066.437	807.071
381.029	19.437	1065.349	806.626
382.044	19.577	1064.436	806.519
383.059	19.452	1063.930	805.478
384.073	19.340	1063.428	804.505
385.088	19.310	1062.517	803.605
386.102	19.557	1061.356	803.804
387.117	19.434	1060.399	802.438
388.132	19.339	1059.505	801.251
389.146	19.265	1058.976	800.433
390.161	19.230	1058.342	799.720
391.175	19.385	1057.115	799.443
392.190	19.342	1056.622	798.801
393.205	19.372	1056.246	798.584
394.219	19.482	1055.249	798.267
395.234	19.405	1054.290	797.115
396.248	19.502	1053.241	796.700
397.263	19.288	1052.569	795.132
398.278	19.307	1051.744	794.527
399.292	19.356	1051.122	794.215
400.307	19.186	1050.432	792.841
401.321	19.338	1049.640	792.872
402.336	19.283	1049.223	792.234
403.350	19.367	1048.471	791.981
404.365	19.365	1047.774	791.373
405.380	19.448	1046.917	791.040
406.394	19.535	1046.185	790.814
407.409	19.407	1046.127	790.113
408.423	19.651	1044.848	790.192
409.438	19.720	1044.028	789.820
410.453	19.673	1043.913	789.446
411.467	19.820	1043.077	789.417
412.482	19.821	1042.554	788.955
413.496	19.799	1042.005	788.368
414.511	19.906	1041.358	788.299
415.526	19.845	1040.853	787.569
416.540	19.928	1040.287	787.446
417.555	19.963	1039.844	787.201
418.569	20.021	1038.976	786.740
419.584	19.966	1038.639	786.166
420.599	19.933	1038.276	785.668
421.613	150.925	1399.811	1786.839
422.628	138.000	1452.481	1786.952
