DTS Sentinel unit serial number:	SN413079Multiplexer serial number:	ORYXHardware model number:	OX4-SRSoftware version number:	ORYX F/W v4.00 Oryx Data Collector v3.7.2.0data status	okinstallation	princeton_trtdifferential loss correction	single-endedforward channel	channel 2reverse channel	N/Adate	2019/09/17time	05:47:34forward acquisition time	60.00reverse acquisition time	0.00gamma	496.2192k internal	0.2330k external	0.2330temperature offset calibration	0.9977default loss term (dB/km)	0.3790temperature slope calibration	1.0000multiplexer offset coefficient	1.0000multiplexer slope coefficient	1.0000fibre end	0.00T internal ref (°C)	29.00T ext. ref 1 (°C)	0.14T ext. ref 2 (°C)	22.81length (m)	temperature (°C)	Stokes	anti-Stokes-747.200	353.592	-0.182	-0.363
-746.185	175.031	-0.240	0.350
-745.171	129.033	0.197	-0.254
-744.156	28.075	0.030	0.026
-743.142	-96.091	-0.361	0.097
-742.127	316.038	-0.169	0.322
-741.112	131.004	0.074	-0.095
-740.098	95.347	0.369	0.423
-739.083	686.857	0.125	-0.328
-738.069	-41.540	0.225	0.116
-737.054	153.147	-0.166	-0.228
-736.039	100.694	-0.123	0.144
-735.025	800.000	0.068	0.223
-734.010	-63.177	-0.192	0.080
-732.996	-200.000	-0.008	-0.112
-731.981	56.765	-0.099	0.097
-730.966	-109.445	0.179	0.038
-729.952	-97.866	0.267	0.069
-728.937	-141.346	0.160	-0.016
-727.923	-85.705	-0.304	0.095
-726.908	-42.692	-0.769	-0.394
-725.894	37.077	-0.177	-0.157
-724.879	60.241	-0.183	0.182
-723.864	-16.359	0.258	0.165
-722.850	169.123	0.048	0.069
-721.835	-200.000	-0.078	-0.374
-720.821	58.145	0.073	-0.072
-719.806	55.197	-0.287	0.280
-718.791	-200.000	-0.067	0.000
-717.777	-30.605	0.311	-0.177
-716.762	348.105	-0.096	-0.190
-715.748	50.274	-0.234	-0.222
-714.733	163.023	-0.070	0.100
-713.718	680.197	0.048	-0.126
-712.704	-58.419	-0.134	0.059
-711.689	14.811	0.083	0.065
-710.675	-181.171	0.386	0.008
-709.660	167.082	-0.078	0.111
-708.645	-0.327	0.454	-0.324
-707.631	-40.551	-0.248	0.129
-706.616	-95.817	-0.098	-0.026
-705.602	-130.613	-0.272	-0.037
-704.587	-62.289	-0.048	-0.020
-703.572	-57.813	-0.242	-0.106
-702.558	483.547	0.113	-0.259
-701.543	-186.957	-0.169	-0.002
-700.529	-65.297	-0.142	0.058
-699.514	312.111	-0.029	-0.054
-698.499	108.689	0.219	-0.263
-697.485	-45.434	-0.266	0.133
-696.470	162.167	0.128	-0.180
-695.456	61.273	-0.142	0.142
-694.441	-200.000	-0.019	0.222
-693.426	191.198	-0.131	0.198
-692.412	-44.267	-0.215	-0.109
-691.397	391.276	-0.041	-0.086
-690.383	-76.817	0.195	0.069
-689.368	454.580	0.176	0.391
-688.354	34.252	0.261	-0.229
-687.339	-57.874	0.156	0.069
-686.324	141.794	-0.121	0.162
-685.310	62.833	0.271	-0.272
-684.295	-73.220	0.290	-0.107
-683.281	-85.880	-0.278	0.086
-682.266	-122.555	-0.096	0.016
-681.251	51.921	-0.134	-0.128
-680.237	17.184	0.100	-0.080
-679.222	540.448	0.042	-0.101
-678.208	146.813	0.144	-0.195
-677.193	19.446	0.179	-0.144
-676.178	46.413	0.156	-0.145
-675.164	-200.000	-0.029	-0.264
-674.149	-160.286	-0.255	0.014
-673.135	-200.000	0.001	0.188
-672.120	800.000	0.007	-0.019
-671.105	-130.331	-0.213	-0.029
-670.091	83.396	-0.206	0.225
-669.076	244.864	0.113	0.191
-668.062	-200.000	0.038	0.428
-667.047	-85.885	0.235	-0.073
-666.032	284.006	-0.095	-0.172
-665.018	21.637	-0.230	0.188
-664.003	-11.100	-0.255	0.169
-662.989	-153.797	0.194	-0.013
-661.974	217.577	-0.100	-0.160
-660.959	-24.294	-0.393	0.236
-659.945	-66.289	-0.135	0.054
-658.930	39.352	-0.158	0.142
-657.916	70.223	-0.151	0.156
-656.901	358.854	-0.115	-0.231
-655.886	316.656	0.078	-0.148
-654.872	-200.000	0.041	0.209
-653.857	90.578	-0.167	-0.187
-652.843	-53.636	-0.255	-0.117
-651.828	-154.664	0.202	-0.013
-650.814	-50.227	0.242	-0.115
-649.799	649.727	-0.118	-0.304
-648.784	431.332	0.076	0.166
-647.770	-200.000	-0.234	0.001
-646.755	-108.770	-0.135	0.029
-645.741	-143.034	0.229	-0.022
-644.726	-15.794	0.238	0.152
-643.711	94.641	-0.315	-0.359
-642.697	-59.934	0.145	0.062
-641.682	-200.000	0.036	0.243
-640.668	41.646	0.072	0.065
-639.653	-72.434	-0.042	0.016
-638.638	-88.096	-0.252	0.076
-637.624	-33.812	0.152	-0.084
-636.609	-143.389	-0.301	-0.029
-635.595	800.000	0.127	0.370
-634.580	-135.496	-0.248	-0.030
-633.565	12.996	0.106	0.082
-632.551	800.000	0.103	0.298
-631.536	800.000	0.006	0.018
-630.522	200.022	-0.022	-0.034
-629.507	2.538	0.125	0.091
-628.492	-200.000	0.024	-0.146
-627.478	-75.244	0.162	0.058
-626.463	-200.000	-0.028	-0.287
-625.449	-77.477	0.181	-0.063
-624.434	347.938	0.019	-0.038
-623.419	-200.000	-0.042	0.544
-622.405	-83.761	-0.147	-0.047
-621.390	-87.637	0.208	-0.063
-620.376	-200.000	0.031	-0.144
-619.361	170.315	-0.036	0.051
-618.346	-51.826	-0.104	0.049
-617.332	-6.165	0.269	0.184
-616.317	74.695	0.179	0.189
-615.303	-107.310	-0.334	0.074
-614.288	38.564	0.100	-0.089
-613.273	-200.000	0.034	0.420
-612.259	-200.000	-0.040	-0.452
-611.244	800.000	0.041	0.141
-610.230	431.320	0.154	0.333
-609.215	-71.237	-0.117	-0.044
-608.201	-70.079	0.018	0.007
-607.186	-200.000	0.007	-0.282
-606.171	-62.624	-0.573	-0.238
-605.157	-116.959	-0.170	-0.031
-604.142	630.246	0.193	-0.489
-603.128	122.198	-0.241	0.302
-602.113	372.194	-0.072	0.145
-601.098	43.806	-0.046	0.042
-600.084	103.207	-0.089	0.105
-599.069	773.083	-0.071	0.194
-598.055	118.878	-0.025	-0.031
-597.040	-159.705	0.292	-0.016
-596.025	7.090	0.222	-0.165
-595.011	800.000	-0.020	-0.064
-593.996	-98.522	0.285	-0.073
-592.982	-200.000	0.026	-0.467
-591.967	788.383	-0.065	0.178
-590.952	-200.000	-0.046	0.217
-589.938	-20.267	0.243	-0.150
-588.923	10.075	-0.135	0.103
-587.909	-151.473	-0.048	0.004
-586.894	-36.061	0.155	0.084
-585.879	-83.789	0.108	0.035
-584.865	43.896	-0.502	0.460
-583.850	43.890	-0.230	-0.211
-582.836	9.657	0.155	-0.117
-581.821	-200.000	-0.025	0.246
-580.806	9.633	-0.266	-0.202
-579.792	45.187	0.224	0.207
-578.777	11.614	-0.101	-0.078
-577.763	83.406	-0.344	-0.375
-576.748	175.488	-0.272	0.395
-575.733	54.616	-0.061	-0.058
-574.719	110.937	0.136	-0.164
-573.704	800.000	0.069	-0.236
-572.690	121.593	-0.078	0.097
-571.675	-0.515	-0.135	0.096
-570.661	624.290	-0.131	-0.329
-569.646	-22.087	0.169	0.103
-568.631	-98.216	-0.158	0.040
-567.617	-125.166	-0.096	-0.015
-566.602	251.036	0.074	-0.125
-565.588	168.176	-0.118	0.168
-564.573	10.632	0.100	0.076
-563.558	-62.715	-0.233	0.097
-562.544	158.649	-0.034	-0.047
-561.529	59.507	0.190	0.187
-560.515	-200.000	0.003	0.235
-559.500	800.000	0.027	0.078
-558.485	186.907	0.036	-0.053
-557.471	-151.860	0.336	-0.025
-556.456	-14.735	-0.176	0.113
-555.442	79.404	0.154	0.165
-554.427	-200.000	-0.016	-0.208
-553.412	781.431	0.037	-0.102
-552.398	65.249	0.114	0.116
-551.383	-30.441	0.044	0.025
-550.369	48.081	-0.158	-0.148
-549.354	-113.008	-0.107	-0.021
-548.339	-200.000	-0.006	0.110
-547.325	-114.588	0.150	-0.029
-546.310	-54.638	-0.258	-0.116
-545.296	-76.138	0.302	-0.106
-544.281	33.386	-0.382	-0.332
-543.266	-200.000	-0.016	-0.378
-542.252	-0.157	0.156	-0.111
-541.237	800.000	0.054	-0.171
-540.223	-64.308	-0.296	-0.120
-539.208	81.403	-0.217	-0.234
-538.193	-200.000	-0.005	0.192
-537.179	199.763	0.272	0.417
-536.164	119.729	-0.132	-0.164
-535.150	217.399	0.093	-0.147
-534.135	-55.593	0.111	-0.050
-533.121	-76.913	-0.303	-0.106
-532.106	242.956	0.066	0.111
-531.091	259.796	-0.152	0.261
-530.077	-200.000	0.042	-0.478
-529.062	-120.189	-0.119	0.020
-528.048	-151.723	-0.212	-0.016
-527.033	800.000	0.033	-0.123
-526.018	-28.904	0.232	0.133
-525.004	-25.323	-0.164	0.097
-523.989	-109.734	0.105	0.022
-522.975	89.488	-0.127	0.141
-521.960	-189.897	0.315	-0.004
-520.945	349.176	-0.100	-0.197
-519.931	204.361	0.043	0.066
-518.916	-93.079	-0.319	-0.089
-517.902	569.284	0.160	-0.389
-516.887	36.264	-0.084	0.074
-515.872	1.412	-0.354	0.254
-514.858	-23.357	-0.110	-0.066
-513.843	-0.685	0.171	-0.121
-512.829	-128.576	-0.171	0.024
-511.814	800.000	-0.041	0.140
-510.799	309.034	-0.075	0.140
-509.785	96.033	-0.155	0.176
-508.770	-84.864	0.241	0.075
-507.756	800.000	-0.063	0.241
-506.741	-200.000	0.018	0.116
-505.726	-135.326	-0.101	0.012
-504.712	-200.000	0.046	0.255
-503.697	-109.869	0.156	-0.033
-502.683	-124.837	0.333	0.051
-501.668	-200.000	0.031	0.160
-500.653	192.246	0.056	0.084
-499.639	51.234	0.205	-0.194
-498.624	-101.893	0.286	0.069
-497.610	-72.210	-0.080	0.030
-496.595	-200.000	-0.010	0.222
-495.581	800.000	-0.089	-0.315
-494.566	69.815	-0.182	-0.187
-493.551	81.017	0.243	0.262
-492.537	-168.259	0.246	-0.009
-491.522	800.000	0.037	-0.115
-490.508	178.986	0.117	-0.171
-489.493	6.263	0.137	-0.101
-488.478	385.156	-0.038	0.078
-487.464	-122.295	0.492	0.080
-486.449	50.958	0.184	-0.174
-485.435	182.233	-0.028	0.042
-484.420	226.947	0.105	-0.170
-483.405	-200.000	0.015	0.157
-482.391	473.332	-0.108	0.242
-481.376	-38.248	0.250	-0.132
-480.362	534.149	-0.144	0.340
-479.347	-94.319	-0.247	-0.067
-478.332	-30.486	0.380	0.214
-477.318	-31.729	-0.333	-0.186
-476.303	-200.000	0.003	-0.102
-475.289	-200.000	0.000	0.283
-474.274	-10.597	-0.212	0.140
-473.259	39.061	-0.037	-0.033
-472.245	-200.000	-0.067	0.401
-471.230	173.410	-0.183	0.263
-470.216	800.000	0.005	0.022
-469.201	-20.146	-0.185	0.113
-468.186	128.659	0.118	-0.150
-467.172	-185.673	-0.227	-0.003
-466.157	-115.869	-0.202	-0.038
-465.143	-119.909	-0.242	-0.041
-464.128	31.176	-0.341	0.291
-463.113	-200.000	0.017	-0.264
-462.099	-52.532	0.078	-0.036
-461.084	-185.104	-0.085	-0.001
-460.070	447.291	-0.118	0.259
-459.055	-200.000	0.038	-0.180
-458.040	337.025	-0.040	0.078
-457.026	323.904	0.148	0.282
-456.011	-5.015	0.125	-0.086
-454.997	73.459	-0.263	-0.274
-453.982	128.580	0.084	0.106
-452.968	405.312	0.072	-0.151
-451.953	35.246	-0.273	-0.238
-450.938	-72.663	-0.309	0.114
-449.924	-153.583	-0.257	0.018
-448.909	-34.531	-0.146	-0.080
-447.895	-198.615	0.400	0.002
-446.880	-24.874	0.078	0.046
-445.865	172.401	0.110	-0.157
-444.851	641.798	-0.027	0.070
-443.836	-200.000	0.010	-0.083
-442.822	138.231	-0.099	-0.129
-441.807	101.296	0.054	0.062
-440.792	800.000	0.034	-0.126
-439.778	-131.227	0.276	0.036
-438.763	41.586	-0.141	0.127
-437.749	-107.665	-0.142	0.031
-436.734	800.000	-0.134	-0.504
-435.719	-200.000	0.021	-0.111
-434.705	-70.873	0.170	-0.064
-433.690	671.687	-0.039	0.101
-432.676	800.000	-0.054	0.202
-431.661	800.000	-0.050	-0.176
-430.646	-200.000	0.034	-0.363
-429.632	-161.452	-0.044	0.002
-428.617	347.354	0.179	-0.351
-427.603	-62.009	0.092	0.038
-426.588	-200.000	-0.043	-0.229
-425.573	-14.575	0.177	0.113
-424.559	800.000	0.081	-0.269
-423.544	800.000	0.080	-0.254
-422.530	782.273	0.087	0.237
-421.515	-200.000	-0.032	0.148
-420.500	356.503	0.093	-0.185
-419.486	129.552	0.054	-0.068
-418.471	-200.000	0.004	-0.029
-417.457	-10.150	-0.218	0.144
-416.442	-88.900	-0.328	0.097
-415.428	-200.000	0.009	0.045
-414.413	-144.200	0.102	0.010
-413.398	-107.905	-0.200	0.043
-412.384	48.351	-0.130	-0.121
-411.369	-81.807	0.277	0.090
-410.355	-176.509	0.521	0.013
-409.340	57.181	0.237	-0.229
-408.325	-200.000	0.041	0.602
-407.311	352.993	-0.055	0.109
-406.296	155.264	0.154	-0.211
-405.282	-11.087	-0.177	-0.116
-404.267	57.984	-0.076	0.074
-403.252	-91.740	-0.271	0.077
-402.238	-22.533	0.123	0.074
-401.223	-200.000	-0.001	-0.581
-400.209	-200.000	-0.043	0.323
-399.194	457.676	-0.063	-0.139
-398.179	-56.135	-0.164	0.073
-397.165	-174.272	0.114	0.003
-396.150	-116.670	-0.218	0.040
-395.136	198.165	-0.121	-0.184
-394.121	-22.425	0.080	-0.048
-393.106	800.000	0.093	0.272
-392.092	-108.201	-0.108	0.023
-391.077	-200.000	-0.093	0.493
-390.063	90.791	-0.320	0.357
-389.048	-48.102	-0.057	-0.027
-388.033	-139.960	0.330	0.035
-387.019	265.380	-0.109	0.188
-386.004	-9.935	-0.330	0.218
-384.990	-33.506	-0.062	0.034
-383.975	-132.760	-0.063	-0.008
-382.960	499.622	-0.151	-0.347
-381.946	11.810	0.119	-0.090
-380.931	41.500	-0.061	-0.055
-379.917	-93.200	0.307	0.085
-378.902	188.558	-0.100	-0.148
-377.888	16.315	-0.226	0.177
-376.873	800.000	0.110	0.318
-375.858	800.000	0.056	0.174
-374.844	391.060	-0.035	-0.071
-373.829	69.203	0.115	-0.117
-372.815	-165.155	0.108	0.005
-371.800	109.890	0.134	0.160
-370.785	-35.520	-0.303	-0.163
-369.771	-200.000	-0.013	-0.079
-368.756	109.807	0.064	-0.077
-367.742	182.551	0.170	-0.248
-366.727	150.665	0.151	0.203
-365.712	-200.000	-0.014	0.218
-364.698	-18.470	-0.225	0.139
-363.683	-65.391	-0.020	0.008
-362.669	46.799	0.054	0.050
-361.654	293.647	0.074	0.135
-360.639	291.982	-0.136	-0.246
-359.625	-128.256	0.180	0.026
-358.610	93.559	-0.216	-0.243
-357.596	-200.000	-0.058	0.284
-356.581	-22.029	0.134	0.081
-355.566	-81.716	-0.186	-0.060
-354.552	-200.000	0.007	-0.138
-353.537	112.179	0.173	0.208
-352.523	691.563	0.075	-0.195
-351.508	800.000	-0.018	0.065
-350.493	-131.168	-0.204	0.027
-349.479	-84.597	0.312	0.097
-348.464	-200.000	0.048	-0.354
-347.450	177.222	-0.076	-0.110
-346.435	0.551	-0.281	0.199
-345.420	277.105	-0.058	0.102
-344.406	800.000	0.019	-0.065
-343.391	-200.000	-0.027	-0.149
-342.377	-107.319	0.088	-0.019
-341.362	-200.000	0.029	0.178
-340.348	-200.000	-0.015	-0.167
-339.333	800.000	0.153	-0.419
-338.318	-200.000	-0.049	0.231
-337.304	-55.659	-0.207	0.092
-336.289	800.000	0.072	0.213
-335.275	-200.000	0.004	-0.297
-334.260	72.157	-0.133	-0.137
-333.245	-26.016	0.115	-0.067
-332.231	800.000	0.047	0.187
-331.216	163.670	-0.062	-0.086
-330.202	187.977	-0.050	-0.074
-329.187	-200.000	-0.066	0.335
-328.172	-99.650	-0.177	-0.044
-327.158	-13.890	-0.069	0.044
-326.143	427.964	-0.014	0.030
-325.129	-59.198	-0.406	-0.173
-324.114	-200.000	-0.008	0.190
-323.099	307.860	0.124	0.230
-322.085	646.550	0.146	0.370
-321.070	280.267	0.050	0.089
-320.056	7.120	-0.105	0.078
-319.041	-168.695	-0.190	0.007
-318.026	-141.631	-0.129	-0.013
-317.012	131.957	-0.141	0.180
-315.997	-76.729	-0.160	0.055
-314.983	180.705	0.077	-0.112
-313.968	-200.000	0.025	0.212
-312.953	-200.000	0.007	0.090
-311.939	800.000	-0.019	0.073
-310.924	-162.984	0.047	0.002
-309.910	84.193	0.061	0.066
-308.895	-108.900	0.300	-0.063
-307.880	-47.445	0.142	-0.068
-306.866	-59.847	0.228	-0.097
-305.851	-33.848	-0.289	-0.157
-304.837	271.321	-0.065	0.114
-303.822	-200.000	0.006	-0.095
-302.807	-71.776	0.044	-0.016
-301.793	22.615	0.268	-0.217
-300.778	-162.662	-0.387	-0.019
-299.764	204.854	-0.092	0.141
-298.749	-200.000	-0.079	0.352
-297.735	-102.627	0.258	0.061
-296.720	-137.791	0.261	0.029
-295.705	800.000	-0.013	0.045
-294.691	-19.015	0.140	-0.086
-293.676	-149.377	0.415	0.033
-292.662	-35.967	0.191	0.102
-291.647	-70.108	0.170	0.064
-290.632	78.917	-0.108	-0.115
-289.618	362.761	-0.137	0.271
-288.603	10.637	0.126	0.095
-287.589	-47.230	-0.162	-0.078
-286.574	-103.659	0.120	-0.028
-285.559	-165.204	0.139	0.006
-284.545	-37.642	-0.135	-0.071
-283.530	800.000	0.099	-0.273
-282.516	-200.000	-0.035	0.171
-281.501	227.032	-0.117	0.188
-280.486	195.182	0.051	0.077
-279.472	38.106	0.214	0.188
-278.457	91.200	-0.134	-0.148
-277.443	170.946	0.098	-0.138
-276.428	206.287	0.213	0.327
-275.413	62.177	-0.133	0.131
-274.399	-19.607	0.214	-0.131
-273.384	521.632	-0.045	-0.105
-272.370	186.933	0.140	0.206
-271.355	-200.000	0.014	-0.084
-270.340	37.134	-0.113	-0.099
-269.326	-132.874	0.127	-0.016
-268.311	800.000	-0.112	-0.391
-267.297	800.000	-0.046	-0.185
-266.282	351.473	-0.106	0.207
-265.267	85.277	0.018	0.020
-264.253	153.898	0.194	-0.263
-263.238	220.883	0.173	-0.274
-262.224	-12.386	0.345	0.223
-261.209	222.896	-0.094	-0.149
-260.195	-104.046	0.070	-0.016
-259.180	159.447	-0.139	0.191
-258.165	127.500	0.417	-0.523
-257.151	-127.951	-0.088	0.012
-256.136	12.304	-0.085	0.065
-255.122	800.000	-0.114	-0.328
-254.107	323.163	-0.093	0.175
-253.092	-200.000	-0.017	0.175
-252.078	-24.169	0.057	0.034
-251.063	-200.000	-0.006	-0.070
-250.049	800.000	0.060	-0.223
-249.034	800.000	0.155	-0.455
-248.019	-200.000	-0.003	-0.177
-247.005	-76.460	-0.141	-0.049
-245.990	-154.555	0.092	0.006
-244.976	647.366	-0.085	0.214
-243.961	268.433	-0.039	-0.068
-242.946	31.788	-0.180	-0.153
-241.932	800.000	-0.040	0.119
-240.917	-200.000	0.004	-0.073
-239.903	-200.000	-0.028	0.239
-238.888	82.856	0.139	0.149
-237.873	-10.677	0.099	-0.064
-236.859	700.935	0.118	-0.306
-235.844	-156.841	-0.149	-0.009
-234.830	-182.461	-0.374	-0.007
-233.815	305.890	0.116	0.213
-232.800	-200.000	-0.046	-0.263
-231.786	-64.084	-0.258	-0.104
-230.771	327.701	0.145	-0.274
-229.757	422.567	0.077	-0.164
-228.742	42.162	0.285	0.255
-227.727	299.413	0.071	0.128
-226.713	62.232	-0.082	-0.081
-225.698	218.076	0.143	-0.224
-224.684	-26.378	0.220	-0.127
-223.669	-114.473	0.009	-0.002
-222.655	433.288	-0.072	0.153
-221.640	329.993	0.196	0.372
-220.625	-200.000	-0.021	0.244
-219.611	0.804	0.295	0.208
-218.596	-200.000	0.001	-0.179
-217.582	-34.622	-0.190	0.103
-216.567	150.476	-0.109	0.145
-215.552	49.891	0.204	-0.190
-214.538	-25.456	-0.187	0.109
-213.523	644.931	-0.105	0.264
-212.509	-44.939	-0.247	0.121
-211.494	180.675	-0.152	-0.221
-210.479	-75.278	0.390	0.137
-209.465	800.000	-0.031	-0.094
-208.450	150.381	0.077	-0.103
-207.436	-119.735	-0.323	0.055
-206.421	-143.822	0.250	-0.023
-205.406	-63.373	0.203	-0.082
-204.392	23.945	0.275	0.223
-203.377	747.576	0.175	-0.464
-202.363	253.071	-0.019	0.033
-201.348	116.065	-0.136	0.164
-200.333	489.403	0.136	0.306
-199.319	158.698	-0.107	-0.146
-198.304	800.000	0.016	0.062
-197.290	-126.142	-0.072	-0.011
-196.275	-24.612	-0.277	-0.163
-195.260	124.776	-0.121	0.151
-194.246	472.044	-0.068	0.151
-193.231	-62.897	-0.068	-0.028
-192.217	-70.095	-0.113	0.042
-191.202	99.833	0.209	-0.238
-190.187	-200.000	-0.021	-0.293
-189.173	615.260	-0.096	-0.236
-188.158	-9.493	0.199	-0.131
-187.144	393.532	-0.067	-0.137
-186.129	-38.750	-0.239	-0.124
-185.114	522.232	0.190	-0.439
-184.100	-133.537	0.250	0.031
-183.085	-119.614	-0.196	-0.033
-182.071	213.205	-0.111	-0.172
-181.056	-156.629	0.253	-0.015
-180.042	131.028	0.180	0.228
-179.027	-85.335	-0.161	0.050
-178.012	439.934	-0.023	-0.051
-176.998	10.916	-0.128	-0.096
-175.983	9.378	0.175	0.131
-174.969	-200.000	0.043	-0.387
-173.954	-13.855	0.245	-0.156
-172.939	-200.000	0.026	-0.138
-171.925	-28.647	0.311	0.176
-170.910	-92.926	-0.298	-0.082
-169.896	-70.206	-0.356	0.133
-168.881	272.375	0.002	0.003
-167.866	-155.287	-0.176	0.011
-166.852	30.575	0.083	-0.070
-165.837	-200.000	-0.023	-0.195
-164.823	694.203	0.076	0.196
-163.808	-23.986	0.236	0.139
-162.793	111.223	0.206	-0.244
-161.779	-200.000	0.059	-0.278
-160.764	98.894	-0.261	0.297
-159.750	-28.996	0.032	0.018
-158.735	-130.351	0.328	0.044
-157.720	-66.716	0.203	0.079
-156.706	-7.809	0.106	0.070
-155.691	-74.601	0.002	0.001
-154.677	426.921	-0.149	-0.317
-153.662	115.818	-0.125	-0.150
-152.647	42.643	0.323	0.289
-151.633	220.744	0.089	0.141
-150.618	-101.487	-0.089	-0.021
-149.604	11.293	-0.074	-0.056
-148.589	-179.275	0.122	-0.003
-147.574	96.934	-0.121	-0.137
-146.560	800.000	0.135	0.378
-145.545	-174.362	-0.131	0.004
-144.531	-70.957	0.260	-0.096
-143.516	-36.217	-0.260	0.138
-142.502	-200.000	-0.025	-0.168
-141.487	691.535	-0.151	-0.390
-140.472	426.965	-0.117	-0.249
-139.458	-87.521	-0.384	0.114
-138.443	36.056	0.140	-0.121
-137.429	-76.030	-0.340	0.118
-136.414	-190.131	0.203	-0.002
-135.399	-70.805	0.180	0.067
-134.385	635.399	0.114	0.286
-133.370	800.000	0.049	-0.208
-132.356	-109.247	0.153	-0.032
-131.341	80.715	0.075	-0.080
-130.326	371.801	-0.132	0.262
-129.312	169.862	0.158	0.222
-128.297	2.212	-0.274	-0.195
-127.283	-22.739	-0.107	0.063
-126.268	-169.143	-0.166	-0.006
-125.253	-200.000	-0.037	0.378
-124.239	107.703	-0.292	0.342
-123.224	-37.954	-0.118	-0.062
-122.210	-71.374	-0.234	-0.086
-121.195	-136.827	-0.038	0.004
-120.180	800.000	-0.097	0.264
-119.166	186.607	-0.052	0.077
-118.151	550.606	-0.137	-0.322
-117.137	-6.944	-0.238	-0.159
-116.122	556.610	-0.040	-0.095
-115.107	-93.048	-0.220	0.060
-114.093	-47.457	-0.017	-0.008
-113.078	31.491	-0.132	0.111
-112.064	-200.000	0.028	-0.258
-111.049	800.000	0.079	0.253
-110.034	-120.233	0.128	0.022
-109.020	-200.000	0.019	0.202
-108.005	-200.000	0.007	0.133
-106.991	-83.097	0.234	0.074
-105.976	290.485	-0.248	-0.443
-104.962	-179.270	-0.198	0.004
-103.947	-83.912	0.164	0.051
-102.932	-5.387	-0.288	-0.194
-101.918	10.599	0.221	0.166
-100.903	800.000	0.098	0.274
-99.889	-198.417	-0.081	0.000
-98.874	-132.382	0.233	0.030
-97.859	-31.032	-0.183	0.101
-96.845	73.207	-0.187	0.192
-95.830	359.717	-0.045	0.088
-94.816	-200.000	0.009	-0.174
-93.801	14.706	-0.085	-0.066
-92.786	114.173	0.255	0.305
-91.772	-177.236	-0.165	0.004
-90.757	-32.813	0.206	0.112
-89.743	-200.000	0.020	-0.115
-88.728	-200.000	0.016	-0.347
-87.713	800.000	-0.042	0.170
-86.699	17.532	0.182	-0.142
-85.684	22.778	0.166	-0.133
-84.670	2.597	0.151	0.107
-83.655	86.214	0.075	0.082
-82.640	-12.698	-0.024	-0.015
-81.626	674.673	0.132	0.336
-80.611	-101.759	-0.150	-0.036
-79.597	272.504	0.077	0.133
-78.582	430.871	-0.079	-0.167
-77.567	170.024	-0.043	0.060
-76.553	7.339	-0.055	-0.040
-75.538	-117.952	0.087	-0.015
-74.524	530.055	-0.084	0.195
-73.509	800.000	-0.096	0.342
-72.494	-103.095	-0.155	0.036
-71.480	-76.674	0.192	-0.066
-70.465	-186.037	0.328	-0.005
-69.451	-77.777	-0.487	0.165
-68.436	297.128	0.179	-0.322
-67.422	-124.237	0.163	-0.025
-66.407	9.802	0.315	0.234
-65.392	204.040	-0.114	-0.173
-64.378	94.897	-0.119	-0.132
-63.363	306.227	0.233	-0.425
-62.349	346.581	0.148	0.286
-61.334	142.058	-0.805	-1.046
-60.319	198.857	0.470	0.705
-59.305	800.000	-0.247	-1.048
-58.290	149.881	0.692	0.919
-57.276	465.413	0.724	1.588
-56.261	-200.000	111.271	618.628
-55.246	448.841	1512.754	3267.385
-54.232	143.688	2696.665	3521.514
-53.217	99.990	2292.563	2604.120
-52.203	38.263	1899.113	1657.276
-51.188	32.238	1687.882	1427.297
-50.173	29.698	1645.241	1372.354
-49.159	49.800	1699.703	1569.950
-48.144	49.758	1714.565	1583.297
-47.130	31.846	1671.675	1410.421
-46.115	29.110	1657.227	1377.739
-45.100	28.942	1652.240	1372.281
-44.086	28.856	1649.865	1369.613
-43.071	28.820	1647.058	1366.963
-42.057	28.835	1644.965	1365.280
-41.042	28.845	1643.249	1363.881
-40.027	28.832	1641.302	1362.111
-39.013	28.819	1639.133	1360.163
-37.998	28.848	1637.510	1358.979
-36.984	28.878	1635.982	1357.874
-35.969	28.924	1634.726	1357.118
-34.954	29.046	1633.059	1356.576
-33.940	29.030	1631.194	1354.862
-32.925	29.049	1629.794	1353.778
-31.911	28.989	1628.204	1351.967
-30.896	28.949	1626.557	1350.255
-29.881	28.883	1625.273	1348.651
-28.867	28.945	1623.639	1347.695
-27.852	29.002	1621.879	1346.597
-26.838	28.912	1620.410	1344.667
-25.823	29.102	1618.799	1344.666
-24.809	29.096	1617.733	1343.679
-23.794	28.959	1616.315	1341.448
-22.779	29.038	1614.761	1340.684
-21.765	28.998	1612.844	1338.743
-20.750	28.917	1611.969	1337.381
-19.736	29.011	1610.424	1336.728
-18.721	28.989	1609.306	1335.583
-17.706	29.100	1607.386	1334.741
-16.692	29.051	1605.694	1332.927
-15.677	29.084	1604.100	1331.791
-14.663	29.110	1603.363	1331.319
-13.648	29.063	1601.955	1329.755
-12.633	29.071	1600.250	1328.345
-11.619	28.992	1598.647	1326.390
-10.604	28.952	1597.812	1325.361
-9.590	29.004	1596.179	1324.327
-8.575	29.196	1594.425	1324.198
-7.560	29.062	1594.036	1322.857
-6.546	29.117	1592.386	1321.830
-5.531	29.066	1590.793	1320.093
-4.517	29.072	1590.183	1319.573
-3.502	29.041	1588.868	1318.212
-2.487	29.107	1587.591	1317.569
-1.473	28.630	1575.601	1304.182
-0.458	25.630	1555.554	1266.451
0.556	20.194	1556.358	1233.403
1.571	17.600	1580.562	1233.713
2.586	17.148	1593.654	1240.522
3.600	15.807	1541.080	1190.014
4.615	8.839	1432.569	1060.167
5.629	1.697	1369.063	967.796
6.644	0.291	1361.430	953.424
7.659	0.121	1360.305	951.478
8.673	0.065	1359.045	950.158
9.688	0.063	1357.130	948.725
10.702	-0.087	1354.493	945.855
11.717	3.389	1359.556	971.237
12.731	11.482	1372.271	1031.546
13.746	16.851	1379.458	1070.868
14.761	17.269	1378.549	1072.705
15.775	16.311	1376.277	1064.805
16.790	15.240	1373.692	1055.964
17.804	14.516	1371.066	1049.298
18.819	14.156	1369.973	1046.103
19.834	13.821	1368.705	1042.940
20.848	13.624	1367.189	1040.454
21.863	13.433	1365.668	1038.011
22.877	13.124	1364.962	1035.445
23.892	13.133	1364.016	1034.690
24.907	13.071	1363.605	1033.900
25.921	13.151	1362.414	1033.401
26.936	13.169	1361.754	1032.924
27.950	13.235	1360.625	1032.391
28.965	13.337	1359.857	1032.351
29.980	13.222	1358.757	1030.710
30.994	13.299	1358.114	1030.612
32.009	13.468	1357.017	1030.742
33.023	13.402	1355.805	1029.319
34.038	13.404	1354.529	1028.267
35.053	13.364	1353.631	1027.247
36.067	13.313	1352.563	1026.032
37.082	13.355	1351.517	1025.409
38.096	13.399	1350.734	1024.991
39.111	13.338	1350.280	1024.180
40.126	13.381	1348.728	1023.177
41.140	13.298	1347.768	1021.846
42.155	13.183	1347.497	1020.843
43.169	13.278	1347.452	1021.305
44.184	13.305	1347.008	1021.041
45.199	13.223	1346.757	1020.257
46.213	13.320	1346.002	1020.190
47.228	13.292	1345.088	1019.238
48.242	13.320	1343.898	1018.420
49.257	13.260	1342.590	1016.968
50.271	13.323	1341.413	1016.372
51.286	13.419	1339.488	1015.413
52.301	13.335	1338.336	1013.934
53.315	13.299	1337.504	1012.992
54.330	13.183	1336.460	1011.403
55.344	13.211	1335.583	1010.823
56.359	13.201	1334.410	1009.782
57.374	13.283	1333.568	1009.558
58.388	13.179	1332.856	1008.297
59.403	13.078	1332.434	1007.272
60.417	13.122	1331.663	1006.866
61.432	13.110	1330.563	1005.870
62.447	13.073	1329.627	1004.851
63.461	13.108	1328.350	1004.009
64.476	13.063	1327.088	1002.692
65.490	13.090	1325.911	1001.878
66.505	13.124	1324.306	1000.783
67.520	13.158	1323.146	1000.026
68.534	13.091	1322.265	998.868
69.549	13.248	1321.214	998.934
70.563	13.132	1320.169	997.356
71.578	13.070	1319.013	996.015
72.593	13.094	1317.773	995.137
73.607	12.989	1317.524	994.228
74.622	12.949	1317.130	993.602
75.636	13.003	1316.001	992.988
76.651	13.014	1315.079	992.270
77.666	13.037	1315.152	992.374
78.680	12.978	1314.002	991.063
79.695	13.086	1313.030	990.896
80.709	13.138	1312.047	990.376
81.724	13.184	1311.037	989.801
82.739	13.219	1310.422	989.461
83.753	13.210	1309.579	988.684
84.768	13.322	1308.494	988.446
85.782	13.301	1307.591	987.549
86.797	13.277	1306.287	986.334
87.812	13.224	1304.808	984.816
88.826	13.343	1303.915	984.764
89.841	13.308	1303.005	983.780
90.855	13.304	1301.653	982.647
91.870	13.433	1300.465	982.429
92.884	13.388	1300.111	981.807
93.899	13.381	1299.492	981.210
94.914	13.402	1299.006	980.881
95.928	13.490	1297.828	980.427
96.943	13.361	1296.831	978.827
97.957	13.365	1296.330	978.385
98.972	13.314	1295.258	977.184
99.987	13.287	1294.256	976.182
101.001	13.380	1293.075	975.753
102.016	13.379	1292.525	975.251
103.030	13.334	1291.719	974.288
104.045	13.355	1290.735	973.586
105.060	13.236	1289.499	971.869
106.074	13.269	1287.888	970.759
107.089	13.261	1286.452	969.546
108.103	13.152	1285.616	968.190
109.118	13.163	1284.609	967.408
110.133	13.099	1283.448	966.075
111.147	13.158	1281.743	965.051
112.162	13.303	1279.934	964.449
113.176	13.280	1279.543	963.937
114.191	13.363	1277.970	963.149
115.206	13.381	1277.237	962.616
116.220	13.306	1275.956	961.126
117.235	13.313	1275.127	960.458
118.249	13.190	1274.157	958.930
119.264	13.234	1272.586	957.918
120.279	13.205	1271.702	957.002
121.293	13.311	1270.568	956.675
122.308	13.167	1269.959	955.301
123.322	13.231	1268.617	954.574
124.337	13.140	1268.054	953.541
125.352	13.194	1266.481	952.587
126.366	13.120	1265.626	951.436
127.381	13.117	1264.520	950.503
128.395	13.199	1263.187	949.887
129.410	13.230	1262.530	949.487
130.424	13.206	1261.609	948.572
131.439	13.183	1261.005	947.903
132.454	13.273	1260.061	947.623
133.468	13.229	1259.198	946.638
134.483	13.190	1258.478	945.788
135.497	13.218	1256.804	944.611
136.512	13.291	1255.850	944.224
137.527	13.259	1254.690	943.085
138.541	13.309	1253.042	942.053
139.556	13.400	1251.578	941.383
140.570	13.373	1250.474	940.315
141.585	13.427	1249.208	939.588
142.600	13.471	1248.029	938.865
143.614	13.359	1247.415	937.686
144.629	13.561	1246.148	937.795
145.643	13.447	1245.388	936.497
146.658	13.436	1243.907	935.239
147.673	13.286	1242.798	933.473
148.687	13.475	1241.075	933.162
149.702	13.288	1240.321	931.460
150.716	13.364	1239.163	930.936
151.731	13.340	1237.817	929.706
152.746	13.397	1236.771	929.161
153.760	13.309	1236.006	928.008
154.775	13.396	1234.503	927.284
155.789	13.520	1233.114	926.853
156.804	13.485	1232.319	925.979
157.819	13.598	1231.285	925.750
158.833	13.568	1230.418	924.848
159.848	13.564	1229.860	924.326
160.862	13.553	1228.387	923.075
161.877	13.429	1227.672	921.768
162.892	13.407	1226.622	920.773
163.906	13.479	1225.489	920.243
164.921	13.494	1224.739	919.682
165.935	13.571	1223.541	919.126
166.950	13.642	1222.763	918.858
167.964	13.544	1222.800	918.256
168.979	13.566	1221.842	917.577
169.994	13.533	1220.942	916.638
171.008	13.593	1220.009	916.192
172.023	13.551	1219.122	915.212
173.037	13.706	1218.413	915.452
174.052	13.711	1217.537	914.745
175.067	13.644	1216.321	913.380
176.081	13.625	1215.660	912.697
177.096	13.679	1214.545	912.074
178.110	13.557	1213.480	910.525
179.125	13.608	1212.398	909.912
180.140	13.702	1211.280	909.506
181.154	13.694	1210.053	908.465
182.169	13.753	1208.603	907.616
183.183	13.650	1207.546	906.181
184.198	13.763	1206.526	905.953
185.213	13.799	1205.283	905.136
186.227	13.803	1204.340	904.366
187.242	13.879	1203.071	903.746
188.256	13.886	1202.244	903.087
189.271	13.994	1200.924	902.600
190.286	13.824	1200.332	901.152
191.300	13.791	1199.220	900.061
192.315	13.729	1198.753	899.293
193.329	13.787	1198.140	899.066
194.344	13.806	1197.408	898.543
195.359	13.796	1197.096	898.177
196.373	13.926	1196.258	898.169
197.388	13.911	1196.046	897.849
198.402	13.937	1195.780	897.713
199.417	13.982	1194.814	897.147
200.432	14.004	1194.466	896.928
201.446	14.067	1193.106	896.167
202.461	14.084	1192.012	895.354
203.475	14.209	1190.948	895.151
204.490	14.129	1189.699	893.701
205.504	14.112	1188.413	892.564
206.519	14.106	1187.212	891.555
207.534	14.039	1186.634	890.680
208.548	14.110	1185.245	889.941
209.563	14.094	1184.757	889.409
210.577	14.069	1184.004	888.629
211.592	14.141	1183.461	888.529
212.607	14.196	1182.633	888.122
213.621	14.153	1181.308	886.819
214.636	14.315	1180.455	886.964
215.650	14.056	1180.052	885.206
216.665	14.299	1178.549	885.290
217.680	14.393	1177.402	884.852
218.694	14.368	1177.010	884.342
219.709	14.399	1175.928	883.620
220.723	14.396	1175.356	883.091
221.738	14.323	1174.983	882.349
222.753	14.411	1174.033	882.021
223.767	14.315	1173.516	881.049
224.782	14.312	1173.148	880.678
225.796	14.516	1171.782	880.653
226.811	14.524	1171.264	880.227
227.826	14.432	1170.555	879.130
228.840	14.444	1170.091	878.766
229.855	14.368	1169.270	877.675
230.869	14.399	1168.269	877.006
231.884	14.377	1167.638	876.343
232.899	14.400	1166.711	875.690
233.913	14.309	1166.308	874.830
234.928	14.313	1165.314	874.027
235.942	14.404	1164.493	873.814
236.957	14.313	1164.112	872.972
237.972	14.427	1162.788	872.500
238.986	14.445	1162.281	872.137
240.001	14.498	1161.992	872.118
241.015	14.521	1160.772	871.247
242.030	14.481	1160.069	870.433
243.045	14.546	1159.108	869.972
244.059	14.663	1158.329	869.922
245.074	14.571	1157.900	869.045
246.088	14.471	1157.161	867.891
247.103	14.608	1156.067	867.707
248.117	14.588	1155.504	867.102
249.132	14.715	1154.722	867.101
250.147	14.734	1154.094	866.651
251.161	14.861	1153.104	866.489
252.176	14.789	1152.773	865.791
253.190	14.941	1151.925	865.863
254.205	14.812	1152.068	865.224
255.220	14.915	1151.060	864.925
256.234	14.957	1149.995	864.266
257.249	14.990	1149.256	863.805
258.263	14.928	1148.577	862.894
259.278	14.940	1148.335	862.699
260.293	15.045	1147.594	862.608
261.307	15.108	1147.209	862.567
262.322	15.025	1146.715	861.694
263.336	15.087	1145.531	861.046
264.351	15.123	1144.733	860.555
265.366	15.058	1144.690	860.111
266.380	15.168	1143.850	859.967
267.395	15.009	1143.124	858.532
268.409	14.968	1142.268	857.604
269.424	15.098	1141.749	857.804
270.439	15.090	1141.032	857.147
271.453	15.136	1140.412	856.843
272.468	15.072	1139.633	855.855
273.482	15.051	1138.857	855.086
274.497	15.075	1138.201	854.643
275.512	15.054	1137.705	854.088
276.526	15.046	1137.061	853.484
277.541	15.099	1136.106	852.964
278.555	15.114	1135.075	852.189
279.570	15.232	1134.552	852.324
280.585	15.299	1133.373	851.701
281.599	15.297	1132.633	851.060
282.614	15.218	1131.990	850.102
283.628	15.231	1130.760	849.170
284.643	15.194	1129.873	848.243
285.657	15.259	1128.935	847.789
286.672	15.326	1127.832	847.223
287.687	15.297	1127.083	846.441
288.701	15.254	1126.641	845.816
289.716	15.448	1125.431	845.812
290.730	15.417	1125.021	845.269
291.745	15.451	1124.406	844.907
292.760	15.331	1123.691	843.691
293.774	15.464	1122.933	843.717
294.789	15.558	1122.412	843.723
295.803	15.606	1122.070	843.633
296.818	15.508	1121.311	842.493
297.833	15.473	1120.574	841.692
298.847	15.519	1119.572	841.094
299.862	15.530	1118.616	840.354
300.876	15.514	1118.171	839.868
301.891	15.693	1117.248	839.996
302.906	15.669	1116.447	839.197
303.920	15.559	1115.809	838.096
304.935	15.661	1115.605	838.377
305.949	15.632	1114.989	837.694
306.964	15.706	1114.235	837.422
307.979	15.648	1113.507	836.512
308.993	15.669	1113.041	836.191
310.008	15.743	1111.901	835.628
311.022	15.808	1110.899	835.127
312.037	15.634	1110.455	833.852
313.052	15.802	1108.880	833.432
314.066	15.782	1108.118	832.683
315.081	15.631	1107.566	831.448
316.095	15.731	1106.371	830.972
317.110	15.698	1106.310	830.691
318.125	15.657	1105.698	829.956
319.139	15.702	1104.858	829.473
320.154	15.802	1103.922	829.190
321.168	15.766	1103.357	828.518
322.183	15.740	1102.753	827.862
323.197	15.702	1102.349	827.296
324.212	15.787	1102.019	827.394
325.227	15.855	1101.389	827.180
326.241	15.793	1100.762	826.334
327.256	15.795	1099.286	825.164
328.270	15.696	1099.174	824.521
329.285	15.838	1097.970	824.238
330.300	15.772	1097.017	823.129
331.314	15.760	1096.258	822.427
332.329	15.849	1095.088	821.911
333.343	15.901	1094.322	821.516
334.358	15.947	1093.640	821.158
335.373	15.849	1092.779	819.958
336.387	15.945	1092.073	819.826
337.402	16.050	1091.313	819.694
338.416	16.075	1090.655	819.249
339.431	16.086	1090.148	818.848
340.446	15.966	1089.780	817.917
341.460	16.105	1088.648	817.666
342.475	16.149	1088.195	817.467
343.489	16.240	1087.027	816.959
344.504	16.178	1086.349	816.079
345.519	16.319	1085.009	815.678
346.533	16.320	1084.566	815.281
347.548	16.313	1083.785	814.587
348.562	16.310	1083.174	814.043
349.577	16.282	1082.238	813.130
350.592	16.363	1081.351	812.780
351.606	16.217	1080.902	811.671
352.621	16.141	1080.568	810.984
353.635	16.232	1079.740	810.727
354.650	16.163	1079.035	809.796
355.665	16.243	1078.118	809.419
356.679	16.267	1077.617	809.087
357.694	16.319	1077.249	808.984
358.708	16.309	1076.466	808.277
359.723	16.355	1075.842	807.957
360.738	16.278	1075.511	807.270
361.752	16.407	1074.880	807.340
362.767	16.458	1074.162	806.973
363.781	16.375	1073.700	806.162
364.796	16.454	1072.909	805.870
365.810	16.552	1072.207	805.742
366.825	16.539	1071.650	805.187
367.840	16.654	1070.793	805.021
368.854	16.740	1070.565	805.185
369.869	16.654	1069.907	804.211
370.883	16.571	1068.607	802.768
371.898	16.674	1067.764	802.552
372.913	16.688	1067.567	802.398
373.927	16.563	1067.084	801.372
374.942	16.704	1066.420	801.470
375.956	16.609	1066.442	800.967
376.971	16.620	1065.664	800.365
377.986	16.770	1064.830	800.378
379.000	16.818	1064.443	800.242
380.015	16.806	1063.915	799.716
381.029	16.841	1063.382	799.413
382.044	16.882	1062.466	798.845
383.059	16.836	1062.012	798.215
384.073	16.745	1061.197	797.103
385.088	16.987	1059.830	797.142
386.102	16.863	1059.124	795.962
387.117	16.802	1058.413	795.070
388.132	16.883	1057.138	794.421
389.146	16.894	1056.700	794.076
390.161	16.691	1056.295	792.748
391.175	16.881	1055.182	792.731
392.190	16.855	1055.042	792.434
393.205	16.887	1053.833	791.605
394.219	16.836	1053.085	790.738
395.234	17.058	1052.049	790.920
396.248	16.942	1050.999	789.523
397.263	16.871	1050.128	788.469
398.278	16.893	1049.469	788.005
399.292	16.866	1049.032	787.483
400.307	16.893	1048.222	786.931
401.321	16.919	1047.496	786.435
402.336	16.906	1047.231	786.107
403.350	16.952	1046.441	785.659
404.365	17.043	1045.391	785.223
405.380	17.044	1044.855	784.757
406.394	17.104	1044.036	784.346
407.409	17.045	1043.496	783.600
408.423	17.115	1042.635	783.205
409.438	17.267	1041.866	783.260
410.453	17.220	1041.328	782.571
411.467	17.420	1040.409	782.730
412.482	17.214	1039.960	781.377
413.496	17.305	1039.236	781.182
414.511	17.390	1038.591	781.015
415.526	17.396	1038.332	780.782
416.540	17.455	1037.947	780.695
417.555	17.471	1037.349	780.246
418.569	17.299	1036.883	779.042
419.584	17.312	1036.277	778.576
420.599	17.301	1036.172	778.375
421.613	104.191	1323.738	1473.581
422.628	95.507	1365.598	1473.683
