DTS Sentinel unit serial number:	SN413079Multiplexer serial number:	ORYXHardware model number:	OX4-SRSoftware version number:	ORYX F/W v4.00 Oryx Data Collector v3.7.2.0data status	okinstallation	princeton_trtdifferential loss correction	single-endedforward channel	channel 2reverse channel	N/Adate	2019/09/12time	18:22:49forward acquisition time	15.00reverse acquisition time	0.00gamma	496.2192k internal	0.2323k external	0.2323temperature offset calibration	1.0139default loss term (dB/km)	0.3790temperature slope calibration	1.0000multiplexer offset coefficient	1.0000multiplexer slope coefficient	1.0000fibre end	0.00T internal ref (°C)	33.37T ext. ref 1 (°C)	3.01T ext. ref 2 (°C)	27.98length (m)	temperature (°C)	Stokes	anti-Stokes-747.200	-99.272	0.682	0.174
-746.185	79.316	-0.305	-0.331
-745.171	-54.117	0.680	-0.312
-744.156	-66.599	0.832	-0.333
-743.142	-31.931	0.600	0.339
-742.127	800.000	0.081	0.287
-741.112	236.003	0.342	-0.570
-740.098	-42.045	0.312	0.161
-739.083	462.612	-0.353	0.795
-738.069	-200.000	-0.021	-0.439
-737.054	-23.836	-0.125	0.075
-736.039	-86.379	-1.051	0.326
-735.025	67.820	0.340	-0.351
-734.010	-141.723	0.160	0.016
-732.996	85.063	-0.519	-0.574
-731.981	22.883	-0.132	0.109
-730.966	-91.997	0.258	0.074
-729.952	-176.521	0.558	0.015
-728.937	-23.725	0.692	-0.418
-727.923	800.000	0.155	-0.465
-726.908	-7.502	-0.175	-0.120
-725.894	-40.653	-0.428	0.224
-724.879	-61.790	0.482	0.204
-723.864	800.000	-0.090	-0.355
-722.850	49.971	0.232	-0.221
-721.835	-155.273	-1.130	-0.074
-720.821	-162.380	-0.389	0.020
-719.806	125.929	0.313	-0.399
-718.791	28.160	-0.533	-0.454
-717.777	16.768	0.164	-0.131
-716.762	800.000	-0.129	-0.520
-715.748	-109.366	0.630	-0.135
-714.733	-73.800	-0.167	0.061
-713.718	-50.401	0.272	0.130
-712.704	-200.000	-0.014	0.623
-711.689	-200.000	-0.155	0.909
-710.675	-94.473	-0.192	-0.053
-709.660	-131.254	0.369	0.049
-708.645	-200.000	0.113	-0.562
-707.631	-110.258	-0.575	0.121
-706.616	6.725	-0.159	0.119
-705.602	-200.000	0.074	-0.850
-704.587	-60.212	-0.749	0.322
-703.572	274.114	0.115	-0.206
-702.558	-26.975	-0.221	-0.130
-701.543	-53.765	0.969	0.446
-700.529	12.090	0.764	-0.592
-699.514	-74.569	-0.335	-0.122
-698.499	77.634	0.173	0.186
-697.485	49.924	0.306	0.291
-696.470	-75.919	0.400	0.143
-695.456	800.000	0.054	0.156
-694.441	382.759	0.179	0.370
-693.426	-71.056	-0.715	-0.271
-692.412	-200.000	-0.007	-0.080
-691.397	296.652	0.232	0.429
-690.383	-62.838	0.438	0.182
-689.368	78.227	0.353	0.380
-688.354	87.120	0.334	0.372
-687.339	302.953	-0.362	-0.676
-686.324	-13.127	-0.162	0.106
-685.310	-200.000	0.102	0.535
-684.295	800.000	-0.212	-0.868
-683.281	-21.040	0.630	0.388
-682.266	-200.000	-0.100	-0.540
-681.251	164.890	-0.535	0.761
-680.237	-1.691	-0.334	0.237
-679.222	-200.000	-0.048	-0.885
-678.208	103.209	0.333	-0.393
-677.193	-65.882	0.713	0.287
-676.178	174.063	0.414	0.602
-675.164	-59.337	0.386	0.167
-674.149	149.508	0.406	-0.554
-673.135	-101.181	-0.573	-0.141
-672.120	55.677	0.131	0.128
-671.105	35.633	-0.285	0.252
-670.091	-6.501	-0.132	0.090
-669.076	-95.375	0.419	-0.113
-668.062	-140.159	0.478	-0.051
-667.047	565.288	0.053	-0.129
-666.032	-56.127	-0.305	-0.137
-665.018	329.762	-0.124	-0.240
-664.003	-117.882	0.548	0.099
-662.989	-4.517	-0.743	-0.517
-661.974	-128.929	-0.546	-0.077
-660.959	36.086	0.256	-0.227
-659.945	-141.002	0.779	-0.080
-658.930	-200.000	0.060	0.655
-657.916	-12.991	-0.708	-0.464
-656.901	-11.357	-0.101	-0.067
-655.886	391.312	-0.214	-0.447
-654.872	-171.783	-0.714	-0.024
-653.857	-192.467	-0.707	-0.007
-652.843	-200.000	-0.107	-0.999
-651.828	112.482	-0.146	-0.178
-650.814	59.613	0.023	0.023
-649.799	-46.343	0.254	0.126
-648.784	-200.000	0.120	-0.602
-647.770	540.763	-0.195	0.467
-646.755	800.000	0.092	-0.385
-645.741	485.366	-0.187	-0.428
-644.726	581.806	0.197	0.487
-643.711	171.201	0.131	0.189
-642.697	-16.835	-0.543	-0.345
-641.682	-200.000	-0.194	0.898
-640.668	-109.233	0.702	0.150
-639.653	-200.000	0.216	0.969
-638.638	514.937	-0.285	0.669
-637.624	-7.415	-0.643	-0.438
-636.609	800.000	-0.111	-0.317
-635.595	-56.738	-0.064	0.028
-634.580	800.000	-0.167	-0.523
-633.565	-23.484	0.546	0.329
-632.551	-127.319	0.479	0.070
-631.536	-94.689	-0.537	-0.147
-630.522	800.000	-0.129	0.543
-629.507	325.996	-0.166	-0.319
-628.492	-56.074	0.339	-0.152
-627.478	-156.503	-1.242	0.078
-626.463	-200.000	-0.013	-0.234
-625.449	44.505	-0.426	-0.394
-624.434	42.446	0.181	0.165
-623.419	170.375	0.192	0.276
-622.405	-32.034	-0.754	0.424
-621.390	196.199	0.480	0.734
-620.376	-98.186	0.758	0.196
-619.361	-133.457	-0.508	0.064
-618.346	-200.000	0.132	-1.239
-617.332	645.382	0.283	-0.727
-616.317	15.728	0.350	-0.276
-615.303	55.541	0.429	0.417
-614.288	800.000	-0.171	0.474
-613.273	187.901	0.299	0.449
-612.259	-193.601	0.460	-0.004
-611.244	-200.000	0.007	0.136
-610.230	-200.000	-0.101	-0.967
-609.215	557.945	-0.144	-0.348
-608.201	183.526	0.041	0.061
-607.186	146.357	-0.398	-0.537
-606.171	-200.000	0.110	-0.670
-605.157	-52.262	-0.838	-0.390
-604.142	382.606	-0.194	0.401
-603.128	-200.000	-0.108	-1.039
-602.113	45.409	0.259	-0.240
-601.098	181.723	0.350	-0.518
-600.084	61.987	-0.462	0.462
-599.069	800.000	0.236	-0.787
-598.055	8.086	-0.152	-0.115
-597.040	-167.124	-0.324	-0.013
-596.025	-144.485	-0.617	0.057
-595.011	800.000	-0.292	0.961
-593.996	-69.822	-0.158	0.061
-592.982	-9.231	-0.448	-0.300
-591.967	418.282	0.363	0.779
-590.952	-103.462	0.475	0.112
-589.938	-200.000	-0.050	-0.360
-588.923	112.372	-0.402	0.488
-587.909	800.000	0.201	0.619
-586.894	212.222	-0.296	-0.468
-585.879	483.715	0.372	-0.850
-584.865	-105.620	-0.382	-0.087
-583.850	-200.000	-0.070	0.406
-582.836	-23.151	-0.430	0.260
-581.821	16.687	-0.327	-0.259
-580.806	-150.872	0.220	0.017
-579.792	-62.757	-0.231	-0.096
-578.777	-200.000	0.045	-0.346
-577.763	-136.621	0.891	0.103
-576.748	-171.844	-0.357	0.012
-575.733	54.839	0.191	0.185
-574.719	-27.759	0.351	0.204
-573.704	-22.064	-0.495	0.302
-572.690	166.984	0.602	-0.857
-571.675	578.541	0.031	-0.075
-570.661	-108.077	0.632	-0.137
-569.646	-8.345	-0.422	0.285
-568.631	-200.000	-0.022	0.226
-567.617	-119.115	-0.505	-0.089
-566.602	8.252	0.023	0.017
-565.588	-200.000	0.056	0.274
-564.573	424.833	0.391	0.844
-563.558	10.454	1.044	-0.797
-562.544	136.528	0.326	-0.427
-561.529	402.058	0.102	0.214
-560.515	172.127	-0.288	-0.414
-559.500	-10.056	-0.417	-0.278
-558.485	-38.263	-0.825	0.438
-557.471	800.000	0.186	0.564
-556.456	54.566	-0.353	-0.341
-555.442	-200.000	-0.016	0.410
-554.427	-200.000	-0.198	-1.076
-553.412	124.590	-0.137	-0.173
-552.398	-27.056	0.265	0.155
-551.383	-200.000	0.056	1.108
-550.369	-200.000	-0.008	0.330
-549.354	64.585	0.415	0.419
-548.339	-148.520	0.869	0.071
-547.325	-146.568	0.578	0.050
-546.310	101.427	-0.669	-0.781
-545.296	136.182	0.215	-0.281
-544.281	25.615	0.505	-0.421
-543.266	11.398	-0.635	-0.487
-542.252	800.000	-0.091	-0.271
-541.237	-82.176	0.748	0.244
-540.223	-85.590	0.606	0.189
-539.208	193.962	-0.404	-0.613
-538.193	-54.045	0.277	0.126
-537.179	286.026	-0.248	-0.448
-536.164	-24.582	1.170	-0.697
-535.150	-200.000	-0.078	0.678
-534.135	-120.942	0.443	-0.075
-533.121	-170.711	-0.945	0.033
-532.106	4.813	0.476	0.350
-531.091	-76.523	0.315	-0.111
-530.077	-200.000	-0.071	-1.119
-529.062	225.681	-0.326	-0.529
-528.048	-65.629	0.327	-0.131
-527.033	-17.053	-0.169	0.107
-526.018	-70.724	0.265	0.100
-525.004	-151.093	0.653	-0.049
-523.989	-200.000	0.076	0.384
-522.975	-114.928	-0.617	-0.118
-521.960	467.479	0.399	0.894
-520.945	103.790	-0.303	0.356
-519.931	183.924	-0.346	-0.513
-518.916	160.749	-0.377	0.527
-517.902	-200.000	0.016	0.412
-516.887	83.238	-1.129	1.230
-515.872	15.733	0.200	-0.158
-514.858	-200.000	0.139	-0.961
-513.843	-7.873	0.424	-0.287
-512.829	-200.000	-0.156	0.762
-511.814	-200.000	0.106	0.600
-510.799	-200.000	-0.056	0.480
-509.785	102.128	0.200	-0.234
-508.770	83.759	-0.550	0.601
-507.756	800.000	-0.036	-0.153
-506.741	-136.785	-0.598	-0.069
-505.726	-71.493	0.788	0.295
-504.712	-200.000	0.002	-0.238
-503.697	155.645	-0.122	0.168
-502.683	255.874	0.218	0.374
-501.668	-27.113	-0.665	-0.388
-500.653	-144.038	-0.356	-0.033
-499.639	39.761	-0.674	0.605
-498.624	-149.135	-0.546	0.044
-497.610	-200.000	0.059	-0.601
-496.595	-130.452	0.875	-0.118
-495.581	239.197	-0.118	-0.196
-494.566	21.135	-0.538	-0.436
-493.551	56.758	0.526	0.512
-492.537	-125.264	0.287	-0.044
-491.522	800.000	-0.029	0.117
-490.508	-37.783	-0.273	0.145
-489.493	-112.650	-0.467	-0.093
-488.478	-162.228	0.950	0.047
-487.464	-132.508	-0.108	-0.014
-486.449	51.036	-0.116	0.110
-485.435	-200.000	0.131	-0.874
-484.420	-8.323	-0.330	-0.222
-483.405	180.440	0.247	-0.362
-482.391	800.000	-0.348	-1.306
-481.376	-162.767	0.364	-0.018
-480.362	25.867	-0.532	0.443
-479.347	50.881	0.232	0.220
-478.332	67.949	0.152	0.156
-477.318	140.062	-0.565	-0.744
-476.303	-91.943	0.942	-0.267
-475.289	264.225	-0.257	-0.447
-474.274	-200.000	-0.046	0.473
-473.259	-200.000	-0.121	1.604
-472.245	-68.809	-0.489	0.189
-471.230	-49.662	-0.476	0.226
-470.216	705.257	0.264	-0.695
-469.201	-131.723	-0.538	0.070
-468.186	-68.432	-0.295	0.114
-467.172	-200.000	0.147	0.771
-466.157	-142.816	-0.590	-0.057
-465.143	147.307	-0.394	-0.530
-464.128	-176.696	0.094	-0.002
-463.113	-10.624	-0.415	-0.274
-462.099	-200.000	-0.081	-0.455
-461.084	257.211	0.641	-1.101
-460.070	48.629	0.628	0.587
-459.055	-103.215	-0.874	0.206
-458.040	73.096	-0.668	-0.698
-457.026	800.000	-0.420	1.500
-456.011	312.948	-0.478	0.898
-454.997	800.000	-0.192	0.616
-453.982	-200.000	-0.010	0.205
-452.968	-32.481	0.209	0.116
-451.953	-71.965	0.522	-0.194
-450.938	388.317	-0.179	-0.371
-449.924	-2.669	-0.305	0.213
-448.909	-152.928	-0.347	-0.024
-447.895	-200.000	-0.083	-0.724
-446.880	-103.545	0.688	0.161
-445.865	289.502	-0.174	0.315
-444.851	-123.285	-0.319	0.051
-443.836	-25.055	-0.334	-0.198
-442.822	365.148	0.163	0.327
-441.807	175.673	0.314	-0.454
-440.792	-200.000	-0.025	-0.347
-439.778	-200.000	0.151	-0.915
-438.763	-14.455	0.326	0.209
-437.749	800.000	0.187	-0.598
-436.734	497.851	-0.266	-0.611
-435.719	-159.275	0.236	0.013
-434.705	800.000	0.347	0.999
-433.690	529.361	0.215	0.506
-432.676	-200.000	0.067	-0.633
-431.661	-170.288	0.163	-0.006
-430.646	-56.778	-0.720	-0.318
-429.632	-158.716	-1.041	-0.060
-428.617	-117.448	-0.217	-0.039
-427.603	20.996	0.234	0.189
-426.588	-200.000	0.001	0.793
-425.573	-126.857	-0.814	0.120
-424.559	210.579	0.256	0.402
-423.544	18.441	0.227	-0.181
-422.530	75.875	0.546	0.576
-421.515	-200.000	-0.090	-0.608
-420.500	253.185	-0.544	-0.925
-419.486	8.428	-0.628	0.471
-418.471	-19.386	0.411	-0.254
-417.457	-200.000	-0.017	-0.495
-416.442	-4.408	-0.415	-0.286
-415.428	-86.237	0.294	0.090
-414.413	-118.625	0.423	0.074
-413.398	358.326	0.336	0.669
-412.384	-85.055	0.625	0.195
-411.369	-152.334	1.076	0.077
-410.355	-200.000	0.067	0.700
-409.340	49.004	0.423	0.396
-408.325	-200.000	-0.010	-0.409
-407.311	-200.000	-0.005	-1.129
-406.296	240.603	-0.860	-1.430
-405.282	355.836	0.066	0.131
-404.267	-25.956	0.233	0.136
-403.252	58.622	0.348	0.340
-402.238	-14.931	0.735	0.470
-401.223	164.700	-0.222	-0.312
-400.209	101.596	0.147	-0.170
-399.194	-93.572	0.621	-0.171
-398.179	399.175	-0.146	-0.306
-397.165	86.653	-0.356	0.391
-396.150	26.355	-0.436	0.363
-395.136	-18.229	0.552	-0.344
-394.121	224.578	0.155	0.250
-393.106	-14.534	-0.399	-0.256
-392.092	25.399	0.600	-0.496
-391.077	53.628	-0.681	-0.651
-390.063	193.768	0.433	0.653
-389.048	-13.305	0.720	0.466
-388.033	-124.787	0.213	0.033
-387.019	-58.158	-0.467	-0.203
-386.004	253.680	0.560	-0.953
-384.990	-45.689	-0.665	-0.328
-383.975	-200.000	0.005	0.582
-382.960	-149.121	-0.652	0.052
-381.946	297.558	0.187	-0.342
-380.931	150.541	0.452	0.612
-379.917	60.821	0.735	0.726
-378.902	521.441	-0.106	0.247
-377.888	-59.824	0.783	0.333
-376.873	-93.658	-0.057	0.016
-375.858	-117.674	0.472	0.085
-374.844	-138.020	-0.562	-0.062
-373.829	3.028	0.710	-0.514
-372.815	-109.407	-1.051	0.221
-371.800	-76.533	-0.427	0.149
-370.785	-93.420	0.597	-0.165
-369.771	800.000	-0.238	-0.933
-368.756	-200.000	-0.014	-0.370
-367.742	-11.283	0.237	-0.155
-366.727	150.644	0.277	0.374
-365.712	42.010	-0.224	0.202
-364.698	-148.252	0.696	-0.057
-363.683	284.300	0.125	0.225
-362.669	-200.000	0.049	-0.602
-361.654	-69.790	0.273	-0.104
-360.639	-200.000	0.005	-0.664
-359.625	10.689	0.387	0.293
-358.610	-19.741	0.548	0.337
-357.596	-78.289	-0.015	-0.005
-356.581	-16.672	0.735	0.463
-355.566	-200.000	-0.018	0.377
-354.552	90.367	0.969	-1.078
-353.537	-157.465	-1.008	0.060
-352.523	-133.584	0.824	-0.103
-351.508	-139.155	0.775	0.083
-350.493	566.680	0.335	-0.808
-349.479	-89.666	-0.642	-0.187
-348.464	46.238	0.325	0.299
-347.450	-57.262	0.102	-0.045
-346.435	-61.040	-0.456	0.192
-345.420	278.376	0.113	-0.200
-344.406	34.176	-0.372	0.322
-343.391	-125.605	-0.700	0.106
-342.377	54.587	0.209	-0.201
-341.362	219.820	0.207	0.330
-340.348	-16.505	-0.572	-0.360
-339.333	27.925	0.471	-0.394
-338.318	-68.676	0.404	-0.155
-337.304	17.684	0.693	0.548
-336.289	-71.337	-0.837	0.312
-335.275	45.745	0.336	-0.308
-334.260	-73.696	0.665	-0.241
-333.245	-77.681	-0.190	0.065
-332.231	208.020	-0.431	-0.669
-331.216	-29.999	0.117	0.066
-330.202	-113.545	-0.738	-0.143
-329.187	800.000	-0.216	-0.665
-328.172	749.709	-0.213	-0.570
-327.158	693.672	-0.075	0.194
-326.143	-162.070	-0.182	0.009
-325.129	800.000	-0.149	0.586
-324.114	108.859	0.387	-0.460
-323.099	67.053	0.442	0.447
-322.085	-200.000	-0.016	-0.582
-321.070	-28.473	-0.682	0.391
-320.056	76.168	0.533	0.560
-319.041	81.193	-0.344	0.369
-318.026	17.359	-0.445	-0.351
-317.012	-118.244	-0.703	-0.124
-315.997	106.926	-0.417	-0.491
-314.983	-200.000	-0.077	-0.546
-313.968	59.962	0.521	0.511
-312.953	-200.000	-0.009	0.657
-311.939	239.859	0.082	-0.135
-310.924	-89.024	-1.127	-0.331
-309.910	209.279	-0.250	0.388
-308.895	800.000	-0.183	0.638
-307.880	25.025	0.834	0.687
-306.866	63.328	0.340	-0.339
-305.851	55.517	-0.341	-0.327
-304.837	3.603	0.161	-0.116
-303.822	800.000	-0.140	-0.388
-302.807	109.229	0.475	0.565
-301.793	-93.438	0.945	0.260
-300.778	-111.233	-0.505	0.102
-299.764	-200.000	0.004	-0.096
-298.749	2.955	-0.674	-0.486
-297.735	700.571	-0.369	-0.965
-296.720	-99.812	0.710	-0.176
-295.705	-74.767	0.340	-0.121
-294.691	-71.253	-0.387	-0.144
-293.676	621.285	0.161	-0.402
-292.662	800.000	0.117	-0.433
-291.647	-31.069	0.243	-0.136
-290.632	-30.185	0.654	0.369
-289.618	43.002	0.401	-0.363
-288.603	161.265	-0.301	0.418
-287.589	-0.266	0.336	0.237
-286.574	114.844	0.257	0.310
-285.559	-200.000	-0.056	0.486
-284.545	249.842	0.399	0.671
-283.530	800.000	0.149	0.440
-282.516	-133.825	-0.524	-0.065
-281.501	53.447	-0.153	0.145
-280.486	170.701	-0.173	0.246
-279.472	564.570	-0.191	-0.459
-278.457	800.000	-0.062	0.228
-277.443	304.481	-0.233	0.428
-276.428	475.244	-0.183	-0.411
-275.413	-93.561	-1.095	0.300
-274.399	212.539	-0.196	0.306
-273.384	-156.258	-0.342	-0.021
-272.370	-23.822	0.257	0.153
-271.355	-200.000	0.145	0.713
-270.340	-66.635	0.832	0.327
-269.326	-2.482	-0.068	-0.047
-268.311	257.422	0.176	0.300
-267.297	74.707	0.393	-0.410
-266.282	-200.000	-0.045	-0.494
-265.267	123.945	0.579	0.720
-264.253	426.589	0.040	0.085
-263.238	36.684	-0.770	-0.674
-262.224	-200.000	0.078	-0.850
-261.209	-200.000	0.035	0.687
-260.195	62.933	-0.548	0.544
-259.180	800.000	0.216	0.721
-258.165	800.000	0.043	-0.169
-257.151	99.774	0.148	-0.170
-256.136	-99.912	-0.710	0.176
-255.122	-1.755	0.233	0.163
-254.107	0.571	-0.802	0.568
-253.092	643.571	-0.301	0.760
-252.078	-57.206	-0.906	0.395
-251.063	155.458	-0.405	-0.552
-250.049	261.114	0.422	0.723
-249.034	-14.494	-0.072	0.046
-248.019	-52.018	-0.781	0.359
-247.005	-72.934	0.821	-0.299
-245.990	800.000	-0.058	0.187
-244.976	302.345	0.255	-0.468
-243.961	-19.265	0.430	0.264
-242.946	-200.000	-0.012	0.466
-241.932	-158.381	0.613	-0.035
-240.917	245.841	-0.581	-0.969
-239.903	-200.000	-0.006	-1.072
-238.888	622.442	-0.153	-0.382
-237.873	35.602	-0.689	0.599
-236.859	-200.000	-0.092	0.525
-235.844	422.401	-0.088	-0.187
-234.830	239.270	-0.109	0.179
-233.815	-74.775	0.157	0.056
-232.800	261.041	0.404	-0.691
-231.786	-48.449	0.329	-0.157
-230.771	800.000	0.106	0.296
-229.757	-200.000	-0.033	0.410
-228.742	-54.465	0.256	0.115
-227.727	-85.769	-0.480	0.147
-226.713	-71.329	0.601	-0.223
-225.698	-71.327	-0.634	-0.235
-224.684	95.113	0.602	0.678
-223.669	-200.000	-0.054	0.555
-222.655	180.701	0.353	0.512
-221.640	-122.920	-0.598	-0.095
-220.625	108.490	-0.333	0.393
-219.611	-87.812	0.726	0.216
-218.596	-149.018	-0.150	-0.012
-217.582	19.209	0.373	-0.297
-216.567	-81.372	0.526	-0.171
-215.552	800.000	-0.101	0.392
-214.538	-57.392	-0.410	0.178
-213.523	-200.000	0.082	0.899
-212.509	-200.000	0.138	0.644
-211.494	-200.000	-0.011	-0.668
-210.479	420.543	-0.441	0.935
-209.465	-200.000	0.016	0.143
-208.450	800.000	0.263	0.785
-207.436	-118.283	-0.867	0.152
-206.421	108.376	-0.443	0.523
-205.406	711.384	-0.064	-0.168
-204.392	-113.370	0.530	0.103
-203.377	154.756	0.252	-0.343
-202.363	145.236	-0.144	-0.191
-201.348	-200.000	0.114	0.615
-200.333	800.000	0.208	-0.572
-199.319	-84.884	0.479	-0.149
-198.304	-89.099	0.749	-0.219
-197.290	-200.000	-0.084	-0.000
-196.275	-107.802	-0.699	0.150
-195.260	-200.000	0.165	-0.868
-194.246	-192.796	0.080	-0.001
-193.231	237.760	0.222	-0.365
-192.217	-75.291	-0.417	0.147
-191.202	279.812	0.250	-0.441
-190.187	800.000	0.091	-0.256
-189.173	-20.082	-0.680	-0.414
-188.158	82.558	-0.363	0.389
-187.144	-62.512	0.562	0.231
-186.129	-200.000	-0.158	0.910
-185.114	-200.000	-0.049	-0.272
-184.100	-84.253	0.507	-0.159
-183.085	107.414	-0.957	-1.124
-182.071	-15.174	-0.583	0.368
-181.056	-200.000	0.132	-0.754
-180.042	-200.000	0.104	-0.577
-179.027	187.010	-0.173	0.255
-178.012	-200.000	0.094	0.505
-176.998	-15.412	0.855	0.540
-175.983	-200.000	0.003	-0.138
-174.969	-94.864	0.510	-0.136
-173.954	-139.885	0.492	-0.051
-172.939	170.823	-0.350	-0.496
-171.925	-200.000	0.002	-0.066
-170.910	-200.000	0.068	-0.381
-169.896	800.000	0.147	0.445
-168.881	7.800	0.377	-0.279
-167.866	-116.437	0.138	0.025
-166.852	-200.000	0.060	-0.710
-165.837	-133.049	0.418	0.052
-164.823	72.859	-0.323	0.333
-163.808	800.000	0.037	-0.129
-162.793	800.000	0.177	-0.590
-161.779	20.493	-0.506	0.404
-160.764	800.000	0.086	0.237
-159.750	800.000	-0.291	0.917
-158.735	800.000	0.124	0.369
-157.720	-147.436	-0.547	-0.046
-156.706	550.859	0.204	0.482
-155.691	512.018	0.406	-0.934
-154.677	800.000	0.046	0.140
-153.662	239.984	-0.444	-0.730
-152.647	-177.893	-0.468	0.011
-151.633	800.000	-0.096	0.309
-150.618	-9.146	0.231	-0.152
-149.604	545.250	0.292	-0.688
-148.589	129.554	0.480	-0.605
-147.574	-200.000	-0.032	-0.262
-146.560	695.110	0.026	-0.068
-145.545	-200.000	-0.050	-0.408
-144.531	-70.641	-0.282	0.105
-143.516	-181.514	-0.275	0.005
-142.502	39.910	-0.176	0.156
-141.487	181.487	0.751	1.089
-140.472	-145.534	0.682	0.060
-139.458	-35.459	0.365	-0.195
-138.443	613.687	0.409	-1.009
-137.429	-130.755	0.093	0.012
-136.414	-200.000	0.036	-0.371
-135.399	-44.318	-0.279	0.138
-134.385	800.000	-0.147	0.441
-133.370	-200.000	0.116	-0.877
-132.356	-99.382	0.766	-0.190
-131.341	800.000	-0.187	-0.718
-130.326	800.000	0.143	0.506
-129.312	-200.000	0.056	0.493
-128.297	-103.129	-0.474	-0.111
-127.283	-133.641	0.643	-0.079
-126.268	-90.544	0.592	-0.169
-125.253	6.907	0.464	-0.341
-124.239	-200.000	-0.014	0.373
-123.224	-76.117	0.561	0.195
-122.210	72.147	-0.292	0.300
-121.195	24.399	-0.313	-0.255
-120.180	328.567	0.310	0.587
-119.166	-200.000	-0.018	0.300
-118.151	-133.491	-0.927	-0.115
-117.137	-21.481	0.377	-0.226
-116.122	-32.732	0.430	0.236
-115.107	-200.000	0.034	-0.246
-114.093	-19.663	0.307	0.187
-113.078	-35.823	-0.220	0.117
-112.064	183.941	-0.158	-0.230
-111.049	-141.194	0.745	0.075
-110.034	223.867	-0.272	0.433
-109.020	22.148	-0.446	0.359
-108.005	-66.586	1.096	0.428
-106.991	-200.000	-0.033	-0.393
-105.976	800.000	0.084	0.326
-104.962	-80.236	-0.491	-0.162
-103.947	128.260	-0.392	-0.492
-102.932	-141.149	0.246	-0.025
-101.918	664.292	-0.177	-0.449
-100.903	-80.000	-0.545	0.180
-99.889	57.555	0.235	0.226
-98.874	149.853	0.405	-0.541
-97.859	33.412	-0.281	-0.240
-96.845	-44.217	-0.757	0.374
-95.830	-72.355	0.433	0.158
-94.816	229.992	0.126	0.203
-93.801	19.534	0.183	0.145
-92.786	-68.701	-0.506	-0.193
-91.772	-200.000	0.019	0.372
-90.757	-200.000	-0.084	0.715
-89.743	17.650	-0.262	0.205
-88.728	-68.672	0.541	0.206
-87.713	-200.000	0.093	0.513
-86.699	168.013	-0.474	-0.664
-85.684	-142.081	0.215	-0.021
-84.670	-25.905	0.589	-0.341
-83.655	-13.348	-0.778	-0.497
-82.640	-200.000	0.033	-0.825
-81.626	-31.816	-0.306	-0.169
-80.611	-91.221	-0.405	-0.114
-79.597	284.423	-0.268	0.475
-78.582	-119.785	-0.708	0.120
-77.567	85.021	-0.258	0.279
-76.553	21.619	0.426	-0.341
-75.538	-37.491	-0.616	-0.323
-74.524	800.000	0.222	0.897
-73.509	-83.452	0.476	0.150
-72.494	165.627	0.405	-0.563
-71.480	-200.000	-0.072	-0.519
-70.465	37.355	-0.111	-0.096
-69.451	-72.376	0.290	-0.106
-68.436	-47.378	0.623	0.298
-67.422	800.000	-0.382	1.331
-66.407	-200.000	0.610	0.001
-65.392	61.493	-1.088	-1.064
-64.378	-146.774	-0.753	-0.064
-63.363	-114.850	0.489	0.092
-62.349	-200.000	-0.043	-1.047
-61.334	-23.872	-0.785	-0.462
-60.319	701.935	0.229	0.592
-59.305	-200.000	-0.060	-0.740
-58.290	800.000	0.414	1.282
-57.276	337.256	1.158	2.212
-56.261	-200.000	96.154	569.838
-55.246	634.558	1373.053	3423.075
-54.232	198.804	2550.988	3838.962
-53.217	111.686	2257.262	2677.320
-52.203	42.556	1886.096	1686.726
-51.188	36.716	1677.742	1456.541
-50.173	33.953	1634.396	1398.562
-49.159	52.420	1682.964	1578.284
-48.144	53.187	1699.011	1598.987
-47.130	36.246	1659.638	1437.094
-46.115	33.625	1644.785	1404.800
-45.100	33.431	1639.227	1398.565
-44.086	33.157	1636.834	1394.441
-43.071	33.151	1634.042	1391.969
-42.057	33.169	1631.992	1390.299
-41.042	33.304	1630.243	1389.742
-40.027	33.202	1627.643	1386.723
-39.013	33.141	1626.555	1385.293
-37.998	33.249	1624.086	1383.924
-36.984	33.277	1622.475	1382.707
-35.969	33.304	1621.714	1382.200
-34.954	33.270	1620.959	1381.249
-33.940	33.333	1618.188	1379.297
-32.925	33.354	1617.490	1378.795
-31.911	33.427	1614.639	1376.843
-30.896	33.265	1612.525	1373.808
-29.881	33.453	1611.368	1374.132
-28.867	33.507	1609.417	1372.806
-27.852	33.430	1608.513	1371.423
-26.838	33.357	1607.802	1370.237
-25.823	33.518	1604.266	1368.329
-24.809	33.301	1604.138	1366.602
-23.794	33.387	1602.213	1365.526
-22.779	33.564	1600.460	1365.249
-21.765	33.203	1600.490	1362.621
-20.750	33.271	1596.979	1360.071
-19.736	33.599	1595.588	1361.187
-18.721	33.759	1594.623	1361.453
-17.706	33.183	1594.144	1356.862
-16.692	33.031	1593.411	1355.096
-15.677	33.429	1589.902	1354.901
-14.663	33.611	1588.181	1354.680
-13.648	33.469	1587.983	1353.449
-12.633	33.411	1585.841	1351.150
-11.619	33.325	1585.051	1349.815
-10.604	33.386	1583.739	1349.078
-9.590	33.651	1580.331	1348.003
-8.575	33.167	1580.809	1344.914
-7.560	33.594	1578.777	1346.164
-6.546	33.260	1578.796	1343.757
-5.531	33.525	1576.870	1343.943
-4.517	33.746	1574.000	1343.006
-3.502	33.489	1575.373	1342.304
-2.487	33.597	1573.299	1341.247
-1.473	33.048	1561.672	1327.429
-0.458	30.150	1542.255	1290.733
0.556	27.741	1542.976	1259.000
1.571	25.357	1564.210	1259.513
2.586	24.659	1578.612	1266.057
3.600	21.828	1524.438	1203.103
4.615	13.095	1414.561	1060.443
5.629	4.569	1350.404	959.793
6.644	2.871	1342.904	943.945
7.659	2.939	1341.203	943.088
8.673	3.131	1338.268	942.116
9.688	3.099	1337.292	941.145
10.702	2.818	1334.969	937.714
11.717	6.025	1341.811	962.106
12.731	15.956	1359.623	1036.161
13.746	23.749	1373.010	1094.485
14.761	25.799	1375.192	1108.764
15.775	26.087	1375.320	1110.538
16.790	26.329	1375.476	1112.058
17.804	26.390	1373.963	1111.110
18.819	26.551	1374.142	1112.148
19.834	26.463	1373.608	1111.075
20.848	26.929	1371.966	1112.504
21.863	26.452	1372.211	1109.682
22.877	26.945	1369.932	1110.761
23.892	26.662	1370.180	1109.127
24.907	26.782	1368.776	1108.625
25.921	26.690	1367.896	1107.252
26.936	26.644	1366.867	1106.046
27.950	26.766	1365.693	1105.738
28.965	26.855	1363.969	1104.789
29.980	26.707	1364.219	1103.993
30.994	26.840	1362.427	1103.252
32.009	26.903	1360.691	1102.133
33.023	26.840	1360.052	1101.132
34.038	26.736	1358.367	1099.042
35.053	26.730	1358.451	1098.974
36.067	26.732	1357.251	1097.918
37.082	26.905	1355.070	1097.105
38.096	26.644	1355.284	1095.604
39.111	26.639	1355.401	1095.568
40.126	26.603	1354.122	1094.221
41.140	26.898	1352.842	1094.872
42.155	26.816	1352.788	1094.234
43.169	26.772	1353.485	1094.439
44.184	26.708	1353.567	1094.020
45.199	26.790	1353.069	1094.018
46.213	26.634	1353.028	1092.945
47.228	26.805	1351.816	1092.899
48.242	26.855	1349.603	1091.316
49.257	26.614	1349.251	1089.481
50.271	26.627	1347.449	1088.009
51.286	26.654	1346.687	1087.461
52.301	26.895	1344.067	1086.690
53.315	26.806	1344.419	1086.346
54.330	26.775	1343.783	1085.549
55.344	26.861	1341.802	1084.370
56.359	27.026	1339.997	1083.801
57.374	26.899	1340.413	1083.282
58.388	26.897	1339.560	1082.486
59.403	26.705	1339.696	1081.356
60.417	26.674	1339.252	1080.713
61.432	26.728	1337.712	1079.698
62.447	26.839	1337.073	1079.745
63.461	26.908	1335.736	1078.983
64.476	26.885	1334.587	1077.821
65.490	26.877	1333.484	1076.788
66.505	27.114	1330.853	1075.971
67.520	26.871	1331.572	1075.017
68.534	26.930	1329.567	1073.654
69.549	26.750	1330.041	1072.880
70.563	26.895	1328.453	1072.360
71.578	26.879	1327.215	1071.172
72.593	27.047	1326.328	1071.350
73.607	26.986	1325.620	1070.326
74.622	27.040	1324.684	1069.791
75.636	27.118	1324.165	1069.734
76.651	27.005	1323.886	1068.754
77.666	26.980	1323.328	1068.058
78.680	27.027	1322.526	1067.592
79.695	27.062	1321.800	1067.120
80.709	26.830	1321.664	1065.549
81.724	26.801	1320.662	1064.479
82.739	26.623	1320.621	1063.304
83.753	26.923	1318.701	1063.427
84.768	26.935	1316.291	1061.461
85.782	26.923	1315.824	1060.920
86.797	26.903	1314.490	1059.631
87.812	26.856	1314.663	1059.403
88.826	27.121	1312.986	1059.504
89.841	27.348	1311.468	1059.505
90.855	27.052	1309.907	1056.429
91.870	27.078	1310.274	1056.783
92.884	26.804	1309.409	1054.399
93.899	27.054	1308.584	1055.094
94.914	26.939	1308.729	1054.450
95.928	27.065	1306.777	1053.517
96.943	27.230	1304.978	1052.929
97.957	27.058	1305.981	1052.646
98.972	27.110	1304.343	1051.535
99.987	27.167	1303.596	1051.170
101.001	27.173	1302.449	1050.185
102.016	27.040	1302.425	1049.306
103.030	27.159	1301.312	1049.001
104.045	27.099	1300.049	1047.544
105.060	27.040	1299.269	1046.485
106.074	26.968	1298.161	1045.082
107.089	26.959	1297.923	1044.747
108.103	27.102	1295.667	1043.661
109.118	27.124	1294.812	1043.007
110.133	27.255	1294.075	1043.069
111.147	27.358	1292.330	1042.162
112.162	27.450	1291.268	1041.742
113.176	27.218	1291.347	1040.385
114.191	27.202	1289.461	1038.681
115.206	27.057	1289.430	1037.736
116.220	27.555	1287.129	1038.629
117.235	27.267	1286.872	1036.692
118.249	27.190	1286.438	1035.812
119.264	27.066	1286.193	1034.814
120.279	27.280	1283.935	1034.125
121.293	27.244	1284.328	1034.142
122.308	27.198	1282.983	1032.710
123.322	27.421	1281.954	1033.056
124.337	27.323	1280.619	1031.331
125.352	27.241	1280.825	1030.945
126.366	27.448	1279.430	1030.898
127.381	27.022	1279.645	1028.567
128.395	27.433	1277.704	1029.241
129.410	27.180	1276.502	1026.755
130.424	27.516	1275.777	1027.974
131.439	27.274	1275.602	1026.379
132.454	27.476	1273.783	1025.964
133.468	27.590	1273.406	1026.210
134.483	27.212	1273.511	1024.078
135.497	27.329	1272.870	1024.126
136.512	27.335	1272.158	1023.499
137.527	27.192	1270.671	1021.410
138.541	27.279	1269.808	1021.112
139.556	27.130	1268.506	1019.141
140.570	27.155	1267.829	1018.643
141.585	27.382	1265.715	1018.123
142.600	27.341	1265.036	1017.260
143.614	27.416	1265.021	1017.579
144.629	27.607	1262.520	1016.543
145.643	27.283	1262.425	1014.570
146.658	27.174	1261.998	1013.527
147.673	27.340	1260.982	1013.544
148.687	27.343	1259.872	1012.580
149.702	27.408	1257.816	1011.201
150.716	27.575	1256.379	1010.884
151.731	27.149	1257.771	1009.547
152.746	27.076	1255.831	1007.493
153.760	27.482	1254.549	1008.625
154.775	27.432	1253.703	1007.583
155.789	27.570	1252.677	1007.432
156.804	27.505	1251.120	1005.727
157.819	27.437	1250.862	1005.057
158.833	27.356	1250.079	1003.894
159.848	27.513	1250.522	1005.026
160.862	27.457	1249.219	1003.579
161.877	27.526	1248.097	1002.974
162.892	27.497	1247.555	1002.286
163.906	27.450	1246.277	1000.912
164.921	27.453	1246.340	1000.893
165.935	27.521	1244.152	999.418
166.950	27.525	1245.117	1000.126
167.964	27.643	1244.353	1000.074
168.979	27.581	1243.767	999.175
169.994	27.647	1243.158	998.957
171.008	27.696	1241.826	998.067
172.023	27.648	1241.007	997.056
173.037	27.556	1240.765	996.271
174.052	27.803	1239.370	996.414
175.067	27.821	1238.187	995.470
176.081	27.677	1238.725	995.032
177.096	27.546	1237.463	993.217
178.110	27.391	1236.790	991.744
179.125	27.571	1235.346	991.476
180.140	27.716	1234.722	991.676
181.154	27.690	1232.628	989.766
182.169	27.559	1232.120	988.558
183.183	27.368	1231.439	986.891
184.198	27.470	1230.256	986.408
185.213	27.901	1229.425	987.988
186.227	27.826	1227.821	986.207
187.242	27.755	1227.006	985.081
188.256	27.649	1226.568	984.066
189.271	27.486	1227.234	983.635
190.286	27.480	1226.186	982.677
191.300	28.002	1224.941	984.404
192.315	27.896	1224.731	983.576
193.329	27.869	1224.529	983.180
194.344	27.970	1222.972	982.390
195.359	27.848	1223.593	982.146
196.373	27.709	1223.426	981.174
197.388	28.012	1222.254	981.777
198.402	27.620	1221.696	979.136
199.417	27.821	1221.347	979.846
200.432	27.684	1221.152	978.872
201.446	28.010	1219.892	979.521
202.461	27.811	1219.358	977.939
203.475	27.797	1218.909	977.417
204.490	27.934	1217.684	977.081
205.504	27.856	1216.699	975.791
206.519	27.949	1215.843	975.511
207.534	28.127	1213.331	974.360
208.548	28.124	1212.769	973.805
209.563	28.100	1212.615	973.465
210.577	27.919	1211.922	971.863
211.592	27.827	1212.251	971.553
212.607	28.026	1210.848	971.398
213.621	28.064	1209.839	970.705
214.636	27.940	1209.218	969.461
215.650	27.972	1208.337	968.837
216.665	27.847	1207.971	967.799
217.680	28.049	1207.306	968.250
218.694	28.007	1205.970	966.872
219.709	27.847	1206.034	965.987
220.723	28.279	1203.423	966.092
221.738	27.917	1204.472	964.936
222.753	27.867	1203.850	964.087
223.767	27.986	1203.142	964.067
224.782	28.280	1202.480	965.001
225.796	28.077	1202.048	963.495
226.811	27.806	1201.203	961.310
227.826	28.112	1200.861	962.558
228.840	28.309	1199.445	962.377
229.855	28.050	1198.776	960.391
230.869	28.279	1198.301	961.131
231.884	28.183	1197.613	959.991
232.899	28.263	1196.540	959.462
233.913	28.391	1195.991	959.608
234.928	27.953	1195.495	956.830
235.942	28.326	1195.612	958.791
236.957	28.504	1193.804	958.192
237.972	28.118	1193.563	955.893
238.986	28.201	1193.932	956.540
240.001	28.220	1193.574	956.265
241.015	28.541	1192.124	956.696
242.030	28.505	1190.219	954.896
243.045	28.293	1191.669	954.867
244.059	28.458	1188.975	953.481
245.074	28.205	1189.113	952.195
246.088	28.446	1187.824	952.329
247.103	28.341	1187.909	951.767
248.117	28.603	1186.416	951.844
249.132	28.205	1186.274	949.585
250.147	28.389	1184.950	949.392
251.161	28.203	1184.909	948.312
252.176	28.605	1183.464	949.153
253.190	28.540	1182.709	948.129
254.205	28.164	1183.353	946.614
255.220	28.414	1182.062	946.790
256.234	28.486	1181.819	946.883
257.249	28.456	1181.593	946.461
258.263	28.498	1180.530	945.745
259.278	28.612	1179.043	945.057
260.293	28.812	1179.928	946.712
261.307	28.469	1179.151	944.240
262.322	28.702	1178.271	944.650
263.336	28.462	1178.404	943.436
264.351	28.533	1176.659	942.323
265.366	28.575	1176.856	942.612
266.380	28.743	1176.126	942.806
267.395	28.617	1175.215	941.345
268.409	28.549	1175.387	941.051
269.424	28.684	1173.758	940.357
270.439	28.815	1173.235	940.525
271.453	28.755	1172.137	939.256
272.468	28.834	1171.086	938.732
273.482	28.420	1172.333	937.532
274.497	28.845	1171.329	938.817
275.512	28.498	1170.740	936.491
276.526	28.720	1169.690	936.699
277.541	28.672	1167.906	934.945
278.555	28.766	1168.221	935.595
279.570	28.909	1166.942	935.212
280.585	28.805	1165.996	933.845
281.599	28.668	1165.912	932.999
282.614	28.810	1165.570	933.361
283.628	28.748	1164.664	932.237
284.643	28.555	1163.872	930.544
285.657	28.728	1163.517	931.055
286.672	28.662	1162.713	929.995
287.687	28.833	1161.072	929.464
288.701	29.063	1159.911	929.614
289.716	29.140	1159.315	929.446
290.730	28.919	1159.743	928.592
291.745	29.054	1158.275	928.010
292.760	29.077	1157.442	927.377
293.774	29.147	1157.791	927.928
294.789	29.034	1156.985	926.633
295.803	28.862	1157.001	925.698
296.818	28.885	1156.447	925.286
297.833	29.126	1155.348	925.536
298.847	28.711	1155.575	923.548
299.862	29.073	1154.084	924.096
300.876	29.111	1153.472	923.713
301.891	28.988	1152.213	922.008
302.906	28.999	1152.001	921.810
303.920	28.989	1151.210	921.047
304.935	29.212	1150.542	921.549
305.949	29.316	1149.477	921.133
306.964	28.907	1150.374	919.721
307.979	29.027	1148.891	919.054
308.993	29.188	1148.066	919.119
310.008	29.334	1147.920	919.648
311.022	29.225	1146.421	917.824
312.037	29.514	1145.636	918.550
313.052	29.221	1144.385	916.013
314.066	29.126	1144.166	915.280
315.081	29.041	1143.452	914.210
316.095	29.004	1142.533	913.207
317.110	29.162	1142.374	913.786
318.125	28.890	1142.921	912.789
319.139	28.973	1142.337	912.654
320.154	29.003	1141.953	912.419
321.168	29.357	1139.831	912.394
322.183	29.471	1138.427	911.753
323.197	29.221	1138.889	910.804
324.212	29.215	1139.102	910.863
325.227	29.407	1138.114	910.941
326.241	29.218	1137.635	909.544
327.256	29.155	1137.272	908.866
328.270	29.229	1136.365	908.423
329.285	29.378	1134.938	907.935
330.300	29.316	1133.845	906.676
331.314	29.488	1132.731	906.548
332.329	29.423	1132.466	905.939
333.343	29.585	1131.743	906.077
334.358	29.512	1131.335	905.308
335.373	29.407	1131.214	904.619
336.387	29.585	1129.121	903.736
337.402	29.518	1130.022	904.049
338.416	29.624	1128.756	903.477
339.431	29.583	1127.700	902.347
340.446	29.469	1127.881	901.858
341.460	29.426	1127.382	901.170
342.475	29.342	1125.728	899.355
343.489	29.505	1125.742	900.082
344.504	29.550	1124.799	899.469
345.519	29.528	1123.009	897.848
346.533	29.862	1122.459	898.953
347.548	29.607	1121.400	896.787
348.562	29.703	1121.058	896.901
349.577	29.820	1120.795	897.180
350.592	29.659	1119.937	895.632
351.606	29.670	1119.787	895.487
352.621	29.590	1118.931	894.337
353.635	29.370	1118.619	892.944
354.650	29.702	1116.942	893.131
355.665	29.881	1116.517	893.576
356.679	29.697	1116.503	892.595
357.694	29.745	1115.905	892.272
358.708	29.803	1115.161	891.874
359.723	29.757	1114.048	890.685
360.738	29.796	1113.507	890.361
361.752	29.802	1112.810	889.756
362.767	29.798	1112.966	889.782
363.781	29.844	1111.923	889.092
364.796	30.072	1111.314	889.620
365.810	29.659	1111.732	887.894
366.825	29.663	1111.130	887.352
367.840	29.747	1110.395	887.091
368.854	29.926	1109.695	887.308
369.869	29.690	1109.065	885.598
370.883	29.827	1108.429	885.665
371.898	29.994	1107.375	885.546
372.913	30.117	1106.889	885.664
373.927	30.150	1106.381	885.336
374.942	30.086	1105.422	884.189
375.956	30.040	1104.994	883.546
376.971	30.185	1104.335	883.632
377.986	29.932	1104.004	882.085
379.000	29.726	1103.694	880.776
380.015	30.091	1103.092	881.957
381.029	30.172	1101.797	881.230
382.044	29.989	1101.498	880.043
383.059	30.012	1101.140	879.787
384.073	30.201	1100.281	879.918
385.088	30.033	1099.379	878.323
386.102	30.093	1098.156	877.552
387.117	30.042	1097.625	876.810
388.132	29.956	1096.754	875.627
389.146	29.938	1096.421	875.201
390.161	29.912	1096.012	874.673
391.175	30.152	1095.180	875.063
392.190	29.817	1094.849	873.145
393.205	29.549	1095.331	872.186
394.219	29.907	1093.026	871.959
395.234	30.060	1091.521	871.401
396.248	30.020	1090.942	870.673
397.263	29.584	1091.552	869.030
398.278	29.874	1090.947	869.835
399.292	30.038	1088.842	868.849
400.307	29.593	1088.887	866.723
401.321	29.803	1087.345	866.401
402.336	29.556	1088.209	865.856
403.350	29.753	1086.827	865.602
404.365	29.948	1085.606	865.465
405.380	29.959	1084.818	864.812
406.394	29.789	1084.514	863.698
407.409	29.627	1083.732	862.242
408.423	29.379	1083.008	860.436
409.438	29.481	1082.683	860.575
410.453	29.702	1081.193	860.344
411.467	29.540	1079.756	858.370
412.482	29.492	1079.296	857.705
413.496	29.468	1079.354	857.567
414.511	29.783	1078.101	857.955
415.526	29.851	1076.772	857.137
416.540	29.645	1077.523	856.702
417.555	29.176	1077.241	854.228
418.569	29.418	1076.371	854.584
419.584	29.378	1076.209	854.195
420.599	29.147	1076.053	852.924
421.613	152.491	1405.740	1792.789
422.628	140.633	1453.750	1792.941
