DTS Sentinel unit serial number:	SN413079Multiplexer serial number:	ORYXHardware model number:	OX4-SRSoftware version number:	ORYX F/W v4.00 Oryx Data Collector v3.7.2.0data status	okinstallation	princeton_trtdifferential loss correction	single-endedforward channel	channel 2reverse channel	N/Adate	2019/09/13time	05:31:35forward acquisition time	60.00reverse acquisition time	0.00gamma	496.2192k internal	0.2337k external	0.2337temperature offset calibration	1.0192default loss term (dB/km)	0.3790temperature slope calibration	1.0000multiplexer offset coefficient	1.0000multiplexer slope coefficient	1.0000fibre end	0.00T internal ref (°C)	26.25T ext. ref 1 (°C)	4.05T ext. ref 2 (°C)	20.86length (m)	temperature (°C)	Stokes	anti-Stokes-747.200	-144.942	-0.273	-0.025
-746.185	-200.000	-0.019	-0.191
-745.171	-98.188	0.237	0.061
-744.156	262.884	-0.167	0.292
-743.142	-200.000	0.036	-0.228
-742.127	413.177	-0.150	0.320
-741.112	-92.137	-0.265	0.075
-740.098	-200.000	-0.033	0.157
-739.083	88.867	-0.065	0.072
-738.069	71.808	-0.258	0.270
-737.054	104.333	-0.112	0.132
-736.039	38.773	-0.088	-0.079
-735.025	108.515	0.233	0.280
-734.010	-101.586	0.092	0.022
-732.996	-27.514	0.170	0.099
-731.981	-122.295	-0.238	-0.039
-730.966	800.000	0.168	-0.593
-729.952	800.000	0.030	-0.085
-728.937	-200.000	-0.002	0.048
-727.923	231.578	-0.091	-0.150
-726.908	800.000	-0.027	0.112
-725.894	-107.140	-0.112	-0.025
-724.879	-83.340	-0.063	-0.020
-723.864	-72.555	-0.271	0.100
-722.850	159.181	0.201	0.280
-721.835	-62.980	-0.093	0.038
-720.821	100.108	-0.103	0.119
-719.806	-79.913	-0.216	-0.073
-718.791	91.099	0.191	-0.215
-717.777	330.157	0.204	-0.394
-716.762	-200.000	0.042	-0.364
-715.748	-98.543	0.044	-0.011
-714.733	-55.983	-0.342	0.153
-713.718	-137.246	-0.353	0.040
-712.704	227.486	-0.160	-0.260
-711.689	-200.000	-0.036	0.248
-710.675	-73.932	-0.307	0.112
-709.660	380.076	0.023	0.048
-708.645	-86.477	0.262	0.081
-707.631	-45.989	-0.217	0.107
-706.616	647.972	0.072	0.183
-705.602	10.810	0.077	0.059
-704.587	-101.709	0.079	-0.019
-703.572	112.730	-0.211	-0.256
-702.558	-28.966	0.081	-0.047
-701.543	-200.000	-0.017	-0.210
-700.529	76.625	-0.345	0.366
-699.514	-106.553	0.231	0.052
-698.499	800.000	-0.090	-0.324
-697.485	185.809	-0.073	0.109
-696.470	529.777	0.143	0.340
-695.456	143.321	-0.244	-0.326
-694.441	-37.203	0.402	-0.216
-693.426	379.439	-0.095	-0.195
-692.412	206.056	-0.072	-0.112
-691.397	-10.167	-0.362	-0.241
-690.383	17.831	0.240	-0.192
-689.368	151.014	-0.145	0.197
-688.354	148.022	-0.122	0.165
-687.339	800.000	-0.050	-0.159
-686.324	800.000	-0.068	-0.278
-685.310	-58.118	0.199	0.087
-684.295	-65.152	-0.373	-0.150
-683.281	-84.105	0.179	-0.057
-682.266	-92.998	0.303	0.085
-681.251	-102.917	-0.233	-0.056
-680.237	-109.144	0.105	-0.022
-679.222	-129.480	0.111	0.015
-678.208	201.943	-0.138	-0.213
-677.193	-48.949	-0.271	-0.130
-676.178	134.847	0.149	0.194
-675.164	-51.619	-0.168	0.078
-674.149	124.989	0.063	-0.080
-673.135	800.000	0.035	0.130
-672.120	-200.000	0.026	0.273
-671.105	800.000	0.028	0.087
-670.091	40.831	-0.081	-0.073
-669.076	-108.462	-0.192	0.041
-668.062	-200.000	-0.001	0.245
-667.047	-180.812	0.253	0.005
-666.032	-144.669	0.143	-0.013
-665.018	-54.712	-0.587	0.265
-664.003	109.924	-0.200	0.240
-662.989	78.020	-0.339	0.362
-661.974	-102.259	0.188	-0.045
-660.959	119.281	-0.076	-0.094
-659.945	-97.473	0.239	0.062
-658.930	46.395	-0.100	-0.093
-657.916	267.604	-0.123	0.215
-656.901	-200.000	-0.008	0.375
-655.886	298.363	-0.048	0.088
-654.872	-29.864	-0.316	-0.180
-653.857	-200.000	-0.070	-0.364
-652.843	-70.566	-0.132	0.050
-651.828	41.017	0.181	0.163
-650.814	-200.000	-0.027	-0.122
-649.799	-200.000	-0.012	-0.419
-648.784	389.692	0.024	0.049
-647.770	-71.785	-0.122	-0.045
-646.755	-72.782	0.262	0.096
-645.741	-8.480	0.092	-0.062
-644.726	408.759	0.170	-0.360
-643.711	-22.617	-0.185	0.112
-642.697	-70.517	-0.155	0.059
-641.682	800.000	-0.117	0.376
-640.668	713.009	0.077	0.205
-639.653	-200.000	0.023	0.276
-638.638	-90.278	-0.056	-0.016
-637.624	-73.938	0.261	0.095
-636.609	-39.812	-0.262	-0.137
-635.595	-129.665	-0.157	0.022
-634.580	-200.000	0.070	-0.376
-633.565	355.655	-0.024	0.048
-632.551	28.958	0.088	-0.075
-631.536	-61.354	0.255	-0.107
-630.522	-156.184	-0.176	0.011
-629.507	-200.000	-0.030	-0.160
-628.492	226.144	-0.169	-0.274
-627.478	-57.963	0.243	0.106
-626.463	-200.000	-0.005	0.097
-625.449	25.609	0.259	-0.215
-624.434	-34.920	-0.199	-0.109
-623.419	-46.888	-0.092	-0.045
-622.405	-34.811	0.227	0.124
-621.390	-65.523	-0.340	0.136
-620.376	-85.080	0.070	-0.022
-619.361	-154.649	0.478	0.032
-618.346	-26.862	-0.060	-0.035
-617.332	141.681	0.235	-0.311
-616.317	-121.520	0.029	-0.005
-615.303	-53.880	-0.258	-0.117
-614.288	-42.074	-0.096	0.049
-613.273	-137.069	0.165	-0.019
-612.259	-22.836	0.230	0.138
-611.244	-106.531	0.093	0.021
-610.230	503.434	0.048	-0.111
-609.215	24.775	0.347	0.287
-608.201	367.671	-0.065	-0.131
-607.186	246.423	0.105	-0.177
-606.171	753.896	0.065	0.174
-605.157	-168.067	0.048	-0.002
-604.142	-113.610	-0.346	0.067
-603.128	11.800	0.011	0.009
-602.113	-152.524	-0.283	-0.020
-601.098	-200.000	0.015	-0.238
-600.084	141.302	-0.091	-0.120
-599.069	-200.000	-0.004	-0.275
-598.055	-122.410	0.299	-0.049
-597.040	569.683	-0.095	-0.231
-596.025	63.463	0.183	0.183
-595.011	224.045	-0.124	-0.200
-593.996	-116.831	-0.142	-0.026
-592.982	-89.963	0.498	0.145
-591.967	-91.554	0.043	0.012
-590.952	-141.836	0.026	-0.003
-589.938	-74.543	-0.229	0.082
-588.923	-107.811	0.335	-0.073
-587.909	25.572	0.245	0.203
-586.894	9.487	0.147	0.111
-585.879	-37.867	-0.175	-0.093
-584.865	-200.000	0.014	0.213
-583.850	56.590	0.285	-0.277
-582.836	-200.000	-0.008	-0.403
-581.821	800.000	-0.058	0.189
-580.806	-200.000	0.031	-0.175
-579.792	-169.299	-0.112	0.004
-578.777	-200.000	0.025	-0.314
-577.763	39.493	0.430	0.384
-576.748	-11.322	-0.314	-0.206
-575.733	39.485	0.261	-0.234
-574.719	-109.385	-0.191	0.040
-573.704	75.004	-0.160	0.169
-572.690	-75.847	-0.132	-0.047
-571.675	76.516	0.165	-0.174
-570.661	610.229	0.192	-0.478
-569.646	-184.574	-0.273	0.004
-568.631	-200.000	0.036	-0.298
-567.617	13.376	0.062	-0.048
-566.602	78.356	-0.204	0.217
-565.588	14.330	-0.104	-0.081
-564.573	800.000	0.037	0.103
-563.558	-200.000	0.037	-0.199
-562.544	800.000	-0.103	0.437
-561.529	-18.043	-0.136	0.085
-560.515	460.056	0.027	0.061
-559.500	151.512	-0.089	0.120
-558.485	480.571	0.058	0.131
-557.471	485.129	-0.005	-0.012
-556.456	-158.863	0.064	-0.004
-555.442	500.939	0.099	-0.228
-554.427	800.000	-0.033	0.091
-553.412	100.220	0.197	-0.228
-552.398	-44.118	0.147	0.073
-551.383	108.501	0.173	-0.206
-550.369	-74.196	-0.005	0.002
-549.354	-144.123	0.113	-0.011
-548.339	-200.000	0.034	0.000
-547.325	22.473	-0.063	0.052
-546.310	-33.982	-0.287	0.157
-545.296	-200.000	-0.082	0.413
-544.281	-30.503	-0.126	0.071
-543.266	-9.411	-0.227	0.151
-542.252	-104.857	-0.195	0.045
-541.237	44.150	0.299	0.273
-540.223	-199.087	-0.183	-0.001
-539.208	-200.000	-0.010	-0.208
-538.193	-200.000	-0.007	0.139
-537.179	449.016	0.175	-0.385
-536.164	-71.310	0.244	-0.091
-535.150	5.901	-0.032	0.024
-534.135	18.804	-0.279	-0.223
-533.121	-4.943	-0.256	0.175
-532.106	381.598	0.065	0.133
-531.091	3.066	-0.141	-0.102
-530.077	317.006	-0.053	0.101
-529.062	-28.559	-0.247	0.142
-528.048	139.681	0.121	0.159
-527.033	57.616	0.141	-0.137
-526.018	131.304	-0.186	-0.238
-525.004	-200.000	-0.018	0.134
-523.989	-56.436	-0.262	-0.116
-522.975	45.193	-0.096	0.088
-521.960	-118.875	-0.246	-0.043
-520.945	39.118	0.145	0.129
-519.931	-200.000	0.028	-0.346
-518.916	-142.648	-0.266	-0.026
-517.902	-92.868	0.326	0.091
-516.887	50.552	-0.171	-0.161
-515.872	112.707	0.071	-0.086
-514.858	-161.181	0.357	0.018
-513.843	-110.231	0.115	0.024
-512.829	54.879	0.173	0.166
-511.814	-98.781	0.175	0.044
-510.799	800.000	0.050	0.160
-509.785	-77.318	-0.232	0.080
-508.770	800.000	0.089	-0.261
-507.756	-142.638	-0.100	-0.010
-506.741	-200.000	0.021	0.168
-505.726	-18.430	-0.100	-0.062
-504.712	-71.328	-0.180	0.067
-503.697	507.955	0.056	0.128
-502.683	62.712	0.037	0.036
-501.668	322.759	-0.153	0.290
-500.653	-51.796	-0.362	0.168
-499.639	-76.464	0.191	-0.067
-498.624	202.210	0.139	0.212
-497.610	596.404	0.115	-0.283
-496.595	-200.000	0.033	0.269
-495.581	57.880	0.230	0.224
-494.566	-200.000	0.045	0.203
-493.551	552.301	-0.131	0.314
-492.537	116.367	-0.088	0.107
-491.522	-63.447	-0.161	0.066
-490.508	-73.307	-0.301	-0.109
-489.493	-200.000	0.052	-0.239
-488.478	800.000	-0.042	0.140
-487.464	-200.000	-0.000	-0.037
-486.449	-200.000	0.027	-0.277
-485.435	223.769	-0.113	0.181
-484.420	221.398	0.089	0.143
-483.405	-55.296	0.128	0.057
-482.391	242.427	-0.167	-0.278
-481.376	112.560	0.167	-0.201
-480.362	-131.044	-0.448	-0.059
-479.347	0.964	-0.147	-0.105
-478.332	-137.663	-0.153	0.017
-477.318	-102.652	-0.254	-0.060
-476.303	611.922	-0.003	0.007
-475.289	-195.286	-0.332	-0.002
-474.274	140.977	-0.179	-0.235
-473.259	800.000	0.099	0.293
-472.245	20.635	-0.191	0.154
-471.230	-200.000	-0.022	-0.181
-470.216	-64.700	-0.015	0.006
-469.201	-200.000	0.035	-0.260
-468.186	-6.260	-0.182	-0.123
-467.172	-106.962	0.213	0.047
-466.157	-200.000	-0.016	-0.074
-465.143	800.000	0.046	0.148
-464.128	463.064	0.081	-0.181
-463.113	-192.533	0.299	-0.003
-462.099	-200.000	0.006	-0.036
-461.084	-130.123	-0.120	0.016
-460.070	-160.819	-0.315	-0.017
-459.055	800.000	0.040	0.117
-458.040	-114.418	-0.287	-0.055
-457.026	-28.436	0.017	0.010
-456.011	-200.000	0.003	0.109
-454.997	-200.000	0.017	0.173
-453.982	13.521	0.153	-0.118
-452.968	-16.494	0.127	0.080
-451.953	343.760	0.100	-0.194
-450.938	-91.935	-0.113	-0.032
-449.924	-53.509	0.261	0.119
-448.909	-154.690	0.134	-0.009
-447.895	156.684	-0.106	0.146
-446.880	-148.475	0.422	0.034
-445.865	-200.000	0.038	0.222
-444.851	800.000	0.075	0.224
-443.836	-55.919	-0.203	0.090
-442.822	17.923	0.088	0.070
-441.807	-56.748	0.114	-0.050
-440.792	147.427	-0.219	0.292
-439.778	800.000	0.026	0.107
-438.763	-200.000	0.048	0.249
-437.749	87.702	-0.060	0.065
-436.734	-170.402	0.246	-0.009
-435.719	-180.667	-0.309	-0.006
-434.705	-89.288	0.298	-0.087
-433.690	-84.422	0.335	-0.105
-432.676	184.745	-0.112	0.164
-431.661	-58.974	-0.213	0.091
-430.646	-171.095	-0.135	-0.005
-429.632	-45.966	0.100	0.049
-428.617	-161.961	0.170	0.009
-427.603	347.218	-0.010	0.020
-426.588	-200.000	-0.018	-0.158
-425.573	-113.601	0.160	0.031
-424.559	-62.300	0.203	0.084
-423.544	-98.540	0.096	0.024
-422.530	-137.422	-0.210	-0.024
-421.515	281.253	0.074	-0.132
-420.500	235.746	0.177	-0.289
-419.486	-140.104	-0.062	-0.006
-418.471	-200.000	0.007	-0.327
-417.457	368.198	-0.066	-0.131
-416.442	-196.588	-0.164	0.001
-415.428	26.989	0.092	-0.076
-414.413	158.411	-0.164	-0.226
-413.398	431.654	0.075	-0.161
-412.384	218.810	-0.089	0.141
-411.369	144.248	0.194	0.256
-410.355	44.063	0.079	0.072
-409.340	-200.000	0.026	0.120
-408.325	-200.000	0.061	0.310
-407.311	-200.000	-0.005	0.191
-406.296	-164.402	-0.143	-0.006
-405.282	345.397	-0.122	-0.238
-404.267	800.000	0.018	-0.057
-403.252	384.822	-0.133	-0.272
-402.238	-125.886	-0.088	-0.013
-401.223	-83.865	0.202	-0.064
-400.209	-117.814	-0.131	-0.023
-399.194	-139.596	-0.277	0.029
-398.179	259.195	0.115	0.196
-397.165	-200.000	-0.005	0.140
-396.150	-200.000	-0.005	0.047
-395.136	9.000	0.065	0.049
-394.121	-55.443	0.338	0.150
-393.106	-136.266	0.213	-0.025
-392.092	-114.689	0.418	0.079
-391.077	-22.858	0.333	0.199
-390.063	800.000	-0.087	0.306
-389.048	-110.400	0.316	0.065
-388.033	77.035	0.132	0.139
-387.019	-200.000	-0.059	-0.298
-386.004	-200.000	-0.048	-0.288
-384.990	-32.943	0.074	-0.041
-383.975	-162.831	-0.060	-0.003
-382.960	-102.384	0.446	-0.106
-381.946	665.636	0.116	0.295
-380.931	20.046	0.293	0.234
-379.917	-141.994	-0.229	-0.023
-378.902	-93.668	-0.104	0.028
-377.888	1.108	-0.112	-0.080
-376.873	800.000	-0.077	0.212
-375.858	-0.997	0.120	-0.084
-374.844	-122.458	-0.334	0.054
-373.829	-121.958	0.135	0.022
-372.815	181.164	0.158	-0.229
-371.800	-116.938	0.202	-0.037
-370.785	-200.000	0.013	0.205
-369.771	-146.517	-0.137	-0.012
-368.756	225.880	0.157	-0.251
-367.742	21.422	-0.250	0.201
-366.727	-64.741	0.048	0.019
-365.712	-84.034	0.118	-0.037
-364.698	92.385	0.250	0.278
-363.683	-160.209	0.218	-0.012
-362.669	-200.000	-0.018	-0.356
-361.654	-51.300	0.101	0.047
-360.639	-141.100	-0.368	0.037
-359.625	252.809	0.099	0.166
-358.610	12.354	-0.179	0.136
-357.596	-83.457	-0.064	-0.020
-356.581	117.347	0.106	0.128
-355.566	281.158	-0.176	0.311
-354.552	800.000	0.105	0.289
-353.537	-44.137	-0.375	-0.186
-352.523	542.200	-0.034	-0.081
-351.508	-84.421	-0.238	0.074
-350.493	-84.844	0.495	0.154
-349.479	-105.176	-0.124	-0.028
-348.464	-9.622	0.153	0.101
-347.450	-181.482	0.281	-0.005
-346.435	357.641	-0.102	0.201
-345.420	139.277	0.049	-0.064
-344.406	-200.000	-0.017	0.131
-343.391	102.731	0.078	0.090
-342.377	-7.071	-0.172	-0.116
-341.362	-132.044	-0.116	-0.015
-340.348	-143.864	-0.314	0.029
-339.333	215.842	-0.157	-0.246
-338.318	356.409	-0.188	0.371
-337.304	-177.053	0.147	-0.004
-336.289	-15.459	0.131	-0.082
-335.275	-104.698	-0.284	0.065
-334.260	120.364	0.074	0.090
-333.245	178.331	0.140	-0.201
-332.231	-65.655	-0.287	0.114
-331.216	-125.605	-0.263	-0.039
-330.202	529.914	-0.097	-0.226
-329.187	800.000	-0.036	0.117
-328.172	-166.264	-0.404	0.017
-327.158	800.000	-0.064	-0.250
-326.143	42.059	0.193	-0.173
-325.129	-87.534	0.329	-0.098
-324.114	-89.637	0.382	-0.111
-323.099	-41.315	-0.358	-0.182
-322.085	-6.936	-0.107	0.072
-321.070	-14.231	0.240	0.153
-320.056	648.862	0.055	0.140
-319.041	800.000	-0.031	-0.098
-318.026	-17.715	0.152	-0.095
-317.012	-7.514	-0.189	0.127
-315.997	19.209	0.028	-0.022
-314.983	-142.649	-0.097	0.009
-313.968	89.968	0.116	0.128
-312.953	-82.386	-0.049	0.016
-311.939	72.502	0.200	-0.206
-310.924	-39.776	0.353	0.182
-309.910	-44.752	0.391	0.192
-308.895	-5.309	-0.173	0.117
-307.880	-66.058	0.249	-0.098
-306.866	41.508	-0.124	0.111
-305.851	286.257	0.064	-0.114
-304.837	14.615	-0.148	0.114
-303.822	-145.597	-0.370	0.033
-302.807	180.107	-0.110	0.158
-301.793	177.016	0.102	-0.146
-300.778	127.317	0.023	0.029
-299.764	800.000	-0.025	-0.104
-298.749	507.985	-0.169	-0.387
-297.735	-59.986	0.236	-0.100
-296.720	-200.000	-0.087	-0.509
-295.705	116.886	-0.183	-0.222
-294.691	-200.000	0.047	-0.241
-293.676	-30.054	0.080	0.045
-292.662	407.147	0.102	0.212
-291.647	22.019	-0.233	-0.187
-290.632	103.690	-0.113	0.131
-289.618	-3.615	-0.184	-0.126
-288.603	60.299	-0.243	-0.237
-287.589	-187.164	0.106	0.001
-286.574	31.041	-0.153	-0.130
-285.559	-103.359	0.140	0.033
-284.545	-112.444	-0.203	-0.040
-283.530	318.608	-0.165	-0.309
-282.516	-96.336	0.196	-0.051
-281.501	74.197	0.112	0.116
-280.486	-110.157	0.278	0.057
-279.472	-46.281	0.474	0.230
-278.457	-87.452	-0.272	-0.081
-277.443	-105.250	0.020	-0.005
-276.428	-194.046	-0.171	0.001
-275.413	81.422	0.289	0.308
-274.399	800.000	-0.077	0.278
-273.384	-42.720	-0.455	-0.228
-272.370	-24.313	0.117	-0.069
-271.355	-200.000	0.018	-0.096
-270.340	88.299	0.117	0.128
-269.326	85.235	0.016	0.017
-268.311	-81.566	-0.056	-0.018
-267.297	800.000	0.086	-0.327
-266.282	-171.379	0.255	-0.008
-265.267	-27.279	-0.290	-0.166
-264.253	-200.000	-0.021	0.239
-263.238	-200.000	0.022	0.285
-262.224	-200.000	-0.001	-0.062
-261.209	-200.000	-0.022	0.140
-260.195	-49.279	-0.033	-0.016
-259.180	246.723	-0.037	-0.061
-258.165	-112.021	0.272	0.054
-257.151	-86.318	0.088	0.027
-256.136	800.000	0.065	-0.207
-255.122	-67.735	-0.222	0.086
-254.107	-46.429	-0.073	-0.036
-253.092	-200.000	0.024	0.151
-252.078	21.152	0.221	-0.176
-251.063	-42.095	0.231	-0.116
-250.049	6.167	-0.071	0.052
-249.034	-182.059	-0.322	-0.006
-248.019	-143.028	0.278	0.026
-247.005	-200.000	-0.030	0.211
-245.990	31.531	-0.258	-0.218
-244.976	-49.469	-0.232	-0.109
-243.961	-200.000	-0.032	0.192
-242.946	-119.873	-0.195	-0.033
-241.932	-200.000	-0.022	0.215
-240.917	-200.000	0.005	-0.113
-239.903	206.249	-0.084	0.129
-238.888	33.004	0.166	-0.141
-237.873	121.563	0.103	0.126
-236.859	-43.134	-0.013	-0.007
-235.844	-133.269	0.212	0.026
-234.830	800.000	0.031	0.117
-233.815	-40.466	-0.220	-0.112
-232.800	187.757	0.147	-0.216
-231.786	107.778	-0.026	0.030
-230.771	16.515	0.051	0.040
-229.757	22.677	-0.161	-0.130
-228.742	78.219	0.220	-0.231
-227.727	80.340	-0.025	0.026
-226.713	-108.990	0.106	-0.022
-225.698	239.290	0.068	0.111
-224.684	-200.000	0.047	0.404
-223.669	267.372	0.090	-0.155
-222.655	-93.204	0.254	0.069
-221.640	-91.388	0.157	-0.044
-220.625	-200.000	-0.045	-0.220
-219.611	79.584	-0.209	-0.220
-218.596	800.000	0.061	0.180
-217.582	63.940	0.105	0.104
-216.567	-157.585	-0.173	0.010
-215.552	122.243	0.120	-0.148
-214.538	432.463	0.088	-0.187
-213.523	15.847	0.250	0.194
-212.509	-147.138	-0.303	-0.025
-211.494	-157.489	0.230	-0.014
-210.479	-171.272	-0.069	-0.002
-209.465	-127.545	0.409	0.058
-208.450	-0.483	-0.169	-0.118
-207.436	4.150	-0.077	0.055
-206.421	800.000	0.057	-0.210
-205.406	-200.000	0.015	0.073
-204.392	-109.807	-0.158	0.033
-203.377	90.124	0.155	-0.170
-202.363	-169.188	-0.307	-0.011
-201.348	9.379	-0.242	0.180
-200.333	-129.417	0.057	0.008
-199.319	584.270	0.070	0.169
-198.304	-86.940	-0.067	-0.020
-197.290	-24.355	-0.207	-0.121
-196.275	-115.192	-0.321	0.060
-195.260	-53.938	-0.315	0.141
-194.246	-20.264	-0.386	0.233
-193.231	439.946	-0.037	0.079
-192.217	-200.000	-0.057	0.563
-191.202	642.983	0.071	-0.179
-190.187	-84.400	0.256	0.080
-189.173	56.187	-0.174	0.166
-188.158	-118.997	0.388	0.067
-187.144	-90.189	-0.355	-0.101
-186.129	800.000	-0.068	0.209
-185.114	3.999	0.188	0.135
-184.100	-200.000	0.026	0.241
-183.085	8.024	-0.205	0.151
-182.071	-28.615	0.027	0.016
-181.056	-41.467	-0.303	-0.153
-180.042	-1.820	-0.230	-0.159
-179.027	-47.772	0.167	-0.079
-178.012	-200.000	0.027	-0.159
-176.998	-14.815	-0.180	-0.114
-175.983	122.496	-0.184	-0.225
-174.969	-133.444	0.238	-0.029
-173.954	-70.384	0.088	-0.033
-172.939	17.704	0.395	0.308
-171.925	91.223	-0.125	0.137
-170.910	263.798	-0.178	-0.304
-169.896	62.151	0.295	-0.289
-168.881	-199.153	-0.349	0.002
-167.866	800.000	0.089	0.365
-166.852	-133.184	-0.074	-0.009
-165.837	800.000	-0.085	0.292
-164.823	-68.613	-0.167	0.063
-163.808	-128.617	0.379	-0.053
-162.793	22.758	-0.274	-0.220
-161.779	800.000	-0.094	-0.385
-160.764	-200.000	0.074	-0.336
-159.750	800.000	-0.078	0.241
-158.735	113.087	-0.249	0.296
-157.720	233.621	0.236	-0.381
-156.706	-161.718	-0.162	-0.008
-155.691	800.000	0.085	-0.268
-154.677	-200.000	0.011	0.065
-153.662	132.098	0.144	-0.182
-152.647	41.966	0.124	0.110
-151.633	-49.717	-0.230	-0.107
-150.618	-200.000	0.001	-0.296
-149.604	800.000	-0.084	-0.236
-148.589	-118.377	0.385	0.067
-147.574	-4.641	0.130	-0.088
-146.560	22.312	0.105	-0.084
-145.545	145.216	0.122	0.161
-144.531	13.537	0.048	-0.036
-143.516	-200.000	0.034	0.189
-142.502	800.000	0.066	0.256
-141.487	30.474	0.118	0.099
-140.472	87.938	0.278	0.302
-139.458	-88.703	0.060	-0.018
-138.443	21.301	0.062	-0.050
-137.429	-78.844	0.248	0.083
-136.414	-200.000	-0.000	0.026
-135.399	-174.687	-0.103	-0.003
-134.385	35.344	-0.092	0.079
-133.370	800.000	-0.104	0.288
-132.356	75.491	0.287	0.297
-131.341	-92.970	0.253	0.069
-130.326	-200.000	-0.026	-0.173
-129.312	113.854	0.139	0.165
-128.297	168.509	-0.245	0.342
-127.283	140.917	0.094	0.121
-126.268	-200.000	-0.007	-0.271
-125.253	-200.000	0.028	0.161
-124.239	-200.000	0.037	0.184
-123.224	67.693	0.219	0.219
-122.210	-51.655	0.486	0.222
-121.195	84.830	0.262	0.282
-120.180	-200.000	-0.021	-0.373
-119.166	-114.882	-0.078	-0.015
-118.151	97.767	-0.086	0.096
-117.137	-78.164	0.312	-0.105
-116.122	800.000	0.070	-0.266
-115.107	20.881	0.257	-0.204
-114.093	-200.000	0.058	0.000
-113.078	-74.624	-0.275	-0.097
-112.064	-83.790	0.219	-0.068
-111.049	305.147	-0.125	-0.228
-110.034	207.642	-0.116	-0.177
-109.020	-200.000	-0.006	0.102
-108.005	460.846	0.063	0.138
-106.991	126.340	0.165	0.204
-105.976	-59.157	0.309	-0.131
-104.962	-200.000	-0.006	-0.181
-103.947	28.351	-0.088	0.073
-102.932	0.645	-0.123	0.086
-101.918	-58.918	0.258	0.109
-100.903	-57.537	-0.244	-0.105
-99.889	61.743	0.106	0.103
-98.874	157.810	-0.109	-0.148
-97.859	-93.239	-0.150	-0.041
-96.845	-200.000	0.041	0.342
-95.830	-166.384	-0.157	-0.006
-94.816	163.440	0.197	0.272
-93.801	45.210	0.237	0.214
-92.786	114.632	-0.158	0.189
-91.772	-67.763	-0.246	-0.094
-90.757	-87.163	-0.246	0.073
-89.743	-0.125	0.293	0.204
-88.728	134.488	-0.024	-0.031
-87.713	40.894	0.110	-0.097
-86.699	464.141	0.133	-0.290
-85.684	184.055	0.117	-0.169
-84.670	-200.000	-0.016	0.226
-83.655	-31.088	0.328	-0.181
-82.640	48.842	-0.144	-0.132
-81.626	527.780	0.015	0.034
-80.611	70.401	0.343	-0.346
-79.597	-112.993	-0.342	-0.066
-78.582	229.724	-0.136	0.218
-77.567	581.332	0.149	0.358
-76.553	-113.585	0.339	-0.065
-75.538	665.538	-0.088	-0.223
-74.524	224.743	-0.019	0.029
-73.509	800.000	-0.026	0.070
-72.494	134.836	0.175	-0.222
-71.480	-200.000	0.023	0.207
-70.465	25.395	-0.077	0.063
-69.451	-78.882	0.056	0.019
-68.436	-200.000	0.025	0.255
-67.422	-18.037	0.068	0.042
-66.407	-153.652	0.268	0.018
-65.392	-3.980	0.124	-0.084
-64.378	-200.000	0.019	-0.208
-63.363	86.550	-0.078	0.084
-62.349	139.988	0.238	0.307
-61.334	124.679	-1.010	-1.243
-60.319	342.674	0.374	0.716
-59.305	800.000	-0.304	-1.079
-58.290	206.375	0.827	1.259
-57.276	631.422	0.590	1.459
-56.261	-200.000	116.939	644.461
-55.246	490.366	1549.659	3463.955
-54.232	173.223	2727.166	3841.428
-53.217	97.647	2292.646	2574.532
-52.203	35.265	1899.627	1627.251
-51.188	29.384	1693.553	1406.000
-50.173	26.963	1652.985	1354.230
-49.159	46.921	1711.581	1554.456
-48.144	45.612	1724.427	1556.126
-47.130	28.870	1681.345	1391.754
-46.115	26.269	1666.872	1360.170
-45.100	26.091	1662.453	1355.168
-44.086	26.126	1659.762	1353.182
-43.071	26.155	1656.751	1350.893
-42.057	26.079	1654.576	1348.503
-41.042	26.053	1652.893	1346.878
-40.027	26.138	1650.742	1345.709
-39.013	26.112	1648.903	1343.962
-37.998	26.033	1647.583	1342.245
-36.984	26.204	1645.515	1341.780
-35.969	26.180	1644.237	1340.506
-34.954	26.284	1642.903	1340.135
-33.940	26.244	1641.360	1338.529
-32.925	26.189	1640.048	1336.999
-31.911	26.317	1637.522	1335.832
-30.896	26.273	1635.642	1333.916
-29.881	26.183	1634.554	1332.313
-28.867	26.253	1632.899	1331.425
-27.852	26.223	1631.630	1330.121
-26.838	26.213	1629.933	1328.611
-25.823	26.233	1628.800	1327.777
-24.809	26.338	1627.257	1327.239
-23.794	26.305	1625.889	1325.831
-22.779	26.274	1624.886	1324.736
-21.765	26.333	1622.584	1323.234
-20.750	26.188	1621.673	1321.380
-19.736	26.253	1619.861	1320.327
-18.721	26.267	1618.444	1319.221
-17.706	26.294	1616.855	1318.068
-16.692	26.274	1614.922	1316.298
-15.677	26.290	1613.932	1315.551
-14.663	26.372	1612.694	1315.087
-13.648	26.272	1611.014	1312.937
-12.633	26.268	1609.721	1311.803
-11.619	26.306	1608.084	1310.694
-10.604	26.327	1606.539	1309.534
-9.590	26.353	1604.723	1308.188
-8.575	26.263	1604.002	1306.899
-7.560	26.251	1602.625	1305.637
-6.546	26.275	1602.187	1305.404
-5.531	26.301	1601.036	1304.606
-4.517	26.280	1599.222	1302.920
-3.502	26.338	1598.334	1302.566
-2.487	26.323	1596.752	1301.117
-1.473	25.922	1584.231	1287.998
-0.458	23.059	1565.227	1252.254
0.556	21.500	1566.778	1220.824
1.571	19.175	1590.734	1222.890
2.586	18.711	1603.140	1229.003
3.600	17.097	1548.840	1176.097
4.615	10.763	1442.768	1054.458
5.629	5.009	1383.641	975.248
6.644	3.968	1376.111	963.381
7.659	3.998	1375.025	962.718
8.673	4.097	1373.915	962.472
9.688	4.127	1372.082	961.288
10.702	4.022	1368.926	958.346
11.717	6.828	1373.860	979.123
12.731	14.141	1387.759	1034.578
13.746	20.891	1398.283	1084.491
14.761	22.692	1400.712	1097.500
15.775	22.213	1398.952	1093.047
16.790	21.253	1396.979	1085.443
17.804	20.527	1394.507	1078.925
18.819	20.174	1393.794	1076.084
19.834	20.262	1392.226	1075.322
20.848	20.158	1391.278	1073.855
21.863	19.943	1390.467	1071.800
22.877	19.941	1389.368	1070.848
23.892	19.776	1388.654	1069.180
24.907	19.762	1387.257	1067.926
25.921	19.861	1386.153	1067.592
26.936	19.720	1385.690	1066.270
27.950	19.879	1384.288	1066.078
28.965	19.911	1383.905	1065.885
29.980	20.143	1382.715	1066.297
30.994	20.192	1381.971	1065.934
32.009	20.157	1381.293	1065.099
33.023	20.178	1379.712	1063.916
34.038	20.145	1377.910	1062.229
35.053	20.041	1376.688	1060.556
36.067	19.933	1375.771	1059.096
37.082	19.912	1375.037	1058.308
38.096	20.025	1373.950	1058.072
39.111	20.041	1373.492	1057.719
40.126	19.987	1372.416	1056.468
41.140	19.725	1370.938	1053.643
42.155	19.490	1370.408	1051.710
43.169	19.429	1370.458	1051.284
44.184	19.380	1370.245	1050.727
45.199	19.546	1369.620	1051.169
46.213	19.606	1369.770	1051.551
47.228	19.923	1368.705	1052.571
48.242	19.890	1367.791	1051.575
49.257	19.811	1366.608	1050.090
50.271	19.961	1364.681	1049.429
51.286	19.860	1363.707	1047.972
52.301	19.879	1362.432	1047.017
53.315	19.653	1361.539	1044.875
54.330	19.516	1360.257	1042.967
55.344	19.524	1359.094	1042.034
56.359	19.498	1357.821	1040.809
57.374	19.494	1356.947	1040.020
58.388	19.374	1355.878	1038.387
59.403	19.414	1355.370	1038.148
60.417	19.305	1354.944	1037.075
61.432	19.293	1353.656	1035.921
62.447	19.180	1353.039	1034.680
63.461	19.088	1351.863	1033.137
64.476	19.078	1350.537	1031.971
65.490	19.124	1349.241	1031.168
66.505	19.276	1347.639	1030.762
67.520	19.139	1346.220	1028.765
68.534	19.173	1345.447	1028.287
69.549	19.101	1344.531	1027.065
70.563	18.993	1343.404	1025.472
71.578	18.941	1342.481	1024.366
72.593	18.966	1341.244	1023.479
73.607	18.895	1340.589	1022.468
74.622	18.978	1339.845	1022.301
75.636	19.031	1338.971	1021.860
76.651	19.082	1338.555	1021.757
77.666	19.176	1337.890	1021.715
78.680	19.195	1337.663	1021.561
79.695	19.277	1336.805	1021.302
80.709	19.517	1336.195	1022.170
81.724	19.546	1335.564	1021.766
82.739	19.548	1334.930	1021.205
83.753	19.797	1333.980	1021.859
84.768	19.954	1333.283	1022.161
85.782	19.986	1332.700	1021.813
86.797	20.120	1331.321	1021.451
87.812	19.864	1329.893	1018.763
88.826	19.980	1328.401	1018.208
89.841	19.913	1327.959	1017.387
90.855	20.059	1327.007	1017.422
91.870	20.124	1326.261	1017.146
92.884	20.128	1325.511	1016.502
93.899	20.168	1324.731	1016.049
94.914	20.257	1323.747	1015.723
95.928	20.184	1323.099	1014.710
96.943	20.144	1322.111	1013.627
97.957	19.950	1321.280	1011.771
98.972	19.960	1319.707	1010.532
99.987	20.063	1318.727	1010.297
101.001	20.007	1318.067	1009.372
102.016	20.039	1317.116	1008.742
103.030	20.132	1315.982	1008.325
104.045	19.970	1315.381	1006.833
105.060	19.843	1313.546	1004.602
106.074	19.581	1311.928	1001.754
107.089	19.246	1310.498	998.633
108.103	19.284	1308.709	997.403
109.118	19.242	1307.472	996.132
110.133	19.100	1306.424	994.423
111.147	19.236	1305.435	994.365
112.162	19.279	1304.326	993.685
113.176	19.395	1302.752	993.063
114.191	19.437	1301.964	992.619
115.206	19.415	1301.168	991.793
116.220	19.411	1299.809	990.647
117.235	19.350	1298.816	989.453
118.249	19.344	1297.435	988.280
119.264	19.194	1296.584	986.684
120.279	19.195	1295.516	985.792
121.293	19.038	1294.247	983.840
122.308	18.930	1293.315	982.427
123.322	18.909	1292.032	981.244
124.337	18.918	1290.742	980.231
125.352	18.863	1289.736	979.070
126.366	18.895	1288.668	978.354
127.381	18.962	1287.253	977.570
128.395	18.861	1286.697	976.491
129.410	18.951	1285.754	976.200
130.424	18.942	1285.147	975.597
131.439	19.120	1284.910	976.342
132.454	19.220	1283.500	975.752
133.468	19.290	1283.075	975.739
134.483	19.363	1281.972	975.225
135.497	19.358	1281.210	974.531
136.512	19.400	1279.714	973.547
137.527	19.395	1278.795	972.732
138.541	19.428	1277.214	971.632
139.556	19.599	1276.154	971.696
140.570	19.638	1274.910	970.887
141.585	19.657	1274.334	970.467
142.600	19.852	1273.090	970.528
143.614	19.918	1272.967	970.720
144.629	20.020	1271.398	970.009
145.643	20.039	1270.123	969.054
146.658	19.766	1269.574	967.025
147.673	19.651	1267.191	964.479
148.687	19.508	1266.499	963.074
149.702	19.383	1264.889	961.063
150.716	19.362	1263.066	959.478
151.731	19.482	1261.764	959.072
152.746	19.334	1261.417	957.899
153.760	19.497	1259.942	957.598
154.775	19.597	1258.998	957.352
155.789	19.677	1257.906	956.879
156.804	19.722	1257.530	956.760
157.819	19.757	1256.685	956.226
158.833	19.926	1255.425	956.117
159.848	20.125	1255.023	956.821
160.862	20.008	1254.156	955.432
161.877	19.708	1252.535	952.460
162.892	19.395	1250.886	949.400
163.906	19.443	1249.674	948.660
164.921	19.332	1249.404	947.759
165.935	19.418	1248.556	947.502
166.950	19.550	1247.610	947.428
167.964	19.639	1246.756	947.182
168.979	19.413	1246.258	945.484
169.994	19.559	1245.162	945.367
171.008	19.490	1244.695	944.552
172.023	19.734	1243.912	945.210
173.037	19.799	1243.623	945.261
174.052	19.911	1241.989	944.543
175.067	19.564	1240.847	941.702
176.081	19.360	1239.964	939.836
177.096	19.343	1239.020	938.944
178.110	19.377	1237.786	938.111
179.125	19.459	1236.737	937.680
180.140	19.727	1235.358	938.003
181.154	19.795	1234.956	937.984
182.169	19.928	1233.696	937.664
183.183	19.893	1232.956	936.832
184.198	19.970	1231.574	936.117
185.213	19.982	1230.254	935.091
186.227	20.013	1229.624	934.701
187.242	20.160	1228.444	934.512
188.256	20.168	1227.879	934.044
189.271	20.095	1227.084	932.965
190.286	19.983	1225.203	930.846
191.300	19.479	1224.268	927.347
192.315	19.335	1223.382	925.822
193.329	19.443	1223.443	926.363
194.344	19.516	1222.765	926.164
195.359	19.662	1221.840	926.160
196.373	19.671	1221.610	925.951
197.388	19.881	1221.102	926.610
198.402	20.059	1221.385	927.694
199.417	20.253	1220.574	928.036
200.432	20.525	1219.848	928.858
201.446	20.564	1219.188	928.479
202.461	20.501	1218.713	927.702
203.475	20.555	1217.693	927.128
204.490	20.157	1216.556	924.062
205.504	20.031	1214.710	921.906
206.519	20.067	1213.001	920.718
207.534	19.862	1212.510	919.175
208.548	19.911	1211.540	918.619
209.563	19.993	1210.737	918.362
210.577	20.073	1209.745	917.951
211.592	20.068	1209.439	917.614
212.607	20.260	1208.749	918.028
213.621	20.315	1207.698	917.434
214.636	20.247	1206.676	916.219
215.650	20.312	1205.466	915.565
216.665	20.333	1205.068	915.289
217.680	20.514	1203.892	915.271
218.694	20.587	1203.445	915.231
219.709	20.375	1202.831	913.569
220.723	20.383	1201.916	912.839
221.738	20.369	1201.262	912.182
222.753	20.524	1199.827	911.830
223.767	20.415	1199.720	911.096
224.782	20.473	1199.327	911.019
225.796	20.652	1198.381	911.159
226.811	20.591	1198.046	910.501
227.826	20.393	1197.250	908.779
228.840	20.354	1195.976	907.528
229.855	20.336	1195.127	906.712
230.869	20.367	1194.610	906.400
231.884	20.202	1193.323	904.485
232.899	20.187	1192.320	903.565
233.913	19.964	1191.923	902.021
234.928	20.011	1191.066	901.537
235.942	19.998	1190.365	900.861
236.957	19.986	1189.240	899.868
237.972	20.047	1188.393	899.463
238.986	19.935	1187.940	898.459
240.001	20.096	1187.351	898.768
241.015	19.975	1186.540	897.451
242.030	20.224	1185.549	897.912
243.045	20.324	1184.896	897.852
244.059	20.369	1184.118	897.419
245.074	20.382	1183.538	896.963
246.088	20.487	1182.967	896.996
247.103	20.601	1182.029	896.790
248.117	20.730	1181.332	896.848
249.132	20.865	1181.115	897.297
250.147	21.217	1180.566	898.613
251.161	21.176	1180.493	898.268
252.176	21.217	1179.548	897.683
253.190	21.359	1178.965	897.888
254.205	21.422	1178.761	897.976
255.220	21.397	1178.606	897.652
256.234	21.370	1177.298	896.437
257.249	21.266	1176.604	895.298
258.263	21.363	1175.639	894.978
259.278	21.312	1175.041	894.185
260.293	21.339	1174.895	894.133
261.307	21.452	1174.259	894.146
262.322	21.548	1173.247	893.785
263.336	21.567	1172.816	893.475
264.351	21.594	1172.305	893.145
265.366	21.456	1171.713	891.911
266.380	21.619	1170.634	891.840
267.395	21.384	1169.924	890.023
268.409	21.254	1169.106	888.665
269.424	21.295	1167.862	887.850
270.439	21.294	1167.826	887.739
271.453	21.176	1166.600	886.126
272.468	21.069	1165.370	884.574
273.482	21.001	1164.822	883.734
274.497	21.083	1164.153	883.565
275.512	21.095	1163.964	883.399
276.526	21.003	1162.878	882.036
277.541	21.035	1162.132	881.551
278.555	21.166	1161.571	881.708
279.570	21.333	1161.347	882.306
280.585	21.379	1160.831	882.069
281.599	21.511	1159.923	881.964
282.614	21.305	1158.342	879.647
283.628	21.293	1156.868	878.390
284.643	21.176	1156.092	877.135
285.657	21.166	1155.646	876.668
286.672	21.212	1154.618	876.043
287.687	21.166	1153.904	875.192
288.701	21.228	1152.922	874.683
289.716	21.210	1152.070	873.865
290.730	21.209	1151.643	873.462
291.745	21.281	1150.772	873.083
292.760	21.299	1150.532	872.911
293.774	21.364	1150.224	872.927
294.789	21.667	1149.113	873.519
295.803	21.586	1148.634	872.671
296.818	21.260	1147.828	870.359
297.833	21.221	1146.714	869.242
298.847	21.334	1145.824	869.052
299.862	21.432	1144.780	868.672
300.876	21.464	1144.266	868.361
301.891	21.531	1144.070	868.470
302.906	21.596	1143.886	868.575
303.920	21.899	1142.843	869.208
304.935	21.864	1142.653	868.816
305.949	21.982	1142.070	868.880
306.964	21.869	1141.560	867.855
307.979	21.703	1140.293	865.996
308.993	21.607	1139.668	864.971
310.008	21.785	1139.195	865.411
311.022	21.920	1138.371	865.373
312.037	21.848	1137.224	864.073
313.052	21.643	1135.989	862.049
314.066	21.438	1135.058	860.257
315.081	21.304	1133.845	858.603
316.095	21.225	1133.246	857.685
317.110	21.325	1132.698	857.687
318.125	21.324	1131.896	856.999
319.139	21.217	1131.342	855.976
320.154	21.278	1130.360	855.458
321.168	21.314	1129.857	855.178
322.183	21.390	1129.361	855.101
323.197	21.428	1128.739	854.739
324.212	21.399	1128.529	854.361
325.227	21.494	1127.454	853.937
326.241	21.527	1127.026	853.698
327.256	21.440	1126.013	852.430
328.270	21.389	1125.040	851.369
329.285	21.396	1124.200	850.692
330.300	21.347	1123.530	849.874
331.314	21.413	1122.337	849.216
332.329	21.393	1121.394	848.329
333.343	21.591	1120.613	848.624
334.358	21.669	1119.729	848.255
335.373	21.722	1119.577	848.321
336.387	21.758	1118.800	847.835
337.402	21.682	1118.463	847.134
338.416	21.839	1117.577	847.149
339.431	21.839	1117.169	846.764
340.446	22.102	1116.720	847.617
341.460	22.251	1115.778	847.544
342.475	22.253	1115.307	847.123
343.489	22.196	1114.318	846.024
344.504	22.430	1113.520	846.465
345.519	22.392	1112.838	845.691
346.533	22.493	1111.489	845.073
347.548	22.628	1110.728	845.070
348.562	22.386	1110.240	843.462
349.577	22.135	1109.110	841.328
350.592	22.003	1107.978	839.766
351.606	21.812	1107.077	838.095
352.621	21.698	1106.222	836.828
353.635	21.797	1105.719	836.847
354.650	21.830	1104.821	836.249
355.665	21.848	1104.439	835.971
356.679	21.989	1103.989	836.228
357.694	22.080	1103.020	835.856
358.708	22.195	1102.431	835.880
359.723	22.146	1102.094	835.321
360.738	22.094	1100.939	834.123
361.752	22.227	1100.781	834.562
362.767	22.172	1100.488	834.003
363.781	22.229	1100.107	833.914
364.796	22.170	1099.820	833.338
365.810	22.463	1099.367	834.313
366.825	22.616	1098.664	834.430
367.840	22.798	1097.909	834.643
368.854	22.890	1097.664	834.814
369.869	22.789	1096.642	833.488
370.883	22.673	1095.704	832.153
371.898	22.521	1095.069	830.882
372.913	22.506	1094.387	830.222
373.927	22.580	1093.966	830.178
374.942	22.652	1094.070	830.521
375.956	22.577	1092.787	829.121
376.971	22.577	1092.089	828.519
377.986	22.667	1092.037	828.829
379.000	22.867	1091.184	829.046
380.015	22.908	1090.577	828.705
381.029	22.939	1089.918	828.278
382.044	23.097	1089.530	828.648
383.059	23.002	1088.414	827.281
384.073	22.804	1088.387	826.258
385.088	22.877	1087.458	825.825
386.102	22.870	1086.064	824.660
387.117	22.717	1084.749	822.875
388.132	22.501	1083.832	821.097
389.146	22.465	1082.932	820.175
390.161	22.350	1082.352	819.128
391.175	22.478	1081.772	819.212
392.190	22.443	1081.448	818.733
393.205	22.807	1080.439	819.586
394.219	22.785	1079.859	818.971
395.234	22.713	1078.555	817.578
396.248	22.655	1077.386	816.351
397.263	22.532	1076.221	814.826
398.278	22.406	1075.844	813.887
399.292	22.353	1074.886	812.844
400.307	22.243	1074.225	811.764
401.321	22.347	1073.520	811.642
402.336	22.257	1072.660	810.503
403.350	22.326	1071.988	810.241
404.365	22.479	1071.039	810.155
405.380	22.442	1070.952	809.849
406.394	22.610	1069.903	809.757
407.409	22.714	1069.767	810.057
408.423	22.860	1069.081	810.136
409.438	23.134	1067.898	810.426
410.453	23.108	1067.591	810.000
411.467	23.115	1067.407	809.820
412.482	23.190	1066.408	809.336
413.496	23.334	1065.741	809.417
414.511	23.332	1065.763	809.352
415.526	23.440	1065.575	809.633
416.540	23.436	1064.983	809.091
417.555	23.351	1064.133	807.984
418.569	23.341	1063.268	807.213
419.584	23.304	1062.994	806.765
420.599	23.240	1062.778	806.236
421.613	157.542	1405.138	1796.515
422.628	144.942	1454.973	1796.591
