DTS Sentinel unit serial number:	SN413079Multiplexer serial number:	ORYXHardware model number:	OX4-SRSoftware version number:	ORYX F/W v4.00 Oryx Data Collector v3.7.2.0data status	okinstallation	princeton_trtdifferential loss correction	single-endedforward channel	channel 2reverse channel	N/Adate	2019/09/17time	17:03:34forward acquisition time	60.00reverse acquisition time	0.00gamma	496.2192k internal	0.2291k external	0.2291temperature offset calibration	0.9983default loss term (dB/km)	0.3790temperature slope calibration	1.0000multiplexer offset coefficient	1.0000multiplexer slope coefficient	1.0000fibre end	0.00T internal ref (°C)	42.62T ext. ref 1 (°C)	0.34T ext. ref 2 (°C)	39.12length (m)	temperature (°C)	Stokes	anti-Stokes-747.200	66.382	0.099	-0.103
-746.185	800.000	-0.011	0.036
-745.171	123.587	0.037	0.048
-744.156	-200.000	0.041	0.249
-743.142	456.575	0.068	-0.155
-742.127	34.715	0.239	0.214
-741.112	-200.000	-0.005	-0.126
-740.098	529.226	0.204	0.492
-739.083	-200.000	-0.013	0.241
-738.069	288.095	-0.067	0.125
-737.054	-200.000	-0.020	-0.146
-736.039	-200.000	-0.034	-0.203
-735.025	221.475	-0.230	-0.378
-734.010	204.004	-0.333	-0.529
-732.996	-200.000	-0.106	-0.490
-731.981	-6.883	0.299	-0.208
-730.966	59.110	0.111	0.111
-729.952	-200.000	0.001	-0.402
-728.937	-127.933	-0.309	-0.045
-727.923	-72.838	-0.152	-0.057
-726.908	800.000	0.053	0.188
-725.894	800.000	0.026	-0.089
-724.879	-135.203	-0.137	0.017
-723.864	-116.172	0.076	-0.014
-722.850	-200.000	0.014	-0.288
-721.835	397.810	-0.046	-0.099
-720.821	84.574	-0.346	0.387
-719.806	-200.000	0.005	0.056
-718.791	800.000	-0.049	-0.150
-717.777	800.000	-0.062	0.238
-716.762	390.322	0.055	0.117
-715.748	25.080	-0.292	-0.248
-714.733	800.000	-0.143	0.457
-713.718	-200.000	-0.034	-0.178
-712.704	800.000	0.084	-0.306
-711.689	47.659	0.353	0.337
-710.675	800.000	-0.049	-0.171
-709.660	160.621	0.024	-0.034
-708.645	435.797	0.051	0.113
-707.631	-85.143	0.248	-0.079
-706.616	-116.173	0.366	-0.069
-705.602	50.328	-0.134	-0.130
-704.587	-22.324	-0.149	-0.092
-703.572	-13.091	0.260	0.173
-702.558	-104.738	0.292	0.069
-701.543	-62.283	-0.170	-0.072
-700.529	-68.729	-0.114	0.045
-699.514	-104.069	0.225	-0.053
-698.499	-3.666	0.314	-0.223
-697.485	-52.113	0.147	-0.070
-696.470	-86.865	-0.291	-0.091
-695.456	-155.259	-0.262	-0.017
-694.441	256.010	-0.053	-0.093
-693.426	111.322	0.047	0.058
-692.412	-62.927	-0.131	-0.055
-691.397	-102.433	0.055	0.013
-690.383	-50.389	-0.075	0.036
-689.368	800.000	0.038	0.124
-688.354	121.413	-0.121	-0.154
-687.339	-71.923	-0.096	-0.036
-686.324	-81.026	-0.158	0.054
-685.310	145.617	-0.077	-0.106
-684.295	-59.762	0.134	-0.058
-683.281	-123.869	-0.398	-0.064
-682.266	75.254	0.308	-0.332
-681.251	-200.000	0.010	0.000
-680.237	-117.357	-0.183	-0.034
-679.222	136.435	0.189	-0.252
-678.208	-200.000	0.000	0.153
-677.193	86.986	0.136	-0.153
-676.178	-200.000	0.021	0.173
-675.164	-34.093	0.155	-0.087
-674.149	-44.702	-0.227	0.116
-673.135	145.422	-0.179	-0.244
-672.120	-67.333	-0.028	0.011
-671.105	-59.357	0.086	-0.038
-670.091	-200.000	0.001	-0.019
-669.076	-160.593	-0.331	-0.018
-668.062	-200.000	0.034	-0.260
-667.047	49.587	0.134	0.129
-666.032	290.694	-0.045	-0.083
-665.018	338.394	0.133	-0.265
-664.003	-200.000	0.012	-0.207
-662.989	556.660	0.080	0.198
-661.974	745.837	0.060	-0.166
-660.959	-98.048	-0.125	-0.033
-659.945	-111.290	0.435	0.091
-658.930	-200.000	-0.032	0.253
-657.916	16.697	0.021	-0.017
-656.901	-103.043	0.263	-0.064
-655.886	-52.015	0.220	-0.104
-654.872	-200.000	0.014	0.145
-653.857	62.825	-0.258	0.264
-652.843	-200.000	0.017	0.085
-651.828	-200.000	-0.009	-0.305
-650.814	-81.950	0.141	0.047
-649.799	14.132	0.292	-0.232
-648.784	800.000	-0.038	0.110
-647.770	-200.000	0.037	0.281
-646.755	800.000	0.073	-0.227
-645.741	-200.000	-0.064	-0.436
-644.726	-200.000	0.021	0.207
-643.711	229.260	-0.154	0.256
-642.697	-31.813	0.159	-0.091
-641.682	-16.086	0.211	0.137
-640.668	-164.837	-0.169	0.008
-639.653	-200.000	0.008	-0.050
-638.638	54.823	-0.007	0.007
-637.624	713.752	0.035	-0.096
-636.609	-67.210	0.159	-0.064
-635.595	311.202	-0.135	-0.258
-634.580	267.126	-0.166	0.295
-633.565	-200.000	0.003	-0.337
-632.551	800.000	0.019	-0.056
-631.536	-17.028	-0.107	-0.069
-630.522	-200.000	0.003	-0.368
-629.507	-128.906	0.136	0.020
-628.492	87.672	0.192	-0.217
-627.478	507.183	-0.088	-0.208
-626.463	109.279	0.148	0.180
-625.449	-200.000	-0.057	0.287
-624.434	800.000	-0.083	-0.280
-623.419	-200.000	0.018	0.205
-622.405	592.774	0.052	0.131
-621.390	-200.000	-0.021	-0.110
-620.376	656.697	0.089	0.234
-619.361	-200.000	0.021	-0.269
-618.346	-129.096	-0.082	-0.012
-617.332	-127.158	-0.216	0.032
-616.317	-118.722	-0.095	0.017
-615.303	209.089	0.123	0.196
-614.288	14.284	-0.265	0.211
-613.273	800.000	0.058	-0.208
-612.259	5.976	-0.194	0.147
-611.244	265.210	-0.074	0.132
-610.230	-96.269	-0.102	0.028
-609.215	-85.727	-0.299	-0.095
-608.201	800.000	0.138	-0.558
-607.186	-200.000	0.032	-0.413
-606.171	-179.081	0.491	-0.011
-605.157	28.885	0.174	-0.151
-604.142	110.169	-0.129	0.158
-603.128	-173.327	-0.217	-0.007
-602.113	177.720	-0.183	-0.272
-601.098	-129.220	0.391	-0.056
-600.084	25.971	-0.247	0.210
-599.069	-89.532	0.193	0.058
-598.055	-9.570	-0.218	0.148
-597.040	37.282	-0.313	-0.283
-596.025	45.143	0.199	0.187
-595.011	92.888	0.272	-0.313
-593.996	88.928	-0.098	0.111
-592.982	800.000	0.046	0.148
-591.967	-200.000	-0.011	-0.326
-590.952	800.000	0.041	-0.177
-589.938	122.452	0.143	-0.182
-588.923	-200.000	-0.071	0.361
-587.909	14.478	-0.156	0.124
-586.894	-200.000	-0.026	-0.175
-585.879	118.653	0.149	-0.187
-584.865	180.261	0.143	-0.213
-583.850	-123.641	0.145	-0.023
-582.836	-106.145	0.155	-0.035
-581.821	-37.889	0.345	-0.187
-580.806	189.723	-0.103	0.157
-579.792	-82.590	0.070	-0.023
-578.777	303.476	0.041	-0.078
-577.763	83.304	-0.196	0.218
-576.748	-67.766	-0.211	-0.084
-575.733	-200.000	0.014	0.096
-574.719	-4.590	-0.127	-0.089
-573.704	-124.639	0.325	-0.051
-572.690	321.065	-0.092	0.179
-571.675	192.287	0.122	-0.187
-570.661	126.382	0.189	0.243
-569.646	206.801	0.086	0.136
-568.631	-200.000	-0.024	-0.209
-567.617	-37.644	0.098	-0.053
-566.602	291.491	-0.060	0.111
-565.588	213.163	-0.135	-0.216
-564.573	-171.107	0.363	-0.013
-563.558	520.977	0.007	-0.016
-562.544	-92.376	-0.244	0.070
-561.529	-88.250	-0.048	0.015
-560.515	-117.693	-0.164	0.030
-559.500	800.000	0.067	0.200
-558.485	2.038	0.140	-0.103
-557.471	-143.193	-0.230	-0.022
-556.456	37.904	0.050	0.045
-555.442	224.616	-0.205	-0.336
-554.427	494.623	0.072	0.167
-553.412	-114.490	0.244	0.048
-552.398	-128.411	-0.125	0.018
-551.383	461.355	-0.070	0.158
-550.369	172.103	-0.061	-0.089
-549.354	67.216	0.274	0.284
-548.339	119.932	-0.202	-0.254
-547.325	-102.890	0.141	-0.034
-546.310	427.583	0.061	-0.135
-545.296	-123.604	-0.203	0.033
-544.281	66.602	0.104	0.107
-543.266	-6.822	0.228	-0.158
-542.252	-200.000	0.000	-0.080
-541.237	27.136	-0.176	0.150
-540.223	112.982	-0.161	0.198
-539.208	123.635	-0.021	0.027
-538.193	146.522	-0.193	0.263
-537.179	-110.471	-0.266	0.056
-536.164	350.443	-0.100	0.201
-535.150	95.900	-0.170	0.197
-534.135	-80.626	-0.084	-0.028
-533.121	355.261	-0.076	-0.153
-532.106	240.876	0.199	-0.338
-531.091	242.719	-0.199	-0.339
-530.077	132.755	0.182	0.238
-529.062	132.008	-0.171	0.224
-528.048	-90.386	0.156	0.046
-527.033	-20.879	-0.207	-0.129
-526.018	-129.219	0.245	0.035
-525.004	538.061	-0.110	0.266
-523.989	-200.000	-0.007	-0.271
-522.975	513.510	-0.135	-0.319
-521.960	588.644	0.037	0.092
-520.945	-78.061	-0.322	-0.112
-519.931	-163.311	0.200	0.010
-518.916	-48.701	0.092	0.045
-517.902	-200.000	-0.031	-0.351
-516.887	-29.467	-0.328	-0.190
-515.872	-133.615	0.189	0.024
-514.858	-33.506	0.232	0.130
-513.843	-80.038	0.480	-0.163
-512.829	60.409	0.106	0.107
-511.814	-1.747	-0.075	-0.053
-510.799	236.078	0.098	-0.165
-509.785	-39.710	0.092	0.049
-508.770	-200.000	0.103	-0.562
-507.756	-48.978	-0.065	-0.031
-506.741	266.805	-0.075	0.133
-505.726	800.000	-0.095	-0.382
-504.712	-69.080	0.211	-0.082
-503.697	-26.044	-0.138	-0.083
-502.683	-83.673	-0.079	-0.026
-501.668	-136.805	0.101	0.012
-500.653	177.186	-0.073	-0.108
-499.639	-73.829	-0.173	-0.064
-498.624	-94.174	0.261	-0.072
-497.610	-155.838	-0.290	0.019
-496.595	13.003	-0.158	0.124
-495.581	108.104	0.108	-0.130
-494.566	707.774	0.039	-0.103
-493.551	390.515	0.143	-0.300
-492.537	-200.000	0.030	-0.169
-491.522	695.147	-0.062	-0.165
-490.508	-127.871	0.167	-0.024
-489.493	-43.141	-0.080	-0.041
-488.478	-200.000	0.033	-0.186
-487.464	-200.000	0.027	-0.161
-486.449	-200.000	0.036	0.232
-485.435	126.459	-0.203	-0.261
-484.420	246.520	0.125	-0.214
-483.405	-113.935	0.008	0.002
-482.391	-16.309	0.290	-0.186
-481.376	-147.201	-0.149	0.013
-480.362	35.225	-0.185	-0.165
-479.347	-200.000	0.004	0.423
-478.332	175.682	0.239	0.352
-477.318	-117.959	-0.162	-0.029
-476.303	-74.083	0.210	0.077
-475.289	800.000	0.032	0.094
-474.274	166.617	-0.065	-0.094
-473.259	31.691	-0.103	0.090
-472.245	318.715	0.083	0.159
-471.230	-200.000	-0.012	0.198
-470.216	-46.858	0.220	0.109
-469.201	-66.200	0.101	-0.041
-468.186	800.000	-0.108	-0.409
-467.172	-183.682	-0.140	-0.002
-466.157	-30.987	-0.136	-0.078
-465.143	123.138	-0.187	-0.237
-464.128	32.337	-0.237	0.208
-463.113	-152.390	0.087	0.006
-462.099	743.905	0.021	0.058
-461.084	-200.000	-0.055	-0.252
-460.070	200.096	-0.108	-0.167
-459.055	-143.017	-0.084	-0.008
-458.040	-55.958	0.222	-0.100
-457.026	-52.100	-0.244	-0.115
-456.011	369.025	0.090	-0.184
-454.997	-7.962	-0.091	0.062
-453.982	238.343	-0.039	-0.065
-452.968	2.659	0.095	-0.070
-451.953	530.966	-0.047	-0.111
-450.938	-8.617	-0.155	0.105
-449.924	166.330	0.131	-0.187
-448.909	-148.067	0.169	0.014
-447.895	-16.978	-0.293	0.188
-446.880	151.263	-0.180	-0.248
-445.865	-63.961	0.253	0.105
-444.851	187.630	0.090	-0.136
-443.836	-182.802	-0.149	0.003
-442.822	800.000	-0.122	0.525
-441.807	-200.000	0.017	0.227
-440.792	174.556	-0.050	0.073
-439.778	27.441	0.179	-0.153
-438.763	-200.000	0.003	-0.048
-437.749	-200.000	-0.026	0.236
-436.734	195.566	-0.079	0.121
-435.719	288.107	-0.102	-0.186
-434.705	800.000	0.098	-0.382
-433.690	-59.878	0.114	-0.049
-432.676	-12.061	0.267	0.177
-431.661	800.000	0.087	0.268
-430.646	63.956	-0.110	0.112
-429.632	5.379	-0.059	0.044
-428.617	-200.000	0.009	-0.148
-427.603	800.000	-0.140	-0.516
-426.588	-111.099	-0.144	-0.030
-425.573	4.880	0.220	-0.163
-424.559	34.057	-0.123	-0.108
-423.544	-120.055	-0.284	0.049
-422.530	800.000	0.054	-0.219
-421.515	-31.258	0.288	0.164
-420.500	-16.197	0.156	0.100
-419.486	800.000	0.149	0.446
-418.471	231.783	0.172	0.286
-417.457	130.411	-0.098	0.128
-416.442	46.250	-0.328	0.307
-415.428	-31.828	0.406	0.230
-414.413	192.830	-0.105	0.160
-413.398	-35.132	0.173	-0.095
-412.384	800.000	-0.011	0.035
-411.369	-17.097	0.086	-0.055
-410.355	3.180	0.139	-0.102
-409.340	737.477	-0.088	0.239
-408.325	-62.940	-0.064	-0.027
-407.311	800.000	-0.098	-0.319
-406.296	-121.761	-0.209	0.035
-405.282	-147.723	-0.174	0.015
-404.267	-111.006	-0.095	0.020
-403.252	-1.912	0.127	-0.090
-402.238	-200.000	0.026	-0.162
-401.223	184.334	0.074	0.111
-400.209	-200.000	-0.007	0.181
-399.194	800.000	0.016	0.047
-398.179	-16.808	-0.078	0.050
-397.165	800.000	0.061	0.201
-396.150	-47.780	-0.140	0.069
-395.136	-79.103	0.231	0.079
-394.121	800.000	-0.073	-0.289
-393.106	-39.950	-0.061	-0.032
-392.092	16.210	0.065	0.051
-391.077	800.000	0.035	-0.099
-390.063	86.441	-0.130	-0.145
-389.048	34.895	0.099	0.088
-388.033	-200.000	-0.041	-0.187
-387.019	26.625	0.182	0.154
-386.004	-146.032	0.344	-0.031
-384.990	629.283	0.059	0.151
-383.975	85.295	0.061	-0.067
-382.960	-70.218	-0.277	-0.106
-381.946	-58.014	-0.033	-0.014
-380.931	87.430	0.232	0.259
-379.917	-54.962	-0.313	0.143
-378.902	512.029	0.068	-0.160
-377.888	-200.000	0.006	0.025
-376.873	-200.000	-0.009	-0.390
-375.858	-156.076	-0.206	0.013
-374.844	137.744	-0.067	-0.088
-373.829	132.817	0.093	0.122
-372.815	-1.613	0.249	0.177
-371.800	541.486	-0.102	-0.244
-370.785	-200.000	0.049	0.223
-369.771	52.863	0.118	-0.114
-368.756	-50.242	0.113	0.054
-367.742	160.941	-0.240	0.338
-366.727	-163.564	-0.210	-0.010
-365.712	800.000	-0.103	-0.312
-364.698	-200.000	0.032	0.226
-363.683	-74.258	0.102	0.037
-362.669	156.452	0.210	-0.293
-361.654	-127.331	0.027	-0.004
-360.639	-16.086	0.265	-0.170
-359.625	202.530	-0.149	0.232
-358.610	-96.007	-0.091	0.024
-357.596	-7.746	0.189	0.129
-356.581	-59.432	-0.390	-0.169
-355.566	-81.826	0.203	-0.067
-354.552	-122.274	0.379	0.062
-353.537	-3.400	-0.009	0.006
-352.523	-73.753	-0.185	0.068
-351.508	800.000	0.014	0.063
-350.493	-200.000	0.077	-0.348
-349.479	-148.057	0.246	0.021
-348.464	131.308	0.092	-0.119
-347.450	-17.993	-0.099	-0.063
-346.435	76.441	0.107	0.114
-345.420	-128.079	0.006	0.001
-344.406	-17.369	0.280	-0.178
-343.391	-75.254	0.156	-0.056
-342.377	-125.847	-0.392	-0.060
-341.362	64.744	0.175	-0.178
-340.348	-87.847	0.292	0.089
-339.333	498.274	-0.086	0.199
-338.318	-200.000	-0.022	-0.157
-337.304	-200.000	-0.021	0.199
-336.289	276.486	-0.149	-0.267
-335.275	-65.478	-0.316	0.128
-334.260	280.326	-0.139	0.250
-333.245	-130.952	0.109	0.015
-332.231	-200.000	0.047	0.261
-331.216	-200.000	0.023	0.291
-330.202	-127.721	0.068	-0.010
-329.187	173.353	-0.044	-0.064
-328.172	29.564	-0.226	0.194
-327.158	800.000	0.073	-0.272
-326.143	-135.631	0.095	-0.011
-325.129	-43.500	0.163	0.083
-324.114	26.796	-0.247	-0.208
-323.099	171.330	0.144	-0.208
-322.085	-20.693	-0.091	-0.056
-321.070	-200.000	-0.058	-0.283
-320.056	-143.616	0.233	0.022
-319.041	35.092	-0.118	0.104
-318.026	-63.254	-0.287	0.119
-317.012	221.854	0.201	0.326
-315.997	800.000	0.106	0.299
-314.983	-170.745	-0.285	0.010
-313.968	345.630	0.139	0.275
-312.953	19.528	0.155	-0.125
-311.939	-200.000	-0.071	0.453
-310.924	-22.527	-0.170	-0.104
-309.910	-200.000	-0.034	0.229
-308.895	69.112	-0.155	0.161
-307.880	196.460	0.114	0.175
-306.866	594.636	0.099	-0.247
-305.851	-128.601	-0.313	0.045
-304.837	-200.000	-0.001	-0.032
-303.822	-110.033	-0.221	0.046
-302.807	-42.327	-0.207	-0.106
-301.793	275.195	-0.120	-0.214
-300.778	-79.690	0.165	0.056
-299.764	156.296	0.100	-0.139
-298.749	-109.118	0.347	0.074
-297.735	-98.570	0.075	0.019
-296.720	-200.000	0.023	-0.158
-295.705	705.621	0.120	-0.319
-294.691	103.938	-0.118	-0.140
-293.676	-200.000	0.025	0.115
-292.662	-4.571	0.211	0.146
-291.647	-200.000	0.027	-0.248
-290.632	800.000	0.013	0.047
-289.618	800.000	-0.018	-0.056
-288.603	597.014	0.022	0.056
-287.589	-158.724	-0.147	0.008
-286.574	-36.917	0.138	-0.074
-285.559	34.171	-0.013	0.011
-284.545	-80.086	-0.353	-0.119
-283.530	-105.683	-0.283	-0.064
-282.516	800.000	0.122	0.431
-281.501	-116.464	0.229	0.042
-280.486	-200.000	0.030	-0.252
-279.472	176.496	0.173	0.253
-278.457	-166.932	0.167	-0.007
-277.443	-36.203	0.146	-0.079
-276.428	667.178	-0.094	0.245
-275.413	-200.000	0.031	0.206
-274.399	-58.652	-0.238	0.104
-273.384	59.122	0.223	0.221
-272.370	402.608	-0.045	0.096
-271.355	467.167	0.094	0.213
-270.340	160.862	0.021	-0.029
-269.326	800.000	-0.074	-0.257
-268.311	-53.850	0.092	-0.042
-267.297	632.390	-0.049	0.124
-266.282	-38.452	-0.165	-0.088
-265.267	13.547	0.245	-0.191
-264.253	-86.165	-0.178	0.055
-263.238	15.018	-0.220	-0.173
-262.224	-49.447	-0.200	-0.096
-261.209	-200.000	-0.012	0.145
-260.195	-19.959	0.246	0.153
-259.180	-200.000	0.184	0.000
-258.165	227.379	0.097	0.159
-257.151	436.560	-0.199	0.436
-256.136	-200.000	0.018	0.119
-255.122	66.529	-0.183	-0.187
-254.107	242.338	-0.086	0.145
-253.092	337.233	0.071	0.138
-252.078	800.000	-0.045	-0.158
-251.063	-200.000	0.011	-0.281
-250.049	-111.359	-0.290	0.059
-249.034	45.854	0.135	0.126
-248.019	-43.819	0.164	-0.083
-247.005	321.236	0.080	0.153
-245.990	3.633	0.303	0.222
-244.976	-40.891	0.168	-0.087
-243.961	-200.000	-0.064	0.320
-242.946	-71.517	-0.297	0.112
-241.932	332.328	-0.080	0.156
-240.917	31.797	-0.108	-0.093
-239.903	-200.000	0.018	0.214
-238.888	-129.780	0.133	0.018
-237.873	-21.811	0.176	0.107
-236.859	107.189	0.047	-0.056
-235.844	-140.934	0.143	0.015
-234.830	-175.270	0.045	0.001
-233.815	800.000	-0.024	-0.072
-232.800	-36.277	-0.251	-0.136
-231.786	800.000	0.045	-0.155
-230.771	-200.000	-0.026	-0.181
-229.757	-63.261	-0.126	0.052
-228.742	258.839	-0.115	-0.199
-227.727	658.337	-0.125	0.323
-226.713	-118.270	-0.239	-0.043
-225.698	-70.031	-0.060	-0.023
-224.684	-131.480	0.268	0.035
-223.669	517.130	-0.105	0.246
-222.655	-200.000	0.032	-0.264
-221.640	337.733	0.017	0.033
-220.625	65.168	-0.180	0.182
-219.611	-35.823	-0.052	0.028
-218.596	-200.000	-0.039	-0.231
-217.582	76.025	-0.166	0.176
-216.567	667.092	0.055	-0.143
-215.552	-92.858	-0.080	0.022
-214.538	-68.521	-0.171	-0.066
-213.523	-200.000	0.007	-0.118
-212.509	102.407	0.195	-0.228
-211.494	364.464	-0.077	-0.156
-210.479	-200.000	-0.027	0.119
-209.465	-147.906	0.209	0.017
-208.450	-46.476	-0.169	-0.083
-207.436	40.227	0.054	-0.049
-206.421	-128.120	-0.412	0.059
-205.406	-200.000	0.003	-0.160
-204.392	31.493	-0.232	0.200
-203.377	26.277	0.130	0.109
-202.363	0.502	0.218	0.156
-201.348	9.463	-0.053	0.040
-200.333	-58.200	0.164	0.072
-199.319	-200.000	-0.024	0.177
-198.304	191.555	0.157	-0.237
-197.290	-62.238	-0.157	0.066
-196.275	-171.956	0.044	-0.001
-195.260	227.881	0.102	0.166
-194.246	164.169	0.060	-0.084
-193.231	72.450	-0.288	-0.301
-192.217	-151.395	-0.152	-0.011
-191.202	44.220	0.325	0.299
-190.187	136.393	-0.065	-0.085
-189.173	280.122	-0.078	0.140
-188.158	-96.818	-0.225	-0.059
-187.144	10.885	0.078	-0.059
-186.129	-52.851	0.138	0.064
-185.114	-200.000	0.019	-0.164
-184.100	-94.870	-0.220	-0.060
-183.085	-200.000	0.004	0.111
-182.071	83.333	0.093	0.102
-181.056	-200.000	0.010	0.252
-180.042	-129.500	-0.226	0.031
-179.027	-200.000	0.015	0.258
-178.012	-167.509	0.183	0.007
-176.998	115.481	0.078	0.095
-175.983	136.308	-0.105	0.137
-174.969	800.000	0.055	-0.156
-173.954	800.000	0.053	0.190
-172.939	496.236	-0.034	0.079
-171.925	-69.438	-0.240	-0.092
-170.910	-106.768	0.077	0.017
-169.896	-200.000	-0.033	0.425
-168.881	93.893	0.131	-0.148
-167.866	191.608	-0.118	0.178
-166.852	800.000	-0.027	0.077
-165.837	-99.026	-0.258	-0.065
-164.823	-112.678	0.428	0.085
-163.808	400.485	-0.054	0.113
-162.793	743.339	0.123	0.331
-161.779	-88.724	-0.239	0.071
-160.764	-67.927	-0.143	-0.056
-159.750	-73.363	0.335	0.123
-158.735	-155.517	0.292	-0.019
-157.720	-97.655	-0.371	-0.096
-156.706	75.845	0.261	0.277
-155.691	669.896	0.170	0.441
-154.677	765.878	-0.049	0.133
-153.662	-116.584	-0.078	0.014
-152.647	-200.000	-0.001	-0.359
-151.633	-108.202	-0.083	-0.018
-150.618	-122.221	0.210	-0.034
-149.604	2.093	0.267	0.193
-148.589	-95.781	0.031	-0.008
-147.574	55.849	-0.156	-0.151
-146.560	-58.688	0.052	0.023
-145.545	-117.083	-0.198	0.036
-144.531	800.000	-0.083	0.355
-143.516	-200.000	-0.014	0.064
-142.502	-121.071	0.372	0.062
-141.487	-200.000	-0.114	0.521
-140.472	33.722	0.196	-0.170
-139.458	185.469	-0.033	0.049
-138.443	472.069	-0.050	0.112
-137.429	800.000	0.038	0.146
-136.414	12.311	0.210	0.162
-135.399	800.000	0.001	-0.006
-134.385	-69.487	0.310	-0.119
-133.370	800.000	0.115	-0.329
-132.356	-126.367	0.532	0.079
-131.341	-6.053	-0.029	-0.020
-130.326	157.367	-0.078	0.108
-129.312	-200.000	0.058	-0.303
-128.297	-118.214	-0.238	-0.042
-127.283	53.965	0.071	0.068
-126.268	-200.000	0.034	0.280
-125.253	-11.585	0.211	-0.138
-124.239	610.960	0.058	-0.145
-123.224	-34.758	0.246	0.134
-122.210	800.000	0.021	-0.080
-121.195	430.121	0.037	0.080
-120.180	590.421	-0.072	-0.178
-119.166	-55.191	-0.237	0.106
-118.151	-76.402	0.397	-0.140
-117.137	145.922	0.111	-0.148
-116.122	43.015	0.242	-0.221
-115.107	-154.226	0.461	-0.031
-114.093	93.804	0.173	0.196
-113.078	-132.209	0.451	0.058
-112.064	383.058	0.057	0.118
-111.049	534.105	0.088	0.209
-110.034	6.080	-0.055	-0.041
-109.020	-200.000	-0.023	0.125
-108.005	66.463	0.184	-0.187
-106.991	-200.000	0.014	0.112
-105.976	338.523	0.008	-0.015
-104.962	108.569	0.316	-0.377
-103.947	800.000	-0.033	-0.114
-102.932	-200.000	0.056	0.307
-101.918	-45.237	-0.212	-0.105
-100.903	-125.835	0.318	0.048
-99.889	-200.000	0.024	0.347
-98.874	423.089	-0.093	0.199
-97.859	-4.671	-0.213	0.147
-96.845	-131.723	0.144	0.019
-95.830	177.075	0.105	0.152
-94.816	-5.510	0.363	0.249
-93.801	800.000	0.035	-0.099
-92.786	147.781	0.123	0.165
-91.772	800.000	-0.103	0.370
-90.757	723.136	0.065	0.173
-89.743	37.363	0.118	-0.105
-88.728	-104.315	0.219	0.051
-87.713	149.266	0.140	-0.190
-86.699	451.767	0.090	0.199
-85.684	-120.315	0.221	-0.038
-84.670	462.292	-0.093	0.208
-83.655	-62.396	-0.098	0.041
-82.640	495.908	-0.055	-0.127
-81.626	346.077	-0.088	-0.173
-80.611	584.622	0.121	0.296
-79.597	300.120	0.025	0.045
-78.582	-200.000	0.047	-0.242
-77.567	1.226	-0.193	-0.139
-76.553	-78.088	-0.327	0.112
-75.538	-17.788	0.151	-0.094
-74.524	-5.288	0.125	0.086
-73.509	116.047	-0.117	-0.143
-72.494	-56.882	-0.301	0.132
-71.480	106.641	-0.042	-0.050
-70.465	234.752	0.074	-0.122
-69.451	-105.353	-0.291	-0.066
-68.436	-3.208	0.184	0.128
-67.422	6.184	-0.119	0.088
-66.407	-57.550	0.334	0.146
-65.392	-161.508	-0.455	-0.023
-64.378	-159.769	-0.428	-0.024
-63.363	-200.000	0.002	0.181
-62.349	-147.664	0.430	-0.036
-61.334	151.962	-0.565	-0.769
-60.319	-200.000	-0.017	-0.153
-59.305	-200.000	-0.097	-0.483
-58.290	150.936	0.421	0.571
-57.276	800.000	0.476	1.573
-56.261	-200.000	75.032	558.570
-55.246	524.941	1350.407	3167.865
-54.232	134.578	2610.617	3376.778
-53.217	111.376	2388.464	2870.564
-52.203	52.270	1994.271	1895.936
-51.188	46.039	1779.661	1642.215
-50.173	42.983	1733.277	1575.497
-49.159	57.598	1765.794	1720.262
-48.144	64.000	1783.827	1787.984
-47.130	46.168	1747.705	1613.488
-46.115	42.765	1734.309	1574.477
-45.100	42.540	1729.759	1568.527
-44.086	42.473	1727.246	1565.664
-43.071	42.489	1724.078	1562.860
-42.057	42.486	1722.298	1561.155
-41.042	42.476	1720.170	1559.089
-40.027	42.487	1718.240	1557.366
-39.013	42.552	1716.060	1555.825
-37.998	42.480	1713.883	1553.237
-36.984	42.579	1712.446	1552.639
-35.969	42.646	1711.132	1551.904
-34.954	42.692	1709.832	1551.020
-33.940	42.661	1707.259	1548.383
-32.925	42.549	1705.898	1546.224
-31.911	42.593	1703.804	1544.606
-30.896	42.662	1702.117	1543.543
-29.881	42.652	1700.069	1541.551
-28.867	42.636	1698.670	1540.098
-27.852	42.591	1697.321	1538.468
-26.838	42.585	1695.558	1536.763
-25.823	42.703	1693.994	1536.183
-24.809	42.698	1692.528	1534.756
-23.794	42.743	1691.068	1533.716
-22.779	42.720	1689.616	1532.160
-21.765	42.614	1688.410	1530.201
-20.750	42.557	1686.836	1528.275
-19.736	42.606	1684.708	1526.661
-18.721	42.668	1683.335	1525.828
-17.706	42.702	1681.563	1524.418
-16.692	42.650	1679.850	1522.410
-15.677	42.629	1678.567	1521.033
-14.663	42.662	1677.123	1519.907
-13.648	42.647	1675.718	1518.461
-12.633	42.649	1674.007	1516.868
-11.619	42.594	1672.538	1515.059
-10.604	42.657	1670.867	1513.965
-9.590	42.686	1670.076	1513.402
-8.575	42.619	1668.374	1511.299
-7.560	42.587	1667.409	1510.122
-6.546	42.615	1665.944	1508.946
-5.531	42.633	1665.006	1508.174
-4.517	42.641	1663.423	1506.736
-3.502	42.583	1662.636	1505.530
-2.487	42.797	1660.600	1505.233
-1.473	42.771	1650.652	1495.963
-0.458	40.519	1630.687	1461.240
0.556	34.352	1627.260	1417.221
1.571	30.258	1648.305	1404.501
2.586	28.530	1660.631	1401.690
3.600	24.934	1606.065	1328.881
4.615	13.764	1485.020	1151.514
5.629	2.985	1408.248	1020.604
6.644	0.599	1397.363	996.890
7.659	0.369	1395.990	994.302
8.673	0.203	1394.966	992.392
9.688	0.210	1393.105	991.031
10.702	0.079	1390.497	988.225
11.717	4.078	1397.668	1019.599
12.731	13.396	1412.911	1092.396
13.746	18.385	1417.909	1129.134
14.761	17.565	1415.410	1121.644
15.775	16.547	1412.785	1112.769
16.790	15.501	1409.963	1103.576
17.804	14.606	1407.936	1096.017
18.819	14.221	1406.414	1092.209
19.834	13.936	1404.839	1089.022
20.848	13.605	1403.971	1086.085
21.863	13.464	1402.363	1083.820
22.877	13.272	1400.766	1081.238
23.892	13.208	1399.970	1080.108
24.907	13.100	1399.748	1079.133
25.921	13.233	1398.241	1078.743
26.936	13.190	1397.917	1078.120
27.950	13.444	1396.381	1078.494
28.965	13.429	1395.144	1077.344
29.980	13.350	1394.695	1076.391
30.994	13.392	1393.707	1075.805
32.009	13.475	1392.608	1075.401
33.023	13.409	1391.624	1074.119
34.038	13.375	1390.214	1072.713
35.053	13.362	1389.206	1071.755
36.067	13.359	1388.181	1070.855
37.082	13.391	1386.881	1069.962
38.096	13.321	1385.887	1068.644
39.111	13.451	1384.910	1068.639
40.126	13.240	1384.319	1066.727
41.140	13.266	1383.245	1065.974
42.155	13.239	1382.767	1065.334
43.169	13.187	1382.781	1064.914
44.184	13.115	1382.689	1064.290
45.199	13.177	1382.033	1064.088
46.213	13.255	1381.261	1063.902
47.228	13.289	1380.360	1063.329
48.242	13.268	1379.370	1062.343
49.257	13.254	1377.607	1060.800
50.271	13.259	1376.352	1059.773
51.286	13.205	1375.307	1058.527
52.301	13.276	1374.075	1057.941
53.315	13.298	1372.659	1056.894
54.330	13.238	1371.680	1055.665
55.344	13.185	1370.329	1054.192
56.359	13.149	1369.507	1053.236
57.374	13.121	1368.457	1052.161
58.388	13.207	1367.383	1051.785
59.403	13.207	1366.889	1051.316
60.417	13.050	1366.520	1049.939
61.432	13.034	1366.176	1049.480
62.447	13.125	1364.642	1048.786
63.461	12.996	1363.507	1047.006
64.476	13.114	1362.171	1046.635
65.490	13.112	1360.783	1045.459
66.505	13.089	1359.283	1044.073
67.520	13.084	1357.956	1042.931
68.534	13.209	1356.694	1042.656
69.549	13.226	1355.534	1041.776
70.563	13.150	1354.489	1040.406
71.578	13.049	1353.638	1039.022
72.593	13.033	1352.476	1037.941
73.607	13.037	1351.853	1037.394
74.622	13.033	1350.737	1036.423
75.636	13.054	1349.836	1035.770
76.651	13.006	1349.649	1035.236
77.666	12.996	1349.202	1034.739
78.680	13.125	1347.976	1034.512
79.695	13.081	1347.323	1033.645
80.709	13.012	1346.948	1032.835
81.724	13.206	1345.592	1032.912
82.739	13.192	1344.866	1032.178
83.753	13.225	1343.486	1031.233
84.768	13.290	1342.707	1030.950
85.782	13.333	1341.286	1030.036
86.797	13.337	1339.780	1028.815
87.812	13.321	1338.453	1027.602
88.826	13.203	1337.481	1026.035
89.841	13.313	1336.612	1025.958
90.855	13.244	1335.573	1024.644
91.870	13.377	1334.294	1024.396
92.884	13.399	1333.539	1023.857
93.899	13.276	1332.997	1022.595
94.914	13.339	1332.287	1022.344
95.928	13.396	1331.410	1021.935
96.943	13.322	1330.397	1020.614
97.957	13.300	1329.578	1019.758
98.972	13.318	1328.262	1018.769
99.987	13.332	1327.098	1017.873
101.001	13.353	1326.063	1017.114
102.016	13.411	1324.799	1016.410
103.030	13.413	1324.171	1015.852
104.045	13.372	1323.329	1014.869
105.060	13.313	1322.049	1013.435
106.074	13.186	1321.005	1011.767
107.089	13.197	1319.746	1010.782
108.103	13.266	1317.943	1009.727
109.118	13.166	1316.937	1008.261
110.133	13.221	1315.700	1007.556
111.147	13.201	1314.303	1006.279
112.162	13.264	1312.596	1005.264
113.176	13.221	1311.748	1004.266
114.191	13.244	1310.741	1003.543
115.206	13.235	1309.603	1002.529
116.220	13.224	1308.570	1001.584
117.235	13.207	1307.554	1000.618
118.249	13.218	1306.551	999.825
119.264	13.191	1305.390	998.684
120.279	13.204	1304.192	997.762
121.293	13.223	1303.048	996.914
122.308	13.206	1302.115	996.005
123.322	13.182	1301.489	995.295
124.337	13.124	1300.356	993.989
125.352	13.210	1299.418	993.704
126.366	13.245	1297.601	992.434
127.381	13.175	1296.834	991.344
128.395	13.262	1295.610	990.839
129.410	13.237	1294.566	989.802
130.424	13.220	1294.318	989.426
131.439	13.249	1293.118	988.595
132.454	13.334	1291.522	987.792
133.468	13.299	1291.211	987.257
134.483	13.309	1290.439	986.642
135.497	13.368	1289.280	986.021
136.512	13.365	1287.909	984.865
137.527	13.288	1286.593	983.316
138.541	13.367	1285.152	982.594
139.556	13.477	1283.513	981.907
140.570	13.507	1282.510	981.232
141.585	13.424	1281.224	979.668
142.600	13.383	1280.389	978.700
143.614	13.476	1279.000	978.102
144.629	13.443	1278.465	977.414
145.643	13.401	1277.163	976.085
146.658	13.466	1275.724	975.278
147.673	13.386	1274.339	973.663
148.687	13.364	1273.384	972.721
149.702	13.349	1271.690	971.253
150.716	13.401	1270.192	970.326
151.731	13.295	1269.069	968.763
152.746	13.373	1267.697	968.082
153.760	13.404	1266.730	967.438
154.775	13.434	1265.548	966.628
155.789	13.490	1264.212	965.850
156.804	13.495	1263.539	965.279
157.819	13.426	1262.212	963.780
158.833	13.551	1261.122	963.586
159.848	13.539	1260.335	962.834
160.862	13.464	1259.500	961.670
161.877	13.512	1258.226	960.892
162.892	13.384	1257.122	959.220
163.906	13.435	1256.198	958.731
164.921	13.470	1255.200	958.086
165.935	13.484	1254.341	957.424
166.950	13.564	1253.555	957.206
167.964	13.497	1252.685	956.064
168.979	13.573	1252.077	955.958
169.994	13.469	1251.511	954.842
171.008	13.559	1250.606	954.584
172.023	13.634	1249.536	954.115
173.037	13.585	1248.762	953.157
174.052	13.712	1247.545	952.871
175.067	13.575	1246.956	951.552
176.081	13.645	1245.771	950.968
177.096	13.506	1245.142	949.607
178.110	13.565	1244.171	949.118
179.125	13.644	1242.429	948.158
180.140	13.698	1240.718	947.076
181.154	13.621	1240.323	946.254
182.169	13.663	1238.811	945.251
183.183	13.663	1237.840	944.430
184.198	13.819	1236.176	943.963
185.213	13.752	1235.128	942.696
186.227	13.739	1234.621	942.153
187.242	13.779	1233.139	941.164
188.256	13.900	1232.349	941.165
189.271	13.854	1231.253	939.984
190.286	13.629	1230.515	938.065
191.300	13.657	1229.610	937.450
192.315	13.646	1229.034	936.869
193.329	13.596	1228.219	935.880
194.344	13.713	1227.432	935.859
195.359	13.741	1227.081	935.665
196.373	13.799	1226.536	935.494
197.388	13.844	1226.145	935.365
198.402	13.877	1225.791	935.197
199.417	13.906	1224.481	934.281
200.432	14.009	1223.576	934.090
201.446	14.053	1222.678	933.567
202.461	14.084	1221.930	933.086
203.475	14.116	1220.810	932.327
204.490	14.009	1219.930	930.973
205.504	14.004	1218.435	929.721
206.519	14.033	1217.219	928.872
207.534	13.981	1216.234	927.749
208.548	14.128	1214.726	927.336
209.563	13.996	1214.180	926.106
210.577	13.998	1213.566	925.562
211.592	14.080	1212.772	925.335
212.607	14.094	1211.325	924.224
213.621	14.183	1210.198	923.775
214.636	14.082	1209.657	922.720
215.650	14.138	1208.908	922.377
216.665	14.213	1207.690	921.785
217.680	14.310	1206.403	921.258
218.694	14.290	1205.915	920.691
219.709	14.277	1205.158	919.961
220.723	14.203	1205.107	919.430
221.738	14.258	1203.676	918.562
222.753	14.323	1202.572	917.999
223.767	14.213	1202.775	917.467
224.782	14.380	1201.629	917.428
225.796	14.382	1201.026	916.897
226.811	14.368	1200.581	916.402
227.826	14.413	1199.441	915.699
228.840	14.367	1198.549	914.681
229.855	14.378	1197.910	914.171
230.869	14.317	1197.281	913.281
231.884	14.381	1196.048	912.608
232.899	14.292	1195.755	911.817
233.913	14.399	1194.699	911.516
234.928	14.327	1194.291	910.729
235.942	14.246	1193.437	909.556
236.957	14.240	1192.663	908.850
237.972	14.396	1191.479	908.720
238.986	14.332	1191.001	907.928
240.001	14.308	1190.519	907.349
241.015	14.390	1188.973	906.535
242.030	14.425	1188.264	906.103
243.045	14.439	1187.789	905.736
244.059	14.410	1187.242	905.086
245.074	14.485	1185.942	904.417
246.088	14.468	1185.406	903.838
247.103	14.564	1184.561	903.637
248.117	14.568	1184.080	903.209
249.132	14.622	1183.219	902.762
250.147	14.662	1182.526	902.373
251.161	14.651	1181.907	901.762
252.176	14.654	1180.941	900.959
253.190	14.785	1180.131	900.970
254.205	14.964	1179.392	901.287
255.220	14.798	1179.275	900.228
256.234	14.794	1178.554	899.575
257.249	14.819	1177.859	899.100
258.263	14.853	1177.185	898.685
259.278	14.863	1176.474	898.121
260.293	14.827	1175.887	897.400
261.307	14.870	1175.532	897.277
262.322	14.915	1174.750	896.842
263.336	14.936	1173.737	896.102
264.351	15.024	1173.238	896.113
265.366	15.068	1172.469	895.681
266.380	15.075	1171.750	895.089
267.395	14.906	1171.114	893.624
268.409	14.943	1170.455	893.237
269.424	15.020	1169.564	892.892
270.439	15.104	1168.598	892.520
271.453	15.053	1167.670	891.462
272.468	15.015	1167.494	891.045
273.482	14.981	1166.306	889.883
274.497	15.025	1165.875	889.706
275.512	14.996	1165.381	889.098
276.526	15.002	1164.539	888.408
277.541	15.030	1163.409	887.616
278.555	15.064	1162.785	887.242
279.570	15.207	1161.904	887.248
280.585	15.164	1160.980	886.235
281.599	15.152	1160.316	885.590
282.614	15.236	1159.125	885.042
283.628	15.219	1158.231	884.195
284.643	15.140	1157.412	883.071
285.657	15.141	1156.719	882.470
286.672	15.213	1155.557	881.887
287.687	15.224	1154.764	881.263
288.701	15.272	1153.953	880.815
289.716	15.388	1153.001	880.622
290.730	15.377	1152.133	879.822
291.745	15.272	1151.728	878.882
292.760	15.405	1150.856	878.839
293.774	15.407	1150.276	878.329
294.789	15.393	1149.982	877.952
295.803	15.428	1149.463	877.660
296.818	15.363	1148.540	876.542
297.833	15.393	1147.715	875.988
298.847	15.392	1146.757	875.173
299.862	15.404	1146.087	874.647
300.876	15.364	1145.667	874.042
301.891	15.443	1144.712	873.650
302.906	15.455	1144.244	873.276
303.920	15.437	1143.668	872.664
304.935	15.466	1143.069	872.281
305.949	15.724	1141.600	872.424
306.964	15.636	1141.595	871.882
307.979	15.574	1140.671	870.781
308.993	15.657	1139.995	870.618
310.008	15.567	1139.314	869.555
311.022	15.628	1138.377	869.080
312.037	15.702	1137.159	868.451
313.052	15.718	1136.259	867.772
314.066	15.706	1135.402	866.979
315.081	15.696	1134.914	866.479
316.095	15.693	1133.820	865.550
317.110	15.708	1132.845	864.808
318.125	15.591	1132.508	863.870
319.139	15.659	1131.628	863.472
320.154	15.612	1131.495	863.051
321.168	15.674	1130.412	862.470
322.183	15.620	1130.280	862.016
323.197	15.772	1129.182	861.878
324.212	15.699	1128.677	861.045
325.227	15.774	1128.466	861.192
326.241	15.727	1127.574	860.196
327.256	15.669	1126.695	859.151
328.270	15.750	1126.024	858.979
329.285	15.769	1124.695	857.984
330.300	15.816	1123.782	857.453
331.314	15.769	1122.713	856.319
332.329	15.718	1121.801	855.291
333.343	15.840	1120.715	855.008
334.358	15.958	1119.915	854.918
335.373	15.848	1119.858	854.244
336.387	15.824	1118.932	853.339
337.402	15.918	1118.131	853.128
338.416	15.943	1117.316	852.557
339.431	15.978	1116.887	852.331
340.446	15.992	1116.006	851.656
341.460	16.038	1115.335	851.300
342.475	16.076	1114.432	850.729
343.489	16.083	1113.648	850.086
344.504	16.056	1112.862	849.275
345.519	16.060	1111.959	848.532
346.533	16.146	1110.906	848.086
347.548	16.222	1109.842	847.579
348.562	16.277	1109.303	847.371
349.577	16.160	1108.498	846.095
350.592	16.189	1107.563	845.451
351.606	16.143	1106.892	844.632
352.621	16.150	1106.300	844.141
353.635	16.129	1105.808	843.585
354.650	16.187	1104.604	842.883
355.665	16.196	1104.498	842.770
356.679	16.212	1103.611	842.099
357.694	16.261	1102.779	841.636
358.708	16.304	1102.254	841.375
359.723	16.305	1101.640	840.836
360.738	16.325	1101.077	840.433
361.752	16.343	1100.482	839.992
362.767	16.319	1099.732	839.228
363.781	16.266	1099.333	838.583
364.796	16.394	1098.988	838.882
365.810	16.408	1097.961	838.093
366.825	16.497	1097.190	837.874
367.840	16.395	1096.897	837.071
368.854	16.435	1096.327	836.757
369.869	16.638	1095.236	836.856
370.883	16.535	1094.238	835.511
371.898	16.577	1093.719	835.249
372.913	16.531	1093.429	834.724
373.927	16.551	1092.951	834.388
374.942	16.647	1091.844	833.938
375.956	16.601	1091.621	833.469
376.971	16.574	1091.031	832.813
377.986	16.697	1090.394	832.857
379.000	16.636	1090.052	832.221
380.015	16.758	1089.330	832.195
381.029	16.672	1088.720	831.236
382.044	16.712	1087.700	830.577
383.059	16.791	1087.073	830.413
384.073	16.714	1086.435	829.476
385.088	16.835	1085.189	829.044
386.102	16.869	1084.433	828.559
387.117	16.750	1083.701	827.344
388.132	16.806	1082.524	826.644
389.146	16.739	1081.868	825.747
390.161	16.726	1081.241	825.130
391.175	16.808	1080.308	824.744
392.190	16.863	1079.464	824.293
393.205	16.889	1078.865	823.890
394.219	16.851	1078.208	823.131
395.234	16.724	1077.485	821.888
396.248	16.738	1076.537	821.161
397.263	16.765	1075.093	820.116
398.278	16.829	1074.504	819.908
399.292	16.784	1073.980	819.218
400.307	16.836	1073.284	818.866
401.321	16.819	1072.400	818.036
402.336	16.778	1072.028	817.483
403.350	16.863	1071.005	817.039
404.365	16.874	1070.096	816.325
405.380	16.950	1069.525	816.184
406.394	16.972	1068.965	815.789
407.409	17.056	1068.264	815.586
408.423	17.133	1067.596	815.375
409.438	17.184	1066.854	814.979
410.453	17.173	1066.001	814.205
411.467	17.117	1065.369	813.378
412.482	17.085	1064.945	812.832
413.496	17.084	1064.166	812.160
414.511	17.109	1063.451	811.661
415.526	17.287	1062.859	811.988
416.540	17.357	1062.420	811.916
417.555	17.324	1062.043	811.399
418.569	17.216	1061.668	810.526
419.584	17.290	1060.954	810.261
420.599	17.266	1060.229	809.522
421.613	79.801	1285.739	1328.676
422.628	73.623	1318.604	1328.811
