DTS Sentinel unit serial number:	SN413079Multiplexer serial number:	ORYXHardware model number:	OX4-SRSoftware version number:	ORYX F/W v4.00 Oryx Data Collector v3.7.2.0data status	okinstallation	princeton_trtdifferential loss correction	single-endedforward channel	channel 2reverse channel	N/Adate	2019/09/12time	18:02:49forward acquisition time	15.00reverse acquisition time	0.00gamma	496.2192k internal	0.2324k external	0.2324temperature offset calibration	1.0131default loss term (dB/km)	0.3790temperature slope calibration	1.0000multiplexer offset coefficient	1.0000multiplexer slope coefficient	1.0000fibre end	0.00T internal ref (°C)	33.75T ext. ref 1 (°C)	2.92T ext. ref 2 (°C)	28.33length (m)	temperature (°C)	Stokes	anti-Stokes-747.200	-42.471	1.250	-0.643
-746.185	41.959	-0.212	-0.194
-745.171	32.625	-0.209	-0.183
-744.156	-16.620	-0.088	0.056
-743.142	-82.393	0.446	-0.146
-742.127	235.543	-0.458	0.764
-741.112	69.969	-0.492	0.512
-740.098	-0.728	0.595	-0.426
-739.083	-139.762	0.586	0.063
-738.069	184.653	-0.288	-0.432
-737.054	60.424	0.432	0.432
-736.039	73.391	-0.217	0.229
-735.025	-200.000	0.034	-0.365
-734.010	-178.396	-0.293	0.007
-732.996	-124.662	-0.368	0.058
-731.981	-200.000	-0.063	0.575
-730.966	-76.583	0.440	-0.156
-729.952	5.763	-0.251	-0.188
-728.937	9.284	-0.677	-0.517
-727.923	800.000	0.118	-0.400
-726.908	-12.581	-0.363	-0.239
-725.894	-119.997	-0.837	-0.145
-724.879	-200.000	-0.072	-0.518
-723.864	-169.111	0.336	0.013
-722.850	-89.738	-1.085	0.321
-721.835	-200.000	0.102	0.848
-720.821	227.990	-0.288	0.474
-719.806	-200.000	-0.010	0.206
-718.791	555.903	-0.537	-1.304
-717.777	-194.064	-0.728	-0.006
-716.762	74.288	0.501	0.531
-715.748	-169.051	0.345	-0.013
-714.733	-47.874	0.530	0.259
-713.718	-200.000	-0.038	0.269
-712.704	393.918	-0.412	-0.865
-711.689	-200.000	0.031	-1.203
-710.675	-151.499	-0.278	0.021
-709.660	152.947	0.514	-0.708
-708.645	-25.989	0.124	0.074
-707.631	-6.552	-0.146	0.101
-706.616	53.279	0.257	-0.248
-705.602	-92.807	0.324	-0.091
-704.587	62.272	-0.400	-0.403
-703.572	226.961	0.477	-0.782
-702.558	-106.267	0.362	0.082
-701.543	-74.298	1.085	0.395
-700.529	-9.449	-0.363	0.244
-699.514	166.151	0.340	-0.485
-698.499	-200.000	-0.024	0.353
-697.485	-48.478	0.289	0.140
-696.470	379.407	-0.061	-0.126
-695.456	-200.000	-0.053	-0.508
-694.441	-200.000	-0.028	-0.140
-693.426	-200.000	-0.014	-0.088
-692.412	5.815	0.457	0.340
-691.397	-60.287	0.143	0.061
-690.383	-19.219	0.470	-0.294
-689.368	31.590	-0.620	0.537
-688.354	-200.000	-0.129	-0.621
-687.339	-200.000	-0.099	-0.455
-686.324	-48.542	0.265	-0.128
-685.310	-200.000	-0.102	-0.538
-684.295	-31.917	0.613	-0.346
-683.281	164.661	-0.519	-0.738
-682.266	-149.931	0.440	-0.035
-681.251	-47.565	0.289	0.141
-680.237	-192.028	-0.115	0.001
-679.222	138.965	0.396	0.524
-678.208	-124.091	-0.706	-0.112
-677.193	-200.000	-0.050	-0.320
-676.178	672.218	-0.236	0.617
-675.164	170.391	0.187	-0.269
-674.149	25.119	-0.293	-0.245
-673.135	-200.000	-0.020	-0.254
-672.120	800.000	0.145	-0.434
-671.105	-10.303	0.523	0.349
-670.091	101.246	-0.257	0.301
-669.076	153.217	0.337	0.465
-668.062	-29.475	-0.523	0.301
-667.047	-200.000	0.098	-0.603
-666.032	-163.720	-0.325	-0.015
-665.018	141.498	0.355	-0.473
-664.003	380.927	-0.347	-0.717
-662.989	559.163	0.182	-0.443
-661.974	115.158	-0.517	-0.635
-660.959	-200.000	0.059	-0.512
-659.945	-146.863	-0.380	-0.033
-658.930	-13.830	-0.308	0.200
-657.916	297.382	0.134	0.247
-656.901	-135.016	-0.220	0.027
-655.886	275.828	-0.099	0.176
-654.872	64.381	-0.779	0.789
-653.857	194.728	-0.306	0.468
-652.843	791.139	-0.103	0.284
-651.828	213.301	-0.511	0.813
-650.814	-174.632	0.629	-0.018
-649.799	208.797	0.358	-0.563
-648.784	92.913	0.298	0.339
-647.770	317.991	-0.109	-0.207
-646.755	497.662	-0.225	0.521
-645.741	-78.859	0.498	-0.171
-644.726	196.976	-0.135	-0.207
-643.711	-200.000	-0.016	-0.627
-642.697	-200.000	-0.008	-0.376
-641.682	-32.330	0.454	0.255
-640.668	-105.074	-0.879	0.202
-639.653	765.291	-0.143	-0.392
-638.638	34.418	-0.538	0.472
-637.624	-200.000	-0.009	0.555
-636.609	-86.472	-0.628	0.194
-635.595	-145.472	-0.651	0.059
-634.580	215.533	0.403	-0.643
-633.565	30.383	-0.248	0.213
-632.551	-169.172	-0.447	-0.017
-631.536	478.867	-0.383	-0.871
-630.522	-200.000	0.138	0.777
-629.507	419.624	-0.318	-0.684
-628.492	308.831	-0.327	-0.613
-627.478	-122.114	0.595	-0.098
-626.463	-89.981	0.847	0.248
-625.449	257.736	-0.196	-0.339
-624.434	-98.723	0.257	-0.066
-623.419	-36.506	-0.213	0.115
-622.405	-99.878	0.594	-0.149
-621.390	-11.276	-0.399	-0.264
-620.376	64.455	0.314	0.318
-619.361	-23.221	1.071	-0.647
-618.346	800.000	-0.152	-0.487
-617.332	-37.432	0.216	-0.116
-616.317	59.199	0.345	0.342
-615.303	-131.572	-0.571	0.075
-614.288	-118.414	0.171	-0.031
-613.273	-200.000	-0.011	0.088
-612.259	800.000	-0.130	-0.487
-611.244	161.368	0.146	-0.205
-610.230	-105.783	0.959	0.218
-609.215	-153.789	0.133	0.009
-608.201	6.936	0.460	-0.344
-607.186	-128.826	-0.726	0.103
-606.171	-127.279	0.343	-0.050
-605.157	800.000	0.091	0.342
-604.142	126.232	-0.262	0.332
-603.128	-200.000	-0.100	-0.768
-602.113	800.000	-0.072	-0.304
-601.098	122.533	0.123	-0.154
-600.084	-200.000	0.006	0.825
-599.069	99.088	-0.517	-0.600
-598.055	-200.000	0.013	-0.169
-597.040	-106.869	-0.694	0.154
-596.025	163.322	-0.178	-0.251
-595.011	-142.909	-0.789	0.077
-593.996	684.846	0.127	0.332
-592.982	18.389	0.848	0.680
-591.967	-6.003	0.243	-0.167
-590.952	-158.912	0.422	-0.024
-589.938	303.875	0.424	0.789
-588.923	-200.000	0.163	0.761
-587.909	-86.674	0.586	-0.180
-586.894	6.177	-0.595	0.443
-585.879	-200.000	0.101	0.592
-584.865	-200.000	0.031	0.255
-583.850	69.736	-0.111	-0.114
-582.836	-200.000	-0.048	-1.111
-581.821	800.000	-0.299	-0.891
-580.806	-43.413	0.390	-0.198
-579.792	22.194	-0.503	-0.412
-578.777	34.946	0.354	0.311
-577.763	-110.170	-0.782	-0.164
-576.748	800.000	0.007	-0.033
-575.733	26.321	-0.232	-0.194
-574.719	-200.000	-0.691	0.001
-573.704	-54.620	-0.745	-0.338
-572.690	-200.000	0.063	0.446
-571.675	238.899	0.452	0.754
-570.661	800.000	0.081	-0.250
-569.646	38.060	-0.819	-0.731
-568.631	384.681	0.303	0.627
-567.617	-60.525	0.187	0.080
-566.602	68.075	-0.618	0.634
-565.588	169.901	-0.323	-0.464
-564.573	-200.000	-0.066	1.036
-563.558	84.684	-0.468	-0.514
-562.544	-110.879	0.908	-0.187
-561.529	-132.395	-0.506	0.065
-560.515	86.075	0.557	-0.615
-559.500	70.955	-0.272	-0.283
-558.485	646.968	0.070	0.179
-557.471	-170.790	0.412	-0.014
-556.456	800.000	0.183	-0.525
-555.442	-95.720	0.520	0.139
-554.427	-200.000	-0.139	0.001
-553.412	306.350	-0.218	0.406
-552.398	-69.177	0.253	-0.098
-551.383	-11.360	-0.613	0.404
-550.369	-74.139	-0.239	-0.087
-549.354	82.498	0.393	0.427
-548.339	-137.628	-0.835	-0.094
-547.325	134.574	0.161	-0.209
-546.310	800.000	-0.248	0.792
-545.296	-59.389	-0.560	-0.241
-544.281	72.135	0.267	0.279
-543.266	-200.000	-0.123	-0.588
-542.252	32.233	0.068	0.058
-541.237	-32.300	0.190	0.106
-540.223	-200.000	0.161	-0.753
-539.208	-0.101	-0.719	-0.513
-538.193	80.429	0.458	0.494
-537.179	-159.078	-1.051	-0.060
-536.164	9.947	0.174	0.132
-535.150	317.595	0.175	0.331
-534.135	573.209	0.083	0.203
-533.121	-200.000	0.047	0.565
-532.106	800.000	0.195	0.799
-531.091	-29.213	0.416	0.239
-530.077	-20.075	0.457	-0.282
-529.062	44.710	-0.649	-0.598
-528.048	48.251	0.611	0.572
-527.033	364.491	0.189	0.382
-526.018	783.071	0.236	0.648
-525.004	634.757	0.029	0.074
-523.989	-0.383	-0.373	0.265
-522.975	800.000	-0.185	-0.537
-521.960	331.449	0.053	0.102
-520.945	419.675	-0.083	-0.178
-519.931	-97.770	-0.776	-0.201
-518.916	270.087	0.113	-0.200
-517.902	33.713	0.414	-0.361
-516.887	-42.188	0.420	-0.215
-515.872	426.038	-0.331	-0.713
-514.858	-130.289	0.754	0.102
-513.843	-200.000	-0.002	0.217
-512.829	-200.000	0.022	0.413
-511.814	150.391	-0.137	0.186
-510.799	-57.606	-1.012	-0.444
-509.785	-97.702	0.721	0.187
-508.770	-200.000	-0.081	0.477
-507.756	-17.138	-0.177	-0.112
-506.741	-50.327	0.355	0.168
-505.726	566.584	-0.351	0.852
-504.712	431.479	-0.159	-0.345
-503.697	68.738	-0.496	-0.509
-502.683	-200.000	-0.061	-0.296
-501.668	-200.000	-0.096	0.783
-500.653	58.751	0.115	0.113
-499.639	154.189	-0.326	0.448
-498.624	-149.344	0.300	0.024
-497.610	-108.352	-0.436	0.094
-496.595	93.794	0.371	-0.420
-495.581	-47.302	1.159	0.564
-494.566	-36.141	-0.588	0.317
-493.551	-132.129	-0.379	0.049
-492.537	-19.148	0.236	0.146
-491.522	800.000	0.356	-1.089
-490.508	158.353	0.395	0.548
-489.493	-127.292	0.673	-0.098
-488.478	-200.000	0.012	0.072
-487.464	-200.000	0.124	-0.618
-486.449	800.000	-0.071	-0.308
-485.435	-123.456	-0.648	-0.103
-484.420	-89.319	-0.865	0.255
-483.405	800.000	0.172	-0.575
-482.391	167.502	-0.435	-0.618
-481.376	98.315	0.606	-0.698
-480.362	-30.813	0.491	-0.277
-479.347	85.469	-0.474	-0.520
-478.332	-21.097	0.718	-0.439
-477.318	-32.396	-0.504	0.281
-476.303	171.922	-0.306	0.439
-475.289	-23.915	-0.068	0.041
-474.274	-200.000	-0.003	-0.217
-473.259	315.824	-0.457	-0.862
-472.245	116.744	-0.222	-0.272
-471.230	-7.241	0.464	-0.314
-470.216	-156.502	-0.667	-0.041
-469.201	-200.000	-0.207	-1.199
-468.186	-117.216	-0.635	-0.115
-467.172	-67.141	0.522	-0.205
-466.157	-44.106	-0.044	-0.022
-465.143	681.294	-0.239	0.621
-464.128	-105.400	-0.297	0.067
-463.113	-15.117	0.768	-0.491
-462.099	207.712	-0.196	-0.305
-461.084	643.546	0.293	-0.746
-460.070	800.000	-0.382	-1.193
-459.055	27.150	0.271	0.227
-458.040	5.863	-0.819	-0.605
-457.026	-44.370	0.999	0.499
-456.011	-200.000	0.044	0.455
-454.997	-135.048	0.446	0.054
-453.982	-200.000	0.054	-0.569
-452.968	-97.156	-0.484	-0.126
-451.953	194.137	-0.199	-0.301
-450.938	800.000	0.039	-0.119
-449.924	725.511	0.270	-0.720
-448.909	135.304	0.464	0.602
-447.895	-61.304	0.602	-0.253
-446.880	-108.888	-0.498	-0.106
-445.865	1.562	0.057	0.041
-444.851	128.302	-0.556	-0.706
-443.836	163.222	-0.267	-0.375
-442.822	-108.574	1.173	0.252
-441.807	46.714	-0.936	-0.867
-440.792	-52.042	-0.640	0.297
-439.778	-159.989	-0.602	0.033
-438.763	98.112	-0.476	-0.547
-437.749	0.770	0.529	-0.378
-436.734	800.000	0.219	-0.640
-435.719	185.164	-0.312	0.462
-434.705	-62.424	0.040	-0.017
-433.690	-132.405	0.530	0.068
-432.676	-140.855	-0.198	-0.020
-431.661	-200.000	0.005	-0.717
-430.646	-200.000	0.122	-0.726
-429.632	-43.705	-0.172	0.086
-428.617	-200.000	-0.034	-0.528
-427.603	37.966	-0.613	-0.543
-426.588	-43.382	-0.602	-0.303
-425.573	800.000	-0.106	0.299
-424.559	-27.627	0.544	0.315
-423.544	62.414	-0.045	0.044
-422.530	800.000	-0.116	0.447
-421.515	-90.249	-1.406	-0.408
-420.500	-52.040	-0.733	0.340
-419.486	-132.848	-0.265	-0.034
-418.471	-13.132	0.216	-0.140
-417.457	-117.016	-0.717	0.130
-416.442	-200.000	-0.017	0.759
-415.428	6.667	0.801	0.594
-414.413	-119.281	-0.787	-0.137
-413.398	-87.845	-0.218	-0.065
-412.384	-97.545	-0.510	-0.132
-411.369	84.193	-0.139	0.152
-410.355	8.189	-0.456	0.341
-409.340	800.000	0.106	0.411
-408.325	-3.160	0.886	-0.615
-407.311	172.945	-0.372	0.534
-406.296	-200.000	-0.050	0.284
-405.282	-0.643	0.566	0.400
-404.267	726.327	0.184	0.489
-403.252	225.850	0.227	0.367
-402.238	-134.780	-0.045	-0.005
-401.223	36.912	0.454	-0.400
-400.209	-200.000	0.021	0.166
-399.194	279.297	-0.479	0.851
-398.179	-53.009	0.367	-0.168
-397.165	578.277	0.078	0.190
-396.150	106.049	-0.211	-0.249
-395.136	40.261	-0.373	0.334
-394.121	-200.000	0.098	-0.705
-393.106	-200.000	0.063	-0.462
-392.092	244.469	0.133	0.222
-391.077	-148.020	0.739	-0.061
-390.063	-200.000	-0.031	0.628
-389.048	800.000	-0.330	0.969
-388.033	228.661	0.442	-0.717
-387.019	40.682	0.412	0.370
-386.004	-200.000	-0.107	1.035
-384.990	62.815	-0.244	0.243
-383.975	33.758	0.482	0.417
-382.960	-200.000	0.100	0.603
-381.946	8.425	-0.407	-0.305
-380.931	-16.558	0.726	-0.458
-379.917	-120.558	0.835	0.141
-378.902	301.030	-0.188	0.345
-377.888	-200.000	0.074	-0.733
-376.873	784.813	0.338	-0.922
-375.858	800.000	0.036	-0.121
-374.844	-33.515	0.944	0.519
-373.829	-75.157	-0.481	-0.171
-372.815	54.168	-1.000	-0.958
-371.800	417.174	-0.211	0.449
-370.785	471.091	-0.142	-0.318
-369.771	15.279	-0.592	0.462
-368.756	-62.451	-0.242	0.100
-367.742	0.561	-1.106	-0.787
-366.727	-74.804	0.706	-0.252
-365.712	-102.528	-0.193	-0.046
-364.698	115.311	-0.209	0.254
-363.683	800.000	0.139	0.548
-362.669	307.886	0.173	-0.321
-361.654	-27.051	0.324	0.188
-360.639	203.616	-0.237	0.364
-359.625	-127.136	-0.668	-0.097
-358.610	-112.615	0.527	-0.104
-357.596	82.342	0.750	0.809
-356.581	331.321	-0.050	0.096
-355.566	191.860	0.380	-0.570
-354.552	630.686	0.071	-0.177
-353.537	-200.000	-0.116	0.526
-352.523	66.571	0.177	-0.179
-351.508	58.072	0.650	0.633
-350.493	-34.857	0.318	-0.173
-349.479	800.000	0.108	0.432
-348.464	-25.277	-0.090	-0.053
-347.450	-89.428	0.905	-0.265
-346.435	800.000	0.125	-0.365
-345.420	86.088	0.501	0.548
-344.406	-42.500	0.723	0.366
-343.391	-200.000	-0.091	0.859
-342.377	-21.365	-0.952	0.578
-341.362	-69.066	-0.353	-0.135
-340.348	800.000	0.199	0.579
-339.333	247.888	-0.284	0.477
-338.318	-200.000	-0.054	0.404
-337.304	-64.865	-0.402	0.162
-336.289	206.665	-0.238	0.368
-335.275	-191.297	-0.529	0.005
-334.260	-79.030	0.168	-0.057
-333.245	68.807	-0.240	-0.244
-332.231	89.810	-0.513	0.569
-331.216	137.148	-0.386	-0.502
-330.202	-15.373	0.463	0.294
-329.187	-35.095	-0.552	0.299
-328.172	234.275	0.355	0.581
-327.158	122.167	-0.817	1.013
-326.143	-126.603	-0.370	0.054
-325.129	-34.693	0.306	0.166
-324.114	-188.222	0.577	-0.007
-323.099	54.314	-0.104	0.100
-322.085	-144.503	0.232	0.021
-321.070	-21.342	0.213	-0.129
-320.056	-125.872	0.115	0.017
-319.041	-121.398	-0.458	0.076
-318.026	-42.672	-0.570	-0.288
-317.012	-32.071	0.382	0.212
-315.997	-200.000	0.071	1.159
-314.983	348.076	-0.411	-0.805
-313.968	88.546	0.351	0.388
-312.953	800.000	-0.088	0.273
-311.939	636.559	0.219	-0.552
-310.924	29.100	0.236	0.199
-309.910	800.000	-0.177	0.615
-308.895	344.939	0.336	-0.655
-307.880	800.000	0.130	0.443
-306.866	800.000	0.123	-0.400
-305.851	545.427	-0.155	-0.368
-304.837	-200.000	-0.051	1.019
-303.822	-172.173	-0.151	-0.005
-302.807	62.842	-0.140	0.139
-301.793	-98.425	0.478	0.122
-300.778	85.521	-0.407	0.443
-299.764	800.000	0.158	0.650
-298.749	512.711	0.188	0.434
-297.735	-200.000	0.007	0.408
-296.720	70.251	0.368	0.377
-295.705	60.598	0.898	0.882
-294.691	154.982	-0.148	0.203
-293.676	35.408	0.257	-0.224
-292.662	561.912	-0.371	-0.889
-291.647	392.839	-0.171	0.353
-290.632	-78.184	0.106	-0.036
-289.618	91.741	0.235	-0.263
-288.603	172.283	0.671	-0.957
-287.589	-200.000	0.010	0.580
-286.574	-140.559	0.501	0.052
-285.559	319.924	0.531	1.000
-284.545	-200.000	-0.005	-0.038
-283.530	-152.193	-0.133	0.010
-282.516	800.000	-0.186	0.564
-281.501	-200.000	-0.000	0.269
-280.486	800.000	0.174	0.569
-279.472	-14.726	0.412	0.263
-278.457	-119.228	-0.710	0.123
-277.443	11.350	0.665	0.505
-276.428	218.470	0.289	-0.457
-275.413	-200.000	0.071	0.552
-274.399	-200.000	0.060	0.526
-273.384	-200.000	-0.053	0.240
-272.370	-180.458	0.543	-0.011
-271.355	-96.124	1.024	0.270
-270.340	133.416	0.207	-0.265
-269.326	161.926	-0.140	0.194
-268.311	-115.150	0.439	0.082
-267.297	4.806	-0.170	-0.124
-266.282	-200.000	-0.047	-0.263
-265.267	800.000	-0.146	-0.540
-264.253	277.133	-0.261	-0.460
-263.238	-200.000	-0.046	0.202
-262.224	98.296	0.750	0.856
-261.209	149.450	0.206	-0.276
-260.195	-200.000	-0.020	-0.442
-259.180	698.877	-0.195	0.508
-258.165	-152.172	0.132	0.009
-257.151	-133.561	-0.387	0.048
-256.136	-105.095	-0.425	0.096
-255.122	-130.708	0.485	-0.065
-254.107	-22.388	0.321	0.192
-253.092	128.555	0.307	0.387
-252.078	-183.411	0.512	-0.009
-251.063	-82.504	0.432	0.139
-250.049	567.567	-0.394	-0.948
-249.034	-200.000	-0.038	-0.553
-248.019	-200.000	-0.062	-0.702
-247.005	800.000	0.304	0.901
-245.990	-146.469	-0.228	0.020
-244.976	769.071	-0.308	-0.829
-243.961	192.013	-0.556	0.831
-242.946	-155.900	0.776	0.049
-241.932	-131.664	0.290	0.038
-240.917	-68.618	-0.703	0.269
-239.903	451.676	-0.125	-0.273
-238.888	83.263	-0.255	0.275
-237.873	129.351	-0.219	-0.277
-236.859	10.065	-0.168	0.126
-235.844	-154.847	-0.353	-0.023
-234.830	-200.000	-0.066	0.941
-233.815	-105.532	-0.906	0.204
-232.800	691.385	-0.223	0.578
-231.786	-74.184	-0.362	-0.130
-230.771	-43.361	-0.356	-0.178
-229.757	800.000	-0.047	0.151
-228.742	-101.215	0.175	0.042
-227.727	-102.167	-0.840	-0.200
-226.713	-200.000	-0.018	-0.166
-225.698	-76.655	0.448	0.156
-224.684	12.542	-0.644	-0.492
-223.669	-142.590	0.558	-0.054
-222.655	-200.000	-0.069	-0.315
-221.640	-152.505	0.905	-0.064
-220.625	218.556	0.173	-0.273
-219.611	76.558	0.103	0.108
-218.596	-118.199	-0.436	-0.077
-217.582	-111.262	-0.186	-0.038
-216.567	331.485	0.355	-0.678
-215.552	179.147	0.161	0.234
-214.538	126.086	0.164	0.205
-213.523	269.289	0.088	-0.154
-212.509	9.223	-0.531	-0.397
-211.494	800.000	-0.024	-0.075
-210.479	-118.306	0.399	0.070
-209.465	533.456	-0.283	0.662
-208.450	79.670	-0.149	-0.158
-207.436	-15.898	0.545	0.343
-206.421	335.511	0.168	-0.322
-205.406	47.295	0.117	-0.108
-204.392	-149.174	0.446	-0.035
-203.377	-0.266	-0.284	0.199
-202.363	216.158	-0.103	0.162
-201.348	-159.044	0.740	0.041
-200.333	45.620	-0.528	-0.482
-199.319	139.915	-0.259	0.338
-198.304	29.310	0.848	-0.712
-197.290	437.074	0.250	-0.539
-196.275	800.000	0.083	0.252
-195.260	232.253	-0.214	0.346
-194.246	-200.000	-0.157	-0.711
-193.231	-200.000	0.140	0.646
-192.217	451.191	0.325	-0.710
-191.202	-200.000	0.014	-0.339
-190.187	-160.407	-0.102	-0.005
-189.173	-29.964	0.546	0.307
-188.158	800.000	-0.086	0.372
-187.144	54.412	-0.390	-0.371
-186.129	-61.663	0.656	0.272
-185.114	-132.973	0.540	-0.068
-184.100	800.000	-0.178	-0.582
-183.085	320.643	0.406	0.762
-182.071	150.853	-0.600	0.806
-181.056	136.142	-0.472	-0.607
-180.042	361.752	0.467	-0.924
-179.027	-158.638	0.193	-0.011
-178.012	-149.582	0.589	0.046
-176.998	5.247	-0.577	-0.420
-175.983	-200.000	-0.093	-0.633
-174.969	29.669	-0.669	-0.563
-173.954	437.426	0.146	-0.315
-172.939	77.067	0.485	-0.509
-171.925	43.824	-0.210	-0.190
-170.910	-102.248	-0.485	0.115
-169.896	80.644	0.190	-0.202
-168.881	256.489	0.402	-0.681
-167.866	-79.298	-0.947	-0.317
-166.852	364.058	0.296	0.587
-165.837	-200.000	0.805	0.003
-164.823	-55.745	-0.471	-0.208
-163.808	452.431	0.354	-0.773
-162.793	68.062	-0.755	0.762
-161.779	12.827	-0.303	-0.231
-160.764	-184.600	0.280	-0.004
-159.750	-200.000	0.114	0.590
-158.735	127.608	0.370	0.464
-157.720	92.609	-0.131	-0.146
-156.706	31.699	-0.476	-0.404
-155.691	-109.942	0.478	-0.099
-154.677	-200.000	-0.054	-0.768
-153.662	638.804	-0.104	-0.260
-152.647	59.932	-0.389	0.379
-151.633	-161.249	0.521	-0.027
-150.618	163.393	0.231	0.320
-149.604	-79.537	0.158	-0.053
-148.589	-95.116	1.348	0.359
-147.574	-82.988	0.451	-0.143
-146.560	-125.999	-0.363	-0.054
-145.545	-200.000	0.140	-1.015
-144.531	309.361	0.329	0.607
-143.516	496.606	0.289	0.655
-142.502	709.078	0.212	-0.554
-141.487	72.784	0.546	0.562
-140.472	163.579	-0.328	0.455
-139.458	800.000	-0.019	-0.065
-138.443	-200.000	0.056	0.329
-137.429	-200.000	0.021	-0.247
-136.414	-200.000	-0.065	-0.342
-135.399	800.000	0.055	-0.180
-134.385	-200.000	-0.096	-1.055
-133.370	800.000	-0.082	-0.293
-132.356	-53.826	-0.895	0.402
-131.341	-101.565	0.245	0.059
-130.326	38.440	-0.250	-0.220
-129.312	39.916	-0.391	0.346
-128.297	-200.000	-0.117	-0.615
-127.283	-81.838	0.738	-0.238
-126.268	-200.000	0.107	0.587
-125.253	125.387	0.166	0.206
-124.239	-109.624	0.259	0.054
-123.224	632.126	0.300	-0.748
-122.210	104.088	-0.327	-0.379
-121.195	99.036	0.077	0.088
-120.180	-63.734	-0.609	-0.246
-119.166	261.656	-0.546	-0.931
-118.151	800.000	-0.053	0.218
-117.137	-200.000	0.021	-0.326
-116.122	-140.474	1.026	-0.105
-115.107	-200.000	0.024	0.471
-114.093	-0.427	-0.370	-0.259
-113.078	-163.400	-0.564	-0.026
-112.064	-156.271	0.975	-0.060
-111.049	82.747	0.429	0.459
-110.034	515.484	-0.290	0.666
-109.020	-29.784	-0.285	-0.160
-108.005	-116.772	-0.162	-0.029
-106.991	-46.821	0.642	-0.309
-105.976	302.915	0.158	-0.287
-104.962	-138.042	-0.675	-0.074
-103.947	-26.262	-0.722	-0.417
-102.932	-79.379	0.987	0.329
-101.918	295.255	0.319	0.574
-100.903	-71.390	-0.233	-0.086
-99.889	800.000	-0.166	-0.679
-98.874	203.923	-0.066	0.101
-97.859	-200.000	-0.130	0.930
-96.845	-80.648	0.536	-0.176
-95.830	34.534	-0.387	-0.333
-94.816	-81.930	1.107	-0.357
-93.801	800.000	0.176	0.501
-92.786	354.590	0.120	-0.235
-91.772	-200.000	-0.016	-0.630
-90.757	-31.762	-0.613	0.338
-89.743	109.074	-0.550	0.647
-88.728	-24.525	0.439	0.257
-87.713	623.446	-0.130	-0.323
-86.699	-200.000	0.038	-0.303
-85.684	-200.000	0.028	0.762
-84.670	-41.260	-0.314	-0.159
-83.655	-49.732	-0.522	0.244
-82.640	800.000	0.136	-0.385
-81.626	-99.008	-0.365	0.091
-80.611	-22.659	0.326	0.194
-79.597	719.404	-0.280	-0.732
-78.582	800.000	0.096	-0.392
-77.567	-62.765	0.810	0.330
-76.553	-147.495	-0.560	-0.046
-75.538	-190.344	-0.612	-0.007
-74.524	800.000	0.158	0.595
-73.509	-80.583	0.581	0.190
-72.494	172.670	0.161	0.229
-71.480	-112.650	-0.540	-0.106
-70.465	8.302	0.451	0.334
-69.451	708.060	0.156	-0.404
-68.436	25.927	-0.159	0.130
-67.422	-138.705	-0.081	0.009
-66.407	-42.428	-0.528	0.265
-65.392	646.369	0.213	0.535
-64.378	118.007	-0.359	0.435
-63.363	-173.146	-0.992	-0.030
-62.349	-96.542	0.544	-0.141
-61.334	-2.239	-1.506	-1.039
-60.319	-13.685	0.092	0.058
-59.305	144.105	-0.601	-0.788
-58.290	309.484	0.316	0.581
-57.276	80.426	1.191	1.261
-56.261	-200.000	95.871	577.460
-55.246	635.958	1381.026	3445.606
-54.232	196.392	2564.863	3838.778
-53.217	112.634	2262.784	2692.202
-52.203	43.005	1888.864	1692.858
-51.188	37.074	1682.507	1463.280
-50.173	34.413	1639.086	1405.865
-49.159	53.170	1688.014	1588.460
-48.144	54.094	1704.590	1610.898
-47.130	36.801	1662.025	1443.200
-46.115	33.636	1648.962	1408.344
-45.100	33.688	1643.823	1404.285
-44.086	33.632	1640.902	1401.324
-43.071	33.679	1638.719	1399.750
-42.057	33.776	1635.749	1397.869
-41.042	33.550	1633.917	1394.583
-40.027	33.687	1632.728	1394.522
-39.013	33.417	1631.362	1391.314
-37.998	33.658	1628.237	1390.360
-36.984	33.687	1627.402	1389.809
-35.969	33.550	1626.930	1388.350
-34.954	34.071	1622.285	1388.135
-33.940	33.745	1622.755	1386.098
-32.925	33.728	1620.097	1383.647
-31.911	33.490	1619.026	1380.943
-30.896	33.496	1618.438	1380.434
-29.881	33.838	1614.845	1379.797
-28.867	33.908	1613.167	1378.820
-27.852	33.648	1613.488	1377.150
-26.838	33.505	1612.012	1374.798
-25.823	33.718	1609.637	1374.259
-24.809	33.658	1607.797	1372.200
-23.794	33.538	1606.696	1370.339
-22.779	34.089	1604.531	1372.414
-21.765	33.876	1603.442	1369.896
-20.750	33.629	1602.235	1367.025
-19.736	33.940	1600.245	1367.514
-18.721	33.822	1598.050	1364.740
-17.706	33.830	1597.377	1364.168
-16.692	34.061	1595.398	1364.076
-15.677	33.940	1595.360	1363.123
-14.663	33.873	1593.359	1360.882
-13.648	33.787	1592.132	1359.162
-12.633	33.813	1590.546	1357.936
-11.619	33.715	1589.982	1356.702
-10.604	33.938	1587.072	1355.761
-9.590	33.763	1586.444	1353.919
-8.575	33.710	1584.797	1352.080
-7.560	33.889	1583.692	1352.364
-6.546	33.817	1582.162	1350.492
-5.531	33.618	1580.703	1347.777
-4.517	33.938	1579.594	1349.047
-3.502	33.762	1579.348	1347.535
-2.487	33.696	1578.219	1346.048
-1.473	33.436	1565.824	1333.594
-0.458	30.547	1545.680	1296.276
0.556	27.423	1546.938	1260.823
1.571	25.081	1569.440	1262.576
2.586	24.351	1582.623	1267.884
3.600	21.775	1528.268	1206.524
4.615	12.841	1417.550	1061.721
5.629	4.477	1354.369	962.647
6.644	2.991	1346.230	947.621
7.659	2.896	1345.105	946.162
8.673	2.761	1344.404	944.751
9.688	3.032	1342.476	944.978
10.702	2.889	1339.348	941.816
11.717	6.258	1345.158	966.542
12.731	15.879	1365.064	1040.490
13.746	24.893	1378.745	1106.826
14.761	27.584	1381.886	1125.897
15.775	27.974	1382.587	1128.781
16.790	28.066	1382.533	1129.202
17.804	27.918	1381.827	1127.613
18.819	28.103	1382.250	1129.002
19.834	28.429	1380.150	1129.195
20.848	28.313	1379.765	1128.069
21.863	28.283	1378.769	1126.969
22.877	28.370	1379.013	1127.605
23.892	28.623	1377.272	1127.632
24.907	28.520	1376.382	1126.172
25.921	28.558	1375.848	1125.871
26.936	28.245	1375.962	1123.941
27.950	28.257	1375.080	1123.197
28.965	28.376	1373.251	1122.328
29.980	28.325	1371.523	1120.508
30.994	28.406	1369.786	1119.485
32.009	28.399	1369.682	1119.259
33.023	28.645	1366.964	1118.439
34.038	28.304	1366.943	1116.240
35.053	28.294	1366.800	1115.967
36.067	28.608	1364.346	1115.771
37.082	28.376	1363.235	1113.355
38.096	28.505	1364.073	1114.728
39.111	28.525	1361.574	1112.708
40.126	28.556	1361.856	1113.030
41.140	28.205	1361.459	1110.474
42.155	28.754	1359.818	1112.367
43.169	28.487	1360.624	1111.308
44.184	28.340	1361.345	1110.903
45.199	28.264	1361.171	1110.205
46.213	28.604	1358.580	1110.051
47.228	28.323	1358.806	1108.434
48.242	28.341	1357.522	1107.398
49.257	28.326	1356.614	1106.468
50.271	28.480	1354.887	1105.894
51.286	28.395	1353.393	1104.067
52.301	28.663	1351.223	1103.807
53.315	28.573	1350.841	1102.859
54.330	28.627	1349.637	1102.104
55.344	28.362	1349.780	1100.530
56.359	28.632	1347.892	1100.509
57.374	28.074	1347.734	1096.941
58.388	28.216	1347.438	1097.454
59.403	28.380	1346.341	1097.445
60.417	28.412	1346.346	1097.545
61.432	28.393	1345.066	1096.290
62.447	28.539	1343.331	1095.649
63.461	28.630	1343.278	1096.052
64.476	28.305	1342.403	1093.301
65.490	28.422	1340.870	1092.654
66.505	28.349	1339.642	1091.124
67.520	28.330	1338.578	1090.045
68.534	28.464	1337.050	1089.504
69.549	28.411	1336.344	1088.514
70.563	28.499	1335.861	1088.548
71.578	28.318	1334.768	1086.485
72.593	28.303	1334.621	1086.182
73.607	28.528	1333.268	1086.317
74.622	28.308	1333.047	1084.739
75.636	28.307	1331.362	1083.269
76.651	28.498	1330.818	1083.857
77.666	28.168	1331.456	1082.327
78.680	28.385	1329.505	1081.929
79.695	28.346	1329.228	1081.379
80.709	28.562	1327.877	1081.453
81.724	28.421	1328.345	1080.912
82.739	28.410	1327.230	1079.842
83.753	28.494	1325.557	1078.881
84.768	28.604	1323.682	1077.903
85.782	28.480	1323.336	1076.798
86.797	28.472	1322.462	1075.947
87.812	28.621	1321.480	1075.923
88.826	28.300	1321.119	1073.654
89.841	28.236	1320.769	1072.899
90.855	28.421	1318.358	1071.930
91.870	28.535	1317.878	1072.107
92.884	28.562	1317.036	1071.487
93.899	28.601	1315.808	1070.619
94.914	28.584	1314.731	1069.552
95.928	28.500	1314.197	1068.530
96.943	28.431	1314.095	1067.952
97.957	28.594	1312.977	1067.897
98.972	28.530	1311.973	1066.617
99.987	28.590	1310.773	1065.895
101.001	28.417	1309.832	1064.033
102.016	28.250	1309.567	1062.752
103.030	28.399	1308.868	1062.957
104.045	28.488	1308.770	1063.297
105.060	28.694	1306.247	1062.344
106.074	28.460	1306.105	1060.781
107.089	28.452	1304.773	1059.559
108.103	28.543	1302.690	1058.297
109.118	28.634	1303.083	1059.052
110.133	28.267	1302.656	1056.493
111.147	28.513	1300.313	1055.915
112.162	28.807	1299.840	1057.130
113.176	28.736	1298.508	1055.545
114.191	28.825	1297.216	1054.914
115.206	28.654	1296.840	1053.529
116.220	28.448	1296.228	1051.761
117.235	28.492	1295.835	1051.601
118.249	28.485	1294.487	1050.372
119.264	28.578	1292.930	1049.548
120.279	28.521	1293.136	1049.298
121.293	28.440	1291.559	1047.459
122.308	28.650	1291.671	1048.660
123.322	28.604	1289.960	1046.915
124.337	28.512	1289.114	1045.613
125.352	28.496	1289.014	1045.348
126.366	28.525	1287.730	1044.376
127.381	28.649	1286.861	1044.286
128.395	28.368	1286.692	1042.459
129.410	28.571	1285.600	1042.634
130.424	28.623	1284.505	1041.951
131.439	28.270	1284.412	1039.778
132.454	28.519	1283.257	1040.165
133.468	28.578	1282.431	1039.733
134.483	28.379	1282.141	1038.282
135.497	28.481	1281.290	1038.080
136.512	28.610	1279.055	1036.907
137.527	28.501	1279.625	1036.660
138.541	28.554	1277.587	1035.213
139.556	28.463	1276.545	1033.766
140.570	28.560	1275.680	1033.520
141.585	28.397	1274.516	1031.570
142.600	28.456	1272.592	1030.252
143.614	28.593	1272.984	1031.248
144.629	28.317	1271.902	1028.729
145.643	28.736	1269.817	1029.301
146.658	28.455	1270.224	1027.963
147.673	28.568	1268.478	1027.094
148.687	28.548	1267.857	1026.390
149.702	28.529	1266.885	1025.404
150.716	28.428	1265.489	1023.618
151.731	28.557	1264.875	1023.750
152.746	28.664	1263.506	1023.152
153.760	28.664	1262.881	1022.551
154.775	28.736	1261.276	1021.561
155.789	28.715	1260.945	1021.087
156.804	28.430	1261.188	1019.608
157.819	28.776	1258.427	1019.209
158.833	28.738	1258.016	1018.575
159.848	28.791	1257.188	1018.104
160.862	28.801	1256.814	1017.769
161.877	28.921	1255.818	1017.538
162.892	28.799	1255.557	1016.562
163.906	28.881	1255.059	1016.518
164.921	28.570	1253.828	1013.713
165.935	28.626	1253.806	1013.918
166.950	28.678	1252.550	1013.097
167.964	28.655	1251.991	1012.428
168.979	28.912	1251.380	1013.264
169.994	28.727	1251.102	1011.931
171.008	28.855	1249.783	1011.477
172.023	28.691	1249.149	1009.972
173.037	28.673	1249.002	1009.666
174.052	28.966	1247.226	1009.750
175.067	28.938	1246.827	1009.181
176.081	29.149	1245.121	1008.870
177.096	28.787	1246.149	1007.630
178.110	28.913	1244.909	1007.227
179.125	28.816	1244.072	1005.928
180.140	28.998	1243.072	1006.025
181.154	28.519	1242.988	1003.252
182.169	28.517	1241.300	1001.785
183.183	28.795	1240.273	1002.388
184.198	28.617	1238.858	1000.187
185.213	28.633	1238.031	999.514
186.227	29.017	1237.019	1000.698
187.242	28.856	1236.122	999.013
188.256	28.843	1235.042	997.977
189.271	28.783	1234.740	997.319
190.286	28.705	1234.159	996.338
191.300	28.672	1233.428	995.482
192.315	28.878	1232.244	995.555
193.329	29.151	1231.806	996.587
194.344	28.751	1232.389	994.808
195.359	28.933	1231.474	994.964
196.373	28.965	1231.012	994.676
197.388	28.565	1230.780	992.240
198.402	28.575	1230.889	992.292
199.417	29.007	1230.513	994.237
200.432	28.682	1230.379	992.283
201.446	28.756	1229.764	992.101
202.461	28.623	1228.143	989.985
203.475	28.724	1227.524	989.944
204.490	29.049	1225.415	989.904
205.504	28.776	1225.804	988.664
206.519	28.936	1223.911	987.909
207.534	28.552	1224.143	985.943
208.548	28.790	1222.078	985.470
209.563	28.808	1221.882	985.321
210.577	28.798	1221.145	984.587
211.592	28.733	1220.684	983.778
212.607	28.888	1218.926	983.104
213.621	29.024	1218.424	983.339
214.636	29.154	1217.062	982.850
215.650	29.060	1217.247	982.407
216.665	28.893	1216.016	980.440
217.680	28.977	1214.848	979.858
218.694	29.029	1213.819	979.218
219.709	29.034	1213.934	979.249
220.723	29.021	1213.390	978.657
221.738	28.886	1212.853	977.418
222.753	28.924	1211.733	976.630
223.767	29.014	1211.695	976.992
224.782	29.387	1209.576	977.173
225.796	29.079	1209.949	975.754
226.811	29.055	1209.468	975.153
227.826	29.047	1209.042	974.683
228.840	29.083	1208.492	974.345
229.855	29.016	1207.301	972.942
230.869	29.061	1207.297	973.091
231.884	29.283	1205.799	972.967
232.899	29.162	1205.871	972.303
233.913	29.061	1204.735	970.767
234.928	29.417	1204.150	972.087
235.942	29.047	1203.882	969.833
236.957	29.127	1202.818	969.313
237.972	28.983	1202.639	968.324
238.986	28.967	1202.057	967.688
240.001	29.232	1200.983	968.131
241.015	28.991	1200.345	966.261
242.030	29.283	1200.311	967.684
243.045	29.071	1199.049	965.470
244.059	29.432	1197.868	966.326
245.074	29.412	1196.658	965.157
246.088	29.178	1196.711	963.890
247.103	29.247	1195.889	963.505
248.117	29.164	1195.672	962.807
249.132	29.382	1193.894	962.430
250.147	29.270	1193.483	961.429
251.161	29.341	1193.029	961.350
252.176	29.416	1192.570	961.283
253.190	29.498	1190.967	960.336
254.205	29.279	1191.633	959.647
255.220	29.118	1190.796	958.048
256.234	29.210	1190.780	958.432
257.249	29.346	1189.868	958.320
258.263	29.466	1188.434	957.703
259.278	29.377	1188.167	956.940
260.293	29.296	1188.368	956.595
261.307	29.376	1187.621	956.324
262.322	29.671	1186.269	956.680
263.336	29.419	1185.881	954.980
264.351	29.244	1186.318	954.338
265.366	29.325	1184.438	953.161
266.380	29.463	1183.668	953.170
267.395	29.522	1183.258	953.058
268.409	29.305	1182.685	951.396
269.424	29.289	1181.867	950.569
270.439	29.457	1181.673	951.195
271.453	29.530	1181.221	951.127
272.468	29.465	1179.747	949.520
273.482	29.356	1179.118	948.367
274.497	29.242	1179.558	948.051
275.512	29.357	1178.597	947.785
276.526	29.256	1179.261	947.717
277.541	29.713	1176.753	947.960
278.555	29.492	1176.146	946.255
279.570	29.624	1176.041	946.763
280.585	29.534	1174.570	945.033
281.599	29.434	1173.852	943.860
282.614	29.365	1173.327	943.003
283.628	29.646	1171.836	943.157
284.643	29.741	1170.487	942.474
285.657	29.358	1170.561	940.496
286.672	29.683	1169.706	941.382
287.687	29.460	1169.237	939.786
288.701	29.614	1168.924	940.233
289.716	29.534	1168.141	939.115
290.730	29.669	1167.423	939.142
291.745	29.472	1167.980	938.504
292.760	29.692	1165.818	937.798
293.774	29.592	1165.529	936.976
294.789	29.472	1165.136	935.972
295.803	29.770	1163.724	936.259
296.818	29.493	1164.768	935.617
297.833	29.597	1162.557	934.282
298.847	29.634	1162.288	934.170
299.862	29.690	1160.688	933.082
300.876	29.697	1161.367	933.582
301.891	29.535	1161.102	932.467
302.906	29.660	1159.852	932.015
303.920	29.723	1159.535	931.995
304.935	29.799	1158.114	931.154
305.949	30.036	1157.324	931.629
306.964	30.021	1156.773	931.025
307.979	29.686	1156.976	929.419
308.993	29.629	1156.834	928.940
310.008	29.583	1154.925	927.091
311.022	29.707	1154.799	927.533
312.037	29.844	1153.805	927.338
313.052	29.860	1152.569	926.344
314.066	29.601	1151.288	923.939
315.081	29.970	1150.906	925.390
316.095	29.846	1151.093	924.842
317.110	29.861	1150.207	924.119
318.125	29.847	1149.766	923.618
319.139	30.109	1149.112	924.316
320.154	30.022	1148.339	923.177
321.168	29.951	1147.708	922.234
322.183	30.026	1147.595	922.438
323.197	29.746	1147.029	920.505
324.212	29.725	1146.792	920.131
325.227	30.059	1145.466	920.645
326.241	29.989	1144.643	919.556
327.256	29.831	1145.021	918.994
328.270	29.976	1143.607	918.495
329.285	29.841	1143.274	917.476
330.300	29.892	1142.698	917.187
331.314	29.936	1141.896	916.681
332.329	30.004	1140.111	915.502
333.343	29.979	1139.705	914.972
334.358	29.968	1139.060	914.320
335.373	30.227	1137.879	914.566
336.387	30.124	1138.127	914.179
337.402	30.198	1137.168	913.691
338.416	30.003	1136.967	912.488
339.431	30.372	1135.676	913.187
340.446	30.171	1135.914	912.306
341.460	30.079	1135.004	911.042
342.475	30.318	1133.382	910.832
343.489	30.283	1132.236	909.661
344.504	30.089	1132.152	908.564
345.519	30.126	1131.552	908.181
346.533	30.211	1130.355	907.558
347.548	30.247	1129.942	907.319
348.562	30.300	1128.255	906.142
349.577	30.152	1127.489	904.729
350.592	30.152	1127.669	904.793
351.606	30.037	1127.222	903.790
352.621	30.110	1127.079	903.952
353.635	30.017	1126.759	903.164
354.650	30.165	1124.658	902.119
355.665	30.285	1124.147	902.213
356.679	30.390	1124.367	902.822
357.694	30.395	1123.558	902.113
358.708	30.431	1122.106	901.043
359.723	30.463	1122.140	901.146
360.738	30.218	1121.008	898.971
361.752	30.106	1121.796	898.979
362.767	30.375	1120.137	898.875
363.781	30.605	1119.190	899.148
364.796	30.623	1119.184	899.150
365.810	30.317	1119.214	897.616
366.825	30.406	1118.782	897.617
367.840	30.565	1117.854	897.563
368.854	30.474	1117.276	896.577
369.869	30.542	1116.992	896.599
370.883	30.349	1115.492	894.387
371.898	30.557	1115.468	895.288
372.913	30.460	1114.874	894.269
373.927	30.324	1115.047	893.671
374.942	30.710	1114.271	894.829
375.956	30.608	1112.806	893.082
376.971	30.420	1111.968	891.427
377.986	30.691	1111.501	892.274
379.000	30.693	1111.563	892.257
380.015	30.588	1111.014	891.232
381.029	30.641	1110.739	891.185
382.044	30.702	1109.247	890.201
383.059	30.443	1108.909	888.616
384.073	30.646	1107.537	888.404
385.088	30.865	1107.491	889.337
386.102	30.805	1106.288	888.006
387.117	30.741	1105.647	887.106
388.132	30.492	1105.240	885.515
389.146	30.297	1105.517	884.728
390.161	30.451	1103.919	884.103
391.175	30.746	1102.312	884.141
392.190	30.750	1102.479	884.215
393.205	30.638	1101.902	883.144
394.219	30.703	1100.981	882.637
395.234	31.000	1099.676	882.920
396.248	31.312	1098.148	883.087
397.263	30.885	1098.634	881.381
398.278	30.825	1098.695	881.068
399.292	30.998	1098.103	881.335
400.307	31.011	1096.864	880.322
401.321	30.836	1096.100	878.804
402.336	30.656	1095.599	877.479
403.350	30.755	1095.255	877.589
404.365	30.853	1094.773	877.588
405.380	31.271	1094.324	879.120
406.394	30.907	1093.471	876.643
407.409	31.179	1091.746	876.461
408.423	31.196	1091.605	876.351
409.438	31.028	1090.736	874.789
410.453	30.934	1090.438	874.028
411.467	31.050	1089.298	873.580
412.482	31.051	1089.126	873.371
413.496	31.297	1087.729	873.323
414.511	31.372	1087.126	873.114
415.526	31.025	1087.796	871.951
416.540	30.996	1087.077	871.161
417.555	31.090	1087.157	871.587
418.569	30.820	1086.960	870.093
419.584	31.041	1085.850	870.160
420.599	30.982	1086.211	870.096
421.613	151.946	1406.675	1792.432
422.628	140.420	1453.397	1792.526
