DTS Sentinel unit serial number:	SN413079Multiplexer serial number:	ORYXHardware model number:	OX4-SRSoftware version number:	ORYX F/W v4.00 Oryx Data Collector v3.7.2.0data status	okinstallation	princeton_trtdifferential loss correction	single-endedforward channel	channel 2reverse channel	N/Adate	2019/09/12time	23:19:35forward acquisition time	60.00reverse acquisition time	0.00gamma	496.2192k internal	0.2332k external	0.2332temperature offset calibration	1.0169default loss term (dB/km)	0.3790temperature slope calibration	1.0000multiplexer offset coefficient	1.0000multiplexer slope coefficient	1.0000fibre end	0.00T internal ref (°C)	29.11T ext. ref 1 (°C)	3.73T ext. ref 2 (°C)	23.68length (m)	temperature (°C)	Stokes	anti-Stokes-747.200	-200.000	0.007	0.177
-746.185	-26.944	-0.212	0.125
-745.171	-163.393	0.375	-0.018
-744.156	87.637	-0.065	0.072
-743.142	46.716	0.282	0.264
-742.127	-171.248	-0.070	-0.002
-741.112	-19.117	0.237	0.148
-740.098	-16.747	-0.069	-0.044
-739.083	-36.145	0.319	-0.173
-738.069	-76.091	-0.418	0.148
-737.054	139.116	-0.105	0.139
-736.039	705.019	-0.032	0.084
-735.025	-200.000	-0.001	-0.088
-734.010	-71.642	-0.322	-0.121
-732.996	-200.000	0.005	-0.078
-731.981	-89.047	-0.397	-0.118
-730.966	-96.191	0.220	-0.059
-729.952	4.434	-0.124	-0.091
-728.937	-200.000	0.005	-0.340
-727.923	800.000	0.085	0.244
-726.908	-94.135	-0.257	-0.071
-725.894	-14.396	-0.283	-0.183
-724.879	-140.246	0.037	-0.004
-723.864	-200.000	0.047	0.223
-722.850	-200.000	-0.013	-0.089
-721.835	-117.502	-0.251	-0.046
-720.821	635.718	0.077	-0.197
-719.806	134.602	-0.159	-0.208
-718.791	148.594	0.202	-0.274
-717.777	364.560	-0.086	0.173
-716.762	63.793	0.248	-0.250
-715.748	-200.000	-0.041	-0.185
-714.733	65.270	-0.149	-0.152
-713.718	800.000	0.012	0.036
-712.704	-195.638	-0.348	-0.003
-711.689	800.000	0.073	-0.220
-710.675	-200.000	0.022	0.113
-709.660	-186.442	0.288	-0.004
-708.645	-200.000	-0.013	0.194
-707.631	800.000	-0.025	-0.073
-706.616	-37.921	0.304	0.162
-705.602	-32.611	-0.115	0.064
-704.587	-200.000	0.025	0.153
-703.572	22.360	-0.034	0.028
-702.558	727.652	-0.080	0.214
-701.543	-92.665	-0.119	0.034
-700.529	166.928	0.109	0.155
-699.514	-43.419	-0.197	-0.100
-698.499	548.788	-0.036	-0.086
-697.485	109.111	-0.015	0.018
-696.470	-96.927	0.330	-0.087
-695.456	87.230	-0.184	0.205
-694.441	40.465	0.061	0.055
-693.426	697.806	-0.018	-0.047
-692.412	-128.250	0.619	0.089
-691.397	484.465	-0.156	-0.356
-690.383	-21.596	-0.175	-0.107
-689.368	-116.171	-0.324	-0.060
-688.354	-155.699	0.092	0.006
-687.339	145.330	0.114	0.153
-686.324	-85.795	-0.276	-0.086
-685.310	46.661	0.296	0.276
-684.295	-42.950	-0.248	-0.126
-683.281	91.187	-0.130	-0.147
-682.266	31.113	-0.114	0.098
-681.251	163.795	0.056	-0.080
-680.237	220.130	0.103	0.165
-679.222	-52.660	-0.101	0.047
-678.208	20.821	-0.274	-0.223
-677.193	-31.001	-0.062	-0.035
-676.178	171.785	-0.143	0.205
-675.164	800.000	-0.051	0.210
-674.149	-41.732	-0.120	-0.062
-673.135	8.073	-0.289	0.217
-672.120	-68.784	0.131	-0.051
-671.105	-99.059	-0.278	0.071
-670.091	-200.000	-0.016	0.225
-669.076	800.000	-0.012	-0.045
-668.062	696.027	0.175	0.460
-667.047	-57.871	-0.160	0.070
-666.032	179.872	0.161	0.237
-665.018	-11.157	-0.278	0.184
-664.003	232.671	-0.096	-0.159
-662.989	58.531	-0.218	-0.214
-661.974	-59.248	-0.116	-0.050
-660.959	84.588	-0.115	-0.127
-659.945	401.147	-0.085	-0.179
-658.930	-0.751	0.143	-0.102
-657.916	-200.000	-0.065	-0.310
-656.901	-112.671	0.140	0.028
-655.886	-200.000	0.006	-0.115
-654.872	468.871	-0.068	-0.153
-653.857	-200.000	-0.017	-0.245
-652.843	-200.000	-0.013	0.197
-651.828	109.540	-0.188	-0.225
-650.814	128.734	0.147	-0.188
-649.799	7.486	0.153	-0.114
-648.784	5.027	-0.255	-0.188
-647.770	-96.416	0.375	-0.099
-646.755	-200.000	-0.059	-0.326
-645.741	493.847	0.078	-0.179
-644.726	-200.000	-0.010	-0.049
-643.711	163.309	-0.276	0.388
-642.697	-102.569	-0.250	-0.060
-641.682	-145.398	0.293	-0.026
-640.668	-168.002	-0.197	-0.008
-639.653	-200.000	0.036	0.340
-638.638	-96.054	-0.124	-0.033
-637.624	155.750	-0.126	0.174
-636.609	138.361	0.219	0.288
-635.595	800.000	-0.041	0.158
-634.580	-88.992	0.230	0.068
-633.565	610.871	-0.197	-0.493
-632.551	800.000	0.043	0.147
-631.536	61.152	-0.106	-0.106
-630.522	153.858	0.093	-0.128
-629.507	27.741	-0.022	-0.018
-628.492	-200.000	0.041	0.186
-627.478	-51.131	-0.254	-0.119
-626.463	27.787	-0.245	0.206
-625.449	-200.000	0.030	-0.139
-624.434	-41.674	-0.089	0.046
-623.419	-75.737	-0.374	0.133
-622.405	687.200	0.018	-0.047
-621.390	-45.719	0.247	-0.122
-620.376	382.065	-0.083	-0.170
-619.361	142.267	0.247	-0.328
-618.346	161.065	-0.128	-0.179
-617.332	-69.552	-0.456	-0.175
-616.317	-200.000	-0.017	0.376
-615.303	800.000	-0.089	-0.276
-614.288	-200.000	-0.026	-0.183
-613.273	-20.260	0.099	-0.061
-612.259	-200.000	-0.023	0.115
-611.244	57.718	-0.214	-0.210
-610.230	53.469	-0.096	0.092
-609.215	39.739	-0.196	-0.176
-608.201	-111.781	-0.311	0.063
-607.186	-43.328	-0.170	0.086
-606.171	44.643	0.209	-0.192
-605.157	-200.000	0.020	-0.186
-604.142	-3.841	-0.218	-0.152
-603.128	192.928	0.084	-0.127
-602.113	-64.191	0.078	0.032
-601.098	54.012	-0.120	-0.115
-600.084	-65.056	0.294	0.119
-599.069	169.459	0.058	-0.083
-598.055	-123.245	0.291	0.047
-597.040	-123.274	0.105	0.017
-596.025	-133.510	0.112	0.014
-595.011	23.310	-0.102	0.083
-593.996	61.825	0.299	0.298
-592.982	92.017	-0.111	-0.125
-591.967	-93.801	-0.230	0.063
-590.952	8.009	0.139	-0.104
-589.938	-174.662	-0.418	0.012
-588.923	-131.123	-0.413	-0.055
-587.909	159.722	-0.115	-0.159
-586.894	-113.547	0.124	0.024
-585.879	-74.617	0.224	-0.081
-584.865	-52.766	0.222	-0.102
-583.850	-195.177	0.139	0.001
-582.836	-200.000	0.017	-0.096
-581.821	452.324	0.081	0.180
-580.806	-200.000	-0.056	0.305
-579.792	450.244	-0.062	-0.136
-578.777	111.406	0.155	0.186
-577.763	275.528	-0.157	0.278
-576.748	137.304	-0.167	0.218
-575.733	800.000	0.064	0.279
-574.719	-160.844	0.045	0.002
-573.704	-200.000	0.079	0.388
-572.690	104.887	0.343	-0.404
-571.675	-200.000	-0.023	-0.191
-570.661	2.914	-0.233	0.169
-569.646	-105.577	-0.258	-0.059
-568.631	-200.000	-0.010	0.274
-567.617	-200.000	0.008	-0.094
-566.602	14.000	0.243	0.189
-565.588	800.000	0.090	-0.262
-564.573	44.201	0.179	-0.164
-563.558	800.000	0.074	0.208
-562.544	-153.174	-0.178	0.012
-561.529	-184.358	-0.380	-0.006
-560.515	-158.350	-0.227	0.013
-559.500	-101.583	0.200	0.049
-558.485	-163.961	0.192	-0.009
-557.471	-35.088	-0.055	0.030
-556.456	-10.916	0.364	-0.240
-555.442	255.869	0.109	-0.187
-554.427	-19.886	0.349	-0.215
-553.412	-137.582	-0.246	0.028
-552.398	-34.358	-0.050	0.027
-551.383	94.313	-0.175	0.199
-550.369	357.293	-0.084	0.167
-549.354	314.362	0.107	0.201
-548.339	-17.950	0.136	-0.085
-547.325	-200.000	0.022	0.167
-546.310	-130.038	0.029	0.004
-545.296	-200.000	0.000	-0.146
-544.281	800.000	0.068	0.267
-543.266	48.415	0.100	-0.093
-542.252	-6.261	-0.096	-0.066
-541.237	-200.000	0.005	0.178
-540.223	-6.159	0.094	0.064
-539.208	-159.172	0.306	-0.017
-538.193	-91.669	-0.241	-0.068
-537.179	16.373	0.135	0.107
-536.164	493.781	-0.102	0.234
-535.150	279.285	-0.164	0.293
-534.135	149.758	0.074	-0.100
-533.121	-200.000	0.043	0.421
-532.106	230.079	-0.087	0.141
-531.091	-200.000	0.003	-0.127
-530.077	490.095	0.129	-0.293
-529.062	-11.900	-0.159	-0.104
-528.048	-110.129	-0.160	-0.033
-527.033	-200.000	-0.025	0.202
-526.018	81.269	0.244	0.263
-525.004	-160.070	-0.248	-0.013
-523.989	-74.217	-0.192	-0.069
-522.975	-38.480	0.150	0.079
-521.960	-77.956	0.100	-0.034
-520.945	-27.999	0.080	0.046
-519.931	-23.177	-0.242	0.145
-518.916	-130.262	0.292	0.040
-517.902	180.074	0.163	-0.238
-516.887	215.609	-0.133	-0.211
-515.872	153.254	-0.133	0.182
-514.858	-6.675	0.085	0.058
-513.843	305.357	-0.148	-0.274
-512.829	-7.139	0.067	-0.045
-511.814	115.618	0.209	0.254
-510.799	-27.453	0.433	-0.251
-509.785	-200.000	-0.012	0.067
-508.770	6.998	0.149	0.111
-507.756	-40.354	-0.318	0.165
-506.741	-74.759	-0.067	-0.024
-505.726	137.227	0.117	0.153
-504.712	-44.530	-0.088	0.044
-503.697	-200.000	-0.007	-0.049
-502.683	406.237	0.071	-0.148
-501.668	800.000	0.008	-0.024
-500.653	713.527	0.124	-0.328
-499.639	188.411	0.058	-0.086
-498.624	-80.815	0.248	0.082
-497.610	-95.125	-0.198	0.053
-496.595	-75.218	-0.123	-0.044
-495.581	800.000	-0.084	0.235
-494.566	800.000	-0.121	0.342
-493.551	-200.000	-0.023	-0.136
-492.537	-200.000	0.003	0.272
-491.522	620.454	-0.078	0.195
-490.508	299.222	0.225	0.412
-489.493	800.000	-0.022	0.063
-488.478	-73.610	0.077	0.028
-487.464	-172.740	0.277	-0.009
-486.449	305.893	-0.004	0.008
-485.435	-63.992	0.265	0.108
-484.420	55.614	0.087	-0.084
-483.405	164.989	-0.107	-0.150
-482.391	76.978	0.101	0.107
-481.376	-50.306	-0.071	0.033
-480.362	-166.412	0.390	-0.016
-479.347	-120.523	-0.334	-0.056
-478.332	-83.520	0.202	-0.064
-477.318	65.590	-0.183	0.184
-476.303	-200.000	-0.022	0.162
-475.289	-147.779	-0.187	0.016
-474.274	-7.454	-0.268	-0.180
-473.259	-200.000	0.045	-0.221
-472.245	179.484	-0.069	0.101
-471.230	-200.000	0.044	0.375
-470.216	800.000	-0.105	-0.396
-469.201	800.000	0.058	-0.208
-468.186	-33.515	0.180	0.099
-467.172	221.427	-0.096	-0.153
-466.157	14.485	-0.173	-0.134
-465.143	176.823	0.240	-0.347
-464.128	85.213	0.118	-0.129
-463.113	292.446	0.073	0.133
-462.099	-200.000	-0.026	0.168
-461.084	-30.129	-0.070	0.039
-460.070	-61.989	0.213	-0.089
-459.055	-119.197	-0.355	-0.062
-458.040	-38.262	0.179	0.094
-457.026	-200.000	-0.017	-0.157
-456.011	-124.186	-0.220	-0.034
-454.997	800.000	0.057	-0.163
-453.982	571.138	0.053	-0.129
-452.968	452.275	0.071	0.157
-451.953	266.959	0.162	0.281
-450.938	207.315	0.187	-0.290
-449.924	-12.000	-0.093	-0.061
-448.909	-200.000	-0.026	0.212
-447.895	-50.166	-0.243	0.114
-446.880	-88.795	-0.125	0.037
-445.865	-77.128	0.054	0.019
-444.851	391.382	0.085	-0.176
-443.836	166.453	-0.130	-0.183
-442.822	-200.000	-0.028	-0.340
-441.807	-200.000	0.015	-0.182
-440.792	800.000	0.094	-0.283
-439.778	-150.135	-0.096	0.007
-438.763	112.817	-0.199	0.240
-437.749	800.000	0.093	0.265
-436.734	-200.000	-0.025	0.202
-435.719	-103.101	-0.232	0.055
-434.705	-20.359	-0.147	0.090
-433.690	-58.619	0.124	0.054
-432.676	30.972	-0.235	-0.200
-431.661	-48.824	-0.356	0.170
-430.646	60.253	-0.215	-0.212
-429.632	-200.000	0.059	0.257
-428.617	-96.786	-0.188	0.049
-427.603	-5.622	-0.247	-0.168
-426.588	-41.673	0.182	-0.093
-425.573	-200.000	0.035	-0.186
-424.559	156.303	0.151	-0.207
-423.544	17.346	-0.128	-0.101
-422.530	232.247	0.069	0.113
-421.515	72.069	0.084	0.087
-420.500	-77.966	0.181	-0.062
-419.486	30.122	-0.196	0.166
-418.471	800.000	0.082	0.271
-417.457	-141.807	0.404	0.040
-416.442	-200.000	-0.010	0.072
-415.428	-200.000	0.019	-0.360
-414.413	552.955	-0.028	-0.068
-413.398	69.599	0.201	-0.206
-412.384	-15.176	-0.262	-0.167
-411.369	-72.842	0.136	0.050
-410.355	119.549	0.163	0.200
-409.340	-200.000	-0.021	0.178
-408.325	-134.376	0.202	-0.025
-407.311	387.396	0.060	-0.123
-406.296	306.604	-0.135	-0.249
-405.282	-200.000	0.003	0.090
-404.267	-190.348	-0.220	-0.002
-403.252	-79.118	0.096	0.032
-402.238	-75.680	0.376	-0.133
-401.223	259.097	-0.232	0.398
-400.209	-200.000	0.005	-0.085
-399.194	-200.000	-0.013	-0.218
-398.179	-200.000	-0.009	-0.059
-397.165	-78.208	0.213	0.073
-396.150	433.833	0.194	-0.418
-395.136	-57.965	-0.094	0.041
-394.121	-24.630	0.094	-0.055
-393.106	-126.955	-0.258	-0.038
-392.092	46.515	-0.129	0.119
-391.077	-200.000	-0.040	-0.246
-390.063	800.000	-0.049	-0.184
-389.048	-132.528	-0.265	0.034
-388.033	195.578	-0.045	0.068
-387.019	440.850	0.039	-0.084
-386.004	253.195	0.197	0.334
-384.990	-93.309	-0.117	0.032
-383.975	-34.266	0.279	-0.152
-382.960	-73.629	-0.084	-0.030
-381.946	-40.775	-0.113	0.058
-380.931	800.000	0.033	-0.123
-379.917	-50.104	0.150	0.070
-378.902	-105.068	0.227	0.052
-377.888	-200.000	-0.026	0.158
-376.873	800.000	-0.069	-0.190
-375.858	-200.000	-0.062	0.383
-374.844	-200.000	0.013	-0.155
-373.829	-4.647	-0.116	-0.079
-372.815	-133.682	-0.394	0.049
-371.800	-72.478	-0.157	-0.058
-370.785	-200.000	0.034	0.226
-369.771	-136.852	0.279	-0.032
-368.756	-3.342	-0.108	0.075
-367.742	246.710	-0.032	-0.053
-366.727	-200.000	0.033	0.171
-365.712	-200.000	-0.027	0.117
-364.698	645.467	0.028	-0.071
-363.683	-200.000	-0.036	-0.308
-362.669	-96.051	-0.230	0.061
-361.654	-178.502	0.090	0.002
-360.639	286.560	0.042	-0.075
-359.625	159.830	0.205	0.283
-358.610	574.632	0.064	0.154
-357.596	52.036	-0.113	-0.107
-356.581	-5.311	-0.192	0.131
-355.566	800.000	-0.044	0.187
-354.552	34.847	0.206	-0.178
-353.537	-200.000	-0.001	0.078
-352.523	-127.877	-0.206	-0.029
-351.508	-129.592	-0.316	-0.043
-350.493	422.310	0.137	-0.292
-349.479	800.000	0.056	-0.156
-348.464	-70.530	0.028	0.010
-347.450	-18.356	0.170	-0.105
-346.435	144.673	-0.156	-0.207
-345.420	-86.425	0.110	0.033
-344.406	800.000	-0.100	-0.424
-343.391	-173.780	0.448	0.013
-342.377	-56.796	0.389	0.170
-341.362	-64.841	-0.239	-0.096
-340.348	800.000	-0.027	-0.111
-339.333	-76.587	-0.225	-0.078
-338.318	-18.858	-0.161	0.099
-337.304	-14.125	-0.344	0.219
-336.289	-94.250	0.319	-0.086
-335.275	112.506	-0.197	-0.236
-334.260	800.000	-0.076	0.227
-333.245	52.515	-0.370	0.350
-332.231	125.627	0.188	-0.235
-331.216	-200.000	0.006	-0.384
-330.202	533.879	-0.094	-0.219
-329.187	-51.033	0.064	-0.030
-328.172	-102.672	-0.487	-0.115
-327.158	-200.000	0.004	-0.223
-326.143	-6.836	0.057	-0.038
-325.129	31.073	0.191	0.162
-324.114	51.372	-0.185	0.174
-323.099	-125.300	-0.313	-0.047
-322.085	-10.711	-0.309	-0.202
-321.070	-55.958	0.235	-0.104
-320.056	-200.000	0.041	-0.240
-319.041	-151.351	0.366	0.027
-318.026	800.000	-0.143	-0.409
-317.012	-136.102	0.101	0.012
-315.997	37.167	-0.176	0.154
-314.983	735.263	0.057	0.152
-313.968	-145.037	-0.013	-0.001
-312.953	-78.507	-0.035	0.012
-311.939	-145.769	-0.335	0.030
-310.924	15.686	0.239	0.186
-309.910	-200.000	0.011	0.434
-308.895	60.075	0.190	-0.186
-307.880	-104.226	-0.419	0.096
-306.866	-200.000	-0.049	0.535
-305.851	55.596	-0.095	-0.091
-304.837	-93.377	-0.122	0.033
-303.822	-200.000	0.025	0.150
-302.807	800.000	0.077	-0.213
-301.793	623.654	-0.037	0.092
-300.778	-200.000	0.052	0.476
-299.764	683.836	-0.046	0.117
-298.749	800.000	0.075	-0.232
-297.735	336.341	0.104	0.199
-296.720	-161.064	0.206	0.011
-295.705	656.942	0.040	0.101
-294.691	20.110	-0.262	0.209
-293.676	800.000	0.072	-0.216
-292.662	362.911	-0.098	0.195
-291.647	-48.853	0.161	0.077
-290.632	444.193	0.109	-0.235
-289.618	-18.097	0.358	0.221
-288.603	-158.334	0.265	0.015
-287.589	-200.000	-0.024	0.105
-286.574	-91.221	-0.102	0.029
-285.559	93.640	-0.143	0.160
-284.545	-36.371	0.320	0.170
-283.530	800.000	0.064	-0.178
-282.516	-119.474	0.222	-0.038
-281.501	466.689	-0.098	-0.218
-280.486	-200.000	0.007	0.076
-279.472	-51.123	0.434	-0.201
-278.457	800.000	0.062	0.256
-277.443	-106.352	-0.304	-0.067
-276.428	289.373	-0.089	-0.159
-275.413	-182.228	0.105	0.002
-274.399	81.094	-0.150	-0.160
-273.384	555.437	0.012	-0.028
-272.370	-200.000	0.009	-0.165
-271.355	163.074	-0.113	0.156
-270.340	79.743	-0.064	0.067
-269.326	-133.091	0.069	0.009
-268.311	46.495	0.235	0.215
-267.297	732.066	-0.019	-0.051
-266.282	-38.311	-0.257	-0.134
-265.267	42.256	0.242	0.217
-264.253	-78.443	-0.064	-0.022
-263.238	180.633	-0.170	-0.246
-262.224	33.456	-0.161	0.138
-261.209	-128.097	-0.319	0.045
-260.195	16.027	0.104	0.081
-259.180	-94.038	-0.362	0.098
-258.165	800.000	-0.030	0.123
-257.151	375.215	-0.049	0.098
-256.136	-98.076	0.250	0.063
-255.122	1.521	0.175	-0.125
-254.107	-29.754	-0.132	0.074
-253.092	-56.342	0.224	0.098
-252.078	-27.460	0.204	0.117
-251.063	86.446	-0.054	0.059
-250.049	-200.000	0.008	0.101
-249.034	118.639	0.035	-0.042
-248.019	-25.150	0.095	-0.055
-247.005	-200.000	0.043	-0.281
-245.990	264.736	0.210	-0.361
-244.976	-43.627	0.030	-0.015
-243.961	122.144	0.319	0.392
-242.946	-59.776	0.134	-0.056
-241.932	234.202	-0.130	0.212
-240.917	-115.027	0.239	0.045
-239.903	54.045	0.215	-0.204
-238.888	56.428	0.126	-0.121
-237.873	92.678	0.066	-0.073
-236.859	630.872	0.080	-0.199
-235.844	800.000	0.075	0.259
-234.830	-125.616	0.220	-0.033
-233.815	-200.000	0.021	0.497
-232.800	33.595	-0.147	0.126
-231.786	36.412	-0.252	0.219
-230.771	-30.765	0.342	-0.191
-229.757	484.223	-0.200	0.449
-228.742	-116.008	-0.345	0.063
-227.727	49.920	0.203	0.189
-226.713	196.179	-0.116	0.174
-225.698	-145.851	0.013	0.001
-224.684	8.381	0.270	0.200
-223.669	140.894	-0.130	-0.170
-222.655	-47.882	0.270	-0.129
-221.640	-200.000	-0.011	0.211
-220.625	800.000	-0.038	0.108
-219.611	-45.951	-0.183	0.089
-218.596	77.201	0.097	0.102
-217.582	-110.413	-0.041	0.008
-216.567	147.743	-0.021	0.028
-215.552	25.249	0.252	-0.207
-214.538	125.740	-0.055	0.068
-213.523	-200.000	0.019	-0.183
-212.509	194.040	-0.102	-0.153
-211.494	-200.000	0.021	-0.180
-210.479	660.889	0.015	-0.037
-209.465	632.128	0.058	-0.144
-208.450	348.163	-0.152	-0.294
-207.436	800.000	-0.042	-0.150
-206.421	800.000	0.072	-0.258
-205.406	-200.000	-0.000	0.151
-204.392	-174.678	0.111	-0.003
-203.377	328.338	0.054	-0.103
-202.363	-68.571	-0.333	-0.127
-201.348	-200.000	0.093	0.450
-200.333	33.965	-0.048	-0.041
-199.319	5.473	0.150	-0.109
-198.304	193.561	0.154	-0.229
-197.290	233.317	0.108	-0.175
-196.275	-157.752	0.205	0.012
-195.260	-200.000	0.018	0.118
-194.246	-72.877	-0.235	-0.085
-193.231	-108.581	0.151	-0.032
-192.217	-144.536	-0.160	0.015
-191.202	-200.000	0.041	-0.231
-190.187	-200.000	-0.007	-0.275
-189.173	-200.000	-0.055	-0.289
-188.158	100.329	-0.232	-0.265
-187.144	-101.475	0.336	-0.081
-186.129	-27.360	0.162	0.093
-185.114	673.590	-0.113	0.288
-184.100	122.753	0.151	0.186
-183.085	80.245	0.158	0.168
-182.071	399.948	-0.092	0.189
-181.056	-72.905	0.198	0.071
-180.042	-200.000	-0.019	0.269
-179.027	-135.021	-0.141	-0.017
-178.012	94.945	0.161	-0.180
-176.998	-4.308	-0.244	-0.166
-175.983	-1.443	0.339	-0.235
-174.969	51.587	-0.350	-0.327
-173.954	11.307	-0.294	-0.221
-172.939	139.894	-0.270	0.350
-171.925	167.263	0.161	0.225
-170.910	-200.000	-0.033	0.171
-169.896	99.751	-0.290	0.330
-168.881	27.693	-0.219	-0.181
-167.866	0.435	0.281	-0.197
-166.852	296.166	-0.117	0.211
-165.837	-18.792	0.141	0.086
-164.823	20.891	0.094	-0.075
-163.808	94.919	0.101	-0.113
-162.793	-146.416	-0.289	-0.025
-161.779	6.066	0.185	-0.135
-160.764	383.351	-0.059	-0.119
-159.750	-68.569	0.245	0.093
-158.735	-65.816	0.273	0.107
-157.720	293.602	-0.032	0.057
-156.706	-48.366	-0.199	-0.094
-155.691	-116.017	0.092	0.017
-154.677	-32.966	-0.293	0.160
-153.662	119.042	0.146	-0.178
-152.647	250.755	-0.073	-0.122
-151.633	302.433	-0.041	-0.075
-150.618	86.521	-0.073	-0.079
-149.604	-92.255	-0.163	-0.045
-148.589	196.591	0.202	0.302
-147.574	800.000	0.044	-0.140
-146.560	637.420	-0.130	-0.324
-145.545	82.748	0.223	0.238
-144.531	-104.736	-0.189	-0.043
-143.516	-91.338	-0.016	-0.005
-142.502	38.796	0.030	-0.026
-141.487	257.002	0.201	-0.340
-140.472	277.313	-0.162	-0.283
-139.458	-108.602	-0.046	0.010
-138.443	800.000	0.100	-0.420
-137.429	800.000	-0.096	-0.286
-136.414	-200.000	-0.018	-0.078
-135.399	389.914	0.111	0.227
-134.385	-200.000	0.053	0.266
-133.370	710.539	-0.158	0.409
-132.356	39.221	0.212	0.186
-131.341	800.000	-0.075	0.204
-130.326	-199.396	-0.349	-0.002
-129.312	-200.000	0.001	-0.032
-128.297	23.941	0.214	0.173
-127.283	-108.817	-0.158	-0.033
-126.268	21.906	0.092	0.074
-125.253	-133.683	0.258	0.032
-124.239	242.759	0.039	-0.064
-123.224	-26.694	0.267	0.153
-122.210	-66.033	-0.056	-0.022
-121.195	327.898	-0.155	0.292
-120.180	-200.000	-0.055	-0.257
-119.166	-94.307	-0.194	-0.052
-118.151	-25.244	-0.081	-0.047
-117.137	-124.312	-0.253	0.039
-116.122	-200.000	0.018	-0.271
-115.107	615.564	0.025	-0.063
-114.093	800.000	0.008	-0.026
-113.078	223.533	-0.029	-0.046
-112.064	-41.021	0.054	-0.028
-111.049	209.343	-0.116	0.179
-110.034	675.035	-0.051	0.130
-109.020	800.000	0.076	0.206
-108.005	9.756	0.192	0.143
-106.991	456.721	-0.110	0.241
-105.976	-200.000	0.052	0.234
-104.962	92.275	-0.128	0.141
-103.947	173.681	0.125	0.178
-102.932	287.774	0.051	0.091
-101.918	-40.383	0.159	-0.081
-100.903	800.000	-0.026	0.078
-99.889	216.527	-0.145	0.227
-98.874	472.639	0.030	0.066
-97.859	157.829	0.150	0.204
-96.845	-61.764	-0.215	0.089
-95.830	227.588	0.061	0.097
-94.816	800.000	0.096	-0.399
-93.801	-200.000	0.042	-0.204
-92.786	-116.247	-0.386	-0.070
-91.772	-103.794	-0.147	-0.034
-90.757	428.612	-0.080	0.169
-89.743	-118.897	-0.297	0.051
-88.728	-45.826	-0.523	-0.253
-87.713	297.282	-0.090	-0.161
-86.699	800.000	-0.081	-0.294
-85.684	-58.858	-0.033	-0.014
-84.670	-45.212	0.130	0.063
-83.655	212.787	0.066	-0.103
-82.640	-73.859	0.149	-0.053
-81.626	-57.288	0.375	0.162
-80.611	50.940	0.071	0.066
-79.597	-122.541	0.291	0.046
-78.582	-200.000	-0.015	-0.356
-77.567	-128.529	0.350	-0.049
-76.553	-200.000	0.038	0.253
-75.538	-200.000	-0.058	-0.250
-74.524	582.295	0.067	0.160
-73.509	-55.268	-0.296	0.130
-72.494	-200.000	-0.008	-0.314
-71.480	-110.989	-0.152	-0.031
-70.465	-189.931	0.281	-0.003
-69.451	-200.000	-0.021	0.238
-68.436	-200.000	0.011	0.280
-67.422	-172.408	-0.128	0.004
-66.407	800.000	-0.038	0.140
-65.392	-100.036	-0.132	-0.032
-64.378	-78.641	0.208	-0.070
-63.363	-66.995	-0.402	0.156
-62.349	393.471	-0.153	0.312
-61.334	189.355	-0.717	-1.052
-60.319	-37.894	0.378	0.197
-59.305	111.030	-1.010	-1.191
-58.290	142.243	0.674	0.876
-57.276	-200.000	0.401	1.959
-56.261	-200.000	110.713	617.921
-55.246	516.475	1511.632	3459.592
-54.232	176.951	2698.841	3844.737
-53.217	105.068	2283.012	2637.438
-52.203	38.295	1891.515	1649.322
-51.188	32.386	1680.407	1420.724
-50.173	29.818	1637.620	1365.568
-49.159	49.071	1693.279	1557.090
-48.144	49.013	1707.887	1570.023
-47.130	31.829	1665.200	1403.476
-46.115	29.266	1649.936	1371.513
-45.100	29.081	1645.659	1366.528
-44.086	28.946	1643.022	1363.287
-43.071	28.913	1640.319	1360.741
-42.057	28.942	1637.818	1358.831
-41.042	28.959	1635.665	1357.114
-40.027	28.951	1633.918	1355.550
-39.013	28.990	1631.912	1354.125
-37.998	28.852	1630.590	1351.957
-36.984	28.972	1628.769	1351.271
-35.969	29.026	1627.770	1350.791
-34.954	29.173	1625.655	1350.054
-33.940	29.084	1623.892	1347.891
-32.925	29.199	1621.954	1347.068
-31.911	28.994	1621.275	1344.951
-30.896	29.166	1618.310	1343.693
-29.881	29.054	1617.599	1342.235
-28.867	29.160	1615.676	1341.356
-27.852	29.018	1614.905	1339.628
-26.838	29.180	1612.791	1339.000
-25.823	29.078	1611.740	1337.336
-24.809	29.049	1610.616	1336.138
-23.794	29.166	1608.834	1335.453
-22.779	29.184	1607.242	1334.206
-21.765	29.145	1605.641	1332.544
-20.750	29.142	1603.851	1330.983
-19.736	29.154	1602.928	1330.252
-18.721	29.218	1601.499	1329.477
-17.706	29.089	1600.308	1327.501
-16.692	29.189	1598.559	1326.720
-15.677	29.186	1596.655	1325.069
-14.663	29.169	1596.035	1324.378
-13.648	29.273	1594.352	1323.674
-12.633	29.125	1592.914	1321.367
-11.619	29.208	1590.628	1320.012
-10.604	29.128	1589.522	1318.467
-9.590	29.080	1588.716	1317.408
-8.575	29.115	1587.308	1316.438
-7.560	29.159	1586.202	1315.779
-6.546	29.159	1584.866	1314.623
-5.531	29.080	1583.745	1313.076
-4.517	29.103	1582.806	1312.410
-3.502	29.192	1581.307	1311.749
-2.487	29.218	1579.899	1310.713
-1.473	28.867	1567.913	1298.238
-0.458	25.810	1549.356	1261.449
0.556	23.863	1550.029	1229.400
1.571	21.342	1573.959	1230.542
2.586	20.957	1586.290	1237.340
3.600	18.782	1533.363	1181.013
4.615	11.501	1426.570	1051.917
5.629	4.988	1365.413	966.465
6.644	3.763	1357.496	953.225
7.659	3.636	1356.827	951.887
8.673	3.708	1355.665	951.427
9.688	3.813	1353.804	950.687
10.702	3.575	1351.289	947.374
11.717	6.718	1356.465	970.264
12.731	14.924	1371.727	1031.920
13.746	21.951	1382.731	1083.650
14.761	23.682	1384.897	1095.947
15.775	23.213	1383.209	1091.622
16.790	22.483	1380.845	1085.168
17.804	21.699	1379.368	1079.080
18.819	21.609	1378.172	1077.497
19.834	21.663	1377.098	1076.894
20.848	21.515	1376.629	1075.524
21.863	21.473	1375.676	1074.424
22.877	21.430	1374.711	1073.315
23.892	21.306	1373.424	1071.455
24.907	21.358	1372.546	1070.988
25.921	21.317	1371.531	1069.853
26.936	21.374	1370.539	1069.333
27.950	21.367	1369.701	1068.542
28.965	21.493	1368.495	1068.274
29.980	21.585	1367.939	1068.309
30.994	21.666	1367.229	1068.153
32.009	21.749	1366.186	1067.748
33.023	21.635	1365.163	1066.162
34.038	21.468	1363.898	1064.065
35.053	21.416	1362.465	1062.537
36.067	21.483	1361.299	1061.937
37.082	21.453	1360.462	1061.012
38.096	21.538	1360.014	1061.084
39.111	21.509	1359.213	1060.188
40.126	21.384	1358.554	1058.824
41.140	21.082	1357.093	1055.761
42.155	20.977	1356.175	1054.324
43.169	20.775	1356.455	1053.225
44.184	20.906	1355.691	1053.327
45.199	20.974	1355.757	1053.699
46.213	21.109	1355.858	1054.498
47.228	21.474	1354.490	1055.543
48.242	21.406	1353.622	1054.366
49.257	21.293	1352.625	1052.814
50.271	21.338	1350.565	1051.389
51.286	21.316	1349.652	1050.453
52.301	21.284	1348.373	1049.173
53.315	21.192	1347.182	1047.603
54.330	21.063	1346.002	1045.815
55.344	21.013	1344.736	1044.441
56.359	21.006	1343.561	1043.398
57.374	20.974	1342.827	1042.540
58.388	20.902	1342.164	1041.505
59.403	20.751	1341.839	1040.256
60.417	20.771	1340.651	1039.361
61.432	20.645	1339.801	1037.862
62.447	20.622	1338.714	1036.791
63.461	20.555	1337.540	1035.388
64.476	20.591	1336.436	1034.660
65.490	20.429	1335.854	1033.154
66.505	20.465	1334.335	1032.098
67.520	20.555	1333.240	1031.695
68.534	20.544	1332.024	1030.596
69.549	20.576	1330.234	1029.312
70.563	20.514	1329.319	1028.148
71.578	20.351	1328.726	1026.635
72.593	20.310	1327.606	1025.431
73.607	20.296	1326.629	1024.507
74.622	20.400	1326.462	1024.900
75.636	20.403	1325.916	1024.406
76.651	20.399	1325.073	1023.639
77.666	20.472	1324.553	1023.578
78.680	20.455	1324.842	1023.610
79.695	20.504	1324.017	1023.171
80.709	20.729	1323.745	1024.197
81.724	20.939	1322.674	1024.511
82.739	21.002	1321.590	1023.948
83.753	21.264	1321.234	1025.118
84.768	21.492	1320.576	1025.858
85.782	21.615	1319.905	1025.967
86.797	21.675	1318.597	1025.209
87.812	21.441	1317.298	1022.741
88.826	21.469	1316.024	1021.822
89.841	21.446	1315.303	1021.038
90.855	21.592	1314.340	1021.053
91.870	21.629	1313.751	1020.721
92.884	21.672	1312.791	1020.133
93.899	21.791	1312.117	1020.212
94.914	21.691	1311.331	1018.929
95.928	21.709	1310.475	1018.278
96.943	21.590	1310.178	1017.268
97.957	21.585	1308.978	1016.216
98.972	21.545	1308.034	1015.163
99.987	21.651	1306.799	1014.727
101.001	21.456	1306.093	1012.963
102.016	21.558	1305.059	1012.658
103.030	21.632	1303.759	1011.985
104.045	21.512	1303.490	1010.995
105.060	21.335	1301.698	1008.496
106.074	20.886	1300.123	1004.601
107.089	20.654	1298.620	1002.011
108.103	20.576	1296.926	1000.166
109.118	20.539	1295.766	998.973
110.133	20.436	1294.888	997.617
111.147	20.648	1293.020	997.305
112.162	20.671	1292.095	996.636
113.176	20.714	1291.381	996.240
114.191	20.751	1290.304	995.532
115.206	20.754	1289.543	994.872
116.220	20.795	1287.985	993.818
117.235	20.688	1287.401	992.668
118.249	20.585	1285.845	990.793
119.264	20.496	1284.813	989.406
120.279	20.463	1283.527	988.142
121.293	20.460	1282.302	987.095
122.308	20.323	1281.355	985.498
123.322	20.110	1280.649	983.659
124.337	20.169	1279.155	982.760
125.352	20.153	1278.101	981.770
126.366	20.204	1276.847	981.012
127.381	20.046	1276.163	979.503
128.395	19.990	1275.160	978.334
129.410	20.100	1274.128	978.077
130.424	20.241	1273.804	978.537
131.439	20.407	1273.294	978.994
132.454	20.549	1272.457	979.062
133.468	20.706	1271.491	979.114
134.483	20.683	1271.405	978.835
135.497	20.741	1270.298	978.222
136.512	20.725	1269.155	977.163
137.527	20.719	1267.621	975.864
138.541	20.768	1266.744	975.375
139.556	20.929	1264.823	974.711
140.570	21.021	1264.385	974.801
141.585	21.048	1263.657	974.307
142.600	21.271	1262.497	974.570
143.614	21.440	1262.243	975.230
144.629	21.478	1261.509	974.785
145.643	21.376	1259.987	972.959
146.658	21.346	1258.194	971.321
147.673	20.938	1257.721	968.605
148.687	20.892	1255.809	966.786
149.702	20.845	1254.266	965.256
150.716	20.686	1252.744	963.118
151.731	20.576	1252.022	961.872
152.746	20.737	1250.763	961.704
153.760	20.764	1249.673	960.932
154.775	21.066	1248.815	961.855
155.789	21.053	1247.801	960.917
156.804	21.118	1247.017	960.582
157.819	21.206	1246.475	960.564
158.833	21.213	1246.045	960.186
159.848	21.457	1245.430	960.968
160.862	21.407	1243.845	959.386
161.877	21.015	1242.267	955.938
162.892	20.689	1241.303	953.323
163.906	20.596	1240.171	951.863
164.921	20.553	1239.422	950.969
165.935	20.777	1238.534	951.426
166.950	20.873	1238.251	951.649
167.964	20.833	1237.725	950.942
168.979	20.706	1237.315	949.852
169.994	20.839	1235.983	949.469
171.008	20.826	1234.882	948.468
172.023	20.899	1234.590	948.556
173.037	21.074	1234.629	949.459
174.052	21.243	1233.211	949.200
175.067	20.797	1232.123	945.858
176.081	20.514	1230.579	943.054
177.096	20.641	1229.690	942.976
178.110	20.639	1228.711	942.134
179.125	20.655	1227.910	941.522
180.140	21.018	1227.330	942.956
181.154	21.171	1226.051	942.715
182.169	21.229	1224.667	941.882
183.183	21.288	1223.752	941.413
184.198	21.420	1222.452	941.039
185.213	21.378	1221.698	940.150
186.227	21.390	1220.881	939.502
187.242	21.407	1219.933	938.782
188.256	21.537	1219.482	939.046
189.271	21.528	1218.483	938.148
190.286	21.276	1217.554	935.999
191.300	20.809	1215.947	932.182
192.315	20.789	1214.955	931.233
193.329	20.824	1214.505	930.991
194.344	20.785	1214.039	930.344
195.359	20.699	1213.402	929.311
196.373	20.766	1212.913	929.215
197.388	20.955	1212.708	929.982
198.402	21.283	1212.733	931.672
199.417	21.547	1212.590	932.886
200.432	21.746	1211.532	933.047
201.446	21.672	1211.496	932.543
202.461	21.884	1210.464	932.796
203.475	21.892	1209.319	931.873
204.490	21.492	1207.533	928.293
205.504	21.234	1206.201	925.817
206.519	21.166	1205.065	924.503
207.534	20.973	1204.182	922.726
208.548	21.045	1203.101	922.195
209.563	21.132	1202.271	921.937
210.577	21.075	1201.700	921.118
211.592	21.201	1200.869	921.062
212.607	21.534	1200.330	922.323
213.621	21.565	1199.249	921.576
214.636	21.360	1198.252	919.650
215.650	21.494	1197.797	919.921
216.665	21.692	1196.707	920.041
217.680	21.691	1196.526	919.815
218.694	21.861	1195.847	920.106
219.709	21.854	1194.182	918.705
220.723	21.771	1193.692	917.816
221.738	21.603	1193.153	916.440
222.753	21.719	1192.112	916.164
223.767	21.584	1191.797	915.137
224.782	21.775	1191.438	915.779
225.796	22.169	1190.559	917.075
226.811	21.974	1190.177	915.684
227.826	21.677	1189.359	913.426
228.840	21.466	1188.470	911.563
229.855	21.459	1187.462	910.674
230.869	21.501	1186.447	910.031
231.884	21.421	1186.074	909.248
232.899	21.154	1185.005	906.960
233.913	21.106	1184.360	906.141
234.928	21.046	1183.674	905.224
235.942	21.093	1182.633	904.589
236.957	20.965	1181.593	903.049
237.972	20.917	1181.114	902.355
238.986	20.947	1180.800	902.191
240.001	21.104	1179.780	902.146
241.015	21.110	1178.784	901.336
242.030	21.097	1178.239	900.773
243.045	21.317	1177.894	901.564
244.059	21.486	1177.436	902.001
245.074	21.466	1176.302	900.953
246.088	21.614	1175.655	901.137
247.103	21.822	1175.081	901.690
248.117	21.975	1174.583	902.013
249.132	22.111	1174.045	902.218
250.147	22.399	1174.011	903.591
251.161	22.610	1173.043	903.847
252.176	22.593	1172.667	903.392
253.190	22.658	1172.221	903.303
254.205	22.826	1171.582	903.587
255.220	22.822	1171.107	903.121
256.234	22.779	1170.980	902.725
257.249	22.737	1169.647	901.402
258.263	22.678	1168.886	900.432
259.278	22.723	1168.174	900.037
260.293	22.636	1167.945	899.337
261.307	22.830	1167.429	899.850
262.322	22.812	1166.539	898.990
263.336	22.741	1166.066	898.186
264.351	22.766	1165.571	897.851
265.366	22.739	1165.092	897.267
266.380	22.819	1164.551	897.173
267.395	22.741	1162.957	895.472
268.409	22.543	1162.285	893.874
269.424	22.430	1161.762	892.817
270.439	22.568	1160.978	892.837
271.453	22.499	1160.026	891.674
272.468	22.298	1159.114	889.877
273.482	22.090	1158.467	888.250
274.497	22.209	1157.678	888.169
275.512	22.232	1157.130	887.785
276.526	22.152	1156.412	886.752
277.541	22.280	1155.536	886.649
278.555	22.313	1155.119	886.415
279.570	22.690	1154.689	887.905
280.585	22.672	1154.568	887.645
281.599	22.927	1152.551	887.294
282.614	22.474	1151.890	884.435
283.628	22.256	1150.796	882.422
284.643	22.404	1149.378	882.000
285.657	22.437	1148.393	881.330
286.672	22.354	1147.984	880.523
287.687	22.473	1147.153	880.400
288.701	22.362	1146.482	879.253
289.716	22.437	1145.569	878.850
290.730	22.481	1145.096	878.629
291.745	22.540	1143.894	877.922
292.760	22.451	1143.524	877.119
293.774	22.403	1143.757	876.978
294.789	22.713	1143.167	877.995
295.803	22.789	1142.272	877.608
296.818	22.479	1141.292	875.236
297.833	22.431	1140.312	874.166
298.847	22.406	1139.560	873.391
299.862	22.340	1138.985	872.546
300.876	22.429	1138.394	872.456
301.891	22.490	1137.653	872.115
302.906	22.752	1137.453	873.178
303.920	22.877	1136.865	873.269
304.935	22.973	1136.611	873.469
305.949	23.170	1135.819	873.760
306.964	23.296	1135.239	873.857
307.979	22.881	1134.289	871.003
308.993	22.836	1133.501	870.095
310.008	22.870	1132.821	869.666
311.022	23.117	1131.674	869.926
312.037	22.946	1131.303	868.721
313.052	22.909	1130.195	867.611
314.066	22.622	1128.820	865.069
315.081	22.382	1127.267	862.630
316.095	22.341	1126.739	861.947
317.110	22.208	1126.479	861.018
318.125	22.267	1125.875	860.771
319.139	22.232	1124.639	859.578
320.154	22.286	1124.055	859.320
321.168	22.260	1123.519	858.706
322.183	22.280	1123.062	858.378
323.197	22.369	1122.583	858.372
324.212	22.491	1121.947	858.404
325.227	22.414	1121.589	857.679
326.241	22.499	1121.053	857.608
327.256	22.437	1120.025	856.445
328.270	22.341	1118.964	855.089
329.285	22.354	1117.853	854.228
330.300	22.349	1117.203	853.631
331.314	22.304	1116.210	852.577
332.329	22.412	1114.982	852.088
333.343	22.411	1114.907	851.953
334.358	22.608	1114.107	852.216
335.373	22.872	1113.653	853.071
336.387	22.779	1112.801	851.894
337.402	22.836	1112.111	851.564
338.416	23.008	1111.781	852.063
339.431	23.115	1110.989	851.897
340.446	23.234	1111.067	852.457
341.460	23.345	1110.563	852.527
342.475	23.577	1109.492	852.745
343.489	23.548	1108.472	851.745
344.504	23.619	1107.880	851.560
345.519	23.684	1107.106	851.201
346.533	23.642	1106.735	850.639
347.548	23.701	1105.676	850.028
348.562	23.686	1104.548	849.013
349.577	23.435	1103.188	846.696
350.592	22.948	1102.613	843.854
351.606	22.946	1101.440	842.872
352.621	22.785	1100.807	841.544
353.635	22.665	1099.709	840.061
354.650	22.776	1099.391	840.274
355.665	22.705	1098.958	839.530
356.679	22.885	1098.357	839.854
357.694	22.997	1098.049	840.076
358.708	23.172	1097.050	840.066
359.723	23.216	1096.569	839.834
360.738	23.006	1096.083	838.389
361.752	23.135	1095.355	838.371
362.767	23.204	1094.589	838.038
363.781	23.237	1094.085	837.732
364.796	23.481	1094.135	838.853
365.810	23.583	1094.273	839.367
366.825	23.842	1093.477	839.906
367.840	23.955	1093.185	840.141
368.854	24.033	1092.517	839.921
369.869	24.002	1091.437	838.871
370.883	23.753	1090.240	836.702
371.898	23.570	1089.716	835.363
372.913	23.575	1088.674	834.517
373.927	23.670	1088.823	835.005
374.942	23.836	1088.575	835.521
375.956	23.846	1087.415	834.601
376.971	23.636	1086.566	832.893
377.986	23.823	1086.362	833.536
379.000	23.841	1086.239	833.453
380.015	24.033	1086.045	834.133
381.029	24.019	1085.582	833.636
382.044	24.044	1084.372	832.751
383.059	24.084	1083.444	832.151
384.073	23.934	1082.540	830.682
385.088	24.067	1081.833	830.688
386.102	24.005	1081.165	829.813
387.117	23.685	1079.844	827.233
388.132	23.459	1078.752	825.273
389.146	23.446	1078.094	824.635
390.161	23.307	1076.850	822.967
391.175	23.244	1077.120	822.807
392.190	23.597	1076.508	823.905
393.205	23.929	1075.729	824.778
394.219	23.722	1075.159	823.306
395.234	23.583	1073.737	821.503
396.248	23.560	1072.326	820.244
397.263	23.404	1071.479	818.803
398.278	23.329	1070.631	817.736
399.292	23.387	1069.760	817.263
400.307	23.297	1069.171	816.329
401.321	23.268	1068.482	815.594
402.336	23.128	1068.197	814.661
403.350	23.146	1067.116	813.848
404.365	23.364	1066.475	814.288
405.380	23.559	1066.074	814.807
406.394	23.619	1065.676	814.707
407.409	23.854	1064.994	815.190
408.423	24.061	1064.631	815.790
409.438	24.099	1064.029	815.428
410.453	24.174	1063.211	815.074
411.467	24.304	1062.738	815.233
412.482	24.177	1061.992	814.007
413.496	24.300	1061.590	814.192
414.511	24.393	1061.092	814.159
415.526	24.556	1060.876	814.665
416.540	24.623	1060.697	814.763
417.555	24.620	1059.936	814.092
418.569	24.479	1059.011	812.666
419.584	24.366	1059.009	812.081
420.599	24.226	1058.001	810.599
421.613	156.770	1403.248	1798.193
422.628	144.091	1453.525	1798.266
