DTS Sentinel unit serial number:	SN413079Multiplexer serial number:	ORYXHardware model number:	OX4-SRSoftware version number:	ORYX F/W v4.00 Oryx Data Collector v3.7.2.0data status	okinstallation	princeton_trtdifferential loss correction	single-endedforward channel	channel 2reverse channel	N/Adate	2019/09/13time	15:43:34forward acquisition time	60.00reverse acquisition time	0.00gamma	496.2192k internal	0.2317k external	0.2317temperature offset calibration	1.0211default loss term (dB/km)	0.3790temperature slope calibration	1.0000multiplexer offset coefficient	1.0000multiplexer slope coefficient	1.0000fibre end	0.00T internal ref (°C)	34.81T ext. ref 1 (°C)	4.75T ext. ref 2 (°C)	29.20length (m)	temperature (°C)	Stokes	anti-Stokes-747.200	800.000	-0.016	-0.048
-746.185	6.437	-0.269	-0.202
-745.171	157.127	-0.144	0.201
-744.156	36.801	0.095	0.085
-743.142	346.542	0.053	-0.106
-742.127	17.537	-0.129	0.104
-741.112	457.388	-0.035	-0.080
-740.098	-35.703	0.277	0.152
-739.083	-154.592	-0.369	0.025
-738.069	-200.000	0.006	-0.099
-737.054	-30.782	-0.261	0.149
-736.039	-185.102	0.340	0.005
-735.025	-40.300	0.407	0.214
-734.010	120.737	0.059	0.074
-732.996	175.528	-0.171	0.251
-731.981	150.444	-0.159	0.219
-730.966	118.435	-0.197	0.246
-729.952	-40.856	-0.278	-0.146
-728.937	-21.948	-0.119	0.073
-727.923	-57.402	-0.139	0.062
-726.908	678.060	0.148	-0.391
-725.894	800.000	-0.051	-0.201
-724.879	-89.648	-0.121	-0.036
-723.864	100.919	-0.242	0.284
-722.850	-200.000	-0.048	-0.373
-721.835	-21.804	-0.410	-0.252
-720.821	161.858	-0.086	-0.122
-719.806	-17.421	-0.191	-0.122
-718.791	-159.779	-0.394	0.022
-717.777	38.493	-0.133	0.120
-716.762	-193.832	-0.172	-0.001
-715.748	-43.670	0.142	0.072
-714.733	-81.320	0.127	0.042
-713.718	800.000	0.032	0.114
-712.704	536.165	-0.080	-0.193
-711.689	48.441	-0.108	-0.103
-710.675	-200.000	-0.039	0.173
-709.660	15.087	0.030	0.024
-708.645	800.000	-0.045	0.142
-707.631	436.606	-0.120	-0.265
-706.616	-200.000	-0.042	-0.363
-705.602	-104.134	-0.118	0.028
-704.587	-133.715	-0.193	-0.024
-703.572	-159.997	-0.366	0.020
-702.558	-200.000	-0.023	0.182
-701.543	281.925	-0.231	0.419
-700.529	294.958	-0.259	-0.479
-699.514	54.728	0.139	0.135
-698.499	-200.000	-0.008	-0.115
-697.485	-200.000	-0.026	-0.335
-696.470	800.000	-0.133	-0.438
-695.456	-106.654	-0.381	-0.086
-694.441	-200.000	-0.014	0.084
-693.426	-5.666	-0.122	0.084
-692.412	800.000	-0.017	0.058
-691.397	-75.999	-0.057	-0.020
-690.383	-147.606	0.049	0.004
-689.368	-135.835	-0.299	-0.036
-688.354	107.469	-0.285	0.343
-687.339	-152.503	-0.134	0.010
-686.324	-6.998	0.068	0.047
-685.310	-95.522	0.146	0.040
-684.295	-200.000	-0.037	-0.187
-683.281	3.908	0.202	-0.149
-682.266	472.156	-0.088	-0.201
-681.251	40.482	0.076	0.069
-680.237	-200.000	-0.015	-0.175
-679.222	-200.000	0.009	-0.361
-678.208	-101.233	-0.112	0.028
-677.193	-110.901	0.136	0.028
-676.178	-200.000	-0.024	-0.119
-675.164	142.208	-0.024	0.033
-674.149	515.312	0.053	-0.125
-673.135	-18.060	-0.451	-0.285
-672.120	-143.916	-0.129	-0.012
-671.105	800.000	0.057	0.233
-670.091	-117.901	-0.095	-0.017
-669.076	-51.316	0.043	0.020
-668.062	32.119	0.127	-0.111
-667.047	-58.566	-0.087	-0.038
-666.032	-200.000	-0.010	0.062
-665.018	105.562	-0.220	0.262
-664.003	259.692	-0.106	0.185
-662.989	-200.000	-0.033	-0.223
-661.974	272.900	-0.202	0.360
-660.959	-111.893	-0.085	0.017
-659.945	-112.073	-0.069	-0.014
-658.930	-14.647	-0.212	-0.138
-657.916	-200.000	-0.050	-0.280
-656.901	-121.311	-0.249	0.042
-655.886	17.377	-0.207	0.166
-654.872	42.186	-0.251	0.230
-653.857	-84.280	0.230	-0.074
-652.843	-187.288	0.068	0.001
-651.828	-18.267	-0.076	0.048
-650.814	-107.349	-0.127	0.028
-649.799	800.000	-0.075	0.238
-648.784	34.827	-0.182	0.160
-647.770	-69.011	-0.331	0.129
-646.755	-135.480	-0.318	-0.038
-645.741	24.791	-0.178	-0.149
-644.726	-44.107	0.219	-0.111
-643.711	78.729	0.066	0.072
-642.697	412.631	0.165	0.353
-641.682	-165.815	0.174	-0.008
-640.668	405.677	-0.123	-0.262
-639.653	-200.000	-0.008	-0.338
-638.638	-27.412	0.071	-0.042
-637.624	-75.419	0.085	-0.031
-636.609	800.000	0.080	-0.267
-635.595	95.090	0.092	0.106
-634.580	60.342	-0.266	0.266
-633.565	257.809	0.170	-0.295
-632.551	413.678	-0.051	0.109
-631.536	-200.000	-0.015	-0.097
-630.522	113.234	0.193	-0.236
-629.507	31.382	0.092	-0.079
-628.492	-200.000	0.012	0.070
-627.478	150.831	0.111	-0.153
-626.463	-200.000	0.320	-0.000
-625.449	-17.897	0.329	-0.208
-624.434	-68.997	-0.159	0.062
-623.419	179.739	0.031	-0.046
-622.405	800.000	-0.064	0.186
-621.390	-19.444	-0.064	0.040
-620.376	-200.000	0.003	0.162
-619.361	-200.000	-0.004	0.119
-618.346	-81.994	-0.040	-0.013
-617.332	800.000	-0.104	0.366
-616.317	389.653	-0.055	-0.116
-615.303	24.734	0.188	-0.157
-614.288	32.257	0.287	-0.250
-613.273	46.881	0.174	0.163
-612.259	-83.158	0.428	0.139
-611.244	-74.747	0.141	0.051
-610.230	67.152	0.031	0.032
-609.215	800.000	0.096	-0.320
-608.201	101.001	0.151	-0.177
-607.186	161.949	0.162	0.229
-606.171	4.010	0.279	0.206
-605.157	-40.299	0.070	0.037
-604.142	-180.527	-0.240	-0.005
-603.128	-184.825	-0.177	0.003
-602.113	-174.214	-0.029	-0.001
-601.098	-152.865	-0.400	0.028
-600.084	691.332	-0.117	0.310
-599.069	327.335	0.019	-0.037
-598.055	15.884	-0.158	-0.125
-597.040	-200.000	-0.060	0.425
-596.025	-100.890	-0.179	0.044
-595.011	-13.650	-0.221	0.144
-593.996	42.815	-0.090	0.082
-592.982	143.539	0.089	-0.119
-591.967	-91.582	0.329	0.094
-590.952	-200.000	0.007	0.302
-589.938	800.000	-0.072	0.273
-588.923	-84.251	0.202	-0.064
-587.909	-81.492	-0.140	-0.046
-586.894	-68.372	-0.363	-0.142
-585.879	55.019	-0.176	0.171
-584.865	-75.242	-0.183	0.066
-583.850	381.202	-0.077	-0.159
-582.836	265.059	0.015	-0.026
-581.821	185.416	0.079	-0.118
-580.806	-10.236	0.040	-0.027
-579.792	-66.413	0.260	-0.104
-578.777	41.886	0.218	-0.199
-577.763	261.249	-0.070	0.123
-576.748	87.129	0.151	-0.168
-575.733	239.482	-0.105	-0.176
-574.719	-30.817	-0.199	-0.113
-573.704	800.000	0.017	0.070
-572.690	-78.785	-0.109	-0.037
-571.675	-27.852	0.193	0.113
-570.661	120.753	0.144	0.180
-569.646	-145.639	-0.176	-0.016
-568.631	217.430	0.324	-0.519
-567.617	371.675	-0.104	-0.213
-566.602	-54.280	-0.256	-0.117
-565.588	3.988	-0.123	0.091
-564.573	493.074	0.143	-0.329
-563.558	154.327	0.182	0.251
-562.544	-200.000	-0.024	-0.171
-561.529	158.257	0.095	-0.133
-560.515	-53.075	-0.370	-0.171
-559.500	756.110	0.086	-0.233
-558.485	1.778	-0.013	0.009
-557.471	-174.080	-0.082	0.002
-556.456	-43.193	-0.334	-0.170
-555.442	123.421	0.181	-0.228
-554.427	0.639	0.124	0.089
-553.412	37.787	0.198	-0.176
-552.398	-129.950	-0.176	-0.024
-551.383	-18.304	0.221	0.139
-550.369	-90.141	-0.414	-0.121
-549.354	-102.064	-0.376	0.091
-548.339	108.146	-0.207	0.248
-547.325	-58.712	0.115	0.050
-546.310	-140.542	0.230	-0.024
-545.296	108.249	0.186	0.223
-544.281	630.937	-0.137	-0.348
-543.266	-136.996	-0.306	-0.035
-542.252	-112.570	0.430	0.086
-541.237	-65.918	-0.227	0.091
-540.223	24.897	-0.212	-0.177
-539.208	1.583	-0.126	-0.091
-538.193	-26.668	0.134	0.079
-537.179	75.847	-0.088	0.094
-536.164	461.078	-0.079	0.176
-535.150	60.795	-0.218	0.217
-534.135	68.141	0.242	-0.249
-533.121	19.428	-0.117	-0.095
-532.106	91.613	-0.345	-0.389
-531.091	65.518	-0.200	-0.204
-530.077	122.879	0.132	-0.165
-529.062	267.165	0.161	-0.282
-528.048	-23.055	-0.212	0.128
-527.033	349.247	-0.054	0.107
-526.018	-200.000	-0.020	-0.251
-525.004	800.000	-0.077	-0.217
-523.989	-37.630	0.288	-0.154
-522.975	314.210	-0.105	-0.199
-521.960	-93.204	0.021	-0.006
-520.945	7.833	-0.029	-0.021
-519.931	-200.000	-0.035	0.233
-518.916	-200.000	0.012	0.214
-517.902	-200.000	0.016	0.378
-516.887	716.222	-0.006	0.015
-515.872	338.658	0.109	0.212
-514.858	248.704	-0.114	0.194
-513.843	-48.365	-0.279	0.135
-512.829	-56.267	-0.296	-0.132
-511.814	127.086	0.120	-0.153
-510.799	800.000	0.053	0.200
-509.785	-110.716	-0.199	-0.041
-508.770	67.060	0.199	-0.204
-507.756	751.276	-0.048	0.130
-506.741	-200.000	0.017	0.093
-505.726	-126.092	0.227	-0.034
-504.712	-82.499	0.467	-0.152
-503.697	-127.861	0.163	-0.024
-502.683	140.375	-0.035	0.047
-501.668	-200.000	0.005	0.184
-500.653	-200.000	-0.035	0.164
-499.639	-44.022	0.186	-0.094
-498.624	189.619	0.204	-0.307
-497.610	456.008	0.015	-0.034
-496.595	-94.844	-0.175	0.047
-495.581	-200.000	0.011	-0.113
-494.566	-200.000	0.032	-0.308
-493.551	-28.649	0.219	-0.126
-492.537	19.961	-0.193	0.156
-491.522	56.475	0.195	-0.191
-490.508	-200.000	-0.101	-0.570
-489.493	124.735	0.095	0.120
-488.478	800.000	0.083	-0.271
-487.464	-200.000	-0.014	-0.244
-486.449	327.099	0.043	-0.082
-485.435	800.000	-0.008	0.029
-484.420	-172.162	0.116	0.004
-483.405	15.028	0.192	0.151
-482.391	-200.000	0.070	0.344
-481.376	469.519	0.081	0.183
-480.362	-17.269	-0.449	-0.284
-479.347	90.925	-0.061	-0.068
-478.332	-82.852	-0.293	-0.095
-477.318	-147.023	0.130	0.011
-476.303	-159.747	-0.186	0.010
-475.289	-24.101	0.073	-0.044
-474.274	-43.832	-0.069	-0.035
-473.259	682.217	0.099	0.259
-472.245	721.516	0.071	-0.189
-471.230	-27.775	0.145	-0.085
-470.216	42.082	-0.040	0.036
-469.201	-126.769	-0.285	-0.042
-468.186	56.160	-0.329	-0.320
-467.172	-109.042	-0.172	0.037
-466.157	800.000	-0.039	-0.163
-465.143	-98.479	0.165	-0.042
-464.128	-12.793	0.148	0.096
-463.113	-52.887	-0.398	-0.184
-462.099	2.676	0.151	0.110
-461.084	129.554	-0.086	0.110
-460.070	4.952	0.201	0.148
-459.055	678.381	-0.057	0.149
-458.040	-200.000	-0.003	0.212
-457.026	-200.000	-0.005	-0.113
-456.011	-122.043	-0.178	-0.029
-454.997	642.756	0.089	0.226
-453.982	-93.284	0.085	-0.024
-452.968	-200.000	0.069	-0.352
-451.953	-200.000	-0.074	-0.386
-450.938	546.631	-0.101	0.243
-449.924	129.111	0.177	0.226
-448.909	-3.940	0.146	-0.102
-447.895	422.688	-0.067	0.144
-446.880	-21.158	0.196	-0.120
-445.865	-68.467	0.133	0.052
-444.851	91.211	-0.184	0.207
-443.836	-107.060	0.313	0.069
-442.822	10.807	0.112	0.086
-441.807	-200.000	0.019	0.234
-440.792	-45.653	-0.192	0.095
-439.778	57.312	-0.106	-0.104
-438.763	-200.000	-0.020	0.289
-437.749	-65.102	-0.282	-0.114
-436.734	313.296	0.135	0.254
-435.719	-93.601	-0.189	-0.052
-434.705	56.818	-0.152	-0.148
-433.690	453.720	0.123	0.272
-432.676	194.693	-0.086	-0.130
-431.661	143.327	-0.149	0.198
-430.646	-87.173	0.186	-0.057
-429.632	-128.251	0.218	-0.031
-428.617	187.845	-0.123	-0.184
-427.603	-200.000	-0.032	-0.398
-426.588	275.534	-0.091	0.162
-425.573	190.737	-0.069	-0.104
-424.559	-132.845	0.409	0.052
-423.544	27.770	0.234	0.197
-422.530	800.000	-0.062	-0.193
-421.515	-200.000	0.006	0.247
-420.500	-139.744	-0.043	0.005
-419.486	111.289	-0.054	-0.066
-418.471	53.984	0.130	-0.125
-417.457	-200.000	0.023	0.128
-416.442	800.000	0.100	0.396
-415.428	800.000	-0.012	0.044
-414.413	-38.114	-0.153	-0.081
-413.398	-96.149	-0.192	0.051
-412.384	53.177	-0.035	0.033
-411.369	-23.758	-0.195	0.117
-410.355	-49.115	-0.231	-0.110
-409.340	800.000	-0.049	-0.179
-408.325	-94.192	-0.456	0.125
-407.311	265.080	-0.168	-0.292
-406.296	118.503	0.093	0.115
-405.282	38.951	0.109	-0.098
-404.267	-26.451	-0.175	0.102
-403.252	61.094	-0.132	0.131
-402.238	800.000	-0.080	-0.269
-401.223	7.786	0.279	-0.209
-400.209	-200.000	-0.002	-0.026
-399.194	-59.124	0.228	-0.098
-398.179	93.440	0.267	0.302
-397.165	-54.566	0.116	0.053
-396.150	-62.447	0.097	0.040
-395.136	-36.718	-0.173	0.093
-394.121	153.852	-0.083	0.113
-393.106	800.000	0.043	-0.172
-392.092	-126.536	0.101	0.015
-391.077	-200.000	-0.000	-0.139
-390.063	-30.309	-0.230	-0.130
-389.048	-23.542	0.236	0.141
-388.033	-49.939	-0.042	0.020
-387.019	48.861	0.242	-0.227
-386.004	692.018	0.062	0.163
-384.990	74.209	0.173	0.182
-383.975	122.040	-0.113	-0.141
-382.960	-109.399	0.183	0.039
-381.946	32.084	0.146	-0.126
-380.931	800.000	0.101	0.303
-379.917	4.641	0.242	0.177
-378.902	-159.734	-0.169	-0.009
-377.888	-199.933	0.115	-0.001
-376.873	-200.000	-0.040	0.291
-375.858	-115.380	0.141	-0.027
-374.844	-200.000	-0.015	-0.150
-373.829	-200.000	-0.021	-0.104
-372.815	-176.420	-0.354	-0.009
-371.800	105.025	0.127	0.150
-370.785	800.000	-0.072	0.287
-369.771	-23.941	0.159	-0.095
-368.756	114.925	-0.191	-0.233
-367.742	91.740	0.072	-0.080
-366.727	-141.649	0.287	0.029
-365.712	251.753	-0.122	0.207
-364.698	213.363	0.028	-0.044
-363.683	-200.000	0.025	-0.319
-362.669	-62.354	-0.564	-0.234
-361.654	523.165	-0.142	0.333
-360.639	239.628	-0.059	0.098
-359.625	-126.758	0.456	-0.067
-358.610	800.000	-0.115	-0.467
-357.596	-160.463	-0.023	0.001
-356.581	110.693	-0.157	0.189
-355.566	27.439	0.185	-0.155
-354.552	-25.297	-0.231	0.136
-353.537	-168.952	-0.207	0.008
-352.523	76.164	0.233	-0.246
-351.508	712.192	-0.050	0.133
-350.493	528.764	-0.027	0.065
-349.479	534.819	-0.127	-0.300
-348.464	580.322	0.065	0.159
-347.450	32.508	0.130	-0.112
-346.435	-51.820	0.176	-0.082
-345.420	-200.000	0.043	0.337
-344.406	54.487	0.214	-0.205
-343.391	211.143	-0.101	0.158
-342.377	-142.151	0.112	-0.011
-341.362	-200.000	-0.008	0.053
-340.348	-200.000	0.015	0.266
-339.333	-200.000	0.005	0.025
-338.318	46.833	0.086	-0.080
-337.304	-64.721	0.038	0.015
-336.289	800.000	0.032	-0.101
-335.275	-62.807	-0.493	-0.203
-334.260	11.784	0.225	-0.172
-333.245	-20.197	-0.189	-0.116
-332.231	133.349	-0.151	-0.195
-331.216	-200.000	0.089	0.423
-330.202	-200.000	0.039	0.214
-329.187	421.203	0.134	0.287
-328.172	-101.687	-0.258	0.062
-327.158	267.864	-0.156	-0.272
-326.143	-167.490	0.137	-0.005
-325.129	62.266	-0.253	0.252
-324.114	186.066	0.064	0.095
-323.099	-92.288	-0.337	0.094
-322.085	-91.705	-0.481	-0.136
-321.070	25.483	-0.155	0.128
-320.056	584.341	0.052	-0.127
-319.041	-138.875	0.226	0.024
-318.026	-94.243	-0.292	-0.079
-317.012	-113.857	-0.104	0.020
-315.997	6.582	0.227	0.168
-314.983	800.000	-0.038	0.131
-313.968	-4.775	-0.262	0.180
-312.953	33.115	-0.078	0.067
-311.939	228.771	-0.086	-0.140
-310.924	800.000	0.044	-0.156
-309.910	-200.000	0.006	-0.057
-308.895	133.695	-0.179	-0.231
-307.880	-200.000	0.021	-0.119
-306.866	-200.000	0.023	-0.122
-305.851	291.568	-0.076	-0.137
-304.837	-135.383	0.398	-0.047
-303.822	-200.000	0.003	0.131
-302.807	-92.644	-0.318	-0.089
-301.793	-121.809	0.185	0.030
-300.778	-54.043	0.151	-0.068
-299.764	-200.000	-0.035	-0.429
-298.749	-97.916	-0.364	-0.094
-297.735	-200.000	0.009	0.061
-296.720	-200.000	0.008	-0.045
-295.705	-111.342	0.135	0.027
-294.691	387.190	0.032	-0.066
-293.676	-200.000	0.018	0.259
-292.662	-200.000	0.030	-0.193
-291.647	638.887	0.156	0.394
-290.632	-200.000	-0.023	0.393
-289.618	800.000	0.089	0.261
-288.603	-112.286	0.213	-0.042
-287.589	192.421	-0.150	0.225
-286.574	390.607	-0.049	0.100
-285.559	-5.314	-0.243	0.166
-284.545	-90.252	-0.329	-0.095
-283.530	-53.048	-0.090	-0.041
-282.516	-200.000	0.018	-0.214
-281.501	-25.245	-0.123	0.072
-280.486	217.759	0.022	-0.035
-279.472	-200.000	-0.004	0.184
-278.457	219.389	-0.117	0.187
-277.443	94.651	-0.144	0.163
-276.428	-71.682	0.271	0.100
-275.413	-35.816	0.414	0.223
-274.399	-61.902	-0.140	-0.058
-273.384	800.000	-0.074	-0.208
-272.370	-124.990	-0.275	-0.042
-271.355	-200.000	0.033	-0.192
-270.340	-79.673	0.297	0.099
-269.326	323.824	0.075	0.141
-268.311	-8.913	-0.120	0.080
-267.297	-25.452	0.403	-0.237
-266.282	800.000	-0.051	0.205
-265.267	127.241	0.116	0.146
-264.253	-200.000	0.046	-0.220
-263.238	-172.122	0.247	0.008
-262.224	-23.142	-0.154	-0.092
-261.209	800.000	-0.083	0.250
-260.195	-129.818	-0.057	-0.008
-259.180	-200.000	0.072	0.329
-258.165	800.000	0.096	0.289
-257.151	-200.000	-0.008	-0.048
-256.136	800.000	0.040	0.155
-255.122	282.133	-0.139	0.248
-254.107	472.802	0.062	0.139
-253.092	31.750	0.043	-0.037
-252.078	-200.000	-0.027	0.348
-251.063	800.000	0.051	-0.165
-250.049	153.855	-0.195	0.266
-249.034	-40.348	0.149	0.077
-248.019	-125.402	0.212	0.032
-247.005	24.646	-0.069	0.057
-245.990	-19.055	-0.131	0.081
-244.976	198.394	-0.064	0.097
-243.961	-69.935	0.140	0.053
-242.946	42.091	0.113	-0.102
-241.932	-110.636	0.053	-0.011
-240.917	-115.411	-0.359	0.067
-239.903	288.211	0.122	-0.219
-238.888	95.671	-0.138	0.157
-237.873	-200.000	0.042	-0.198
-236.859	-200.000	0.032	0.222
-235.844	-111.319	0.296	-0.060
-234.830	-123.607	0.194	0.031
-233.815	-57.744	0.243	-0.106
-232.800	800.000	0.055	0.231
-231.786	-200.000	-0.065	-0.337
-230.771	-132.822	-0.054	0.007
-229.757	86.844	0.107	0.118
-228.742	-61.002	-0.383	0.160
-227.727	83.308	-0.224	0.242
-226.713	240.150	-0.005	0.007
-225.698	-200.000	0.006	-0.065
-224.684	35.803	0.038	-0.033
-223.669	-62.123	0.292	-0.121
-222.655	800.000	0.042	-0.118
-221.640	-200.000	-0.062	0.658
-220.625	3.536	-0.205	0.148
-219.611	-85.719	-0.269	0.083
-218.596	-9.041	0.359	0.238
-217.582	-9.991	-0.034	0.022
-216.567	-100.857	0.205	0.050
-215.552	-200.000	0.020	-0.226
-214.538	272.009	0.209	-0.365
-213.523	-138.139	0.283	-0.031
-212.509	368.584	0.057	0.114
-211.494	40.069	0.233	-0.208
-210.479	38.736	0.187	-0.166
-209.465	-78.662	-0.513	-0.174
-208.450	800.000	0.045	-0.152
-207.436	-140.415	0.103	0.011
-206.421	-101.188	-0.174	0.042
-205.406	80.713	-0.077	-0.082
-204.392	-200.000	0.028	-0.225
-203.377	800.000	-0.019	-0.060
-202.363	-200.000	0.014	-0.176
-201.348	20.098	0.209	0.167
-200.333	-57.989	0.352	0.152
-199.319	48.092	-0.115	0.107
-198.304	-89.994	0.097	-0.028
-197.290	-200.000	0.003	-0.036
-196.275	-55.625	-0.170	-0.075
-195.260	-200.000	0.001	-0.336
-194.246	-53.730	0.219	-0.099
-193.231	8.103	-0.131	0.098
-192.217	149.468	-0.111	-0.149
-191.202	692.640	0.051	0.132
-190.187	-138.436	0.441	-0.048
-189.173	131.940	0.139	-0.177
-188.158	199.393	0.046	0.070
-187.144	36.814	-0.359	0.314
-186.129	107.433	0.158	0.186
-185.114	-2.758	-0.056	-0.039
-184.100	28.742	0.199	0.167
-183.085	221.486	0.080	-0.128
-182.071	800.000	-0.155	0.428
-181.056	-107.281	0.213	-0.046
-180.042	800.000	-0.041	-0.162
-179.027	180.855	0.045	0.065
-178.012	-200.000	0.044	-0.259
-176.998	130.316	-0.104	-0.132
-175.983	-32.531	-0.218	-0.120
-174.969	121.786	-0.173	0.213
-173.954	84.968	0.099	-0.108
-172.939	800.000	-0.074	-0.261
-171.925	84.420	-0.251	-0.271
-170.910	-200.000	0.004	-0.208
-169.896	800.000	-0.027	-0.089
-168.881	-148.953	0.167	-0.013
-167.866	-66.965	0.224	0.088
-166.852	-157.360	0.390	-0.023
-165.837	-200.000	-0.009	-0.044
-164.823	-65.055	-0.068	-0.027
-163.808	-200.000	0.026	-0.237
-162.793	363.212	0.059	0.118
-161.779	431.551	-0.057	0.122
-160.764	485.379	0.089	0.202
-159.750	-148.727	0.189	0.015
-158.735	-63.375	0.159	-0.065
-157.720	800.000	-0.066	0.208
-156.706	78.548	-0.139	0.147
-155.691	7.921	0.141	-0.105
-154.677	-42.282	-0.265	0.134
-153.662	-27.003	-0.194	0.112
-152.647	-152.207	0.253	0.018
-151.633	78.370	-0.430	-0.454
-150.618	583.335	0.103	-0.251
-149.604	280.240	-0.102	-0.180
-148.589	-200.000	0.058	0.427
-147.574	-3.484	0.210	-0.145
-146.560	-200.000	-0.037	0.229
-145.545	151.959	0.105	-0.141
-144.531	-200.000	0.010	-0.163
-143.516	-53.244	0.308	0.140
-142.502	4.523	0.262	0.190
-141.487	-184.020	-0.472	-0.008
-140.472	311.155	0.117	0.217
-139.458	800.000	-0.024	0.092
-138.443	800.000	-0.023	-0.090
-137.429	-200.000	0.037	0.338
-136.414	209.048	-0.061	-0.094
-135.399	-75.105	-0.167	0.059
-134.385	24.556	-0.180	0.147
-133.370	800.000	0.190	-0.550
-132.356	-200.000	0.023	0.242
-131.341	-198.271	0.059	0.000
-130.326	50.820	0.377	-0.353
-129.312	-4.956	0.173	0.117
-128.297	275.060	-0.090	-0.159
-127.283	133.319	-0.062	0.079
-126.268	-200.000	0.094	0.653
-125.253	29.588	-0.283	0.238
-124.239	-200.000	-0.010	-0.094
-123.224	-124.201	0.241	0.037
-122.210	41.779	0.141	-0.126
-121.195	85.738	-0.141	-0.153
-120.180	30.606	-0.023	0.019
-119.166	800.000	-0.031	-0.120
-118.151	207.316	-0.209	-0.322
-117.137	246.056	0.149	-0.248
-116.122	-200.000	-0.002	-0.089
-115.107	-146.698	-0.282	-0.024
-114.093	-172.819	0.163	-0.005
-113.078	-50.605	-0.045	-0.021
-112.064	-166.205	0.284	0.012
-111.049	76.236	-0.129	0.135
-110.034	-200.000	-0.037	0.175
-109.020	132.340	0.105	-0.134
-108.005	-33.858	-0.238	-0.130
-106.991	800.000	0.057	0.235
-105.976	-118.199	0.143	0.025
-104.962	-98.408	0.161	0.041
-103.947	-8.661	-0.216	0.143
-102.932	-5.668	0.256	0.173
-101.918	147.422	-0.202	-0.268
-100.903	800.000	0.018	-0.054
-99.889	-88.296	-0.345	-0.102
-98.874	-133.374	-0.140	-0.017
-97.859	558.020	0.041	0.097
-96.845	-200.000	0.007	0.172
-95.830	1.806	-0.119	0.085
-94.816	-101.762	-0.240	0.057
-93.801	53.736	0.077	-0.073
-92.786	199.937	0.057	0.087
-91.772	-123.872	-0.064	0.010
-90.757	-125.831	-0.106	0.016
-89.743	-156.741	0.504	0.031
-88.728	562.330	0.047	-0.113
-87.713	323.360	-0.066	0.123
-86.699	-200.000	-0.019	0.106
-85.684	60.239	0.217	-0.211
-84.670	800.000	0.081	0.348
-83.655	-118.317	-0.094	-0.016
-82.640	800.000	0.049	-0.185
-81.626	-3.284	0.268	0.184
-80.611	-200.000	-0.087	0.423
-79.597	800.000	0.056	0.164
-78.582	5.525	-0.281	0.205
-77.567	-200.000	0.016	-0.081
-76.553	800.000	0.070	-0.271
-75.538	65.015	0.194	0.193
-74.524	-95.359	0.091	-0.024
-73.509	-200.000	0.001	0.167
-72.494	800.000	0.125	0.523
-71.480	-200.000	-0.031	-0.236
-70.465	130.582	-0.254	-0.322
-69.451	397.248	-0.052	-0.108
-68.436	800.000	-0.068	0.261
-67.422	-63.060	0.095	0.039
-66.407	171.451	-0.151	-0.214
-65.392	800.000	0.044	-0.132
-64.378	-46.612	-0.266	-0.129
-63.363	17.323	0.117	-0.091
-62.349	514.530	-0.068	-0.156
-61.334	161.162	-0.671	-0.925
-60.319	-92.725	0.385	0.106
-59.305	495.919	-0.335	-0.758
-58.290	311.344	0.539	0.995
-57.276	426.455	0.887	1.884
-56.261	-200.000	97.998	577.537
-55.246	641.867	1398.083	3510.531
-54.232	186.112	2617.651	3837.184
-53.217	116.429	2307.473	2787.972
-52.203	44.554	1919.583	1738.579
-51.188	38.164	1706.601	1496.852
-50.173	35.374	1661.400	1436.293
-49.159	52.498	1710.725	1609.401
-48.144	56.162	1727.874	1653.257
-47.130	37.802	1683.857	1473.933
-46.115	34.967	1668.466	1439.118
-45.100	34.727	1664.225	1433.601
-44.086	34.690	1661.479	1430.901
-43.071	34.641	1658.554	1427.954
-42.057	34.587	1656.356	1425.605
-41.042	34.704	1654.117	1424.494
-40.027	34.745	1652.561	1423.402
-39.013	34.621	1650.407	1420.572
-37.998	34.680	1648.482	1419.295
-36.984	34.696	1646.974	1418.061
-35.969	34.740	1646.059	1417.540
-34.954	34.877	1643.995	1416.720
-33.940	34.839	1642.134	1414.780
-32.925	34.820	1640.510	1413.184
-31.911	34.802	1638.469	1411.236
-30.896	34.766	1636.969	1409.625
-29.881	34.839	1635.111	1408.506
-28.867	34.788	1633.466	1406.659
-27.852	34.866	1631.720	1405.672
-26.838	34.853	1630.405	1404.391
-25.823	34.846	1628.795	1402.893
-24.809	34.851	1628.011	1402.202
-23.794	34.804	1626.066	1400.125
-22.779	34.835	1624.857	1399.259
-21.765	34.823	1623.341	1397.805
-20.750	34.877	1620.907	1396.048
-19.736	34.911	1619.876	1395.356
-18.721	34.833	1618.427	1393.484
-17.706	34.864	1617.266	1392.653
-16.692	34.779	1615.133	1390.147
-15.677	34.812	1613.688	1389.087
-14.663	34.862	1612.368	1388.253
-13.648	34.843	1611.395	1387.223
-12.633	34.862	1609.750	1385.890
-11.619	34.908	1607.898	1384.575
-10.604	34.923	1606.777	1383.666
-9.590	34.809	1605.186	1381.417
-8.575	34.891	1603.917	1380.856
-7.560	34.776	1603.014	1379.197
-6.546	34.790	1602.203	1378.546
-5.531	34.780	1600.755	1377.175
-4.517	34.863	1599.734	1376.841
-3.502	34.855	1597.715	1374.988
-2.487	34.947	1596.435	1374.492
-1.473	34.649	1584.704	1362.215
-0.458	31.304	1564.550	1321.222
0.556	29.416	1562.662	1281.164
1.571	26.452	1585.897	1279.171
2.586	25.366	1598.458	1281.445
3.600	22.281	1544.106	1216.465
4.615	13.796	1434.850	1075.523
5.629	6.071	1370.156	978.966
6.644	4.684	1360.722	963.554
7.659	4.739	1359.559	962.985
8.673	4.769	1358.584	962.395
9.688	4.817	1356.619	961.210
10.702	4.821	1354.264	959.485
11.717	8.338	1361.458	986.251
12.731	16.929	1376.946	1050.831
13.746	22.393	1385.256	1091.051
14.761	22.649	1384.412	1091.873
15.775	21.858	1381.925	1084.924
16.790	20.781	1379.339	1076.143
17.804	20.012	1377.112	1069.567
18.819	19.576	1376.190	1066.062
19.834	19.442	1375.076	1064.278
20.848	19.267	1374.058	1062.319
21.863	19.139	1372.536	1060.261
22.877	18.949	1371.516	1058.209
23.892	18.866	1370.822	1057.070
24.907	18.894	1369.834	1056.383
25.921	18.924	1368.855	1055.719
26.936	18.928	1368.256	1055.189
27.950	18.964	1367.041	1054.383
28.965	19.008	1366.189	1053.899
29.980	19.252	1365.048	1054.418
30.994	19.188	1364.484	1053.499
32.009	19.356	1362.942	1053.240
33.023	19.354	1361.474	1052.000
34.038	19.231	1359.765	1049.840
35.053	19.112	1358.773	1048.257
36.067	19.108	1357.565	1047.205
37.082	19.146	1357.243	1047.095
38.096	19.221	1356.119	1046.591
39.111	19.271	1355.121	1046.035
40.126	19.118	1354.020	1044.161
41.140	18.906	1353.101	1042.078
42.155	18.742	1352.845	1040.795
43.169	18.616	1352.557	1039.713
44.184	18.696	1352.145	1039.790
45.199	18.816	1351.551	1039.967
46.213	18.899	1351.498	1040.342
47.228	18.986	1350.751	1040.198
48.242	19.081	1349.584	1039.784
49.257	19.031	1347.728	1037.957
50.271	18.964	1346.450	1036.480
51.286	19.081	1345.611	1036.446
52.301	19.082	1343.804	1034.969
53.315	18.916	1342.933	1033.206
54.330	18.782	1341.672	1031.341
55.344	18.796	1340.511	1030.444
56.359	18.883	1339.289	1029.931
57.374	18.661	1339.007	1028.294
58.388	18.697	1337.700	1027.414
59.403	18.593	1337.472	1026.528
60.417	18.635	1336.790	1026.162
61.432	18.511	1336.008	1024.729
62.447	18.541	1334.693	1023.813
63.461	18.440	1333.774	1022.416
64.476	18.489	1332.482	1021.624
65.490	18.396	1331.688	1020.373
66.505	18.413	1329.964	1019.059
67.520	18.563	1328.280	1018.570
68.534	18.628	1327.276	1018.097
69.549	18.586	1326.515	1017.172
70.563	18.507	1325.490	1015.833
71.578	18.355	1324.426	1014.026
72.593	18.339	1323.256	1012.946
73.607	18.241	1323.078	1012.141
74.622	18.437	1321.402	1011.924
75.636	18.330	1321.895	1011.581
76.651	18.457	1320.552	1011.214
77.666	18.328	1320.651	1010.439
78.680	18.409	1320.171	1010.462
79.695	18.591	1319.308	1010.785
80.709	18.575	1318.878	1010.268
81.724	18.760	1317.540	1010.242
82.739	18.832	1317.242	1010.347
83.753	18.936	1316.545	1010.337
84.768	18.918	1315.805	1009.576
85.782	19.158	1314.271	1009.715
86.797	19.136	1312.972	1008.496
87.812	19.062	1311.642	1006.953
88.826	19.106	1310.573	1006.301
89.841	19.067	1310.091	1005.618
90.855	19.186	1308.911	1005.315
91.870	19.154	1308.508	1004.732
92.884	19.185	1307.051	1003.702
93.899	19.128	1306.704	1003.016
94.914	19.306	1305.813	1003.277
95.928	19.225	1305.346	1002.360
96.943	19.275	1303.717	1001.310
97.957	19.164	1303.174	1000.163
98.972	19.223	1302.167	999.644
99.987	19.220	1301.194	998.790
101.001	19.068	1300.421	997.226
102.016	19.198	1299.023	996.817
103.030	19.203	1298.219	996.145
104.045	19.137	1297.628	995.218
105.060	19.042	1295.807	993.185
106.074	18.822	1294.222	990.618
107.089	18.601	1292.465	987.910
108.103	18.474	1291.819	986.599
109.118	18.540	1290.255	985.696
110.133	18.568	1288.952	984.775
111.147	18.575	1287.694	983.767
112.162	18.600	1286.547	982.943
113.176	18.518	1285.585	981.653
114.191	18.675	1284.932	981.968
115.206	18.688	1283.777	981.074
116.220	18.627	1282.594	979.732
117.235	18.597	1281.562	978.688
118.249	18.657	1280.334	978.003
119.264	18.569	1279.197	976.546
120.279	18.515	1277.852	975.127
121.293	18.429	1277.017	973.918
122.308	18.456	1275.511	972.834
123.322	18.452	1274.526	971.973
124.337	18.257	1274.143	970.490
125.352	18.399	1272.672	970.086
126.366	18.342	1271.716	968.952
127.381	18.242	1270.726	967.546
128.395	18.324	1269.432	966.939
129.410	18.497	1268.589	967.185
130.424	18.517	1267.667	966.511
131.439	18.554	1267.640	966.612
132.454	18.627	1266.464	966.040
133.468	18.644	1265.842	965.580
134.483	18.708	1265.201	965.363
135.497	18.724	1263.955	964.415
136.512	18.800	1262.741	963.830
137.527	18.739	1261.272	962.287
138.541	18.809	1260.106	961.703
139.556	18.932	1258.546	961.112
140.570	18.899	1257.965	960.401
141.585	18.897	1257.177	959.701
142.600	19.138	1255.509	959.689
143.614	19.209	1254.819	959.472
144.629	19.245	1253.669	958.707
145.643	19.236	1252.888	957.976
146.658	18.990	1251.550	955.501
147.673	18.878	1249.739	953.412
148.687	18.813	1248.644	952.130
149.702	18.768	1247.369	950.828
150.716	18.678	1245.987	949.194
151.731	18.724	1244.906	948.536
152.746	18.720	1244.108	947.825
153.760	18.797	1242.563	946.989
154.775	18.863	1241.820	946.703
155.789	19.006	1241.002	946.779
156.804	18.953	1239.658	945.380
157.819	19.023	1238.704	944.953
158.833	19.096	1238.080	944.796
159.848	19.216	1237.335	944.801
160.862	19.134	1236.256	943.445
161.877	19.052	1234.038	941.218
162.892	18.783	1233.431	939.202
163.906	18.809	1232.546	938.590
164.921	18.724	1231.677	937.380
165.935	18.842	1231.097	937.499
166.950	18.932	1230.405	937.380
167.964	18.974	1229.222	936.626
168.979	18.968	1228.721	936.124
169.994	18.853	1228.210	935.027
171.008	18.894	1227.506	934.631
172.023	18.975	1226.772	934.432
173.037	19.196	1225.876	934.864
174.052	19.028	1224.982	933.190
175.067	18.999	1223.522	931.838
176.081	18.824	1222.723	930.200
177.096	18.818	1221.395	929.077
178.110	18.947	1220.238	928.808
179.125	18.789	1219.593	927.383
180.140	18.947	1218.605	927.403
181.154	19.114	1217.241	927.183
182.169	19.177	1216.131	926.593
183.183	19.184	1215.079	925.747
184.198	19.347	1213.798	925.564
185.213	19.200	1213.158	924.205
186.227	19.367	1211.824	924.005
187.242	19.380	1210.718	923.146
188.256	19.407	1210.471	923.023
189.271	19.517	1209.034	922.430
190.286	19.331	1207.947	920.527
191.300	18.921	1206.859	917.432
192.315	18.678	1205.979	915.382
193.329	18.752	1205.697	915.485
194.344	19.001	1204.799	916.045
195.359	19.023	1204.562	915.904
196.373	19.087	1204.348	915.998
197.388	19.167	1203.907	916.010
198.402	19.343	1203.414	916.491
199.417	19.461	1203.098	916.792
200.432	19.596	1202.236	916.773
201.446	19.727	1201.511	916.834
202.461	19.802	1200.736	916.558
203.475	19.719	1199.786	915.315
204.490	19.551	1198.398	913.287
205.504	19.275	1197.296	910.906
206.519	19.354	1196.121	910.348
207.534	19.212	1194.856	908.554
208.548	19.479	1193.513	908.861
209.563	19.462	1192.901	908.223
210.577	19.302	1192.781	907.209
211.592	19.486	1191.556	907.166
212.607	19.668	1190.551	907.277
213.621	19.774	1189.372	906.853
214.636	19.507	1189.033	905.114
215.650	19.580	1187.737	904.431
216.665	19.741	1186.639	904.357
217.680	19.795	1186.222	904.241
218.694	19.778	1186.103	903.983
219.709	19.790	1184.877	903.030
220.723	19.812	1183.652	902.130
221.738	19.754	1183.244	901.437
222.753	19.735	1182.263	900.509
223.767	19.839	1181.533	900.416
224.782	19.957	1181.220	900.710
225.796	19.958	1180.640	900.194
226.811	19.924	1180.073	899.508
227.826	19.774	1178.962	897.804
228.840	19.681	1178.392	896.804
229.855	19.712	1177.471	896.185
230.869	19.652	1176.844	895.321
231.884	19.613	1175.916	894.333
232.899	19.492	1174.923	892.874
233.913	19.618	1173.873	892.646
234.928	19.483	1173.659	891.705
235.942	19.492	1172.824	891.041
236.957	19.527	1171.974	890.497
237.972	19.474	1171.217	889.567
238.986	19.526	1170.598	889.289
240.001	19.561	1169.715	888.718
241.015	19.574	1168.695	887.930
242.030	19.621	1168.561	887.993
243.045	19.831	1167.296	888.030
244.059	19.733	1166.776	887.054
245.074	19.925	1165.748	887.180
246.088	19.844	1165.533	886.521
247.103	19.890	1164.993	886.268
248.117	20.094	1163.841	886.357
249.132	20.119	1163.685	886.287
250.147	20.342	1162.908	886.755
251.161	20.595	1162.224	887.444
252.176	20.492	1161.593	886.364
253.190	20.498	1161.200	886.012
254.205	20.636	1160.751	886.297
255.220	20.608	1160.154	885.618
256.234	20.593	1159.439	884.917
257.249	20.681	1158.962	884.922
258.263	20.509	1158.326	883.487
259.278	20.621	1157.288	883.184
260.293	20.604	1156.973	882.777
261.307	20.766	1156.218	882.946
262.322	20.654	1155.841	882.012
263.336	20.749	1155.145	881.884
264.351	20.838	1154.326	881.633
265.366	20.787	1153.836	880.924
266.380	20.741	1153.079	880.036
267.395	20.653	1151.847	878.571
268.409	20.496	1151.342	877.314
269.424	20.574	1150.509	876.998
270.439	20.560	1149.847	876.344
271.453	20.566	1149.057	875.697
272.468	20.583	1148.007	874.901
273.482	20.325	1147.560	873.189
274.497	20.371	1147.010	872.921
275.512	20.448	1146.230	872.640
276.526	20.327	1145.836	871.654
277.541	20.431	1144.859	871.355
278.555	20.624	1144.036	871.618
279.570	20.780	1143.264	871.733
280.585	20.931	1142.595	871.902
281.599	20.870	1141.606	870.768
282.614	20.641	1140.783	868.917
283.628	20.548	1139.717	867.566
284.643	20.554	1138.632	866.694
285.657	20.627	1137.608	866.198
286.672	20.607	1137.077	865.620
287.687	20.549	1136.376	864.718
288.701	20.608	1135.473	864.251
289.716	20.670	1134.149	863.475
290.730	20.746	1133.732	863.457
291.745	20.648	1133.183	862.475
292.760	20.743	1132.422	862.293
293.774	20.823	1132.172	862.418
294.789	20.959	1131.936	862.835
295.803	20.891	1131.105	861.790
296.818	20.700	1130.225	860.101
297.833	20.783	1129.079	859.563
298.847	20.736	1128.322	858.679
299.862	20.751	1127.637	858.152
300.876	20.778	1127.251	857.919
301.891	20.902	1126.713	858.044
302.906	20.955	1126.169	857.814
303.920	21.144	1125.165	857.905
304.935	20.992	1125.266	857.158
305.949	21.242	1124.065	857.392
306.964	21.263	1123.270	856.813
307.979	21.136	1122.831	855.779
308.993	21.111	1121.759	854.765
310.008	21.074	1121.430	854.257
311.022	21.172	1120.700	854.106
312.037	21.196	1119.758	853.428
313.052	21.086	1118.790	852.081
314.066	20.906	1117.495	850.140
315.081	20.745	1116.639	848.628
316.095	20.789	1115.377	847.809
317.110	20.841	1115.066	847.751
318.125	20.786	1114.190	846.742
319.139	20.741	1113.692	846.070
320.154	20.833	1112.991	845.907
321.168	20.843	1112.535	845.536
322.183	20.966	1111.598	845.345
323.197	20.888	1111.544	844.853
324.212	21.016	1110.509	844.609
325.227	20.927	1110.049	843.753
326.241	21.114	1109.011	843.795
327.256	21.068	1108.428	843.053
328.270	20.913	1107.660	841.646
329.285	20.941	1106.787	841.046
330.300	20.979	1106.105	840.634
331.314	20.957	1105.079	839.674
332.329	20.904	1104.195	838.674
333.343	21.078	1103.384	838.821
334.358	21.207	1102.787	838.911
335.373	21.240	1102.006	838.403
336.387	21.259	1101.138	837.757
337.402	21.354	1100.528	837.675
338.416	21.351	1099.865	837.083
339.431	21.354	1099.619	836.835
340.446	21.399	1099.241	836.690
341.460	21.642	1098.362	837.105
342.475	21.682	1097.601	836.643
343.489	21.654	1096.421	835.537
344.504	21.671	1095.616	834.930
345.519	21.720	1095.275	834.832
346.533	21.763	1094.363	834.266
347.548	21.809	1093.745	833.941
348.562	21.788	1092.681	832.955
349.577	21.603	1091.713	831.266
350.592	21.509	1090.627	829.919
351.606	21.420	1090.132	829.049
352.621	21.350	1089.419	828.099
353.635	21.234	1088.776	826.990
354.650	21.390	1088.209	827.223
355.665	21.456	1087.249	826.735
356.679	21.475	1086.843	826.442
357.694	21.517	1086.606	826.387
358.708	21.584	1085.837	826.044
359.723	21.760	1084.524	825.799
360.738	21.610	1084.440	824.956
361.752	21.600	1083.938	824.455
362.767	21.666	1083.452	824.322
363.781	21.684	1082.837	823.866
364.796	21.630	1082.334	823.158
365.810	21.864	1081.664	823.672
366.825	22.021	1081.025	823.851
367.840	22.133	1080.770	824.109
368.854	22.244	1079.971	823.947
369.869	22.093	1079.467	822.784
370.883	22.092	1078.427	821.912
371.898	21.940	1077.832	820.677
372.913	21.954	1077.292	820.256
373.927	21.956	1076.711	819.754
374.942	22.088	1076.174	819.885
375.956	22.020	1075.545	819.018
376.971	22.126	1074.917	818.963
377.986	22.033	1074.719	818.303
379.000	22.089	1074.441	818.279
380.015	22.239	1073.640	818.295
381.029	22.379	1072.754	818.199
382.044	22.388	1072.129	817.691
383.059	22.283	1071.351	816.540
384.073	22.278	1070.945	816.135
385.088	22.196	1069.832	814.835
386.102	22.348	1068.762	814.652
387.117	22.171	1067.622	812.890
388.132	21.965	1066.691	811.157
389.146	22.087	1065.653	810.862
390.161	21.990	1065.041	809.874
391.175	21.991	1064.390	809.313
392.190	22.083	1063.987	809.361
393.205	22.209	1063.189	809.263
394.219	22.286	1062.467	808.995
395.234	22.207	1061.377	807.732
396.248	22.093	1060.355	806.359
397.263	22.013	1059.620	805.362
398.278	22.083	1058.558	804.804
399.292	21.944	1057.562	803.339
400.307	21.862	1057.496	802.839
401.321	21.779	1056.708	801.791
402.336	21.954	1055.777	801.815
403.350	21.927	1055.317	801.271
404.365	21.969	1054.572	800.828
405.380	22.260	1053.893	801.568
406.394	22.144	1053.267	800.489
407.409	22.251	1052.652	800.441
408.423	22.325	1052.035	800.236
409.438	22.440	1051.294	800.122
410.453	22.494	1051.123	800.170
411.467	22.631	1050.439	800.198
412.482	22.589	1049.625	799.316
413.496	22.734	1048.740	799.229
414.511	22.733	1048.280	798.802
415.526	22.863	1048.029	799.131
416.540	22.832	1047.709	798.674
417.555	22.837	1046.895	798.006
418.569	22.734	1046.369	797.072
419.584	22.775	1045.767	796.726
420.599	22.655	1045.238	795.710
421.613	154.712	1400.832	1789.559
422.628	141.774	1452.626	1789.658
