DTS Sentinel unit serial number:	SN413079Multiplexer serial number:	ORYXHardware model number:	OX4-SRSoftware version number:	ORYX F/W v4.00 Oryx Data Collector v3.7.2.0data status	okinstallation	princeton_trtdifferential loss correction	single-endedforward channel	channel 2reverse channel	N/Adate	2019/09/13time	07:39:35forward acquisition time	60.00reverse acquisition time	0.00gamma	496.2192k internal	0.2336k external	0.2336temperature offset calibration	1.0192default loss term (dB/km)	0.3790temperature slope calibration	1.0000multiplexer offset coefficient	1.0000multiplexer slope coefficient	1.0000fibre end	0.00T internal ref (°C)	26.37T ext. ref 1 (°C)	4.21T ext. ref 2 (°C)	22.34length (m)	temperature (°C)	Stokes	anti-Stokes-747.200	-124.921	-0.314	-0.049
-746.185	562.624	-0.036	0.086
-745.171	-73.715	-0.243	0.089
-744.156	-113.418	-0.479	0.094
-743.142	489.430	-0.059	0.135
-742.127	-145.576	-0.136	-0.012
-741.112	-200.000	0.035	-0.237
-740.098	104.140	0.153	0.181
-739.083	139.185	0.106	-0.140
-738.069	-83.897	0.013	-0.004
-737.054	658.390	-0.094	0.242
-736.039	-111.114	-0.239	-0.049
-735.025	-5.397	-0.227	0.156
-734.010	-68.465	0.060	0.023
-732.996	-94.001	0.266	0.073
-731.981	-168.914	-0.218	-0.008
-730.966	318.769	0.098	0.187
-729.952	-200.000	0.014	-0.084
-728.937	-57.781	-0.447	-0.196
-727.923	19.719	-0.181	0.146
-726.908	-6.588	0.251	-0.172
-725.894	-67.777	0.166	-0.065
-724.879	800.000	-0.050	0.189
-723.864	-200.000	-0.001	0.368
-722.850	275.994	0.082	-0.145
-721.835	-200.000	0.017	-0.216
-720.821	-200.000	-0.022	-0.129
-719.806	800.000	0.042	0.129
-718.791	-57.496	0.087	0.039
-717.777	58.128	-0.022	-0.022
-716.762	-14.886	-0.109	-0.070
-715.748	-149.509	0.441	-0.035
-714.733	-200.000	-0.074	-0.334
-713.718	-102.124	-0.181	0.044
-712.704	-44.488	0.295	-0.148
-711.689	283.619	0.125	-0.226
-710.675	-200.000	-0.008	0.043
-709.660	285.411	0.035	-0.063
-708.645	-200.000	-0.025	0.359
-707.631	1.004	-0.230	0.165
-706.616	109.520	-0.046	-0.055
-705.602	-129.711	0.111	0.015
-704.587	-22.808	0.220	0.133
-703.572	-200.000	0.007	0.057
-702.558	24.681	0.490	-0.407
-701.543	-200.000	-0.066	-0.415
-700.529	-80.795	-0.142	-0.047
-699.514	-155.744	-0.123	-0.008
-698.499	772.242	0.089	-0.243
-697.485	332.834	-0.106	-0.205
-696.470	-110.069	0.017	0.004
-695.456	-200.000	0.025	-0.258
-694.441	173.362	0.244	-0.353
-693.426	150.240	0.096	-0.131
-692.412	-90.037	0.119	-0.035
-691.397	800.000	0.018	-0.058
-690.383	-29.190	0.075	0.043
-689.368	800.000	-0.118	-0.346
-688.354	800.000	-0.129	-0.509
-687.339	-76.505	-0.128	0.045
-686.324	-200.000	-0.021	-0.107
-685.310	-200.000	0.001	-0.498
-684.295	213.637	0.135	0.214
-683.281	20.531	0.176	-0.142
-682.266	30.739	-0.084	0.072
-681.251	335.661	-0.062	0.120
-680.237	345.129	-0.062	-0.123
-679.222	-42.202	0.020	-0.010
-678.208	30.469	0.373	0.320
-677.193	94.875	0.024	-0.028
-676.178	6.439	0.120	0.089
-675.164	-200.000	-0.049	-0.322
-674.149	-70.286	0.187	-0.071
-673.135	-47.670	-0.430	0.209
-672.120	133.081	-0.187	-0.242
-671.105	-16.274	0.252	0.160
-670.091	-200.000	-0.072	-0.330
-669.076	129.210	-0.207	-0.265
-668.062	800.000	-0.070	0.233
-667.047	-118.452	0.111	-0.020
-666.032	-1.050	0.173	0.123
-665.018	-129.844	-0.218	-0.030
-664.003	77.226	-0.020	0.021
-662.989	-200.000	-0.045	-0.224
-661.974	-104.986	0.120	-0.027
-660.959	529.990	0.065	-0.153
-659.945	-200.000	-0.014	-0.196
-658.930	-200.000	-0.015	0.186
-657.916	-200.000	0.010	-0.421
-656.901	-200.000	-0.031	-0.232
-655.886	-162.692	-0.146	-0.007
-654.872	17.250	-0.124	-0.099
-653.857	245.598	-0.048	-0.081
-652.843	32.178	0.133	-0.115
-651.828	-45.050	-0.092	0.046
-650.814	72.606	-0.258	0.269
-649.799	-80.488	-0.135	-0.045
-648.784	386.483	0.174	0.360
-647.770	-200.000	0.025	0.194
-646.755	800.000	-0.062	-0.219
-645.741	198.387	-0.064	0.098
-644.726	800.000	-0.066	0.211
-643.711	-200.000	0.001	0.009
-642.697	34.484	0.045	0.039
-641.682	800.000	0.020	-0.060
-640.668	51.047	0.077	-0.073
-639.653	151.488	0.151	-0.206
-638.638	-47.242	0.096	0.047
-637.624	-200.000	-0.029	-0.378
-636.609	-160.736	-0.378	-0.020
-635.595	-140.832	0.158	0.016
-634.580	-171.816	0.459	-0.015
-633.565	-96.150	-0.180	-0.048
-632.551	-133.966	-0.149	0.019
-631.536	335.001	0.124	-0.240
-630.522	-200.000	0.018	-0.264
-629.507	3.558	0.092	-0.067
-628.492	61.900	0.184	-0.183
-627.478	-40.252	-0.248	-0.129
-626.463	-113.719	-0.373	-0.073
-625.449	-102.794	-0.273	0.065
-624.434	-44.782	0.290	0.145
-623.419	-58.147	-0.100	-0.043
-622.405	135.907	-0.098	-0.128
-621.390	93.460	-0.135	0.153
-620.376	-53.475	0.031	-0.014
-619.361	-200.000	-0.036	0.203
-618.346	-117.160	-0.217	-0.039
-617.332	87.349	0.079	0.087
-616.317	337.996	-0.031	0.061
-615.303	-26.504	-0.091	0.053
-614.288	-122.459	-0.201	0.033
-613.273	-85.134	0.289	-0.090
-612.259	-82.938	0.226	-0.073
-611.244	-200.000	0.004	-0.164
-610.230	-200.000	0.003	0.029
-609.215	-44.466	0.160	0.080
-608.201	800.000	-0.012	-0.043
-607.186	800.000	0.009	0.028
-606.171	-170.223	0.087	0.003
-605.157	800.000	-0.057	-0.194
-604.142	424.576	-0.116	-0.250
-603.128	-38.840	-0.114	-0.060
-602.113	664.245	0.069	0.178
-601.098	113.567	0.129	-0.157
-600.084	234.348	-0.107	-0.176
-599.069	800.000	0.050	-0.164
-598.055	800.000	0.051	-0.162
-597.040	92.681	-0.263	-0.297
-596.025	202.694	0.163	0.252
-595.011	-154.821	-0.313	-0.021
-593.996	-169.024	0.120	-0.004
-592.982	35.408	0.114	0.100
-591.967	460.780	0.049	-0.109
-590.952	312.462	-0.051	-0.095
-589.938	268.795	-0.181	0.316
-588.923	-82.431	-0.119	0.039
-587.909	312.878	0.137	-0.256
-586.894	-92.871	0.148	0.041
-585.879	120.481	0.064	-0.079
-584.865	-200.000	0.006	0.215
-583.850	231.763	0.122	0.199
-582.836	41.638	0.282	0.255
-581.821	109.535	0.177	0.212
-580.806	-9.665	-0.454	-0.302
-579.792	800.000	0.080	-0.270
-578.777	199.237	-0.167	-0.255
-577.763	291.937	0.089	0.161
-576.748	-65.516	-0.121	0.048
-575.733	281.659	-0.161	0.289
-574.719	-200.000	-0.022	-0.128
-573.704	-151.738	-0.389	-0.029
-572.690	-66.142	-0.283	0.113
-571.675	-2.747	-0.132	-0.092
-570.661	-2.749	-0.223	-0.155
-569.646	259.243	-0.053	-0.091
-568.631	800.000	0.036	0.147
-567.617	-119.129	0.216	0.038
-566.602	800.000	0.090	-0.348
-565.588	-200.000	0.034	0.250
-564.573	-66.537	0.386	-0.153
-563.558	82.932	-0.103	-0.111
-562.544	15.242	-0.091	-0.071
-561.529	272.476	0.125	-0.220
-560.515	-200.000	-0.080	-0.358
-559.500	121.282	0.004	-0.005
-558.485	-55.722	-0.177	-0.079
-557.471	-200.000	0.015	-0.197
-556.456	9.356	0.269	-0.203
-555.442	-200.000	-0.029	-0.317
-554.427	-126.142	0.303	-0.045
-553.412	59.284	0.132	0.130
-552.398	800.000	0.031	0.118
-551.383	-60.717	0.242	-0.102
-550.369	800.000	-0.068	0.225
-549.354	-200.000	0.030	-0.307
-548.339	-40.713	0.429	-0.222
-547.325	61.643	-0.037	0.036
-546.310	4.871	-0.150	-0.110
-545.296	800.000	-0.027	-0.110
-544.281	800.000	0.052	-0.146
-543.266	-69.702	0.115	-0.044
-542.252	453.000	-0.113	0.249
-541.237	-153.712	-0.327	-0.022
-540.223	-17.564	-0.255	-0.160
-539.208	27.170	0.212	-0.177
-538.193	98.087	0.061	-0.070
-537.179	91.634	-0.184	-0.206
-536.164	-200.000	0.040	0.235
-535.150	102.200	0.098	-0.114
-534.135	95.098	-0.038	-0.043
-533.121	-139.310	0.237	-0.025
-532.106	289.190	0.105	0.189
-531.091	-200.000	0.016	0.196
-530.077	153.242	-0.330	0.450
-529.062	-200.000	0.050	0.356
-528.048	-74.220	-0.087	0.031
-527.033	-88.583	-0.156	-0.046
-526.018	376.451	-0.076	0.154
-525.004	-19.798	-0.067	0.041
-523.989	-194.050	0.139	0.001
-522.975	-184.889	-0.284	-0.004
-521.960	-69.386	0.252	0.096
-520.945	800.000	-0.041	-0.174
-519.931	-154.195	0.278	-0.019
-518.916	585.074	0.103	-0.251
-517.902	119.485	-0.122	-0.150
-516.887	800.000	0.144	0.413
-515.872	800.000	-0.042	-0.143
-514.858	-35.275	0.124	-0.067
-513.843	6.861	-0.102	0.076
-512.829	-158.044	0.197	0.012
-511.814	-2.868	-0.224	-0.156
-510.799	111.301	0.087	0.104
-509.785	206.985	-0.069	0.106
-508.770	-43.776	-0.191	0.095
-507.756	-85.306	-0.248	-0.077
-506.741	189.570	0.116	-0.173
-505.726	60.508	0.116	-0.114
-504.712	307.024	0.110	-0.204
-503.697	267.828	-0.092	-0.160
-502.683	238.210	-0.093	-0.154
-501.668	278.711	-0.183	-0.325
-500.653	-169.093	-0.324	0.012
-499.639	800.000	-0.083	-0.258
-498.624	-17.496	-0.095	0.060
-497.610	-200.000	0.001	-0.301
-496.595	800.000	-0.137	-0.447
-495.581	330.231	0.108	0.206
-494.566	-200.000	0.008	0.154
-493.551	198.942	0.013	-0.019
-492.537	279.086	0.129	0.229
-491.522	-39.559	0.114	-0.059
-490.508	147.024	0.062	-0.083
-489.493	-73.620	-0.169	-0.061
-488.478	-200.000	-0.059	0.350
-487.464	-98.497	0.100	-0.025
-486.449	-66.303	0.494	-0.195
-485.435	-127.835	0.116	0.017
-484.420	-45.978	0.164	0.080
-483.405	800.000	0.042	-0.169
-482.391	247.732	0.183	0.307
-481.376	-200.000	-0.053	0.275
-480.362	800.000	0.035	-0.118
-479.347	138.849	-0.079	0.104
-478.332	24.218	-0.138	0.113
-477.318	-77.992	0.071	0.024
-476.303	19.153	0.105	-0.083
-475.289	-31.208	0.173	0.097
-474.274	-115.918	-0.352	-0.065
-473.259	-89.855	-0.245	-0.071
-472.245	145.459	-0.102	0.136
-471.230	199.409	0.176	-0.267
-470.216	-72.371	0.403	-0.148
-469.201	21.919	-0.067	0.054
-468.186	800.000	0.095	0.274
-467.172	57.065	0.158	-0.153
-466.157	222.113	0.034	-0.054
-465.143	216.606	0.129	-0.203
-464.128	212.938	-0.075	-0.118
-463.113	-149.843	0.383	0.030
-462.099	800.000	-0.012	-0.049
-461.084	-22.953	-0.044	-0.026
-460.070	800.000	0.048	0.139
-459.055	422.114	0.057	-0.122
-458.040	23.407	-0.028	0.023
-457.026	245.241	0.110	-0.184
-456.011	-200.000	-0.048	0.267
-454.997	-72.600	0.248	-0.091
-453.982	-150.388	-0.122	0.009
-452.968	-200.000	0.055	0.333
-451.953	-57.410	-0.176	-0.077
-450.938	138.439	0.143	0.186
-449.924	-90.150	0.113	-0.033
-448.909	91.057	-0.248	0.276
-447.895	-1.568	0.042	-0.030
-446.880	-200.000	-0.040	0.179
-445.865	716.797	-0.094	0.246
-444.851	5.341	-0.108	0.079
-443.836	-131.852	0.245	0.032
-442.822	-7.490	0.292	-0.196
-441.807	-146.114	-0.131	-0.011
-440.792	146.915	0.183	0.244
-439.778	-63.754	-0.210	0.086
-438.763	515.095	0.130	0.302
-437.749	-115.527	0.420	0.078
-436.734	-200.000	0.014	0.187
-435.719	-12.006	-0.105	0.068
-434.705	-200.000	0.008	-0.141
-433.690	-200.000	0.016	-0.166
-432.676	29.909	-0.156	0.132
-431.661	524.173	-0.091	0.211
-430.646	800.000	0.023	0.092
-429.632	-120.466	0.100	0.017
-428.617	800.000	0.052	0.158
-427.603	-27.156	0.070	-0.040
-426.588	-47.995	-0.210	0.101
-425.573	129.543	-0.083	-0.106
-424.559	-110.049	-0.058	-0.012
-423.544	182.708	-0.068	0.099
-422.530	-200.000	-0.064	-0.392
-421.515	-200.000	0.073	-0.459
-420.500	-200.000	0.001	-0.043
-419.486	-61.559	-0.095	0.040
-418.471	248.296	0.049	0.083
-417.457	-59.459	0.155	-0.066
-416.442	-84.647	-0.341	0.107
-415.428	-162.998	0.339	0.016
-414.413	217.176	-0.139	0.219
-413.398	-23.464	0.210	0.125
-412.384	-1.094	0.308	-0.216
-411.369	29.166	-0.182	-0.153
-410.355	-159.061	-0.211	0.012
-409.340	746.479	-0.099	-0.265
-408.325	-200.000	0.056	0.326
-407.311	217.741	-0.164	0.259
-406.296	-200.000	0.020	0.290
-405.282	-129.197	-0.171	-0.024
-404.267	-200.000	0.033	0.252
-403.252	22.648	0.078	-0.064
-402.238	55.445	-0.229	0.219
-401.223	-200.000	-0.019	-0.125
-400.209	-2.091	-0.100	0.069
-399.194	-138.406	-0.334	0.036
-398.179	-200.000	-0.084	-0.450
-397.165	-89.187	0.296	-0.086
-396.150	-200.000	-0.054	0.303
-395.136	82.895	-0.073	0.079
-394.121	-61.505	-0.307	0.128
-393.106	62.166	0.111	-0.110
-392.092	420.885	0.169	-0.360
-391.077	173.127	0.179	-0.255
-390.063	-72.825	-0.138	0.050
-389.048	110.859	0.169	-0.202
-388.033	-200.000	0.039	-0.601
-387.019	-62.175	0.327	0.135
-386.004	270.472	0.220	0.383
-384.990	-148.910	0.071	-0.006
-383.975	281.516	-0.084	-0.148
-382.960	611.068	-0.093	0.231
-381.946	-32.145	0.093	-0.051
-380.931	-200.000	0.000	0.030
-379.917	-165.557	-0.226	0.010
-378.902	-54.196	-0.263	0.118
-377.888	61.893	0.164	0.162
-376.873	422.480	-0.106	-0.226
-375.858	-200.000	-0.027	0.376
-374.844	19.328	-0.019	-0.015
-373.829	161.724	0.024	-0.033
-372.815	-112.224	-0.226	-0.045
-371.800	-43.821	0.093	-0.046
-370.785	160.455	-0.045	-0.063
-369.771	522.530	0.065	-0.152
-368.756	-6.251	-0.172	0.116
-367.742	100.726	-0.123	-0.141
-366.727	680.649	0.025	0.064
-365.712	17.991	0.065	0.051
-364.698	-200.000	0.008	-0.084
-363.683	800.000	-0.120	-0.366
-362.669	-18.437	0.267	-0.165
-361.654	-124.528	0.159	-0.025
-360.639	-53.763	0.128	0.058
-359.625	22.166	-0.198	-0.160
-358.610	20.965	0.279	-0.223
-357.596	-195.487	-0.116	0.001
-356.581	216.542	-0.068	0.107
-355.566	138.581	0.100	-0.130
-354.552	-60.563	0.216	0.091
-353.537	312.589	0.074	-0.138
-352.523	92.059	0.224	-0.249
-351.508	133.822	0.094	0.121
-350.493	104.388	0.167	0.194
-349.479	225.375	0.287	-0.460
-348.464	-10.691	-0.172	-0.113
-347.450	800.000	0.093	-0.391
-346.435	8.517	-0.150	0.112
-345.420	-65.299	-0.154	-0.061
-344.406	-200.000	-0.007	-0.100
-343.391	139.891	-0.154	0.201
-342.377	379.380	0.051	0.103
-341.362	-165.132	0.222	0.010
-340.348	261.406	0.103	0.176
-339.333	-59.380	-0.398	0.169
-338.318	93.571	-0.185	-0.207
-337.304	213.646	-0.090	0.141
-336.289	800.000	-0.090	0.280
-335.275	187.055	-0.140	0.206
-334.260	-13.009	0.287	0.185
-333.245	29.641	0.277	-0.233
-332.231	-117.066	-0.233	-0.042
-331.216	513.174	0.101	-0.233
-330.202	-2.355	0.141	-0.098
-329.187	38.850	0.201	-0.178
-328.172	525.197	-0.101	-0.235
-327.158	-200.000	0.011	-0.054
-326.143	155.012	0.016	-0.021
-325.129	-141.330	0.225	-0.023
-324.114	314.575	0.181	0.337
-323.099	-200.000	-0.030	-0.249
-322.085	-200.000	-0.002	-0.061
-321.070	133.419	0.136	-0.173
-320.056	-76.165	-0.149	-0.052
-319.041	-64.850	0.095	0.038
-318.026	-79.069	0.231	-0.077
-317.012	-83.744	-0.214	0.067
-315.997	694.844	0.028	-0.073
-314.983	169.944	-0.186	0.262
-313.968	-28.487	-0.094	-0.053
-312.953	800.000	-0.097	-0.301
-311.939	-30.808	0.148	-0.083
-310.924	178.753	0.205	0.296
-309.910	-200.000	0.005	-0.136
-308.895	-200.000	0.009	0.235
-307.880	215.346	0.246	0.386
-306.866	-200.000	-0.023	0.158
-305.851	-95.415	0.350	0.093
-304.837	-200.000	0.003	0.219
-303.822	225.126	-0.175	0.280
-302.807	76.256	-0.272	0.284
-301.793	-200.000	-0.071	0.314
-300.778	289.929	0.067	0.120
-299.764	-7.439	-0.317	-0.212
-298.749	800.000	0.028	-0.087
-297.735	-28.057	-0.195	0.111
-296.720	22.391	-0.086	-0.070
-295.705	71.044	-0.128	-0.130
-294.691	-200.000	-0.010	0.080
-293.676	800.000	-0.031	0.088
-292.662	234.739	-0.062	0.101
-291.647	-200.000	-0.010	0.099
-290.632	-85.955	-0.300	0.091
-289.618	27.567	-0.092	0.076
-288.603	-6.166	-0.202	0.136
-287.589	800.000	0.046	0.190
-286.574	145.499	0.166	0.219
-285.559	-109.472	-0.124	-0.026
-284.545	-29.295	-0.307	0.173
-283.530	-143.252	0.226	-0.021
-282.516	44.133	-0.189	-0.171
-281.501	81.734	-0.089	-0.095
-280.486	800.000	0.031	-0.117
-279.472	-47.154	0.161	0.077
-278.457	800.000	0.030	-0.128
-277.443	-101.384	-0.391	0.094
-276.428	-4.168	-0.193	0.132
-275.413	456.117	0.114	-0.249
-274.399	-135.602	-0.086	-0.010
-273.384	-200.000	-0.004	-0.173
-272.370	78.618	-0.189	0.199
-271.355	-3.174	0.177	0.122
-270.340	-200.000	-0.008	0.366
-269.326	-73.302	0.058	0.021
-268.311	4.152	0.230	-0.166
-267.297	237.383	-0.055	-0.090
-266.282	-36.631	0.175	0.093
-265.267	613.537	0.169	0.418
-264.253	501.046	-0.030	0.068
-263.238	45.793	0.158	-0.144
-262.224	87.933	0.108	-0.118
-261.209	-71.535	0.229	0.084
-260.195	113.434	-0.210	0.251
-259.180	-200.000	0.002	0.019
-258.165	-200.000	-0.011	0.241
-257.151	717.181	-0.047	0.122
-256.136	-125.105	-0.227	-0.034
-255.122	122.677	-0.129	0.159
-254.107	411.532	0.121	-0.254
-253.092	-72.779	-0.185	-0.067
-252.078	711.183	-0.039	0.103
-251.063	111.437	-0.168	-0.199
-250.049	221.191	0.159	0.251
-249.034	32.404	0.031	0.027
-248.019	-117.616	-0.108	-0.019
-247.005	655.629	0.053	0.134
-245.990	-160.445	-0.249	0.013
-244.976	-145.252	-0.153	0.014
-243.961	52.544	0.145	-0.137
-242.946	-57.178	-0.220	-0.096
-241.932	791.161	0.061	0.164
-240.917	-94.391	0.152	-0.041
-239.903	-200.000	0.051	-0.335
-238.888	190.232	0.171	0.253
-237.873	-60.589	0.216	0.090
-236.859	-133.636	-0.430	-0.053
-235.844	31.447	-0.172	0.145
-234.830	-113.128	-0.121	0.023
-233.815	-33.266	0.174	-0.095
-232.800	-200.000	0.004	-0.159
-231.786	-140.850	0.254	0.026
-230.771	-164.651	0.029	0.001
-229.757	-1.408	0.342	0.238
-228.742	67.004	-0.228	0.228
-227.727	-153.196	-0.172	0.012
-226.713	23.233	0.163	0.132
-225.698	167.018	0.264	-0.369
-224.684	-133.654	0.139	-0.017
-223.669	800.000	0.043	0.135
-222.655	250.735	-0.167	-0.278
-221.640	800.000	0.041	-0.173
-220.625	-76.400	0.163	0.056
-219.611	91.194	0.330	-0.364
-218.596	-6.833	0.124	-0.083
-217.582	-37.728	-0.458	0.240
-216.567	5.166	0.217	0.157
-215.552	787.216	0.067	0.181
-214.538	95.425	0.075	-0.084
-213.523	140.023	-0.192	0.249
-212.509	53.281	0.180	-0.170
-211.494	254.402	0.126	0.212
-210.479	-200.000	-0.016	0.122
-209.465	-200.000	-0.022	-0.174
-208.450	-200.000	-0.036	-0.248
-207.436	46.778	0.262	-0.239
-206.421	-24.387	-0.243	0.142
-205.406	-18.154	0.372	-0.229
-204.392	-200.000	-0.014	-0.290
-203.377	-15.547	-0.057	-0.036
-202.363	105.212	0.014	0.017
-201.348	21.252	0.146	0.116
-200.333	340.691	-0.042	0.080
-199.319	653.365	0.064	-0.161
-198.304	130.094	0.169	-0.213
-197.290	800.000	-0.010	-0.032
-196.275	-110.984	-0.235	-0.047
-195.260	-200.000	-0.003	0.036
-194.246	-68.482	-0.206	0.079
-193.231	800.000	-0.030	-0.109
-192.217	-61.717	0.234	-0.096
-191.202	186.782	-0.118	-0.173
-190.187	-58.528	-0.283	-0.121
-189.173	800.000	-0.091	0.294
-188.158	-156.529	-0.214	-0.013
-187.144	539.289	0.159	-0.372
-186.129	-38.715	0.029	-0.015
-185.114	193.729	0.127	-0.189
-184.100	-124.124	-0.188	-0.029
-183.085	129.044	0.270	0.338
-182.071	749.242	-0.062	0.165
-181.056	380.396	-0.036	0.074
-180.042	0.162	0.168	0.118
-179.027	-36.156	-0.153	0.081
-178.012	198.049	0.061	0.091
-176.998	52.258	0.187	0.176
-175.983	98.057	0.075	0.084
-174.969	-155.113	0.295	0.019
-173.954	1.889	-0.115	0.081
-172.939	-200.000	-0.069	0.377
-171.925	-109.647	-0.152	0.031
-170.910	800.000	0.057	0.228
-169.896	-200.000	0.082	-0.000
-168.881	95.307	-0.164	-0.183
-167.866	-103.921	0.061	0.014
-166.852	-200.000	-0.029	0.206
-165.837	82.392	-0.284	0.302
-164.823	-35.241	0.142	0.076
-163.808	36.152	-0.254	0.220
-162.793	-41.154	-0.116	0.059
-161.779	355.245	-0.050	0.097
-160.764	-200.000	-0.051	0.353
-159.750	-2.572	-0.161	0.111
-158.735	-200.000	0.003	-0.023
-157.720	-135.306	-0.397	0.047
-156.706	416.163	-0.050	0.105
-155.691	-56.565	-0.123	0.054
-154.677	29.652	0.091	-0.076
-153.662	-200.000	-0.067	-0.377
-152.647	-92.463	-0.026	-0.007
-151.633	113.190	-0.130	-0.155
-150.618	-200.000	0.055	0.289
-149.604	395.468	0.052	0.107
-148.589	165.562	0.141	0.196
-147.574	-89.668	0.387	0.111
-146.560	-200.000	0.060	-0.278
-145.545	8.763	0.195	0.144
-144.531	99.943	0.198	0.226
-143.516	152.337	0.125	-0.168
-142.502	-200.000	0.069	0.320
-141.487	-58.204	-0.269	0.115
-140.472	-146.979	-0.183	0.015
-139.458	110.368	0.131	0.154
-138.443	800.000	-0.055	-0.181
-137.429	3.216	0.275	0.196
-136.414	-113.043	-0.144	0.028
-135.399	265.858	0.214	-0.365
-134.385	-87.902	0.357	-0.105
-133.370	648.436	0.068	0.170
-132.356	-34.682	0.208	-0.112
-131.341	-200.000	0.016	-0.400
-130.326	659.593	0.140	0.354
-129.312	-132.885	0.178	0.022
-128.297	-40.705	0.163	0.083
-127.283	800.000	0.171	-0.532
-126.268	-166.866	-0.108	-0.004
-125.253	69.397	0.180	0.181
-124.239	183.679	-0.172	-0.249
-123.224	214.500	0.101	0.157
-122.210	414.800	0.040	-0.083
-121.195	75.307	-0.128	0.132
-120.180	-9.441	0.309	-0.202
-119.166	-200.000	0.024	0.191
-118.151	-200.000	0.010	0.300
-117.137	800.000	-0.064	0.236
-116.122	-200.000	0.007	-0.155
-115.107	2.342	0.207	-0.147
-114.093	-200.000	0.292	0.001
-113.078	452.245	0.103	0.224
-112.064	800.000	-0.010	0.027
-111.049	-20.292	-0.167	0.101
-110.034	800.000	-0.022	-0.089
-109.020	196.121	-0.168	-0.251
-108.005	-79.002	-0.286	-0.095
-106.991	9.021	-0.189	0.140
-105.976	800.000	-0.058	0.175
-104.962	-8.966	-0.043	0.028
-103.947	458.204	0.074	0.162
-102.932	38.885	-0.191	0.167
-101.918	-200.000	-0.046	-0.202
-100.903	-200.000	-0.042	-0.221
-99.889	-78.457	0.166	-0.056
-98.874	-79.137	0.298	-0.099
-97.859	129.474	0.077	-0.096
-96.845	800.000	-0.066	-0.183
-95.830	800.000	-0.080	-0.261
-94.816	-160.209	-0.115	-0.006
-93.801	165.029	-0.156	-0.216
-92.786	-200.000	-0.035	-0.172
-91.772	-94.889	-0.226	-0.060
-90.757	-67.555	-0.259	-0.100
-89.743	-135.270	0.581	0.068
-88.728	17.484	-0.104	0.081
-87.713	-161.179	0.104	0.005
-86.699	-59.812	-0.232	-0.097
-85.684	-200.000	0.002	0.194
-84.670	-200.000	0.022	-0.114
-83.655	800.000	-0.053	0.177
-82.640	-48.550	-0.132	0.062
-81.626	-200.000	-0.000	-0.119
-80.611	-200.000	-0.048	-0.433
-79.597	192.530	-0.083	0.123
-78.582	3.295	0.111	-0.079
-77.567	726.125	-0.082	-0.214
-76.553	248.170	0.075	-0.124
-75.538	24.594	0.278	-0.225
-74.524	800.000	0.085	-0.249
-73.509	180.665	0.080	-0.115
-72.494	247.564	-0.054	-0.089
-71.480	-145.971	0.105	-0.009
-70.465	-200.000	-0.035	-0.226
-69.451	-152.797	0.277	0.019
-68.436	155.140	0.090	0.122
-67.422	0.589	-0.246	-0.172
-66.407	53.421	0.237	-0.223
-65.392	253.520	-0.141	-0.236
-64.378	-11.303	-0.140	0.090
-63.363	-200.000	-0.019	-0.380
-62.349	-48.493	0.029	0.014
-61.334	40.094	-0.994	-0.873
-60.319	53.340	0.429	0.402
-59.305	800.000	-0.357	-1.180
-58.290	238.920	0.656	1.066
-57.276	362.908	0.691	1.357
-56.261	-200.000	117.288	656.572
-55.246	511.580	1547.894	3522.390
-54.232	172.586	2730.637	3841.351
-53.217	98.992	2301.486	2597.763
-52.203	35.387	1904.380	1632.852
-51.188	29.508	1694.435	1408.096
-50.173	27.126	1652.696	1355.613
-49.159	48.002	1710.044	1561.657
-48.144	46.763	1723.614	1564.592
-47.130	29.086	1680.541	1393.139
-46.115	26.387	1666.591	1361.232
-45.100	26.312	1661.414	1356.387
-44.086	26.221	1659.164	1353.812
-43.071	26.263	1655.972	1351.467
-42.057	26.155	1654.116	1349.093
-41.042	26.237	1652.138	1348.039
-40.027	26.336	1649.236	1346.357
-39.013	26.142	1648.697	1344.416
-37.998	26.157	1646.407	1342.606
-36.984	26.244	1645.265	1342.269
-35.969	26.318	1643.204	1341.087
-34.954	26.342	1641.942	1340.181
-33.940	26.392	1639.835	1338.780
-32.925	26.335	1638.098	1336.882
-31.911	26.396	1636.695	1336.135
-30.896	26.396	1634.913	1334.625
-29.881	26.324	1633.456	1332.854
-28.867	26.392	1631.483	1331.697
-27.852	26.334	1630.421	1330.344
-26.838	26.421	1628.797	1329.609
-25.823	26.457	1627.246	1328.554
-24.809	26.451	1626.015	1327.452
-23.794	26.340	1625.002	1325.757
-22.779	26.306	1623.677	1324.373
-21.765	26.311	1621.703	1322.752
-20.750	26.452	1619.602	1322.015
-19.736	26.369	1618.452	1320.419
-18.721	26.550	1617.407	1320.834
-17.706	26.487	1615.572	1318.823
-16.692	26.446	1614.063	1317.242
-15.677	26.420	1612.165	1315.452
-14.663	26.456	1611.686	1315.267
-13.648	26.415	1610.442	1313.904
-12.633	26.488	1608.135	1312.501
-11.619	26.496	1606.851	1311.455
-10.604	26.355	1605.247	1309.075
-9.590	26.429	1604.022	1308.557
-8.575	26.407	1602.796	1307.345
-7.560	26.414	1601.549	1306.331
-6.546	26.437	1600.372	1305.485
-5.531	26.321	1599.531	1303.911
-4.517	26.413	1598.212	1303.447
-3.502	26.429	1596.882	1302.427
-2.487	26.478	1595.741	1301.796
-1.473	26.239	1583.624	1290.154
-0.458	23.695	1564.763	1256.756
0.556	22.459	1566.582	1227.760
1.571	20.219	1591.610	1231.379
2.586	19.663	1603.763	1236.689
3.600	17.722	1549.775	1181.519
4.615	10.960	1442.616	1055.968
5.629	5.291	1382.341	976.411
6.644	4.199	1374.766	964.185
7.659	4.152	1373.827	963.147
8.673	4.234	1372.684	962.770
9.688	4.256	1371.130	961.731
10.702	4.278	1367.768	959.425
11.717	6.959	1373.349	979.888
12.731	14.523	1386.875	1036.632
13.746	20.824	1397.565	1083.867
14.761	22.542	1399.748	1096.164
15.775	22.066	1397.239	1091.142
16.790	21.036	1394.907	1082.839
17.804	20.284	1392.999	1076.595
18.819	19.959	1391.740	1073.512
19.834	19.993	1390.552	1072.714
20.848	19.933	1389.960	1071.791
21.863	19.734	1388.651	1069.455
22.877	19.621	1387.761	1067.976
23.892	19.451	1386.936	1066.198
24.907	19.521	1385.697	1065.580
25.921	19.473	1384.356	1064.158
26.936	19.453	1384.158	1063.789
27.950	19.551	1382.398	1062.948
28.965	19.614	1381.851	1062.822
29.980	19.810	1381.084	1063.341
30.994	19.803	1380.010	1062.377
32.009	19.987	1378.728	1062.422
33.023	19.967	1377.353	1061.151
34.038	19.907	1375.860	1059.538
35.053	19.708	1374.823	1057.425
36.067	19.665	1374.318	1056.682
37.082	19.746	1373.005	1056.076
38.096	19.862	1371.892	1055.831
39.111	19.803	1371.627	1055.176
40.126	19.602	1370.681	1053.126
41.140	19.400	1369.173	1050.648
42.155	19.205	1368.462	1048.823
43.169	19.168	1368.515	1048.545
44.184	19.203	1368.127	1048.364
45.199	19.249	1368.012	1048.466
46.213	19.491	1366.996	1049.065
47.228	19.461	1367.123	1048.888
48.242	19.717	1365.646	1049.213
49.257	19.670	1363.862	1047.470
50.271	19.618	1362.683	1046.155
51.286	19.664	1361.185	1045.189
52.301	19.549	1360.132	1043.595
53.315	19.496	1359.335	1042.572
54.330	19.318	1357.897	1040.298
55.344	19.275	1356.808	1039.115
56.359	19.277	1356.269	1038.622
57.374	19.305	1354.237	1037.140
58.388	19.131	1354.515	1036.216
59.403	19.122	1353.630	1035.396
60.417	19.060	1352.558	1034.109
61.432	18.990	1351.987	1033.163
62.447	18.988	1351.022	1032.319
63.461	18.879	1349.740	1030.595
64.476	18.927	1348.319	1029.705
65.490	18.822	1347.247	1028.167
66.505	18.910	1345.936	1027.606
67.520	19.025	1344.857	1027.378
68.534	19.005	1343.737	1026.312
69.549	18.973	1342.634	1025.186
70.563	18.729	1342.312	1023.398
71.578	18.802	1340.100	1022.055
72.593	18.598	1340.067	1020.723
73.607	18.638	1338.796	1019.901
74.622	18.702	1338.169	1019.715
75.636	18.726	1337.381	1019.166
76.651	18.656	1337.402	1018.676
77.666	18.874	1335.940	1018.766
78.680	18.883	1336.330	1019.027
79.695	18.987	1334.987	1018.527
80.709	19.083	1334.735	1018.815
81.724	19.288	1333.820	1019.239
82.739	19.385	1332.918	1019.032
83.753	19.419	1332.530	1018.847
84.768	19.657	1331.470	1019.347
85.782	19.754	1330.569	1019.139
86.797	19.711	1329.291	1017.821
87.812	19.690	1327.819	1016.475
88.826	19.543	1327.018	1014.909
89.841	19.724	1326.130	1015.204
90.855	19.725	1325.243	1014.442
91.870	19.796	1324.747	1014.387
92.884	19.843	1323.539	1013.653
93.899	19.887	1322.765	1013.224
94.914	19.987	1322.006	1013.139
95.928	19.919	1321.360	1012.154
96.943	19.769	1320.651	1010.649
97.957	19.789	1319.197	1009.564
98.972	19.864	1318.169	1009.123
99.987	19.742	1317.191	1007.571
101.001	19.792	1316.251	1007.059
102.016	19.792	1315.465	1006.364
103.030	19.764	1314.771	1005.585
104.045	19.796	1312.978	1004.309
105.060	19.610	1312.564	1002.823
106.074	19.316	1310.455	999.422
107.089	19.047	1308.880	996.574
108.103	18.855	1307.610	994.406
109.118	18.943	1306.595	994.053
110.133	18.945	1305.105	992.847
111.147	19.023	1303.644	992.093
112.162	18.994	1302.598	991.047
113.176	19.094	1301.710	990.854
114.191	19.207	1300.936	990.831
115.206	19.253	1299.933	990.241
116.220	19.149	1298.687	988.611
117.235	19.234	1296.990	987.718
118.249	19.012	1296.798	986.212
119.264	18.912	1295.349	984.451
120.279	18.924	1293.925	983.351
121.293	18.787	1293.325	982.022
122.308	18.652	1292.469	980.512
123.322	18.759	1291.259	980.123
124.337	18.673	1289.844	978.470
125.352	18.752	1288.422	977.755
126.366	18.639	1287.715	976.486
127.381	18.699	1286.946	976.159
128.395	18.730	1285.607	975.233
129.410	18.749	1284.863	974.689
130.424	18.943	1284.259	975.244
131.439	18.998	1283.360	974.792
132.454	19.033	1282.863	974.524
133.468	19.158	1281.312	973.966
134.483	19.218	1280.782	973.815
135.497	19.125	1280.263	972.808
136.512	19.122	1279.072	971.804
137.527	19.169	1277.727	970.957
138.541	19.216	1276.559	970.249
139.556	19.348	1275.172	969.856
140.570	19.443	1274.200	969.564
141.585	19.477	1273.037	968.785
142.600	19.628	1272.450	969.098
143.614	19.788	1271.089	968.874
144.629	19.824	1270.414	968.472
145.643	19.664	1269.519	966.808
146.658	19.523	1267.953	964.743
147.673	19.400	1266.560	962.911
148.687	19.336	1264.925	961.228
149.702	19.132	1263.984	959.289
150.716	19.169	1262.152	958.018
151.731	19.110	1261.432	957.060
152.746	19.210	1260.086	956.513
153.760	19.260	1259.009	955.887
154.775	19.427	1257.929	955.908
155.789	19.407	1257.180	955.142
156.804	19.500	1256.062	954.722
157.819	19.528	1255.741	954.551
158.833	19.688	1254.743	954.591
159.848	19.748	1254.022	954.289
160.862	19.724	1253.130	953.392
161.877	19.482	1250.900	950.281
162.892	19.176	1250.017	947.841
163.906	19.087	1249.443	946.835
164.921	19.188	1248.073	946.262
165.935	19.364	1247.475	946.697
166.950	19.430	1246.663	946.357
167.964	19.335	1246.081	945.309
168.979	19.236	1245.950	944.582
169.994	19.293	1244.512	943.724
171.008	19.225	1243.916	942.813
172.023	19.480	1243.263	943.629
173.037	19.615	1242.603	943.786
174.052	19.685	1240.951	942.829
175.067	19.368	1240.163	940.418
176.081	19.147	1239.294	938.471
177.096	19.191	1237.812	937.505
178.110	19.231	1236.993	937.021
179.125	19.278	1235.988	936.428
180.140	19.359	1235.342	936.299
181.154	19.531	1234.476	936.490
182.169	19.609	1233.153	935.829
183.183	19.703	1231.831	935.248
184.198	19.672	1230.780	934.204
185.213	19.804	1229.501	933.859
186.227	19.811	1228.678	933.191
187.242	19.892	1228.237	933.214
188.256	19.896	1227.327	932.459
189.271	20.061	1225.847	932.142
190.286	19.676	1224.719	929.129
191.300	19.282	1223.160	925.749
192.315	19.178	1222.750	924.798
193.329	19.230	1222.446	924.763
194.344	19.342	1221.618	924.658
195.359	19.403	1221.318	924.675
196.373	19.368	1220.930	924.115
197.388	19.605	1220.462	924.945
198.402	19.788	1220.691	926.020
199.417	19.952	1220.115	926.377
200.432	20.055	1219.593	926.452
201.446	20.306	1218.480	926.863
202.461	20.170	1217.880	925.600
203.475	20.278	1216.357	924.933
204.490	20.084	1214.792	922.631
205.504	19.879	1213.179	920.231
206.519	19.821	1212.130	919.048
207.534	19.781	1210.874	917.802
208.548	19.753	1210.184	917.051
209.563	19.720	1210.057	916.695
210.577	19.620	1209.323	915.532
211.592	19.796	1208.313	915.618
212.607	20.041	1207.571	916.267
213.621	19.993	1206.592	915.190
214.636	19.970	1205.673	914.290
215.650	19.963	1204.750	913.475
216.665	20.090	1204.221	913.659
217.680	20.249	1203.298	913.719
218.694	20.331	1202.806	913.697
219.709	20.231	1201.586	912.159
220.723	20.160	1201.219	911.431
221.738	20.247	1199.926	910.823
222.753	20.123	1199.314	909.631
223.767	20.143	1198.570	909.092
224.782	20.318	1198.287	909.712
225.796	20.331	1197.819	909.343
226.811	20.258	1196.854	908.147
227.826	20.168	1195.959	906.915
228.840	20.204	1195.102	906.376
229.855	20.135	1194.038	905.128
230.869	20.047	1193.823	904.427
231.884	19.937	1192.859	903.041
232.899	19.996	1191.618	902.332
233.913	19.859	1190.702	900.844
234.928	19.837	1190.117	900.208
235.942	19.769	1189.304	899.160
236.957	19.718	1188.574	898.260
237.972	19.809	1187.562	897.889
238.986	19.838	1187.144	897.642
240.001	19.820	1186.480	896.970
241.015	19.882	1185.699	896.623
242.030	20.020	1184.541	896.382
243.045	20.081	1183.983	896.196
244.059	20.125	1183.235	895.776
245.074	20.177	1182.408	895.341
246.088	20.332	1181.882	895.661
247.103	20.402	1181.159	895.395
248.117	20.452	1181.046	895.489
249.132	20.652	1180.319	895.888
250.147	20.821	1179.655	896.175
251.161	20.992	1179.338	896.734
252.176	21.004	1178.677	896.215
253.190	21.142	1178.069	896.383
254.205	21.101	1177.637	895.763
255.220	21.186	1176.962	895.608
256.234	21.183	1176.461	895.129
257.249	21.101	1175.486	893.888
258.263	21.030	1174.597	892.773
259.278	21.091	1173.963	892.522
260.293	21.039	1173.491	891.816
261.307	21.236	1172.584	892.054
262.322	21.302	1172.073	891.926
263.336	21.279	1171.504	891.294
264.351	21.260	1170.989	890.727
265.366	21.334	1170.326	890.521
266.380	21.395	1169.082	889.809
267.395	21.215	1168.397	888.294
268.409	21.127	1167.513	887.096
269.424	21.049	1166.785	886.068
270.439	21.033	1166.532	885.716
271.453	20.903	1165.587	884.257
272.468	20.965	1164.254	883.483
273.482	20.890	1163.256	882.269
274.497	20.755	1163.613	881.775
275.512	20.851	1162.427	881.288
276.526	20.800	1161.363	880.142
277.541	20.904	1160.511	879.947
278.555	20.947	1160.287	879.915
279.570	21.105	1160.226	880.589
280.585	21.263	1159.372	880.660
281.599	21.361	1157.697	879.803
282.614	21.028	1157.059	877.562
283.628	21.043	1155.837	876.633
284.643	20.991	1155.372	875.945
285.657	21.029	1154.310	875.250
286.672	21.025	1153.151	874.277
287.687	21.049	1152.323	873.690
288.701	21.033	1151.549	872.944
289.716	21.108	1150.866	872.727
290.730	21.002	1150.595	871.912
291.745	21.203	1149.554	872.049
292.760	21.163	1149.023	871.370
293.774	21.209	1148.511	871.136
294.789	21.329	1148.336	871.524
295.803	21.371	1147.444	870.980
296.818	21.110	1146.275	868.716
297.833	21.034	1145.901	867.979
298.847	21.108	1145.185	867.728
299.862	21.143	1143.780	866.758
300.876	21.244	1143.320	866.836
301.891	21.261	1142.865	866.497
302.906	21.290	1142.541	866.320
303.920	21.499	1141.903	866.795
304.935	21.584	1141.406	866.759
305.949	21.872	1140.728	867.593
306.964	21.688	1139.864	865.950
307.979	21.497	1139.215	864.436
308.993	21.409	1138.233	863.181
310.008	21.717	1137.495	864.064
311.022	21.612	1136.974	863.077
312.037	21.687	1135.925	862.571
313.052	21.514	1134.522	860.579
314.066	21.222	1133.770	858.495
315.081	21.151	1132.401	857.035
316.095	21.087	1131.849	856.227
317.110	21.081	1131.544	855.890
318.125	21.086	1130.597	855.125
319.139	21.080	1129.528	854.209
320.154	21.137	1128.731	853.813
321.168	21.162	1128.148	853.418
322.183	21.211	1128.280	853.679
323.197	21.172	1127.842	853.082
324.212	21.298	1127.076	853.043
325.227	21.282	1126.686	852.593
326.241	21.387	1125.671	852.263
327.256	21.301	1124.832	851.137
328.270	21.149	1123.489	849.303
329.285	21.270	1122.908	849.376
330.300	21.288	1121.681	848.459
331.314	21.167	1121.513	847.671
332.329	21.242	1120.175	846.947
333.343	21.347	1119.093	846.564
334.358	21.439	1118.773	846.691
335.373	21.549	1117.900	846.489
336.387	21.655	1117.426	846.568
337.402	21.624	1116.479	845.628
338.416	21.637	1116.417	845.566
339.431	21.778	1115.810	845.710
340.446	21.878	1115.532	845.909
341.460	21.909	1114.914	845.514
342.475	22.053	1114.326	845.690
343.489	22.242	1112.593	845.205
344.504	22.138	1111.929	844.127
345.519	22.333	1110.805	844.137
346.533	22.250	1110.589	843.499
347.548	22.341	1109.934	843.364
348.562	22.145	1109.242	841.825
349.577	21.950	1107.955	839.841
350.592	21.805	1106.794	838.191
351.606	21.617	1105.888	836.534
352.621	21.577	1105.029	835.618
353.635	21.616	1104.324	835.199
354.650	21.530	1103.763	834.287
355.665	21.711	1103.348	834.763
356.679	21.805	1102.839	834.753
357.694	21.851	1102.320	834.504
358.708	21.958	1101.855	834.587
359.723	21.842	1101.378	833.600
360.738	21.907	1100.489	833.164
361.752	21.908	1099.711	832.504
362.767	21.932	1099.441	832.341
363.781	22.081	1098.869	832.540
364.796	22.118	1098.454	832.326
365.810	22.207	1097.929	832.278
366.825	22.450	1097.195	832.796
367.840	22.621	1097.116	833.474
368.854	22.580	1096.675	832.870
369.869	22.538	1095.512	831.712
370.883	22.442	1094.554	830.461
371.898	22.446	1093.032	829.251
372.913	22.287	1092.872	828.309
373.927	22.277	1092.896	828.205
374.942	22.423	1092.450	828.483
375.956	22.565	1091.686	828.497
376.971	22.421	1090.961	827.198
377.986	22.462	1090.831	827.220
379.000	22.615	1090.059	827.278
380.015	22.696	1089.957	827.507
381.029	22.697	1088.850	826.597
382.044	22.686	1088.508	826.212
383.059	22.726	1087.208	825.338
384.073	22.709	1086.435	824.603
385.088	22.754	1085.505	824.030
386.102	22.709	1084.569	823.037
387.117	22.504	1083.413	821.134
388.132	22.256	1082.525	819.230
389.146	22.249	1081.856	818.621
390.161	22.298	1081.053	818.171
391.175	22.411	1080.348	818.088
392.190	22.462	1079.398	817.532
393.205	22.594	1078.750	817.581
394.219	22.705	1078.163	817.580
395.234	22.559	1077.103	816.026
396.248	22.442	1075.720	814.368
397.263	22.327	1075.662	813.721
398.278	22.131	1074.691	812.009
399.292	22.291	1073.255	811.590
400.307	22.144	1072.608	810.351
401.321	22.062	1072.355	809.710
402.336	22.100	1071.623	809.257
403.350	22.128	1071.066	808.898
404.365	22.300	1070.218	808.976
405.380	22.286	1069.988	808.667
406.394	22.380	1069.003	808.279
407.409	22.656	1068.545	809.130
408.423	22.666	1068.009	808.696
409.438	22.741	1067.774	808.793
410.453	22.785	1066.853	808.224
411.467	23.001	1065.852	808.385
412.482	22.984	1065.396	807.889
413.496	23.118	1064.683	807.888
414.511	23.155	1063.858	807.359
415.526	23.155	1063.767	807.219
416.540	23.236	1063.814	807.554
417.555	23.217	1062.927	806.720
418.569	23.112	1062.237	805.645
419.584	22.892	1062.058	804.439
420.599	23.092	1060.980	804.459
421.613	157.738	1403.423	1795.845
422.628	145.111	1453.272	1795.931
