DTS Sentinel unit serial number:	SN413079Multiplexer serial number:	ORYXHardware model number:	OX4-SRSoftware version number:	ORYX F/W v4.00 Oryx Data Collector v3.7.2.0data status	okinstallation	princeton_trtdifferential loss correction	single-endedforward channel	channel 2reverse channel	N/Adate	2019/09/13time	11:51:34forward acquisition time	60.00reverse acquisition time	0.00gamma	496.2192k internal	0.2317k external	0.2317temperature offset calibration	1.0214default loss term (dB/km)	0.3790temperature slope calibration	1.0000multiplexer offset coefficient	1.0000multiplexer slope coefficient	1.0000fibre end	0.00T internal ref (°C)	33.36T ext. ref 1 (°C)	4.56T ext. ref 2 (°C)	30.46length (m)	temperature (°C)	Stokes	anti-Stokes-747.200	349.119	0.096	0.192
-746.185	34.174	-0.066	-0.058
-745.171	-19.542	-0.093	-0.058
-744.156	556.614	-0.112	0.274
-743.142	-35.989	0.175	-0.096
-742.127	-52.276	-0.133	0.062
-741.112	-70.991	0.261	-0.099
-740.098	-200.000	0.000	0.245
-739.083	-200.000	-0.033	-0.196
-738.069	-14.026	0.054	-0.035
-737.054	-90.940	-0.258	-0.075
-736.039	-78.942	-0.150	0.052
-735.025	-200.000	-0.021	0.145
-734.010	4.993	0.209	0.156
-732.996	76.872	0.261	-0.280
-731.981	385.677	-0.184	-0.384
-730.966	-187.106	0.106	-0.001
-729.952	-45.960	0.159	0.080
-728.937	-85.230	-0.202	0.064
-727.923	64.145	0.028	-0.029
-726.908	138.959	0.033	0.044
-725.894	375.119	0.085	0.176
-724.879	614.854	-0.018	0.046
-723.864	-148.727	0.181	0.015
-722.850	117.745	-0.179	-0.223
-721.835	97.947	-0.138	-0.161
-720.821	332.724	0.175	-0.342
-719.806	800.000	0.092	0.269
-718.791	-25.107	0.150	-0.090
-717.777	-100.222	-0.265	-0.067
-716.762	800.000	0.086	0.356
-715.748	44.607	0.150	0.139
-714.733	-166.133	0.127	-0.005
-713.718	800.000	0.036	0.132
-712.704	-67.931	-0.044	0.017
-711.689	-61.274	-0.306	0.130
-710.675	800.000	0.050	-0.154
-709.660	204.920	0.108	-0.169
-708.645	309.367	-0.091	0.171
-707.631	-63.558	-0.323	-0.134
-706.616	494.197	-0.121	0.281
-705.602	426.183	-0.036	0.079
-704.587	206.947	0.125	-0.197
-703.572	586.185	0.076	0.190
-702.558	302.235	-0.228	-0.427
-701.543	-7.008	-0.082	-0.056
-700.529	210.143	0.026	-0.041
-699.514	184.336	0.085	-0.128
-698.499	800.000	-0.035	-0.109
-697.485	-18.205	-0.227	0.144
-696.470	4.732	0.305	0.227
-695.456	2.353	-0.160	-0.117
-694.441	-140.988	-0.222	-0.023
-693.426	307.860	0.050	-0.094
-692.412	-85.477	-0.188	0.059
-691.397	86.584	0.076	-0.084
-690.383	348.049	-0.182	0.362
-689.368	28.362	0.178	-0.152
-688.354	747.577	-0.107	-0.290
-687.339	-200.000	-0.013	0.136
-686.324	-111.074	0.081	0.017
-685.310	-13.355	0.043	0.028
-684.295	182.781	-0.036	-0.054
-683.281	90.378	0.122	-0.138
-682.266	604.307	0.035	0.088
-681.251	46.883	0.256	-0.240
-680.237	-200.000	0.019	-0.086
-679.222	-200.000	-0.047	-0.211
-678.208	-83.617	-0.224	0.072
-677.193	-22.810	0.318	0.194
-676.178	-150.732	-0.296	0.023
-675.164	-156.840	0.217	-0.013
-674.149	-200.000	-0.059	-0.422
-673.135	-130.935	0.134	0.018
-672.120	285.072	-0.305	-0.554
-671.105	165.564	-0.113	-0.162
-670.091	-123.906	-0.228	0.036
-669.076	366.021	0.026	-0.053
-668.062	-139.816	-0.263	-0.028
-667.047	-43.035	-0.203	-0.104
-666.032	650.872	0.065	-0.169
-665.018	-78.309	0.244	-0.085
-664.003	-3.827	-0.095	0.066
-662.989	-37.067	-0.186	-0.101
-661.974	482.719	-0.103	-0.236
-660.959	800.000	0.064	0.203
-659.945	-61.888	0.293	-0.124
-658.930	108.810	-0.145	-0.175
-657.916	-200.000	0.028	-0.491
-656.901	-89.855	-0.181	0.053
-655.886	-36.017	0.155	-0.084
-654.872	-65.512	0.044	0.018
-653.857	-200.000	0.003	0.074
-652.843	800.000	-0.082	0.321
-651.828	45.284	0.102	0.095
-650.814	242.547	-0.157	-0.265
-649.799	87.091	-0.038	-0.043
-648.784	-200.000	0.037	-0.340
-647.770	-15.295	-0.135	-0.087
-646.755	800.000	-0.032	-0.100
-645.741	-0.177	0.278	0.199
-644.726	284.916	-0.188	-0.341
-643.711	396.604	0.209	-0.440
-642.697	-48.884	0.247	-0.119
-641.682	16.454	0.325	-0.259
-640.668	139.655	-0.170	-0.226
-639.653	433.761	0.069	0.151
-638.638	-173.835	0.138	-0.004
-637.624	800.000	0.032	-0.138
-636.609	-95.165	-0.305	0.083
-635.595	142.275	0.050	0.067
-634.580	40.413	0.122	0.111
-633.565	-64.633	-0.114	0.047
-632.551	129.173	-0.195	0.251
-631.536	-56.707	-0.034	-0.015
-630.522	800.000	0.081	0.238
-629.507	159.484	0.172	0.241
-628.492	109.835	0.145	0.175
-627.478	-71.377	-0.041	-0.015
-626.463	100.930	0.147	-0.172
-625.449	396.617	0.031	-0.066
-624.434	-200.000	-0.016	0.151
-623.419	-168.050	0.207	-0.008
-622.405	387.492	0.090	0.188
-621.390	157.583	0.125	-0.175
-620.376	411.846	0.027	-0.057
-619.361	-82.695	0.091	-0.030
-618.346	111.498	-0.294	-0.358
-617.332	102.009	0.065	-0.076
-616.317	-137.173	0.213	0.025
-615.303	3.878	0.145	-0.107
-614.288	-200.000	0.013	-0.073
-613.273	-115.775	-0.170	0.032
-612.259	80.787	-0.297	-0.323
-611.244	277.209	0.151	-0.270
-610.230	43.534	0.141	0.130
-609.215	39.660	-0.155	-0.140
-608.201	85.227	0.277	-0.306
-607.186	690.163	-0.059	-0.156
-606.171	81.656	-0.198	-0.216
-605.157	624.260	0.063	0.160
-604.142	800.000	-0.047	0.195
-603.128	-34.793	0.243	-0.134
-602.113	130.204	0.153	0.198
-601.098	-116.649	-0.202	-0.037
-600.084	800.000	0.050	0.213
-599.069	-33.574	-0.058	0.032
-598.055	-54.722	-0.435	0.198
-597.040	-200.000	0.033	-0.289
-596.025	-30.726	0.164	-0.094
-595.011	-21.632	-0.138	-0.085
-593.996	800.000	0.072	-0.226
-592.982	171.875	0.049	0.071
-591.967	-107.816	-0.113	0.025
-590.952	146.484	0.067	-0.091
-589.938	763.663	-0.080	-0.218
-588.923	76.812	-0.081	0.086
-587.909	-140.015	-0.135	-0.014
-586.894	-48.377	-0.215	0.104
-585.879	38.439	-0.211	0.189
-584.865	-76.728	-0.142	0.050
-583.850	97.191	-0.069	-0.080
-582.836	-200.000	0.020	-0.281
-581.821	-85.872	-0.086	0.027
-580.806	-6.315	-0.183	-0.125
-579.792	152.003	-0.070	0.096
-578.777	-139.651	-0.245	0.026
-577.763	133.425	0.101	0.131
-576.748	-35.670	-0.278	-0.152
-575.733	88.672	0.153	-0.172
-574.719	-200.000	-0.036	0.171
-573.704	800.000	0.059	0.221
-572.690	-12.067	-0.099	0.065
-571.675	800.000	-0.137	0.419
-570.661	-73.541	-0.358	-0.131
-569.646	55.359	0.277	-0.270
-568.631	326.447	-0.114	0.221
-567.617	89.249	0.117	-0.132
-566.602	-200.000	0.084	-0.534
-565.588	-16.842	0.268	-0.171
-564.573	102.232	0.161	0.190
-563.558	95.467	-0.111	0.127
-562.544	10.570	-0.273	0.209
-561.529	265.739	0.154	0.270
-560.515	-176.282	0.163	-0.004
-559.500	-144.911	0.075	0.007
-558.485	379.510	0.063	-0.129
-557.471	-50.654	0.148	-0.070
-556.456	233.393	-0.147	-0.244
-555.442	-200.000	0.013	-0.120
-554.427	-96.299	0.150	-0.040
-553.412	-200.000	0.008	-0.172
-552.398	238.179	0.176	0.293
-551.383	80.057	0.205	-0.222
-550.369	-200.000	-0.005	-0.295
-549.354	-200.000	0.020	-0.180
-548.339	89.146	0.122	-0.136
-547.325	176.116	0.225	0.328
-546.310	131.427	0.053	-0.068
-545.296	70.279	0.086	0.089
-544.281	-0.481	0.218	-0.155
-543.266	113.123	-0.178	0.217
-542.252	-159.660	-0.211	0.012
-541.237	306.701	-0.045	0.084
-540.223	20.209	0.016	0.013
-539.208	-117.042	0.411	0.075
-538.193	-138.068	-0.362	-0.040
-537.179	-61.627	-0.457	-0.193
-536.164	-59.817	0.164	0.070
-535.150	-200.000	0.008	-0.126
-534.135	130.823	0.054	0.070
-533.121	47.623	-0.110	-0.103
-532.106	-200.000	0.122	-0.555
-531.091	-75.892	-0.152	-0.054
-530.077	15.533	0.239	0.189
-529.062	44.080	0.288	0.265
-528.048	302.748	-0.198	-0.367
-527.033	-93.670	0.237	-0.066
-526.018	84.204	0.146	-0.161
-525.004	137.769	-0.164	0.216
-523.989	-29.281	-0.298	-0.172
-522.975	31.714	0.186	-0.160
-521.960	800.000	-0.026	0.073
-520.945	330.399	-0.050	-0.097
-519.931	-76.657	-0.418	-0.147
-518.916	176.388	0.070	0.102
-517.902	31.697	0.385	-0.332
-516.887	608.394	0.035	0.087
-515.872	-200.000	0.013	-0.282
-514.858	59.827	-0.048	-0.048
-513.843	800.000	0.190	0.568
-512.829	-200.000	0.008	-0.109
-511.814	-74.649	-0.242	0.087
-510.799	21.964	0.264	0.216
-509.785	-200.000	0.002	-0.188
-508.770	-155.048	0.189	-0.012
-507.756	254.645	-0.054	0.093
-506.741	-147.804	0.231	-0.019
-505.726	89.290	0.171	0.191
-504.712	-200.000	-0.009	0.405
-503.697	59.307	-0.260	0.257
-502.683	-200.000	0.013	-0.066
-501.668	800.000	-0.066	-0.242
-500.653	299.579	0.138	0.254
-499.639	158.635	0.275	-0.382
-498.624	-141.758	0.220	0.022
-497.610	130.385	0.076	0.097
-496.595	-200.000	-0.005	-0.235
-495.581	-95.034	-0.077	0.021
-494.566	-200.000	-0.000	0.293
-493.551	282.682	-0.175	0.315
-492.537	-200.000	0.042	0.223
-491.522	365.721	0.116	-0.235
-490.508	-42.185	-0.010	-0.005
-489.493	-200.000	0.021	-0.107
-488.478	-19.947	-0.263	-0.163
-487.464	86.060	0.354	0.391
-486.449	-166.670	-0.324	-0.013
-485.435	148.457	0.223	0.302
-484.420	-120.695	0.126	0.021
-483.405	-133.956	0.307	-0.038
-482.391	9.187	0.276	0.209
-481.376	-135.299	0.055	-0.007
-480.362	275.886	-0.118	0.210
-479.347	800.000	0.055	0.190
-478.332	-25.813	0.180	0.107
-477.318	-126.890	-0.420	-0.062
-476.303	-200.000	-0.043	0.193
-475.289	800.000	-0.055	-0.168
-474.274	644.196	-0.177	-0.453
-473.259	152.634	0.187	-0.256
-472.245	-140.905	-0.478	0.049
-471.230	-200.000	0.043	-0.265
-470.216	94.891	0.086	-0.098
-469.201	-3.179	-0.188	0.132
-468.186	-147.409	-0.192	-0.016
-467.172	-89.758	-0.167	0.049
-466.157	274.494	0.134	-0.238
-465.143	81.091	-0.106	0.114
-464.128	800.000	0.081	-0.228
-463.113	-161.782	-0.459	-0.023
-462.099	-9.171	-0.231	0.154
-461.084	210.430	0.114	-0.180
-460.070	-159.578	0.301	-0.017
-459.055	307.702	0.080	-0.150
-458.040	-142.698	0.064	0.006
-457.026	-67.326	-0.149	-0.059
-456.011	-22.284	-0.277	-0.168
-454.997	13.636	-0.224	0.174
-453.982	800.000	-0.073	0.302
-452.968	-42.748	-0.165	0.084
-451.953	47.673	-0.038	-0.036
-450.938	-131.325	-0.319	0.042
-449.924	-86.177	0.124	-0.038
-448.909	1.296	0.182	-0.131
-447.895	-158.754	-0.403	-0.023
-446.880	-146.637	-0.200	0.017
-445.865	-98.829	0.080	0.020
-444.851	-200.000	0.019	0.140
-443.836	169.721	-0.111	-0.159
-442.822	121.403	0.078	-0.097
-441.807	-41.698	0.424	-0.218
-440.792	-200.000	0.011	-0.171
-439.778	-80.471	0.061	0.020
-438.763	-200.000	0.006	0.112
-437.749	116.358	-0.026	0.032
-436.734	800.000	0.051	-0.177
-435.719	-120.207	-0.116	0.020
-434.705	800.000	0.133	0.483
-433.690	-88.428	-0.293	-0.087
-432.676	170.250	0.083	0.118
-431.661	-200.000	0.026	-0.207
-430.646	800.000	-0.047	0.189
-429.632	-63.777	-0.424	-0.174
-428.617	-113.479	0.257	-0.050
-427.603	-133.013	0.208	-0.026
-426.588	593.166	0.097	-0.240
-425.573	-99.496	-0.244	0.061
-424.559	-200.000	-0.021	-0.206
-423.544	-13.789	-0.241	-0.156
-422.530	469.563	0.064	-0.144
-421.515	800.000	0.135	0.590
-420.500	-183.159	-0.329	0.006
-419.486	-30.379	0.151	-0.086
-418.471	146.369	-0.123	-0.165
-417.457	-79.151	-0.107	0.036
-416.442	-72.903	0.265	0.097
-415.428	12.112	0.053	0.041
-414.413	227.648	0.074	-0.121
-413.398	-200.000	0.005	-0.411
-412.384	-38.496	0.125	-0.066
-411.369	-122.469	0.201	-0.033
-410.355	-114.470	-0.414	-0.079
-409.340	41.129	0.195	-0.176
-408.325	-200.000	-0.012	0.220
-407.311	62.353	0.196	0.196
-406.296	-193.074	-0.218	0.002
-405.282	-134.691	0.517	-0.063
-404.267	800.000	-0.056	-0.196
-403.252	125.937	-0.130	-0.164
-402.238	-54.625	0.151	0.068
-401.223	-200.000	0.026	-0.194
-400.209	-62.569	-0.325	-0.135
-399.194	320.671	0.048	0.092
-398.179	336.847	0.151	0.293
-397.165	-2.567	-0.117	-0.082
-396.150	-68.916	0.192	0.074
-395.136	-200.000	0.019	-0.148
-394.121	199.819	0.204	-0.312
-393.106	73.828	-0.132	-0.138
-392.092	528.281	-0.095	0.224
-391.077	-200.000	-0.033	0.174
-390.063	41.338	-0.332	0.300
-389.048	142.150	0.139	0.185
-388.033	-31.103	-0.130	0.073
-387.019	173.296	0.053	0.077
-386.004	576.585	0.093	0.226
-384.990	-126.671	0.490	-0.072
-383.975	437.970	-0.193	0.421
-382.960	-22.613	-0.182	0.110
-381.946	-61.347	0.313	0.131
-380.931	72.420	-0.028	0.029
-379.917	583.929	0.170	0.417
-378.902	-96.052	-0.212	0.056
-377.888	792.386	-0.132	0.363
-376.873	-102.491	-0.059	0.014
-375.858	-200.000	-0.034	0.233
-374.844	-200.000	-0.002	-0.015
-373.829	-200.000	0.004	-0.049
-372.815	-77.314	-0.146	-0.051
-371.800	800.000	-0.024	0.089
-370.785	-113.152	0.116	0.023
-369.771	-18.770	-0.102	0.063
-368.756	75.882	0.081	0.085
-367.742	22.834	0.246	-0.202
-366.727	-39.890	-0.123	0.064
-365.712	-138.616	0.156	0.017
-364.698	-200.000	0.015	0.285
-363.683	-75.795	0.363	0.128
-362.669	-146.871	0.200	-0.017
-361.654	800.000	0.065	-0.260
-360.639	-96.147	-0.257	-0.068
-359.625	182.215	0.091	-0.134
-358.610	296.991	0.136	0.248
-357.596	-31.758	0.160	0.090
-356.581	201.258	0.142	0.218
-355.566	14.480	0.315	-0.245
-354.552	-81.851	0.214	0.070
-353.537	-68.438	-0.312	0.121
-352.523	352.843	0.042	0.082
-351.508	-100.592	0.075	-0.018
-350.493	73.132	0.021	0.022
-349.479	-200.000	0.011	-0.188
-348.464	-200.000	-0.039	0.210
-347.450	146.896	0.048	-0.065
-346.435	465.744	-0.050	-0.112
-345.420	493.556	-0.130	0.297
-344.406	-10.134	0.354	0.234
-343.391	229.013	-0.111	0.180
-342.377	78.561	0.034	0.036
-341.362	4.986	-0.152	0.112
-340.348	368.620	-0.103	0.207
-339.333	427.063	0.097	0.209
-338.318	348.951	0.113	0.222
-337.304	-68.611	-0.213	0.082
-336.289	491.605	-0.106	0.241
-335.275	121.475	-0.014	0.017
-334.260	-200.000	0.062	-0.339
-333.245	49.726	0.211	0.198
-332.231	284.763	0.033	-0.059
-331.216	-77.420	0.152	-0.052
-330.202	-200.000	0.007	-0.241
-329.187	-162.493	-0.216	-0.011
-328.172	175.012	-0.176	0.255
-327.158	254.456	0.111	-0.189
-326.143	-200.000	-0.005	-0.081
-325.129	-6.843	0.182	-0.124
-324.114	-89.458	0.086	0.025
-323.099	800.000	-0.017	0.068
-322.085	585.517	-0.104	0.255
-321.070	76.652	-0.213	0.225
-320.056	358.381	-0.170	-0.339
-319.041	-85.568	0.313	0.097
-318.026	284.470	-0.097	-0.173
-317.012	-54.502	-0.092	0.042
-315.997	800.000	-0.043	-0.187
-314.983	800.000	0.054	0.224
-313.968	-166.834	-0.415	-0.017
-312.953	800.000	0.066	0.263
-311.939	-38.507	0.361	-0.190
-310.924	6.477	0.108	0.080
-309.910	-83.721	-0.133	0.042
-308.895	-39.546	0.152	-0.079
-307.880	-131.791	-0.257	0.034
-306.866	-200.000	-0.014	0.175
-305.851	-154.575	0.303	-0.020
-304.837	-200.000	0.004	-0.104
-303.822	-200.000	-0.025	-0.178
-302.807	-150.842	-0.158	0.012
-301.793	30.472	0.147	0.125
-300.778	4.920	0.176	0.129
-299.764	31.871	-0.213	-0.182
-298.749	-72.809	0.167	0.061
-297.735	-140.869	0.204	-0.021
-296.720	-5.613	-0.043	-0.029
-295.705	418.555	0.044	-0.094
-294.691	698.564	0.110	-0.288
-293.676	509.179	0.129	0.298
-292.662	-74.711	-0.306	0.109
-291.647	48.112	0.103	-0.096
-290.632	-200.000	-0.008	0.201
-289.618	-200.000	0.109	-0.485
-288.603	800.000	0.059	0.257
-287.589	161.316	-0.096	-0.133
-286.574	-3.879	0.246	-0.169
-285.559	6.234	-0.252	0.186
-284.545	-8.507	-0.162	0.108
-283.530	-200.000	-0.014	-0.070
-282.516	-200.000	0.000	0.066
-281.501	664.766	0.097	0.250
-280.486	131.959	-0.138	0.177
-279.472	-81.077	-0.086	-0.028
-278.457	800.000	-0.097	0.342
-277.443	-19.404	0.187	0.116
-276.428	223.280	0.155	-0.249
-275.413	363.362	-0.176	-0.352
-274.399	675.411	-0.056	0.145
-273.384	41.818	-0.013	0.011
-272.370	-200.000	0.018	0.218
-271.355	-200.000	-0.017	0.193
-270.340	70.106	0.155	0.159
-269.326	-200.000	-0.002	0.271
-268.311	183.233	0.256	-0.376
-267.297	-174.204	-0.230	-0.007
-266.282	-68.263	0.244	-0.094
-265.267	-187.567	-0.362	0.005
-264.253	-200.000	-0.066	0.302
-263.238	122.749	-0.146	-0.182
-262.224	-8.696	-0.213	-0.142
-261.209	82.091	0.085	0.091
-260.195	800.000	0.026	0.089
-259.180	-64.679	0.224	-0.090
-258.165	34.577	-0.349	0.303
-257.151	-200.000	0.027	0.121
-256.136	706.210	0.068	-0.178
-255.122	-24.120	-0.280	0.166
-254.107	-103.215	-0.193	0.045
-253.092	-200.000	0.022	-0.169
-252.078	-6.303	0.150	-0.102
-251.063	800.000	0.066	0.182
-250.049	-66.687	0.096	0.038
-249.034	-35.334	0.228	-0.123
-248.019	90.737	-0.120	0.133
-247.005	10.803	-0.036	0.028
-245.990	-32.486	0.419	0.232
-244.976	-200.000	-0.002	0.060
-243.961	214.625	-0.187	0.293
-242.946	800.000	-0.070	-0.209
-241.932	-129.903	-0.466	-0.063
-240.917	640.709	-0.102	-0.257
-239.903	-35.095	0.174	0.094
-238.888	-200.000	0.025	-0.168
-237.873	-157.898	0.056	0.003
-236.859	-127.489	-0.097	0.014
-235.844	-69.627	0.256	0.097
-234.830	-94.037	-0.055	0.015
-233.815	-98.017	-0.227	0.058
-232.800	-200.000	-0.026	-0.200
-231.786	-27.584	0.271	-0.156
-230.771	94.764	0.096	-0.109
-229.757	-43.659	-0.140	-0.070
-228.742	-71.795	-0.184	0.068
-227.727	-200.000	0.013	0.154
-226.713	70.675	-0.235	0.242
-225.698	190.755	-0.082	0.122
-224.684	41.246	0.251	-0.225
-223.669	-47.165	0.206	-0.099
-222.655	479.591	-0.093	0.209
-221.640	-61.550	-0.468	0.195
-220.625	258.657	0.124	0.213
-219.611	-97.678	0.208	0.054
-218.596	385.803	-0.156	-0.319
-217.582	-63.291	0.246	-0.100
-216.567	48.337	-0.116	-0.108
-215.552	17.688	0.182	-0.144
-214.538	-73.146	-0.157	0.057
-213.523	-78.351	-0.341	-0.116
-212.509	-200.000	-0.074	0.405
-211.494	-125.429	-0.134	0.020
-210.479	-200.000	0.011	-0.083
-209.465	30.477	0.113	0.096
-208.450	144.428	0.065	0.086
-207.436	-200.000	0.031	-0.142
-206.421	-200.000	0.034	-0.164
-205.406	231.047	0.160	-0.259
-204.392	-200.000	-0.004	-0.251
-203.377	-129.072	0.116	-0.016
-202.363	140.434	-0.081	-0.106
-201.348	-76.136	-0.263	0.092
-200.333	4.486	-0.185	0.135
-199.319	-28.861	0.164	-0.093
-198.304	-200.000	0.003	0.239
-197.290	-178.003	0.131	-0.003
-196.275	40.184	-0.054	0.048
-195.260	231.606	-0.106	-0.172
-194.246	-103.926	-0.150	-0.035
-193.231	-63.303	-0.562	-0.230
-192.217	101.898	0.080	-0.093
-191.202	800.000	-0.023	-0.080
-190.187	800.000	-0.109	-0.362
-189.173	-84.910	-0.223	0.069
-188.158	-144.768	0.268	0.024
-187.144	-113.114	-0.037	-0.007
-186.129	-92.165	-0.352	-0.099
-185.114	800.000	-0.043	0.167
-184.100	-200.000	-0.011	-0.066
-183.085	-11.206	-0.167	-0.109
-182.071	61.019	0.123	0.121
-181.056	800.000	0.046	-0.193
-180.042	-41.162	0.148	-0.076
-179.027	800.000	-0.127	-0.496
-178.012	33.739	-0.088	-0.076
-176.998	-200.000	0.039	-0.251
-175.983	-200.000	-0.071	0.407
-174.969	234.709	-0.167	0.273
-173.954	-200.000	0.001	-0.023
-172.939	800.000	0.028	0.111
-171.925	800.000	0.047	-0.148
-170.910	56.979	0.130	0.126
-169.896	-138.040	-0.169	-0.019
-168.881	-9.493	-0.096	0.063
-167.866	-21.046	0.226	0.137
-166.852	25.247	0.210	-0.172
-165.837	378.822	-0.089	0.181
-164.823	49.821	-0.104	0.097
-163.808	-200.000	0.058	0.382
-162.793	-101.557	-0.164	-0.039
-161.779	198.177	-0.102	0.154
-160.764	800.000	-0.047	-0.136
-159.750	79.072	-0.125	0.132
-158.735	-63.652	0.123	-0.050
-157.720	-200.000	-0.027	-0.182
-156.706	-200.000	0.010	0.071
-155.691	-21.334	0.171	-0.103
-154.677	-137.545	0.222	0.025
-153.662	409.652	-0.084	-0.176
-152.647	111.405	0.109	-0.130
-151.633	-19.556	0.243	0.149
-150.618	71.958	-0.188	0.193
-149.604	206.904	-0.197	0.304
-148.589	-82.445	0.105	0.034
-147.574	-200.000	-0.008	0.044
-146.560	16.293	-0.154	-0.120
-145.545	-78.834	-0.083	-0.028
-144.531	65.278	0.150	0.150
-143.516	-120.882	0.191	-0.032
-142.502	-138.009	0.307	-0.034
-141.487	-200.000	-0.037	-0.262
-140.472	-180.755	0.023	0.000
-139.458	-120.088	0.148	-0.025
-138.443	-168.502	0.506	-0.019
-137.429	-37.368	0.359	0.190
-136.414	15.863	-0.342	0.266
-135.399	48.807	0.086	0.080
-134.385	-23.893	-0.153	0.090
-133.370	-46.023	0.063	0.031
-132.356	53.803	-0.250	0.237
-131.341	-91.744	0.262	-0.074
-130.326	153.018	0.161	0.218
-129.312	52.169	-0.181	0.171
-128.297	-200.000	-0.021	0.269
-127.283	-6.704	-0.089	-0.060
-126.268	281.743	-0.102	-0.181
-125.253	-200.000	-0.006	-0.160
-124.239	-97.510	-0.270	-0.069
-123.224	-175.018	-0.303	0.008
-122.210	557.054	0.143	0.340
-121.195	-200.000	-0.011	0.048
-120.180	-91.266	0.022	0.006
-119.166	-200.000	0.007	0.058
-118.151	397.356	-0.011	0.023
-117.137	-89.242	0.105	-0.031
-116.122	-9.765	-0.305	0.201
-115.107	-31.444	-0.192	0.107
-114.093	300.208	0.009	0.016
-113.078	-144.906	-0.111	-0.010
-112.064	75.987	-0.106	0.110
-111.049	-200.000	0.046	0.214
-110.034	-200.000	0.041	-0.206
-109.020	-125.434	-0.322	0.048
-108.005	13.884	0.220	0.169
-106.991	-86.826	0.227	-0.068
-105.976	-75.816	-0.241	-0.084
-104.962	139.461	-0.123	0.160
-103.947	800.000	0.046	0.132
-102.932	133.667	-0.148	0.189
-101.918	-59.263	-0.323	0.137
-100.903	8.371	-0.015	0.011
-99.889	800.000	0.098	-0.381
-98.874	24.677	0.050	-0.041
-97.859	-198.778	-0.166	0.001
-96.845	-136.249	-0.281	0.032
-95.830	555.215	0.132	-0.313
-94.816	800.000	0.047	-0.134
-93.801	-33.255	-0.337	-0.184
-92.786	-44.847	-0.228	-0.112
-91.772	-137.696	0.237	0.026
-90.757	161.516	0.122	-0.168
-89.743	317.070	0.078	0.145
-88.728	171.063	-0.216	0.306
-87.713	-200.000	-0.035	-0.181
-86.699	-61.020	-0.100	0.042
-85.684	-101.234	0.170	-0.041
-84.670	-112.797	-0.336	-0.066
-83.655	132.165	-0.147	-0.186
-82.640	219.689	0.137	0.216
-81.626	-61.023	0.409	0.170
-80.611	-1.940	0.322	0.223
-79.597	-200.000	-0.024	-0.127
-78.582	-151.619	0.306	0.022
-77.567	-82.978	-0.212	-0.067
-76.553	-122.196	0.247	-0.040
-75.538	143.413	0.210	-0.275
-74.524	8.559	0.152	0.113
-73.509	254.899	0.052	-0.088
-72.494	-85.059	-0.267	-0.082
-71.480	-65.632	0.067	0.027
-70.465	-200.000	-0.030	-0.292
-69.451	-165.877	-0.269	-0.011
-68.436	4.815	0.115	-0.083
-67.422	678.015	0.146	-0.375
-66.407	-15.604	0.083	0.052
-65.392	-52.814	-0.092	-0.042
-64.378	222.163	0.127	0.201
-63.363	-78.243	0.308	0.104
-62.349	2.935	-0.230	-0.165
-61.334	47.952	-1.080	-0.995
-60.319	110.307	0.513	0.607
-59.305	234.974	-0.440	-0.716
-58.290	800.000	0.400	1.178
-57.276	419.695	0.703	1.484
-56.261	-200.000	98.319	586.824
-55.246	603.986	1433.233	3515.494
-54.232	180.913	2651.678	3839.284
-53.217	112.291	2323.698	2769.449
-52.203	42.780	1932.097	1734.637
-51.188	36.527	1720.748	1496.603
-50.173	33.736	1676.687	1437.130
-49.159	51.620	1725.146	1616.301
-48.144	54.160	1741.409	1650.925
-47.130	36.284	1698.891	1475.504
-46.115	33.314	1684.079	1440.023
-45.100	33.243	1679.328	1435.369
-44.086	33.369	1676.127	1433.526
-43.071	33.319	1673.191	1430.583
-42.057	33.221	1670.684	1427.641
-41.042	33.244	1668.844	1426.186
-40.027	33.189	1666.948	1424.096
-39.013	33.223	1664.707	1422.375
-37.998	33.231	1663.694	1421.519
-36.984	33.235	1662.001	1420.042
-35.969	33.379	1660.837	1420.073
-34.954	33.411	1658.662	1418.399
-33.940	33.359	1656.985	1416.515
-32.925	33.368	1655.520	1415.276
-31.911	33.287	1653.654	1413.019
-30.896	33.515	1651.063	1412.447
-29.881	33.336	1650.052	1410.193
-28.867	33.370	1648.223	1408.832
-27.852	33.314	1646.842	1407.175
-26.838	33.354	1645.191	1406.005
-25.823	33.406	1643.577	1404.955
-24.809	33.301	1642.835	1403.486
-23.794	33.357	1640.742	1402.060
-22.779	33.434	1639.404	1401.433
-21.765	33.341	1637.852	1399.360
-20.750	33.297	1635.791	1397.222
-19.736	33.406	1634.360	1396.743
-18.721	33.414	1633.083	1395.659
-17.706	33.385	1631.401	1393.953
-16.692	33.370	1629.724	1392.352
-15.677	33.410	1628.014	1391.130
-14.663	33.397	1627.369	1390.425
-13.648	33.382	1625.481	1388.650
-12.633	33.380	1623.843	1387.181
-11.619	33.329	1623.005	1386.035
-10.604	33.392	1620.912	1384.654
-9.590	33.403	1619.415	1383.406
-8.575	33.388	1618.499	1382.456
-7.560	33.439	1617.143	1381.612
-6.546	33.416	1615.873	1380.310
-5.531	33.444	1614.827	1379.565
-4.517	33.410	1613.468	1378.099
-3.502	33.312	1612.848	1376.801
-2.487	33.425	1611.168	1376.136
-1.473	33.336	1599.692	1365.634
-0.458	30.739	1580.250	1330.447
0.556	29.393	1579.738	1294.729
1.571	26.844	1603.427	1295.843
2.586	25.857	1614.986	1297.958
3.600	22.510	1560.050	1230.361
4.615	13.644	1448.397	1084.454
5.629	5.908	1383.314	987.131
6.644	4.615	1374.323	972.544
7.659	4.520	1373.358	971.179
8.673	4.530	1372.432	970.501
9.688	4.576	1370.692	969.472
10.702	4.596	1367.801	967.465
11.717	8.252	1374.588	995.014
12.731	16.883	1390.491	1060.657
13.746	22.277	1399.436	1101.257
14.761	22.805	1399.089	1104.190
15.775	22.005	1397.098	1097.525
16.790	21.140	1394.172	1089.727
17.804	20.348	1391.646	1082.721
18.819	19.947	1390.606	1079.315
19.834	19.871	1389.457	1077.852
20.848	19.637	1388.985	1075.937
21.863	19.583	1387.481	1074.342
22.877	19.388	1386.366	1072.170
23.892	19.375	1385.252	1071.133
24.907	19.361	1384.599	1070.446
25.921	19.344	1383.226	1069.182
26.936	19.380	1382.584	1068.815
27.950	19.359	1381.840	1068.016
28.965	19.447	1380.875	1067.719
29.980	19.597	1379.548	1067.530
30.994	19.703	1378.727	1067.451
32.009	19.873	1377.503	1067.460
33.023	19.689	1376.690	1065.602
34.038	19.639	1375.057	1063.936
35.053	19.494	1373.796	1061.972
36.067	19.455	1372.765	1060.841
37.082	19.505	1372.440	1060.802
38.096	19.612	1370.889	1060.171
39.111	19.630	1369.778	1059.327
40.126	19.499	1369.007	1057.835
41.140	19.132	1368.273	1054.925
42.155	19.087	1367.309	1053.810
43.169	19.021	1367.096	1053.152
44.184	19.024	1366.592	1052.686
45.199	19.076	1366.290	1052.679
46.213	19.202	1366.245	1053.324
47.228	19.398	1365.816	1054.095
48.242	19.474	1364.334	1053.319
49.257	19.364	1362.598	1051.221
50.271	19.419	1361.147	1050.343
51.286	19.422	1359.609	1049.080
52.301	19.416	1358.528	1048.113
53.315	19.301	1357.384	1046.444
54.330	19.089	1356.418	1044.320
55.344	19.214	1354.895	1043.811
56.359	19.187	1353.836	1042.740
57.374	19.172	1353.366	1042.196
58.388	18.978	1352.552	1040.301
59.403	18.946	1352.087	1039.658
60.417	19.017	1350.948	1039.122
61.432	18.870	1350.455	1037.761
62.447	18.852	1349.152	1036.561
63.461	18.816	1348.013	1035.376
64.476	18.807	1346.853	1034.336
65.490	18.829	1345.664	1033.467
66.505	18.800	1344.117	1032.016
67.520	18.834	1342.979	1031.253
68.534	18.888	1342.329	1030.987
69.549	18.789	1341.388	1029.578
70.563	18.719	1340.207	1028.161
71.578	18.758	1338.215	1026.777
72.593	18.614	1337.587	1025.342
73.607	18.567	1337.320	1024.766
74.622	18.635	1335.945	1024.030
75.636	18.790	1335.198	1024.291
76.651	18.660	1334.757	1023.086
77.666	18.758	1334.520	1023.399
78.680	18.846	1334.075	1023.492
79.695	18.912	1333.317	1023.211
80.709	19.080	1332.032	1023.133
81.724	19.079	1332.005	1023.017
82.739	19.194	1330.893	1022.754
83.753	19.323	1330.482	1023.111
84.768	19.430	1329.589	1022.970
85.782	19.593	1328.851	1023.276
86.797	19.549	1326.761	1021.317
87.812	19.428	1325.833	1019.796
88.826	19.516	1324.593	1019.272
89.841	19.456	1324.095	1018.447
90.855	19.510	1322.934	1017.781
91.870	19.635	1321.923	1017.649
92.884	19.737	1321.065	1017.499
93.899	19.747	1320.172	1016.778
94.914	19.777	1319.632	1016.452
95.928	19.732	1318.985	1015.598
96.943	19.611	1317.659	1013.776
97.957	19.537	1317.019	1012.760
98.972	19.580	1316.092	1012.213
99.987	19.516	1315.222	1011.079
101.001	19.507	1313.990	1009.991
102.016	19.567	1313.101	1009.567
103.030	19.524	1312.627	1008.859
104.045	19.534	1311.340	1007.842
105.060	19.479	1309.936	1006.350
106.074	19.182	1308.244	1003.236
107.089	18.936	1306.263	1000.195
108.103	18.849	1305.462	998.989
109.118	18.883	1304.083	998.042
110.133	18.801	1303.294	996.871
111.147	18.825	1302.157	996.052
112.162	18.965	1300.636	995.616
113.176	19.020	1299.498	994.969
114.191	19.099	1298.897	994.882
115.206	19.104	1297.556	993.797
116.220	19.015	1296.229	992.175
117.235	19.050	1295.359	991.621
118.249	18.954	1294.267	990.150
119.264	18.942	1293.010	989.031
120.279	18.859	1291.698	987.459
121.293	18.770	1291.162	986.455
122.308	18.848	1289.539	985.572
123.322	18.710	1288.179	983.657
124.337	18.728	1287.393	983.071
125.352	18.690	1286.172	981.836
126.366	18.615	1285.082	980.489
127.381	18.671	1284.217	980.059
128.395	18.744	1282.994	979.459
129.410	18.786	1282.119	978.941
130.424	18.831	1281.599	978.717
131.439	18.835	1280.930	978.139
132.454	18.972	1279.585	977.805
133.468	19.035	1278.921	977.571
134.483	19.027	1278.115	976.825
135.497	19.037	1277.228	976.113
136.512	19.098	1275.859	975.327
137.527	19.156	1274.868	974.809
138.541	19.109	1273.569	973.464
139.556	19.142	1272.061	972.413
140.570	19.318	1271.017	972.523
141.585	19.378	1269.866	971.893
142.600	19.494	1268.764	971.620
143.614	19.522	1268.336	971.361
144.629	19.597	1267.053	970.714
145.643	19.541	1265.624	969.220
146.658	19.375	1264.168	967.089
147.673	19.291	1262.702	965.411
148.687	19.104	1261.755	963.552
149.702	19.072	1260.149	962.067
150.716	18.997	1259.108	960.765
151.731	19.064	1257.749	960.015
152.746	19.100	1256.496	959.179
153.760	19.222	1255.720	959.180
154.775	19.255	1254.541	958.377
155.789	19.363	1253.550	958.137
156.804	19.402	1252.589	957.533
157.819	19.357	1252.048	956.785
158.833	19.550	1250.602	956.663
159.848	19.640	1250.077	956.675
160.862	19.584	1249.593	955.910
161.877	19.339	1247.844	953.133
162.892	19.121	1246.440	950.774
163.906	19.082	1245.317	949.619
164.921	19.066	1244.841	949.082
165.935	19.176	1244.274	949.175
166.950	19.295	1243.085	948.838
167.964	19.256	1242.556	948.133
168.979	19.225	1241.700	947.225
169.994	19.306	1240.778	946.886
171.008	19.258	1240.354	946.215
172.023	19.479	1239.330	946.563
173.037	19.550	1238.752	946.426
174.052	19.439	1238.138	945.266
175.067	19.207	1236.938	942.997
176.081	19.086	1235.689	941.298
177.096	19.143	1234.429	940.564
178.110	19.257	1232.960	939.988
179.125	19.197	1232.486	939.214
180.140	19.278	1231.184	938.578
181.154	19.431	1230.240	938.612
182.169	19.398	1229.491	937.775
183.183	19.505	1228.162	937.261
184.198	19.590	1227.045	936.786
185.213	19.661	1226.049	936.329
186.227	19.588	1225.087	935.117
187.242	19.728	1223.952	934.925
188.256	19.801	1222.805	934.356
189.271	19.835	1222.246	934.031
190.286	19.678	1220.833	932.021
191.300	19.136	1219.781	928.213
192.315	19.017	1218.669	926.645
193.329	19.089	1218.252	926.632
194.344	19.207	1217.556	926.659
195.359	19.251	1217.346	926.655
196.373	19.454	1216.791	927.240
197.388	19.592	1216.263	927.499
198.402	19.665	1216.285	927.823
199.417	19.897	1215.649	928.500
200.432	19.979	1215.186	928.504
201.446	20.147	1214.336	928.672
202.461	20.027	1213.642	927.418
203.475	20.202	1212.644	927.512
204.490	19.976	1210.749	924.774
205.504	19.657	1209.819	922.274
206.519	19.741	1208.315	921.495
207.534	19.529	1207.282	919.495
208.548	19.614	1206.378	919.182
209.563	19.542	1206.223	918.599
210.577	19.731	1204.640	918.315
211.592	19.856	1204.402	918.713
212.607	19.941	1203.327	918.264
213.621	20.038	1202.481	918.051
214.636	19.821	1201.755	916.266
215.650	19.967	1200.596	916.075
216.665	20.019	1200.169	915.944
217.680	20.149	1199.297	915.882
218.694	20.120	1198.246	914.845
219.709	20.088	1197.733	914.204
220.723	20.317	1196.241	914.191
221.738	20.172	1195.567	912.832
222.753	20.029	1194.924	911.511
223.767	20.054	1194.317	911.094
224.782	20.233	1193.684	911.476
225.796	20.295	1193.268	911.402
226.811	20.170	1192.390	909.996
227.826	20.042	1191.658	908.686
228.840	20.059	1190.864	908.086
229.855	19.978	1189.892	906.842
230.869	20.101	1189.112	906.813
231.884	19.860	1188.417	904.941
232.899	19.917	1187.232	904.253
233.913	19.763	1186.913	903.128
234.928	19.700	1185.636	901.750
235.942	19.725	1184.806	901.166
236.957	19.744	1184.124	900.665
237.972	19.754	1183.651	900.281
238.986	19.734	1182.795	899.446
240.001	19.876	1182.131	899.600
241.015	19.863	1181.153	898.710
242.030	20.033	1180.580	899.074
243.045	20.037	1179.908	898.505
244.059	20.099	1178.887	897.966
245.074	20.155	1178.361	897.777
246.088	20.182	1177.549	897.221
247.103	20.334	1176.529	897.147
248.117	20.426	1175.936	897.094
249.132	20.471	1175.939	897.248
250.147	20.649	1175.820	897.997
251.161	20.880	1174.737	898.278
252.176	20.851	1174.506	897.876
253.190	20.944	1173.446	897.464
254.205	21.030	1172.621	897.198
255.220	20.956	1172.295	896.488
256.234	20.903	1171.763	895.731
257.249	20.938	1170.543	894.895
258.263	21.014	1170.272	895.002
259.278	20.902	1169.709	893.918
260.293	21.051	1168.760	893.875
261.307	20.920	1168.775	893.135
262.322	21.052	1167.851	893.028
263.336	21.066	1166.987	892.359
264.351	21.134	1166.312	892.109
265.366	21.026	1165.945	891.201
266.380	21.165	1164.961	891.076
267.395	21.145	1164.209	890.323
268.409	20.967	1163.317	888.655
269.424	20.831	1162.533	887.284
270.439	20.927	1161.531	886.928
271.453	20.958	1160.471	886.197
272.468	20.724	1160.318	884.816
273.482	20.611	1159.491	883.531
274.497	20.701	1159.009	883.544
275.512	20.834	1157.556	883.030
276.526	20.792	1157.441	882.655
277.541	20.753	1156.789	881.880
278.555	20.777	1156.104	881.400
279.570	20.973	1155.769	882.061
280.585	21.182	1154.555	882.111
281.599	21.097	1153.927	881.124
282.614	21.079	1152.400	879.788
283.628	20.830	1151.506	877.772
284.643	20.925	1150.403	877.334
285.657	20.945	1149.551	876.708
286.672	20.910	1148.611	875.735
287.687	20.987	1147.944	875.539
288.701	21.009	1147.073	874.904
289.716	20.925	1146.529	873.992
290.730	20.962	1145.786	873.536
291.745	21.031	1144.979	873.185
292.760	21.096	1144.167	872.816
293.774	21.228	1143.757	873.088
294.789	21.289	1143.539	873.147
295.803	21.208	1143.000	872.256
296.818	20.948	1142.339	870.371
297.833	21.000	1140.906	869.465
298.847	20.985	1140.175	868.754
299.862	21.039	1139.003	868.052
300.876	21.175	1138.204	868.043
301.891	21.206	1137.888	867.880
302.906	21.353	1137.459	868.207
303.920	21.375	1137.189	868.035
304.935	21.470	1136.553	867.941
305.949	21.659	1135.664	868.124
306.964	21.643	1135.223	867.630
307.979	21.503	1134.078	865.985
308.993	21.413	1133.499	865.023
310.008	21.429	1132.959	864.610
311.022	21.513	1132.417	864.537
312.037	21.474	1131.022	863.204
313.052	21.348	1130.009	861.732
314.066	21.143	1129.289	860.095
315.081	21.025	1128.055	858.500
316.095	21.111	1127.369	858.328
317.110	21.058	1126.862	857.605
318.125	21.010	1126.205	856.789
319.139	21.034	1125.391	856.215
320.154	21.021	1124.439	855.352
321.168	21.095	1124.192	855.450
322.183	21.141	1123.610	855.158
323.197	21.079	1123.222	854.479
324.212	21.213	1122.162	854.253
325.227	21.226	1121.878	854.028
326.241	21.300	1121.076	853.702
327.256	21.121	1120.290	852.154
328.270	21.144	1119.058	851.252
329.285	21.141	1118.646	850.851
330.300	21.122	1117.456	849.780
331.314	21.252	1116.193	849.376
332.329	21.327	1115.135	848.857
333.343	21.298	1114.789	848.380
334.358	21.442	1113.701	848.174
335.373	21.452	1113.419	847.933
336.387	21.470	1112.453	847.212
337.402	21.500	1112.159	847.057
338.416	21.629	1111.135	846.826
339.431	21.730	1110.760	846.955
340.446	21.775	1110.367	846.797
341.460	21.834	1109.799	846.572
342.475	22.027	1109.120	846.909
343.489	22.086	1107.877	846.172
344.504	21.975	1106.918	844.828
345.519	22.044	1106.230	844.562
346.533	22.281	1105.256	844.883
347.548	22.152	1105.056	844.035
348.562	22.151	1104.143	843.258
349.577	21.907	1103.424	841.465
350.592	21.735	1102.360	839.754
351.606	21.745	1101.513	839.084
352.621	21.533	1100.675	837.354
353.635	21.555	1099.828	836.742
354.650	21.555	1099.218	836.201
355.665	21.673	1098.803	836.378
356.679	21.733	1097.772	835.803
357.694	21.701	1097.947	835.709
358.708	21.847	1096.851	835.497
359.723	21.866	1096.443	835.206
360.738	21.895	1095.611	834.636
361.752	21.844	1095.285	834.071
362.767	21.871	1094.626	833.621
363.781	21.814	1094.578	833.241
364.796	22.057	1093.427	833.446
365.810	22.234	1093.123	833.978
366.825	22.299	1092.987	834.110
367.840	22.393	1092.287	833.945
368.854	22.364	1091.184	832.893
369.869	22.471	1090.770	833.012
370.883	22.318	1089.715	831.408
371.898	22.305	1088.787	830.567
372.913	22.157	1088.411	829.505
373.927	22.384	1087.590	829.879
374.942	22.346	1087.282	829.390
375.956	22.470	1086.787	829.521
376.971	22.350	1086.150	828.399
377.986	22.322	1086.200	828.230
379.000	22.456	1085.697	828.403
380.015	22.618	1084.809	828.417
381.029	22.659	1083.961	827.888
382.044	22.630	1083.189	827.089
383.059	22.630	1082.472	826.465
384.073	22.604	1081.545	825.565
385.088	22.592	1081.070	825.072
386.102	22.501	1080.080	823.819
387.117	22.462	1078.581	822.418
388.132	22.286	1077.829	820.951
389.146	22.233	1077.179	820.137
390.161	22.167	1076.174	818.991
391.175	22.206	1075.341	818.467
392.190	22.330	1074.931	818.660
393.205	22.517	1074.442	819.084
394.219	22.527	1073.617	818.430
395.234	22.386	1072.726	817.024
396.248	22.458	1071.164	816.094
397.263	22.281	1070.307	814.550
398.278	22.218	1069.555	813.613
399.292	22.204	1068.752	812.866
400.307	22.107	1067.899	811.701
401.321	22.080	1067.604	811.278
402.336	22.141	1066.752	810.839
403.350	22.076	1066.104	809.976
404.365	22.173	1065.746	810.079
405.380	22.306	1064.921	809.995
406.394	22.374	1064.082	809.598
407.409	22.641	1063.331	810.180
408.423	22.692	1062.829	809.962
409.438	22.709	1062.449	809.679
410.453	22.814	1061.532	809.390
411.467	22.847	1060.976	809.043
412.482	22.815	1060.731	808.641
413.496	22.924	1060.094	808.583
414.511	23.012	1059.456	808.427
415.526	23.086	1059.264	808.545
416.540	23.202	1058.548	808.455
417.555	23.205	1058.054	808.022
418.569	23.069	1057.456	806.874
419.584	22.971	1056.856	805.895
420.599	23.024	1055.819	805.279
421.613	155.194	1401.178	1791.959
422.628	142.587	1451.515	1792.096
