DTS Sentinel unit serial number:	SN413079Multiplexer serial number:	ORYXHardware model number:	OX4-SRSoftware version number:	ORYX F/W v4.00 Oryx Data Collector v3.7.2.0data status	okinstallation	princeton_trtdifferential loss correction	single-endedforward channel	channel 2reverse channel	N/Adate	2019/09/11time	15:57:11forward acquisition time	60.00reverse acquisition time	0.00gamma	496.2192k internal	0.2288k external	0.2288temperature offset calibration	1.0012default loss term (dB/km)	0.3790temperature slope calibration	1.0000multiplexer offset coefficient	1.0000multiplexer slope coefficient	1.0000fibre end	0.00T internal ref (°C)	43.02T ext. ref 1 (°C)	1.00T ext. ref 2 (°C)	38.85length (m)	temperature (°C)	Stokes	anti-Stokes-747.200	50.622	0.275	0.267
-746.185	-10.219	0.136	0.092
-745.171	-31.538	0.207	0.119
-744.156	-173.172	-0.113	-0.004
-743.142	43.758	-0.201	0.189
-742.127	-113.047	-0.670	0.136
-741.112	409.702	-0.061	0.133
-740.098	800.000	0.088	0.371
-739.083	202.663	-0.121	0.192
-738.069	-70.495	0.221	0.086
-737.054	-200.000	0.053	0.283
-736.039	-132.908	-0.358	0.047
-735.025	209.164	0.191	0.307
-734.010	499.113	-0.147	-0.347
-732.996	318.790	0.020	0.039
-731.981	-167.712	-0.128	0.005
-730.966	-148.029	-0.250	-0.021
-729.952	161.580	0.069	-0.100
-728.937	-200.000	0.009	0.045
-727.923	-200.000	0.042	0.241
-726.908	-120.073	-0.124	0.022
-725.894	1.012	0.194	-0.143
-724.879	-71.725	0.232	0.089
-723.864	-80.088	-0.167	-0.057
-722.850	-200.000	0.049	-0.225
-721.835	-200.000	-0.093	-0.421
-720.821	348.505	-0.073	-0.147
-719.806	-76.627	0.121	0.044
-718.791	-53.904	-0.231	-0.108
-717.777	-86.608	0.183	-0.057
-716.762	23.399	0.271	0.228
-715.748	800.000	0.062	0.260
-714.733	-76.734	0.103	0.037
-713.718	-105.759	-0.278	0.064
-712.704	800.000	-0.075	-0.267
-711.689	-111.383	0.014	0.003
-710.675	5.531	0.079	0.060
-709.660	-200.000	-0.002	0.272
-708.645	292.333	0.061	-0.113
-707.631	51.983	-0.186	0.181
-706.616	78.397	0.251	-0.275
-705.602	156.233	0.105	0.149
-704.587	-134.388	-0.596	-0.075
-703.572	274.690	-0.066	0.119
-702.558	189.558	0.089	-0.136
-701.543	-150.542	-0.072	-0.006
-700.529	-16.297	0.145	0.094
-699.514	391.799	0.031	-0.067
-698.499	67.420	-0.134	0.140
-697.485	-75.276	0.051	0.019
-696.470	400.434	0.074	0.159
-695.456	-16.682	0.122	0.079
-694.441	-200.000	-0.003	0.206
-693.426	-152.544	0.115	-0.008
-692.412	54.396	-0.070	-0.069
-691.397	800.000	0.034	-0.112
-690.383	380.064	-0.067	-0.141
-689.368	140.230	0.182	0.246
-688.354	55.237	0.128	-0.127
-687.339	-115.865	-0.116	0.022
-686.324	396.890	-0.030	0.065
-685.310	177.837	0.269	-0.402
-684.295	50.833	0.078	-0.076
-683.281	-38.414	0.168	0.091
-682.266	-87.475	0.168	0.052
-681.251	23.824	-0.239	0.201
-680.237	-200.000	0.095	0.479
-679.222	-200.000	-0.044	0.272
-678.208	-200.000	-0.030	-0.242
-677.193	20.847	-0.105	0.087
-676.178	44.763	-0.292	-0.275
-675.164	-128.686	0.077	-0.011
-674.149	37.045	-0.099	-0.090
-673.135	476.588	0.077	0.178
-672.120	-200.000	0.009	0.096
-671.105	-120.509	-0.280	-0.049
-670.091	-133.188	-0.081	0.010
-669.076	-200.000	0.002	-0.083
-668.062	61.665	0.294	-0.299
-667.047	-128.193	0.294	0.043
-666.032	-93.792	-0.355	0.100
-665.018	217.331	-0.147	0.239
-664.003	125.976	-0.121	0.156
-662.989	-61.380	0.096	-0.041
-661.974	-19.279	-0.054	0.034
-660.959	55.948	-0.112	-0.111
-659.945	310.062	0.075	-0.142
-658.930	15.303	-0.350	0.280
-657.916	-109.598	-0.053	-0.011
-656.901	205.951	0.049	0.079
-655.886	-134.314	-0.022	0.003
-654.872	-200.000	0.029	-0.540
-653.857	-84.103	0.159	0.052
-652.843	216.421	0.212	-0.345
-651.828	-200.000	-0.519	-0.002
-650.814	243.748	0.125	-0.215
-649.799	-76.423	-0.256	0.092
-648.784	172.667	-0.028	0.041
-647.770	37.929	-0.267	0.242
-646.755	83.474	-0.025	0.027
-645.741	-152.404	0.249	0.018
-644.726	-200.000	-0.049	-0.235
-643.711	-163.873	-0.225	-0.011
-642.697	-75.898	0.096	-0.035
-641.682	-88.828	-0.291	-0.088
-640.668	800.000	-0.056	-0.241
-639.653	-104.628	-0.216	-0.051
-638.638	-200.000	0.025	-0.216
-637.624	-41.614	0.240	-0.126
-636.609	421.064	-0.037	0.081
-635.595	20.852	-0.080	-0.066
-634.580	800.000	0.038	0.125
-633.565	-53.725	0.272	0.127
-632.551	55.400	-0.115	-0.114
-631.536	147.971	-0.192	-0.264
-630.522	722.013	0.019	0.051
-629.507	179.452	0.107	-0.160
-628.492	-40.134	-0.193	-0.102
-627.478	-63.709	-0.090	0.038
-626.463	351.426	0.029	0.058
-625.449	-68.826	0.064	-0.025
-624.434	27.520	0.147	-0.126
-623.419	-126.714	-0.235	-0.035
-622.405	-200.000	0.010	-0.117
-621.390	-36.088	0.286	0.157
-620.376	-200.000	-0.043	-0.302
-619.361	-95.999	-0.205	0.056
-618.346	-124.505	-0.179	0.028
-617.332	769.571	-0.130	0.361
-616.317	693.039	0.067	0.180
-615.303	-117.201	0.145	-0.027
-614.288	-122.464	0.196	-0.033
-613.273	22.939	0.109	-0.091
-612.259	214.986	-0.083	-0.135
-611.244	786.436	-0.097	0.271
-610.230	-200.000	0.015	0.235
-609.215	-54.003	0.501	0.233
-608.201	58.138	-0.100	-0.099
-607.186	479.461	0.050	0.116
-606.171	566.352	0.093	0.231
-605.157	-102.361	-0.484	0.118
-604.142	62.222	-0.114	-0.116
-603.128	97.562	0.185	0.216
-602.113	-200.000	0.005	0.063
-601.098	48.233	0.085	-0.081
-600.084	772.580	0.134	0.373
-599.069	425.839	-0.084	-0.184
-598.055	405.828	0.165	-0.355
-597.040	-200.000	-0.116	-0.640
-596.025	-110.866	0.131	-0.028
-595.011	14.262	-0.189	0.151
-593.996	262.147	0.041	0.073
-592.982	-200.000	0.006	-0.060
-591.967	13.653	-0.148	-0.117
-590.952	-2.745	0.305	-0.217
-589.938	800.000	0.041	0.137
-588.923	800.000	-0.032	-0.093
-587.909	444.097	-0.105	-0.234
-586.894	132.997	-0.186	0.245
-585.879	-136.809	0.274	-0.032
-584.865	-106.328	0.137	-0.031
-583.850	394.604	-0.023	-0.049
-582.836	-159.059	-0.392	-0.023
-581.821	109.139	0.052	0.063
-580.806	800.000	-0.100	-0.281
-579.792	-97.088	-0.142	0.038
-578.777	800.000	-0.017	0.071
-577.763	-200.000	0.268	-0.001
-576.748	800.000	-0.065	0.263
-575.733	165.970	-0.071	0.102
-574.719	7.066	-0.093	0.070
-573.704	78.324	0.113	0.123
-572.690	-125.280	-0.091	0.014
-571.675	-53.751	-0.198	0.092
-570.661	-136.026	0.484	-0.058
-569.646	-25.461	-0.172	0.104
-568.631	-157.351	-0.197	0.012
-567.617	-107.291	0.124	0.028
-566.602	213.115	0.067	0.107
-565.588	-26.915	-0.075	0.045
-564.573	313.289	0.122	0.234
-563.558	-124.669	-0.034	-0.005
-562.544	800.000	-0.029	0.114
-561.529	103.369	0.040	-0.048
-560.515	-200.000	-0.004	-0.057
-559.500	691.492	0.053	0.142
-558.485	-162.775	-0.222	-0.011
-557.471	-11.354	-0.095	0.064
-556.456	-90.250	0.040	-0.012
-555.442	14.968	0.266	0.212
-554.427	-127.678	-0.211	0.031
-553.412	123.448	-0.280	0.357
-552.398	-200.000	0.040	0.395
-551.383	800.000	-0.128	0.374
-550.369	-63.349	0.157	-0.066
-549.354	28.339	0.063	-0.054
-548.339	-200.000	-0.029	-0.275
-547.325	-200.000	0.006	0.115
-546.310	-200.000	0.007	0.250
-545.296	-100.164	-0.252	0.064
-544.281	-200.000	-0.009	-0.088
-543.266	-200.000	0.055	-0.322
-542.252	-200.000	-0.006	0.037
-541.237	-177.070	0.152	0.004
-540.223	0.167	0.184	-0.134
-539.208	-91.464	0.290	0.084
-538.193	800.000	0.056	-0.167
-537.179	65.785	0.088	-0.091
-536.164	33.698	0.183	0.162
-535.150	-200.000	-0.011	-0.071
-534.135	-175.934	0.353	-0.010
-533.121	180.055	0.174	-0.259
-532.106	-142.883	-0.181	-0.018
-531.091	-48.725	0.134	0.065
-530.077	-89.695	-0.350	0.104
-529.062	332.241	-0.024	-0.046
-528.048	-200.000	0.034	0.151
-527.033	113.939	-0.148	0.183
-526.018	617.351	-0.064	0.163
-525.004	226.634	-0.209	-0.345
-523.989	-188.314	-0.342	0.004
-522.975	800.000	0.146	-0.436
-521.960	-41.192	0.132	0.069
-520.945	-200.000	0.052	0.266
-519.931	800.000	0.026	0.116
-518.916	264.755	0.157	0.279
-517.902	173.143	0.106	-0.155
-516.887	-88.476	-0.181	-0.055
-515.872	-120.152	-0.386	0.067
-514.858	407.870	-0.151	-0.324
-513.843	-200.000	0.002	-0.218
-512.829	103.057	-0.114	0.136
-511.814	179.638	-0.070	0.104
-510.799	-152.253	-0.010	-0.001
-509.785	-200.000	-0.013	0.380
-508.770	-56.160	0.321	-0.145
-507.756	-86.543	0.170	-0.053
-506.741	-185.500	0.545	-0.008
-505.726	-22.278	0.259	-0.160
-504.712	-97.547	0.119	-0.031
-503.697	-117.278	0.218	0.040
-502.683	3.662	-0.073	0.054
-501.668	36.346	-0.042	0.038
-500.653	-78.342	-0.016	0.006
-499.639	59.827	-0.197	0.198
-498.624	-130.549	0.197	-0.027
-497.610	-15.201	-0.252	0.164
-496.595	-32.593	-0.301	0.170
-495.581	-148.705	-0.165	0.014
-494.566	85.258	-0.107	-0.119
-493.551	-89.116	0.164	-0.049
-492.537	-86.971	-0.087	0.027
-491.522	216.389	-0.093	0.149
-490.508	150.214	-0.166	-0.229
-489.493	5.446	0.416	0.311
-488.478	42.380	-0.168	0.155
-487.464	-110.045	-0.198	-0.042
-486.449	685.168	-0.058	0.155
-485.435	-76.910	0.103	-0.036
-484.420	39.472	-0.272	0.247
-483.405	110.941	-0.212	0.258
-482.391	-131.517	-0.391	-0.052
-481.376	691.615	0.138	-0.368
-480.362	-200.000	-0.005	0.174
-479.347	-200.000	-0.016	0.180
-478.332	-110.487	0.077	0.016
-477.318	-87.874	0.305	-0.093
-476.303	169.931	-0.228	0.331
-475.289	-70.760	-0.155	0.059
-474.274	163.857	0.268	-0.382
-473.259	-200.000	0.001	-0.313
-472.245	-183.233	0.167	0.003
-471.230	-144.940	-0.314	-0.029
-470.216	303.804	0.091	0.170
-469.201	800.000	-0.047	0.141
-468.186	-111.015	-0.086	-0.018
-467.172	-67.145	0.119	0.047
-466.157	800.000	0.036	-0.108
-465.143	103.048	0.147	-0.175
-464.128	-2.288	-0.338	-0.241
-463.113	-200.000	0.018	-0.331
-462.099	32.241	0.119	-0.104
-461.084	-2.940	-0.362	-0.256
-460.070	-199.679	0.368	-0.002
-459.055	144.402	0.083	-0.112
-458.040	-200.000	-0.026	-0.268
-457.026	-151.897	0.219	-0.016
-456.011	-136.536	-0.194	-0.023
-454.997	650.202	0.086	0.223
-453.982	227.895	0.053	-0.088
-452.968	800.000	-0.105	-0.339
-451.953	96.319	-0.104	-0.120
-450.938	-59.260	0.310	-0.135
-449.924	800.000	-0.143	-0.513
-448.909	-150.140	-0.126	0.010
-447.895	2.950	-0.209	0.154
-446.880	-111.727	-0.306	-0.063
-445.865	-21.539	0.228	-0.141
-444.851	800.000	0.076	-0.306
-443.836	412.552	-0.087	0.188
-442.822	-100.839	0.112	-0.028
-441.807	-200.000	0.020	0.168
-440.792	-15.194	0.289	-0.187
-439.778	599.243	0.126	-0.317
-438.763	-200.000	0.093	-0.495
-437.749	17.938	-0.158	-0.127
-436.734	-27.317	0.248	-0.146
-435.719	-56.107	-0.057	-0.026
-434.705	101.456	-0.020	-0.023
-433.690	-79.712	0.142	0.048
-432.676	89.165	-0.099	0.111
-431.661	249.071	-0.161	-0.277
-430.646	-140.075	-0.206	-0.022
-429.632	-85.635	-0.217	0.068
-428.617	800.000	-0.047	0.156
-427.603	-91.359	0.066	0.019
-426.588	-88.252	0.158	0.048
-425.573	-178.641	0.044	-0.001
-424.559	800.000	0.085	0.277
-423.544	-48.633	-0.164	-0.080
-422.530	-200.000	-0.007	-0.400
-421.515	137.331	0.156	-0.207
-420.500	-82.549	0.055	-0.018
-419.486	800.000	0.080	0.260
-418.471	-185.052	0.379	0.006
-417.457	168.479	0.165	0.238
-416.442	800.000	-0.066	0.215
-415.428	71.635	-0.008	0.008
-414.413	531.645	-0.103	-0.248
-413.398	40.422	-0.036	-0.033
-412.384	161.041	0.095	-0.135
-411.369	-40.559	-0.085	0.045
-410.355	155.019	0.109	0.152
-409.340	-103.476	0.199	0.047
-408.325	514.725	0.061	0.145
-407.311	502.664	0.059	0.137
-406.296	-200.000	0.257	-0.001
-405.282	515.724	-0.057	-0.135
-404.267	-94.298	-0.293	0.081
-403.252	-41.637	0.312	-0.162
-402.238	-200.000	-0.014	0.115
-401.223	-107.959	0.069	0.015
-400.209	22.404	0.102	-0.085
-399.194	-87.806	-0.126	0.038
-398.179	777.362	-0.078	-0.215
-397.165	-45.470	-0.140	-0.070
-396.150	-200.000	-0.043	0.398
-395.136	800.000	-0.118	0.454
-394.121	130.479	0.122	0.158
-393.106	-25.747	-0.068	0.041
-392.092	104.041	0.186	0.221
-391.077	-108.443	-0.107	0.023
-390.063	290.186	-0.082	0.151
-389.048	-60.884	-0.331	-0.142
-388.033	53.025	0.028	0.027
-387.019	716.443	0.035	0.095
-386.004	-44.880	0.182	0.092
-384.990	-147.897	0.127	0.011
-383.975	267.783	0.138	-0.244
-382.960	-79.595	-0.031	0.011
-381.946	-46.351	-0.190	-0.094
-380.931	-3.863	0.067	-0.047
-379.917	154.014	0.143	0.198
-378.902	-33.380	-0.126	-0.070
-377.888	800.000	-0.036	-0.126
-376.873	-140.172	0.145	0.015
-375.858	-53.437	0.262	0.121
-374.844	-48.990	-0.058	-0.028
-373.829	130.257	0.101	-0.130
-372.815	-92.312	-0.174	0.050
-371.800	-26.419	0.009	0.005
-370.785	150.193	-0.098	0.134
-369.771	77.334	0.101	0.109
-368.756	-38.719	-0.156	0.083
-367.742	349.615	0.134	-0.266
-366.727	-17.686	-0.099	-0.063
-365.712	273.559	-0.138	0.247
-364.698	-150.405	0.133	-0.010
-363.683	447.528	-0.019	0.042
-362.669	-114.580	0.097	0.019
-361.654	169.041	0.080	0.116
-360.639	-167.306	0.141	-0.006
-359.625	85.663	0.170	0.188
-358.610	353.280	0.110	0.221
-357.596	778.268	-0.114	-0.314
-356.581	72.602	-0.262	-0.276
-355.566	-126.501	-0.110	-0.017
-354.552	137.794	-0.009	-0.012
-353.537	800.000	0.079	0.252
-352.523	-24.845	-0.143	0.086
-351.508	-161.234	0.078	0.004
-350.493	-38.107	0.170	0.091
-349.479	-200.000	-0.019	-0.130
-348.464	-109.202	0.074	0.016
-347.450	-174.248	-0.241	0.007
-346.435	-111.003	-0.159	0.033
-345.420	181.098	0.166	0.246
-344.406	-120.475	-0.125	0.022
-343.391	800.000	-0.065	0.193
-342.377	-0.837	-0.196	0.140
-341.362	51.524	-0.093	0.089
-340.348	-200.000	0.021	0.110
-339.333	-117.354	-0.193	0.035
-338.318	44.986	-0.054	-0.050
-337.304	2.823	0.125	-0.091
-336.289	-200.000	-0.033	-0.366
-335.275	147.323	-0.190	0.258
-334.260	-72.297	0.055	0.020
-333.245	800.000	0.088	-0.274
-332.231	151.180	-0.187	-0.256
-331.216	-190.357	0.046	-0.001
-330.202	800.000	0.129	0.434
-329.187	130.881	-0.158	-0.204
-328.172	800.000	-0.113	-0.428
-327.158	-81.546	0.219	-0.073
-326.143	97.304	0.233	-0.270
-325.129	-200.000	-0.012	0.077
-324.114	74.715	-0.127	-0.135
-323.099	-200.000	-0.002	0.084
-322.085	322.060	0.091	-0.175
-321.070	-200.000	-0.012	-0.056
-320.056	-103.660	-0.076	-0.018
-319.041	27.906	0.087	0.074
-318.026	-200.000	0.033	-0.261
-317.012	-200.000	-0.058	0.551
-315.997	203.094	-0.139	-0.217
-314.983	316.130	-0.090	0.171
-313.968	-200.000	0.018	0.104
-312.953	-117.499	-0.130	-0.024
-311.939	800.000	0.128	-0.387
-310.924	-39.825	-0.231	0.122
-309.910	80.408	-0.107	-0.116
-308.895	-200.000	0.001	-0.277
-307.880	-200.000	-0.022	0.136
-306.866	800.000	-0.119	-0.430
-305.851	347.775	-0.144	0.285
-304.837	800.000	0.043	-0.146
-303.822	-46.994	0.083	-0.041
-302.807	-168.205	0.282	-0.011
-301.793	130.150	0.116	0.150
-300.778	112.326	0.147	0.179
-299.764	-127.759	0.290	0.042
-298.749	89.214	-0.028	-0.031
-297.735	800.000	0.102	0.362
-296.720	-21.782	0.477	0.292
-295.705	-200.000	0.057	0.324
-294.691	144.660	0.132	0.177
-293.676	-200.000	-0.011	0.145
-292.662	-49.381	0.097	0.047
-291.647	43.842	-0.098	-0.091
-290.632	-85.966	-0.189	0.059
-289.618	-59.772	-0.300	0.129
-288.603	-94.359	-0.222	0.061
-287.589	-11.664	-0.033	0.022
-286.574	-200.000	0.045	-0.235
-285.559	35.561	-0.048	-0.043
-284.545	-136.958	-0.444	0.051
-283.530	800.000	-0.066	-0.223
-282.516	-0.928	0.459	-0.327
-281.501	-148.071	0.456	0.038
-280.486	16.705	-0.104	0.083
-279.472	-6.858	-0.212	-0.145
-278.457	500.255	-0.051	-0.117
-277.443	800.000	-0.041	-0.120
-276.428	-56.844	-0.103	0.046
-275.413	117.703	0.114	-0.142
-274.399	800.000	0.045	-0.130
-273.384	800.000	0.020	0.064
-272.370	111.483	0.088	-0.107
-271.355	-75.817	-0.201	-0.072
-270.340	19.151	0.079	0.064
-269.326	-89.453	0.369	0.109
-268.311	-92.329	-0.112	-0.032
-267.297	-200.000	0.017	-0.259
-266.282	-0.163	0.227	0.162
-265.267	-61.356	0.098	-0.041
-264.253	-169.192	0.086	0.003
-263.238	452.364	0.016	-0.035
-262.224	-88.145	-0.097	0.029
-261.209	-102.087	0.185	0.045
-260.195	-62.656	-0.330	-0.138
-259.180	210.398	-0.068	0.107
-258.165	90.897	0.276	0.311
-257.151	-144.514	-0.286	-0.027
-256.136	105.677	-0.215	-0.255
-255.122	89.883	0.048	-0.054
-254.107	97.064	-0.149	-0.172
-253.092	-200.000	0.001	-0.077
-252.078	510.280	-0.006	-0.013
-251.063	42.387	0.089	-0.082
-250.049	-107.934	0.411	-0.090
-249.034	-53.701	-0.231	0.106
-248.019	161.893	0.161	0.226
-247.005	-200.000	0.006	-0.229
-245.990	-77.681	-0.313	0.109
-244.976	-140.472	-0.065	-0.007
-243.961	-40.361	-0.193	0.101
-242.946	152.846	-0.113	0.155
-241.932	-200.000	0.049	-0.275
-240.917	76.395	0.051	-0.054
-239.903	-139.971	0.175	0.019
-238.888	89.231	0.165	0.185
-237.873	177.059	0.039	-0.057
-236.859	-99.282	-0.130	-0.033
-235.844	-10.251	-0.063	0.042
-234.830	-200.000	0.000	0.086
-233.815	-200.000	-0.004	-0.098
-232.800	619.660	-0.101	0.255
-231.786	-100.810	-0.093	-0.023
-230.771	52.460	0.042	0.040
-229.757	-117.732	0.292	0.053
-228.742	512.730	-0.070	0.163
-227.727	452.808	-0.215	0.477
-226.713	88.410	-0.055	0.061
-225.698	-127.192	-0.184	-0.027
-224.684	707.078	-0.136	-0.360
-223.669	38.219	0.034	0.030
-222.655	573.072	0.074	-0.181
-221.640	5.334	0.048	-0.035
-220.625	800.000	0.033	0.143
-219.611	-200.000	-0.040	-0.248
-218.596	444.216	-0.075	0.166
-217.582	-29.638	-0.173	-0.099
-216.567	-30.057	-0.116	0.066
-215.552	-153.288	0.041	-0.003
-214.538	-98.435	-0.164	-0.042
-213.523	146.007	-0.203	-0.273
-212.509	800.000	0.047	0.132
-211.494	-4.061	0.092	0.064
-210.479	365.746	0.114	0.230
-209.465	-200.000	-0.011	-0.066
-208.450	-135.115	0.038	-0.005
-207.436	83.825	-0.095	0.104
-206.421	-143.479	0.566	0.054
-205.406	-49.270	-0.059	-0.028
-204.392	-200.000	0.047	0.258
-203.377	-178.136	0.054	0.001
-202.363	-151.213	0.154	0.012
-201.348	800.000	0.088	-0.276
-200.333	-130.012	-0.489	0.067
-199.319	-38.100	-0.275	-0.146
-198.304	34.869	-0.078	-0.069
-197.290	-177.090	-0.252	0.006
-196.275	450.420	-0.139	0.308
-195.260	75.727	-0.111	-0.118
-194.246	-200.000	0.040	0.322
-193.231	-82.171	0.116	-0.038
-192.217	193.496	0.115	-0.175
-191.202	-200.000	0.042	0.469
-190.187	107.612	-0.086	0.103
-189.173	-123.605	-0.207	0.033
-188.158	169.460	0.123	-0.176
-187.144	0.158	-0.200	-0.143
-186.129	-36.013	0.058	-0.032
-185.114	-57.398	-0.324	-0.143
-184.100	-12.457	0.224	-0.147
-183.085	-200.000	0.191	0.000
-182.071	222.058	-0.029	0.047
-181.056	-200.000	-0.039	0.279
-180.042	14.194	0.194	0.152
-179.027	116.332	0.285	-0.350
-178.012	-110.789	0.231	-0.048
-176.998	-105.396	-0.076	-0.017
-175.983	-10.756	-0.083	-0.055
-174.969	-35.817	0.304	-0.165
-173.954	-106.989	-0.485	0.107
-172.939	-156.325	0.115	0.007
-171.925	-60.575	-0.164	0.070
-170.910	800.000	0.026	0.115
-169.896	800.000	-0.035	-0.120
-168.881	-33.776	0.130	0.072
-167.866	694.845	0.077	-0.201
-166.852	94.323	-0.052	0.059
-165.837	-133.804	0.356	-0.044
-164.823	2.353	0.241	-0.175
-163.808	-200.000	-0.021	0.369
-162.793	462.477	0.069	-0.154
-161.779	-11.537	0.329	0.217
-160.764	800.000	0.080	-0.224
-159.750	530.420	-0.028	-0.067
-158.735	-64.979	-0.083	-0.034
-157.720	-135.254	0.181	0.022
-156.706	147.776	-0.055	-0.075
-155.691	-200.000	-0.027	-0.120
-154.677	-86.247	-0.408	0.126
-153.662	-97.389	0.147	0.038
-152.647	36.660	0.169	-0.149
-151.633	-119.653	0.343	0.059
-150.618	-200.000	0.036	-0.175
-149.604	122.805	-0.265	0.332
-148.589	346.240	-0.053	0.105
-147.574	-9.302	-0.153	-0.102
-146.560	246.879	0.108	0.182
-145.545	-89.951	0.226	-0.066
-144.531	-200.000	0.058	0.392
-143.516	15.898	-0.152	0.120
-142.502	89.200	0.139	-0.155
-141.487	-200.000	0.031	-0.223
-140.472	-200.000	0.045	0.389
-139.458	223.832	0.090	0.146
-138.443	-57.910	-0.284	-0.124
-137.429	20.163	-0.102	-0.083
-136.414	800.000	0.101	-0.283
-135.399	155.794	-0.122	-0.168
-134.385	537.555	0.088	0.210
-133.370	352.463	-0.205	0.408
-132.356	720.383	-0.115	-0.307
-131.341	21.692	0.153	-0.124
-130.326	649.581	-0.046	0.118
-129.312	-67.679	0.156	0.061
-128.297	178.466	0.056	0.082
-127.283	-200.000	0.021	-0.097
-126.268	-200.000	0.044	0.227
-125.253	-125.723	0.135	-0.020
-124.239	-59.229	0.136	0.059
-123.224	244.035	-0.028	0.046
-122.210	-47.649	-0.238	-0.116
-121.195	50.849	-0.177	0.168
-120.180	-150.457	0.188	0.014
-119.166	-76.308	-0.058	-0.020
-118.151	290.534	-0.019	0.034
-117.137	-164.316	-0.020	0.001
-116.122	-200.000	0.013	-0.231
-115.107	-111.420	0.526	0.107
-114.093	234.091	-0.014	0.023
-113.078	-92.016	-0.229	0.065
-112.064	-103.730	0.126	0.029
-111.049	-68.203	-0.108	0.042
-110.034	-1.013	-0.137	-0.097
-109.020	53.038	0.265	0.253
-108.005	41.422	-0.116	0.105
-106.991	-185.535	0.447	-0.007
-105.976	592.663	-0.106	0.263
-104.962	324.726	-0.109	0.208
-103.947	-162.527	-0.143	0.007
-102.932	-66.212	0.197	0.078
-101.918	-19.138	-0.231	-0.144
-100.903	-200.000	-0.017	0.207
-99.889	-108.476	0.199	-0.043
-98.874	-43.664	0.189	-0.095
-97.859	-22.030	-0.353	0.215
-96.845	514.362	-0.017	-0.039
-95.830	-200.000	-0.015	-0.122
-94.816	-200.000	-0.037	-0.196
-93.801	-200.000	0.014	0.109
-92.786	-160.232	-0.340	-0.018
-91.772	15.335	0.155	-0.121
-90.757	800.000	-0.078	-0.265
-89.743	143.381	-0.144	-0.191
-88.728	-110.794	0.180	-0.037
-87.713	28.109	0.129	0.109
-86.699	85.183	0.173	-0.190
-85.684	414.028	0.023	-0.049
-84.670	115.149	0.226	0.275
-83.655	-200.000	-0.018	0.266
-82.640	776.452	0.036	0.098
-81.626	-128.505	-0.072	0.010
-80.611	-87.233	0.314	0.095
-79.597	800.000	-0.056	0.203
-78.582	-97.171	0.115	0.030
-77.567	403.576	0.162	0.341
-76.553	17.533	-0.121	0.096
-75.538	160.219	0.090	0.125
-74.524	-200.000	0.057	0.287
-73.509	-49.780	-0.032	0.015
-72.494	47.178	-0.108	0.100
-71.480	-30.176	-0.172	0.098
-70.465	800.000	0.064	0.207
-69.451	-1.808	-0.210	0.148
-68.436	-35.398	0.123	0.067
-67.422	800.000	-0.035	-0.111
-66.407	-200.000	-0.050	-0.387
-65.392	-200.000	0.005	-0.047
-64.378	-200.000	-0.013	0.109
-63.363	-174.402	-0.064	-0.002
-62.349	800.000	0.024	0.103
-61.334	16.691	-0.745	-0.588
-60.319	29.088	0.081	-0.069
-59.305	335.725	-0.266	-0.515
-58.290	145.448	0.755	1.009
-57.276	-200.000	0.345	1.553
-56.261	-200.000	73.708	538.709
-55.246	590.547	1292.918	3182.834
-54.232	146.536	2519.780	3377.621
-53.217	115.614	2342.933	2858.572
-52.203	52.961	1959.251	1870.521
-51.188	46.640	1746.472	1617.912
-50.173	43.607	1698.840	1550.515
-49.159	57.829	1731.163	1689.963
-48.144	64.152	1749.491	1756.469
-47.130	46.487	1713.753	1586.169
-46.115	43.013	1700.507	1547.226
-45.100	42.785	1695.869	1541.195
-44.086	42.899	1692.935	1539.342
-43.071	42.807	1690.690	1536.541
-42.057	42.758	1688.591	1534.198
-41.042	42.798	1686.367	1532.421
-40.027	42.787	1684.364	1530.455
-39.013	42.895	1681.873	1528.950
-37.998	42.826	1680.236	1526.875
-36.984	42.813	1679.134	1525.714
-35.969	42.970	1678.098	1525.904
-34.954	43.105	1676.234	1525.168
-33.940	43.034	1674.311	1522.824
-32.925	43.107	1671.923	1521.145
-31.911	43.048	1669.971	1518.859
-30.896	42.984	1668.666	1517.130
-29.881	43.004	1666.851	1515.574
-28.867	43.038	1665.121	1514.193
-27.852	42.940	1664.040	1512.417
-26.838	42.990	1662.097	1510.969
-25.823	43.020	1661.097	1510.223
-24.809	43.068	1659.511	1509.078
-23.794	43.019	1657.924	1507.209
-22.779	43.036	1656.825	1506.275
-21.765	43.025	1654.887	1504.370
-20.750	43.022	1653.031	1502.604
-19.736	43.072	1651.708	1501.713
-18.721	43.078	1650.089	1500.228
-17.706	43.115	1648.708	1499.187
-16.692	43.057	1646.832	1496.994
-15.677	42.982	1645.979	1495.599
-14.663	43.051	1644.030	1494.282
-13.648	43.089	1642.676	1493.270
-12.633	43.045	1641.276	1491.612
-11.619	43.063	1639.827	1490.375
-10.604	43.131	1637.604	1488.798
-9.590	43.093	1636.488	1487.443
-8.575	43.106	1635.248	1486.353
-7.560	42.939	1634.637	1484.503
-6.546	42.993	1633.546	1483.856
-5.531	43.042	1631.555	1482.350
-4.517	43.054	1630.656	1481.559
-3.502	42.956	1629.780	1479.981
-2.487	43.151	1627.479	1479.265
-1.473	43.173	1616.712	1469.586
-0.458	40.993	1597.759	1436.570
0.556	36.130	1595.032	1399.343
1.571	33.191	1618.227	1397.878
2.586	32.480	1632.392	1404.687
3.600	28.352	1579.295	1329.002
4.615	15.479	1457.439	1139.559
5.629	3.445	1380.288	1001.367
6.644	1.218	1369.488	979.077
7.659	0.975	1367.736	976.172
8.673	0.888	1366.597	974.712
9.688	0.920	1365.150	973.805
10.702	0.605	1362.221	969.604
11.717	4.542	1370.363	1000.706
12.731	15.800	1392.472	1090.066
13.746	23.931	1404.902	1152.622
14.761	24.627	1405.545	1157.560
15.775	24.679	1405.427	1157.697
16.790	24.708	1405.189	1157.586
17.804	24.814	1404.107	1157.280
18.819	24.986	1403.936	1158.149
19.834	25.030	1403.282	1157.788
20.848	25.138	1401.867	1157.215
21.863	25.027	1401.469	1156.070
22.877	25.090	1400.392	1155.487
23.892	24.988	1399.770	1154.215
24.907	25.100	1398.773	1154.007
25.921	25.016	1398.007	1152.736
26.936	25.084	1397.081	1152.304
27.950	25.043	1395.868	1150.941
28.965	25.028	1394.368	1149.506
29.980	25.185	1393.029	1149.304
30.994	25.060	1392.140	1147.674
32.009	25.250	1390.396	1147.350
33.023	25.026	1390.194	1145.645
34.038	25.096	1388.136	1144.298
35.053	25.066	1387.399	1143.396
36.067	25.074	1386.409	1142.530
37.082	25.085	1385.662	1141.883
38.096	25.126	1384.488	1141.073
39.111	25.123	1383.678	1140.286
40.126	25.036	1383.411	1139.416
41.140	25.054	1382.552	1138.717
42.155	25.116	1381.997	1138.555
43.169	25.068	1382.680	1138.714
44.184	25.164	1381.711	1138.424
45.199	25.089	1381.274	1137.486
46.213	25.023	1380.888	1136.652
47.228	25.112	1379.998	1136.381
48.242	25.091	1378.825	1135.182
49.257	25.124	1376.938	1133.735
50.271	24.995	1375.594	1131.716
51.286	24.987	1374.721	1130.848
52.301	25.038	1373.269	1129.871
53.315	25.042	1372.718	1129.342
54.330	25.114	1371.484	1128.682
55.344	25.077	1370.082	1127.194
56.359	25.111	1369.478	1126.811
57.374	25.114	1368.411	1125.854
58.388	24.982	1368.088	1124.657
59.403	24.983	1367.726	1124.267
60.417	25.035	1367.254	1124.105
61.432	25.054	1366.125	1123.199
62.447	25.022	1365.147	1122.098
63.461	25.118	1364.003	1121.656
64.476	24.968	1363.014	1119.805
65.490	25.110	1361.959	1119.730
66.505	25.062	1360.000	1117.722
67.520	25.141	1358.856	1117.170
68.534	24.984	1358.330	1115.664
69.549	25.015	1357.310	1114.922
70.563	25.055	1356.014	1114.006
71.578	25.124	1355.222	1113.683
72.593	25.222	1354.396	1113.518
73.607	25.003	1354.087	1111.801
74.622	25.090	1352.971	1111.327
75.636	25.104	1352.185	1110.673
76.651	25.091	1351.644	1110.050
77.666	25.052	1351.127	1109.282
78.680	25.064	1350.844	1109.029
79.695	25.130	1349.897	1108.560
80.709	25.129	1349.002	1107.721
81.724	25.130	1347.728	1106.583
82.739	25.090	1346.782	1105.464
83.753	25.022	1346.085	1104.372
84.768	25.049	1344.944	1103.506
85.782	25.147	1343.678	1102.968
86.797	25.157	1342.435	1101.914
87.812	25.176	1341.604	1101.254
88.826	25.113	1340.718	1100.043
89.841	25.139	1339.368	1098.992
90.855	25.133	1338.282	1097.969
91.870	25.144	1337.512	1097.310
92.884	25.134	1337.471	1097.115
93.899	25.181	1335.653	1095.815
94.914	25.108	1335.371	1095.042
95.928	25.119	1334.387	1094.203
96.943	25.012	1334.410	1093.475
97.957	25.166	1333.035	1093.189
98.972	25.115	1332.342	1092.213
99.987	25.062	1331.343	1090.971
101.001	25.157	1329.965	1090.328
102.016	25.084	1329.065	1089.049
103.030	25.198	1328.290	1089.012
104.045	25.120	1328.096	1088.280
105.060	25.115	1326.977	1087.235
106.074	25.251	1325.421	1086.689
107.089	25.247	1324.032	1085.428
108.103	25.166	1323.276	1084.226
109.118	25.256	1322.446	1083.994
110.133	25.136	1321.595	1082.473
111.147	25.230	1320.213	1081.816
112.162	25.197	1319.164	1080.662
113.176	25.185	1318.537	1079.979
114.191	25.326	1316.857	1079.352
115.206	25.149	1316.137	1077.607
116.220	25.238	1314.772	1076.928
117.235	25.218	1313.878	1075.979
118.249	25.163	1313.157	1074.965
119.264	25.153	1312.532	1074.298
120.279	25.211	1311.536	1073.734
121.293	25.229	1310.563	1072.948
122.308	25.181	1310.010	1072.116
123.322	25.183	1309.301	1071.454
124.337	25.230	1308.452	1070.945
125.352	25.305	1307.259	1070.318
126.366	25.256	1306.520	1069.329
127.381	25.308	1305.395	1068.622
128.395	25.253	1304.639	1067.583
129.410	25.272	1303.941	1067.025
130.424	25.287	1303.141	1066.368
131.439	25.356	1302.319	1066.009
132.454	25.198	1301.788	1064.545
133.468	25.215	1300.872	1063.804
134.483	25.307	1300.519	1063.962
135.497	25.205	1300.019	1062.855
136.512	25.386	1298.370	1062.487
137.527	25.197	1297.238	1060.348
138.541	25.381	1295.731	1060.111
139.556	25.292	1294.818	1058.745
140.570	25.206	1293.899	1057.392
141.585	25.265	1292.717	1056.679
142.600	25.323	1291.216	1055.700
143.614	25.271	1290.843	1054.998
144.629	25.275	1289.885	1054.142
145.643	25.214	1288.977	1052.952
146.658	25.096	1288.171	1051.504
147.673	25.241	1286.851	1051.182
148.687	25.170	1285.949	1049.940
149.702	25.122	1284.524	1048.402
150.716	25.100	1283.807	1047.597
151.731	25.147	1282.756	1046.918
152.746	25.194	1281.416	1046.007
153.760	25.255	1280.692	1045.681
154.775	25.323	1279.188	1044.757
155.789	25.356	1277.884	1043.789
156.804	25.222	1277.645	1042.723
157.819	25.200	1276.794	1041.806
158.833	25.146	1276.288	1040.992
159.848	25.234	1275.531	1040.789
160.862	25.190	1274.665	1039.738
161.877	25.333	1273.712	1039.697
162.892	25.305	1272.896	1038.777
163.906	25.363	1272.116	1038.385
164.921	25.371	1271.745	1038.034
165.935	25.398	1270.507	1037.088
166.950	25.374	1269.905	1036.366
167.964	25.305	1269.417	1035.478
168.979	25.359	1268.931	1035.302
169.994	25.436	1268.204	1035.061
171.008	25.378	1267.559	1034.109
172.023	25.410	1266.849	1033.622
173.037	25.396	1265.829	1032.615
174.052	25.418	1265.393	1032.298
175.067	25.500	1264.237	1031.732
176.081	25.333	1263.903	1030.412
177.096	25.311	1263.265	1029.673
178.110	25.336	1262.479	1029.082
179.125	25.395	1260.866	1028.015
180.140	25.368	1259.684	1026.807
181.154	25.442	1258.709	1026.343
182.169	25.275	1258.084	1024.792
183.183	25.422	1256.907	1024.578
184.198	25.415	1256.184	1023.862
185.213	25.429	1254.824	1022.743
186.227	25.370	1254.078	1021.705
187.242	25.478	1252.995	1021.348
188.256	25.451	1252.440	1020.652
189.271	25.361	1251.909	1019.616
190.286	25.415	1250.497	1018.685
191.300	25.406	1250.057	1018.185
192.315	25.379	1249.845	1017.770
193.329	25.434	1249.207	1017.471
194.344	25.482	1248.785	1017.310
195.359	25.448	1248.373	1016.689
196.373	25.444	1247.983	1016.258
197.388	25.382	1247.702	1015.592
198.402	25.348	1247.084	1014.805
199.417	25.427	1246.426	1014.629
200.432	25.449	1245.763	1014.124
201.446	25.375	1245.673	1013.541
202.461	25.412	1244.804	1012.952
203.475	25.346	1243.991	1011.827
204.490	25.410	1242.867	1011.186
205.504	25.489	1241.694	1010.585
206.519	25.510	1240.988	1010.039
207.534	25.481	1240.050	1009.026
208.548	25.532	1238.986	1008.355
209.563	25.507	1238.374	1007.629
210.577	25.543	1237.291	1006.858
211.592	25.585	1236.463	1006.331
212.607	25.653	1235.629	1005.942
213.621	25.538	1235.044	1004.738
214.636	25.573	1234.134	1004.101
215.650	25.612	1233.084	1003.375
216.665	25.447	1232.587	1001.963
217.680	25.452	1231.731	1001.209
218.694	25.630	1230.369	1001.003
219.709	25.571	1230.190	1000.441
220.723	25.635	1229.687	1000.296
221.738	25.594	1228.525	999.036
222.753	25.479	1227.835	997.747
223.767	25.573	1227.360	997.796
224.782	25.631	1227.082	997.802
225.796	25.559	1226.467	996.817
226.811	25.693	1225.203	996.442
227.826	25.696	1225.156	996.334
228.840	25.610	1224.325	995.092
229.855	25.678	1223.734	994.901
230.869	25.671	1223.302	994.422
231.884	25.616	1222.638	993.489
232.899	25.615	1221.706	992.641
233.913	25.649	1221.024	992.183
234.928	25.719	1220.519	992.072
235.942	25.721	1219.932	991.519
236.957	25.765	1219.116	991.011
237.972	25.688	1218.366	989.888
238.986	25.836	1217.732	990.101
240.001	25.743	1217.378	989.211
241.015	25.829	1216.650	989.004
242.030	25.828	1215.700	988.143
243.045	25.844	1215.098	987.652
244.059	25.861	1214.003	986.766
245.074	25.832	1213.317	985.963
246.088	25.887	1212.423	985.452
247.103	25.891	1211.867	984.936
248.117	25.763	1211.262	983.657
249.132	25.819	1210.166	982.987
250.147	25.848	1209.551	982.558
251.161	25.976	1208.811	982.564
252.176	25.947	1208.430	982.012
253.190	25.885	1207.635	980.940
254.205	25.895	1206.831	980.253
255.220	25.882	1206.530	979.854
256.234	25.965	1205.715	979.557
257.249	25.955	1205.100	978.915
258.263	25.783	1205.152	977.937
259.278	25.955	1204.372	978.152
260.293	25.998	1203.719	977.765
261.307	25.951	1203.102	976.925
262.322	26.101	1202.392	977.073
263.336	25.964	1201.666	975.658
264.351	25.889	1201.219	974.801
265.366	25.934	1200.424	974.314
266.380	25.905	1200.028	973.750
267.395	25.969	1199.279	973.401
268.409	26.062	1198.208	972.948
269.424	26.017	1197.630	972.149
270.439	25.951	1197.667	971.737
271.453	25.953	1196.697	970.872
272.468	26.008	1195.434	970.057
273.482	25.928	1195.027	969.213
274.497	26.007	1194.834	969.395
275.512	26.032	1194.164	968.901
276.526	26.044	1193.649	968.462
277.541	26.068	1192.937	967.928
278.555	25.959	1192.413	966.829
279.570	26.111	1191.349	966.696
280.585	26.064	1190.605	965.757
281.599	26.097	1189.468	964.926
282.614	26.052	1188.918	964.154
283.628	26.080	1187.867	963.364
284.643	26.109	1187.144	962.846
285.657	26.165	1186.244	962.331
286.672	26.098	1185.753	961.491
287.687	26.146	1184.482	960.628
288.701	26.220	1184.018	960.566
289.716	26.257	1183.329	960.116
290.730	26.144	1182.791	958.995
291.745	26.180	1182.410	958.792
292.760	26.237	1181.774	958.494
293.774	26.206	1181.307	957.865
294.789	26.284	1180.379	957.442
295.803	26.404	1179.439	957.230
296.818	26.212	1179.207	955.941
297.833	26.276	1178.623	955.722
298.847	26.341	1177.757	955.279
299.862	26.332	1176.775	954.347
300.876	26.202	1176.527	953.375
301.891	26.301	1176.089	953.458
302.906	26.411	1175.054	953.119
303.920	26.318	1174.646	952.212
304.935	26.331	1173.819	951.526
305.949	26.406	1173.193	951.327
306.964	26.427	1172.453	950.756
307.979	26.357	1171.838	949.803
308.993	26.398	1171.100	949.338
310.008	26.382	1170.623	948.780
311.022	26.516	1169.655	948.615
312.037	26.437	1168.935	947.534
313.052	26.395	1168.066	946.526
314.066	26.363	1167.373	945.714
315.081	26.430	1166.895	945.590
316.095	26.302	1166.596	944.596
317.110	26.383	1165.829	944.318
318.125	26.357	1165.139	943.537
319.139	26.434	1164.139	943.047
320.154	26.534	1163.512	942.978
321.168	26.466	1163.197	942.284
322.183	26.475	1162.471	941.657
323.197	26.539	1161.670	941.259
324.212	26.422	1161.474	940.408
325.227	26.495	1160.850	940.197
326.241	26.559	1160.489	940.158
327.256	26.634	1159.543	939.697
328.270	26.404	1159.012	937.990
329.285	26.493	1157.953	937.511
330.300	26.671	1156.870	937.471
331.314	26.487	1156.369	936.032
332.329	26.538	1155.590	935.580
333.343	26.787	1154.312	935.750
334.358	26.672	1153.676	934.557
335.373	26.671	1152.972	933.897
336.387	26.725	1152.523	933.733
337.402	26.711	1151.594	932.826
338.416	26.607	1151.276	931.947
339.431	26.704	1150.447	931.694
340.446	26.693	1150.292	931.430
341.460	26.718	1149.565	930.886
342.475	26.712	1148.994	930.312
343.489	26.773	1147.556	929.380
344.504	26.693	1146.744	928.230
345.519	26.827	1145.766	928.039
346.533	26.894	1144.896	927.594
347.548	26.802	1144.476	926.703
348.562	26.856	1143.967	926.486
349.577	26.796	1143.029	925.336
350.592	26.770	1142.529	924.719
351.606	26.748	1141.822	923.952
352.621	26.839	1141.140	923.781
353.635	26.821	1140.963	923.464
354.650	26.782	1140.089	922.478
355.665	26.870	1139.260	922.173
356.679	26.890	1138.562	921.629
357.694	26.776	1138.592	920.991
358.708	26.883	1137.634	920.677
359.723	26.857	1136.743	919.743
360.738	26.899	1136.130	919.381
361.752	26.834	1135.667	918.595
362.767	26.827	1135.251	918.139
363.781	27.071	1134.590	918.760
364.796	26.918	1133.782	917.250
365.810	26.969	1133.073	916.852
366.825	26.993	1132.843	916.705
367.840	26.996	1132.485	916.349
368.854	27.050	1131.599	915.825
369.869	27.060	1130.596	914.982
370.883	27.042	1130.048	914.367
371.898	27.104	1129.431	914.101
372.913	27.090	1128.690	913.350
373.927	26.998	1128.510	912.660
374.942	27.097	1127.973	912.643
375.956	27.077	1127.511	912.089
376.971	27.081	1126.636	911.317
377.986	27.107	1126.069	910.911
379.000	27.121	1126.029	910.868
380.015	27.076	1125.359	910.017
381.029	27.153	1124.201	909.387
382.044	27.174	1124.014	909.260
383.059	27.197	1123.292	908.711
384.073	27.163	1122.403	907.740
385.088	27.176	1121.481	906.981
386.102	27.201	1120.866	906.527
387.117	27.144	1120.203	905.626
388.132	27.216	1119.284	905.162
389.146	27.138	1118.383	903.965
390.161	27.223	1117.547	903.631
391.175	27.176	1117.263	903.088
392.190	27.271	1116.492	902.860
393.205	27.276	1115.945	902.360
394.219	27.293	1115.057	901.647
395.234	27.353	1114.297	901.250
396.248	27.399	1113.354	900.636
397.263	27.333	1112.578	899.600
398.278	27.316	1112.155	899.097
399.292	27.336	1111.624	898.688
400.307	27.320	1111.087	898.094
401.321	27.398	1110.133	897.626
402.336	27.436	1109.724	897.406
403.350	27.366	1108.977	896.378
404.365	27.403	1108.036	895.718
405.380	27.439	1107.258	895.186
406.394	27.499	1106.908	895.118
407.409	27.515	1106.036	894.414
408.423	27.472	1105.656	893.817
409.438	27.628	1104.316	893.419
410.453	27.511	1103.654	892.232
411.467	27.573	1103.328	892.189
412.482	27.461	1102.497	890.894
413.496	27.507	1101.894	890.550
414.511	27.653	1101.209	890.631
415.526	27.545	1100.916	889.787
416.540	27.665	1100.468	889.935
417.555	27.661	1099.982	889.440
418.569	27.592	1099.464	888.610
419.584	27.607	1099.101	888.308
420.599	27.688	1098.596	888.217
421.613	80.366	1286.187	1329.510
422.628	75.191	1313.541	1329.646
