DTS Sentinel unit serial number:	SN413079Multiplexer serial number:	ORYXHardware model number:	OX4-SRSoftware version number:	ORYX F/W v4.00 Oryx Data Collector v3.7.2.0data status	okinstallation	princeton_trtdifferential loss correction	single-endedforward channel	channel 2reverse channel	N/Adate	2019/09/13time	18:35:35forward acquisition time	60.00reverse acquisition time	0.00gamma	496.2192k internal	0.2322k external	0.2322temperature offset calibration	1.0190default loss term (dB/km)	0.3790temperature slope calibration	1.0000multiplexer offset coefficient	1.0000multiplexer slope coefficient	1.0000fibre end	0.00T internal ref (°C)	33.12T ext. ref 1 (°C)	4.22T ext. ref 2 (°C)	26.16length (m)	temperature (°C)	Stokes	anti-Stokes-747.200	-47.691	0.058	0.029
-746.185	144.573	-0.089	0.120
-745.171	677.644	0.016	-0.041
-744.156	14.519	-0.206	0.162
-743.142	-79.119	0.352	0.121
-742.127	166.272	-0.048	0.069
-741.112	665.120	-0.061	-0.158
-740.098	-200.000	-0.010	-0.221
-739.083	-127.231	0.183	0.027
-738.069	-109.323	-0.258	0.055
-737.054	334.887	-0.202	-0.395
-736.039	-83.511	-0.395	-0.128
-735.025	-200.000	0.059	-0.417
-734.010	55.007	0.116	0.113
-732.996	402.707	0.029	-0.063
-731.981	124.528	-0.019	-0.024
-730.966	16.810	-0.081	0.065
-729.952	800.000	0.077	-0.229
-728.937	-69.154	-0.083	0.032
-727.923	266.643	0.160	-0.282
-726.908	-60.802	-0.047	-0.020
-725.894	15.568	-0.217	0.172
-724.879	8.643	-0.107	-0.081
-723.864	-31.064	-0.166	-0.095
-722.850	488.786	0.117	0.270
-721.835	285.102	0.111	-0.202
-720.821	414.975	-0.097	-0.209
-719.806	39.536	0.172	-0.155
-718.791	-133.363	-0.155	-0.020
-717.777	-200.000	0.001	-0.078
-716.762	800.000	0.048	0.154
-715.748	-200.000	0.005	0.102
-714.733	729.627	-0.093	0.250
-713.718	-29.658	-0.307	-0.177
-712.704	800.000	0.050	0.209
-711.689	800.000	0.032	-0.131
-710.675	32.650	0.107	0.094
-709.660	800.000	0.030	0.121
-708.645	-147.380	-0.421	0.036
-707.631	-70.448	0.061	-0.023
-706.616	33.671	0.038	0.033
-705.602	148.264	0.215	0.293
-704.587	795.800	-0.062	-0.171
-703.572	800.000	-0.074	-0.258
-702.558	-200.000	0.080	0.358
-701.543	123.715	0.063	-0.080
-700.529	655.413	-0.031	-0.081
-699.514	73.451	-0.136	0.144
-698.499	289.911	-0.027	-0.049
-697.485	302.116	-0.050	0.094
-696.470	31.996	-0.279	-0.243
-695.456	-200.000	0.030	0.244
-694.441	-200.000	0.048	0.346
-693.426	25.936	-0.360	0.303
-692.412	-94.172	-0.325	0.090
-691.397	463.011	0.183	-0.411
-690.383	9.147	-0.217	-0.165
-689.368	800.000	-0.054	0.222
-688.354	86.363	0.118	-0.131
-687.339	93.793	-0.108	-0.124
-686.324	192.585	0.197	-0.300
-685.310	-200.000	0.028	-0.265
-684.295	237.854	-0.172	0.287
-683.281	-200.000	-0.023	0.243
-682.266	-143.285	-0.171	-0.017
-681.251	-72.374	-0.095	-0.035
-680.237	74.583	0.099	-0.105
-679.222	191.587	0.177	-0.269
-678.208	-67.092	-0.135	-0.054
-677.193	-146.528	-0.383	-0.034
-676.178	99.296	0.294	0.343
-675.164	303.065	-0.031	-0.058
-674.149	101.893	0.100	-0.117
-673.135	107.699	-0.181	-0.218
-672.120	313.427	-0.095	0.181
-671.105	800.000	-0.090	-0.300
-670.091	-119.987	-0.411	0.071
-669.076	-157.754	-0.082	-0.005
-668.062	-110.341	-0.058	-0.012
-667.047	-200.000	0.044	0.347
-666.032	-97.870	-0.160	-0.042
-665.018	-69.825	-0.021	-0.008
-664.003	-200.000	-0.066	-0.368
-662.989	-27.656	-0.107	0.063
-661.974	-200.000	0.013	0.132
-660.959	-111.701	-0.379	-0.077
-659.945	185.431	-0.109	0.164
-658.930	42.606	0.177	-0.162
-657.916	-90.299	-0.151	-0.044
-656.901	345.369	0.199	-0.394
-655.886	-72.159	-0.193	0.072
-654.872	29.996	-0.240	-0.206
-653.857	-0.673	0.217	0.155
-652.843	-63.202	0.240	0.100
-651.828	-61.971	-0.108	0.046
-650.814	329.057	0.094	0.183
-649.799	-200.000	-0.014	0.087
-648.784	383.356	-0.057	-0.117
-647.770	-84.695	0.253	-0.080
-646.755	-200.000	-0.007	-0.242
-645.741	-22.332	-0.211	-0.129
-644.726	98.217	0.377	0.437
-643.711	394.958	-0.223	-0.468
-642.697	-200.000	0.032	-0.339
-641.682	-58.946	-0.472	-0.205
-640.668	50.895	0.112	0.107
-639.653	-98.188	0.134	0.035
-638.638	800.000	-0.007	-0.030
-637.624	-134.745	0.140	-0.017
-636.609	-200.000	-0.043	-0.241
-635.595	764.659	-0.077	-0.210
-634.580	800.000	0.032	-0.136
-633.565	571.699	0.133	-0.326
-632.551	386.677	-0.061	-0.127
-631.536	343.618	0.166	0.327
-630.522	404.179	-0.064	0.136
-629.507	340.159	-0.066	0.129
-628.492	-200.000	-0.086	-0.385
-627.478	405.853	0.053	-0.112
-626.463	35.924	0.143	-0.127
-625.449	-91.106	0.206	-0.059
-624.434	452.037	-0.089	0.197
-623.419	-200.000	0.011	0.393
-622.405	-200.000	0.030	0.354
-621.390	-200.000	0.040	-0.328
-620.376	-96.369	0.142	-0.038
-619.361	-200.000	0.006	-0.283
-618.346	-89.109	-0.129	-0.038
-617.332	-200.000	-0.015	-0.176
-616.317	246.650	-0.097	0.164
-615.303	118.383	0.050	0.062
-614.288	147.299	0.095	-0.128
-613.273	-152.310	-0.431	-0.031
-612.259	-100.365	-0.261	-0.065
-611.244	-54.787	0.108	-0.049
-610.230	-8.633	-0.216	0.146
-609.215	44.906	-0.038	0.035
-608.201	-120.065	-0.306	-0.053
-607.186	800.000	-0.125	-0.447
-606.171	-75.258	-0.096	0.034
-605.157	203.817	-0.091	-0.142
-604.142	-105.090	-0.348	0.080
-603.128	212.873	0.174	0.276
-602.113	31.177	-0.106	0.092
-601.098	-1.289	-0.210	-0.149
-600.084	-121.728	0.217	-0.036
-599.069	-161.756	-0.225	0.011
-598.055	52.088	0.178	-0.171
-597.040	276.817	-0.115	0.205
-596.025	-50.108	-0.110	-0.053
-595.011	272.985	0.144	0.255
-593.996	-189.755	-0.245	-0.003
-592.982	-133.137	-0.254	0.032
-591.967	467.260	-0.101	0.226
-590.952	-36.128	-0.050	-0.027
-589.938	128.684	0.093	-0.119
-588.923	17.125	0.098	0.078
-587.909	-147.142	-0.199	0.017
-586.894	-125.162	-0.159	-0.024
-585.879	-98.461	0.215	0.055
-584.865	-49.423	-0.159	-0.076
-583.850	800.000	-0.105	-0.377
-582.836	-123.724	-0.083	-0.013
-581.821	190.038	0.057	-0.086
-580.806	125.528	-0.078	-0.099
-579.792	-126.054	0.224	0.034
-578.777	-79.178	0.268	0.091
-577.763	-150.512	-0.153	0.012
-576.748	193.714	-0.117	-0.178
-575.733	-94.305	-0.359	0.098
-574.719	-107.462	0.344	0.076
-573.704	-34.730	-0.193	-0.106
-572.690	737.862	0.035	0.095
-571.675	-200.000	-0.000	-0.150
-570.661	-200.000	-0.009	0.131
-569.646	-150.019	0.257	0.020
-568.631	169.906	0.151	0.217
-567.617	111.196	0.143	0.173
-566.602	435.317	0.123	0.269
-565.588	-200.000	0.016	-0.209
-564.573	-5.992	-0.148	0.101
-563.558	483.884	0.124	-0.283
-562.544	91.785	0.114	-0.129
-561.529	150.903	0.063	-0.086
-560.515	-139.115	0.421	-0.046
-559.500	-200.000	0.025	-0.183
-558.485	96.981	0.099	-0.114
-557.471	256.604	0.023	0.039
-556.456	101.314	0.176	0.205
-555.442	-8.795	0.113	-0.076
-554.427	800.000	-0.018	-0.077
-553.412	-83.216	-0.140	-0.045
-552.398	175.650	-0.048	-0.069
-551.383	97.887	0.143	-0.165
-550.369	-167.049	-0.492	0.020
-549.354	272.731	-0.165	0.292
-548.339	-124.846	-0.102	0.016
-547.325	64.735	-0.118	0.119
-546.310	800.000	-0.025	0.078
-545.296	-200.000	-0.012	-0.141
-544.281	-200.000	0.019	-0.096
-543.266	-29.451	-0.352	0.202
-542.252	-111.299	-0.266	-0.054
-541.237	-6.871	-0.157	0.107
-540.223	38.620	0.149	-0.133
-539.208	800.000	-0.055	-0.236
-538.193	800.000	-0.107	-0.323
-537.179	-131.062	-0.236	-0.031
-536.164	259.179	-0.114	0.198
-535.150	-200.000	0.035	0.161
-534.135	-65.132	-0.114	0.046
-533.121	8.383	-0.033	-0.025
-532.106	-80.775	-0.261	0.087
-531.091	423.215	-0.120	-0.257
-530.077	800.000	-0.062	-0.209
-529.062	-137.069	0.380	-0.044
-528.048	-163.673	-0.118	-0.006
-527.033	-114.285	-0.179	-0.035
-526.018	-118.241	-0.040	-0.007
-525.004	81.691	0.079	-0.086
-523.989	-19.083	-0.203	-0.127
-522.975	319.571	0.170	-0.323
-521.960	717.711	0.055	-0.145
-520.945	78.154	0.267	-0.285
-519.931	9.572	-0.400	0.304
-518.916	-63.869	-0.326	0.134
-517.902	-121.032	0.220	0.037
-516.887	-65.767	0.274	0.110
-515.872	-81.049	-0.151	-0.050
-514.858	-49.726	0.225	-0.107
-513.843	417.422	0.155	-0.331
-512.829	-80.768	0.330	-0.110
-511.814	276.002	-0.042	0.075
-510.799	-39.671	0.162	0.085
-509.785	46.340	-0.133	0.123
-508.770	104.929	-0.173	-0.205
-507.756	401.747	0.083	0.174
-506.741	-0.183	-0.226	0.161
-505.726	145.304	0.180	0.241
-504.712	-200.000	0.030	0.211
-503.697	800.000	0.065	-0.189
-502.683	-197.219	-0.282	0.002
-501.668	-56.417	-0.042	0.019
-500.653	800.000	0.017	-0.061
-499.639	45.211	-0.300	-0.276
-498.624	219.761	0.114	0.183
-497.610	-52.350	0.159	-0.074
-496.595	-10.524	0.103	0.068
-495.581	-176.011	-0.238	0.006
-494.566	690.267	-0.121	-0.317
-493.551	6.404	-0.063	0.047
-492.537	112.536	0.165	-0.200
-491.522	429.650	-0.093	-0.201
-490.508	-112.699	0.162	0.032
-489.493	162.939	-0.107	0.150
-488.478	-42.248	0.228	0.116
-487.464	-200.000	0.024	0.197
-486.449	40.188	-0.150	0.135
-485.435	-114.174	0.236	0.046
-484.420	-44.246	0.247	0.124
-483.405	612.704	-0.061	0.152
-482.391	-113.667	-0.126	0.025
-481.376	800.000	0.081	0.350
-480.362	229.417	-0.013	0.022
-479.347	37.210	0.014	-0.013
-478.332	-152.785	-0.289	0.021
-477.318	-200.000	0.023	-0.124
-476.303	600.452	-0.092	-0.228
-475.289	567.538	-0.103	-0.251
-474.274	-55.072	-0.185	-0.083
-473.259	-120.040	0.188	0.032
-472.245	211.125	0.203	-0.319
-471.230	345.445	0.019	0.037
-470.216	273.217	-0.155	0.275
-469.201	117.213	-0.111	-0.137
-468.186	-65.998	-0.108	-0.043
-467.172	-200.000	-0.022	-0.098
-466.157	-56.769	-0.228	-0.101
-465.143	30.833	-0.050	-0.043
-464.128	145.623	-0.111	0.149
-463.113	-2.357	-0.198	0.139
-462.099	-109.500	0.165	-0.035
-461.084	19.092	0.076	0.061
-460.070	742.594	0.080	-0.214
-459.055	-179.127	0.323	-0.007
-458.040	-154.896	-0.620	-0.041
-457.026	-97.251	-0.192	0.050
-456.011	136.258	0.077	-0.101
-454.997	291.166	-0.082	0.148
-453.982	25.942	0.226	0.188
-452.968	112.198	0.320	0.387
-451.953	-85.355	-0.289	0.090
-450.938	83.414	0.153	0.166
-449.924	-24.886	-0.167	-0.099
-448.909	101.632	0.203	0.236
-447.895	-122.594	0.198	0.032
-446.880	-200.000	-0.004	0.091
-445.865	124.920	0.283	0.356
-444.851	66.574	0.201	-0.204
-443.836	800.000	0.029	-0.115
-442.822	-83.875	0.441	0.140
-441.807	-7.229	-0.036	0.024
-440.792	800.000	0.065	-0.181
-439.778	-41.375	0.118	-0.061
-438.763	-200.000	-0.016	0.108
-437.749	-119.087	-0.064	0.011
-436.734	532.050	-0.109	-0.258
-435.719	-200.000	0.015	-0.102
-434.705	532.593	0.083	0.197
-433.690	-124.841	0.120	0.018
-432.676	40.077	-0.094	0.084
-431.661	-76.778	0.131	-0.046
-430.646	2.295	0.136	0.098
-429.632	223.227	0.261	0.420
-428.617	465.021	0.155	0.347
-427.603	452.161	-0.109	0.240
-426.588	-151.430	-0.610	-0.045
-425.573	122.678	0.072	0.090
-424.559	131.759	0.064	0.082
-423.544	212.883	-0.133	0.210
-422.530	-113.493	-0.357	0.070
-421.515	-200.000	-0.007	-0.222
-420.500	12.134	-0.219	0.168
-419.486	-2.098	-0.191	0.134
-418.471	4.850	0.215	-0.157
-417.457	705.175	-0.194	-0.511
-416.442	-200.000	-0.018	-0.249
-415.428	-114.188	-0.265	-0.051
-414.413	-200.000	-0.026	-0.213
-413.398	-9.086	-0.130	-0.087
-412.384	191.956	-0.095	-0.142
-411.369	519.574	0.086	0.202
-410.355	-4.481	-0.180	-0.124
-409.340	800.000	-0.111	-0.393
-408.325	-82.970	-0.292	0.094
-407.311	-33.086	-0.205	0.113
-406.296	-200.000	-0.020	0.097
-405.282	-42.986	0.147	-0.074
-404.267	-66.811	0.085	-0.034
-403.252	800.000	0.006	-0.019
-402.238	-7.320	-0.183	-0.124
-401.223	13.570	-0.252	-0.195
-400.209	25.279	0.255	0.211
-399.194	143.733	-0.094	0.124
-398.179	-48.914	-0.301	-0.144
-397.165	27.380	-0.165	0.138
-396.150	140.206	-0.072	0.094
-395.136	258.723	-0.119	-0.204
-394.121	-200.000	0.007	0.187
-393.106	223.510	0.243	0.391
-392.092	-97.527	-0.385	-0.100
-391.077	113.753	0.241	0.292
-390.063	104.612	0.231	-0.271
-389.048	-200.000	0.014	-0.306
-388.033	187.350	-0.020	0.029
-387.019	219.252	0.142	0.226
-386.004	241.683	0.061	-0.102
-384.990	85.372	0.196	-0.214
-383.975	78.161	0.108	0.115
-382.960	-200.000	-0.041	-0.200
-381.946	5.528	-0.176	-0.130
-380.931	161.749	-0.086	0.120
-379.917	180.538	-0.085	-0.124
-378.902	800.000	-0.069	0.192
-377.888	-55.141	-0.209	0.093
-376.873	487.679	0.191	0.435
-375.858	-24.734	0.107	-0.063
-374.844	19.989	0.051	-0.041
-373.829	20.750	0.082	-0.066
-372.815	283.966	0.117	-0.209
-371.800	88.635	-0.090	-0.100
-370.785	-200.000	0.010	0.050
-369.771	209.673	0.113	-0.176
-368.756	-99.740	-0.361	-0.090
-367.742	-43.770	0.267	0.134
-366.727	-48.739	0.385	0.184
-365.712	772.143	0.021	-0.056
-364.698	237.230	-0.137	-0.227
-363.683	-61.800	0.197	-0.082
-362.669	164.526	-0.156	-0.219
-361.654	32.231	0.132	-0.113
-360.639	640.675	-0.094	0.237
-359.625	331.673	0.053	-0.101
-358.610	-45.794	0.263	-0.129
-357.596	51.815	-0.073	0.069
-356.581	-135.672	-0.070	-0.008
-355.566	38.557	0.054	0.048
-354.552	-200.000	0.039	0.330
-353.537	-61.336	-0.088	-0.037
-352.523	-200.000	0.044	-0.203
-351.508	-21.323	0.090	-0.055
-350.493	-76.069	0.225	-0.079
-349.479	-200.000	0.044	0.250
-348.464	-51.486	0.293	-0.136
-347.450	418.524	0.118	-0.252
-346.435	-160.826	0.065	-0.003
-345.420	-164.767	-0.201	-0.009
-344.406	298.642	-0.061	0.111
-343.391	800.000	-0.107	-0.337
-342.377	3.075	-0.236	-0.171
-341.362	122.770	-0.209	-0.260
-340.348	-200.000	-0.021	0.096
-339.333	-90.768	-0.228	-0.065
-338.318	119.910	0.055	-0.067
-337.304	648.775	-0.081	-0.206
-336.289	427.345	-0.056	-0.121
-335.275	-200.000	-0.048	-0.311
-334.260	-79.373	0.240	-0.081
-333.245	-78.853	0.182	-0.062
-332.231	-137.180	0.312	-0.035
-331.216	230.118	-0.179	-0.291
-330.202	361.333	0.128	0.255
-329.187	-200.000	0.049	0.383
-328.172	-14.825	0.099	-0.063
-327.158	-200.000	-0.021	0.144
-326.143	-20.188	-0.279	0.171
-325.129	-189.010	0.104	0.001
-324.114	-94.938	0.388	-0.104
-323.099	-138.270	-0.102	-0.011
-322.085	800.000	-0.028	-0.103
-321.070	-71.675	0.222	0.082
-320.056	737.177	-0.076	-0.204
-319.041	800.000	-0.074	-0.216
-318.026	180.666	-0.146	-0.213
-317.012	800.000	0.097	0.343
-315.997	-123.844	0.254	-0.040
-314.983	252.478	0.083	0.141
-313.968	-72.116	0.103	-0.038
-312.953	-117.033	0.328	-0.059
-311.939	-200.000	-0.041	0.259
-310.924	168.924	0.155	-0.219
-309.910	-200.000	0.002	-0.241
-308.895	-200.000	0.041	0.266
-307.880	275.516	0.250	0.440
-306.866	393.342	0.098	0.203
-305.851	-3.789	-0.271	-0.187
-304.837	-200.000	0.033	0.168
-303.822	11.662	-0.248	0.189
-302.807	190.721	0.121	-0.181
-301.793	-189.251	0.140	0.002
-300.778	-22.312	0.218	0.131
-299.764	50.751	-0.181	0.170
-298.749	68.144	0.178	0.181
-297.735	-134.264	-0.380	-0.046
-296.720	-5.459	0.189	-0.129
-295.705	-200.000	0.042	0.218
-294.691	-12.274	0.100	-0.065
-293.676	-1.644	0.196	0.137
-292.662	130.938	0.045	0.057
-291.647	800.000	0.134	0.413
-290.632	-200.000	0.064	0.544
-289.618	-23.095	0.098	0.059
-288.603	-18.477	0.204	-0.126
-287.589	800.000	-0.023	-0.088
-286.574	88.829	0.105	0.116
-285.559	-87.581	0.027	-0.008
-284.545	-80.239	-0.322	0.107
-283.530	396.484	-0.107	0.222
-282.516	45.435	-0.019	-0.018
-281.501	800.000	-0.028	0.117
-280.486	95.360	0.076	0.086
-279.472	345.464	-0.125	0.244
-278.457	195.957	0.088	0.132
-277.443	800.000	0.048	0.158
-276.428	-91.576	-0.393	-0.111
-275.413	-200.000	-0.022	-0.384
-274.399	-113.447	-0.205	0.040
-273.384	160.306	0.164	-0.227
-272.370	-164.177	-0.145	-0.007
-271.355	250.298	0.155	-0.261
-270.340	-108.126	-0.249	-0.053
-269.326	-100.267	0.075	-0.019
-268.311	278.879	0.055	-0.097
-267.297	17.418	0.071	0.056
-266.282	-200.000	-0.020	0.163
-265.267	-83.189	0.271	-0.086
-264.253	-77.458	0.097	-0.034
-263.238	24.023	-0.259	0.212
-262.224	-177.053	0.313	0.008
-261.209	800.000	-0.062	0.251
-260.195	-21.020	0.112	-0.068
-259.180	-7.348	-0.164	0.110
-258.165	-104.980	-0.028	-0.006
-257.151	-91.615	-0.220	-0.062
-256.136	69.558	0.148	0.151
-255.122	-165.972	0.284	0.012
-254.107	110.620	0.101	-0.120
-253.092	-200.000	0.058	0.285
-252.078	31.418	-0.224	0.191
-251.063	800.000	0.068	0.235
-250.049	-60.576	-0.162	-0.068
-249.034	-119.633	0.264	0.045
-248.019	23.761	0.212	0.173
-247.005	195.200	0.240	-0.361
-245.990	372.859	-0.080	-0.161
-244.976	153.894	-0.099	-0.135
-243.961	-200.000	-0.034	-0.167
-242.946	-200.000	-0.003	-0.076
-241.932	132.025	0.061	0.078
-240.917	-148.118	0.076	-0.006
-239.903	800.000	0.162	0.466
-238.888	43.986	0.213	-0.194
-237.873	-39.444	0.118	-0.061
-236.859	255.052	-0.203	0.344
-235.844	-21.378	0.154	-0.093
-234.830	37.627	0.173	0.152
-233.815	204.746	0.125	-0.193
-232.800	-137.862	-0.221	0.025
-231.786	253.049	-0.064	-0.109
-230.771	-151.959	-0.134	0.010
-229.757	45.140	-0.237	0.216
-228.742	-1.253	0.141	-0.099
-227.727	-186.475	-0.111	-0.002
-226.713	-29.950	0.017	-0.010
-225.698	-200.000	-0.005	0.089
-224.684	564.134	0.118	-0.282
-223.669	-36.396	0.125	0.067
-222.655	381.046	0.017	-0.035
-221.640	60.624	0.078	0.077
-220.625	109.168	0.191	-0.227
-219.611	213.796	-0.080	-0.125
-218.596	800.000	-0.074	-0.204
-217.582	800.000	-0.148	0.540
-216.567	149.309	0.040	-0.053
-215.552	17.579	0.188	-0.148
-214.538	-130.671	-0.076	-0.010
-213.523	-200.000	0.005	0.024
-212.509	-119.514	0.178	0.031
-211.494	-32.898	-0.210	-0.116
-210.479	37.718	0.098	0.086
-209.465	-61.721	0.248	-0.103
-208.450	800.000	-0.022	0.096
-207.436	-40.196	0.121	-0.062
-206.421	701.014	-0.170	0.444
-205.406	-200.000	-0.031	-0.208
-204.392	800.000	-0.043	-0.132
-203.377	-175.008	0.299	-0.008
-202.363	-4.652	-0.265	0.181
-201.348	-82.384	0.211	0.068
-200.333	-78.980	-0.268	0.090
-199.319	36.124	-0.166	-0.144
-198.304	-200.000	-0.005	0.299
-197.290	79.173	0.084	0.089
-196.275	-0.050	0.144	-0.102
-195.260	21.915	-0.034	-0.027
-194.246	-200.000	0.001	-0.172
-193.231	-200.000	0.013	0.255
-192.217	-91.961	-0.305	-0.086
-191.202	42.568	-0.123	0.111
-190.187	60.829	0.138	0.135
-189.173	-10.046	-0.208	-0.137
-188.158	800.000	0.041	0.111
-187.144	181.967	0.111	0.162
-186.129	-200.000	0.024	0.224
-185.114	-16.608	0.179	-0.112
-184.100	-29.368	-0.015	-0.008
-183.085	-62.813	0.198	0.081
-182.071	133.477	0.133	-0.170
-181.056	35.370	-0.155	0.135
-180.042	-162.938	0.102	-0.005
-179.027	-200.000	-0.052	-0.237
-178.012	0.010	-0.124	0.087
-176.998	-4.849	0.360	-0.245
-175.983	204.598	0.150	0.230
-174.969	-176.640	0.249	0.006
-173.954	-17.946	0.265	0.164
-172.939	-200.000	0.035	0.195
-171.925	-35.098	-0.086	0.046
-170.910	-3.898	-0.149	-0.102
-169.896	-200.000	0.056	0.359
-168.881	-128.227	0.295	-0.042
-167.866	-25.366	-0.205	0.120
-166.852	-200.000	-0.327	0.000
-165.837	3.916	-0.106	-0.076
-164.823	-200.000	-0.017	-0.084
-163.808	-200.000	0.010	-0.086
-162.793	-19.403	-0.211	0.129
-161.779	362.699	0.126	-0.249
-160.764	94.621	-0.089	0.100
-159.750	-200.000	-0.071	0.376
-158.735	262.063	-0.282	0.482
-157.720	-69.072	-0.052	-0.020
-156.706	-16.744	0.248	-0.155
-155.691	3.358	0.186	-0.134
-154.677	45.092	-0.105	-0.096
-153.662	-82.528	0.115	-0.037
-152.647	-190.888	0.320	0.003
-151.633	93.224	-0.161	-0.179
-150.618	-100.305	0.286	-0.070
-149.604	42.900	0.100	-0.090
-148.589	-21.686	0.158	-0.095
-147.574	-33.995	0.250	0.136
-146.560	176.152	-0.064	-0.091
-145.545	732.958	0.084	-0.221
-144.531	-157.020	-0.306	0.018
-143.516	-51.419	0.054	0.025
-142.502	-124.120	0.245	0.038
-141.487	-62.197	-0.150	-0.062
-140.472	-74.133	0.180	-0.064
-139.458	-97.397	0.266	0.068
-138.443	-128.824	-0.119	-0.017
-137.429	57.794	-0.247	0.239
-136.414	35.809	-0.163	0.141
-135.399	161.239	-0.127	0.175
-134.385	160.209	0.183	-0.252
-133.370	-103.154	-0.549	0.128
-132.356	795.589	0.108	-0.292
-131.341	81.405	0.150	0.160
-130.326	-200.000	-0.034	0.335
-129.312	800.000	0.049	-0.194
-128.297	-163.383	0.277	-0.013
-127.283	-85.517	-0.058	0.018
-126.268	415.287	0.126	0.265
-125.253	-51.495	0.219	0.101
-124.239	12.456	0.071	-0.054
-123.224	313.882	0.073	-0.136
-122.210	-200.000	-0.050	0.233
-121.195	800.000	-0.052	0.187
-120.180	518.477	0.051	-0.118
-119.166	20.255	0.235	-0.187
-118.151	-119.191	-0.398	-0.068
-117.137	213.341	0.098	-0.153
-116.122	-105.464	-0.205	-0.046
-115.107	-79.247	0.091	-0.030
-114.093	-78.582	-0.178	0.060
-113.078	-31.547	-0.080	-0.044
-112.064	601.786	0.141	0.346
-111.049	-176.688	-0.266	0.007
-110.034	1.440	0.011	0.008
-109.020	190.218	-0.226	-0.334
-108.005	-200.000	0.031	0.345
-106.991	-200.000	0.037	-0.174
-105.976	-71.860	0.105	0.039
-104.962	439.723	0.109	0.234
-103.947	-51.536	-0.107	0.049
-102.932	684.511	-0.076	0.197
-101.918	-200.000	0.064	0.328
-100.903	321.560	0.043	0.080
-99.889	-200.000	-0.029	0.248
-98.874	275.051	0.079	-0.137
-97.859	30.146	0.135	-0.114
-96.845	800.000	0.056	0.196
-95.830	624.921	-0.092	0.227
-94.816	326.619	0.241	0.455
-93.801	-164.746	-0.222	0.010
-92.786	14.107	-0.188	0.144
-91.772	-166.145	-0.240	-0.010
-90.757	209.466	-0.058	-0.090
-89.743	644.500	-0.085	-0.213
-88.728	-200.000	0.001	-0.207
-87.713	-85.435	-0.120	0.037
-86.699	64.179	0.204	-0.202
-85.684	432.232	0.181	0.385
-84.670	-110.522	-0.079	-0.016
-83.655	-132.888	-0.358	0.045
-82.640	-16.507	-0.128	0.080
-81.626	270.747	0.132	-0.228
-80.611	72.792	-0.128	-0.132
-79.597	-200.000	-0.004	-0.257
-78.582	-170.493	-0.091	-0.003
-77.567	-74.804	0.137	0.048
-76.553	-200.000	0.034	0.193
-75.538	87.588	-0.152	0.166
-74.524	12.508	-0.108	0.082
-73.509	174.037	0.007	0.010
-72.494	-31.061	0.219	0.121
-71.480	-200.000	0.067	0.498
-70.465	-200.000	0.017	0.098
-69.451	-115.915	0.112	-0.021
-68.436	800.000	0.019	-0.052
-67.422	-200.000	-0.078	0.447
-66.407	800.000	0.007	0.024
-65.392	-143.216	0.170	0.016
-64.378	-12.677	0.116	0.075
-63.363	140.420	0.119	-0.154
-62.349	270.414	0.134	0.233
-61.334	40.241	-0.737	-0.652
-60.319	12.969	0.470	0.357
-59.305	498.102	-0.327	-0.741
-58.290	435.261	0.562	1.203
-57.276	508.675	0.650	1.485
-56.261	-200.000	95.463	580.371
-55.246	654.869	1372.118	3464.280
-54.232	198.268	2554.006	3841.534
-53.217	113.211	2270.074	2708.106
-52.203	42.451	1898.886	1698.432
-51.188	36.346	1689.933	1465.317
-50.173	33.635	1646.179	1407.243
-49.159	50.902	1691.963	1576.509
-48.144	52.557	1708.033	1603.852
-47.130	35.972	1668.977	1444.115
-46.115	33.185	1655.015	1411.217
-45.100	33.123	1649.765	1406.223
-44.086	33.106	1647.152	1403.811
-43.071	32.990	1644.716	1400.820
-42.057	32.961	1642.040	1398.271
-41.042	32.996	1640.122	1396.846
-40.027	33.000	1638.038	1395.042
-39.013	32.958	1636.332	1393.225
-37.998	32.944	1634.856	1391.809
-36.984	32.971	1633.656	1390.928
-35.969	33.098	1631.811	1390.237
-34.954	33.161	1630.058	1389.153
-33.940	33.128	1628.401	1387.445
-32.925	33.071	1626.989	1385.766
-31.911	33.095	1625.153	1384.324
-30.896	33.211	1622.780	1383.097
-29.881	33.113	1621.093	1380.890
-28.867	33.154	1619.796	1380.025
-27.852	33.196	1618.070	1378.810
-26.838	33.130	1616.529	1376.959
-25.823	33.068	1615.657	1375.714
-24.809	33.202	1613.947	1375.173
-23.794	33.133	1612.684	1373.541
-22.779	33.208	1610.970	1372.573
-21.765	33.152	1609.418	1370.792
-20.750	33.146	1607.963	1369.453
-19.736	33.173	1606.266	1368.150
-18.721	33.166	1604.707	1366.717
-17.706	33.075	1603.481	1364.957
-16.692	33.178	1601.921	1364.322
-15.677	33.144	1600.711	1362.990
-14.663	33.202	1599.182	1362.054
-13.648	33.077	1598.251	1360.306
-12.633	33.177	1596.150	1359.180
-11.619	33.229	1594.387	1357.998
-10.604	33.216	1592.694	1356.410
-9.590	33.080	1592.186	1354.950
-8.575	33.167	1590.500	1354.084
-7.560	33.127	1589.678	1353.047
-6.546	33.144	1588.507	1352.117
-5.531	33.213	1587.299	1351.527
-4.517	33.123	1586.209	1349.905
-3.502	33.070	1585.431	1348.809
-2.487	33.102	1583.457	1347.307
-1.473	32.574	1571.144	1333.041
-0.458	29.016	1549.499	1289.735
0.556	26.559	1547.522	1249.035
1.571	23.486	1569.884	1245.424
2.586	22.528	1582.331	1248.400
3.600	19.580	1528.191	1185.379
4.615	11.826	1420.250	1051.901
5.629	5.280	1358.612	965.802
6.644	4.257	1350.310	953.524
7.659	4.201	1349.397	952.449
8.673	4.179	1348.924	951.900
9.688	4.224	1347.029	950.750
10.702	4.209	1344.576	948.848
11.717	7.060	1349.141	969.472
12.731	14.789	1363.439	1027.349
13.746	20.997	1373.059	1072.829
14.761	21.821	1373.670	1078.276
15.775	21.102	1371.440	1072.019
16.790	20.163	1368.833	1064.122
17.804	19.313	1366.416	1056.944
18.819	18.962	1365.477	1053.973
19.834	18.850	1364.333	1052.311
20.848	18.587	1363.283	1049.796
21.863	18.437	1361.825	1047.661
22.877	18.285	1361.282	1046.225
23.892	18.229	1360.277	1045.019
24.907	18.301	1359.157	1044.503
25.921	18.276	1358.423	1043.697
26.936	18.335	1357.376	1043.159
27.950	18.409	1356.371	1042.742
28.965	18.403	1355.621	1042.038
29.980	18.499	1354.223	1041.455
30.994	18.600	1353.213	1041.201
32.009	18.672	1351.725	1040.398
33.023	18.711	1350.939	1039.938
34.038	18.587	1349.618	1038.076
35.053	18.423	1348.788	1036.356
36.067	18.400	1347.711	1035.300
37.082	18.524	1346.280	1034.853
38.096	18.667	1345.111	1034.728
39.111	18.609	1344.855	1034.091
40.126	18.440	1344.276	1032.532
41.140	18.263	1343.082	1030.463
42.155	18.042	1342.153	1028.324
43.169	18.036	1342.444	1028.425
44.184	18.065	1341.839	1028.044
45.199	18.012	1341.262	1027.193
46.213	18.240	1340.825	1028.134
47.228	18.363	1340.392	1028.454
48.242	18.405	1339.043	1027.578
49.257	18.330	1337.816	1026.093
50.271	18.406	1336.242	1025.251
51.286	18.477	1334.490	1024.242
52.301	18.349	1333.511	1022.634
53.315	18.253	1332.648	1021.308
54.330	18.186	1331.397	1019.863
55.344	18.132	1330.030	1018.399
56.359	18.230	1328.854	1017.996
57.374	18.123	1328.144	1016.727
58.388	18.077	1327.147	1015.598
59.403	18.054	1327.012	1015.271
60.417	18.094	1326.240	1014.825
61.432	18.091	1325.036	1013.797
62.447	17.927	1324.396	1012.243
63.461	17.878	1322.926	1010.740
64.476	17.836	1322.094	1009.765
65.490	17.832	1320.932	1008.770
66.505	17.936	1319.438	1008.149
67.520	17.933	1318.342	1007.209
68.534	17.905	1317.418	1006.245
69.549	17.869	1316.260	1005.062
70.563	17.754	1315.130	1003.435
71.578	17.777	1313.470	1002.212
72.593	17.738	1312.929	1001.479
73.607	17.666	1312.057	1000.307
74.622	17.674	1311.578	999.899
75.636	17.717	1311.054	999.661
76.651	17.754	1309.915	998.921
77.666	17.717	1310.139	998.790
78.680	17.729	1310.061	998.710
79.695	17.814	1308.839	998.186
80.709	18.015	1307.799	998.482
81.724	18.108	1306.951	998.289
82.739	18.235	1305.767	998.036
83.753	18.333	1305.516	998.330
84.768	18.471	1304.645	998.377
85.782	18.601	1303.405	998.097
86.797	18.627	1302.237	997.263
87.812	18.418	1301.262	995.220
88.826	18.378	1300.115	994.022
89.841	18.363	1299.445	993.331
90.855	18.436	1298.013	992.572
91.870	18.579	1297.129	992.635
92.884	18.593	1296.610	992.231
93.899	18.593	1295.642	991.405
94.914	18.714	1294.726	991.313
95.928	18.669	1294.217	990.579
96.943	18.562	1293.073	988.996
97.957	18.543	1292.263	988.181
98.972	18.563	1290.682	987.002
99.987	18.396	1290.636	985.915
101.001	18.591	1288.860	985.595
102.016	18.540	1288.273	984.762
103.030	18.572	1287.517	984.284
104.045	18.453	1286.662	982.856
105.060	18.342	1285.808	981.480
106.074	18.181	1283.740	978.894
107.089	18.004	1281.740	976.270
108.103	17.898	1280.563	974.687
109.118	17.921	1279.600	974.000
110.133	17.970	1278.140	973.076
111.147	18.013	1276.720	972.155
112.162	17.942	1275.781	970.950
113.176	18.067	1274.532	970.627
114.191	18.001	1274.123	969.853
115.206	18.154	1272.504	969.402
116.220	18.080	1271.229	967.928
117.235	18.106	1270.480	967.415
118.249	18.130	1268.737	966.138
119.264	17.999	1268.001	964.757
120.279	17.961	1267.064	963.740
121.293	17.952	1266.085	962.861
122.308	17.773	1265.284	961.157
123.322	17.775	1264.041	960.141
124.337	17.784	1262.697	959.083
125.352	17.720	1261.873	958.012
126.366	17.877	1260.649	957.883
127.381	17.878	1259.326	956.796
128.395	17.729	1258.866	955.530
129.410	17.786	1257.903	955.033
130.424	17.873	1257.092	954.819
131.439	17.999	1256.309	954.846
132.454	18.022	1255.295	954.119
133.468	18.108	1254.581	953.968
134.483	18.040	1253.921	953.006
135.497	18.139	1252.943	952.728
136.512	18.102	1251.743	951.525
137.527	18.210	1250.374	951.002
138.541	18.128	1249.250	949.609
139.556	18.230	1248.193	949.286
140.570	18.273	1246.872	948.434
141.585	18.377	1245.573	947.938
142.600	18.391	1245.090	947.565
143.614	18.600	1243.612	947.508
144.629	18.611	1242.637	946.742
145.643	18.635	1241.578	945.989
146.658	18.470	1240.059	943.839
147.673	18.230	1238.663	941.369
148.687	18.174	1237.787	940.311
149.702	18.213	1236.154	939.207
150.716	18.007	1234.939	937.069
151.731	18.056	1234.123	936.633
152.746	18.088	1233.158	935.997
153.760	18.290	1231.594	935.831
154.775	18.281	1230.870	935.145
155.789	18.370	1229.881	934.796
156.804	18.486	1228.675	934.429
157.819	18.370	1227.903	933.131
158.833	18.452	1227.424	933.129
159.848	18.501	1226.483	932.601
160.862	18.512	1225.152	931.564
161.877	18.248	1224.389	929.466
162.892	18.149	1222.870	927.696
163.906	18.163	1221.858	926.919
164.921	18.167	1220.689	925.974
165.935	18.175	1220.477	925.774
166.950	18.360	1219.676	926.086
167.964	18.369	1218.883	925.449
168.979	18.304	1218.166	924.470
169.994	18.351	1217.322	924.005
171.008	18.295	1216.779	923.208
172.023	18.494	1215.823	923.475
173.037	18.619	1215.349	923.706
174.052	18.609	1214.353	922.814
175.067	18.426	1212.864	920.616
176.081	18.182	1212.442	918.903
177.096	18.175	1211.119	917.782
178.110	18.138	1210.275	916.863
179.125	18.378	1208.807	916.957
180.140	18.276	1207.788	915.557
181.154	18.320	1207.021	915.126
182.169	18.486	1205.838	915.035
183.183	18.611	1204.577	914.666
184.198	18.614	1203.468	913.756
185.213	18.591	1202.625	912.917
186.227	18.628	1201.841	912.435
187.242	18.691	1200.580	911.731
188.256	18.850	1199.605	911.757
189.271	18.850	1198.733	911.014
190.286	18.641	1197.721	909.055
191.300	18.263	1196.443	906.002
192.315	18.112	1195.930	904.734
193.329	18.196	1195.022	904.412
194.344	18.273	1194.311	904.204
195.359	18.380	1194.161	904.572
196.373	18.462	1193.647	904.537
197.388	18.629	1193.096	904.920
198.402	18.821	1192.638	905.506
199.417	18.875	1192.568	905.656
200.432	18.988	1191.655	905.479
201.446	19.081	1190.846	905.271
202.461	19.206	1189.758	905.022
203.475	19.002	1189.643	903.781
204.490	19.018	1187.307	902.011
205.504	18.931	1185.931	900.431
206.519	18.679	1185.021	898.340
207.534	18.712	1183.967	897.636
208.548	18.788	1183.101	897.295
209.563	18.709	1182.536	896.375
210.577	18.788	1181.616	896.009
211.592	18.814	1180.916	895.536
212.607	18.959	1180.100	895.593
213.621	19.017	1178.898	894.903
214.636	18.983	1178.250	894.156
215.650	18.962	1177.364	893.295
216.665	19.059	1176.638	893.167
217.680	19.228	1175.538	893.130
218.694	19.178	1175.244	892.569
219.709	19.197	1174.429	891.969
220.723	19.259	1173.222	891.298
221.738	19.176	1172.732	890.414
222.753	19.001	1172.331	889.129
223.767	19.056	1171.449	888.663
224.782	19.295	1170.592	889.170
225.796	19.359	1170.097	889.044
226.811	19.282	1169.352	888.001
227.826	19.050	1169.060	886.508
228.840	18.965	1167.665	884.934
229.855	19.120	1167.066	885.197
230.869	19.126	1166.091	884.409
231.884	19.020	1165.278	883.171
232.899	19.005	1164.469	882.404
233.913	18.862	1163.848	881.122
234.928	19.086	1162.756	881.367
235.942	18.971	1161.900	880.049
236.957	18.926	1161.304	879.289
237.972	18.890	1161.122	878.889
238.986	18.965	1160.211	878.508
240.001	18.920	1159.694	877.806
241.015	19.047	1158.601	877.548
242.030	19.116	1158.148	877.481
243.045	19.130	1157.543	877.014
244.059	19.109	1156.430	875.988
245.074	19.264	1155.472	875.972
246.088	19.249	1155.092	875.531
247.103	19.297	1154.259	875.063
248.117	19.381	1153.980	875.202
249.132	19.577	1152.989	875.367
250.147	19.844	1152.395	876.194
251.161	19.851	1151.788	875.688
252.176	19.850	1151.352	875.273
253.190	19.922	1150.994	875.290
254.205	19.962	1149.851	874.543
255.220	19.923	1149.769	874.208
256.234	19.988	1148.983	873.861
257.249	19.920	1148.141	872.797
258.263	19.937	1147.623	872.413
259.278	19.948	1146.880	871.827
260.293	19.921	1146.528	871.345
261.307	20.016	1146.137	871.452
262.322	20.139	1145.312	871.364
263.336	20.098	1144.297	870.309
264.351	20.117	1143.838	869.981
265.366	20.232	1142.835	869.716
266.380	20.141	1142.258	868.746
267.395	20.019	1141.611	867.562
268.409	19.939	1141.191	866.767
269.424	19.944	1140.058	865.854
270.439	19.869	1139.945	865.316
271.453	20.029	1138.502	864.946
272.468	19.792	1138.327	863.552
273.482	19.742	1137.217	862.384
274.497	19.745	1136.932	862.105
275.512	19.868	1135.911	861.867
276.526	19.951	1135.092	861.585
277.541	19.897	1134.295	860.633
278.555	19.932	1134.019	860.524
279.570	19.996	1133.254	860.185
280.585	20.232	1132.415	860.643
281.599	20.203	1131.495	859.721
282.614	19.992	1130.791	858.066
283.628	19.983	1129.225	856.756
284.643	20.002	1128.269	856.051
285.657	19.982	1127.904	855.598
286.672	19.966	1127.126	854.856
287.687	20.019	1125.987	854.177
288.701	20.053	1125.313	853.759
289.716	20.145	1124.086	853.204
290.730	20.056	1124.092	852.692
291.745	20.016	1123.551	852.014
292.760	20.143	1122.958	852.111
293.774	20.355	1121.752	852.160
294.789	20.369	1121.721	852.133
295.803	20.315	1121.226	851.415
296.818	20.116	1120.095	849.503
297.833	20.061	1119.046	848.366
298.847	20.007	1118.823	847.859
299.862	20.206	1117.470	847.728
300.876	20.218	1116.876	847.260
301.891	20.283	1116.667	847.345
302.906	20.411	1115.772	847.216
303.920	20.481	1115.388	847.191
304.935	20.471	1115.071	846.827
305.949	20.566	1114.400	846.702
306.964	20.628	1113.454	846.213
307.979	20.527	1112.715	845.085
308.993	20.559	1111.705	844.401
310.008	20.510	1111.084	843.615
311.022	20.621	1110.178	843.388
312.037	20.600	1109.422	842.640
313.052	20.585	1108.203	841.565
314.066	20.392	1106.935	839.598
315.081	20.233	1106.657	838.542
316.095	20.137	1106.040	837.537
317.110	20.146	1105.267	836.921
318.125	20.263	1104.494	836.826
319.139	20.194	1103.716	835.832
320.154	20.305	1102.960	835.721
321.168	20.240	1102.502	834.986
322.183	20.352	1101.804	834.921
323.197	20.396	1100.966	834.425
324.212	20.338	1100.304	833.571
325.227	20.413	1100.303	833.856
326.241	20.398	1099.821	833.343
327.256	20.365	1099.123	832.583
328.270	20.341	1097.866	831.440
329.285	20.257	1097.267	830.515
330.300	20.260	1096.057	829.538
331.314	20.442	1095.030	829.557
332.329	20.375	1094.017	828.394
333.343	20.417	1093.455	828.099
334.358	20.603	1092.586	828.252
335.373	20.617	1092.325	828.048
336.387	20.718	1091.554	827.872
337.402	20.574	1090.819	826.556
338.416	20.681	1089.885	826.283
339.431	20.743	1089.493	826.207
340.446	20.882	1088.896	826.337
341.460	20.871	1088.414	825.851
342.475	21.111	1087.502	826.221
343.489	21.068	1086.516	825.193
344.504	21.101	1085.469	824.482
345.519	21.089	1084.743	823.800
346.533	21.215	1084.250	823.948
347.548	21.171	1083.739	823.279
348.562	21.091	1082.872	822.172
349.577	21.069	1081.270	820.777
350.592	20.903	1080.898	819.642
351.606	20.813	1080.375	818.748
352.621	20.818	1079.481	818.024
353.635	20.723	1078.742	816.946
354.650	20.834	1077.500	816.452
355.665	20.856	1077.247	816.293
356.679	20.949	1076.872	816.371
357.694	20.956	1076.307	815.902
358.708	20.995	1075.601	815.479
359.723	20.962	1075.416	815.110
360.738	21.029	1074.611	814.741
361.752	20.955	1074.149	813.973
362.767	21.096	1073.424	814.010
363.781	21.062	1072.756	813.275
364.796	21.179	1072.149	813.289
365.810	21.240	1071.943	813.345
366.825	21.356	1071.347	813.357
367.840	21.487	1070.523	813.269
368.854	21.601	1070.222	813.497
369.869	21.537	1069.489	812.573
370.883	21.504	1068.400	811.522
371.898	21.286	1067.714	809.916
372.913	21.352	1067.100	809.688
373.927	21.350	1066.898	809.452
374.942	21.586	1066.014	809.802
375.956	21.600	1065.377	809.312
376.971	21.399	1065.342	808.284
377.986	21.515	1064.646	808.218
379.000	21.573	1064.042	807.957
380.015	21.673	1063.581	807.998
381.029	21.793	1062.918	807.975
382.044	21.675	1062.321	806.904
383.059	21.641	1061.484	806.040
384.073	21.561	1060.879	805.141
385.088	21.698	1059.987	805.024
386.102	21.704	1058.918	804.171
387.117	21.594	1057.817	802.757
388.132	21.373	1057.088	801.119
389.146	21.434	1056.110	800.587
390.161	21.401	1055.321	799.770
391.175	21.496	1054.494	799.504
392.190	21.508	1054.309	799.350
393.205	21.695	1053.660	799.640
394.219	21.691	1052.912	798.984
395.234	21.478	1051.970	797.224
396.248	21.506	1050.948	796.507
397.263	21.412	1050.048	795.327
398.278	21.425	1049.044	794.556
399.292	21.405	1048.277	793.815
400.307	21.243	1047.404	792.348
401.321	21.362	1046.764	792.333
402.336	21.301	1046.367	791.689
403.350	21.388	1045.293	791.199
404.365	21.473	1044.554	790.954
405.380	21.519	1044.166	790.795
406.394	21.568	1043.512	790.452
407.409	21.663	1043.023	790.439
408.423	21.709	1042.183	789.945
409.438	21.920	1041.587	790.372
410.453	21.874	1041.297	789.874
411.467	21.945	1040.466	789.491
412.482	21.968	1039.906	789.101
413.496	21.978	1039.234	788.567
414.511	22.090	1038.828	788.690
415.526	22.172	1038.161	788.482
416.540	22.289	1037.686	788.579
417.555	22.286	1037.246	788.159
418.569	22.076	1036.509	786.588
419.584	22.150	1035.825	786.331
420.599	22.139	1035.516	785.981
421.613	155.677	1401.004	1794.406
422.628	142.332	1454.259	1794.497
