DTS Sentinel unit serial number:	SN413079Multiplexer serial number:	ORYXHardware model number:	OX4-SRSoftware version number:	ORYX F/W v4.00 Oryx Data Collector v3.7.2.0data status	okinstallation	princeton_trtdifferential loss correction	single-endedforward channel	channel 2reverse channel	N/Adate	2019/09/12time	19:54:49forward acquisition time	15.00reverse acquisition time	0.00gamma	496.2192k internal	0.2328k external	0.2328temperature offset calibration	1.0164default loss term (dB/km)	0.3790temperature slope calibration	1.0000multiplexer offset coefficient	1.0000multiplexer slope coefficient	1.0000fibre end	0.00T internal ref (°C)	31.87T ext. ref 1 (°C)	3.45T ext. ref 2 (°C)	26.35length (m)	temperature (°C)	Stokes	anti-Stokes-747.200	100.447	-0.099	-0.116
-746.185	800.000	0.230	0.701
-745.171	-82.901	0.359	0.117
-744.156	10.763	-0.317	-0.244
-743.142	800.000	-0.058	-0.228
-742.127	-58.661	0.532	0.232
-741.112	561.081	0.046	0.111
-740.098	-200.000	-0.028	0.138
-739.083	101.222	-0.120	0.141
-738.069	448.423	0.195	0.432
-737.054	-32.464	-0.363	0.204
-736.039	-103.771	-0.673	0.159
-735.025	-200.000	0.047	-0.432
-734.010	-200.000	0.077	0.653
-732.996	800.000	-0.114	0.451
-731.981	-180.765	0.397	0.008
-730.966	318.288	-0.210	-0.400
-729.952	-75.840	-0.230	0.082
-728.937	467.108	0.245	-0.553
-727.923	404.445	0.142	-0.302
-726.908	-125.497	-0.706	-0.108
-725.894	337.978	-0.352	-0.691
-724.879	-52.797	0.540	0.251
-723.864	400.707	-0.289	-0.612
-722.850	-74.882	0.606	0.219
-721.835	800.000	0.171	0.502
-720.821	8.376	0.130	0.098
-719.806	-60.258	-0.849	-0.364
-718.791	-7.986	0.571	0.388
-717.777	-56.508	-0.340	0.152
-716.762	68.017	0.181	0.186
-715.748	215.965	0.246	-0.394
-714.733	-45.322	-0.549	-0.275
-713.718	752.363	0.135	0.366
-712.704	250.860	0.265	0.454
-711.689	800.000	0.057	0.232
-710.675	19.540	0.560	-0.453
-709.660	59.763	-0.800	-0.795
-708.645	-200.000	0.050	-0.469
-707.631	-39.366	0.229	-0.121
-706.616	-138.238	-0.542	-0.060
-705.602	337.884	0.304	-0.594
-704.587	280.319	-0.495	-0.891
-703.572	289.840	-0.200	0.364
-702.558	36.092	0.470	-0.416
-701.543	800.000	-0.328	-0.929
-700.529	44.824	0.207	-0.192
-699.514	413.195	-0.047	0.101
-698.499	-140.622	0.421	-0.044
-697.485	-9.490	-0.505	-0.339
-696.470	93.475	0.166	0.189
-695.456	126.109	0.778	-0.990
-694.441	-120.315	-0.318	0.055
-693.426	-31.175	-0.619	0.351
-692.412	-25.914	0.618	0.366
-691.397	489.303	-0.011	-0.025
-690.383	196.616	-0.150	-0.230
-689.368	-52.548	-0.267	-0.124
-688.354	-42.023	-0.150	-0.077
-687.339	800.000	-0.104	0.368
-686.324	-12.752	-0.623	-0.408
-685.310	-45.582	0.476	-0.237
-684.295	82.133	-0.218	-0.237
-683.281	214.494	0.339	-0.539
-682.266	-200.000	-0.181	0.919
-681.251	700.515	-0.183	-0.483
-680.237	-115.986	-0.205	-0.038
-679.222	-61.654	0.243	0.102
-678.208	180.390	-0.126	0.186
-677.193	389.991	-0.139	0.290
-676.178	-200.000	0.077	-0.480
-675.164	54.633	-0.217	0.210
-674.149	800.000	-0.236	0.732
-673.135	-200.000	-0.063	-0.464
-672.120	613.552	-0.248	-0.625
-671.105	482.167	-0.271	-0.618
-670.091	83.926	0.420	-0.461
-669.076	-113.938	0.067	-0.013
-668.062	286.309	-0.222	-0.402
-667.047	336.274	-0.298	-0.581
-666.032	800.000	-0.292	-1.234
-665.018	41.649	-0.286	0.260
-664.003	214.492	0.091	0.144
-662.989	-7.642	0.146	-0.099
-661.974	-47.339	0.672	-0.328
-660.959	176.578	-0.591	0.864
-659.945	39.323	0.319	0.287
-658.930	203.331	-0.293	0.455
-657.916	441.595	-0.287	-0.630
-656.901	-52.538	-0.733	-0.340
-655.886	800.000	0.055	-0.206
-654.872	-200.000	-0.003	0.199
-653.857	197.164	-0.040	0.061
-652.843	-200.000	0.071	0.375
-651.828	61.326	0.301	-0.301
-650.814	-4.463	0.581	0.403
-649.799	422.165	0.172	0.370
-648.784	49.875	0.735	-0.696
-647.770	-32.104	0.744	0.417
-646.755	39.926	-0.349	-0.315
-645.741	29.883	-0.213	-0.182
-644.726	599.011	0.313	0.779
-643.711	-18.329	-0.402	-0.252
-642.697	12.598	0.255	-0.198
-641.682	-31.911	0.246	-0.138
-640.668	95.952	0.398	-0.456
-639.653	-74.374	-0.564	-0.204
-638.638	800.000	-0.173	-0.579
-637.624	11.807	-0.205	0.158
-636.609	-200.000	0.034	-0.788
-635.595	126.541	-0.413	0.525
-634.580	-101.941	0.485	-0.118
-633.565	-200.000	-0.036	0.618
-632.551	800.000	0.072	0.217
-631.536	-18.881	-0.246	-0.153
-630.522	17.893	-0.725	-0.579
-629.507	172.457	-0.172	0.248
-628.492	-200.000	-0.017	-0.484
-627.478	93.399	-0.487	-0.553
-626.463	-181.344	-0.824	0.016
-625.449	-27.171	0.539	0.315
-624.434	154.235	0.574	-0.790
-623.419	-200.000	0.127	0.691
-622.405	-21.563	-0.324	0.198
-621.390	-200.000	0.009	0.160
-620.376	626.371	0.039	0.099
-619.361	25.206	-0.356	0.296
-618.346	-200.000	-0.035	0.338
-617.332	800.000	-0.191	-0.536
-616.317	-81.917	0.850	-0.279
-615.303	40.611	-0.541	-0.489
-614.288	5.193	0.172	-0.127
-613.273	148.352	-0.160	0.217
-612.259	-200.000	0.042	-0.298
-611.244	-200.000	0.079	-1.140
-610.230	80.340	-0.255	-0.275
-609.215	53.045	-0.417	0.400
-608.201	800.000	-0.297	0.834
-607.186	101.927	-0.415	-0.486
-606.171	121.042	0.494	-0.616
-605.157	-137.693	-0.486	0.055
-604.142	-75.718	-0.765	-0.272
-603.128	-19.039	-0.102	0.064
-602.113	-26.927	-0.346	0.203
-601.098	-177.274	0.053	-0.001
-600.084	7.848	0.483	0.363
-599.069	-5.212	0.244	0.168
-598.055	-183.045	-0.254	-0.005
-597.040	-135.620	-0.547	-0.065
-596.025	-200.000	0.190	0.000
-595.011	-20.294	0.164	-0.101
-593.996	-200.000	-0.014	0.148
-592.982	21.853	0.395	0.322
-591.967	-69.204	0.235	-0.090
-590.952	497.729	0.279	0.644
-589.938	132.412	0.297	-0.384
-588.923	237.115	0.099	0.165
-587.909	-126.689	-0.309	0.046
-586.894	-53.526	0.452	0.207
-585.879	-105.869	-0.751	-0.170
-584.865	800.000	-0.233	-0.654
-583.850	-9.385	0.603	0.403
-582.836	-67.818	0.299	-0.117
-581.821	-80.188	-0.741	0.249
-580.806	-200.000	-0.105	-0.593
-579.792	174.587	0.215	-0.311
-578.777	-18.528	-0.245	0.153
-577.763	179.791	0.293	-0.429
-576.748	-200.000	0.005	-0.746
-575.733	-67.935	0.476	0.186
-574.719	800.000	0.051	0.174
-573.704	-91.719	0.359	-0.102
-572.690	800.000	0.220	0.662
-571.675	-101.188	-0.682	-0.167
-570.661	-9.770	0.380	0.253
-569.646	79.765	0.692	0.744
-568.631	-93.527	-0.818	-0.227
-567.617	800.000	0.289	0.928
-566.602	-117.155	1.285	0.234
-565.588	-186.155	-0.439	-0.006
-564.573	-200.000	0.057	-0.889
-563.558	800.000	-0.117	0.365
-562.544	-200.000	-0.041	0.609
-561.529	800.000	-0.097	0.338
-560.515	-111.740	-1.068	-0.216
-559.500	40.242	-0.155	-0.140
-558.485	-138.255	0.769	-0.085
-557.471	-69.692	-0.463	-0.177
-556.456	21.240	0.774	-0.628
-555.442	244.056	0.132	0.222
-554.427	-99.989	0.552	-0.138
-553.412	-200.000	-0.062	-0.449
-552.398	139.967	-0.291	0.384
-551.383	-45.341	0.437	0.217
-550.369	-148.578	0.041	0.003
-549.354	159.424	0.148	-0.206
-548.339	445.732	-0.544	-1.196
-547.325	-128.161	0.407	-0.058
-546.310	-35.529	-0.786	0.427
-545.296	154.074	-0.317	-0.435
-544.281	-137.119	0.207	-0.024
-543.266	-200.000	0.054	0.611
-542.252	113.288	-0.325	-0.394
-541.237	111.900	0.487	0.588
-540.223	-55.796	0.796	0.356
-539.208	-48.256	-0.630	0.304
-538.193	169.073	0.448	0.638
-537.179	-133.451	-0.842	-0.106
-536.164	-167.796	0.674	-0.027
-535.150	10.034	0.375	0.285
-534.135	-122.978	-0.968	0.156
-533.121	-101.490	-0.849	-0.206
-532.106	800.000	-0.201	0.648
-531.091	53.331	-0.752	-0.721
-530.077	-115.125	0.415	-0.079
-529.062	101.178	-0.504	-0.586
-528.048	114.410	-0.150	-0.182
-527.033	98.793	0.469	0.541
-526.018	-76.510	-0.811	0.285
-525.004	-93.312	-0.153	-0.042
-523.989	-43.676	-0.347	-0.175
-522.975	-200.000	0.040	-0.370
-521.960	101.374	-0.426	-0.496
-520.945	-200.000	0.197	-1.179
-519.931	581.016	-0.182	-0.446
-518.916	-65.990	0.114	-0.045
-517.902	800.000	-0.060	-0.189
-516.887	-158.241	-0.666	0.039
-515.872	-24.713	0.172	-0.102
-514.858	9.872	-0.480	0.364
-513.843	-200.000	-0.071	0.694
-512.829	36.385	-0.562	0.495
-511.814	12.961	0.295	0.228
-510.799	-39.920	-0.547	-0.285
-509.785	-129.855	-0.668	0.092
-508.770	-115.463	1.021	-0.192
-507.756	277.043	-0.118	0.209
-506.741	-200.000	-0.024	0.534
-505.726	-81.001	0.316	-0.105
-504.712	541.997	0.269	0.640
-503.697	-200.000	-0.021	-0.407
-502.683	243.351	-0.249	0.418
-501.668	109.591	-0.432	-0.517
-500.653	-34.728	-0.333	0.182
-499.639	-15.580	-0.911	-0.580
-498.624	800.000	-0.143	-0.571
-497.610	384.654	-0.288	0.593
-496.595	-190.493	-0.430	-0.005
-495.581	-89.374	1.124	0.330
-494.566	-129.713	1.191	0.164
-493.551	-129.023	-0.207	-0.029
-492.537	800.000	0.161	-0.580
-491.522	800.000	0.017	-0.074
-490.508	-200.000	0.182	0.897
-489.493	800.000	0.183	-0.521
-488.478	-200.000	-0.511	-0.001
-487.464	532.290	0.101	-0.238
-486.449	800.000	0.279	-0.913
-485.435	138.357	-0.648	-0.848
-484.420	-138.809	-0.671	-0.073
-483.405	-72.911	0.717	0.263
-482.391	-37.883	0.178	-0.094
-481.376	-60.457	-0.237	0.100
-480.362	561.109	0.193	0.465
-479.347	-109.230	-0.322	0.068
-478.332	739.894	0.127	-0.341
-477.318	-191.527	0.165	-0.002
-476.303	-150.120	-0.258	-0.020
-475.289	-148.176	-0.371	-0.031
-474.274	127.212	-0.211	-0.267
-473.259	-200.000	0.067	-0.393
-472.245	39.875	-0.129	-0.116
-471.230	-100.470	0.583	-0.144
-470.216	-12.823	0.349	0.227
-469.201	552.373	0.127	-0.305
-468.186	-200.000	-0.051	-0.247
-467.172	-82.415	0.740	0.240
-466.157	-200.000	-0.006	-0.604
-465.143	122.820	0.292	-0.364
-464.128	263.746	0.159	0.275
-463.113	-115.761	-1.010	-0.188
-462.099	-200.000	-0.021	0.732
-461.084	560.142	-0.298	-0.718
-460.070	-30.246	0.969	0.549
-459.055	-200.000	0.015	0.195
-458.040	-8.567	-0.413	0.277
-457.026	-75.100	-0.835	0.298
-456.011	-76.022	0.607	0.214
-454.997	800.000	0.249	-0.774
-453.982	-64.982	-0.490	-0.197
-452.968	564.023	-0.305	0.737
-451.953	800.000	0.353	1.425
-450.938	800.000	-0.104	0.404
-449.924	185.793	-0.207	-0.307
-448.909	-200.000	0.011	-0.060
-447.895	-200.000	-0.047	0.674
-446.880	-137.226	-0.473	0.054
-445.865	-13.184	0.091	-0.059
-444.851	12.046	-0.243	0.186
-443.836	78.282	-0.539	-0.573
-442.822	-200.000	-0.232	1.016
-441.807	335.954	0.096	0.186
-440.792	-60.541	0.840	-0.355
-439.778	-99.739	0.325	-0.081
-438.763	800.000	0.027	0.105
-437.749	-200.000	0.086	0.704
-436.734	-169.235	0.587	0.022
-435.719	-52.263	0.608	-0.281
-434.705	489.113	0.309	0.704
-433.690	480.771	0.180	0.406
-432.676	-200.000	0.163	0.846
-431.661	-143.799	0.727	0.068
-430.646	-134.398	-0.993	0.121
-429.632	-53.773	-0.477	0.217
-428.617	-200.000	0.200	1.076
-427.603	-200.000	0.083	-0.575
-426.588	-98.492	0.737	0.188
-425.573	-124.153	0.489	-0.076
-424.559	-71.205	-0.807	-0.301
-423.544	-115.438	0.626	0.117
-422.530	-26.478	-0.678	-0.395
-421.515	-34.648	-0.687	-0.374
-420.500	-70.726	0.822	-0.309
-419.486	-75.554	-0.727	0.257
-418.471	-6.124	-0.353	0.240
-417.457	-200.000	-0.040	0.319
-416.442	164.848	0.749	1.051
-415.428	-98.027	0.213	0.055
-414.413	-200.000	0.055	0.257
-413.398	75.473	0.680	-0.714
-412.384	193.259	-0.179	0.269
-411.369	-182.587	-0.363	0.007
-410.355	-103.392	-0.232	-0.054
-409.340	76.709	0.312	0.329
-408.325	-200.000	0.612	-0.002
-407.311	375.696	0.222	-0.450
-406.296	-25.092	0.674	-0.398
-405.282	-109.038	-0.141	-0.030
-404.267	-200.000	0.117	0.581
-403.252	-39.062	-0.563	0.294
-402.238	225.890	0.209	0.338
-401.223	-74.321	0.523	0.188
-400.209	91.532	0.694	-0.775
-399.194	-74.753	-0.291	-0.104
-398.179	36.990	-0.468	0.412
-397.165	-91.293	-0.514	-0.146
-396.150	44.723	0.242	0.221
-395.136	-55.939	0.229	0.101
-394.121	179.188	0.399	-0.580
-393.106	-57.160	0.447	0.196
-392.092	-54.279	-0.428	-0.193
-391.077	-34.198	1.065	0.582
-390.063	-65.156	-0.397	-0.159
-389.048	-78.919	-0.571	0.193
-388.033	800.000	-0.102	-0.341
-387.019	-200.000	-0.009	-0.080
-386.004	134.325	0.207	0.267
-384.990	2.784	-0.653	-0.471
-383.975	-156.012	-0.798	-0.050
-382.960	-150.518	-0.755	-0.057
-381.946	70.370	-0.149	-0.153
-380.931	-107.833	-0.840	-0.182
-379.917	0.824	-0.261	-0.186
-378.902	-86.545	0.460	0.140
-377.888	-140.660	-0.746	0.077
-376.873	601.345	-0.242	0.596
-375.858	-21.019	-0.891	0.542
-374.844	71.445	-0.430	0.444
-373.829	-53.019	0.710	0.324
-372.815	486.167	0.186	-0.421
-371.800	420.484	-0.106	0.226
-370.785	155.704	-0.315	0.431
-369.771	122.158	0.559	0.693
-368.756	800.000	-0.260	-1.009
-367.742	10.926	0.103	-0.078
-366.727	-200.000	0.024	-0.190
-365.712	-82.281	-0.347	0.112
-364.698	-200.000	0.106	-0.507
-363.683	-19.698	0.410	-0.252
-362.669	-158.729	-0.531	-0.030
-361.654	142.103	-0.230	0.302
-360.639	42.549	-0.337	-0.305
-359.625	1.678	-0.120	0.086
-358.610	-34.457	0.451	0.245
-357.596	-58.529	-0.107	0.046
-356.581	800.000	0.041	0.146
-355.566	19.899	0.668	-0.535
-354.552	-200.000	-0.003	0.141
-353.537	-200.000	-0.005	0.421
-352.523	-80.501	0.594	0.197
-351.508	773.713	-0.082	-0.222
-350.493	146.271	0.376	0.501
-349.479	719.504	0.287	0.758
-348.464	12.426	-0.704	0.538
-347.450	-83.939	-0.873	0.276
-346.435	35.308	-0.555	0.483
-345.420	145.119	0.466	-0.619
-344.406	-115.328	0.487	-0.091
-343.391	315.363	0.174	0.326
-342.377	-74.663	0.690	0.246
-341.362	-59.091	0.044	0.019
-340.348	298.371	0.438	-0.798
-339.333	-168.011	0.526	0.020
-338.318	187.324	-0.440	-0.651
-337.304	98.416	0.225	-0.257
-336.289	-81.397	-0.306	-0.100
-335.275	-147.430	0.754	-0.063
-334.260	-162.306	0.530	0.026
-333.245	-43.922	-0.796	0.397
-332.231	714.318	0.181	-0.475
-331.216	-64.564	-0.970	-0.390
-330.202	-117.861	-0.537	-0.096
-329.187	-10.337	0.750	0.493
-328.172	800.000	-0.139	0.561
-327.158	-18.941	-0.331	0.204
-326.143	2.437	-0.246	0.176
-325.129	551.825	0.145	0.344
-324.114	-18.101	0.310	0.192
-323.099	-170.395	0.378	0.013
-322.085	-24.608	0.106	0.062
-321.070	259.744	0.136	-0.232
-320.056	-169.507	-0.961	-0.035
-319.041	-35.789	0.695	0.373
-318.026	-200.000	-0.019	0.230
-317.012	313.319	0.187	0.349
-315.997	-77.866	0.309	0.106
-314.983	97.379	0.346	-0.393
-313.968	-93.589	-0.449	-0.123
-312.953	678.106	0.165	0.424
-311.939	20.885	-0.664	-0.533
-310.924	800.000	0.131	0.429
-309.910	491.348	-0.050	-0.113
-308.895	355.696	0.252	0.497
-307.880	-200.000	0.011	0.466
-306.866	-34.719	0.184	-0.099
-305.851	30.335	0.173	-0.146
-304.837	66.947	0.357	0.360
-303.822	-8.985	0.434	-0.288
-302.807	800.000	-0.257	-0.816
-301.793	57.324	0.356	-0.344
-300.778	-200.000	0.054	-0.721
-299.764	-135.215	-0.760	-0.090
-298.749	28.581	-0.393	-0.330
-297.735	-159.637	0.223	-0.012
-296.720	-22.664	0.391	-0.234
-295.705	-200.000	-0.068	0.352
-294.691	-69.079	0.524	-0.200
-293.676	33.707	-0.303	0.261
-292.662	-120.376	-0.580	0.098
-291.647	124.689	-0.318	-0.396
-290.632	-125.324	-0.506	0.077
-289.618	-184.637	1.135	-0.018
-288.603	-162.867	0.357	-0.017
-287.589	31.994	0.445	0.379
-286.574	-200.000	0.081	0.412
-285.559	51.785	0.280	0.264
-284.545	-145.364	-0.759	-0.068
-283.530	-200.000	-0.001	0.121
-282.516	-138.316	-0.748	0.082
-281.501	-102.887	0.471	-0.111
-280.486	-151.423	1.485	0.109
-279.472	-138.585	-0.125	0.014
-278.457	-78.566	-0.704	0.238
-277.443	-53.869	-0.206	0.093
-276.428	123.410	0.404	0.501
-275.413	32.503	0.144	0.124
-274.399	66.411	-0.452	0.454
-273.384	270.961	-0.240	0.418
-272.370	547.379	0.251	-0.595
-271.355	-4.529	0.364	-0.249
-270.340	-159.299	0.116	-0.006
-269.326	221.099	-0.199	0.315
-268.311	287.786	0.222	-0.398
-267.297	800.000	-0.076	0.244
-266.282	-104.412	0.260	-0.059
-265.267	-139.748	-0.533	0.056
-264.253	312.555	0.166	0.308
-263.238	-200.000	0.024	0.109
-262.224	154.301	0.342	-0.464
-261.209	-77.907	0.547	0.187
-260.195	452.289	0.190	0.416
-259.180	159.234	0.151	-0.207
-258.165	26.405	-0.171	0.142
-257.151	221.581	0.528	-0.839
-256.136	201.693	-0.278	-0.424
-255.122	54.396	-0.184	-0.175
-254.107	-200.000	-0.063	-0.354
-253.092	95.186	0.147	-0.166
-252.078	-87.306	-1.154	-0.346
-251.063	74.787	0.700	-0.729
-250.049	513.981	-0.124	-0.287
-249.034	-200.000	-0.024	0.934
-248.019	438.641	-0.241	-0.520
-247.005	-196.888	0.882	0.006
-245.990	-33.062	-0.179	-0.098
-244.976	535.334	-0.218	-0.512
-243.961	-200.000	0.026	-0.268
-242.946	-40.315	-0.048	-0.024
-241.932	156.222	-0.076	0.103
-240.917	22.968	-0.617	-0.500
-239.903	324.179	-0.322	0.608
-238.888	800.000	0.162	-0.475
-237.873	-34.842	0.385	-0.208
-236.859	-40.828	-0.369	-0.189
-235.844	800.000	-0.058	-0.159
-234.830	163.396	0.271	-0.377
-233.815	741.057	0.051	-0.136
-232.800	800.000	0.190	0.592
-231.786	33.855	-0.260	0.223
-230.771	-200.000	-0.037	-0.232
-229.757	-200.000	0.220	0.977
-228.742	-138.258	-1.117	0.122
-227.727	69.998	-0.315	-0.321
-226.713	113.188	-0.224	-0.269
-225.698	-117.324	-0.331	0.059
-224.684	800.000	-0.222	0.825
-223.669	70.836	0.082	-0.084
-222.655	37.638	0.063	0.055
-221.640	-100.347	-0.253	0.062
-220.625	-104.533	0.575	-0.131
-219.611	-57.417	-0.559	-0.243
-218.596	128.420	-0.410	-0.515
-217.582	648.672	-0.315	-0.796
-216.567	440.638	-0.243	-0.525
-215.552	-140.470	0.491	-0.050
-214.538	-200.000	-0.111	0.710
-213.523	357.476	-0.403	-0.793
-212.509	85.824	0.704	-0.764
-211.494	636.604	0.175	-0.439
-210.479	-200.000	-0.127	-0.601
-209.465	385.006	0.239	-0.486
-208.450	-200.000	0.612	-0.003
-207.436	-103.079	0.764	0.179
-206.421	214.061	-0.569	0.889
-205.406	195.956	0.433	-0.650
-204.392	64.178	-0.238	-0.236
-203.377	263.789	0.390	0.670
-202.363	-4.249	-0.542	0.370
-201.348	-200.000	0.033	-0.391
-200.333	334.901	-0.437	-0.836
-199.319	-105.709	0.395	-0.088
-198.304	800.000	-0.188	0.596
-197.290	-49.083	-0.593	0.280
-196.275	-90.418	0.785	0.224
-195.260	675.829	0.348	0.891
-194.246	-82.560	0.518	-0.166
-193.231	4.092	0.682	-0.492
-192.217	118.742	-0.335	0.408
-191.202	-49.907	0.323	-0.151
-190.187	171.038	-0.731	-1.034
-189.173	360.622	0.103	0.204
-188.158	95.315	0.205	0.230
-187.144	36.027	0.621	-0.539
-186.129	-105.236	0.282	-0.063
-185.114	-187.620	0.570	-0.007
-184.100	-200.000	-0.084	0.669
-183.085	-200.000	-0.073	-0.400
-182.071	190.023	0.115	0.170
-181.056	196.502	-0.187	0.281
-180.042	-61.953	1.179	-0.486
-179.027	-42.762	-0.365	-0.183
-178.012	336.278	0.127	0.242
-176.998	800.000	-0.133	0.388
-175.983	-200.000	-0.027	0.555
-174.969	800.000	-0.118	-0.363
-173.954	-200.000	0.123	-0.589
-172.939	202.846	0.289	-0.440
-171.925	17.403	0.204	0.160
-170.910	-65.810	0.650	0.256
-169.896	-200.000	0.016	-0.131
-168.881	202.265	-0.096	-0.147
-167.866	-200.000	-0.123	0.903
-166.852	3.229	0.376	0.269
-165.837	800.000	0.157	-0.587
-164.823	7.684	0.617	0.455
-163.808	-200.000	0.003	0.354
-162.793	18.484	-0.647	-0.509
-161.779	-200.000	0.017	-0.493
-160.764	11.492	-0.257	-0.194
-159.750	-70.018	0.627	0.235
-158.735	800.000	-0.110	-0.394
-157.720	-126.819	-0.235	0.034
-156.706	153.137	-0.222	0.299
-155.691	-200.000	-0.050	0.741
-154.677	-61.377	-0.300	-0.124
-153.662	-200.000	-0.024	-0.113
-152.647	-163.462	0.243	0.011
-151.633	235.177	-0.321	0.521
-150.618	59.787	0.341	0.332
-149.604	216.786	-0.377	0.591
-148.589	-130.934	0.866	0.114
-147.574	214.364	0.482	-0.751
-146.560	385.086	-0.146	-0.297
-145.545	800.000	0.114	-0.346
-144.531	800.000	0.106	-0.346
-143.516	-132.301	-0.388	0.049
-142.502	-33.891	-0.242	0.131
-141.487	-200.000	0.063	0.450
-140.472	-9.862	0.076	-0.049
-139.458	-37.996	-0.139	0.073
-138.443	-200.000	0.080	0.546
-137.429	-65.975	0.259	-0.102
-136.414	191.172	0.153	0.227
-135.399	-88.277	-1.030	0.303
-134.385	44.710	0.284	0.257
-133.370	473.369	0.080	-0.179
-132.356	-143.213	-0.804	-0.076
-131.341	290.162	0.140	0.250
-130.326	474.782	-0.175	0.389
-129.312	322.588	-0.495	-0.927
-128.297	166.080	-0.354	-0.493
-127.283	7.437	-0.909	0.669
-126.268	-14.790	0.738	0.466
-125.253	3.528	-0.416	-0.298
-124.239	-55.980	0.133	-0.058
-123.224	264.794	0.396	-0.678
-122.210	-200.000	0.081	-0.667
-121.195	490.329	-0.207	-0.465
-120.180	800.000	0.193	-0.641
-119.166	-65.896	0.751	-0.295
-118.151	-161.539	0.160	-0.008
-117.137	-114.687	-0.254	0.048
-116.122	-91.784	0.675	0.189
-115.107	-200.000	-0.009	-0.747
-114.093	219.227	0.211	-0.331
-113.078	468.471	0.198	-0.437
-112.064	-200.000	-0.095	-0.827
-111.049	103.262	0.103	-0.119
-110.034	-174.074	0.583	-0.017
-109.020	-26.733	-0.196	-0.113
-108.005	358.202	0.136	-0.267
-106.991	197.824	0.395	-0.593
-105.976	-66.493	0.101	-0.039
-104.962	-13.112	-0.382	0.244
-103.947	800.000	0.236	-0.713
-102.932	-82.264	-0.105	0.034
-101.918	-54.705	-0.597	-0.265
-100.903	476.234	0.277	0.615
-99.889	800.000	0.301	-0.850
-98.874	-117.860	0.331	0.058
-97.859	-200.000	-0.010	-0.228
-96.845	-81.814	0.569	0.183
-95.830	-200.000	-0.002	0.125
-94.816	12.940	-0.250	-0.190
-93.801	109.214	-0.291	0.342
-92.786	-200.000	0.063	-0.810
-91.772	139.247	0.249	0.322
-90.757	-200.000	-0.123	0.564
-89.743	672.848	0.118	0.300
-88.728	-116.206	-0.415	0.076
-87.713	411.056	-0.301	-0.627
-86.699	-200.000	0.022	0.287
-85.684	-121.414	-0.522	-0.085
-84.670	11.333	0.546	-0.410
-83.655	15.676	0.604	0.466
-82.640	-9.682	-0.784	0.513
-81.626	85.705	-0.405	0.437
-80.611	43.902	0.384	-0.345
-79.597	200.652	-0.194	0.293
-78.582	-189.096	-0.107	0.001
-77.567	-113.277	0.352	0.068
-76.553	-200.000	-0.065	0.730
-75.538	-128.593	-0.418	-0.058
-74.524	26.503	-0.531	-0.436
-73.509	-200.000	0.015	-0.541
-72.494	800.000	-0.322	0.994
-71.480	-95.175	-0.827	-0.219
-70.465	-200.000	0.013	0.451
-69.451	-120.645	-0.210	0.035
-68.436	-200.000	-0.075	-0.371
-67.422	-101.800	0.170	0.040
-66.407	-126.479	-0.430	-0.063
-65.392	-70.350	-0.185	-0.069
-64.378	200.672	0.239	-0.360
-63.363	-41.679	0.356	-0.179
-62.349	-102.739	-0.603	0.141
-61.334	-19.135	-1.402	-0.855
-60.319	27.723	0.236	0.195
-59.305	-200.000	0.078	-0.692
-58.290	25.146	0.595	0.484
-57.276	56.805	1.126	1.076
-56.261	-200.000	96.561	604.660
-55.246	640.529	1367.813	3415.655
-54.232	201.512	2542.428	3841.724
-53.217	112.556	2246.670	2667.402
-52.203	41.551	1879.209	1668.944
-51.188	35.270	1672.909	1438.720
-50.173	32.800	1629.631	1383.357
-49.159	51.299	1680.742	1564.914
-48.144	51.986	1696.143	1584.305
-47.130	34.809	1656.548	1420.997
-46.115	32.059	1641.868	1388.051
-45.100	31.843	1636.676	1382.013
-44.086	31.673	1634.922	1379.229
-43.071	31.756	1632.126	1377.424
-42.057	31.844	1630.052	1376.262
-41.042	31.605	1628.107	1372.816
-40.027	31.978	1624.964	1372.838
-39.013	31.674	1623.931	1369.686
-37.998	31.725	1621.941	1368.328
-36.984	31.696	1621.074	1367.328
-35.969	31.807	1619.927	1367.122
-34.954	31.832	1617.896	1365.530
-33.940	31.855	1616.284	1364.288
-32.925	31.801	1614.626	1362.439
-31.911	31.893	1611.954	1360.799
-30.896	31.844	1609.789	1358.559
-29.881	31.955	1607.678	1357.531
-28.867	31.665	1607.905	1355.569
-27.852	31.976	1605.680	1355.888
-26.838	31.940	1603.897	1354.069
-25.823	31.975	1602.928	1353.447
-24.809	32.080	1600.688	1352.255
-23.794	31.812	1600.081	1349.760
-22.779	31.913	1598.951	1349.482
-21.765	31.910	1596.933	1347.705
-20.750	31.768	1595.907	1345.767
-19.736	32.029	1594.450	1346.358
-18.721	32.008	1591.869	1343.970
-17.706	32.001	1591.247	1343.346
-16.692	31.906	1589.664	1341.278
-15.677	31.900	1588.764	1340.416
-14.663	32.063	1587.961	1340.853
-13.648	31.890	1587.179	1338.904
-12.633	31.787	1584.511	1335.868
-11.619	31.903	1583.803	1336.044
-10.604	31.974	1581.797	1334.802
-9.590	31.885	1579.817	1332.448
-8.575	31.812	1580.106	1332.119
-7.560	31.928	1577.421	1330.627
-6.546	31.865	1576.514	1329.360
-5.531	31.934	1575.927	1329.304
-4.517	32.062	1574.453	1328.913
-3.502	32.064	1573.166	1327.785
-2.487	31.805	1571.673	1324.643
-1.473	31.676	1560.158	1313.983
-0.458	28.815	1539.693	1276.851
0.556	26.765	1541.556	1245.578
1.571	24.217	1563.630	1245.517
2.586	23.671	1576.726	1251.991
3.600	21.247	1522.393	1192.215
4.615	12.773	1414.765	1053.851
5.629	4.970	1353.087	959.917
6.644	3.543	1345.293	945.563
7.659	3.528	1343.388	944.051
8.673	3.252	1342.885	941.927
9.688	3.477	1340.127	941.279
10.702	3.532	1337.134	939.429
11.717	6.813	1343.690	964.003
12.731	15.848	1360.768	1031.788
13.746	23.198	1373.125	1086.358
14.761	24.934	1374.068	1097.657
15.775	24.862	1372.068	1095.525
16.790	24.389	1370.745	1091.478
17.804	24.077	1370.232	1089.062
18.819	24.052	1370.054	1088.672
19.834	23.932	1368.967	1086.977
20.848	24.282	1367.943	1088.204
21.863	24.003	1368.252	1086.653
22.877	24.201	1365.578	1085.640
23.892	24.204	1364.928	1085.047
24.907	24.016	1364.939	1083.809
25.921	24.169	1362.525	1082.727
26.936	24.075	1362.828	1082.305
27.950	24.004	1362.015	1081.133
28.965	23.971	1361.921	1080.760
29.980	24.349	1359.052	1080.679
30.994	24.178	1359.208	1079.672
32.009	24.286	1357.931	1079.216
33.023	24.384	1356.590	1078.646
34.038	24.384	1355.488	1077.676
35.053	24.099	1354.858	1075.359
36.067	24.166	1352.825	1074.050
37.082	24.025	1353.024	1073.266
38.096	24.179	1351.802	1073.131
39.111	23.869	1352.719	1071.893
40.126	23.950	1351.203	1071.083
41.140	23.963	1348.159	1068.656
42.155	23.485	1349.778	1066.970
43.169	23.406	1348.436	1065.338
44.184	23.507	1347.893	1065.423
45.199	23.566	1347.613	1065.457
46.213	23.692	1348.182	1066.570
47.228	24.083	1347.664	1068.416
48.242	23.936	1345.931	1066.065
49.257	24.143	1344.029	1065.705
50.271	23.968	1343.353	1064.029
51.286	24.134	1342.254	1064.052
52.301	23.899	1341.700	1062.117
53.315	23.830	1341.345	1061.332
54.330	23.981	1338.177	1059.626
55.344	23.818	1338.253	1058.627
56.359	23.708	1337.258	1057.091
57.374	23.851	1334.822	1055.919
58.388	23.732	1335.395	1055.573
59.403	23.531	1335.794	1054.599
60.417	23.569	1334.190	1053.465
61.432	23.310	1334.496	1052.074
62.447	23.561	1332.526	1051.920
63.461	23.629	1331.116	1051.115
64.476	23.552	1330.456	1050.043
65.490	23.488	1328.294	1047.867
66.505	23.514	1327.875	1047.597
67.520	23.779	1326.613	1048.073
68.534	23.462	1325.790	1045.459
69.549	23.658	1323.503	1044.718
70.563	23.251	1324.022	1042.641
71.578	23.118	1323.051	1041.001
72.593	23.044	1322.031	1039.669
73.607	23.266	1320.399	1039.596
74.622	23.319	1319.267	1038.925
75.636	23.444	1319.503	1039.750
76.651	23.315	1318.622	1038.208
77.666	23.264	1318.937	1038.066
78.680	23.564	1317.051	1038.250
79.695	23.252	1317.151	1036.405
80.709	23.513	1317.302	1037.961
81.724	23.663	1316.340	1037.993
82.739	24.148	1314.865	1039.566
83.753	24.011	1314.987	1038.770
84.768	24.063	1314.220	1038.376
85.782	24.169	1313.102	1038.020
86.797	24.401	1311.483	1037.996
87.812	24.477	1310.079	1037.236
88.826	23.960	1310.423	1034.409
89.841	24.169	1307.559	1033.271
90.855	24.244	1307.647	1033.682
91.870	24.346	1307.397	1033.985
92.884	24.343	1306.520	1033.187
93.899	24.521	1305.949	1033.673
94.914	24.392	1304.569	1031.740
95.928	24.439	1303.902	1031.393
96.943	24.353	1303.826	1030.748
97.957	24.313	1302.942	1029.727
98.972	24.331	1301.361	1028.489
99.987	24.187	1300.441	1026.838
101.001	24.082	1300.108	1025.882
102.016	24.151	1299.290	1025.541
103.030	24.375	1297.314	1025.178
104.045	24.331	1296.813	1024.442
105.060	23.999	1295.181	1021.155
106.074	23.591	1295.495	1018.973
107.089	23.596	1293.664	1017.466
108.103	23.565	1290.853	1014.992
109.118	23.402	1290.284	1013.523
110.133	23.416	1288.767	1012.322
111.147	23.259	1287.941	1010.687
112.162	23.491	1286.851	1011.065
113.176	23.644	1286.311	1011.423
114.191	23.878	1284.658	1011.365
115.206	23.583	1285.230	1010.046
116.220	23.797	1283.871	1010.104
117.235	23.627	1281.843	1007.455
118.249	23.311	1280.806	1004.756
119.264	23.448	1280.603	1005.289
120.279	23.422	1278.909	1003.722
121.293	23.342	1278.104	1002.550
122.308	23.343	1277.816	1002.237
123.322	23.247	1276.626	1000.675
124.337	23.138	1275.154	998.817
125.352	23.248	1273.812	998.298
126.366	23.425	1272.604	998.261
127.381	23.243	1272.316	996.920
128.395	22.997	1271.183	994.564
129.410	22.934	1270.787	993.809
130.424	23.150	1269.743	994.119
131.439	23.385	1268.225	994.160
132.454	23.365	1268.778	994.392
133.468	23.738	1268.062	995.838
134.483	23.481	1268.085	994.322
135.497	23.513	1266.909	993.497
136.512	23.511	1266.366	992.967
137.527	23.782	1263.435	992.095
138.541	23.565	1263.138	990.562
139.556	23.830	1261.775	990.885
140.570	23.695	1262.184	990.365
141.585	24.053	1261.108	991.429
142.600	24.111	1259.361	990.290
143.614	23.991	1260.623	990.526
144.629	24.186	1259.041	990.282
145.643	24.342	1256.999	989.452
146.658	23.781	1256.626	985.956
147.673	23.903	1254.981	985.258
148.687	23.922	1253.060	983.764
149.702	23.743	1251.950	981.818
150.716	23.463	1250.290	978.885
151.731	23.473	1250.042	978.659
152.746	23.214	1249.037	976.356
153.760	23.564	1247.019	976.621
154.775	23.489	1247.604	976.579
155.789	23.964	1246.600	978.318
156.804	23.865	1245.151	976.552
157.819	23.968	1243.860	976.019
158.833	24.213	1243.292	976.829
159.848	24.095	1243.166	975.996
160.862	24.124	1242.113	975.241
161.877	24.071	1240.530	973.624
162.892	23.659	1239.349	970.358
163.906	23.700	1237.861	969.330
164.921	23.261	1238.018	966.972
165.935	23.796	1236.462	968.589
166.950	23.647	1236.491	967.714
167.964	23.772	1236.294	968.154
168.979	23.656	1235.549	966.852
169.994	23.525	1234.954	965.589
171.008	23.644	1233.795	965.245
172.023	23.779	1233.699	965.816
173.037	24.019	1232.862	966.381
174.052	23.847	1231.846	964.563
175.067	23.801	1230.299	963.017
176.081	23.518	1229.820	961.029
177.096	23.422	1229.540	960.201
178.110	23.640	1227.534	959.731
179.125	23.646	1227.045	959.293
180.140	23.747	1226.312	959.184
181.154	23.966	1224.898	959.173
182.169	24.014	1224.374	958.936
183.183	23.829	1223.237	956.963
184.198	23.856	1222.226	956.234
185.213	23.761	1221.886	955.376
186.227	23.790	1219.974	953.950
187.242	24.395	1218.229	955.742
188.256	24.301	1218.039	955.004
189.271	24.245	1216.789	953.641
190.286	23.985	1216.734	952.121
191.300	23.756	1214.921	949.396
192.315	23.365	1215.328	947.540
193.329	23.827	1213.222	948.279
194.344	23.434	1213.852	946.588
195.359	23.693	1212.026	946.463
196.373	23.409	1211.567	944.506
197.388	23.509	1211.020	944.529
198.402	23.730	1212.245	946.580
199.417	24.206	1211.685	948.592
200.432	24.418	1211.383	949.400
201.446	24.331	1210.746	948.354
202.461	24.321	1209.580	947.304
203.475	24.200	1208.946	946.084
204.490	23.979	1206.730	943.094
205.504	23.710	1205.557	940.669
206.519	23.443	1205.083	938.799
207.534	23.346	1203.809	937.211
208.548	23.367	1202.093	935.905
209.563	23.799	1201.423	937.583
210.577	23.499	1200.959	935.554
211.592	23.703	1200.436	936.140
212.607	24.082	1200.442	938.059
213.621	24.288	1199.857	938.601
214.636	24.219	1197.730	936.494
215.650	23.923	1197.292	934.510
216.665	23.992	1196.481	934.160
217.680	24.116	1196.581	934.803
218.694	24.344	1195.716	935.241
219.709	24.530	1193.478	934.385
220.723	24.163	1193.865	932.683
221.738	24.182	1192.784	931.852
222.753	24.020	1192.920	931.031
223.767	23.761	1192.207	929.039
224.782	24.173	1190.486	929.763
225.796	24.387	1190.890	931.116
226.811	24.378	1189.951	930.250
227.826	24.181	1188.816	928.255
228.840	24.210	1188.294	927.914
229.855	23.946	1187.566	925.892
230.869	23.867	1186.789	924.793
231.884	23.836	1185.713	923.710
232.899	23.741	1184.387	922.102
233.913	23.633	1184.321	921.411
234.928	23.442	1184.287	920.313
235.942	23.526	1182.881	919.574
236.957	23.550	1181.145	918.265
237.972	23.486	1181.504	918.130
238.986	23.499	1180.957	917.695
240.001	23.756	1179.433	917.753
241.015	23.474	1179.648	916.385
242.030	23.532	1178.904	916.026
243.045	23.711	1177.821	916.026
244.059	23.864	1177.833	916.741
245.074	24.095	1176.628	916.913
246.088	24.059	1176.005	916.162
247.103	24.027	1175.752	915.719
248.117	24.251	1174.895	916.121
249.132	24.463	1174.535	916.851
250.147	24.921	1173.737	918.494
251.161	24.493	1174.541	916.845
252.176	24.930	1172.511	917.421
253.190	24.863	1173.112	917.465
254.205	25.333	1171.654	918.648
255.220	25.312	1171.557	918.384
256.234	25.054	1172.035	917.358
257.249	24.955	1170.175	915.314
258.263	25.209	1168.567	915.270
259.278	25.124	1168.756	914.903
260.293	25.016	1168.211	913.849
261.307	25.217	1166.620	913.544
262.322	24.955	1167.314	912.671
263.336	25.250	1166.005	913.070
264.351	24.918	1165.636	911.009
265.366	24.867	1165.123	910.268
266.380	24.949	1164.340	909.993
267.395	24.933	1164.969	910.324
268.409	24.892	1163.175	908.635
269.424	24.923	1161.568	907.457
270.439	24.691	1161.403	906.069
271.453	24.660	1160.578	905.188
272.468	24.655	1159.629	904.344
273.482	24.424	1158.986	902.595
274.497	24.533	1158.258	902.498
275.512	24.192	1158.513	900.894
276.526	24.437	1157.013	900.881
277.541	24.373	1156.715	900.246
278.555	24.693	1154.502	900.056
279.570	24.753	1155.474	901.041
280.585	24.815	1156.314	901.926
281.599	24.992	1153.938	900.886
282.614	24.910	1151.641	898.598
283.628	24.636	1151.255	896.842
284.643	24.878	1150.305	897.240
285.657	24.760	1148.200	894.925
286.672	24.634	1148.126	894.159
287.687	24.634	1148.027	894.000
288.701	24.850	1147.146	894.317
289.716	24.848	1146.456	893.689
290.730	24.524	1145.897	891.557
291.745	24.804	1144.566	891.837
292.760	24.789	1144.431	891.579
293.774	24.728	1144.395	891.170
294.789	25.228	1143.146	892.604
295.803	25.140	1143.681	892.508
296.818	24.590	1143.103	889.238
297.833	24.988	1140.592	889.185
298.847	24.604	1141.008	887.520
299.862	24.677	1139.356	886.521
300.876	24.309	1139.690	884.878
301.891	24.881	1138.899	887.021
302.906	25.081	1138.060	887.276
303.920	25.175	1139.113	888.484
304.935	25.368	1137.877	888.396
305.949	25.339	1136.249	886.906
306.964	25.207	1136.665	886.501
307.979	25.130	1136.307	885.760
308.993	25.179	1134.265	884.330
310.008	25.450	1133.110	884.690
311.022	25.186	1133.324	883.477
312.037	25.435	1132.081	883.655
313.052	25.137	1130.601	880.959
314.066	24.937	1130.078	879.492
315.081	24.655	1128.713	876.968
316.095	24.477	1128.451	875.811
317.110	24.647	1127.247	875.634
318.125	24.604	1127.219	875.325
319.139	24.330	1126.256	873.156
320.154	24.501	1126.239	873.902
321.168	24.473	1125.469	873.090
322.183	24.247	1125.889	872.236
323.197	24.673	1123.988	872.762
324.212	24.880	1122.772	872.754
325.227	24.960	1122.373	872.756
326.241	24.683	1122.571	871.481
327.256	24.566	1121.355	869.891
328.270	24.743	1120.965	870.370
329.285	24.551	1119.986	868.601
330.300	24.876	1118.604	869.033
331.314	24.588	1118.621	867.570
332.329	24.429	1116.713	865.241
333.343	24.598	1116.105	865.515
334.358	25.008	1115.382	866.859
335.373	25.145	1115.211	867.313
336.387	25.085	1115.665	867.299
337.402	25.200	1114.904	867.188
338.416	25.029	1114.580	866.033
339.431	25.071	1113.955	865.674
340.446	25.367	1113.279	866.497
341.460	25.555	1112.306	866.571
342.475	25.395	1111.897	865.403
343.489	25.541	1110.889	865.249
344.504	25.819	1109.949	865.776
345.519	25.927	1107.940	864.650
346.533	25.846	1108.016	864.243
347.548	25.516	1108.679	863.100
348.562	25.849	1106.061	862.580
349.577	25.229	1106.501	859.873
350.592	25.133	1105.210	858.339
351.606	25.045	1104.094	856.972
352.621	25.232	1102.278	856.379
353.635	24.556	1102.134	852.964
354.650	24.755	1101.672	853.485
355.665	25.178	1101.311	855.146
356.679	24.886	1101.427	853.767
357.694	25.083	1100.829	854.169
358.708	25.258	1099.812	854.135
359.723	25.290	1098.448	853.153
360.738	25.084	1098.185	851.893
361.752	25.367	1097.373	852.532
362.767	25.423	1097.249	852.627
363.781	25.246	1097.157	851.641
364.796	25.530	1096.215	852.179
365.810	25.858	1095.653	853.219
366.825	25.960	1095.662	853.636
367.840	26.055	1095.394	853.799
368.854	26.227	1094.752	854.039
369.869	26.153	1093.526	852.655
370.883	25.932	1092.798	850.969
371.898	25.812	1091.874	849.611
372.913	25.691	1091.292	848.508
373.927	25.837	1090.851	848.780
374.942	25.850	1090.592	848.563
375.956	25.730	1090.142	847.576
376.971	25.613	1089.609	846.536
377.986	25.863	1088.270	846.594
379.000	26.113	1088.457	847.839
380.015	26.116	1088.451	847.774
381.029	26.334	1087.748	848.172
382.044	26.192	1086.373	846.363
383.059	26.225	1085.162	845.498
384.073	26.142	1084.556	844.562
385.088	26.122	1083.660	843.696
386.102	26.044	1082.829	842.613
387.117	26.061	1081.541	841.612
388.132	25.550	1080.207	838.120
389.146	25.702	1080.106	838.676
390.161	25.507	1079.528	837.242
391.175	25.142	1079.357	835.339
392.190	25.563	1078.219	836.341
393.205	25.587	1078.488	836.589
394.219	25.779	1078.210	837.191
395.234	25.566	1076.884	835.099
396.248	25.670	1074.460	833.624
397.263	25.442	1073.083	831.430
398.278	25.516	1072.406	831.172
399.292	25.316	1072.764	830.453
400.307	25.310	1071.382	829.282
401.321	25.799	1070.423	830.720
402.336	25.186	1070.226	827.667
403.350	25.132	1070.083	827.234
404.365	25.375	1069.870	828.118
405.380	25.516	1069.388	828.322
406.394	25.743	1067.690	827.978
407.409	25.990	1067.936	829.228
408.423	26.106	1067.229	829.140
409.438	26.022	1065.436	827.289
410.453	25.729	1065.788	826.144
411.467	26.025	1065.127	826.916
412.482	26.110	1063.954	826.320
413.496	25.955	1064.310	825.817
414.511	26.430	1063.158	827.021
415.526	26.646	1062.773	827.635
416.540	26.730	1062.554	827.774
417.555	26.274	1062.672	825.708
418.569	26.388	1061.846	825.516
419.584	26.285	1061.639	824.810
420.599	26.457	1060.303	824.485
421.613	154.958	1404.136	1794.844
422.628	142.444	1454.204	1794.927
