DTS Sentinel unit serial number:	SN413079Multiplexer serial number:	ORYXHardware model number:	OX4-SRSoftware version number:	ORYX F/W v4.00 Oryx Data Collector v3.7.2.0data status	okinstallation	princeton_trtdifferential loss correction	single-endedforward channel	channel 2reverse channel	N/Adate	2019/09/12time	04:53:11forward acquisition time	60.00reverse acquisition time	0.00gamma	496.2192k internal	0.2326k external	0.2326temperature offset calibration	1.0086default loss term (dB/km)	0.3790temperature slope calibration	1.0000multiplexer offset coefficient	1.0000multiplexer slope coefficient	1.0000fibre end	0.00T internal ref (°C)	31.69T ext. ref 1 (°C)	1.89T ext. ref 2 (°C)	27.18length (m)	temperature (°C)	Stokes	anti-Stokes-747.200	316.537	-0.150	0.285
-746.185	800.000	-0.101	0.338
-745.171	-200.000	0.005	-0.377
-744.156	18.311	-0.064	0.052
-743.142	-160.542	-0.179	0.010
-742.127	421.710	0.122	0.265
-741.112	-200.000	-0.049	-0.275
-740.098	510.235	-0.064	0.151
-739.083	-195.253	0.178	-0.001
-738.069	-51.908	-0.185	0.087
-737.054	-88.264	-0.208	0.063
-736.039	318.634	0.086	-0.164
-735.025	-200.000	-0.035	0.236
-734.010	321.526	-0.113	-0.217
-732.996	-0.852	-0.257	-0.183
-731.981	-200.000	0.015	-0.137
-730.966	365.087	0.018	0.036
-729.952	235.279	0.131	-0.217
-728.937	-78.662	-0.234	0.080
-727.923	165.601	0.071	0.102
-726.908	-159.735	-0.203	-0.011
-725.894	-200.000	-0.008	-0.177
-724.879	-76.268	0.364	0.129
-723.864	479.861	-0.138	-0.315
-722.850	-104.302	-0.276	-0.065
-721.835	-149.207	-0.124	0.010
-720.821	-187.205	0.237	0.003
-719.806	215.130	0.066	-0.105
-718.791	45.590	-0.248	0.231
-717.777	661.426	-0.137	-0.355
-716.762	686.292	-0.110	0.289
-715.748	-200.000	-0.016	0.437
-714.733	-200.000	-0.009	0.187
-713.718	800.000	-0.092	-0.325
-712.704	-38.908	0.230	-0.122
-711.689	-32.651	0.215	0.121
-710.675	-88.270	0.294	-0.089
-709.660	-130.696	0.205	0.028
-708.645	114.591	0.240	-0.295
-707.631	-49.228	0.300	0.144
-706.616	-141.491	-0.363	0.037
-705.602	3.064	-0.259	-0.189
-704.587	-39.993	0.220	-0.116
-703.572	11.002	0.038	0.030
-702.558	-200.000	-0.008	-0.387
-701.543	-200.000	0.077	-0.352
-700.529	-146.692	-0.197	0.017
-699.514	99.640	0.155	0.180
-698.499	48.634	-0.084	0.079
-697.485	280.301	-0.050	0.090
-696.470	-186.238	-0.466	0.007
-695.456	800.000	0.065	-0.212
-694.441	-159.058	0.138	0.008
-693.426	-70.366	0.220	0.084
-692.412	549.919	-0.013	-0.031
-691.397	321.497	0.146	-0.279
-690.383	800.000	0.037	0.146
-689.368	34.333	0.092	0.081
-688.354	148.256	-0.293	0.398
-687.339	-76.359	-0.231	-0.082
-686.324	470.863	0.044	-0.100
-685.310	492.943	-0.063	0.145
-684.295	-129.633	-0.216	-0.030
-683.281	800.000	-0.076	-0.249
-682.266	-182.412	-0.295	0.005
-681.251	365.109	0.016	-0.032
-680.237	115.464	-0.241	0.297
-679.222	95.968	0.203	0.234
-678.208	346.628	0.052	-0.103
-677.193	44.409	0.266	0.246
-676.178	-106.555	0.231	-0.052
-675.164	315.413	0.104	-0.197
-674.149	-70.317	-0.207	-0.079
-673.135	190.818	-0.090	-0.137
-672.120	-200.000	0.055	0.254
-671.105	-200.000	-0.048	0.212
-670.091	-1.485	-0.362	0.257
-669.076	-200.000	0.006	-0.511
-668.062	800.000	0.040	0.123
-667.047	-200.000	-0.056	-0.379
-666.032	-150.219	-0.475	-0.037
-665.018	65.980	0.233	-0.238
-664.003	27.718	-0.059	0.050
-662.989	369.165	-0.183	0.372
-661.974	-139.467	0.164	0.018
-660.959	94.901	0.132	0.151
-659.945	58.899	-0.074	0.073
-658.930	133.561	-0.191	-0.249
-657.916	608.252	-0.035	0.088
-656.901	88.034	0.157	-0.175
-655.886	639.918	0.063	0.162
-654.872	-6.330	0.135	0.093
-653.857	-48.041	0.080	0.039
-652.843	-96.482	-0.120	-0.032
-651.828	-65.968	-0.193	0.077
-650.814	34.086	-0.189	-0.165
-649.799	-160.280	0.249	0.013
-648.784	156.362	0.174	0.241
-647.770	-200.000	0.031	-0.294
-646.755	800.000	0.089	-0.369
-645.741	58.200	-0.171	-0.168
-644.726	75.271	0.202	-0.214
-643.711	-44.908	-0.302	0.151
-642.697	-200.000	-0.033	-0.266
-641.682	493.750	-0.133	0.307
-640.668	56.031	0.146	-0.143
-639.653	-103.355	-0.157	0.037
-638.638	-79.360	0.208	-0.071
-637.624	464.302	0.024	0.054
-636.609	-92.871	-0.304	0.085
-635.595	-79.896	0.230	0.078
-634.580	800.000	-0.039	0.143
-633.565	25.036	0.191	-0.159
-632.551	-76.178	-0.049	-0.017
-631.536	18.767	-0.268	0.215
-630.522	800.000	-0.069	-0.205
-629.507	-50.203	0.072	-0.034
-628.492	34.981	-0.108	-0.095
-627.478	-200.000	0.002	0.019
-626.463	-200.000	0.003	0.022
-625.449	-126.976	-0.048	0.007
-624.434	-71.428	0.316	0.119
-623.419	-109.450	0.188	0.040
-622.405	112.820	-0.138	0.168
-621.390	129.365	0.122	-0.156
-620.376	-96.039	-0.169	-0.045
-619.361	800.000	0.061	0.244
-618.346	-105.224	0.256	-0.059
-617.332	-16.811	0.100	-0.064
-616.317	800.000	0.040	0.140
-615.303	14.682	-0.033	0.026
-614.288	441.576	-0.121	0.265
-613.273	-9.804	-0.045	0.030
-612.259	-81.829	0.231	-0.076
-611.244	-200.000	0.096	0.523
-610.230	-193.436	-0.317	0.003
-609.215	-98.155	-0.144	0.037
-608.201	-27.994	0.166	-0.096
-607.186	-200.000	-0.029	0.189
-606.171	-108.774	0.184	0.040
-605.157	-123.951	0.224	-0.035
-604.142	-200.000	-0.007	-0.066
-603.128	-16.787	0.330	-0.210
-602.113	-86.530	0.158	0.048
-601.098	-200.000	-0.020	0.219
-600.084	88.693	-0.209	0.233
-599.069	-200.000	-0.026	0.267
-598.055	147.967	0.178	0.241
-597.040	-91.475	0.101	-0.029
-596.025	-200.000	0.142	0.687
-595.011	98.905	0.098	-0.113
-593.996	-200.000	-0.039	0.391
-592.982	-76.864	0.294	0.103
-591.967	15.104	-0.185	0.145
-590.952	-200.000	-0.018	-0.130
-589.938	27.002	-0.123	-0.104
-588.923	-30.800	-0.178	-0.101
-587.909	3.870	-0.085	0.063
-586.894	5.342	0.011	-0.008
-585.879	-90.550	0.386	-0.112
-584.865	23.377	0.098	-0.081
-583.850	-163.147	0.063	-0.003
-582.836	150.613	0.093	0.127
-581.821	-200.000	-0.042	0.228
-580.806	21.638	-0.234	-0.191
-579.792	11.103	-0.092	0.071
-578.777	-143.925	0.332	0.031
-577.763	-200.000	0.032	0.188
-576.748	-52.592	0.330	0.153
-575.733	-8.755	0.182	-0.122
-574.719	-200.000	0.013	0.362
-573.704	-10.775	-0.142	0.094
-572.690	-46.128	-0.144	0.071
-571.675	70.890	-0.150	-0.155
-570.661	442.314	0.081	0.177
-569.646	26.902	0.236	0.198
-568.631	159.576	-0.096	0.134
-567.617	140.611	-0.144	0.190
-566.602	-200.000	0.031	-0.215
-565.588	368.261	-0.063	0.127
-564.573	-59.522	-0.120	0.051
-563.558	267.369	-0.069	0.120
-562.544	-200.000	-0.073	-0.401
-561.529	324.558	0.145	-0.277
-560.515	35.650	0.052	0.046
-559.500	538.952	-0.060	-0.142
-558.485	-90.666	0.080	-0.023
-557.471	164.243	-0.060	-0.085
-556.456	-200.000	0.043	-0.402
-555.442	108.798	0.076	0.092
-554.427	-168.855	-0.343	0.013
-553.412	615.502	-0.102	0.257
-552.398	800.000	-0.133	-0.458
-551.383	116.576	-0.131	0.161
-550.369	23.316	-0.092	0.076
-549.354	148.664	-0.199	-0.269
-548.339	347.296	-0.110	0.217
-547.325	-132.580	-0.212	0.027
-546.310	223.851	0.087	-0.141
-545.296	-116.115	-0.157	0.029
-544.281	-200.000	0.014	-0.132
-543.266	433.066	-0.042	0.091
-542.252	16.413	0.034	-0.027
-541.237	211.273	-0.100	0.157
-540.223	-116.889	0.092	0.017
-539.208	-9.315	0.104	-0.070
-538.193	-88.196	0.126	-0.038
-537.179	-162.360	0.216	-0.011
-536.164	-53.392	0.203	0.093
-535.150	-10.449	-0.176	0.117
-534.135	-124.187	-0.134	0.021
-533.121	573.225	-0.175	0.426
-532.106	246.891	-0.233	-0.393
-531.091	5.021	0.216	0.159
-530.077	82.739	-0.089	0.097
-529.062	115.482	-0.105	-0.128
-528.048	-163.297	-0.143	-0.007
-527.033	204.018	-0.052	-0.080
-526.018	-13.181	-0.124	0.081
-525.004	-144.759	-0.216	-0.020
-523.989	357.519	-0.074	0.148
-522.975	-168.388	-0.176	-0.007
-521.960	-31.208	-0.197	-0.111
-520.945	-106.213	-0.106	-0.024
-519.931	-200.000	0.010	0.054
-518.916	106.053	0.125	0.148
-517.902	-89.152	-0.084	-0.025
-516.887	103.285	-0.041	-0.048
-515.872	455.782	0.082	0.183
-514.858	-52.213	-0.142	-0.066
-513.843	-72.462	-0.254	-0.094
-512.829	-73.164	0.192	-0.070
-511.814	-25.828	-0.263	0.155
-510.799	800.000	-0.062	-0.177
-509.785	194.803	-0.130	-0.198
-508.770	43.539	-0.241	0.220
-507.756	-180.690	-0.261	0.005
-506.741	-200.000	0.008	-0.417
-505.726	29.411	-0.171	-0.145
-504.712	653.625	-0.122	0.312
-503.697	13.223	-0.215	0.166
-502.683	800.000	-0.031	0.092
-501.668	398.596	-0.176	0.369
-500.653	-52.708	0.095	0.044
-499.639	96.081	-0.097	0.110
-498.624	800.000	-0.082	0.275
-497.610	242.531	0.106	-0.176
-496.595	500.392	0.158	-0.364
-495.581	-43.725	-0.031	-0.015
-494.566	-97.284	0.071	0.018
-493.551	-118.087	-0.353	-0.063
-492.537	188.229	0.293	-0.438
-491.522	-200.000	-0.016	-0.177
-490.508	-200.000	0.024	0.293
-489.493	125.691	0.176	-0.222
-488.478	-200.000	0.058	-0.255
-487.464	75.997	0.137	-0.145
-486.449	-200.000	0.037	0.244
-485.435	-200.000	0.012	0.116
-484.420	800.000	-0.107	-0.327
-483.405	280.885	-0.077	-0.137
-482.391	156.609	-0.071	0.098
-481.376	42.215	0.190	0.172
-480.362	-93.830	-0.238	-0.065
-479.347	474.181	0.135	0.304
-478.332	-4.559	0.130	-0.090
-477.318	800.000	0.099	-0.329
-476.303	-200.000	0.032	-0.424
-475.289	-200.000	0.060	0.294
-474.274	-200.000	0.018	-0.134
-473.259	92.563	0.300	-0.337
-472.245	-61.511	-0.052	0.022
-471.230	-52.476	-0.092	-0.042
-470.216	26.737	0.155	0.130
-469.201	573.007	-0.106	0.258
-468.186	-110.273	0.443	0.092
-467.172	391.470	-0.125	-0.259
-466.157	-153.303	0.270	0.019
-465.143	-125.952	-0.159	0.024
-464.128	-200.000	0.046	-0.397
-463.113	-200.000	-0.062	0.397
-462.099	410.634	-0.185	0.390
-461.084	-130.653	-0.364	-0.049
-460.070	3.794	0.126	-0.091
-459.055	800.000	-0.007	-0.027
-458.040	-81.088	0.298	0.098
-457.026	-200.000	-0.019	0.394
-456.011	800.000	0.008	0.036
-454.997	105.311	-0.075	-0.088
-453.982	132.803	0.131	0.168
-452.968	544.331	-0.117	0.278
-451.953	16.878	-0.060	-0.047
-450.938	55.934	0.109	0.106
-449.924	-183.091	0.164	0.003
-448.909	-70.828	-0.137	0.051
-447.895	1.868	-0.141	-0.101
-446.880	21.420	0.148	-0.120
-445.865	81.428	0.190	0.204
-444.851	-67.360	-0.091	-0.036
-443.836	-149.140	-0.123	-0.010
-442.822	-82.224	-0.169	-0.055
-441.807	800.000	0.082	-0.255
-440.792	-99.793	-0.108	-0.027
-439.778	-200.000	-0.005	0.097
-438.763	-120.791	-0.178	-0.030
-437.749	-97.370	0.346	-0.090
-436.734	-200.000	0.011	-0.343
-435.719	-30.310	-0.171	-0.097
-434.705	-200.000	-0.037	-0.369
-433.690	213.809	-0.103	-0.162
-432.676	-68.206	-0.292	-0.113
-431.661	-42.018	-0.100	0.051
-430.646	197.459	0.055	0.083
-429.632	-200.000	0.028	-0.299
-428.617	-90.863	-0.196	0.056
-427.603	12.010	0.198	0.152
-426.588	-200.000	0.056	0.358
-425.573	15.075	-0.148	0.115
-424.559	323.898	0.077	-0.146
-423.544	20.545	-0.076	0.062
-422.530	-200.000	-0.015	0.153
-421.515	141.547	0.148	0.195
-420.500	3.845	-0.292	0.213
-419.486	-200.000	-0.015	-0.106
-418.471	-30.241	0.316	-0.179
-417.457	406.629	-0.113	0.238
-416.442	-39.746	0.299	0.156
-415.428	24.423	-0.249	-0.205
-414.413	-200.000	0.017	0.133
-413.398	-68.724	-0.230	-0.089
-412.384	492.536	-0.027	-0.062
-411.369	-105.793	0.193	-0.043
-410.355	12.543	0.105	-0.081
-409.340	164.197	-0.104	0.146
-408.325	6.457	-0.128	0.095
-407.311	-75.714	0.151	-0.053
-406.296	-200.000	-0.032	0.207
-405.282	-1.874	-0.161	-0.113
-404.267	84.139	-0.270	0.294
-403.252	29.957	-0.203	-0.172
-402.238	80.664	-0.393	-0.422
-401.223	-200.000	-0.033	-0.267
-400.209	70.867	-0.010	0.011
-399.194	58.741	-0.041	-0.040
-398.179	-200.000	-0.034	0.334
-397.165	-200.000	0.049	0.424
-396.150	-46.137	0.208	0.102
-395.136	20.611	-0.139	0.112
-394.121	-116.817	0.337	0.061
-393.106	-200.000	0.053	-0.538
-392.092	-97.475	0.216	-0.056
-391.077	189.893	-0.266	-0.397
-390.063	-129.077	-0.133	-0.019
-389.048	261.320	0.137	0.236
-388.033	-92.953	0.264	-0.073
-387.019	-31.023	0.015	0.009
-386.004	-200.000	0.029	-0.164
-384.990	-92.164	0.252	-0.071
-383.975	800.000	-0.074	-0.309
-382.960	160.161	0.029	0.041
-381.946	100.437	-0.162	-0.187
-380.931	-153.880	-0.289	0.020
-379.917	-91.881	-0.012	-0.003
-378.902	15.604	-0.097	-0.076
-377.888	-70.951	0.345	-0.129
-376.873	16.694	-0.122	0.096
-375.858	68.948	0.082	0.084
-374.844	525.617	-0.147	0.344
-373.829	43.772	0.144	0.131
-372.815	-200.000	0.037	0.193
-371.800	-200.000	-0.095	-0.440
-370.785	45.705	-0.204	0.188
-369.771	-40.257	0.202	0.104
-368.756	-45.700	0.160	-0.079
-367.742	-200.000	-0.035	-0.272
-366.727	773.650	-0.104	-0.283
-365.712	66.578	0.111	-0.113
-364.698	-200.000	-0.010	0.108
-363.683	-200.000	0.016	-0.221
-362.669	-200.000	0.021	0.157
-361.654	242.296	-0.135	-0.224
-360.639	-144.984	0.186	-0.017
-359.625	35.634	0.168	0.147
-358.610	471.517	-0.136	0.305
-357.596	-121.155	-0.297	-0.049
-356.581	-124.121	-0.121	0.019
-355.566	-34.662	0.137	-0.074
-354.552	-7.281	-0.262	0.176
-353.537	104.103	-0.073	-0.085
-352.523	-27.158	0.206	-0.120
-351.508	800.000	0.054	-0.166
-350.493	-200.000	0.008	-0.127
-349.479	-200.000	-0.035	0.468
-348.464	0.180	0.270	-0.191
-347.450	800.000	-0.013	-0.044
-346.435	33.896	0.035	-0.030
-345.420	179.475	-0.181	-0.263
-344.406	179.057	-0.029	-0.043
-343.391	800.000	0.045	0.125
-342.377	112.678	0.115	-0.138
-341.362	432.886	-0.068	0.146
-340.348	-32.937	-0.368	-0.203
-339.333	800.000	0.034	-0.118
-338.318	-108.585	-0.416	-0.089
-337.304	-200.000	-0.004	-0.103
-336.289	-53.091	-0.327	0.149
-335.275	-105.986	0.188	0.042
-334.260	-83.124	0.105	0.033
-333.245	-200.000	0.033	-0.195
-332.231	672.362	0.179	-0.460
-331.216	48.755	-0.081	0.076
-330.202	179.766	0.141	0.205
-329.187	-200.000	0.031	0.151
-328.172	202.643	-0.044	0.068
-327.158	-200.000	-0.022	-0.225
-326.143	451.206	-0.092	-0.201
-325.129	-89.714	-0.275	0.080
-324.114	800.000	-0.088	-0.245
-323.099	-70.522	0.032	0.012
-322.085	114.318	-0.216	0.261
-321.070	-29.549	0.228	-0.129
-320.056	-36.766	-0.096	-0.051
-319.041	-93.422	0.206	0.057
-318.026	-134.662	-0.075	-0.009
-317.012	57.495	-0.342	-0.332
-315.997	800.000	0.044	-0.183
-314.983	-74.960	0.189	-0.067
-313.968	-200.000	-0.017	-0.227
-312.953	296.877	0.106	0.192
-311.939	23.672	-0.342	-0.279
-310.924	17.501	-0.134	0.106
-309.910	378.788	0.105	0.214
-308.895	189.882	0.034	0.051
-307.880	-47.057	0.191	-0.092
-306.866	-28.208	0.290	0.166
-305.851	715.790	-0.112	0.296
-304.837	196.581	0.247	0.373
-303.822	-151.603	0.388	-0.028
-302.807	-48.193	0.124	-0.059
-301.793	-200.000	-0.048	0.371
-300.778	51.871	0.064	0.060
-299.764	800.000	-0.050	0.179
-298.749	-125.503	-0.166	-0.025
-297.735	800.000	0.059	0.241
-296.720	800.000	0.091	-0.298
-295.705	-36.780	0.236	0.125
-294.691	-174.316	-0.243	0.007
-293.676	-61.195	-0.149	-0.062
-292.662	792.550	0.067	0.182
-291.647	144.434	-0.149	-0.197
-290.632	-200.000	0.022	-0.109
-289.618	-200.000	-0.004	0.242
-288.603	800.000	0.046	0.138
-287.589	800.000	0.152	0.468
-286.574	-200.000	0.048	0.216
-285.559	-200.000	-0.032	-0.146
-284.545	383.883	-0.152	-0.311
-283.530	800.000	0.016	0.054
-282.516	-200.000	0.033	-0.237
-281.501	-54.361	0.092	0.041
-280.486	-38.204	-0.371	0.195
-279.472	-115.867	-0.166	-0.031
-278.457	-17.582	0.124	0.077
-277.443	68.680	-0.294	0.299
-276.428	49.138	0.184	-0.171
-275.413	50.826	0.322	0.302
-274.399	-200.000	-0.088	0.485
-273.384	800.000	0.059	0.219
-272.370	-86.337	0.253	-0.077
-271.355	-200.000	-0.005	-0.085
-270.340	41.694	0.196	-0.176
-269.326	-200.000	0.044	-0.334
-268.311	670.511	0.198	0.508
-267.297	-70.820	-0.028	-0.010
-266.282	285.254	0.051	-0.091
-265.267	800.000	0.024	0.079
-264.253	-68.595	0.213	-0.081
-263.238	800.000	-0.059	0.211
-262.224	800.000	0.062	-0.196
-261.209	800.000	0.096	-0.373
-260.195	354.626	0.114	-0.224
-259.180	-81.212	0.137	-0.045
-258.165	238.097	0.091	0.149
-257.151	45.010	0.186	-0.169
-256.136	-200.000	0.052	0.296
-255.122	133.610	-0.216	-0.277
-254.107	-200.000	-0.024	-0.283
-253.092	-57.156	-0.113	0.049
-252.078	25.723	-0.143	0.118
-251.063	589.941	-0.148	-0.361
-250.049	-200.000	-0.016	-0.247
-249.034	9.274	-0.117	0.088
-248.019	207.098	-0.079	-0.121
-247.005	800.000	0.102	0.369
-245.990	-72.154	0.102	0.038
-244.976	25.684	0.187	0.154
-243.961	-38.899	-0.192	-0.100
-242.946	106.337	-0.070	0.082
-241.932	53.338	0.034	-0.033
-240.917	-49.771	0.065	0.030
-239.903	800.000	-0.039	0.110
-238.888	414.691	-0.076	-0.160
-237.873	-54.331	-0.268	-0.120
-236.859	101.523	-0.075	-0.086
-235.844	-12.762	0.210	-0.135
-234.830	-200.000	0.017	-0.093
-233.815	-99.009	0.305	0.076
-232.800	57.177	-0.076	-0.073
-231.786	-25.897	0.285	0.166
-230.771	42.590	-0.129	-0.116
-229.757	4.628	-0.202	-0.146
-228.742	-153.581	0.310	-0.021
-227.727	-155.117	-0.282	0.018
-226.713	374.053	0.075	0.151
-225.698	-200.000	-0.027	0.135
-224.684	200.465	-0.306	-0.464
-223.669	453.521	-0.120	-0.263
-222.655	-200.000	-0.005	-0.041
-221.640	158.240	0.191	-0.262
-220.625	545.827	0.137	0.323
-219.611	-200.000	-0.001	0.018
-218.596	-200.000	0.001	-0.175
-217.582	61.697	0.101	0.100
-216.567	-34.144	0.149	0.081
-215.552	126.259	0.064	-0.079
-214.538	-58.366	-0.186	-0.080
-213.523	-200.000	-0.008	0.089
-212.509	-78.513	0.072	-0.024
-211.494	-3.233	-0.185	0.127
-210.479	-200.000	-0.030	0.517
-209.465	486.831	0.105	0.236
-208.450	117.447	-0.124	-0.150
-207.436	118.365	0.145	-0.176
-206.421	105.516	-0.246	0.287
-205.406	93.037	-0.100	0.112
-204.392	-55.641	0.316	0.140
-203.377	800.000	0.046	-0.176
-202.363	800.000	-0.080	-0.279
-201.348	-8.260	-0.205	0.136
-200.333	37.552	0.182	-0.159
-199.319	-200.000	-0.031	-0.170
-198.304	237.618	0.238	-0.389
-197.290	-47.813	0.198	-0.095
-196.275	-86.860	-0.160	-0.048
-195.260	157.553	0.177	0.242
-194.246	-71.301	0.119	0.044
-193.231	17.503	-0.068	-0.053
-192.217	87.142	0.239	0.260
-191.202	320.093	-0.117	0.219
-190.187	-157.378	-0.363	-0.022
-189.173	-39.405	-0.235	-0.121
-188.158	183.044	-0.166	-0.242
-187.144	351.647	0.085	-0.166
-186.129	-131.755	0.305	-0.039
-185.114	-62.638	-0.191	0.078
-184.100	-92.084	0.387	-0.108
-183.085	-38.414	0.285	0.149
-182.071	406.000	0.194	-0.403
-181.056	23.567	0.126	0.102
-180.042	1.913	0.197	0.140
-179.027	13.833	0.346	0.265
-178.012	-10.693	-0.199	-0.130
-176.998	235.895	0.078	-0.127
-175.983	-84.994	-0.293	0.091
-174.969	112.839	-0.107	-0.128
-173.954	-88.253	0.149	0.044
-172.939	302.697	-0.110	0.201
-171.925	57.938	-0.077	0.075
-170.910	-200.000	-0.029	0.126
-169.896	-200.000	-0.068	-0.463
-168.881	-84.479	0.367	-0.114
-167.866	-129.278	0.173	0.024
-166.852	86.167	-0.144	-0.156
-165.837	-3.446	0.434	0.297
-164.823	178.275	-0.223	0.322
-163.808	78.597	0.116	-0.122
-162.793	-145.601	0.294	-0.026
-161.779	-47.105	0.285	-0.137
-160.764	64.278	0.223	0.221
-159.750	-200.000	-0.000	0.136
-158.735	5.020	-0.226	-0.164
-157.720	142.780	0.211	-0.276
-156.706	382.701	-0.070	-0.142
-155.691	174.764	-0.085	-0.121
-154.677	-166.457	-0.166	-0.007
-153.662	-91.299	-0.217	-0.061
-152.647	66.336	-0.037	-0.037
-151.633	-188.774	-0.227	-0.003
-150.618	2.137	-0.092	-0.065
-149.604	800.000	0.025	0.104
-148.589	-200.000	0.031	0.167
-147.574	-163.923	0.056	-0.003
-146.560	65.301	0.174	0.173
-145.545	-145.212	0.112	-0.010
-144.531	-5.096	-0.104	-0.071
-143.516	800.000	0.040	0.152
-142.502	-102.708	-0.288	0.068
-141.487	-130.728	-0.192	-0.025
-140.472	-200.000	0.043	-0.311
-139.458	473.548	0.061	0.136
-138.443	-44.071	0.139	-0.069
-137.429	-91.106	0.025	-0.007
-136.414	-200.000	0.048	0.279
-135.399	-200.000	-0.013	-0.075
-134.385	-200.000	-0.025	-0.128
-133.370	-65.457	0.108	0.043
-132.356	-200.000	0.007	0.147
-131.341	-81.533	0.104	-0.034
-130.326	50.042	-0.104	-0.097
-129.312	336.868	-0.122	-0.233
-128.297	-200.000	-0.052	0.236
-127.283	545.985	0.153	-0.360
-126.268	40.045	0.064	-0.057
-125.253	135.750	0.130	-0.167
-124.239	204.369	-0.118	-0.179
-123.224	-200.000	-0.024	-0.290
-122.210	364.269	0.128	-0.254
-121.195	-200.000	-0.030	-0.189
-120.180	-121.864	-0.265	0.043
-119.166	800.000	0.086	-0.319
-118.151	-91.851	-0.345	0.096
-117.137	311.444	-0.233	-0.429
-116.122	-200.000	0.014	0.132
-115.107	800.000	-0.058	-0.232
-114.093	-9.425	-0.223	-0.146
-113.078	-44.578	-0.124	-0.061
-112.064	21.325	-0.224	-0.179
-111.049	-74.861	-0.170	-0.060
-110.034	85.232	-0.142	-0.154
-109.020	265.545	0.123	0.211
-108.005	181.808	-0.084	0.121
-106.991	800.000	-0.037	0.124
-105.976	-131.226	0.242	-0.032
-104.962	640.589	0.125	0.313
-103.947	800.000	0.103	0.385
-102.932	-62.952	-0.120	0.049
-101.918	460.710	0.068	0.149
-100.903	38.341	-0.072	0.063
-99.889	37.692	0.340	-0.297
-98.874	-65.046	0.114	-0.045
-97.859	158.677	-0.166	0.226
-96.845	-48.382	0.159	0.075
-95.830	479.516	-0.108	-0.240
-94.816	-58.385	-0.432	-0.185
-93.801	-200.000	-0.004	-0.043
-92.786	-200.000	0.016	-0.292
-91.772	37.154	0.286	-0.249
-90.757	-53.559	-0.184	-0.083
-89.743	257.097	-0.097	0.164
-88.728	153.052	0.185	0.248
-87.713	-125.683	-0.221	-0.033
-86.699	-200.000	0.049	-0.328
-85.684	800.000	-0.099	0.294
-84.670	-200.000	-0.071	-0.306
-83.655	-200.000	-0.063	-0.309
-82.640	-108.402	0.082	-0.017
-81.626	395.835	0.045	0.093
-80.611	800.000	-0.076	-0.239
-79.597	-110.745	-0.197	-0.040
-78.582	-200.000	-0.022	-0.096
-77.567	127.813	0.073	0.091
-76.553	-111.281	0.102	0.021
-75.538	-154.254	0.134	0.009
-74.524	84.277	0.161	0.173
-73.509	406.875	0.088	-0.184
-72.494	13.495	0.145	-0.110
-71.480	16.815	-0.050	-0.039
-70.465	-101.861	-0.141	0.033
-69.451	200.882	-0.126	0.191
-68.436	-200.000	0.018	-0.124
-67.422	67.760	-0.242	-0.243
-66.407	361.014	-0.133	-0.261
-65.392	73.824	0.374	0.386
-64.378	216.179	-0.018	-0.028
-63.363	-200.000	0.033	0.407
-62.349	80.320	0.206	-0.218
-61.334	269.066	-0.612	-1.054
-60.319	-90.671	0.498	0.141
-59.305	-200.000	-0.213	-0.997
-58.290	182.889	0.683	0.990
-57.276	248.871	0.747	1.242
-56.261	-200.000	96.673	599.628
-55.246	559.255	1370.621	3248.072
-54.232	161.212	2556.947	3508.849
-53.217	106.021	2263.890	2630.656
-52.203	41.034	1891.476	1676.610
-51.188	34.853	1682.473	1444.758
-50.173	32.253	1638.324	1387.632
-49.159	49.847	1685.665	1559.784
-48.144	51.358	1701.793	1585.952
-47.130	34.563	1662.581	1425.286
-46.115	31.817	1648.193	1392.527
-45.100	31.630	1643.170	1386.844
-44.086	31.640	1640.857	1384.913
-43.071	31.671	1638.304	1382.928
-42.057	31.588	1635.863	1380.203
-41.042	31.601	1633.826	1378.530
-40.027	31.556	1632.081	1376.665
-39.013	31.562	1629.877	1374.798
-37.998	31.451	1628.616	1372.863
-36.984	31.515	1627.281	1372.155
-35.969	31.732	1625.176	1371.913
-34.954	31.816	1623.374	1370.953
-33.940	31.693	1622.156	1368.974
-32.925	31.664	1620.831	1367.587
-31.911	31.739	1618.749	1366.324
-30.896	31.704	1616.721	1364.299
-29.881	31.646	1615.348	1362.670
-28.867	31.733	1613.551	1361.730
-27.852	31.674	1611.935	1359.888
-26.838	31.673	1610.799	1358.865
-25.823	31.590	1609.488	1357.104
-24.809	31.756	1607.928	1356.936
-23.794	31.779	1606.302	1355.677
-22.779	31.636	1605.447	1353.868
-21.765	31.677	1603.551	1352.509
-20.750	31.668	1602.349	1351.376
-19.736	31.646	1600.796	1349.853
-18.721	31.737	1598.907	1348.867
-17.706	31.772	1597.285	1347.696
-16.692	31.677	1595.717	1345.637
-15.677	31.661	1594.674	1344.587
-14.663	31.809	1593.545	1344.643
-13.648	31.781	1592.146	1343.211
-12.633	31.736	1590.740	1341.651
-11.619	31.717	1589.192	1340.155
-10.604	31.683	1587.414	1338.357
-9.590	31.739	1586.188	1337.669
-8.575	31.729	1584.889	1336.454
-7.560	31.770	1583.897	1335.852
-6.546	31.699	1582.852	1334.412
-5.531	31.749	1581.783	1333.816
-4.517	31.648	1580.841	1332.251
-3.502	31.734	1579.538	1331.707
-2.487	31.791	1577.394	1330.256
-1.473	31.458	1565.956	1318.212
-0.458	29.066	1547.451	1285.893
0.556	26.204	1549.254	1258.367
1.571	24.082	1573.599	1262.993
2.586	23.744	1586.571	1270.874
3.600	20.736	1531.398	1205.763
4.615	11.300	1419.812	1056.920
5.629	3.376	1354.886	959.322
6.644	1.985	1347.257	945.222
7.659	1.911	1346.416	944.089
8.673	1.857	1344.915	942.622
9.688	1.828	1342.518	940.679
10.702	1.652	1339.363	937.302
11.717	5.126	1346.729	963.856
12.731	15.177	1365.690	1040.023
13.746	23.774	1380.133	1104.627
14.761	26.116	1383.755	1122.004
15.775	26.522	1383.934	1124.572
16.790	26.604	1383.339	1124.497
17.804	26.750	1382.445	1124.577
18.819	26.926	1382.441	1125.569
19.834	27.077	1381.623	1125.740
20.848	27.059	1381.006	1125.021
21.863	27.096	1380.028	1124.359
22.877	27.170	1378.848	1123.753
23.892	27.122	1378.066	1122.720
24.907	27.053	1377.703	1121.901
25.921	27.078	1376.554	1121.016
26.936	27.200	1375.099	1120.486
27.950	27.067	1374.479	1119.059
28.965	27.139	1373.038	1118.232
29.980	27.049	1372.281	1116.966
30.994	27.041	1370.825	1115.633
32.009	27.155	1369.647	1115.271
33.023	27.094	1368.818	1114.126
34.038	27.093	1367.829	1113.214
35.053	27.103	1366.639	1112.213
36.067	27.157	1365.707	1111.682
37.082	27.043	1365.086	1110.379
38.096	27.077	1363.488	1109.190
39.111	27.026	1363.055	1108.432
40.126	27.053	1362.363	1107.937
41.140	27.126	1361.766	1107.793
42.155	26.987	1361.690	1106.790
43.169	27.152	1361.377	1107.439
44.184	27.075	1361.349	1106.855
45.199	27.144	1360.417	1106.416
46.213	27.100	1360.057	1105.757
47.228	27.150	1358.961	1105.070
48.242	27.235	1357.871	1104.604
49.257	27.082	1356.493	1102.461
50.271	27.096	1355.152	1101.356
51.286	27.196	1353.485	1100.508
52.301	27.174	1352.349	1099.356
53.315	27.096	1351.601	1098.180
54.330	27.101	1351.175	1097.767
55.344	27.041	1350.392	1096.668
56.359	27.061	1348.788	1095.388
57.374	27.114	1348.113	1095.062
58.388	27.176	1347.414	1094.776
59.403	27.034	1347.430	1093.836
60.417	27.127	1346.487	1093.530
61.432	27.157	1345.596	1092.894
62.447	27.128	1344.847	1092.010
63.461	27.038	1344.068	1090.744
64.476	27.130	1342.856	1090.213
65.490	27.195	1341.556	1089.453
66.505	27.105	1340.361	1087.846
67.520	27.140	1339.319	1087.114
68.534	27.153	1337.978	1086.006
69.549	27.148	1337.234	1085.279
70.563	27.074	1336.749	1084.346
71.578	27.156	1335.145	1083.439
72.593	27.064	1334.202	1082.027
73.607	27.105	1333.961	1081.984
74.622	27.105	1333.076	1081.168
75.636	27.130	1332.294	1080.588
76.651	27.177	1331.657	1080.255
77.666	27.120	1331.374	1079.587
78.680	27.050	1331.227	1078.961
79.695	27.018	1330.411	1078.014
80.709	27.085	1329.570	1077.633
81.724	27.141	1328.258	1076.806
82.739	27.143	1327.398	1076.023
83.753	27.085	1326.586	1074.928
84.768	27.081	1325.686	1074.078
85.782	27.124	1324.370	1073.176
86.797	27.087	1323.509	1072.163
87.812	27.204	1322.539	1071.975
88.826	27.187	1321.291	1070.764
89.841	27.143	1320.199	1069.527
90.855	27.133	1319.213	1068.575
91.870	27.201	1318.453	1068.262
92.884	27.266	1317.624	1067.880
93.899	27.292	1316.860	1067.320
94.914	27.143	1316.411	1065.987
95.928	27.188	1315.294	1065.251
96.943	27.192	1314.794	1064.774
97.957	27.138	1314.562	1064.174
98.972	27.248	1312.807	1063.305
99.987	27.135	1312.058	1061.941
101.001	27.080	1311.243	1060.869
102.016	27.213	1310.282	1060.775
103.030	27.192	1309.406	1059.847
104.045	27.239	1308.879	1059.604
105.060	27.131	1307.899	1058.085
106.074	27.139	1307.235	1057.499
107.089	27.226	1305.704	1056.677
108.103	27.160	1304.856	1055.509
109.118	27.177	1303.494	1054.418
110.133	27.265	1302.443	1053.981
111.147	27.256	1301.650	1053.195
112.162	27.214	1300.382	1051.834
113.176	27.306	1299.310	1051.404
114.191	27.311	1298.685	1050.832
115.206	27.300	1297.179	1049.461
116.220	27.300	1296.196	1048.571
117.235	27.298	1295.659	1048.035
118.249	27.240	1294.922	1047.010
119.264	27.199	1294.289	1046.167
120.279	27.246	1293.425	1045.651
121.293	27.330	1292.463	1045.264
122.308	27.311	1291.810	1044.532
123.322	27.352	1291.289	1044.254
124.337	27.302	1289.880	1042.734
125.352	27.289	1289.405	1042.182
126.366	27.304	1288.688	1041.597
127.381	27.318	1287.502	1040.625
128.395	27.360	1286.375	1039.866
129.410	27.393	1286.043	1039.695
130.424	27.261	1285.544	1038.445
131.439	27.260	1284.354	1037.382
132.454	27.366	1283.577	1037.271
133.468	27.315	1283.014	1036.434
134.483	27.335	1282.171	1035.774
135.497	27.379	1281.338	1035.258
136.512	27.245	1280.519	1033.744
137.527	27.327	1279.244	1033.088
138.541	27.328	1277.974	1031.978
139.556	27.195	1277.418	1030.681
140.570	27.350	1276.301	1030.570
141.585	27.346	1275.346	1029.685
142.600	27.300	1274.602	1028.734
143.614	27.215	1273.464	1027.245
144.629	27.273	1272.238	1026.490
145.643	27.310	1270.885	1025.513
146.658	27.226	1270.202	1024.398
147.673	27.186	1269.335	1023.385
148.687	27.215	1268.625	1022.884
149.702	27.262	1267.156	1021.873
150.716	27.287	1266.077	1021.056
151.731	27.337	1265.346	1020.655
152.746	27.303	1264.350	1019.571
153.760	27.416	1262.800	1018.866
154.775	27.355	1262.097	1017.865
155.789	27.349	1261.262	1017.068
156.804	27.346	1260.047	1015.981
157.819	27.251	1259.636	1015.030
158.833	27.352	1258.941	1014.941
159.848	27.248	1258.523	1013.937
160.862	27.315	1257.786	1013.628
161.877	27.385	1256.633	1012.996
162.892	27.269	1256.302	1011.993
163.906	27.461	1254.989	1011.913
164.921	27.550	1253.912	1011.451
165.935	27.480	1253.245	1010.437
166.950	27.407	1252.845	1009.618
167.964	27.536	1252.187	1009.715
168.979	27.474	1251.868	1009.023
169.994	27.405	1251.287	1008.084
171.008	27.480	1250.498	1007.774
172.023	27.442	1249.521	1006.690
173.037	27.471	1248.844	1006.216
174.052	27.497	1248.464	1005.964
175.067	27.454	1247.645	1004.976
176.081	27.455	1246.768	1004.184
177.096	27.421	1246.103	1003.373
178.110	27.515	1244.896	1002.832
179.125	27.475	1244.194	1001.959
180.140	27.472	1243.122	1000.986
181.154	27.556	1241.997	1000.455
182.169	27.459	1241.061	999.082
183.183	27.358	1240.030	997.608
184.198	27.526	1238.762	997.418
185.213	27.443	1238.219	996.439
186.227	27.470	1237.360	995.811
187.242	27.547	1236.400	995.370
188.256	27.487	1235.726	994.410
189.271	27.577	1234.433	993.773
190.286	27.436	1234.658	993.098
191.300	27.493	1233.891	992.702
192.315	27.410	1233.172	991.584
193.329	27.413	1233.099	991.454
194.344	27.503	1232.376	991.275
195.359	27.544	1231.770	990.923
196.373	27.488	1230.990	989.904
197.388	27.461	1230.996	989.672
198.402	27.330	1230.986	988.865
199.417	27.417	1230.282	988.686
200.432	27.533	1229.731	988.782
201.446	27.473	1229.233	987.969
202.461	27.505	1228.322	987.324
203.475	27.634	1227.117	986.968
204.490	27.571	1226.503	986.044
205.504	27.560	1225.229	984.872
206.519	27.456	1224.821	983.897
207.534	27.610	1223.186	983.329
208.548	27.777	1222.457	983.556
209.563	27.618	1221.995	982.242
210.577	27.601	1221.071	981.317
211.592	27.665	1219.965	980.687
212.607	27.723	1219.554	980.580
213.621	27.694	1218.577	979.554
214.636	27.560	1218.087	978.354
215.650	27.641	1217.396	978.148
216.665	27.657	1216.191	977.179
217.680	27.615	1215.655	976.436
218.694	27.673	1214.184	975.477
219.709	27.715	1213.929	975.409
220.723	27.765	1212.927	974.788
221.738	27.602	1212.322	973.342
222.753	27.641	1211.929	973.150
223.767	27.685	1211.312	972.802
224.782	27.856	1210.434	972.924
225.796	27.851	1210.378	972.766
226.811	27.887	1209.402	972.087
227.826	27.753	1209.136	971.074
228.840	27.666	1208.839	970.288
229.855	27.829	1207.718	970.169
230.869	27.757	1207.034	969.149
231.884	27.680	1206.467	968.198
232.899	27.709	1205.793	967.727
233.913	27.678	1205.757	967.451
234.928	27.896	1204.785	967.740
235.942	27.738	1204.185	966.331
236.957	27.764	1203.458	965.803
237.972	27.681	1202.934	964.857
238.986	27.743	1202.313	964.603
240.001	27.848	1201.382	964.323
241.015	27.909	1200.863	964.144
242.030	27.819	1200.103	962.973
243.045	27.947	1199.298	962.916
244.059	27.942	1198.272	961.983
245.074	28.022	1197.186	961.444
246.088	27.952	1196.850	960.724
247.103	27.981	1196.044	960.142
248.117	27.957	1195.274	959.315
249.132	27.913	1194.219	958.151
250.147	28.035	1194.172	958.670
251.161	28.009	1193.560	957.955
252.176	27.993	1192.410	956.864
253.190	27.974	1192.527	956.773
254.205	27.927	1191.470	955.597
255.220	28.035	1190.597	955.377
256.234	27.996	1190.037	954.637
257.249	28.076	1189.457	954.504
258.263	28.137	1188.694	954.126
259.278	28.039	1188.528	953.397
260.293	27.974	1188.240	952.745
261.307	28.115	1187.393	952.715
262.322	28.126	1186.687	952.122
263.336	28.190	1185.665	951.551
264.351	28.037	1185.322	950.398
265.366	28.078	1185.171	950.403
266.380	28.066	1184.215	949.491
267.395	28.135	1183.335	949.057
268.409	28.184	1182.688	948.710
269.424	27.949	1182.585	947.327
270.439	28.158	1181.746	947.654
271.453	28.229	1181.023	947.357
272.468	28.163	1180.215	946.284
273.482	28.079	1179.678	945.337
274.497	28.121	1179.436	945.276
275.512	28.185	1179.085	945.238
276.526	28.182	1177.977	944.252
277.541	28.281	1177.169	944.031
278.555	28.211	1176.789	943.281
279.570	28.231	1175.915	942.599
280.585	28.088	1175.429	941.390
281.599	28.216	1174.368	941.118
282.614	28.136	1173.277	939.750
283.628	28.134	1172.838	939.303
284.643	28.225	1171.986	939.007
285.657	28.333	1171.196	938.841
286.672	28.305	1169.854	937.538
287.687	28.230	1169.280	936.616
288.701	28.220	1168.725	936.036
289.716	28.308	1168.193	935.977
290.730	28.205	1167.618	934.907
291.745	28.366	1166.770	934.968
292.760	28.297	1166.295	934.150
293.774	28.322	1165.906	933.884
294.789	28.335	1165.636	933.654
295.803	28.300	1164.998	932.878
296.818	28.383	1163.875	932.322
297.833	28.432	1163.270	932.002
298.847	28.321	1162.643	930.854
299.862	28.456	1161.871	930.839
300.876	28.330	1161.370	929.715
301.891	28.402	1161.022	929.721
302.906	28.451	1160.126	929.169
303.920	28.448	1159.523	928.587
304.935	28.468	1158.735	927.977
305.949	28.374	1158.056	926.876
306.964	28.409	1157.798	926.764
307.979	28.608	1156.758	926.853
308.993	28.564	1156.669	926.479
310.008	28.508	1155.635	925.286
311.022	28.550	1154.819	924.761
312.037	28.627	1153.689	924.162
313.052	28.599	1153.153	923.512
314.066	28.611	1152.758	923.173
315.081	28.480	1151.743	921.620
316.095	28.574	1150.960	921.386
317.110	28.633	1150.484	921.220
318.125	28.497	1150.239	920.256
319.139	28.536	1149.491	919.774
320.154	28.638	1148.557	919.457
321.168	28.680	1148.315	919.392
322.183	28.620	1147.447	918.313
323.197	28.596	1147.070	917.811
324.212	28.613	1146.516	917.373
325.227	28.618	1146.327	917.166
326.241	28.690	1145.343	916.654
327.256	28.691	1144.784	916.132
328.270	28.652	1143.790	915.059
329.285	28.753	1143.319	915.105
330.300	28.642	1142.671	913.953
331.314	28.631	1141.709	913.048
332.329	28.848	1140.584	913.145
333.343	28.813	1139.952	912.385
334.358	28.743	1139.398	911.517
335.373	28.713	1138.815	910.817
336.387	28.690	1138.132	910.079
337.402	28.780	1137.227	909.722
338.416	28.776	1136.903	909.362
339.431	28.784	1136.224	908.776
340.446	28.862	1135.312	908.354
341.460	28.921	1134.928	908.254
342.475	28.915	1134.249	907.601
343.489	28.879	1133.362	906.636
344.504	29.007	1131.805	905.938
345.519	28.867	1131.219	904.702
346.533	28.982	1130.604	904.694
347.548	28.891	1130.210	903.850
348.562	28.971	1129.469	903.570
349.577	28.929	1128.765	902.721
350.592	28.759	1128.199	901.357
351.606	28.866	1127.143	900.955
352.621	28.930	1126.673	900.815
353.635	28.960	1126.291	900.576
354.650	28.985	1125.489	899.978
355.665	29.066	1124.738	899.692
356.679	29.030	1124.107	898.935
357.694	29.043	1123.794	898.666
358.708	29.016	1123.181	897.966
359.723	29.050	1122.426	897.450
360.738	28.975	1121.826	896.524
361.752	29.038	1121.141	896.202
362.767	29.118	1120.566	896.055
363.781	29.151	1120.162	895.812
364.796	29.084	1119.847	895.158
365.810	29.148	1118.939	894.661
366.825	29.083	1118.706	894.080
367.840	29.104	1117.967	893.512
368.854	29.202	1117.529	893.559
369.869	29.201	1116.728	892.834
370.883	29.082	1115.919	891.534
371.898	29.181	1114.976	891.181
372.913	29.128	1114.801	890.702
373.927	29.197	1114.321	890.575
374.942	29.088	1114.032	889.739
375.956	29.266	1113.621	890.191
376.971	29.275	1112.274	889.082
377.986	29.202	1111.895	888.346
379.000	29.348	1111.508	888.663
380.015	29.356	1110.827	888.077
381.029	29.329	1110.044	887.245
382.044	29.402	1109.343	886.955
383.059	29.354	1109.100	886.450
384.073	29.416	1107.946	885.749
385.088	29.466	1107.457	885.519
386.102	29.347	1106.606	884.190
387.117	29.322	1106.035	883.537
388.132	29.234	1105.365	882.502
389.146	29.293	1104.579	882.079
390.161	29.335	1104.184	881.886
391.175	29.458	1103.031	881.472
392.190	29.422	1102.662	880.927
393.205	29.590	1101.486	880.713
394.219	29.577	1100.803	880.029
395.234	29.435	1100.495	879.028
396.248	29.411	1099.761	878.245
397.263	29.518	1098.646	877.788
398.278	29.594	1098.379	877.861
399.292	29.633	1097.730	877.448
400.307	29.500	1097.105	876.237
401.321	29.569	1096.327	875.870
402.336	29.522	1095.912	875.233
403.350	29.500	1095.328	874.588
404.365	29.712	1094.450	874.812
405.380	29.660	1093.530	873.753
406.394	29.565	1093.300	873.042
407.409	29.711	1092.078	872.682
408.423	29.651	1091.566	871.910
409.438	29.652	1090.875	871.284
410.453	29.740	1090.444	871.278
411.467	29.748	1089.562	870.535
412.482	29.756	1088.811	869.895
413.496	29.645	1088.614	869.139
414.511	29.841	1087.742	869.287
415.526	29.682	1087.403	868.193
416.540	29.675	1087.042	867.793
417.555	29.753	1086.510	867.657
418.569	29.756	1086.153	867.312
419.584	29.765	1085.624	866.855
420.599	29.710	1085.409	866.348
421.613	104.431	1323.575	1460.912
422.628	97.185	1358.238	1460.984
