DTS Sentinel unit serial number:	SN413079Multiplexer serial number:	ORYXHardware model number:	OX4-SRSoftware version number:	ORYX F/W v4.00 Oryx Data Collector v3.7.2.0data status	okinstallation	princeton_trtdifferential loss correction	single-endedforward channel	channel 2reverse channel	N/Adate	2019/09/14time	18:39:34forward acquisition time	60.00reverse acquisition time	0.00gamma	496.2192k internal	0.2319k external	0.2319temperature offset calibration	1.0103default loss term (dB/km)	0.3790temperature slope calibration	1.0000multiplexer offset coefficient	1.0000multiplexer slope coefficient	1.0000fibre end	0.00T internal ref (°C)	36.30T ext. ref 1 (°C)	4.93T ext. ref 2 (°C)	30.06length (m)	temperature (°C)	Stokes	anti-Stokes-747.200	-120.940	0.372	0.063
-746.185	125.110	-0.054	0.069
-745.171	-136.892	0.070	0.008
-744.156	600.398	-0.113	0.283
-743.142	-200.000	-0.015	-0.151
-742.127	2.755	0.232	0.170
-741.112	-41.105	0.261	0.137
-740.098	-64.747	-0.158	0.065
-739.083	800.000	-0.013	0.054
-738.069	-200.000	0.018	0.179
-737.054	307.413	0.013	0.024
-736.039	-126.546	-0.244	-0.037
-735.025	1.856	-0.171	0.125
-734.010	205.500	0.204	-0.320
-732.996	-14.869	-0.139	0.090
-731.981	194.162	0.069	0.106
-730.966	-200.000	-0.001	0.270
-729.952	22.128	-0.143	0.118
-728.937	-79.351	-0.210	-0.072
-727.923	2.246	0.155	-0.113
-726.908	-200.000	0.001	0.254
-725.894	243.308	-0.155	0.263
-724.879	-200.000	0.029	-0.249
-723.864	12.732	-0.079	-0.062
-722.850	76.893	0.209	-0.224
-721.835	800.000	-0.037	0.106
-720.821	-72.681	-0.513	-0.191
-719.806	63.499	-0.175	0.178
-718.791	800.000	-0.054	0.208
-717.777	106.582	-0.265	-0.317
-716.762	800.000	0.035	-0.154
-715.748	63.948	0.147	-0.150
-714.733	30.830	0.331	-0.286
-713.718	-0.476	-0.144	-0.104
-712.704	-11.571	-0.243	-0.162
-711.689	-186.424	0.016	-0.000
-710.675	404.760	-0.135	0.286
-709.660	142.016	-0.111	-0.149
-708.645	-49.251	-0.165	0.079
-707.631	27.098	0.044	0.037
-706.616	-69.733	0.181	-0.070
-705.602	-200.000	-0.025	-0.328
-704.587	-104.697	-0.282	0.066
-703.572	245.047	-0.146	-0.248
-702.558	21.171	-0.282	-0.231
-701.543	290.127	-0.008	0.014
-700.529	121.306	-0.058	0.073
-699.514	519.971	-0.160	0.378
-698.499	-101.801	-0.343	0.084
-697.485	-37.125	-0.197	-0.106
-696.470	215.599	-0.096	-0.154
-695.456	330.152	-0.126	0.245
-694.441	-168.611	-0.368	-0.014
-693.426	-14.473	-0.134	0.087
-692.412	626.677	-0.039	-0.098
-691.397	800.000	-0.043	0.173
-690.383	98.061	-0.123	-0.142
-689.368	-48.134	0.224	-0.109
-688.354	69.467	-0.198	0.206
-687.339	-86.701	-0.191	0.059
-686.324	59.957	0.143	-0.142
-685.310	5.712	-0.154	-0.115
-684.295	1.259	-0.198	0.144
-683.281	1.286	-0.283	0.205
-682.266	-88.418	-0.072	0.022
-681.251	-4.652	0.320	0.223
-680.237	800.000	0.100	-0.308
-679.222	-4.358	0.223	0.155
-678.208	646.658	0.125	-0.323
-677.193	445.701	0.172	-0.382
-676.178	5.152	0.212	-0.158
-675.164	-96.568	-0.108	0.029
-674.149	-137.379	0.217	-0.025
-673.135	-139.677	0.209	-0.022
-672.120	-15.305	0.236	-0.152
-671.105	159.381	0.026	-0.037
-670.091	722.306	0.117	-0.313
-669.076	-102.064	-0.295	0.072
-668.062	-22.306	-0.223	0.136
-667.047	-95.778	0.213	-0.057
-666.032	-200.000	0.046	-0.202
-665.018	-200.000	-0.021	0.249
-664.003	313.432	0.175	0.332
-662.989	5.857	0.167	-0.124
-661.974	-133.647	0.279	0.035
-660.959	-129.461	0.274	-0.038
-659.945	714.420	0.136	-0.362
-658.930	-60.109	-0.070	0.030
-657.916	-200.000	0.078	-0.462
-656.901	78.591	0.120	-0.129
-655.886	259.215	-0.129	-0.225
-654.872	422.360	0.145	-0.313
-653.857	174.011	0.185	-0.270
-652.843	-14.974	-0.357	0.231
-651.828	-57.496	0.088	-0.039
-650.814	750.239	0.093	0.252
-649.799	262.642	0.115	0.202
-648.784	-38.632	-0.244	0.130
-647.770	-31.724	0.258	0.146
-646.755	-7.428	-0.165	-0.113
-645.741	-200.000	-0.014	-0.258
-644.726	800.000	-0.049	-0.212
-643.711	-95.153	0.340	0.093
-642.697	-79.392	-0.442	0.151
-641.682	197.308	-0.023	-0.036
-640.668	-12.849	-0.288	0.189
-639.653	-51.405	0.388	0.183
-638.638	-117.012	0.319	0.059
-637.624	-25.997	-0.240	0.142
-636.609	-103.185	0.256	-0.061
-635.595	-60.412	0.194	-0.083
-634.580	17.312	-0.007	-0.006
-633.565	800.000	-0.039	0.152
-632.551	-49.047	0.218	-0.105
-631.536	148.582	0.076	0.103
-630.522	-200.000	0.009	-0.396
-629.507	-120.215	-0.100	0.017
-628.492	-153.187	-0.251	-0.018
-627.478	-130.965	0.136	0.018
-626.463	372.133	-0.162	-0.332
-625.449	166.976	0.054	0.078
-624.434	56.431	0.092	-0.090
-623.419	118.910	-0.181	0.225
-622.405	-196.609	-0.276	-0.002
-621.390	78.443	0.189	-0.203
-620.376	302.368	0.201	0.374
-619.361	-200.000	-0.062	0.346
-618.346	800.000	0.034	-0.107
-617.332	334.955	0.084	0.163
-616.317	62.606	-0.282	0.284
-615.303	219.817	0.124	0.200
-614.288	-200.000	0.012	-0.150
-613.273	-200.000	-0.003	0.029
-612.259	201.740	0.258	0.400
-611.244	-88.171	0.172	0.052
-610.230	-200.000	-0.064	-0.302
-609.215	-10.747	-0.039	0.026
-608.201	-200.000	0.030	0.162
-607.186	226.013	-0.063	0.103
-606.171	-200.000	0.042	0.216
-605.157	3.983	0.179	-0.132
-604.142	-200.000	0.020	0.000
-603.128	-200.000	-0.008	-0.141
-602.113	292.440	-0.012	-0.022
-601.098	145.643	0.171	0.231
-600.084	87.467	-0.048	0.054
-599.069	-200.000	0.004	-0.635
-598.055	-43.330	-0.267	-0.136
-597.040	47.115	-0.154	0.144
-596.025	-67.148	0.156	-0.062
-595.011	-40.923	-0.052	-0.027
-593.996	157.781	0.112	-0.157
-592.982	-18.876	-0.164	0.103
-591.967	-169.068	-0.192	-0.007
-590.952	32.197	0.102	0.089
-589.938	-107.934	0.184	-0.040
-588.923	323.745	-0.083	-0.159
-587.909	126.233	0.092	-0.117
-586.894	-91.221	-0.196	-0.057
-585.879	-16.348	-0.325	-0.208
-584.865	422.450	-0.051	-0.111
-583.850	-36.054	0.063	-0.034
-582.836	17.502	0.307	-0.245
-581.821	-189.186	0.092	0.001
-580.806	177.290	-0.169	-0.248
-579.792	-33.203	0.098	0.055
-578.777	149.812	0.020	0.028
-577.763	800.000	0.030	0.124
-576.748	-15.216	0.235	-0.151
-575.733	-27.097	-0.098	-0.057
-574.719	30.809	0.206	0.177
-573.704	-35.695	-0.027	0.015
-572.690	800.000	0.068	-0.221
-571.675	-200.000	-0.014	-0.217
-570.661	706.516	-0.056	0.148
-569.646	-93.395	-0.251	0.070
-568.631	-200.000	-0.013	-0.085
-567.617	-59.746	0.166	-0.071
-566.602	9.011	0.167	-0.127
-565.588	-139.753	-0.308	-0.033
-564.573	249.485	-0.063	-0.107
-563.558	305.387	0.043	0.080
-562.544	281.445	-0.124	0.224
-561.529	-128.587	-0.177	-0.025
-560.515	50.749	0.097	0.093
-559.500	800.000	-0.018	-0.062
-558.485	18.236	-0.025	0.020
-557.471	261.723	-0.132	-0.230
-556.456	-78.577	-0.525	-0.180
-555.442	161.025	-0.199	0.280
-554.427	800.000	0.017	0.065
-553.412	-0.156	0.207	0.148
-552.398	230.914	-0.117	-0.193
-551.383	350.602	0.079	-0.156
-550.369	37.128	-0.223	-0.198
-549.354	-104.818	-0.177	0.041
-548.339	15.634	0.220	-0.174
-547.325	-85.312	0.095	0.030
-546.310	51.595	0.233	-0.223
-545.296	-117.801	0.366	-0.066
-544.281	315.938	-0.100	-0.190
-543.266	43.516	-0.139	-0.127
-542.252	-53.986	-0.086	0.039
-541.237	22.921	0.161	-0.132
-540.223	305.952	-0.090	-0.169
-539.208	-29.674	0.246	-0.141
-538.193	16.292	-0.282	-0.224
-537.179	-94.897	0.199	0.054
-536.164	11.883	-0.111	-0.085
-535.150	-200.000	-0.020	-0.126
-534.135	-1.523	0.378	0.267
-533.121	-200.000	-0.021	-0.206
-532.106	202.242	-0.185	-0.286
-531.091	800.000	0.025	0.083
-530.077	800.000	-0.052	-0.217
-529.062	82.373	-0.032	0.034
-528.048	-103.009	0.393	-0.094
-527.033	18.811	0.018	0.015
-526.018	-29.667	-0.272	-0.156
-525.004	42.328	0.121	0.111
-523.989	-131.460	-0.479	0.063
-522.975	444.392	-0.014	-0.032
-521.960	-8.145	0.130	0.088
-520.945	800.000	-0.076	0.237
-519.931	-87.026	0.141	0.043
-518.916	4.993	-0.146	0.107
-517.902	800.000	-0.106	0.464
-516.887	-200.000	0.008	0.266
-515.872	800.000	0.029	0.090
-514.858	135.512	0.088	0.114
-513.843	-23.520	0.103	0.062
-512.829	-94.690	0.139	-0.038
-511.814	-136.134	-0.317	-0.037
-510.799	-152.515	0.168	-0.012
-509.785	-45.355	0.091	0.045
-508.770	42.757	0.222	0.203
-507.756	-111.155	0.179	-0.037
-506.741	-200.000	0.002	-0.316
-505.726	286.558	0.283	-0.512
-504.712	9.162	0.131	0.100
-503.697	-163.235	-0.336	0.016
-502.683	246.347	-0.230	0.388
-501.668	53.137	-0.200	0.192
-500.653	-56.288	-0.029	0.013
-499.639	-114.356	0.100	0.019
-498.624	-200.000	0.017	-0.111
-497.610	-200.000	0.008	-0.057
-496.595	-72.896	-0.252	0.093
-495.581	82.092	-0.093	-0.101
-494.566	-53.055	-0.105	0.048
-493.551	-200.000	0.003	0.329
-492.537	-100.423	-0.148	-0.037
-491.522	-200.000	0.013	-0.256
-490.508	800.000	-0.050	0.215
-489.493	4.186	-0.358	0.263
-488.478	-89.245	-0.197	-0.058
-487.464	-70.415	0.100	0.038
-486.449	271.927	-0.165	0.292
-485.435	-87.651	0.215	0.065
-484.420	-65.056	-0.228	0.092
-483.405	-186.552	0.019	0.000
-482.391	49.785	0.198	-0.187
-481.376	-200.000	0.023	-0.113
-480.362	16.266	0.131	-0.104
-479.347	585.307	-0.115	-0.282
-478.332	-30.606	0.213	0.121
-477.318	-29.108	-0.192	0.110
-476.303	-50.699	0.106	0.050
-475.289	-93.446	0.084	-0.023
-474.274	-9.243	0.208	-0.139
-473.259	-200.000	0.023	-0.560
-472.245	172.958	-0.271	-0.391
-471.230	292.743	0.093	0.170
-470.216	-200.000	-0.018	0.100
-469.201	-50.660	0.103	-0.048
-468.186	29.905	0.255	-0.218
-467.172	94.483	-0.062	0.071
-466.157	-200.000	-0.030	0.358
-465.143	-146.713	-0.414	0.036
-464.128	-200.000	0.003	-0.045
-463.113	84.152	0.021	-0.023
-462.099	-64.399	0.136	0.055
-461.084	800.000	-0.111	-0.345
-460.070	646.273	-0.138	0.352
-459.055	18.104	0.064	-0.051
-458.040	199.746	0.073	-0.112
-457.026	-127.690	-0.302	0.044
-456.011	-136.713	-0.207	0.024
-454.997	554.164	0.082	0.197
-453.982	-200.000	0.018	0.192
-452.968	19.064	0.154	-0.124
-451.953	800.000	-0.053	0.158
-450.938	449.388	-0.109	-0.240
-449.924	-200.000	0.030	-0.281
-448.909	-65.949	0.136	-0.054
-447.895	504.580	0.096	-0.222
-446.880	252.201	-0.019	0.033
-445.865	485.857	-0.065	-0.149
-444.851	-200.000	-0.006	0.122
-443.836	685.264	0.078	0.203
-442.822	-35.181	-0.160	-0.087
-441.807	1.306	0.114	-0.082
-440.792	-85.893	-0.153	0.047
-439.778	756.042	-0.177	0.479
-438.763	-200.000	-0.016	-0.229
-437.749	-200.000	-0.030	0.217
-436.734	-13.920	0.062	-0.040
-435.719	337.368	-0.178	-0.347
-434.705	-49.832	-0.226	-0.107
-433.690	261.063	-0.139	0.240
-432.676	-200.000	-0.006	0.188
-431.661	-123.002	-0.288	-0.046
-430.646	236.754	-0.182	0.302
-429.632	-200.000	0.013	0.170
-428.617	267.625	-0.103	0.181
-427.603	-79.464	0.228	0.077
-426.588	-114.628	0.181	0.035
-425.573	-104.732	0.121	-0.028
-424.559	341.556	-0.147	0.287
-423.544	-113.452	-0.082	-0.016
-422.530	51.381	-0.236	0.224
-421.515	342.632	-0.098	-0.192
-420.500	2.575	-0.112	-0.081
-419.486	-0.943	-0.013	-0.009
-418.471	-147.529	-0.263	-0.022
-417.457	-40.157	-0.213	0.111
-416.442	-9.883	0.101	-0.067
-415.428	-46.049	-0.237	0.116
-414.413	-36.542	0.190	0.102
-413.398	-84.161	0.061	0.019
-412.384	-72.489	-0.226	-0.083
-411.369	-87.288	-0.374	-0.113
-410.355	683.408	0.075	-0.196
-409.340	-200.000	-0.014	0.162
-408.325	-50.355	0.293	-0.138
-407.311	-173.617	-0.200	0.006
-406.296	-97.689	0.121	0.031
-405.282	7.028	0.287	-0.213
-404.267	-200.000	0.065	-0.346
-403.252	492.822	0.054	-0.124
-402.238	-200.000	-0.079	0.394
-401.223	-26.842	0.048	-0.028
-400.209	104.703	0.278	-0.327
-399.194	227.796	0.066	0.107
-398.179	-158.671	-0.509	0.029
-397.165	161.329	-0.173	0.241
-396.150	-200.000	0.042	-0.194
-395.136	-165.742	-0.294	0.013
-394.121	-79.023	0.440	-0.149
-393.106	170.025	-0.173	-0.246
-392.092	213.266	0.158	-0.249
-391.077	800.000	0.026	0.086
-390.063	-200.000	0.015	-0.235
-389.048	-56.745	-0.212	-0.094
-388.033	495.174	0.080	0.184
-387.019	-200.000	-0.050	0.357
-386.004	-200.000	0.015	0.102
-384.990	-200.000	-0.011	-0.178
-383.975	-31.773	-0.345	-0.193
-382.960	800.000	-0.076	-0.298
-381.946	800.000	-0.067	-0.277
-380.931	92.446	-0.263	-0.295
-379.917	-200.000	-0.027	-0.204
-378.902	200.557	-0.113	-0.174
-377.888	-200.000	-0.019	0.170
-376.873	354.114	-0.115	0.228
-375.858	-200.000	-0.002	0.245
-374.844	-71.342	-0.207	-0.077
-373.829	182.693	-0.142	-0.209
-372.815	-37.587	-0.184	0.098
-371.800	-0.967	-0.066	-0.047
-370.785	-200.000	0.014	-0.149
-369.771	-131.662	0.225	0.029
-368.756	149.975	0.113	0.153
-367.742	-61.828	-0.158	-0.066
-366.727	83.694	0.124	-0.135
-365.712	130.404	-0.149	-0.191
-364.698	-70.180	0.152	-0.058
-363.683	71.574	-0.260	-0.269
-362.669	51.355	-0.086	-0.081
-361.654	3.456	0.224	-0.162
-360.639	-14.752	0.044	0.028
-359.625	-48.595	-0.062	0.030
-358.610	-41.848	-0.331	0.169
-357.596	236.182	0.132	0.217
-356.581	800.000	-0.031	0.089
-355.566	-200.000	0.005	0.181
-354.552	-200.000	0.006	0.068
-353.537	148.655	-0.263	-0.354
-352.523	90.516	-0.127	-0.142
-351.508	272.302	0.197	0.346
-350.493	-200.000	0.005	-0.127
-349.479	121.731	-0.080	-0.099
-348.464	230.114	-0.105	0.171
-347.450	800.000	-0.112	-0.380
-346.435	318.997	-0.093	-0.176
-345.420	-68.807	-0.309	-0.119
-344.406	800.000	-0.002	0.009
-343.391	-8.137	0.191	-0.128
-342.377	41.686	-0.097	0.088
-341.362	27.244	-0.401	0.336
-340.348	-200.000	0.044	-0.274
-339.333	237.406	0.059	-0.097
-338.318	504.649	0.042	-0.098
-337.304	446.166	0.046	-0.101
-336.289	237.691	0.134	0.221
-335.275	665.127	0.060	0.154
-334.260	83.530	-0.089	-0.096
-333.245	569.053	0.057	0.138
-332.231	800.000	0.190	0.602
-331.216	-95.777	0.197	0.052
-330.202	-131.846	0.354	-0.046
-329.187	-62.985	-0.129	-0.053
-328.172	-7.615	0.082	-0.055
-327.158	-200.000	-0.011	0.202
-326.143	215.207	0.044	0.069
-325.129	-79.680	-0.414	-0.139
-324.114	-1.750	0.054	0.038
-323.099	-73.749	-0.303	-0.110
-322.085	62.719	0.315	0.313
-321.070	13.013	0.133	0.103
-320.056	-200.000	0.011	0.123
-319.041	697.195	0.063	-0.164
-318.026	-118.348	0.193	-0.034
-317.012	71.522	0.227	0.235
-315.997	-108.074	-0.176	0.038
-314.983	-140.862	-0.202	0.021
-313.968	72.041	0.113	0.117
-312.953	-200.000	0.029	0.216
-311.939	201.508	0.143	0.219
-310.924	800.000	-0.033	0.145
-309.910	-57.100	-0.208	0.091
-308.895	-146.054	0.074	0.006
-307.880	-43.819	-0.067	-0.033
-306.866	-49.421	0.151	0.071
-305.851	-4.795	-0.108	-0.074
-304.837	286.133	-0.101	-0.182
-303.822	-179.576	0.195	-0.004
-302.807	3.898	0.041	-0.030
-301.793	305.327	-0.044	-0.082
-300.778	-163.738	-0.307	0.014
-299.764	178.994	-0.214	0.311
-298.749	800.000	0.050	-0.213
-297.735	-13.506	0.072	-0.046
-296.720	577.231	0.023	-0.057
-295.705	-130.535	-0.288	-0.039
-294.691	33.530	-0.237	-0.205
-293.676	251.354	0.128	0.217
-292.662	-200.000	-0.016	-0.209
-291.647	-134.850	0.354	-0.043
-290.632	-69.394	-0.273	0.104
-289.618	340.369	0.093	0.180
-288.603	89.100	0.212	0.235
-287.589	343.815	-0.039	0.076
-286.574	-123.571	-0.278	0.044
-285.559	-3.805	0.079	0.054
-284.545	12.212	0.132	0.101
-283.530	692.882	-0.113	-0.295
-282.516	325.679	0.182	-0.346
-281.501	-115.086	0.089	0.017
-280.486	-200.000	0.034	0.166
-279.472	-152.376	-0.374	-0.027
-278.457	-136.513	-0.328	0.038
-277.443	274.601	0.083	0.146
-276.428	-35.469	0.127	0.068
-275.413	-58.196	0.319	-0.138
-274.399	65.825	0.072	-0.072
-273.384	-132.692	-0.178	0.023
-272.370	688.630	-0.095	0.247
-271.355	-123.700	0.256	-0.040
-270.340	800.000	-0.038	-0.127
-269.326	394.744	0.084	-0.173
-268.311	-78.100	0.085	0.029
-267.297	-80.600	0.258	-0.085
-266.282	167.731	-0.101	-0.143
-265.267	409.498	-0.151	0.318
-264.253	-17.225	-0.256	0.160
-263.238	548.930	-0.141	-0.335
-262.224	230.317	-0.183	-0.298
-261.209	-1.123	-0.128	0.090
-260.195	66.013	-0.055	0.055
-259.180	800.000	-0.031	0.088
-258.165	-200.000	-0.005	-0.165
-257.151	204.503	-0.111	0.170
-256.136	-186.941	0.397	0.005
-255.122	439.004	0.143	-0.309
-254.107	800.000	0.053	-0.204
-253.092	50.291	0.165	0.154
-252.078	259.458	0.068	0.116
-251.063	122.307	-0.093	-0.115
-250.049	-200.000	-0.017	0.094
-249.034	-34.469	-0.123	0.067
-248.019	-156.274	-0.281	-0.018
-247.005	70.121	0.176	-0.181
-245.990	-200.000	0.007	0.035
-244.976	113.504	-0.093	-0.113
-243.961	41.026	0.248	0.222
-242.946	5.316	0.127	0.093
-241.932	-200.000	0.011	-0.059
-240.917	66.884	-0.118	-0.119
-239.903	53.797	-0.019	-0.018
-238.888	-177.154	0.213	-0.005
-237.873	-68.688	0.198	-0.076
-236.859	-200.000	0.037	-0.170
-235.844	103.557	0.157	-0.182
-234.830	-77.811	0.227	0.078
-233.815	-38.511	0.444	0.233
-232.800	800.000	0.130	-0.383
-231.786	12.874	-0.177	-0.135
-230.771	-41.764	0.030	-0.015
-229.757	-63.371	-0.150	0.061
-228.742	-128.412	-0.094	0.013
-227.727	-200.000	-0.056	0.286
-226.713	-200.000	-0.035	-0.357
-225.698	-93.341	-0.101	-0.028
-224.684	-48.549	0.111	0.053
-223.669	-60.724	0.053	-0.022
-222.655	-200.000	0.058	-0.390
-221.640	-14.290	-0.156	-0.099
-220.625	233.106	0.102	-0.166
-219.611	39.249	0.217	0.192
-218.596	42.924	-0.032	0.029
-217.582	189.538	0.370	0.550
-216.567	800.000	0.149	0.445
-215.552	-21.463	0.066	-0.040
-214.538	-64.055	0.154	0.062
-213.523	-200.000	-0.019	0.123
-212.509	147.784	0.216	-0.288
-211.494	-131.994	0.301	0.039
-210.479	-65.471	-0.095	-0.038
-209.465	188.986	0.153	0.227
-208.450	-50.953	-0.080	0.037
-207.436	173.889	0.175	0.251
-206.421	-200.000	0.019	0.261
-205.406	-40.777	0.209	0.107
-204.392	-97.294	-0.214	-0.055
-203.377	-124.039	-0.156	0.024
-202.363	-82.481	0.205	-0.066
-201.348	-60.365	0.633	-0.267
-200.333	800.000	-0.019	-0.062
-199.319	-200.000	-0.067	0.538
-198.304	-114.917	0.258	0.049
-197.290	800.000	0.075	0.273
-196.275	-139.311	0.155	0.017
-195.260	800.000	0.130	-0.370
-194.246	-100.173	0.190	0.047
-193.231	384.505	-0.035	0.071
-192.217	560.419	-0.077	-0.185
-191.202	-31.220	-0.059	0.033
-190.187	229.795	0.124	0.200
-189.173	54.707	0.043	0.041
-188.158	180.547	0.042	0.061
-187.144	-0.576	0.054	-0.038
-186.129	6.560	0.050	-0.037
-185.114	-200.000	-0.024	0.154
-184.100	477.720	0.052	-0.117
-183.085	-47.233	-0.090	0.043
-182.071	33.642	0.222	-0.191
-181.056	241.231	0.095	0.157
-180.042	800.000	0.076	0.211
-179.027	-50.953	-0.262	0.122
-178.012	-134.986	-0.165	-0.020
-176.998	231.142	0.128	-0.208
-175.983	-82.321	0.283	0.091
-174.969	-9.687	0.048	0.032
-173.954	604.892	0.065	0.160
-172.939	-200.000	-0.020	0.363
-171.925	37.846	0.151	0.133
-170.910	-200.000	-0.014	0.216
-169.896	240.197	0.142	0.234
-168.881	800.000	-0.023	0.070
-167.866	-200.000	0.085	-0.378
-166.852	126.416	0.080	0.100
-165.837	227.039	0.124	0.199
-164.823	-200.000	0.049	0.230
-163.808	-200.000	0.095	-0.420
-162.793	-200.000	0.027	0.197
-161.779	-29.961	-0.302	0.170
-160.764	800.000	-0.060	-0.165
-159.750	800.000	0.022	-0.083
-158.735	-93.654	0.268	0.073
-157.720	63.855	-0.309	-0.307
-156.706	12.807	0.117	-0.089
-155.691	60.733	-0.165	0.161
-154.677	551.974	-0.021	0.049
-153.662	-97.237	0.163	0.042
-152.647	332.007	0.100	0.190
-151.633	56.344	0.246	-0.236
-150.618	-16.925	0.409	-0.255
-149.604	-200.000	0.050	0.291
-148.589	-200.000	0.022	0.178
-147.574	105.968	0.106	0.123
-146.560	684.664	-0.081	-0.210
-145.545	-200.000	-0.005	-0.346
-144.531	99.353	0.051	0.058
-143.516	-174.927	0.436	0.012
-142.502	-200.000	0.036	0.314
-141.487	-200.000	0.005	0.138
-140.472	187.000	0.120	-0.177
-139.458	38.623	0.275	-0.243
-138.443	-200.000	-0.010	-0.143
-137.429	-200.000	-0.032	-0.137
-136.414	223.713	0.077	-0.122
-135.399	800.000	0.126	-0.347
-134.385	178.746	-0.129	-0.187
-133.370	-200.000	0.000	-0.276
-132.356	-200.000	-0.008	-0.176
-131.341	16.376	-0.248	0.193
-130.326	596.197	0.091	0.222
-129.312	-86.398	-0.108	-0.033
-128.297	287.018	-0.110	-0.196
-127.283	-125.302	0.168	0.025
-126.268	207.818	-0.210	-0.324
-125.253	-1.000	0.086	-0.060
-124.239	-10.514	0.154	0.101
-123.224	-149.373	0.056	-0.004
-122.210	225.430	-0.140	0.223
-121.195	-72.174	-0.220	0.081
-120.180	-83.583	-0.075	-0.024
-119.166	640.961	0.049	0.124
-118.151	-59.604	0.096	0.041
-117.137	800.000	0.040	0.139
-116.122	198.410	-0.152	0.230
-115.107	79.100	0.057	0.060
-114.093	85.477	0.213	0.231
-113.078	17.570	0.041	0.032
-112.064	22.718	0.045	-0.036
-111.049	800.000	0.142	0.477
-110.034	800.000	0.112	0.427
-109.020	800.000	-0.116	0.483
-108.005	-108.185	-0.030	0.006
-106.991	-72.363	0.038	0.014
-105.976	-60.681	-0.120	0.050
-104.962	-121.778	0.175	0.029
-103.947	16.502	-0.234	0.183
-102.932	38.082	-0.067	-0.059
-101.918	93.636	0.077	0.086
-100.903	40.425	-0.211	-0.187
-99.889	-42.262	0.146	0.073
-98.874	-129.649	0.245	-0.033
-97.859	800.000	-0.036	0.119
-96.845	800.000	-0.066	-0.186
-95.830	800.000	-0.105	-0.395
-94.816	-44.086	0.371	-0.184
-93.801	287.318	-0.101	0.180
-92.786	-38.514	0.347	0.181
-91.772	102.479	-0.126	-0.145
-90.757	24.618	0.338	0.276
-89.743	-200.000	0.012	-0.115
-88.728	800.000	0.025	-0.086
-87.713	124.545	-0.039	0.048
-86.699	-29.794	0.094	-0.053
-85.684	148.922	0.196	-0.261
-84.670	-128.274	0.137	-0.019
-83.655	2.508	0.389	0.278
-82.640	181.858	-0.042	0.061
-81.626	400.537	0.044	0.091
-80.611	-36.096	0.159	-0.084
-79.597	471.948	-0.089	-0.198
-78.582	-7.632	0.083	-0.055
-77.567	-104.829	0.134	-0.030
-76.553	-34.127	0.150	0.081
-75.538	800.000	0.086	-0.331
-74.524	27.879	0.257	0.213
-73.509	-200.000	-0.003	-0.027
-72.494	800.000	0.043	-0.165
-71.480	800.000	0.095	0.307
-70.465	46.456	-0.114	-0.104
-69.451	11.365	-0.261	0.197
-68.436	-141.877	0.205	0.020
-67.422	119.009	-0.144	0.175
-66.407	-34.528	0.155	-0.083
-65.392	-200.000	-0.012	-0.259
-64.378	-200.000	0.012	-0.216
-63.363	-60.231	0.166	0.070
-62.349	-94.089	0.298	0.081
-61.334	32.764	-0.916	-0.781
-60.319	301.228	0.313	0.570
-59.305	800.000	-0.252	-0.764
-58.290	535.311	0.367	0.858
-57.276	800.000	0.370	1.438
-56.261	-200.000	92.288	546.653
-55.246	627.729	1374.284	3418.929
-54.232	190.912	2588.672	3834.427
-53.217	119.304	2303.714	2807.387
-52.203	46.161	1921.564	1752.775
-51.188	39.635	1711.069	1510.915
-50.173	36.699	1666.618	1449.648
-49.159	53.523	1712.946	1617.980
-48.144	57.097	1731.126	1662.186
-47.130	39.371	1688.320	1488.594
-46.115	36.444	1672.909	1452.973
-45.100	36.186	1668.509	1447.158
-44.086	36.210	1665.293	1444.487
-43.071	36.068	1662.855	1441.253
-42.057	36.060	1661.036	1439.565
-41.042	36.115	1658.751	1437.938
-40.027	36.169	1656.550	1436.372
-39.013	36.168	1654.989	1434.957
-37.998	36.084	1653.466	1432.953
-36.984	36.152	1652.005	1432.137
-35.969	36.183	1650.905	1431.351
-34.954	36.327	1648.958	1430.680
-33.940	36.224	1647.430	1428.531
-32.925	36.309	1645.121	1427.105
-31.911	36.339	1643.658	1425.997
-30.896	36.174	1642.260	1423.510
-29.881	36.326	1639.809	1422.447
-28.867	36.250	1638.624	1420.807
-27.852	36.339	1636.846	1419.864
-26.838	36.259	1635.691	1418.214
-25.823	36.292	1634.461	1417.338
-24.809	36.371	1632.848	1416.459
-23.794	36.237	1632.085	1414.761
-22.779	36.383	1629.393	1413.438
-21.765	36.246	1628.578	1411.670
-20.750	36.292	1626.728	1410.347
-19.736	36.452	1624.721	1409.718
-18.721	36.420	1623.606	1408.465
-17.706	36.359	1621.974	1406.545
-16.692	36.285	1620.734	1404.876
-15.677	36.409	1619.134	1404.334
-14.663	36.373	1617.830	1402.887
-13.648	36.390	1616.478	1401.783
-12.633	36.380	1614.968	1400.350
-11.619	36.334	1613.179	1398.407
-10.604	36.329	1611.824	1397.140
-9.590	36.320	1610.675	1396.024
-8.575	36.381	1609.419	1395.324
-7.560	36.317	1608.267	1393.806
-6.546	36.281	1607.092	1392.472
-5.531	36.361	1605.920	1391.975
-4.517	36.234	1604.943	1390.157
-3.502	36.301	1603.769	1389.571
-2.487	36.345	1601.989	1388.288
-1.473	35.870	1590.670	1375.036
-0.458	32.744	1570.520	1335.462
0.556	29.209	1568.851	1297.633
1.571	26.328	1592.612	1296.538
2.586	25.601	1605.362	1301.545
3.600	22.498	1551.948	1236.386
4.615	13.699	1440.588	1089.977
5.629	6.158	1374.768	992.629
6.644	5.097	1365.592	979.259
7.659	4.900	1364.816	977.381
8.673	4.866	1363.489	976.127
9.688	4.867	1362.046	975.017
10.702	4.856	1359.136	972.780
11.717	7.983	1365.450	996.807
12.731	16.117	1379.900	1058.521
13.746	20.713	1387.549	1093.234
14.761	20.186	1384.581	1087.492
15.775	19.120	1381.831	1078.561
16.790	18.094	1379.207	1070.000
17.804	17.253	1377.021	1062.951
18.819	16.716	1375.879	1058.618
19.834	16.570	1374.585	1056.619
20.848	16.326	1373.484	1054.154
21.863	16.143	1371.515	1051.411
22.877	15.941	1370.992	1049.660
23.892	15.952	1370.016	1048.886
24.907	16.005	1369.324	1048.594
25.921	15.941	1368.328	1047.340
26.936	16.108	1366.856	1047.157
27.950	16.120	1366.225	1046.655
28.965	16.137	1365.053	1045.771
29.980	16.203	1364.003	1045.284
30.994	16.254	1363.197	1044.889
32.009	16.381	1361.713	1044.445
33.023	16.391	1360.751	1043.675
34.038	16.264	1359.500	1041.844
35.053	16.176	1358.203	1040.215
36.067	16.061	1357.549	1038.910
37.082	16.141	1355.950	1038.087
38.096	16.223	1355.729	1038.329
39.111	16.196	1354.393	1037.047
40.126	16.209	1353.341	1036.231
41.140	15.941	1352.541	1033.882
42.155	15.920	1351.855	1033.139
43.169	15.824	1351.924	1032.514
44.184	15.854	1351.657	1032.398
45.199	15.878	1350.929	1031.900
46.213	15.931	1350.340	1031.686
47.228	15.982	1349.709	1031.420
48.242	16.052	1348.602	1030.914
49.257	16.110	1346.700	1029.720
50.271	16.138	1344.976	1028.481
51.286	15.995	1344.293	1026.998
52.301	16.081	1342.950	1026.404
53.315	16.053	1342.021	1025.433
54.330	15.947	1340.838	1023.795
55.344	15.907	1339.981	1022.807
56.359	15.910	1338.662	1021.729
57.374	15.960	1337.584	1021.118
58.388	15.843	1336.905	1019.802
59.403	15.818	1336.634	1019.350
60.417	15.779	1335.913	1018.478
61.432	15.785	1334.999	1017.723
62.447	15.690	1333.918	1016.236
63.461	15.705	1332.349	1015.042
64.476	15.711	1331.323	1014.206
65.490	15.650	1330.410	1013.053
66.505	15.751	1328.180	1011.876
67.520	15.682	1327.982	1011.216
68.534	15.820	1326.810	1011.066
69.549	15.793	1325.425	1009.759
70.563	15.724	1324.497	1008.551
71.578	15.681	1323.272	1007.272
72.593	15.578	1322.254	1005.789
73.607	15.562	1321.737	1005.213
74.622	15.590	1321.316	1004.968
75.636	15.617	1320.614	1004.506
76.651	15.682	1319.613	1004.045
77.666	15.672	1319.083	1003.495
78.680	15.629	1318.613	1002.793
79.695	15.713	1317.678	1002.493
80.709	15.815	1317.021	1002.512
81.724	15.886	1316.345	1002.330
82.739	16.044	1315.038	1002.184
83.753	16.015	1314.732	1001.691
84.768	16.038	1313.762	1001.001
85.782	16.188	1312.560	1000.886
86.797	16.111	1311.563	999.582
87.812	16.006	1310.255	997.875
88.826	16.027	1309.354	997.226
89.841	16.035	1308.186	996.292
90.855	16.100	1307.060	995.733
91.870	16.200	1306.044	995.459
92.884	16.175	1305.003	994.430
93.899	16.141	1304.737	993.938
94.914	16.116	1304.085	993.207
95.928	16.281	1303.063	993.309
96.943	16.206	1301.973	991.955
97.957	16.096	1301.113	990.562
98.972	16.219	1299.802	990.199
99.987	16.111	1299.363	989.145
101.001	16.159	1298.196	988.451
102.016	16.110	1297.347	987.425
103.030	16.119	1296.487	986.737
104.045	16.133	1295.463	985.952
105.060	16.141	1293.828	984.669
106.074	15.938	1292.871	982.670
107.089	15.871	1291.577	981.208
108.103	15.779	1290.113	979.476
109.118	15.870	1288.607	978.776
110.133	15.735	1287.593	977.133
111.147	15.840	1285.893	976.367
112.162	15.913	1284.479	975.627
113.176	15.960	1283.762	975.268
114.191	16.022	1282.925	974.907
115.206	15.987	1281.353	973.422
116.220	15.859	1280.377	971.856
117.235	15.861	1279.193	970.884
118.249	15.984	1278.100	970.677
119.264	15.889	1276.461	968.797
120.279	15.827	1276.244	968.189
121.293	15.803	1274.848	966.909
122.308	15.822	1274.008	966.298
123.322	15.738	1272.904	964.888
124.337	15.683	1272.302	964.036
125.352	15.685	1271.091	963.041
126.366	15.741	1270.203	962.606
127.381	15.760	1269.124	961.811
128.395	15.634	1267.998	960.152
129.410	15.839	1266.747	960.288
130.424	15.880	1266.313	960.110
131.439	15.802	1265.226	958.758
132.454	15.882	1264.635	958.680
133.468	15.937	1263.828	958.294
134.483	15.965	1262.859	957.637
135.497	15.954	1262.153	956.952
136.512	15.884	1260.751	955.407
137.527	15.993	1259.239	954.798
138.541	16.017	1258.083	953.969
139.556	15.946	1256.854	952.553
140.570	15.992	1256.247	952.269
141.585	16.082	1254.706	951.525
142.600	16.239	1253.269	951.234
143.614	16.143	1252.871	950.306
144.629	16.252	1251.710	949.955
145.643	16.286	1250.261	948.965
146.658	16.115	1248.726	946.755
147.673	16.027	1247.438	945.202
148.687	15.947	1246.671	944.087
149.702	16.022	1244.993	943.151
150.716	15.988	1243.494	941.746
151.731	15.981	1242.489	940.861
152.746	15.965	1241.743	940.124
153.760	16.085	1240.123	939.483
154.775	16.147	1238.874	938.801
155.789	16.093	1238.130	937.852
156.804	16.122	1237.326	937.319
157.819	16.197	1236.114	936.734
158.833	16.233	1235.230	936.182
159.848	16.330	1234.209	935.864
160.862	16.271	1233.688	935.057
161.877	16.142	1232.319	933.223
162.892	16.065	1231.125	931.812
163.906	16.032	1230.469	931.052
164.921	16.065	1229.258	930.234
165.935	16.053	1228.523	929.530
166.950	16.115	1227.670	929.142
167.964	16.202	1226.730	928.829
168.979	16.151	1226.031	927.940
169.994	16.090	1225.667	927.246
171.008	16.191	1224.621	926.926
172.023	16.191	1224.011	926.383
173.037	16.386	1222.875	926.509
174.052	16.245	1222.117	925.081
175.067	16.206	1220.564	923.610
176.081	16.102	1219.808	922.387
177.096	15.998	1218.968	921.104
178.110	16.127	1218.017	921.005
179.125	16.232	1216.615	920.436
180.140	16.249	1215.355	919.494
181.154	16.281	1214.068	918.614
182.169	16.369	1213.367	918.479
183.183	16.367	1212.148	917.465
184.198	16.456	1210.832	916.873
185.213	16.527	1209.285	916.005
186.227	16.454	1208.857	915.204
187.242	16.492	1208.027	914.701
188.256	16.520	1207.030	914.014
189.271	16.543	1205.939	913.233
190.286	16.426	1205.029	911.831
191.300	16.084	1203.990	909.121
192.315	16.107	1202.868	908.318
193.329	16.140	1202.612	908.219
194.344	16.283	1201.564	908.119
195.359	16.262	1201.493	907.872
196.373	16.449	1200.405	907.975
197.388	16.298	1201.024	907.548
198.402	16.549	1200.574	908.479
199.417	16.672	1199.528	908.264
200.432	16.870	1198.532	908.494
201.446	16.726	1197.552	906.898
202.461	16.779	1196.859	906.575
203.475	16.805	1195.600	905.683
204.490	16.729	1194.230	904.156
205.504	16.666	1192.869	902.714
206.519	16.641	1192.330	902.090
207.534	16.543	1191.230	900.657
208.548	16.581	1190.052	899.890
209.563	16.662	1189.253	899.636
210.577	16.701	1188.204	898.968
211.592	16.721	1187.804	898.695
212.607	16.691	1186.997	897.844
213.621	16.733	1185.967	897.207
214.636	16.715	1185.200	896.453
215.650	16.730	1184.332	895.798
216.665	16.843	1183.395	895.604
217.680	16.933	1182.319	895.186
218.694	16.903	1181.701	894.481
219.709	16.897	1181.159	893.960
220.723	17.005	1180.209	893.731
221.738	16.980	1179.075	892.662
222.753	17.016	1178.210	892.117
223.767	16.933	1177.657	891.184
224.782	17.077	1177.227	891.537
225.796	17.159	1176.589	891.403
226.811	17.082	1175.806	890.328
227.826	17.059	1174.996	889.517
228.840	16.811	1174.741	887.946
229.855	16.901	1173.914	887.711
230.869	16.904	1173.082	887.022
231.884	16.929	1171.992	886.249
232.899	16.938	1171.033	885.490
233.913	16.737	1170.835	884.213
234.928	16.859	1169.529	883.784
235.942	16.827	1169.358	883.413
236.957	16.848	1168.434	882.744
237.972	16.849	1167.251	881.778
238.986	16.864	1166.604	881.289
240.001	16.821	1166.219	880.698
241.015	16.969	1165.274	880.675
242.030	16.958	1164.403	879.882
243.045	16.956	1163.717	879.272
244.059	16.936	1163.120	878.643
245.074	17.146	1162.146	878.914
246.088	17.070	1161.343	877.840
247.103	17.161	1160.743	877.779
248.117	17.314	1159.764	877.747
249.132	17.353	1158.989	877.284
250.147	17.450	1158.541	877.368
251.161	17.554	1158.249	877.607
252.176	17.636	1157.127	877.102
253.190	17.543	1156.625	876.165
254.205	17.673	1155.990	876.275
255.220	17.609	1155.678	875.628
256.234	17.498	1155.197	874.617
257.249	17.669	1154.121	874.605
258.263	17.583	1153.147	873.349
259.278	17.679	1152.699	873.423
260.293	17.645	1152.255	872.833
261.307	17.659	1151.404	872.187
262.322	17.645	1151.005	871.735
263.336	17.733	1150.085	871.407
264.351	17.885	1149.369	871.565
265.366	17.872	1148.749	870.954
266.380	17.865	1148.080	870.330
267.395	17.761	1147.412	869.217
268.409	17.756	1146.323	868.291
269.424	17.596	1146.092	867.223
270.439	17.650	1145.499	866.974
271.453	17.609	1144.756	866.129
272.468	17.615	1143.710	865.292
273.482	17.613	1142.785	864.502
274.497	17.715	1142.350	864.616
275.512	17.659	1141.686	863.753
276.526	17.651	1140.746	862.926
277.541	17.634	1139.906	862.126
278.555	17.676	1139.595	862.028
279.570	17.873	1138.553	862.155
280.585	17.931	1137.999	861.957
281.599	17.864	1137.155	860.900
282.614	18.013	1135.684	860.463
283.628	17.914	1134.761	859.186
284.643	17.846	1133.759	858.010
285.657	17.902	1133.179	857.778
286.672	17.857	1132.072	856.640
287.687	17.966	1131.213	856.462
288.701	17.891	1131.094	855.918
289.716	17.874	1130.148	855.038
290.730	17.956	1128.904	854.433
291.745	17.894	1128.488	853.733
292.760	17.998	1128.069	853.860
293.774	18.055	1127.321	853.503
294.789	18.006	1126.838	852.819
295.803	18.108	1125.933	852.564
296.818	18.061	1125.140	851.657
297.833	18.041	1124.533	851.020
298.847	18.054	1123.810	850.463
299.862	18.110	1122.938	850.007
300.876	18.016	1122.222	848.923
301.891	18.154	1121.908	849.296
302.906	18.157	1121.345	848.807
303.920	18.252	1120.354	848.454
304.935	18.269	1119.848	848.081
305.949	18.432	1118.939	848.125
306.964	18.324	1118.485	847.173
307.979	18.260	1117.706	846.189
308.993	18.217	1117.200	845.521
310.008	18.283	1115.962	844.835
311.022	18.382	1115.532	844.922
312.037	18.282	1114.235	843.371
313.052	18.431	1113.065	843.142
314.066	18.317	1112.172	841.832
315.081	18.115	1111.715	840.421
316.095	18.165	1110.883	839.960
317.110	18.188	1110.382	839.621
318.125	18.187	1109.629	838.973
319.139	18.093	1109.008	837.967
320.154	18.143	1108.163	837.501
321.168	18.177	1107.737	837.271
322.183	18.179	1106.727	836.442
323.197	18.146	1106.510	836.045
324.212	18.340	1105.413	836.091
325.227	18.267	1105.096	835.418
326.241	18.406	1104.408	835.502
327.256	18.210	1103.740	833.970
328.270	18.282	1102.888	833.599
329.285	18.185	1101.779	832.219
330.300	18.206	1101.170	831.787
331.314	18.300	1100.336	831.539
332.329	18.335	1098.872	830.531
333.343	18.475	1097.861	830.370
334.358	18.399	1097.595	829.726
335.373	18.509	1097.154	829.854
336.387	18.404	1096.280	828.611
337.402	18.487	1095.575	828.407
338.416	18.541	1094.987	828.148
339.431	18.632	1094.406	828.076
340.446	18.619	1093.858	827.525
341.460	18.712	1093.179	827.387
342.475	18.794	1092.260	827.011
343.489	18.698	1091.201	825.676
344.504	18.837	1090.495	825.737
345.519	18.795	1089.796	824.929
346.533	18.908	1088.919	824.736
347.548	19.113	1087.958	824.919
348.562	18.983	1087.378	823.784
349.577	18.909	1086.473	822.670
350.592	18.812	1085.437	821.351
351.606	18.725	1084.768	820.353
352.621	18.653	1084.177	819.493
353.635	18.599	1083.785	818.866
354.650	18.753	1082.803	818.785
355.665	18.709	1082.268	818.100
356.679	18.716	1081.643	817.588
357.694	18.863	1081.200	817.878
358.708	18.888	1080.479	817.381
359.723	18.876	1079.702	816.662
360.738	18.910	1079.031	816.246
361.752	18.882	1078.698	815.787
362.767	18.915	1077.926	815.288
363.781	19.003	1077.318	815.174
364.796	19.001	1077.088	814.918
365.810	19.059	1076.415	814.609
366.825	19.165	1075.689	814.490
367.840	19.192	1075.216	814.191
368.854	19.224	1074.528	813.748
369.869	19.237	1073.911	813.267
370.883	19.210	1073.135	812.479
371.898	19.110	1072.169	811.208
372.913	19.229	1071.299	811.036
373.927	19.240	1070.901	810.714
374.942	19.276	1070.964	810.860
375.956	19.238	1070.124	809.976
376.971	19.196	1069.799	809.462
377.986	19.365	1068.878	809.483
379.000	19.446	1068.354	809.398
380.015	19.368	1068.216	808.856
381.029	19.508	1067.147	808.630
382.044	19.460	1066.342	807.722
383.059	19.545	1065.844	807.673
384.073	19.416	1065.226	806.528
385.088	19.513	1064.026	806.001
386.102	19.496	1063.152	805.188
387.117	19.387	1062.022	803.754
388.132	19.362	1061.400	803.094
389.146	19.310	1060.619	802.193
390.161	19.295	1059.932	801.530
391.175	19.257	1059.197	800.726
392.190	19.409	1058.338	800.714
393.205	19.433	1057.988	800.490
394.219	19.543	1056.628	799.898
395.234	19.495	1055.927	799.074
396.248	19.279	1055.219	797.472
397.263	19.429	1054.278	797.380
398.278	19.363	1053.309	796.274
399.292	19.327	1052.821	795.669
400.307	19.182	1052.399	794.608
401.321	19.360	1051.104	794.380
402.336	19.434	1050.642	794.304
403.350	19.288	1050.280	793.288
404.365	19.458	1049.335	793.282
405.380	19.471	1048.693	792.788
406.394	19.385	1048.244	791.986
407.409	19.591	1047.077	791.978
408.423	19.665	1046.515	791.823
409.438	19.768	1045.832	791.705
410.453	19.661	1045.879	791.179
411.467	19.819	1044.691	790.934
412.482	19.879	1044.062	790.663
413.496	19.862	1043.434	790.042
414.511	19.944	1042.873	789.918
415.526	20.076	1042.289	790.009
416.540	20.002	1041.996	789.380
417.555	19.997	1041.420	788.850
418.569	19.874	1041.327	788.150
419.584	19.981	1040.515	787.954
420.599	19.951	1040.104	787.436
421.613	150.809	1399.646	1786.739
422.628	137.955	1452.030	1786.842
