DTS Sentinel unit serial number:	SN413079Multiplexer serial number:	ORYXHardware model number:	OX4-SRSoftware version number:	ORYX F/W v4.00 Oryx Data Collector v3.7.2.0data status	okinstallation	princeton_trtdifferential loss correction	single-endedforward channel	channel 2reverse channel	N/Adate	2019/09/18time	01:31:35forward acquisition time	60.00reverse acquisition time	0.00gamma	496.2192k internal	0.2350k external	0.2350temperature offset calibration	0.9984default loss term (dB/km)	0.3790temperature slope calibration	1.0000multiplexer offset coefficient	1.0000multiplexer slope coefficient	1.0000fibre end	0.00T internal ref (°C)	23.08T ext. ref 1 (°C)	0.16T ext. ref 2 (°C)	16.77length (m)	temperature (°C)	Stokes	anti-Stokes-747.200	-200.000	0.019	0.251
-746.185	-200.000	0.013	0.140
-745.171	487.203	0.095	-0.217
-744.156	-150.441	-0.406	0.031
-743.142	-138.724	-0.150	-0.016
-742.127	-12.924	-0.359	-0.233
-741.112	55.095	0.144	0.139
-740.098	-145.418	0.020	-0.002
-739.083	-200.000	-0.020	0.216
-738.069	-57.935	-0.321	0.140
-737.054	672.007	-0.039	-0.101
-736.039	193.497	-0.217	0.328
-735.025	504.667	0.136	0.314
-734.010	-66.227	0.111	-0.044
-732.996	-165.251	-0.383	0.017
-731.981	24.284	0.048	-0.039
-730.966	-113.479	0.377	-0.074
-729.952	-150.972	0.108	0.008
-728.937	-200.000	-0.067	-0.348
-727.923	-27.884	-0.118	-0.068
-726.908	-75.824	0.076	-0.027
-725.894	-200.000	-0.061	-0.422
-724.879	-60.661	-0.273	-0.116
-723.864	-151.477	-0.334	-0.025
-722.850	-93.084	-0.232	0.064
-721.835	-42.903	0.196	-0.099
-720.821	-38.710	0.110	0.058
-719.806	-81.679	-0.358	0.117
-718.791	-25.704	0.161	-0.095
-717.777	-181.940	-0.273	-0.005
-716.762	-29.088	0.463	0.265
-715.748	-200.000	-0.010	0.111
-714.733	69.551	-0.073	-0.075
-713.718	800.000	0.177	-0.673
-712.704	-36.526	-0.123	-0.066
-711.689	-68.545	-0.168	0.065
-710.675	-28.679	0.088	-0.051
-709.660	108.986	0.064	-0.077
-708.645	-33.620	-0.272	0.150
-707.631	412.063	-0.073	-0.155
-706.616	4.350	-0.328	0.240
-705.602	-200.000	0.048	0.226
-704.587	-200.000	0.001	0.058
-703.572	-155.445	0.141	0.009
-702.558	75.304	0.195	0.205
-701.543	308.677	-0.069	0.129
-700.529	-161.574	-0.106	-0.005
-699.514	-7.345	0.210	0.142
-698.499	-200.000	0.007	0.082
-697.485	-115.929	0.292	-0.054
-696.470	-127.227	0.373	0.054
-695.456	281.732	0.127	-0.226
-694.441	73.439	0.528	-0.551
-693.426	-164.855	-0.518	0.023
-692.412	248.304	-0.196	0.331
-691.397	146.507	0.283	0.379
-690.383	-103.345	0.308	-0.072
-689.368	-200.000	0.017	0.239
-688.354	356.589	-0.089	-0.177
-687.339	-27.747	-0.277	-0.160
-686.324	-77.618	-0.396	0.137
-685.310	800.000	-0.087	-0.290
-684.295	-14.200	-0.149	0.096
-683.281	570.866	-0.026	-0.063
-682.266	65.207	0.144	0.145
-681.251	-108.601	0.105	-0.022
-680.237	95.194	-0.084	0.096
-679.222	89.127	0.092	-0.102
-678.208	-19.268	-0.295	0.182
-677.193	800.000	0.115	0.416
-676.178	-52.529	0.202	-0.093
-675.164	-50.729	-0.347	-0.163
-674.149	-6.433	-0.261	0.177
-673.135	-200.000	0.009	-0.119
-672.120	234.852	-0.117	0.192
-671.105	249.077	0.103	0.173
-670.091	725.755	0.055	-0.145
-669.076	648.572	0.081	-0.206
-668.062	-47.978	-0.270	-0.130
-667.047	199.541	0.141	0.215
-666.032	156.824	0.224	-0.308
-665.018	-16.222	0.159	-0.101
-664.003	800.000	0.110	-0.417
-662.989	60.970	-0.175	-0.173
-661.974	617.137	0.042	-0.105
-660.959	800.000	0.062	-0.268
-659.945	-96.807	-0.195	-0.051
-658.930	-134.394	-0.197	0.024
-657.916	-93.223	0.325	-0.090
-656.901	800.000	-0.090	-0.256
-655.886	49.151	-0.045	0.042
-654.872	69.169	0.216	0.221
-653.857	-200.000	0.046	-0.269
-652.843	-124.980	-0.226	0.035
-651.828	-63.552	-0.291	0.119
-650.814	-137.192	-0.249	0.028
-649.799	800.000	-0.051	0.191
-648.784	16.743	0.160	0.126
-647.770	-200.000	0.004	-0.069
-646.755	-103.160	0.149	0.035
-645.741	-19.052	-0.128	-0.079
-644.726	-139.564	0.083	0.009
-643.711	-1.452	0.317	0.223
-642.697	335.859	-0.044	0.085
-641.682	349.922	-0.101	-0.198
-640.668	-154.989	0.220	-0.014
-639.653	389.347	0.074	0.152
-638.638	-199.394	-0.401	0.002
-637.624	230.972	0.129	-0.210
-636.609	-71.880	0.239	-0.089
-635.595	800.000	-0.060	-0.194
-634.580	800.000	0.053	0.197
-633.565	-106.573	0.021	-0.005
-632.551	534.757	0.020	-0.046
-631.536	-67.110	0.068	0.027
-630.522	-200.000	0.009	0.097
-629.507	-44.235	-0.187	0.093
-628.492	-133.197	-0.251	-0.032
-627.478	121.981	-0.103	0.127
-626.463	-163.317	-0.250	0.012
-625.449	-114.716	-0.193	0.037
-624.434	-38.923	-0.350	0.183
-623.419	-114.612	0.200	0.038
-622.405	65.416	-0.146	-0.147
-621.390	-200.000	-0.023	-0.119
-620.376	168.435	-0.076	-0.107
-619.361	613.518	0.109	0.271
-618.346	-132.989	-0.253	0.032
-617.332	-166.170	-0.125	-0.005
-616.317	138.000	-0.208	0.271
-615.303	490.570	-0.084	0.190
-614.288	-105.910	-0.306	-0.068
-613.273	-67.512	-0.281	-0.109
-612.259	156.413	0.019	-0.027
-611.244	-47.306	0.225	0.109
-610.230	-98.927	-0.217	0.055
-609.215	136.147	-0.111	0.144
-608.201	-109.254	0.201	0.042
-607.186	97.333	0.137	0.157
-606.171	241.492	-0.047	0.079
-605.157	4.379	0.259	0.189
-604.142	49.671	0.135	-0.126
-603.128	417.090	0.041	0.086
-602.113	429.808	-0.161	0.345
-601.098	16.885	0.217	0.171
-600.084	-200.000	0.274	0.001
-599.069	-55.660	-0.152	-0.068
-598.055	800.000	0.052	0.174
-597.040	-200.000	0.018	-0.091
-596.025	800.000	0.045	0.140
-595.011	26.234	-0.171	0.141
-593.996	-71.452	-0.081	-0.030
-592.982	0.313	-0.175	-0.124
-591.967	800.000	-0.057	0.185
-590.952	-17.848	0.054	-0.034
-589.938	5.532	0.093	0.069
-588.923	-200.000	-0.011	-0.228
-587.909	51.888	-0.226	0.214
-586.894	800.000	0.088	0.346
-585.879	-200.000	0.040	-0.202
-584.865	123.591	-0.228	0.283
-583.850	318.396	-0.222	0.417
-582.836	-41.430	0.182	0.093
-581.821	-200.000	-0.007	0.238
-580.806	86.449	-0.072	-0.078
-579.792	-73.431	0.052	0.019
-578.777	788.138	0.061	-0.165
-577.763	-200.000	-0.005	-0.229
-576.748	-200.000	0.056	0.246
-575.733	-66.701	0.243	-0.095
-574.719	197.604	-0.170	-0.257
-573.704	-150.556	-0.192	0.015
-572.690	133.738	-0.140	-0.180
-571.675	455.529	-0.085	-0.188
-570.661	98.628	-0.262	0.300
-569.646	720.509	0.031	0.082
-568.631	-84.099	-0.239	0.075
-567.617	-188.286	0.212	-0.003
-566.602	13.758	-0.211	-0.163
-565.588	391.797	0.137	0.281
-564.573	4.517	0.237	0.172
-563.558	163.601	-0.117	0.163
-562.544	-66.562	-0.050	-0.019
-561.529	-142.049	-0.126	0.012
-560.515	329.860	0.130	0.248
-559.500	-56.170	0.224	0.099
-558.485	-135.156	0.211	-0.025
-557.471	-75.356	0.538	-0.190
-556.456	800.000	0.056	-0.221
-555.442	800.000	-0.066	-0.249
-554.427	-200.000	-0.012	-0.284
-553.412	-114.690	0.289	-0.055
-552.398	-64.888	0.082	0.033
-551.383	-25.184	-0.227	-0.133
-550.369	-200.000	-0.024	-0.163
-549.354	42.234	0.117	-0.105
-548.339	-39.788	0.171	-0.088
-547.325	798.252	0.078	-0.212
-546.310	148.328	-0.221	-0.296
-545.296	-75.678	0.093	0.033
-544.281	536.132	0.062	-0.146
-543.266	27.139	-0.167	0.139
-542.252	209.677	-0.245	0.381
-541.237	-130.825	0.309	-0.041
-540.223	-200.000	-0.013	-0.134
-539.208	25.110	0.295	0.243
-538.193	664.258	0.107	-0.272
-537.179	-127.697	0.216	0.031
-536.164	172.118	-0.175	-0.249
-535.150	800.000	-0.149	0.487
-534.135	-40.239	0.272	0.140
-533.121	3.224	-0.425	0.306
-532.106	5.732	-0.111	0.081
-531.091	-78.148	0.142	0.048
-530.077	317.565	-0.187	0.351
-529.062	-154.917	-0.132	-0.009
-528.048	-20.202	-0.118	-0.072
-527.033	9.229	-0.175	-0.131
-526.018	-54.789	-0.132	0.059
-525.004	-200.000	0.034	0.156
-523.989	800.000	0.025	0.069
-522.975	-8.252	0.360	0.240
-521.960	800.000	0.103	0.352
-520.945	-200.000	-0.013	0.368
-519.931	-91.191	-0.220	-0.062
-518.916	-79.582	0.123	0.041
-517.902	-200.000	-0.003	0.082
-516.887	699.469	0.072	-0.187
-515.872	-179.447	0.188	0.004
-514.858	-106.893	-0.034	0.007
-513.843	-70.799	-0.077	-0.029
-512.829	-200.000	-0.030	0.292
-511.814	254.711	0.105	0.177
-510.799	-92.508	-0.078	-0.022
-509.785	258.112	-0.099	0.169
-508.770	-44.090	-0.290	-0.144
-507.756	-13.359	-0.105	0.067
-506.741	-200.000	0.027	0.254
-505.726	139.167	0.035	-0.046
-504.712	92.632	-0.166	-0.186
-503.697	-38.505	0.066	0.034
-502.683	175.391	-0.135	0.194
-501.668	701.535	-0.135	0.352
-500.653	514.765	0.052	0.120
-499.639	800.000	-0.084	0.239
-498.624	-66.581	-0.059	-0.023
-497.610	379.445	0.075	0.151
-496.595	-200.000	0.015	-0.308
-495.581	-75.970	0.124	-0.044
-494.566	-200.000	-0.042	0.225
-493.551	9.106	0.160	-0.120
-492.537	-22.952	0.154	0.092
-491.522	2.601	0.057	-0.041
-490.508	-25.880	-0.282	-0.164
-489.493	-33.447	-0.123	0.067
-488.478	106.225	-0.227	0.266
-487.464	25.967	-0.059	0.048
-486.449	-200.000	-0.014	-0.095
-485.435	332.820	-0.095	0.181
-484.420	243.705	0.245	-0.406
-483.405	-200.000	0.008	0.222
-482.391	-94.962	-0.067	-0.018
-481.376	-200.000	-0.037	-0.239
-480.362	503.168	0.190	-0.434
-479.347	-22.658	-0.326	0.195
-478.332	105.965	0.244	0.285
-477.318	-96.242	0.068	-0.018
-476.303	-81.086	-0.105	-0.034
-475.289	27.425	0.210	-0.174
-474.274	446.940	-0.075	0.164
-473.259	52.380	-0.224	-0.211
-472.245	228.383	-0.122	0.196
-471.230	-200.000	-0.034	-0.223
-470.216	49.924	0.145	-0.135
-469.201	800.000	0.107	-0.296
-468.186	-136.548	0.141	-0.016
-467.172	-200.000	0.078	0.000
-466.157	-200.000	-0.002	-0.194
-465.143	800.000	0.079	-0.256
-464.128	18.366	-0.091	-0.072
-463.113	-2.499	0.162	0.112
-462.099	-76.731	0.454	0.157
-461.084	-79.509	-0.105	0.035
-460.070	-102.407	0.221	-0.052
-459.055	800.000	-0.032	-0.140
-458.040	-200.000	0.007	-0.080
-457.026	800.000	-0.141	-0.570
-456.011	-73.454	0.189	0.068
-454.997	800.000	0.081	0.248
-453.982	-78.835	-0.184	0.062
-452.968	98.334	-0.105	-0.119
-451.953	247.026	-0.113	0.188
-450.938	38.711	0.068	0.060
-449.924	19.652	0.054	-0.043
-448.909	87.607	0.130	0.143
-447.895	-53.052	-0.091	-0.041
-446.880	800.000	-0.001	-0.004
-445.865	-48.843	0.288	-0.136
-444.851	4.435	-0.062	-0.045
-443.836	-162.199	-0.223	0.011
-442.822	40.384	-0.046	0.041
-441.807	-5.462	0.220	0.149
-440.792	128.147	-0.113	0.142
-439.778	-139.438	-0.202	-0.021
-438.763	170.473	0.254	0.358
-437.749	141.135	-0.156	0.203
-436.734	-161.235	-0.218	-0.011
-435.719	-81.376	-0.148	-0.048
-434.705	-178.889	-0.389	0.009
-433.690	239.634	0.114	0.186
-432.676	-71.462	-0.214	0.079
-431.661	-139.498	0.298	0.031
-430.646	-200.000	0.034	0.261
-429.632	-92.742	0.098	0.027
-428.617	33.713	-0.164	-0.141
-427.603	-16.448	-0.325	-0.203
-426.588	473.203	0.112	0.249
-425.573	-106.988	0.187	0.041
-424.559	224.538	0.165	-0.263
-423.544	-200.000	0.004	0.187
-422.530	-200.000	0.068	0.428
-421.515	-200.000	0.069	0.298
-420.500	123.073	0.220	-0.271
-419.486	23.535	-0.322	-0.261
-418.471	-69.796	0.027	0.010
-417.457	235.130	0.115	0.188
-416.442	-93.621	-0.380	-0.104
-415.428	-124.996	0.063	-0.009
-414.413	207.960	-0.032	-0.050
-413.398	113.879	0.105	-0.126
-412.384	171.950	0.182	0.258
-411.369	800.000	-0.027	-0.113
-410.355	-110.931	-0.022	-0.004
-409.340	-162.429	0.067	-0.003
-408.325	-100.070	-0.212	-0.052
-407.311	-133.666	0.134	0.016
-406.296	-106.093	-0.093	-0.021
-405.282	-130.542	-0.048	-0.006
-404.267	800.000	0.019	-0.082
-403.252	-107.672	0.090	0.019
-402.238	800.000	-0.162	-0.468
-401.223	783.456	0.106	-0.285
-400.209	-162.340	-0.289	0.014
-399.194	-171.506	-0.099	-0.003
-398.179	-33.769	0.208	-0.113
-397.165	-73.920	0.127	-0.045
-396.150	-160.090	0.193	0.010
-395.136	-107.725	-0.201	-0.043
-394.121	800.000	0.052	0.143
-393.106	-200.000	0.027	-0.287
-392.092	-78.534	0.301	-0.101
-391.077	-90.565	0.168	-0.048
-390.063	-51.987	0.110	-0.050
-389.048	-200.000	-0.051	0.307
-388.033	800.000	0.087	-0.260
-387.019	800.000	0.117	-0.408
-386.004	800.000	0.085	-0.247
-384.990	-35.481	-0.110	0.059
-383.975	-173.683	-0.311	0.009
-382.960	-168.173	-0.214	0.008
-381.946	753.067	-0.020	-0.054
-380.931	800.000	0.065	-0.208
-379.917	680.435	0.088	0.225
-378.902	-46.554	0.093	-0.045
-377.888	-135.390	0.094	-0.011
-376.873	800.000	0.056	-0.166
-375.858	21.709	-0.246	0.197
-374.844	765.317	0.089	0.239
-373.829	-13.426	-0.125	-0.080
-372.815	-16.851	-0.305	0.190
-371.800	286.122	0.055	-0.098
-370.785	-75.174	0.043	0.015
-369.771	256.990	-0.029	0.048
-368.756	232.561	0.088	0.142
-367.742	56.909	-0.034	0.033
-366.727	-110.308	0.346	0.071
-365.712	-132.840	0.246	-0.031
-364.698	110.094	0.133	0.156
-363.683	-200.000	-0.030	0.204
-362.669	479.649	-0.098	-0.217
-361.654	-55.280	-0.119	0.052
-360.639	-135.511	-0.425	-0.050
-359.625	190.632	-0.274	0.405
-358.610	-177.821	-0.276	0.007
-357.596	65.075	-0.110	-0.110
-356.581	181.652	-0.313	-0.453
-355.566	385.909	0.141	0.285
-354.552	65.053	-0.059	-0.058
-353.537	-169.767	0.182	0.006
-352.523	-98.535	-0.171	0.043
-351.508	-71.728	0.070	-0.026
-350.493	-134.833	0.111	0.013
-349.479	-106.617	0.359	-0.079
-348.464	-199.977	-0.240	-0.001
-347.450	-200.000	0.019	0.192
-346.435	-77.611	-0.227	0.077
-345.420	-200.000	0.052	-0.233
-344.406	-82.119	-0.167	-0.054
-343.391	800.000	0.029	-0.093
-342.377	191.972	-0.063	0.093
-341.362	-80.010	0.456	0.150
-340.348	40.285	0.062	-0.055
-339.333	-145.957	-0.023	-0.002
-338.318	189.287	-0.259	0.382
-337.304	-200.000	-0.043	-0.268
-336.289	93.474	0.142	-0.158
-335.275	34.380	0.098	-0.084
-334.260	-107.725	-0.179	-0.038
-333.245	-67.264	0.117	0.045
-332.231	-134.381	0.396	-0.048
-331.216	258.150	0.043	-0.073
-330.202	756.833	-0.062	0.165
-329.187	800.000	0.048	-0.192
-328.172	-200.000	0.025	-0.165
-327.158	342.207	-0.174	-0.334
-326.143	418.531	-0.063	-0.133
-325.129	-50.024	0.029	0.014
-324.114	106.463	0.270	-0.314
-323.099	-34.496	-0.306	-0.164
-322.085	-71.396	0.371	0.136
-321.070	-145.196	-0.106	0.009
-320.056	140.938	0.196	0.255
-319.041	59.629	0.119	0.116
-318.026	232.105	-0.025	-0.040
-317.012	800.000	0.082	-0.333
-315.997	154.083	-0.128	-0.173
-314.983	-105.727	0.203	-0.045
-313.968	-82.389	-0.288	-0.092
-312.953	252.344	0.088	0.147
-311.939	-11.189	-0.451	0.292
-310.924	-200.000	0.013	-0.249
-309.910	-20.194	0.208	0.126
-308.895	-103.791	0.227	0.052
-307.880	800.000	0.029	-0.091
-306.866	88.338	-0.080	-0.087
-305.851	-65.156	-0.317	0.125
-304.837	262.427	-0.100	-0.170
-303.822	-72.875	-0.200	0.072
-302.807	-40.368	0.156	0.080
-301.793	-40.758	0.266	0.135
-300.778	-31.440	0.150	-0.083
-299.764	102.914	0.186	0.213
-298.749	85.745	0.122	0.131
-297.735	-65.925	0.122	-0.048
-296.720	215.189	0.238	-0.370
-295.705	26.435	0.190	-0.156
-294.691	-145.936	0.181	-0.016
-293.676	227.211	0.104	0.166
-292.662	-164.427	0.117	-0.005
-291.647	-200.000	0.012	-0.143
-290.632	-4.823	-0.116	0.078
-289.618	401.924	-0.137	-0.282
-288.603	72.816	-0.015	0.015
-287.589	-200.000	0.070	-0.380
-286.574	-200.000	0.011	0.327
-285.559	157.703	-0.170	-0.231
-284.545	177.991	0.190	0.272
-283.530	-75.574	-0.274	0.095
-282.516	-138.113	0.249	0.027
-281.501	103.140	0.170	0.195
-280.486	-100.081	-0.236	-0.058
-279.472	30.888	-0.190	0.160
-278.457	800.000	0.092	-0.357
-277.443	-115.343	0.247	-0.046
-276.428	-187.385	0.117	-0.002
-275.413	-125.085	0.371	-0.056
-274.399	53.855	-0.078	0.073
-273.384	-200.000	0.009	-0.147
-272.370	1.145	-0.228	-0.160
-271.355	-170.525	-0.326	-0.011
-270.340	-200.000	0.013	0.089
-269.326	-14.313	-0.382	-0.241
-268.311	-7.968	0.196	-0.130
-267.297	78.262	-0.162	0.170
-266.282	-0.635	0.094	0.065
-265.267	-92.631	-0.237	0.065
-264.253	-91.410	-0.169	-0.047
-263.238	88.222	-0.187	0.204
-262.224	400.278	0.051	-0.104
-261.209	348.407	-0.159	0.308
-260.195	-19.511	-0.236	-0.143
-259.180	-0.499	-0.058	-0.040
-258.165	800.000	-0.030	-0.090
-257.151	800.000	-0.104	0.405
-256.136	-97.920	-0.190	-0.048
-255.122	-78.623	0.374	-0.125
-254.107	114.763	-0.081	-0.097
-253.092	200.657	-0.055	-0.082
-252.078	800.000	-0.095	-0.276
-251.063	-200.000	0.041	-0.308
-250.049	193.783	-0.223	0.331
-249.034	-200.000	-0.043	0.237
-248.019	-57.000	-0.199	-0.086
-247.005	96.390	0.209	0.234
-245.990	56.670	-0.179	-0.171
-244.976	-42.056	-0.354	-0.177
-243.961	-45.652	0.269	0.130
-242.946	-99.043	0.175	-0.043
-241.932	-117.915	0.317	0.056
-240.917	-50.765	-0.422	0.195
-239.903	36.378	-0.148	-0.128
-238.888	110.003	0.145	-0.170
-237.873	27.140	-0.478	0.393
-236.859	-200.000	-0.038	-0.296
-235.844	64.396	0.066	0.065
-234.830	-85.827	0.173	0.053
-233.815	539.970	0.047	-0.110
-232.800	-145.115	0.188	-0.017
-231.786	-71.146	-0.061	-0.022
-230.771	-200.000	-0.046	-0.211
-229.757	77.033	0.209	0.218
-228.742	-30.550	-0.318	0.176
-227.727	-119.395	0.180	0.031
-226.713	-200.000	0.020	-0.128
-225.698	12.552	0.147	-0.111
-224.684	474.680	-0.315	-0.696
-223.669	-135.401	0.534	-0.062
-222.655	-161.992	-0.298	0.015
-221.640	-74.136	-0.106	0.037
-220.625	433.565	-0.177	0.377
-219.611	350.451	-0.143	0.277
-218.596	183.081	0.044	-0.063
-217.582	-118.874	0.165	0.028
-216.567	130.285	0.158	-0.197
-215.552	38.989	-0.119	-0.104
-214.538	136.893	0.188	-0.241
-213.523	-141.956	-0.444	-0.043
-212.509	-101.426	0.431	-0.103
-211.494	-200.000	-0.010	0.329
-210.479	-200.000	0.017	0.184
-209.465	126.260	0.354	-0.438
-208.450	667.026	0.130	0.328
-207.436	-7.453	0.173	0.115
-206.421	588.225	-0.190	-0.457
-205.406	-200.000	0.097	-0.577
-204.392	65.278	0.187	0.185
-203.377	-86.530	0.226	-0.068
-202.363	73.220	-0.189	-0.193
-201.348	-61.343	0.276	0.114
-200.333	-146.203	0.174	0.015
-199.319	555.331	0.107	-0.253
-198.304	302.213	0.073	-0.133
-197.290	-200.000	-0.040	-0.321
-196.275	-200.000	-0.061	-0.337
-195.260	-147.738	0.231	0.019
-194.246	-200.000	0.012	0.118
-193.231	270.119	-0.130	0.223
-192.217	-119.995	0.343	0.058
-191.202	607.656	-0.148	-0.360
-190.187	800.000	-0.156	0.426
-189.173	800.000	-0.081	0.293
-188.158	-200.000	0.011	-0.192
-187.144	473.043	-0.136	0.300
-186.129	800.000	-0.093	-0.363
-185.114	92.520	-0.146	0.161
-184.100	-63.621	0.095	-0.038
-183.085	65.562	0.084	0.083
-182.071	-98.686	0.213	-0.053
-181.056	590.038	0.122	0.295
-180.042	21.026	0.251	-0.199
-179.027	-117.827	-0.175	0.031
-178.012	-93.006	-0.142	-0.039
-176.998	-1.439	-0.200	-0.138
-175.983	-200.000	-0.028	-0.216
-174.969	98.123	0.168	-0.189
-173.954	568.836	-0.183	-0.434
-172.939	224.538	-0.148	-0.233
-171.925	800.000	0.061	-0.187
-170.910	67.943	-0.062	0.062
-169.896	-87.514	0.303	-0.089
-168.881	-180.768	-0.176	0.003
-167.866	-41.913	-0.186	0.093
-166.852	-200.000	0.043	-0.368
-165.837	-80.627	0.327	-0.106
-164.823	-56.618	-0.265	0.115
-163.808	483.820	0.082	-0.182
-162.793	103.435	0.187	0.214
-161.779	265.034	0.354	0.602
-160.764	-157.093	0.084	0.005
-159.750	-84.132	-0.259	-0.080
-158.735	-86.628	-0.124	0.037
-157.720	-14.716	0.254	0.159
-156.706	-200.000	-0.037	0.171
-155.691	-116.609	0.321	-0.058
-154.677	800.000	-0.064	0.247
-153.662	800.000	0.091	-0.250
-152.647	253.987	0.054	-0.090
-151.633	-200.000	-0.036	-0.206
-150.618	366.038	0.081	0.158
-149.604	-5.110	-0.247	-0.166
-148.589	60.555	0.089	0.086
-147.574	-200.000	0.002	-0.177
-146.560	176.899	-0.084	0.120
-145.545	153.459	0.064	-0.085
-144.531	-103.621	-0.191	0.044
-143.516	548.792	-0.074	0.173
-142.502	-2.224	0.225	-0.154
-141.487	78.505	-0.104	0.109
-140.472	-132.366	0.143	0.018
-139.458	-58.777	-0.288	-0.122
-138.443	-115.200	-0.400	0.074
-137.429	5.508	0.086	-0.062
-136.414	144.154	-0.225	-0.293
-135.399	66.250	-0.170	0.168
-134.385	800.000	-0.070	0.265
-133.370	31.643	0.109	-0.091
-132.356	9.832	-0.221	-0.163
-131.341	-200.000	-0.003	0.035
-130.326	148.466	0.174	0.229
-129.312	-30.336	-0.247	-0.136
-128.297	-200.000	0.018	-0.124
-127.283	592.060	-0.042	0.102
-126.268	-87.212	0.060	0.018
-125.253	-191.117	0.219	-0.002
-124.239	381.604	0.110	0.220
-123.224	72.526	0.079	0.080
-122.210	161.826	0.032	-0.043
-121.195	-153.546	0.196	-0.013
-120.180	252.403	0.038	0.063
-119.166	137.639	0.134	0.171
-118.151	-140.972	0.471	-0.047
-117.137	-57.068	0.183	0.079
-116.122	-200.000	0.025	0.126
-115.107	-43.435	-0.307	0.151
-114.093	-89.661	-0.243	0.069
-113.078	-42.515	-0.192	0.096
-112.064	526.578	0.113	-0.258
-111.049	-165.625	0.162	0.007
-110.034	-116.454	-0.188	-0.034
-109.020	-82.564	-0.149	-0.047
-108.005	-18.042	-0.275	0.168
-106.991	686.525	0.155	0.394
-105.976	-8.678	0.280	-0.183
-104.962	-115.581	0.104	-0.019
-103.947	-79.502	-0.165	0.054
-102.932	703.834	-0.092	-0.235
-101.918	-146.306	-0.030	-0.003
-100.903	-19.605	0.268	0.162
-99.889	-141.674	-0.085	-0.008
-98.874	-11.914	0.215	-0.137
-97.859	-113.940	0.190	-0.036
-96.845	-184.797	0.211	0.003
-95.830	141.389	-0.112	-0.144
-94.816	-108.845	-0.048	-0.010
-93.801	800.000	0.054	-0.155
-92.786	-200.000	0.025	0.143
-91.772	-7.483	-0.174	-0.115
-90.757	-82.018	-0.181	0.057
-89.743	-106.448	-0.411	-0.089
-88.728	0.283	-0.198	-0.138
-87.713	-200.000	0.024	-0.315
-86.699	129.441	0.047	-0.059
-85.684	-116.238	-0.115	-0.021
-84.670	5.942	-0.169	0.122
-83.655	121.404	0.152	0.184
-82.640	-200.000	-0.019	0.567
-81.626	493.351	-0.075	0.168
-80.611	-91.063	0.288	0.080
-79.597	148.592	0.256	0.336
-78.582	-200.000	0.029	0.152
-77.567	-200.000	-0.015	-0.217
-76.553	615.783	-0.150	-0.366
-75.538	145.777	0.260	0.338
-74.524	83.274	-0.124	0.132
-73.509	-200.000	-0.012	0.068
-72.494	35.524	0.055	-0.047
-71.480	-200.000	0.037	0.219
-70.465	99.420	0.184	0.207
-69.451	-182.713	-0.291	0.005
-68.436	75.107	0.021	0.022
-67.422	-122.619	0.100	0.016
-66.407	62.610	-0.129	0.125
-65.392	-148.293	0.177	-0.014
-64.378	-86.103	-0.204	0.061
-63.363	90.521	0.135	-0.147
-62.349	800.000	-0.052	0.207
-61.334	57.679	-1.194	-1.135
-60.319	408.385	0.399	0.821
-59.305	-200.000	-0.000	-1.258
-58.290	582.377	0.712	1.698
-57.276	800.000	0.595	1.627
-56.261	-200.000	126.241	673.434
-55.246	424.378	1586.986	3317.969
-54.232	141.066	2750.638	3535.071
-53.217	90.492	2295.097	2496.840
-52.203	32.271	1901.630	1594.880
-51.188	26.108	1697.663	1376.912
-50.173	24.030	1659.057	1330.035
-49.159	45.983	1728.900	1554.669
-48.144	43.359	1740.444	1544.943
-47.130	25.650	1692.076	1368.676
-46.115	23.165	1676.224	1337.052
-45.100	23.001	1671.047	1331.634
-44.086	23.028	1668.586	1329.822
-43.071	22.892	1666.904	1327.407
-42.057	22.927	1664.452	1325.662
-41.042	23.058	1661.448	1324.199
-40.027	22.978	1660.300	1322.633
-39.013	22.972	1658.177	1320.840
-37.998	22.994	1656.928	1319.960
-36.984	22.999	1655.621	1318.903
-35.969	23.057	1654.126	1318.095
-34.954	23.129	1652.482	1317.265
-33.940	23.078	1650.570	1315.315
-32.925	23.063	1649.172	1314.031
-31.911	23.042	1647.349	1312.374
-30.896	23.119	1646.042	1311.855
-29.881	23.128	1644.199	1310.398
-28.867	23.076	1643.319	1309.258
-27.852	23.031	1641.776	1307.642
-26.838	23.003	1640.221	1306.147
-25.823	23.032	1639.228	1305.522
-24.809	23.074	1637.804	1304.642
-23.794	23.132	1636.225	1303.757
-22.779	23.123	1634.749	1302.467
-21.765	23.123	1633.015	1301.034
-20.750	23.201	1630.863	1299.840
-19.736	23.117	1630.200	1298.642
-18.721	23.145	1629.181	1297.987
-17.706	23.161	1627.055	1296.360
-16.692	23.090	1625.550	1294.590
-15.677	23.053	1625.010	1293.835
-14.663	23.118	1622.958	1292.624
-13.648	23.149	1621.809	1291.889
-12.633	23.117	1620.651	1290.678
-11.619	23.047	1619.218	1288.979
-10.604	23.104	1617.403	1287.892
-9.590	23.166	1615.808	1287.024
-8.575	23.077	1614.730	1285.465
-7.560	22.984	1613.624	1283.858
-6.546	23.051	1612.629	1283.507
-5.531	23.125	1611.657	1283.214
-4.517	23.110	1610.273	1281.956
-3.502	23.045	1608.835	1280.285
-2.487	23.193	1606.847	1279.722
-1.473	22.737	1594.862	1266.853
-0.458	19.735	1575.442	1230.052
0.556	14.765	1577.587	1199.896
1.571	12.560	1601.421	1201.825
2.586	12.425	1612.587	1209.104
3.600	11.404	1558.512	1161.193
4.615	6.344	1452.838	1048.724
5.629	1.325	1393.871	973.937
6.644	0.235	1387.691	962.570
7.659	0.128	1386.597	961.041
8.673	0.099	1385.423	959.957
9.688	0.178	1382.799	958.556
10.702	-0.035	1379.888	955.100
11.717	2.594	1382.852	973.791
12.731	9.290	1393.213	1023.762
13.746	15.089	1402.194	1067.332
14.761	16.757	1404.006	1079.259
15.775	16.201	1401.891	1073.999
16.790	15.302	1399.065	1066.028
17.804	14.500	1396.893	1059.186
18.819	14.061	1395.670	1055.373
19.834	13.878	1394.786	1053.455
20.848	13.710	1393.354	1051.212
21.863	13.491	1391.145	1048.067
22.877	13.241	1390.875	1046.189
23.892	13.077	1389.862	1044.298
24.907	13.194	1389.193	1044.442
25.921	13.233	1388.080	1043.760
26.936	13.196	1386.930	1042.571
27.950	13.305	1385.792	1042.306
28.965	13.316	1385.243	1041.874
29.980	13.321	1384.629	1041.347
30.994	13.385	1383.411	1040.747
32.009	13.540	1382.151	1040.681
33.023	13.521	1380.983	1039.585
34.038	13.403	1379.715	1037.800
35.053	13.395	1378.550	1036.781
36.067	13.395	1377.276	1035.729
37.082	13.463	1376.587	1035.549
38.096	13.388	1376.239	1034.725
39.111	13.441	1375.031	1034.058
40.126	13.287	1374.263	1032.425
41.140	13.259	1373.425	1031.531
42.155	13.198	1373.267	1030.937
43.169	13.183	1373.254	1030.747
44.184	13.242	1372.447	1030.418
45.199	13.159	1372.174	1029.601
46.213	13.186	1371.468	1029.152
47.228	13.326	1370.601	1029.279
48.242	13.335	1369.020	1028.059
49.257	13.239	1367.514	1026.237
50.271	13.266	1366.273	1025.383
51.286	13.305	1365.099	1024.657
52.301	13.236	1364.480	1023.670
53.315	13.247	1362.606	1022.245
54.330	13.165	1361.797	1021.037
55.344	13.186	1360.611	1020.188
56.359	13.190	1359.753	1019.482
57.374	13.092	1358.717	1018.008
58.388	13.144	1357.788	1017.543
59.403	13.040	1357.496	1016.597
60.417	13.109	1356.601	1016.260
61.432	13.071	1355.907	1015.417
62.447	13.029	1354.642	1014.121
63.461	13.118	1353.514	1013.730
64.476	13.043	1352.505	1012.430
65.490	13.167	1350.823	1011.841
66.505	13.200	1349.318	1010.825
67.520	13.127	1348.210	1009.461
68.534	13.231	1346.893	1009.016
69.549	13.057	1346.335	1007.446
70.563	13.006	1345.546	1006.458
71.578	13.071	1344.155	1005.727
72.593	13.053	1343.333	1004.909
73.607	13.119	1341.989	1004.217
74.622	13.090	1341.359	1003.481
75.636	13.127	1339.995	1002.598
76.651	13.181	1339.596	1002.540
77.666	13.053	1339.157	1001.346
78.680	13.104	1338.932	1001.396
79.695	12.972	1338.119	999.900
80.709	13.090	1337.309	999.917
81.724	13.106	1336.279	999.161
82.739	13.204	1334.848	998.594
83.753	13.317	1333.817	998.416
84.768	13.267	1333.246	997.598
85.782	13.412	1331.735	997.251
86.797	13.328	1330.220	995.526
87.812	13.351	1329.047	994.698
88.826	13.240	1328.406	993.460
89.841	13.282	1327.087	992.638
90.855	13.324	1326.110	992.074
91.870	13.368	1325.301	991.642
92.884	13.337	1324.342	990.651
93.899	13.341	1323.711	990.115
94.914	13.521	1322.437	990.150
95.928	13.359	1321.851	988.660
96.943	13.300	1321.103	987.656
97.957	13.394	1319.901	987.235
98.972	13.321	1318.924	985.982
99.987	13.302	1317.853	984.977
101.001	13.329	1317.145	984.525
102.016	13.353	1315.850	983.608
103.030	13.389	1315.152	983.216
104.045	13.448	1314.133	982.717
105.060	13.375	1312.788	981.190
106.074	13.276	1311.664	979.679
107.089	13.270	1310.218	978.476
108.103	13.245	1309.364	977.604
109.118	13.150	1308.123	976.031
110.133	13.181	1306.658	975.031
111.147	13.255	1305.369	974.424
112.162	13.272	1303.632	973.140
113.176	13.298	1302.943	972.690
114.191	13.361	1301.869	972.177
115.206	13.271	1300.716	970.701
116.220	13.358	1299.457	970.185
117.235	13.302	1298.432	969.006
118.249	13.373	1297.530	968.659
119.264	13.266	1296.531	967.200
120.279	13.249	1295.197	966.021
121.293	13.208	1294.479	965.161
122.308	13.239	1293.322	964.393
123.322	13.233	1292.010	963.297
124.337	13.175	1291.613	962.579
125.352	13.204	1289.901	961.382
126.366	13.247	1288.536	960.531
127.381	13.226	1287.844	959.810
128.395	13.148	1287.019	958.656
129.410	13.201	1285.688	957.887
130.424	13.263	1285.245	957.831
131.439	13.269	1283.809	956.711
132.454	13.243	1283.000	955.875
133.468	13.264	1282.077	955.222
134.483	13.229	1281.527	954.525
135.497	13.228	1280.401	953.596
136.512	13.334	1278.468	952.688
137.527	13.316	1277.253	951.593
138.541	13.259	1276.039	950.278
139.556	13.264	1274.920	949.386
140.570	13.275	1274.343	948.939
141.585	13.327	1272.775	947.983
142.600	13.335	1271.301	946.845
143.614	13.492	1270.301	946.915
144.629	13.464	1269.553	946.114
145.643	13.477	1268.010	944.955
146.658	13.439	1266.978	943.890
147.673	13.398	1265.531	942.489
148.687	13.333	1265.114	941.725
149.702	13.453	1263.071	940.803
150.716	13.331	1262.108	939.314
151.731	13.407	1260.821	938.703
152.746	13.350	1259.685	937.449
153.760	13.416	1258.351	936.746
154.775	13.473	1257.519	936.372
155.789	13.498	1256.421	935.609
156.804	13.583	1255.041	934.980
157.819	13.576	1254.163	934.205
158.833	13.638	1253.077	933.660
159.848	13.614	1252.063	932.690
160.862	13.663	1250.912	932.024
161.877	13.569	1249.809	930.593
162.892	13.469	1249.263	929.543
163.906	13.506	1248.070	928.778
164.921	13.533	1247.310	928.281
165.935	13.639	1246.064	927.865
166.950	13.674	1245.484	927.545
167.964	13.604	1244.821	926.580
168.979	13.631	1244.029	926.058
169.994	13.651	1243.224	925.490
171.008	13.671	1242.606	925.060
172.023	13.772	1241.418	924.657
173.037	13.767	1241.065	924.282
174.052	13.736	1239.659	922.980
175.067	13.710	1239.028	922.287
176.081	13.690	1238.006	921.333
177.096	13.663	1236.746	920.164
178.110	13.669	1236.070	919.610
179.125	13.704	1234.777	918.761
180.140	13.749	1233.083	917.668
181.154	13.691	1231.908	916.393
182.169	13.777	1230.679	915.873
183.183	13.758	1230.116	915.268
184.198	13.871	1228.469	914.586
185.213	13.866	1227.389	913.673
186.227	13.810	1226.914	912.928
187.242	13.917	1225.504	912.386
188.256	13.977	1224.562	911.938
189.271	13.843	1223.810	910.557
190.286	13.923	1222.198	909.717
191.300	13.710	1222.026	908.342
192.315	13.779	1220.834	907.753
193.329	13.811	1220.274	907.429
194.344	13.754	1219.821	906.703
195.359	13.906	1219.048	906.880
196.373	13.806	1218.841	906.097
197.388	13.952	1218.021	906.205
198.402	13.976	1217.345	905.754
199.417	14.124	1216.718	906.013
200.432	14.064	1215.669	904.823
201.446	14.071	1214.978	904.268
202.461	14.090	1213.969	903.539
203.475	14.085	1212.997	902.711
204.490	14.233	1211.191	902.090
205.504	14.085	1210.437	900.643
206.519	14.054	1209.253	899.519
207.534	13.999	1208.168	898.335
208.548	14.172	1206.980	898.304
209.563	14.137	1206.384	897.595
210.577	14.056	1205.682	896.555
211.592	14.203	1204.333	896.262
212.607	14.166	1204.043	895.769
213.621	14.257	1202.969	895.381
214.636	14.146	1202.277	894.191
215.650	14.219	1201.303	893.779
216.665	14.373	1199.925	893.499
217.680	14.373	1199.222	892.895
218.694	14.383	1198.534	892.357
219.709	14.335	1197.662	891.376
220.723	14.468	1196.488	891.133
221.738	14.444	1195.645	890.298
222.753	14.305	1195.158	889.114
223.767	14.355	1194.611	888.897
224.782	14.441	1194.138	888.926
225.796	14.410	1193.636	888.307
226.811	14.494	1192.550	887.864
227.826	14.559	1191.554	887.392
228.840	14.418	1190.843	886.035
229.855	14.520	1189.867	885.770
230.869	14.456	1189.379	884.992
231.884	14.491	1188.453	884.410
232.899	14.374	1188.072	883.424
233.913	14.446	1187.346	883.188
234.928	14.389	1186.506	882.187
235.942	14.438	1185.492	881.610
236.957	14.465	1184.731	881.112
237.972	14.374	1184.383	880.296
238.986	14.440	1183.235	879.712
240.001	14.417	1182.765	879.160
241.015	14.567	1181.556	878.976
242.030	14.545	1180.732	878.169
243.045	14.589	1180.522	878.166
244.059	14.555	1179.652	877.264
245.074	14.605	1178.445	876.549
246.088	14.598	1177.836	875.986
247.103	14.685	1176.935	875.693
248.117	14.728	1176.257	875.336
249.132	14.684	1175.566	874.515
250.147	14.772	1175.005	874.481
251.161	14.925	1173.831	874.328
252.176	14.811	1173.672	873.537
253.190	14.906	1172.991	873.450
254.205	14.957	1172.097	872.970
255.220	15.047	1171.396	872.841
256.234	15.010	1170.733	872.077
257.249	14.911	1170.132	871.039
258.263	14.924	1169.698	870.708
259.278	15.006	1169.213	870.692
260.293	15.042	1168.202	870.052
261.307	15.064	1167.557	869.608
262.322	15.079	1167.068	869.245
263.336	15.116	1166.429	868.883
264.351	15.196	1165.492	868.524
265.366	15.139	1165.103	867.862
266.380	15.150	1164.501	867.394
267.395	15.220	1163.549	866.970
268.409	15.196	1162.991	866.351
269.424	15.019	1162.448	864.958
270.439	15.132	1162.259	865.324
271.453	15.132	1160.844	864.194
272.468	15.132	1159.927	863.432
273.482	15.199	1158.740	862.821
274.497	15.160	1158.624	862.455
275.512	15.036	1158.112	861.361
276.526	15.150	1157.184	861.180
277.541	15.279	1156.334	861.136
278.555	15.244	1155.719	860.421
279.570	15.291	1155.020	860.066
280.585	15.393	1154.110	859.836
281.599	15.353	1153.065	858.775
282.614	15.228	1152.388	857.552
283.628	15.289	1151.356	857.021
284.643	15.189	1150.570	855.853
285.657	15.307	1149.653	855.696
286.672	15.377	1148.604	855.197
287.687	15.452	1147.608	854.759
288.701	15.430	1147.109	854.200
289.716	15.474	1146.163	853.646
290.730	15.419	1145.556	852.840
291.745	15.380	1144.682	851.914
292.760	15.390	1144.056	851.422
293.774	15.590	1143.594	852.016
294.789	15.672	1142.693	851.685
295.803	15.602	1142.314	850.976
296.818	15.621	1141.185	850.157
297.833	15.584	1140.597	849.454
298.847	15.470	1140.466	848.705
299.862	15.532	1139.431	848.173
300.876	15.594	1138.558	847.760
301.891	15.736	1137.567	847.662
302.906	15.632	1137.378	846.924
303.920	15.654	1136.680	846.442
304.935	15.793	1135.864	846.458
305.949	15.788	1135.494	846.083
306.964	15.734	1134.406	844.924
307.979	15.839	1133.700	844.848
308.993	15.672	1133.141	843.523
310.008	15.758	1132.295	843.246
311.022	15.782	1131.590	842.771
312.037	15.822	1130.541	842.114
313.052	15.778	1129.754	841.233
314.066	15.795	1129.025	840.698
315.081	15.789	1127.814	839.695
316.095	15.760	1127.359	839.136
317.110	15.750	1126.509	838.380
318.125	15.788	1125.929	838.063
319.139	15.756	1125.391	837.430
320.154	15.766	1124.417	836.681
321.168	15.863	1124.029	836.801
322.183	15.808	1123.275	835.888
323.197	15.914	1122.381	835.677
324.212	15.840	1122.188	835.090
325.227	15.870	1121.471	834.635
326.241	15.943	1120.681	834.336
327.256	15.853	1120.090	833.373
328.270	15.909	1119.082	832.826
329.285	15.918	1117.953	831.958
330.300	15.966	1116.858	831.308
331.314	15.951	1116.122	830.613
332.329	15.920	1115.273	829.754
333.343	15.977	1114.256	829.203
334.358	16.001	1113.744	828.866
335.373	16.007	1112.780	828.108
336.387	16.037	1111.920	827.539
337.402	15.967	1111.508	826.816
338.416	16.046	1110.547	826.416
339.431	16.166	1109.974	826.503
340.446	16.223	1109.143	826.091
341.460	16.159	1108.646	825.336
342.475	16.255	1107.501	824.881
343.489	16.139	1107.120	823.954
344.504	16.305	1106.000	823.857
345.519	16.289	1105.385	823.249
346.533	16.340	1104.782	822.977
347.548	16.364	1103.821	822.306
348.562	16.426	1102.793	821.766
349.577	16.342	1102.116	820.781
350.592	16.288	1101.332	819.862
351.606	16.205	1100.978	819.125
352.621	16.247	1100.018	818.540
353.635	16.297	1099.698	818.475
354.650	16.353	1098.949	818.112
355.665	16.427	1097.880	817.603
356.679	16.336	1097.631	816.909
357.694	16.514	1096.816	817.089
358.708	16.402	1096.125	815.962
359.723	16.474	1095.439	815.727
360.738	16.608	1094.637	815.700
361.752	16.551	1094.397	815.174
362.767	16.477	1093.913	814.384
363.781	16.576	1092.811	813.970
364.796	16.539	1092.639	813.592
365.810	16.480	1092.116	812.846
366.825	16.637	1091.425	813.014
367.840	16.707	1090.954	812.928
368.854	16.637	1090.421	812.123
369.869	16.706	1089.509	811.704
370.883	16.775	1088.305	811.065
371.898	16.773	1087.922	810.701
372.913	16.685	1087.615	809.975
373.927	16.625	1087.241	809.342
374.942	16.694	1086.480	809.033
375.956	16.743	1085.746	808.649
376.971	16.755	1085.154	808.192
377.986	16.800	1084.898	808.145
379.000	16.967	1083.846	808.085
380.015	16.830	1083.540	807.132
381.029	16.921	1082.918	807.032
382.044	16.836	1082.433	806.194
383.059	16.918	1081.448	805.780
384.073	16.943	1080.588	805.185
385.088	16.958	1079.639	804.479
386.102	16.932	1078.693	803.579
387.117	16.865	1077.914	802.611
388.132	16.914	1076.781	801.929
389.146	16.967	1076.041	801.554
390.161	16.917	1075.797	801.066
391.175	16.943	1074.838	800.403
392.190	16.966	1074.044	799.850
393.205	17.124	1073.074	799.802
394.219	17.100	1072.457	799.160
395.234	17.086	1071.669	798.432
396.248	17.083	1070.394	797.401
397.263	16.967	1069.657	796.233
398.278	17.003	1068.919	795.786
399.292	17.080	1068.235	795.564
400.307	17.028	1067.616	794.793
401.321	17.192	1066.902	794.958
402.336	16.974	1066.464	793.542
403.350	17.049	1065.632	793.201
404.365	17.214	1064.773	793.260
405.380	17.160	1064.133	792.464
406.394	17.182	1063.362	791.921
407.409	17.191	1062.651	791.366
408.423	17.289	1061.828	791.137
409.438	17.282	1060.997	790.414
410.453	17.297	1060.658	790.163
411.467	17.293	1059.772	789.412
412.482	17.295	1059.302	789.006
413.496	17.383	1058.920	789.058
414.511	17.363	1058.544	788.614
415.526	17.484	1057.408	788.258
416.540	17.490	1057.145	788.020
417.555	17.458	1056.499	787.322
418.569	17.435	1055.774	786.608
419.584	17.481	1055.594	786.615
420.599	17.506	1055.044	786.250
421.613	108.035	1330.950	1487.656
422.628	99.566	1371.102	1487.733
