DTS Sentinel unit serial number:	SN413079Multiplexer serial number:	ORYXHardware model number:	OX4-SRSoftware version number:	ORYX F/W v4.00 Oryx Data Collector v3.7.2.0data status	okinstallation	princeton_trtdifferential loss correction	single-endedforward channel	channel 2reverse channel	N/Adate	2019/09/11time	23:17:10forward acquisition time	60.00reverse acquisition time	0.00gamma	496.2192k internal	0.2325k external	0.2325temperature offset calibration	1.0075default loss term (dB/km)	0.3790temperature slope calibration	1.0000multiplexer offset coefficient	1.0000multiplexer slope coefficient	1.0000fibre end	0.00T internal ref (°C)	34.39T ext. ref 1 (°C)	1.86T ext. ref 2 (°C)	28.92length (m)	temperature (°C)	Stokes	anti-Stokes-747.200	-86.031	0.148	0.046
-746.185	-72.733	-0.094	-0.035
-745.171	114.616	0.217	0.267
-744.156	-113.071	-0.323	0.064
-743.142	800.000	0.013	0.050
-742.127	434.249	0.041	-0.091
-741.112	-31.764	-0.104	0.059
-740.098	39.117	-0.398	0.359
-739.083	496.100	0.072	0.167
-738.069	78.889	-0.028	0.030
-737.054	397.761	-0.101	0.212
-736.039	-87.335	-0.068	0.021
-735.025	-8.801	0.274	-0.186
-734.010	800.000	-0.010	-0.032
-732.996	438.602	0.118	-0.259
-731.981	-4.590	-0.430	0.300
-730.966	-99.954	-0.117	-0.029
-729.952	96.484	-0.056	0.064
-728.937	-48.895	0.176	-0.085
-727.923	142.118	-0.116	0.156
-726.908	-83.391	-0.132	0.043
-725.894	800.000	0.159	-0.603
-724.879	800.000	-0.054	0.173
-723.864	313.291	-0.185	-0.350
-722.850	800.000	-0.158	-0.494
-721.835	75.991	-0.181	0.193
-720.821	-101.892	0.262	0.064
-719.806	-200.000	0.001	-0.403
-718.791	-135.358	0.409	-0.049
-717.777	6.098	-0.241	-0.180
-716.762	-120.833	0.276	-0.047
-715.748	800.000	0.057	-0.172
-714.733	108.394	-0.190	0.228
-713.718	-200.000	-0.018	-0.172
-712.704	-86.832	0.138	-0.043
-711.689	-93.342	0.156	0.044
-710.675	-117.344	-0.136	0.025
-709.660	138.658	-0.221	-0.293
-708.645	160.866	-0.075	-0.106
-707.631	-200.000	0.006	-0.184
-706.616	-200.000	0.028	-0.139
-705.602	747.949	-0.119	-0.322
-704.587	-41.507	0.181	0.094
-703.572	37.020	0.079	0.070
-702.558	-142.248	0.357	0.036
-701.543	95.893	-0.227	0.261
-700.529	684.308	0.051	0.135
-699.514	32.842	0.046	-0.040
-698.499	294.372	-0.072	-0.132
-697.485	800.000	0.057	0.198
-696.470	1.062	0.047	-0.034
-695.456	-127.217	0.006	0.001
-694.441	-200.000	-0.004	0.118
-693.426	2.343	-0.101	0.074
-692.412	578.723	0.051	0.127
-691.397	135.394	0.084	-0.110
-690.383	-110.719	-0.164	-0.034
-689.368	136.414	0.209	-0.274
-688.354	-24.559	-0.430	0.258
-687.339	-123.158	0.314	-0.051
-686.324	-61.720	0.500	0.211
-685.310	187.605	-0.103	-0.155
-684.295	-165.392	-0.510	0.023
-683.281	-149.224	0.056	-0.005
-682.266	-158.077	0.075	0.004
-681.251	546.874	0.091	0.219
-680.237	-0.101	-0.063	0.045
-679.222	611.502	0.101	-0.255
-678.208	-124.771	0.184	0.029
-677.193	-200.000	0.051	-0.235
-676.178	154.946	-0.203	0.281
-675.164	-200.000	-0.063	-0.461
-674.149	-156.721	0.243	0.015
-673.135	185.666	-0.148	0.221
-672.120	-5.263	-0.178	0.123
-671.105	-189.834	0.151	0.002
-670.091	144.146	0.060	0.080
-669.076	124.462	0.100	0.126
-668.062	-77.154	-0.253	0.089
-667.047	118.870	-0.037	0.046
-666.032	-200.000	0.022	0.424
-665.018	-200.000	-0.054	0.286
-664.003	251.637	0.100	-0.172
-662.989	39.886	0.228	0.206
-661.974	-48.926	-0.139	-0.067
-660.959	800.000	-0.054	-0.193
-659.945	413.957	-0.052	-0.111
-658.930	79.993	0.095	-0.103
-657.916	-15.979	-0.334	-0.214
-656.901	800.000	-0.147	0.436
-655.886	-104.754	-0.090	0.021
-654.872	-200.000	0.046	-0.234
-653.857	790.591	0.106	-0.293
-652.843	199.459	0.206	0.318
-651.828	-93.194	0.510	0.142
-650.814	800.000	-0.048	0.167
-649.799	-101.607	-0.210	0.051
-648.784	800.000	-0.024	-0.076
-647.770	118.896	0.190	0.236
-646.755	-200.000	-0.014	-0.381
-645.741	-164.426	-0.125	0.006
-644.726	-163.328	-0.166	0.008
-643.711	441.066	-0.118	0.259
-642.697	-19.360	0.159	0.099
-641.682	-54.545	0.188	0.086
-640.668	-72.499	-0.198	0.074
-639.653	-31.014	0.126	0.072
-638.638	205.841	0.262	0.409
-637.624	759.676	-0.115	0.313
-636.609	-63.349	0.109	-0.045
-635.595	-200.000	-0.004	-0.105
-634.580	-158.337	-0.063	0.004
-633.565	782.361	0.025	0.070
-632.551	-29.293	0.050	-0.029
-631.536	-23.216	0.167	-0.101
-630.522	-160.360	-0.201	-0.011
-629.507	-200.000	0.006	0.142
-628.492	-127.009	-0.116	0.017
-627.478	59.332	-0.084	-0.083
-626.463	15.699	0.135	-0.106
-625.449	166.668	-0.034	0.049
-624.434	489.739	0.058	-0.133
-623.419	-136.007	-0.068	-0.008
-622.405	-114.587	0.251	-0.048
-621.390	47.203	-0.191	-0.179
-620.376	501.732	-0.056	0.130
-619.361	4.130	0.028	0.021
-618.346	-6.686	0.205	0.140
-617.332	46.195	-0.045	-0.041
-616.317	-79.292	0.135	-0.046
-615.303	800.000	0.053	0.192
-614.288	-200.000	-0.002	-0.237
-613.273	-12.319	-0.334	-0.219
-612.259	545.768	0.011	-0.026
-611.244	-133.356	0.237	-0.030
-610.230	-200.000	0.062	-0.402
-609.215	-200.000	-0.007	0.119
-608.201	-21.670	-0.177	0.108
-607.186	800.000	-0.076	0.224
-606.171	-117.603	0.426	-0.077
-605.157	41.272	0.015	0.013
-604.142	-102.805	-0.213	0.051
-603.128	475.322	-0.092	0.209
-602.113	-200.000	-0.052	0.504
-601.098	800.000	0.061	-0.182
-600.084	-134.382	0.213	0.026
-599.069	-139.664	-0.209	-0.022
-598.055	-88.150	-0.206	0.062
-597.040	12.543	0.386	-0.299
-596.025	-34.762	-0.173	0.095
-595.011	581.027	-0.010	-0.024
-593.996	398.857	0.146	0.307
-592.982	800.000	0.053	0.159
-591.967	97.995	0.166	0.191
-590.952	417.041	-0.131	-0.280
-589.938	28.866	0.075	-0.064
-588.923	-154.694	0.174	-0.012
-587.909	106.059	0.104	-0.124
-586.894	-187.246	0.379	0.005
-585.879	-200.000	0.024	-0.126
-584.865	621.506	0.042	0.107
-583.850	-154.556	0.482	0.032
-582.836	-200.000	0.012	-0.228
-581.821	11.347	0.175	0.134
-580.806	29.870	0.124	-0.106
-579.792	800.000	-0.019	-0.076
-578.777	13.585	-0.028	0.022
-577.763	532.333	-0.065	0.153
-576.748	-133.275	-0.102	0.013
-575.733	-49.431	0.184	-0.088
-574.719	-53.045	0.094	-0.043
-573.704	800.000	-0.043	-0.146
-572.690	-67.909	-0.177	-0.069
-571.675	-123.836	-0.236	-0.037
-570.661	59.183	-0.115	0.114
-569.646	800.000	-0.079	-0.231
-568.631	800.000	0.016	-0.062
-567.617	351.537	-0.085	-0.168
-566.602	-200.000	0.034	-0.173
-565.588	66.328	0.093	0.095
-564.573	511.234	-0.069	-0.160
-563.558	-200.000	0.022	0.140
-562.544	55.685	0.097	0.094
-561.529	79.660	-0.050	-0.054
-560.515	800.000	0.060	-0.203
-559.500	328.183	0.103	-0.198
-558.485	297.639	0.068	-0.125
-557.471	39.826	0.094	-0.085
-556.456	-26.236	0.166	-0.098
-555.442	-96.885	0.205	0.054
-554.427	-200.000	0.001	-0.093
-553.412	-25.712	-0.074	-0.044
-552.398	239.841	-0.098	-0.163
-551.383	800.000	0.062	0.252
-550.369	-101.311	-0.187	0.046
-549.354	-200.000	0.062	0.305
-548.339	800.000	-0.124	-0.442
-547.325	800.000	0.067	-0.250
-546.310	390.679	0.098	0.203
-545.296	800.000	0.069	0.293
-544.281	121.629	0.169	0.211
-543.266	-200.000	-0.010	-0.107
-542.252	399.786	0.115	0.241
-541.237	175.061	-0.082	0.119
-540.223	-121.611	-0.519	-0.086
-539.208	-200.000	0.010	-0.240
-538.193	637.639	-0.069	-0.175
-537.179	41.028	0.097	0.087
-536.164	-60.096	-0.216	0.092
-535.150	693.555	-0.145	-0.379
-534.135	-66.423	-0.326	0.130
-533.121	307.542	0.064	0.120
-532.106	-62.099	-0.103	0.043
-531.091	92.229	-0.157	-0.177
-530.077	97.000	0.147	0.168
-529.062	-200.000	0.005	-0.235
-528.048	-121.337	0.180	-0.030
-527.033	-20.580	0.062	-0.038
-526.018	-200.000	-0.057	-0.383
-525.004	-100.666	0.293	-0.072
-523.989	-136.502	0.106	-0.012
-522.975	125.334	-0.188	-0.237
-521.960	800.000	0.051	-0.143
-520.945	-196.879	-0.173	0.001
-519.931	-51.365	0.045	-0.021
-518.916	-70.171	0.223	-0.085
-517.902	12.039	-0.064	-0.049
-516.887	800.000	0.084	-0.265
-515.872	800.000	-0.059	-0.167
-514.858	800.000	0.124	0.492
-513.843	306.717	-0.040	-0.074
-512.829	-42.957	-0.188	-0.095
-511.814	-126.750	-0.161	-0.024
-510.799	651.544	-0.046	-0.118
-509.785	800.000	0.107	0.340
-508.770	-120.204	0.348	0.059
-507.756	-200.000	-0.000	-0.211
-506.741	122.395	-0.185	0.232
-505.726	575.191	-0.083	0.202
-504.712	336.738	0.031	-0.061
-503.697	-200.000	0.031	-0.159
-502.683	800.000	-0.059	-0.234
-501.668	423.159	-0.165	-0.354
-500.653	195.214	-0.170	-0.258
-499.639	800.000	-0.061	-0.242
-498.624	9.593	-0.286	0.216
-497.610	-200.000	-0.007	0.054
-496.595	-200.000	-0.061	0.269
-495.581	444.239	-0.171	0.374
-494.566	-13.781	-0.219	-0.142
-493.551	-87.256	0.316	-0.096
-492.537	-200.000	-0.021	-0.119
-491.522	-69.844	-0.223	0.085
-490.508	-126.659	-0.149	-0.022
-489.493	422.898	-0.088	0.188
-488.478	-54.047	-0.113	0.052
-487.464	52.328	-0.039	0.037
-486.449	-172.552	-0.152	-0.005
-485.435	-100.740	0.142	0.035
-484.420	800.000	-0.003	0.011
-483.405	590.328	-0.235	0.578
-482.391	-7.985	-0.133	-0.090
-481.376	-125.620	0.152	0.023
-480.362	112.860	-0.064	-0.077
-479.347	55.456	-0.022	-0.021
-478.332	800.000	0.081	0.242
-477.318	46.197	0.056	0.051
-476.303	-93.293	0.120	-0.033
-475.289	-198.585	0.242	-0.001
-474.274	-36.898	0.271	0.145
-473.259	-23.188	0.460	0.276
-472.245	-200.000	-0.028	0.165
-471.230	16.789	-0.127	0.101
-470.216	-200.000	0.017	0.122
-469.201	800.000	0.033	-0.111
-468.186	800.000	-0.092	-0.319
-467.172	70.644	-0.073	-0.075
-466.157	9.610	-0.185	0.140
-465.143	-51.820	-0.136	0.063
-464.128	0.036	-0.033	-0.023
-463.113	176.415	0.103	0.149
-462.099	800.000	0.058	-0.196
-461.084	800.000	0.062	0.226
-460.070	-123.295	0.245	0.039
-459.055	-56.098	-0.177	0.079
-458.040	-170.235	-0.335	0.012
-457.026	-3.666	0.246	-0.170
-456.011	65.612	-0.137	-0.138
-454.997	-43.239	0.276	0.139
-453.982	-43.918	0.163	0.082
-452.968	-6.022	-0.061	0.041
-451.953	103.173	0.063	-0.074
-450.938	-200.000	-0.055	0.279
-449.924	394.274	-0.262	-0.544
-448.909	-140.803	0.142	-0.015
-447.895	51.468	0.119	-0.113
-446.880	179.847	0.169	0.247
-445.865	-15.928	0.248	-0.158
-444.851	157.809	-0.150	0.207
-443.836	144.643	0.135	0.180
-442.822	-200.000	0.038	-0.216
-441.807	-14.911	0.252	0.161
-440.792	-200.000	0.014	0.135
-439.778	116.831	-0.106	-0.129
-438.763	800.000	0.064	0.235
-437.749	-57.100	0.079	-0.035
-436.734	-200.000	0.003	-0.140
-435.719	50.721	-0.141	-0.133
-434.705	-109.939	0.154	-0.032
-433.690	800.000	0.022	0.088
-432.676	76.465	0.177	-0.187
-431.661	98.291	-0.158	0.181
-430.646	-200.000	0.006	-0.153
-429.632	-35.727	-0.241	0.130
-428.617	203.599	-0.110	-0.170
-427.603	1.152	0.131	0.094
-426.588	-200.000	-0.013	-0.130
-425.573	-112.201	-0.199	0.040
-424.559	-126.266	-0.043	-0.006
-423.544	800.000	-0.062	0.173
-422.530	-94.599	-0.190	0.051
-421.515	-200.000	0.046	0.264
-420.500	-166.151	-0.090	0.004
-419.486	-113.073	0.104	-0.020
-418.471	-62.914	-0.265	-0.109
-417.457	-168.937	-0.407	-0.015
-416.442	-25.090	0.368	-0.217
-415.428	219.759	-0.206	0.329
-414.413	538.208	0.046	0.110
-413.398	-53.934	0.382	0.173
-412.384	-187.416	-0.142	0.002
-411.369	-200.000	0.034	0.227
-410.355	800.000	0.158	0.450
-409.340	221.698	0.185	-0.296
-408.325	-80.076	-0.038	-0.013
-407.311	-46.173	-0.493	-0.242
-406.296	800.000	-0.111	-0.428
-405.282	199.005	-0.078	-0.119
-404.267	524.971	0.063	0.148
-403.252	-26.368	-0.311	-0.182
-402.238	83.443	-0.101	-0.110
-401.223	61.701	0.033	-0.033
-400.209	3.990	0.110	0.080
-399.194	591.123	-0.070	-0.171
-398.179	-140.251	0.255	-0.027
-397.165	258.666	0.067	-0.115
-396.150	330.019	-0.050	-0.095
-395.136	545.083	-0.113	0.270
-394.121	-37.268	0.253	0.135
-393.106	166.209	-0.084	0.119
-392.092	152.082	0.116	0.157
-391.077	-173.940	0.341	-0.010
-390.063	73.055	-0.191	0.199
-389.048	500.627	0.093	0.213
-388.033	77.668	0.238	0.252
-387.019	-200.000	0.040	-0.231
-386.004	121.118	-0.113	-0.139
-384.990	291.880	-0.106	-0.193
-383.975	-200.000	-0.049	0.226
-382.960	50.860	-0.169	-0.159
-381.946	141.166	0.112	0.147
-380.931	452.357	-0.068	-0.150
-379.917	-200.000	0.004	-0.231
-378.902	95.499	0.192	-0.218
-377.888	800.000	0.094	0.263
-376.873	-18.953	0.131	-0.081
-375.858	22.945	0.132	0.108
-374.844	-164.316	-0.008	-0.000
-373.829	-200.000	0.049	-0.253
-372.815	-88.763	-0.244	0.072
-371.800	-200.000	-0.016	0.071
-370.785	166.988	0.113	0.160
-369.771	-45.008	0.078	0.039
-368.756	-62.724	-0.048	0.020
-367.742	-157.385	-0.200	0.012
-366.727	-66.303	-0.195	-0.077
-365.712	-200.000	0.033	-0.368
-364.698	82.192	-0.138	-0.149
-363.683	271.040	0.134	-0.235
-362.669	37.920	0.387	0.342
-361.654	-165.705	0.286	0.012
-360.639	-91.025	0.244	0.070
-359.625	91.606	-0.097	-0.109
-358.610	-133.887	0.281	0.035
-357.596	800.000	-0.011	0.037
-356.581	-140.083	-0.048	0.005
-355.566	-200.000	0.055	0.283
-354.552	-74.452	0.189	-0.068
-353.537	-200.000	0.039	-0.232
-352.523	-181.949	0.209	0.004
-351.508	428.867	0.110	0.236
-350.493	-92.028	-0.103	0.029
-349.479	742.703	0.030	-0.081
-348.464	-147.973	0.218	-0.018
-347.450	142.870	0.157	0.208
-346.435	-188.560	0.064	-0.001
-345.420	-41.330	0.136	0.069
-344.406	-9.065	-0.173	-0.115
-343.391	0.655	-0.209	-0.149
-342.377	-115.184	-0.204	0.038
-341.362	-117.148	0.323	-0.058
-340.348	800.000	0.010	0.033
-339.333	23.631	0.072	0.059
-338.318	359.908	0.140	0.278
-337.304	21.211	-0.215	-0.174
-336.289	-110.713	-0.146	-0.030
-335.275	30.672	-0.125	-0.107
-334.260	63.360	0.214	-0.213
-333.245	71.805	-0.073	-0.076
-332.231	312.936	0.088	0.165
-331.216	-83.409	0.136	0.043
-330.202	224.806	0.125	0.201
-329.187	-137.102	-0.226	0.026
-328.172	-77.091	-0.025	-0.009
-327.158	-103.317	-0.286	0.067
-326.143	-200.000	-0.028	-0.128
-325.129	265.485	0.110	0.191
-324.114	143.439	-0.177	0.235
-323.099	-135.735	0.080	-0.009
-322.085	800.000	-0.141	0.422
-321.070	227.981	-0.145	-0.235
-320.056	73.722	0.163	-0.169
-319.041	224.432	-0.041	0.065
-318.026	-200.000	0.024	-0.211
-317.012	577.906	0.118	0.286
-315.997	564.610	0.088	-0.211
-314.983	-20.899	-0.344	-0.209
-313.968	-200.000	0.047	0.214
-312.953	108.820	0.255	0.303
-311.939	302.756	-0.255	0.468
-310.924	-42.082	0.094	0.048
-309.910	698.366	-0.099	-0.257
-308.895	-200.000	0.027	-0.301
-307.880	285.966	0.259	-0.464
-306.866	-200.000	0.004	0.032
-305.851	800.000	0.085	0.287
-304.837	-88.111	-0.261	-0.078
-303.822	-200.000	0.025	-0.352
-302.807	13.189	0.152	0.117
-301.793	800.000	0.016	0.057
-300.778	-131.324	-0.276	0.036
-299.764	-59.715	0.253	-0.108
-298.749	-200.000	-0.090	-0.398
-297.735	-104.223	-0.032	-0.007
-296.720	186.698	0.093	0.137
-295.705	615.836	0.155	-0.387
-294.691	-200.000	0.000	0.531
-293.676	-130.796	0.471	0.063
-292.662	-98.762	-0.199	0.050
-291.647	-200.000	-0.025	-0.170
-290.632	-103.939	0.111	0.026
-289.618	800.000	0.089	-0.374
-288.603	-200.000	-0.019	0.325
-287.589	24.261	0.258	0.211
-286.574	164.778	0.150	0.210
-285.559	-200.000	0.014	-0.449
-284.545	-200.000	0.005	-0.104
-283.530	235.527	-0.234	0.383
-282.516	226.221	-0.128	0.205
-281.501	-64.453	-0.295	0.119
-280.486	209.397	-0.176	0.273
-279.472	800.000	-0.058	-0.195
-278.457	352.415	-0.043	0.085
-277.443	189.372	0.183	-0.272
-276.428	336.698	-0.124	0.239
-275.413	354.840	0.094	0.184
-274.399	94.276	0.161	-0.181
-273.384	-16.229	0.218	-0.137
-272.370	-93.796	-0.231	-0.063
-271.355	-43.320	0.100	-0.050
-270.340	-92.587	-0.251	-0.070
-269.326	-115.751	0.228	-0.042
-268.311	-200.000	-0.052	-0.406
-267.297	359.044	-0.129	0.256
-266.282	-80.849	-0.115	0.038
-265.267	70.510	-0.135	0.138
-264.253	-124.194	0.293	0.045
-263.238	-151.489	-0.179	0.013
-262.224	93.147	-0.098	-0.110
-261.209	-200.000	-0.004	0.113
-260.195	343.551	-0.043	-0.083
-259.180	29.819	-0.210	0.177
-258.165	-48.692	-0.169	-0.080
-257.151	-148.459	-0.254	0.021
-256.136	472.260	0.070	-0.155
-255.122	41.365	-0.226	-0.202
-254.107	424.765	0.120	0.255
-253.092	-200.000	-0.014	0.083
-252.078	-87.970	0.055	-0.016
-251.063	-200.000	-0.038	-0.179
-250.049	-73.502	-0.016	0.006
-249.034	-157.713	-0.293	-0.017
-248.019	-200.000	0.016	0.417
-247.005	345.629	0.105	0.203
-245.990	-118.022	0.071	-0.012
-244.976	-55.690	0.210	0.093
-243.961	-68.803	0.149	-0.057
-242.946	-107.801	-0.289	0.062
-241.932	-77.338	0.293	-0.101
-240.917	-158.405	-0.035	0.002
-239.903	32.815	-0.148	0.127
-238.888	-113.668	0.238	-0.046
-237.873	368.232	-0.054	-0.109
-236.859	-200.000	-0.039	0.181
-235.844	-111.627	-0.299	-0.060
-234.830	74.171	0.182	0.189
-233.815	545.444	0.068	0.162
-232.800	199.501	0.109	-0.165
-231.786	-200.000	-0.003	0.064
-230.771	-200.000	0.074	0.454
-229.757	65.709	0.294	0.295
-228.742	-200.000	-0.037	0.199
-227.727	169.276	-0.005	-0.007
-226.713	-200.000	-0.011	-0.113
-225.698	-156.909	-0.179	-0.011
-224.684	203.841	-0.131	-0.201
-223.669	-200.000	-0.015	-0.241
-222.655	-200.000	-0.031	0.187
-221.640	284.488	0.094	-0.167
-220.625	-48.937	-0.175	-0.083
-219.611	-151.776	0.249	0.018
-218.596	800.000	-0.040	0.154
-217.582	-200.000	-0.026	-0.189
-216.567	-47.674	-0.239	-0.115
-215.552	325.136	-0.109	-0.206
-214.538	800.000	0.021	-0.059
-213.523	-15.826	-0.103	0.065
-212.509	99.818	0.380	0.435
-211.494	-200.000	0.003	-0.275
-210.479	-98.213	-0.056	0.014
-209.465	-133.411	0.334	0.041
-208.450	-200.000	-0.017	-0.113
-207.436	-200.000	-0.026	-0.181
-206.421	-200.000	-0.011	-0.052
-205.406	-200.000	0.066	0.427
-204.392	540.726	0.083	-0.194
-203.377	263.601	-0.158	-0.271
-202.363	-6.571	-0.266	0.179
-201.348	-103.699	0.142	-0.033
-200.333	23.178	-0.111	0.090
-199.319	122.488	0.086	0.106
-198.304	57.233	-0.078	0.075
-197.290	-200.000	-0.016	-0.111
-196.275	-172.845	-0.056	0.002
-195.260	-39.171	-0.079	-0.041
-194.246	-24.902	0.046	-0.027
-193.231	-15.849	0.098	0.061
-192.217	-24.761	-0.098	-0.058
-191.202	-89.261	-0.392	0.114
-190.187	58.090	-0.145	0.141
-189.173	-74.323	0.160	0.057
-188.158	-200.000	-0.004	0.063
-187.144	-79.872	-0.566	-0.188
-186.129	155.230	0.084	0.114
-185.114	479.935	-0.130	0.292
-184.100	555.761	-0.060	0.142
-183.085	27.384	-0.077	0.064
-182.071	-119.592	-0.150	-0.026
-181.056	-200.000	-0.002	-0.324
-180.042	88.680	-0.088	0.097
-179.027	147.349	0.140	-0.187
-178.012	-39.533	-0.478	0.247
-176.998	800.000	0.115	-0.465
-175.983	-200.000	0.007	0.073
-174.969	581.290	-0.194	-0.470
-173.954	-200.000	0.007	-0.120
-172.939	-200.000	-0.085	0.425
-171.925	-77.849	-0.035	0.012
-170.910	-200.000	0.005	-0.326
-169.896	66.499	-0.047	0.047
-168.881	800.000	0.052	0.157
-167.866	800.000	-0.084	-0.349
-166.852	-200.000	0.025	-0.336
-165.837	11.390	0.185	0.140
-164.823	112.893	0.083	0.100
-163.808	331.950	-0.115	-0.220
-162.793	-148.500	-0.228	0.018
-161.779	120.940	0.203	-0.249
-160.764	152.306	0.179	0.242
-159.750	800.000	0.004	-0.015
-158.735	-44.208	-0.303	-0.150
-157.720	390.455	0.113	0.232
-156.706	-200.000	-0.015	-0.300
-155.691	-175.607	0.065	0.002
-154.677	109.516	0.300	-0.354
-153.662	-77.977	-0.258	-0.088
-152.647	-1.472	0.026	-0.018
-151.633	-200.000	-0.022	0.194
-150.618	5.623	0.136	-0.099
-149.604	280.870	0.205	-0.362
-148.589	89.984	-0.256	-0.282
-147.574	-88.810	0.118	0.035
-146.560	800.000	-0.061	0.247
-145.545	207.939	0.043	0.067
-144.531	66.546	0.221	-0.221
-143.516	-175.967	-0.117	0.003
-142.502	-200.000	0.033	-0.232
-141.487	-200.000	-0.006	0.175
-140.472	-150.225	0.293	0.022
-139.458	277.366	-0.032	0.057
-138.443	-120.587	0.031	-0.005
-137.429	487.609	0.012	0.027
-136.414	-200.000	-0.006	0.221
-135.399	800.000	0.066	-0.230
-134.385	-109.367	0.151	0.032
-133.370	760.898	-0.055	-0.148
-132.356	-200.000	0.044	0.235
-131.341	800.000	0.059	0.239
-130.326	-50.639	-0.156	0.072
-129.312	34.369	0.196	0.169
-128.297	800.000	0.036	0.122
-127.283	91.762	0.180	0.200
-126.268	364.586	0.121	-0.240
-125.253	-198.569	-0.143	-0.001
-124.239	-200.000	0.011	0.183
-123.224	-200.000	0.065	0.428
-122.210	-84.513	0.032	0.010
-121.195	485.853	0.079	-0.178
-120.180	734.344	0.061	-0.162
-119.166	-200.000	-0.020	0.223
-118.151	-200.000	0.012	-0.134
-117.137	129.331	-0.196	0.246
-116.122	-126.425	0.190	-0.028
-115.107	-200.000	0.009	0.076
-114.093	67.613	0.156	0.157
-113.078	414.871	0.105	0.221
-112.064	235.027	-0.090	0.146
-111.049	85.122	-0.106	0.114
-110.034	150.979	-0.062	0.083
-109.020	80.547	-0.159	0.169
-108.005	800.000	-0.025	-0.106
-106.991	665.150	0.050	0.126
-105.976	58.512	0.133	-0.129
-104.962	-180.433	0.242	-0.005
-103.947	-200.000	0.002	0.010
-102.932	-100.151	0.282	-0.069
-101.918	709.209	-0.174	-0.454
-100.903	-116.186	-0.011	0.002
-99.889	-47.191	-0.177	-0.085
-98.874	40.613	0.155	0.138
-97.859	262.991	0.177	0.302
-96.845	-59.720	-0.412	-0.174
-95.830	54.560	0.148	-0.140
-94.816	-11.138	0.183	0.119
-93.801	800.000	0.032	0.131
-92.786	7.892	-0.061	-0.045
-91.772	-64.398	0.146	-0.058
-90.757	-200.000	0.008	0.078
-89.743	187.016	0.115	0.169
-88.728	-130.404	0.298	0.040
-87.713	-55.899	-0.132	-0.058
-86.699	525.483	0.190	0.440
-85.684	94.122	-0.165	0.184
-84.670	-1.566	-0.264	-0.183
-83.655	-120.466	0.392	-0.065
-82.640	-143.559	0.162	-0.015
-81.626	164.368	0.076	0.105
-80.611	-66.621	-0.361	0.141
-79.597	-200.000	0.050	0.229
-78.582	-25.997	-0.319	-0.185
-77.567	155.653	-0.050	-0.068
-76.553	-200.000	0.018	0.295
-75.538	800.000	-0.073	0.203
-74.524	-200.000	-0.001	-0.120
-73.509	-94.750	0.327	0.087
-72.494	-14.185	0.093	-0.059
-71.480	4.277	0.138	0.099
-70.465	-14.715	-0.231	0.146
-69.451	-200.000	-0.063	0.402
-68.436	308.337	0.081	0.148
-67.422	527.822	-0.055	0.128
-66.407	-200.000	-0.019	-0.167
-65.392	44.602	0.241	0.218
-64.378	416.285	-0.180	-0.378
-63.363	-200.000	-0.053	0.292
-62.349	-200.000	-0.008	0.278
-61.334	-29.510	-0.830	-0.466
-60.319	-57.350	0.412	0.178
-59.305	401.763	-0.375	-0.774
-58.290	800.000	0.341	1.075
-57.276	318.183	0.821	1.526
-56.261	-200.000	98.677	587.351
-55.246	554.435	1392.656	3290.866
-54.232	153.524	2597.431	3493.927
-53.217	108.289	2282.922	2675.140
-52.203	43.768	1899.924	1708.241
-51.188	37.715	1689.007	1472.948
-50.173	34.941	1644.143	1413.305
-49.159	52.989	1693.642	1591.513
-48.144	56.262	1711.329	1632.566
-47.130	37.351	1667.115	1450.907
-46.115	34.438	1652.442	1416.480
-45.100	34.290	1647.625	1411.195
-44.086	34.250	1645.326	1408.880
-43.071	34.333	1642.213	1406.769
-42.057	34.219	1639.766	1403.775
-41.042	34.401	1637.546	1403.157
-40.027	34.248	1636.399	1400.996
-39.013	34.337	1633.522	1399.133
-37.998	34.171	1632.342	1396.844
-36.984	34.260	1630.730	1396.066
-35.969	34.397	1629.227	1395.725
-34.954	34.427	1627.591	1394.490
-33.940	34.428	1625.594	1392.727
-32.925	34.321	1624.425	1390.892
-31.911	34.346	1622.529	1389.392
-30.896	34.353	1620.330	1387.505
-29.881	34.343	1619.256	1386.462
-28.867	34.364	1617.610	1385.144
-27.852	34.449	1615.573	1383.963
-26.838	34.451	1614.112	1382.675
-25.823	34.311	1613.516	1381.093
-24.809	34.339	1611.954	1379.906
-23.794	34.393	1610.140	1378.687
-22.779	34.425	1608.903	1377.804
-21.765	34.366	1607.515	1376.136
-20.750	34.393	1605.861	1374.857
-19.736	34.506	1603.925	1373.963
-18.721	34.440	1602.529	1372.233
-17.706	34.416	1601.513	1371.137
-16.692	34.390	1599.743	1369.385
-15.677	34.439	1597.926	1368.125
-14.663	34.387	1597.016	1366.918
-13.648	34.372	1595.776	1365.695
-12.633	34.436	1594.024	1364.597
-11.619	34.469	1592.511	1363.483
-10.604	34.599	1590.757	1362.861
-9.590	34.541	1589.449	1361.272
-8.575	34.456	1588.724	1359.991
-7.560	34.478	1587.241	1358.823
-6.546	34.355	1586.206	1357.009
-5.531	34.379	1584.939	1356.036
-4.517	34.366	1584.064	1355.148
-3.502	34.370	1583.205	1354.382
-2.487	34.516	1581.203	1353.656
-1.473	34.160	1569.323	1340.921
-0.458	31.346	1550.470	1305.142
0.556	27.984	1550.232	1273.777
1.571	25.524	1575.018	1276.589
2.586	25.111	1588.388	1284.351
3.600	22.020	1535.310	1219.884
4.615	12.455	1423.671	1069.161
5.629	3.531	1357.015	963.479
6.644	2.019	1347.860	947.512
7.659	1.851	1347.130	945.868
8.673	1.862	1345.485	944.702
9.688	1.718	1344.108	942.755
10.702	1.544	1340.890	939.342
11.717	5.010	1348.162	965.850
12.731	15.385	1367.478	1044.496
13.746	23.722	1381.642	1107.438
14.761	25.806	1384.660	1122.762
15.775	26.155	1383.788	1124.135
16.790	26.157	1383.680	1123.959
17.804	26.235	1382.952	1123.750
18.819	26.510	1382.753	1125.204
19.834	26.578	1381.751	1124.706
20.848	26.678	1381.043	1124.652
21.863	26.729	1380.065	1124.075
22.877	26.765	1379.087	1123.404
23.892	26.563	1379.001	1121.980
24.907	26.592	1378.069	1121.302
25.921	26.586	1377.397	1120.616
26.936	26.653	1376.063	1119.848
27.950	26.616	1374.870	1118.550
28.965	26.663	1373.538	1117.656
29.980	26.650	1372.342	1116.505
30.994	26.611	1371.280	1115.303
32.009	26.639	1370.117	1114.429
33.023	26.567	1368.856	1112.860
34.038	26.657	1368.068	1112.678
35.053	26.613	1367.144	1111.557
36.067	26.635	1365.716	1110.431
37.082	26.527	1365.105	1109.177
38.096	26.585	1364.199	1108.696
39.111	26.553	1363.690	1107.986
40.126	26.587	1363.128	1107.640
41.140	26.585	1362.474	1106.997
42.155	26.559	1362.121	1106.455
43.169	26.530	1362.094	1106.162
44.184	26.667	1361.496	1106.414
45.199	26.553	1360.999	1105.215
46.213	26.554	1360.842	1104.993
47.228	26.514	1359.957	1103.934
48.242	26.566	1358.819	1103.232
49.257	26.561	1357.080	1101.693
50.271	26.544	1355.665	1100.341
51.286	26.562	1354.433	1099.356
52.301	26.656	1353.135	1098.772
53.315	26.544	1352.202	1097.236
54.330	26.575	1351.724	1096.944
55.344	26.616	1350.228	1095.879
56.359	26.593	1349.111	1094.735
57.374	26.636	1348.504	1094.407
58.388	26.652	1347.872	1093.896
59.403	26.598	1347.774	1093.392
60.417	26.651	1346.519	1092.597
61.432	26.635	1345.666	1091.708
62.447	26.650	1345.252	1091.367
63.461	26.543	1344.474	1089.997
64.476	26.593	1343.429	1089.354
65.490	26.517	1342.176	1087.783
66.505	26.603	1340.446	1086.801
67.520	26.523	1339.650	1085.584
68.534	26.649	1338.246	1085.101
69.549	26.725	1337.169	1084.589
70.563	26.681	1336.297	1083.522
71.578	26.706	1335.316	1082.779
72.593	26.614	1334.924	1081.814
73.607	26.534	1334.725	1081.083
74.622	26.661	1333.285	1080.579
75.636	26.686	1332.608	1080.083
76.651	26.595	1331.866	1078.840
77.666	26.683	1331.208	1078.736
78.680	26.611	1331.220	1078.225
79.695	26.582	1330.118	1077.063
80.709	26.619	1329.539	1076.720
81.724	26.523	1328.923	1075.553
82.739	26.568	1327.621	1074.673
83.753	26.598	1326.622	1073.949
84.768	26.535	1325.684	1072.722
85.782	26.633	1324.311	1072.093
86.797	26.603	1323.382	1071.069
87.812	26.636	1322.330	1070.320
88.826	26.714	1321.090	1069.682
89.841	26.678	1320.069	1068.543
90.855	26.712	1319.057	1067.832
91.870	26.754	1317.871	1067.024
92.884	26.718	1317.603	1066.502
93.899	26.755	1316.417	1065.666
94.914	26.572	1316.123	1064.258
95.928	26.779	1315.016	1064.486
96.943	26.699	1314.504	1063.505
97.957	26.576	1314.733	1062.874
98.972	26.692	1313.368	1062.359
99.987	26.669	1312.309	1061.275
101.001	26.634	1311.326	1060.180
102.016	26.679	1310.695	1059.836
103.030	26.750	1309.239	1058.980
104.045	26.627	1309.251	1058.178
105.060	26.657	1308.487	1057.645
106.074	26.702	1307.197	1056.767
107.089	26.729	1305.814	1055.716
108.103	26.731	1304.537	1054.603
109.118	26.694	1303.715	1053.628
110.133	26.716	1302.751	1052.882
111.147	26.661	1301.807	1051.709
112.162	26.706	1300.314	1050.671
113.176	26.711	1299.506	1049.954
114.191	26.797	1298.223	1049.320
115.206	26.779	1297.506	1048.546
116.220	26.703	1296.323	1047.056
117.235	26.596	1295.882	1045.989
118.249	26.772	1294.893	1046.112
119.264	26.591	1294.334	1044.524
120.279	26.834	1292.843	1044.630
121.293	26.743	1292.192	1043.490
122.308	26.847	1291.218	1043.206
123.322	26.866	1290.380	1042.550
124.337	26.852	1289.736	1041.853
125.352	26.856	1288.944	1041.145
126.366	26.748	1288.474	1040.056
127.381	26.848	1287.441	1039.699
128.395	26.819	1285.731	1038.062
129.410	26.842	1285.499	1037.912
130.424	26.916	1284.650	1037.562
131.439	26.920	1283.874	1036.866
132.454	26.794	1283.142	1035.460
133.468	26.758	1283.171	1035.187
134.483	26.836	1281.899	1034.515
135.497	26.809	1281.042	1033.579
136.512	26.834	1280.159	1032.919
137.527	26.711	1279.294	1031.430
138.541	26.794	1278.092	1030.840
139.556	26.733	1276.801	1029.362
140.570	26.806	1275.690	1028.785
141.585	26.754	1274.713	1027.615
142.600	26.775	1273.986	1027.057
143.614	26.749	1272.909	1025.948
144.629	26.801	1271.618	1025.112
145.643	26.730	1270.921	1024.060
146.658	26.742	1270.090	1023.368
147.673	26.755	1268.452	1022.032
148.687	26.755	1267.435	1021.119
149.702	26.738	1266.676	1020.322
150.716	26.737	1265.323	1019.135
151.731	26.789	1264.516	1018.688
152.746	26.881	1263.504	1018.299
153.760	26.825	1262.543	1017.122
154.775	26.870	1261.494	1016.440
155.789	26.837	1260.898	1015.681
156.804	26.770	1260.222	1014.676
157.819	26.799	1259.003	1013.764
158.833	26.824	1258.356	1013.292
159.848	26.828	1258.290	1013.174
160.862	26.974	1256.950	1012.821
161.877	26.927	1255.921	1011.638
162.892	26.786	1255.468	1010.400
163.906	26.809	1254.971	1010.037
164.921	26.881	1254.357	1009.852
165.935	26.856	1253.789	1009.171
166.950	26.982	1252.498	1008.741
167.964	26.953	1251.945	1008.042
168.979	26.874	1251.726	1007.339
169.994	26.919	1251.116	1007.010
171.008	27.027	1249.991	1006.614
172.023	26.939	1249.523	1005.661
173.037	27.020	1248.573	1005.258
174.052	26.935	1247.787	1004.062
175.067	26.738	1247.956	1003.022
176.081	26.820	1246.729	1002.398
177.096	26.863	1246.117	1002.056
178.110	26.986	1244.718	1001.522
179.125	26.902	1243.693	1000.143
180.140	26.942	1242.541	999.350
181.154	26.997	1241.420	998.664
182.169	27.002	1240.516	997.875
183.183	27.011	1239.745	997.215
184.198	26.975	1238.420	995.861
185.213	26.938	1238.013	995.246
186.227	27.055	1236.805	994.827
187.242	26.973	1235.947	993.600
188.256	26.971	1235.094	992.815
189.271	26.990	1234.309	992.201
190.286	26.985	1234.068	991.893
191.300	26.978	1233.255	991.113
192.315	26.945	1232.448	990.198
193.329	27.035	1232.075	990.300
194.344	27.042	1231.603	989.871
195.359	27.050	1231.345	989.619
196.373	27.023	1231.068	989.161
197.388	26.910	1230.642	988.117
198.402	26.932	1230.333	987.901
199.417	27.039	1229.694	987.883
200.432	27.037	1228.827	987.089
201.446	26.993	1228.148	986.215
202.461	27.086	1227.269	985.927
203.475	27.097	1226.582	985.348
204.490	26.999	1225.764	984.071
205.504	27.107	1224.615	983.646
206.519	26.992	1224.050	982.484
207.534	27.045	1223.178	981.981
208.548	27.067	1222.128	981.175
209.563	27.157	1221.368	980.960
210.577	27.073	1220.532	979.751
211.592	26.993	1219.859	978.694
212.607	27.101	1218.953	978.460
213.621	27.216	1218.084	978.296
214.636	27.211	1217.561	977.762
215.650	27.222	1216.095	976.555
216.665	27.212	1215.784	976.167
217.680	27.157	1214.746	974.950
218.694	27.243	1214.097	974.808
219.709	27.342	1212.892	974.282
220.723	27.109	1212.872	972.932
221.738	27.054	1212.382	972.160
222.753	27.098	1211.347	971.477
223.767	27.087	1210.740	970.849
224.782	27.165	1210.293	970.819
225.796	27.247	1209.427	970.479
226.811	27.177	1208.895	969.591
227.826	27.242	1208.305	969.377
228.840	27.279	1207.688	968.997
229.855	27.311	1206.994	968.520
230.869	27.069	1206.685	966.900
231.884	27.156	1205.897	966.645
232.899	27.301	1205.208	966.780
233.913	27.279	1204.443	965.965
234.928	27.291	1204.262	965.796
235.942	27.300	1203.347	965.023
236.957	27.320	1202.710	964.536
237.972	27.333	1201.766	963.762
238.986	27.198	1201.243	962.544
240.001	27.432	1200.788	963.331
241.015	27.398	1199.842	962.307
242.030	27.412	1199.089	961.693
243.045	27.374	1198.565	960.985
244.059	27.368	1197.686	960.162
245.074	27.411	1196.782	959.578
246.088	27.289	1196.412	958.554
247.103	27.425	1195.477	958.438
248.117	27.424	1194.441	957.518
249.132	27.418	1193.555	956.691
250.147	27.485	1193.208	956.678
251.161	27.482	1192.419	955.949
252.176	27.435	1191.932	955.227
253.190	27.432	1191.133	954.487
254.205	27.452	1190.794	954.235
255.220	27.578	1189.990	954.164
256.234	27.516	1189.600	953.442
257.249	27.345	1189.098	952.063
258.263	27.493	1188.049	951.910
259.278	27.448	1187.862	951.444
260.293	27.539	1187.038	951.172
261.307	27.641	1186.543	951.223
262.322	27.641	1186.032	950.732
263.336	27.525	1185.363	949.505
264.351	27.598	1184.228	948.893
265.366	27.567	1183.935	948.412
266.380	27.475	1183.647	947.621
267.395	27.669	1182.952	947.987
268.409	27.463	1182.324	946.332
269.424	27.566	1181.726	946.302
270.439	27.590	1181.361	946.049
271.453	27.657	1180.442	945.580
272.468	27.604	1179.565	944.515
273.482	27.601	1178.934	943.913
274.497	27.617	1179.107	944.049
275.512	27.657	1177.977	943.269
276.526	27.649	1177.271	942.578
277.541	27.629	1176.216	941.547
278.555	27.653	1175.991	941.407
279.570	27.749	1175.041	941.058
280.585	27.632	1174.534	939.966
281.599	27.675	1173.790	939.511
282.614	27.705	1172.538	938.582
283.628	27.659	1171.852	937.713
284.643	27.715	1171.184	937.379
285.657	27.699	1170.458	936.635
286.672	27.719	1169.323	935.746
287.687	27.751	1168.789	935.401
288.701	27.794	1167.653	934.627
289.716	27.775	1167.264	934.137
290.730	27.659	1166.842	933.122
291.745	27.848	1165.821	933.189
292.760	27.831	1165.365	932.655
293.774	27.742	1165.410	932.152
294.789	27.875	1164.478	932.004
295.803	27.854	1163.725	931.214
296.818	27.835	1163.160	930.579
297.833	27.831	1162.599	930.028
298.847	27.824	1162.154	929.558
299.862	27.885	1160.838	928.735
300.876	27.859	1160.298	928.088
301.891	27.926	1159.903	928.028
302.906	27.942	1159.185	927.453
303.920	27.974	1158.463	926.954
304.935	27.931	1157.794	926.119
305.949	27.951	1157.276	925.724
306.964	27.959	1156.812	925.314
307.979	28.008	1156.191	924.982
308.993	27.956	1155.411	924.013
310.008	28.025	1154.698	923.710
311.022	27.965	1154.138	922.875
312.037	27.993	1153.170	922.162
313.052	28.082	1152.135	921.703
314.066	27.947	1151.615	920.523
315.081	28.080	1150.905	920.544
316.095	27.982	1150.223	919.425
317.110	27.962	1149.551	918.706
318.125	28.009	1148.941	918.375
319.139	27.994	1148.370	917.759
320.154	28.043	1147.832	917.497
321.168	28.101	1147.380	917.342
322.183	28.050	1146.880	916.605
323.197	28.087	1145.903	915.929
324.212	28.001	1145.777	915.317
325.227	28.016	1145.391	915.005
326.241	28.279	1144.459	915.491
327.256	28.152	1143.524	914.029
328.270	28.112	1142.804	913.173
329.285	28.126	1142.129	912.622
330.300	28.103	1141.675	912.067
331.314	28.188	1140.581	911.533
332.329	28.168	1139.864	910.781
333.343	28.178	1139.135	910.165
334.358	28.285	1138.283	909.938
335.373	28.194	1137.839	909.048
336.387	28.425	1136.515	909.060
337.402	28.293	1136.094	907.988
338.416	28.334	1135.692	907.789
339.431	28.232	1135.503	907.053
340.446	28.278	1134.493	906.392
341.460	28.365	1133.739	906.140
342.475	28.446	1133.189	906.022
343.489	28.395	1132.076	904.800
344.504	28.346	1131.246	903.811
345.519	28.363	1130.848	903.499
346.533	28.338	1129.466	902.191
347.548	28.399	1128.930	901.983
348.562	28.489	1128.275	901.825
349.577	28.478	1127.601	901.148
350.592	28.393	1127.054	900.218
351.606	28.416	1126.170	899.545
352.621	28.362	1126.096	899.141
353.635	28.417	1125.446	898.810
354.650	28.494	1124.699	898.513
355.665	28.475	1124.432	898.126
356.679	28.512	1123.224	897.265
357.694	28.516	1122.909	896.950
358.708	28.391	1122.258	895.740
359.723	28.466	1121.044	895.059
360.738	28.469	1120.685	894.710
361.752	28.425	1120.386	894.174
362.767	28.629	1119.436	894.330
363.781	28.590	1119.167	893.847
364.796	28.641	1118.646	893.600
365.810	28.692	1117.819	893.108
366.825	28.752	1117.336	892.934
367.840	28.599	1116.952	891.805
368.854	28.648	1116.294	891.442
369.869	28.570	1115.714	890.519
370.883	28.741	1114.634	890.411
371.898	28.720	1114.208	889.886
372.913	28.653	1113.810	889.165
373.927	28.706	1113.269	888.913
374.942	28.728	1112.779	888.546
375.956	28.753	1111.957	887.934
376.971	28.782	1111.676	887.772
377.986	28.733	1110.901	886.838
379.000	28.745	1110.802	886.740
380.015	28.779	1110.055	886.226
381.029	28.858	1109.440	886.041
382.044	28.890	1108.906	885.688
383.059	28.759	1108.219	884.429
384.073	28.813	1107.400	883.957
385.088	28.876	1106.507	883.468
386.102	28.783	1105.852	882.420
387.117	28.938	1104.399	881.927
388.132	28.809	1104.121	881.008
389.146	28.808	1103.483	880.416
390.161	28.813	1103.139	880.089
391.175	28.915	1102.182	879.738
392.190	28.932	1101.498	879.195
393.205	28.931	1100.704	878.479
394.219	28.954	1099.952	877.910
395.234	28.927	1099.475	877.324
396.248	29.009	1098.598	876.935
397.263	29.014	1097.615	876.099
398.278	29.014	1097.351	875.810
399.292	29.069	1096.598	875.392
400.307	29.002	1096.122	874.615
401.321	29.023	1095.425	874.084
402.336	28.965	1094.757	873.195
403.350	28.960	1094.377	872.793
404.365	29.097	1093.452	872.627
405.380	29.132	1092.959	872.319
406.394	29.086	1092.198	871.420
407.409	29.190	1091.453	871.238
408.423	29.095	1090.933	870.299
409.438	29.139	1090.225	869.866
410.453	29.101	1089.454	868.995
411.467	29.157	1088.397	868.337
412.482	29.241	1087.892	868.253
413.496	29.179	1087.343	867.445
414.511	29.204	1086.841	867.087
415.526	29.190	1086.412	866.604
416.540	29.195	1085.577	865.881
417.555	29.168	1085.366	865.511
418.569	29.267	1085.096	865.687
419.584	29.313	1084.825	865.608
420.599	29.257	1084.086	864.680
421.613	102.145	1318.212	1445.914
422.628	95.080	1352.294	1446.013
