DTS Sentinel unit serial number:	SN413079Multiplexer serial number:	ORYXHardware model number:	OX4-SRSoftware version number:	ORYX F/W v4.00 Oryx Data Collector v3.7.2.0data status	okinstallation	princeton_trtdifferential loss correction	single-endedforward channel	channel 2reverse channel	N/Adate	2019/09/19time	12:47:35forward acquisition time	60.00reverse acquisition time	0.00gamma	496.2192k internal	0.2333k external	0.2333temperature offset calibration	1.0016default loss term (dB/km)	0.3790temperature slope calibration	1.0000multiplexer offset coefficient	1.0000multiplexer slope coefficient	1.0000fibre end	0.00T internal ref (°C)	27.92T ext. ref 1 (°C)	0.90T ext. ref 2 (°C)	26.16length (m)	temperature (°C)	Stokes	anti-Stokes-747.200	-79.732	-0.257	-0.087
-746.185	-200.000	0.067	0.509
-745.171	-41.103	0.401	0.208
-744.156	285.555	-0.016	-0.029
-743.142	-108.923	-0.149	0.032
-742.127	-142.398	-0.132	-0.013
-741.112	-11.463	0.232	0.154
-740.098	-166.335	-0.329	0.014
-739.083	-10.969	-0.237	-0.157
-738.069	-200.000	-0.039	0.432
-737.054	-84.898	-0.307	-0.097
-736.039	57.554	0.240	-0.236
-735.025	220.801	0.106	-0.172
-734.010	107.254	0.058	0.069
-732.996	-200.000	-0.030	-0.143
-731.981	-70.781	0.211	-0.080
-730.966	-108.973	-0.179	0.038
-729.952	-135.045	-0.348	0.042
-728.937	259.228	-0.234	0.405
-727.923	800.000	0.097	-0.358
-726.908	197.347	-0.162	0.249
-725.894	-20.187	-0.239	-0.148
-724.879	-61.349	0.444	-0.188
-723.864	800.000	-0.054	-0.183
-722.850	526.727	-0.127	-0.301
-721.835	-200.000	0.041	-0.292
-720.821	-24.287	-0.143	0.086
-719.806	-69.831	0.205	-0.079
-718.791	-96.958	-0.439	0.116
-717.777	-14.467	0.315	-0.204
-716.762	-3.397	-0.047	-0.033
-715.748	-69.696	-0.262	0.101
-714.733	-21.791	-0.247	-0.151
-713.718	800.000	0.050	-0.161
-712.704	295.583	0.083	0.153
-711.689	147.567	0.379	0.513
-710.675	-200.000	0.002	-0.494
-709.660	477.971	-0.197	0.449
-708.645	-200.000	0.021	0.226
-707.631	-200.000	-0.032	-0.164
-706.616	-106.218	-0.090	-0.020
-705.602	100.502	-0.138	0.161
-704.587	135.054	-0.041	0.053
-703.572	-83.807	0.129	0.041
-702.558	800.000	-0.077	0.223
-701.543	-14.792	0.055	0.035
-700.529	-200.000	-0.024	-0.197
-699.514	66.659	-0.089	0.091
-698.499	-200.000	-0.010	0.049
-697.485	4.004	-0.334	-0.245
-696.470	68.908	0.181	0.186
-695.456	299.477	0.092	0.171
-694.441	-25.364	0.327	0.194
-693.426	-144.253	0.112	0.011
-692.412	104.891	-0.188	-0.223
-691.397	217.525	-0.073	0.118
-690.383	343.585	0.076	0.149
-689.368	105.498	0.184	0.218
-688.354	189.468	0.082	0.123
-687.339	-106.149	0.090	-0.020
-686.324	313.468	0.011	0.020
-685.310	-143.640	-0.398	0.038
-684.295	-200.000	-0.024	0.160
-683.281	-62.993	0.281	-0.116
-682.266	800.000	0.119	-0.386
-681.251	576.946	-0.064	-0.157
-680.237	-200.000	-0.046	0.351
-679.222	442.061	-0.090	-0.197
-678.208	30.531	-0.057	0.049
-677.193	-200.000	0.060	0.286
-676.178	716.655	-0.140	0.373
-675.164	-61.806	-0.447	-0.188
-674.149	-200.000	-0.006	0.406
-673.135	88.079	-0.152	0.169
-672.120	-92.840	-0.080	0.022
-671.105	151.189	-0.139	0.189
-670.091	95.066	0.115	0.131
-669.076	645.571	0.119	-0.305
-668.062	18.754	-0.220	-0.176
-667.047	-200.000	-0.017	0.276
-666.032	31.685	0.175	-0.151
-665.018	-11.316	0.186	0.123
-664.003	72.874	0.246	0.257
-662.989	96.612	-0.166	0.190
-661.974	-200.000	-0.044	-0.215
-660.959	-13.502	0.158	0.103
-659.945	127.567	0.146	-0.186
-658.930	255.798	0.140	0.240
-657.916	-90.363	-0.190	0.055
-656.901	800.000	0.153	0.635
-655.886	-54.004	0.178	0.081
-654.872	-149.752	0.279	0.022
-653.857	-200.000	-0.019	-0.104
-652.843	201.067	-0.198	-0.305
-651.828	-194.432	-0.108	-0.001
-650.814	-75.409	0.334	0.119
-649.799	269.842	0.147	0.259
-648.784	-118.988	0.343	-0.060
-647.770	-200.000	-0.136	-0.000
-646.755	232.198	0.043	0.070
-645.741	-200.000	-0.040	-0.359
-644.726	-69.894	-0.383	0.146
-643.711	51.303	0.317	-0.301
-642.697	73.977	-0.188	-0.197
-641.682	-200.000	0.009	-0.137
-640.668	-200.000	-0.027	-0.177
-639.653	800.000	0.070	0.264
-638.638	-200.000	0.009	0.133
-637.624	800.000	0.067	0.209
-636.609	778.938	-0.077	0.210
-635.595	-1.494	-0.101	-0.072
-634.580	-200.000	-0.007	-0.172
-633.565	-1.686	-0.195	-0.138
-632.551	363.683	0.070	0.141
-631.536	-200.000	0.001	0.065
-630.522	800.000	0.106	-0.351
-629.507	313.362	-0.079	0.148
-628.492	-200.000	-0.018	0.090
-627.478	18.669	0.225	-0.180
-626.463	568.015	0.074	0.179
-625.449	33.131	0.057	0.049
-624.434	800.000	0.086	0.238
-623.419	-59.848	-0.219	0.094
-622.405	-200.000	0.054	0.363
-621.390	-109.338	0.105	-0.022
-620.376	-32.469	0.247	-0.138
-619.361	-121.066	0.388	0.065
-618.346	315.389	-0.041	0.078
-617.332	232.486	-0.064	-0.104
-616.317	15.149	-0.437	0.342
-615.303	800.000	-0.157	0.450
-614.288	-166.412	0.066	0.003
-613.273	-200.000	-0.023	-0.329
-612.259	195.820	0.137	-0.209
-611.244	-200.000	0.031	-0.227
-610.230	-200.000	0.031	0.161
-609.215	-15.918	-0.093	0.059
-608.201	57.646	-0.199	-0.195
-607.186	800.000	-0.128	0.376
-606.171	99.080	-0.114	-0.132
-605.157	-6.537	0.105	-0.072
-604.142	-103.013	0.107	-0.025
-603.128	9.881	-0.210	0.159
-602.113	-200.000	-0.386	0.000
-601.098	31.940	0.134	0.116
-600.084	-120.475	0.487	0.083
-599.069	314.494	0.093	0.175
-598.055	-200.000	-0.050	0.244
-597.040	17.362	-0.204	0.162
-596.025	-51.277	-0.147	-0.069
-595.011	-174.651	-0.124	-0.004
-593.996	-48.317	0.482	-0.232
-592.982	-155.368	-0.348	0.023
-591.967	52.372	0.281	-0.268
-590.952	162.706	-0.188	0.263
-589.938	707.202	-0.131	-0.345
-588.923	-79.529	0.091	-0.031
-587.909	386.548	-0.095	-0.197
-586.894	-128.749	0.092	0.013
-585.879	-110.346	-0.151	0.031
-584.865	-200.000	0.000	0.152
-583.850	-24.721	-0.430	-0.255
-582.836	-97.465	-0.276	-0.072
-581.821	-143.158	0.224	-0.022
-580.806	-15.353	-0.152	0.097
-579.792	-29.530	0.075	0.043
-578.777	-200.000	0.037	-0.393
-577.763	172.509	-0.163	-0.234
-576.748	557.457	0.061	-0.148
-575.733	-200.000	-0.071	0.311
-574.719	-162.941	0.040	0.002
-573.704	-23.094	-0.290	0.175
-572.690	-103.931	-0.251	-0.058
-571.675	-55.809	-0.042	0.019
-570.661	800.000	0.086	-0.334
-569.646	-200.000	-0.022	0.307
-568.631	525.906	0.158	0.371
-567.617	-200.000	0.025	-0.250
-566.602	-109.256	-0.166	0.035
-565.588	-64.224	-0.155	-0.063
-564.573	-60.112	0.075	-0.032
-563.558	-164.051	0.456	-0.021
-562.544	222.754	-0.169	-0.272
-561.529	-0.029	-0.263	-0.187
-560.515	-75.298	-0.247	-0.088
-559.500	-200.000	-0.008	0.068
-558.485	-200.000	-0.072	-0.339
-557.471	-117.885	0.248	0.044
-556.456	-200.000	-0.037	-0.370
-555.442	46.961	0.178	0.165
-554.427	-39.505	0.023	-0.012
-553.412	-142.665	-0.112	0.011
-552.398	-200.000	0.048	-0.460
-551.383	79.477	0.482	-0.516
-550.369	260.573	-0.022	-0.037
-549.354	77.509	-0.022	-0.023
-548.339	-200.000	0.009	-0.043
-547.325	28.550	0.313	-0.264
-546.310	-200.000	0.008	-0.062
-545.296	-101.688	0.189	0.046
-544.281	-98.528	-0.345	0.088
-543.266	800.000	0.064	-0.187
-542.252	-103.969	0.129	-0.030
-541.237	800.000	0.032	-0.105
-540.223	329.003	-0.132	-0.254
-539.208	167.492	0.038	0.054
-538.193	-44.115	-0.306	0.153
-537.179	120.572	-0.032	0.040
-536.164	-167.507	-0.074	-0.003
-535.150	-51.269	-0.284	-0.132
-534.135	800.000	0.069	-0.301
-533.121	194.083	-0.195	-0.294
-532.106	-135.777	-0.278	-0.033
-531.091	212.861	0.096	-0.151
-530.077	-28.085	-0.146	0.084
-529.062	-109.746	-0.199	0.042
-528.048	-112.912	-0.037	-0.007
-527.033	211.422	0.145	0.228
-526.018	800.000	0.108	-0.426
-525.004	75.192	-0.099	-0.104
-523.989	51.540	0.318	0.301
-522.975	-82.233	-0.048	-0.015
-521.960	-19.671	-0.255	-0.157
-520.945	-115.999	0.352	0.065
-519.931	44.594	-0.045	0.041
-518.916	-49.587	0.246	0.117
-517.902	-35.420	0.021	0.011
-516.887	154.283	-0.019	-0.027
-515.872	482.712	-0.104	0.235
-514.858	-200.000	0.002	0.124
-513.843	800.000	-0.084	-0.237
-512.829	79.769	0.124	0.133
-511.814	-38.771	0.160	-0.084
-510.799	-142.286	-0.372	0.037
-509.785	24.277	0.095	0.078
-508.770	-4.913	0.181	0.124
-507.756	-200.000	-0.003	0.131
-506.741	-200.000	-0.016	0.277
-505.726	-80.047	-0.307	0.103
-504.712	-200.000	0.006	0.366
-503.697	-28.032	0.471	-0.271
-502.683	7.446	-0.097	0.072
-501.668	-200.000	0.015	0.232
-500.653	20.747	-0.107	0.086
-499.639	22.107	-0.226	0.184
-498.624	800.000	0.083	-0.262
-497.610	143.814	-0.315	-0.418
-496.595	-116.310	-0.160	-0.029
-495.581	-47.528	0.110	-0.053
-494.566	401.029	0.067	-0.139
-493.551	253.111	0.120	-0.204
-492.537	-155.591	0.268	0.017
-491.522	-114.790	0.172	-0.033
-490.508	465.773	-0.069	0.154
-489.493	-119.394	-0.256	0.044
-488.478	-95.633	-0.254	-0.068
-487.464	-46.635	-0.159	0.077
-486.449	-200.000	-0.065	-0.329
-485.435	-149.883	0.291	-0.023
-484.420	-200.000	0.005	-0.144
-483.405	-35.309	-0.074	0.040
-482.391	-181.720	-0.095	-0.002
-481.376	-200.000	-0.026	0.153
-480.362	-200.000	0.014	0.146
-479.347	314.955	0.042	-0.079
-478.332	800.000	-0.041	0.143
-477.318	-121.900	-0.275	-0.045
-476.303	800.000	0.064	-0.183
-475.289	152.842	-0.096	0.131
-474.274	71.177	-0.057	-0.059
-473.259	-94.905	0.421	0.113
-472.245	449.237	0.081	0.178
-471.230	374.367	-0.113	0.228
-470.216	800.000	0.015	0.057
-469.201	11.929	-0.307	-0.234
-468.186	-78.307	0.335	-0.114
-467.172	-200.000	-0.018	0.418
-466.157	-87.641	-0.282	0.085
-465.143	78.771	-0.066	-0.070
-464.128	-145.053	-0.164	-0.015
-463.113	-200.000	0.018	-0.096
-462.099	-35.730	-0.188	-0.101
-461.084	-100.668	0.226	-0.055
-460.070	-82.614	-0.097	0.031
-459.055	-180.030	-0.034	-0.001
-458.040	-3.148	-0.332	-0.230
-457.026	-3.123	-0.156	-0.108
-456.011	225.129	0.188	-0.302
-454.997	-13.215	0.151	0.097
-453.982	57.734	-0.061	0.059
-452.968	-42.766	0.078	0.039
-451.953	-46.993	-0.370	0.180
-450.938	611.553	0.086	-0.215
-449.924	-200.000	0.012	0.212
-448.909	86.220	0.101	0.111
-447.895	-24.907	0.204	-0.120
-446.880	-80.585	0.216	0.071
-445.865	33.554	0.214	-0.185
-444.851	-20.892	-0.256	0.156
-443.836	-92.319	-0.189	0.053
-442.822	53.716	0.121	0.116
-441.807	593.075	-0.038	-0.093
-440.792	174.321	0.096	-0.138
-439.778	79.589	0.043	-0.046
-438.763	800.000	0.029	-0.122
-437.749	-34.342	0.191	0.104
-436.734	17.621	0.130	0.103
-435.719	179.981	0.066	-0.097
-434.705	-150.785	-0.059	-0.004
-433.690	800.000	-0.063	-0.183
-432.676	-108.330	0.059	-0.013
-431.661	-28.264	0.325	-0.186
-430.646	634.501	0.112	0.283
-429.632	800.000	0.022	0.069
-428.617	800.000	-0.035	-0.113
-427.603	-61.055	-0.156	0.065
-426.588	-73.346	0.327	-0.119
-425.573	-200.000	-0.069	0.317
-424.559	800.000	-0.124	-0.346
-423.544	800.000	-0.046	-0.140
-422.530	11.327	-0.273	-0.208
-421.515	105.096	-0.095	0.111
-420.500	-135.457	-0.140	-0.017
-419.486	-115.228	0.176	-0.033
-418.471	392.487	-0.047	0.098
-417.457	-18.456	0.240	-0.149
-416.442	347.601	-0.042	0.082
-415.428	-23.639	0.076	0.045
-414.413	152.691	-0.026	-0.035
-413.398	33.203	-0.273	-0.235
-412.384	184.255	-0.173	0.255
-411.369	-118.530	-0.332	-0.058
-410.355	-130.913	-0.442	-0.059
-409.340	419.533	-0.029	-0.061
-408.325	-92.616	0.225	0.063
-407.311	-200.000	0.018	0.085
-406.296	-21.273	0.127	0.077
-405.282	-167.670	-0.122	-0.005
-404.267	-17.687	0.314	-0.196
-403.252	196.623	-0.103	-0.155
-402.238	-4.023	-0.138	-0.095
-401.223	-137.011	0.201	0.023
-400.209	-200.000	0.015	-0.080
-399.194	284.710	0.169	-0.302
-398.179	-110.016	-0.172	-0.036
-397.165	126.982	-0.091	-0.115
-396.150	17.146	0.090	-0.070
-395.136	2.031	-0.124	-0.089
-394.121	-200.000	0.049	-0.322
-393.106	-80.530	-0.166	-0.055
-392.092	522.097	-0.029	0.068
-391.077	136.771	0.129	-0.168
-390.063	-31.538	-0.122	-0.068
-389.048	-200.000	-0.021	0.137
-388.033	10.130	-0.171	-0.129
-387.019	100.931	-0.208	-0.239
-386.004	686.523	0.138	-0.358
-384.990	265.395	0.080	0.138
-383.975	-200.000	0.037	0.210
-382.960	-172.613	0.113	0.004
-381.946	364.107	-0.021	-0.042
-380.931	677.194	0.109	-0.281
-379.917	57.243	0.202	0.195
-378.902	110.457	-0.096	-0.115
-377.888	-67.930	-0.225	0.087
-376.873	-109.241	-0.102	0.021
-375.858	233.204	0.136	0.221
-374.844	322.034	-0.069	-0.131
-373.829	800.000	-0.042	0.164
-372.815	12.894	0.214	0.164
-371.800	-60.101	0.366	-0.155
-370.785	-179.487	-0.073	0.002
-369.771	690.800	-0.156	-0.404
-368.756	537.086	-0.078	-0.183
-367.742	-62.347	-0.388	0.160
-366.727	26.869	-0.195	0.162
-365.712	336.578	-0.134	-0.258
-364.698	-41.431	0.302	0.154
-363.683	296.045	0.159	0.289
-362.669	360.992	0.079	0.157
-361.654	-200.000	-0.017	0.205
-360.639	-63.185	0.267	0.109
-359.625	-85.107	0.196	0.061
-358.610	147.551	-0.171	0.229
-357.596	-25.737	0.210	0.123
-356.581	-8.651	-0.206	0.137
-355.566	-200.000	-0.052	0.398
-354.552	221.229	-0.179	-0.285
-353.537	624.355	0.128	-0.319
-352.523	80.098	0.160	0.170
-351.508	-151.786	0.089	-0.007
-350.493	-200.000	-0.025	0.159
-349.479	800.000	-0.068	-0.201
-348.464	587.541	-0.020	0.049
-347.450	164.865	0.073	0.102
-346.435	30.482	-0.205	0.173
-345.420	454.194	0.126	0.275
-344.406	-42.727	0.162	-0.081
-343.391	-148.341	-0.193	-0.016
-342.377	-200.000	-0.000	-0.004
-341.362	-200.000	-0.002	0.080
-340.348	-151.172	-0.358	0.027
-339.333	-93.724	0.319	0.087
-338.318	-110.505	-0.228	0.047
-337.304	800.000	-0.023	0.090
-336.289	-14.473	0.120	0.077
-335.275	83.478	-0.219	-0.236
-334.260	201.740	-0.176	0.269
-333.245	122.027	0.079	0.097
-332.231	-27.758	-0.156	0.090
-331.216	438.578	0.039	0.084
-330.202	375.629	0.041	0.083
-329.187	-121.736	0.165	-0.027
-328.172	-200.000	-0.029	-0.226
-327.158	98.721	-0.199	-0.227
-326.143	-70.066	0.126	0.048
-325.129	120.433	0.146	-0.180
-324.114	-110.587	0.108	-0.022
-323.099	17.602	-0.154	-0.121
-322.085	106.460	0.141	-0.166
-321.070	800.000	-0.074	0.264
-320.056	133.210	0.079	0.101
-319.041	384.137	-0.095	0.193
-318.026	-200.000	0.008	0.183
-317.012	61.598	0.190	0.187
-315.997	-200.000	0.042	0.529
-314.983	-75.940	-0.263	-0.092
-313.968	83.928	0.181	0.195
-312.953	-121.431	0.438	0.072
-311.939	-200.000	0.024	-0.144
-310.924	123.818	0.156	0.193
-309.910	57.783	-0.170	-0.165
-308.895	32.270	0.149	-0.127
-307.880	-43.164	-0.259	-0.129
-306.866	102.037	-0.120	-0.138
-305.851	12.364	-0.060	-0.045
-304.837	-200.000	-0.015	0.125
-303.822	69.238	-0.051	0.052
-302.807	-24.583	0.232	0.136
-301.793	-65.860	0.048	-0.019
-300.778	-32.510	0.115	0.063
-299.764	295.035	0.184	0.333
-298.749	765.755	-0.036	-0.097
-297.735	-7.576	-0.049	-0.033
-296.720	165.413	0.250	0.349
-295.705	800.000	-0.027	-0.105
-294.691	-200.000	0.009	0.176
-293.676	222.128	-0.125	-0.198
-292.662	11.104	0.107	0.081
-291.647	345.901	-0.094	-0.183
-290.632	-27.201	-0.142	0.082
-289.618	-200.000	0.053	0.263
-288.603	-200.000	0.001	-0.397
-287.589	-155.993	0.140	-0.009
-286.574	800.000	0.042	-0.127
-285.559	-200.000	-0.014	0.214
-284.545	800.000	-0.007	0.030
-283.530	411.848	-0.043	-0.090
-282.516	-200.000	0.025	0.296
-281.501	-200.000	0.011	0.056
-280.486	426.029	0.077	0.163
-279.472	800.000	-0.061	0.201
-278.457	98.808	0.192	0.219
-277.443	-163.543	0.142	0.007
-276.428	800.000	-0.102	0.306
-275.413	-63.594	0.156	-0.063
-274.399	25.855	0.099	0.082
-273.384	16.909	0.122	0.095
-272.370	-98.922	-0.053	-0.013
-271.355	-200.000	-0.020	0.167
-270.340	-130.995	0.196	-0.026
-269.326	184.736	0.178	0.261
-268.311	-143.670	-0.136	-0.013
-267.297	-117.752	-0.324	-0.057
-266.282	64.845	0.108	-0.107
-265.267	177.820	0.112	-0.161
-264.253	425.168	0.098	-0.209
-263.238	719.796	-0.062	0.162
-262.224	-53.646	0.346	0.156
-261.209	-22.053	0.351	-0.211
-260.195	800.000	-0.047	-0.174
-259.180	-121.391	0.100	0.016
-258.165	69.357	0.177	-0.180
-257.151	-167.328	-0.376	0.015
-256.136	-200.000	-0.001	-0.010
-255.122	-166.491	0.168	0.007
-254.107	-200.000	-0.106	0.463
-253.092	-200.000	-0.003	-0.082
-252.078	-79.693	0.225	0.075
-251.063	787.965	0.066	0.180
-250.049	99.286	-0.101	0.116
-249.034	-200.000	-0.022	-0.258
-248.019	-104.010	-0.181	-0.042
-247.005	46.113	0.141	0.128
-245.990	77.705	-0.047	0.049
-244.976	254.928	0.159	0.269
-243.961	42.534	-0.205	0.184
-242.946	456.439	0.082	-0.180
-241.932	-55.395	0.033	0.014
-240.917	84.339	-0.295	-0.318
-239.903	22.034	-0.087	0.070
-238.888	285.396	0.019	0.033
-237.873	-200.000	-0.066	0.303
-236.859	136.451	-0.041	0.053
-235.844	-30.433	0.205	-0.114
-234.830	-84.309	0.145	0.045
-233.815	-27.009	-0.205	-0.118
-232.800	82.727	0.286	0.306
-231.786	-110.889	0.231	0.047
-230.771	-200.000	-0.042	-0.335
-229.757	800.000	0.057	0.172
-228.742	782.732	0.095	0.257
-227.727	-36.315	-0.197	0.105
-226.713	353.984	-0.038	-0.074
-225.698	-63.351	-0.244	-0.099
-224.684	103.139	-0.164	0.189
-223.669	-39.938	-0.115	0.059
-222.655	-93.055	0.285	0.078
-221.640	603.694	-0.130	0.318
-220.625	800.000	0.028	-0.093
-219.611	538.037	-0.075	-0.176
-218.596	-52.206	0.293	0.134
-217.582	728.833	0.048	0.128
-216.567	3.458	-0.224	-0.161
-215.552	493.299	0.146	-0.330
-214.538	-200.000	-0.056	-0.306
-213.523	-131.481	-0.042	-0.005
-212.509	800.000	0.068	0.255
-211.494	89.254	0.040	0.044
-210.479	-200.000	-0.013	-0.150
-209.465	486.404	0.142	0.318
-208.450	-25.577	0.016	0.009
-207.436	-78.622	-0.049	0.016
-206.421	-200.000	-0.029	-0.213
-205.406	-200.000	-0.002	-0.319
-204.392	-132.314	-0.115	-0.015
-203.377	-200.000	0.006	-0.110
-202.363	-200.000	0.039	-0.207
-201.348	252.627	0.034	-0.058
-200.333	800.000	0.051	-0.206
-199.319	63.040	-0.047	-0.046
-198.304	-200.000	-0.040	0.253
-197.290	228.130	0.148	-0.237
-196.275	640.308	-0.018	0.045
-195.260	241.845	0.011	0.018
-194.246	-147.677	-0.318	0.026
-193.231	800.000	0.035	-0.142
-192.217	-106.723	0.077	-0.017
-191.202	111.962	-0.102	0.121
-190.187	12.003	-0.140	0.106
-189.173	-26.349	-0.186	-0.107
-188.158	-200.000	0.003	0.278
-187.144	201.681	0.082	-0.124
-186.129	-84.427	0.016	-0.005
-185.114	-200.000	-0.020	0.091
-184.100	-19.406	0.089	-0.054
-183.085	-200.000	-0.007	-0.225
-182.071	274.283	-0.089	-0.155
-181.056	-200.000	0.049	0.231
-180.042	-88.335	0.316	-0.093
-179.027	-67.973	0.246	0.094
-178.012	-132.857	0.141	-0.018
-176.998	-62.545	0.130	-0.053
-175.983	248.169	-0.203	-0.337
-174.969	-79.085	0.186	0.062
-173.954	-82.440	-0.280	0.089
-172.939	145.785	0.032	0.043
-171.925	-17.156	-0.134	0.083
-170.910	-200.000	0.046	0.368
-169.896	-40.933	-0.259	-0.132
-168.881	-200.000	-0.016	-0.253
-167.866	-145.432	-0.091	-0.008
-166.852	-200.000	-0.042	-0.435
-165.837	-46.160	0.432	0.209
-164.823	277.788	-0.072	-0.127
-163.808	-200.000	0.046	0.215
-162.793	613.959	0.100	0.247
-161.779	-60.097	-0.121	-0.051
-160.764	288.566	-0.103	-0.184
-159.750	800.000	-0.040	0.141
-158.735	36.878	0.294	-0.256
-157.720	800.000	0.074	0.307
-156.706	-104.064	0.180	0.041
-155.691	20.949	0.362	0.289
-154.677	17.149	-0.186	0.145
-153.662	800.000	-0.038	-0.128
-152.647	-177.419	-0.106	0.003
-151.633	455.360	0.011	-0.024
-150.618	171.451	-0.266	-0.375
-149.604	-5.757	0.117	-0.079
-148.589	162.148	0.161	-0.221
-147.574	-72.110	0.279	-0.102
-146.560	-126.969	-0.412	-0.059
-145.545	-200.000	0.065	0.300
-144.531	-200.000	0.083	0.568
-143.516	74.295	-0.139	0.143
-142.502	-24.047	-0.085	-0.050
-141.487	-95.327	0.178	-0.047
-140.472	30.570	-0.137	0.115
-139.458	-86.058	-0.172	-0.052
-138.443	-200.000	-0.032	-0.229
-137.429	-168.136	-0.326	0.012
-136.414	-197.476	-0.296	0.002
-135.399	358.750	0.049	-0.096
-134.385	-200.000	0.001	-0.080
-133.370	111.269	0.145	-0.172
-132.356	23.892	0.062	-0.050
-131.341	425.723	0.103	-0.217
-130.326	-17.833	-0.041	-0.025
-129.312	800.000	0.093	-0.301
-128.297	18.396	0.057	-0.045
-127.283	653.215	-0.031	0.078
-126.268	800.000	-0.032	0.119
-125.253	129.242	-0.071	0.089
-124.239	272.607	-0.079	0.137
-123.224	-114.096	0.070	-0.013
-122.210	-200.000	0.053	0.425
-121.195	800.000	-0.102	-0.313
-120.180	-59.315	0.136	-0.057
-119.166	-200.000	0.030	0.431
-118.151	145.242	-0.110	0.144
-117.137	-145.037	-0.135	-0.012
-116.122	-29.170	0.243	0.137
-115.107	-49.663	-0.175	0.082
-114.093	-33.220	-0.308	-0.168
-113.078	-85.380	0.368	-0.113
-112.064	12.642	0.290	-0.219
-111.049	-192.119	0.217	0.002
-110.034	-49.074	0.128	-0.060
-109.020	-87.946	-0.210	-0.062
-108.005	47.795	-0.288	-0.264
-106.991	104.764	0.197	0.228
-105.976	31.667	0.303	-0.255
-104.962	-200.000	0.002	-0.183
-103.947	6.309	0.241	-0.176
-102.932	-200.000	0.024	-0.122
-101.918	-180.997	0.340	0.007
-100.903	747.895	0.089	0.235
-99.889	-186.991	0.086	-0.001
-98.874	-200.000	-0.007	0.226
-97.859	8.097	-0.203	0.149
-96.845	20.729	-0.086	-0.068
-95.830	-87.841	0.082	-0.024
-94.816	800.000	0.027	-0.112
-93.801	68.893	-0.238	0.240
-92.786	71.478	-0.064	0.066
-91.772	-200.000	-0.026	0.367
-90.757	-127.661	0.224	-0.032
-89.743	263.779	0.086	0.146
-88.728	-80.099	0.218	-0.072
-87.713	-41.873	0.175	0.088
-86.699	-117.990	-0.058	0.010
-85.684	103.868	0.192	-0.221
-84.670	-200.000	-0.009	-0.130
-83.655	142.989	-0.086	0.112
-82.640	-200.000	0.033	0.296
-81.626	-169.960	0.050	-0.002
-80.611	47.850	0.131	0.120
-79.597	-38.391	-0.297	0.154
-78.582	-99.601	-0.289	-0.071
-77.567	656.806	0.087	-0.218
-76.553	-12.450	0.121	0.077
-75.538	-35.830	-0.226	-0.120
-74.524	-54.798	0.186	-0.082
-73.509	-138.361	-0.447	0.048
-72.494	266.529	-0.034	-0.058
-71.480	-200.000	0.013	0.245
-70.465	-200.000	-0.019	0.346
-69.451	84.660	-0.061	-0.065
-68.436	-5.387	-0.246	0.166
-67.422	-56.725	0.184	-0.080
-66.407	800.000	0.091	0.293
-65.392	-66.987	0.111	-0.043
-64.378	-65.068	0.075	0.030
-63.363	-25.366	0.213	0.123
-62.349	12.373	0.158	0.119
-61.334	89.013	-0.927	-1.011
-60.319	74.245	0.563	0.579
-59.305	270.342	-0.543	-0.934
-58.290	179.888	0.694	0.996
-57.276	375.583	0.745	1.487
-56.261	-200.000	109.394	590.634
-55.246	412.006	1534.309	3189.300
-54.232	137.980	2747.491	3524.185
-53.217	95.413	2338.208	2608.849
-52.203	37.035	1936.001	1676.513
-51.188	31.026	1720.217	1443.256
-50.173	28.507	1677.584	1388.388
-49.159	48.413	1732.443	1587.422
-48.144	47.903	1747.845	1597.548
-47.130	30.708	1703.927	1426.922
-46.115	28.007	1689.270	1394.024
-45.100	27.846	1683.958	1388.363
-44.086	27.777	1681.638	1385.873
-43.071	27.725	1678.927	1383.184
-42.057	27.666	1676.770	1380.904
-41.042	27.802	1674.030	1379.626
-40.027	27.862	1672.016	1378.360
-39.013	27.775	1670.012	1375.997
-37.998	27.754	1668.649	1374.661
-36.984	27.824	1667.487	1374.177
-35.969	27.909	1665.683	1373.273
-34.954	27.911	1664.127	1371.953
-33.940	27.882	1662.618	1370.437
-32.925	27.901	1661.191	1369.352
-31.911	27.947	1659.442	1368.201
-30.896	27.921	1657.284	1366.173
-29.881	27.806	1656.202	1364.367
-28.867	27.926	1653.878	1363.292
-27.852	27.907	1652.125	1361.651
-26.838	27.993	1650.729	1361.086
-25.823	28.007	1649.533	1360.149
-24.809	27.973	1648.471	1358.969
-23.794	27.941	1647.111	1357.556
-22.779	27.968	1645.652	1356.497
-21.765	27.872	1643.832	1354.235
-20.750	27.840	1642.513	1352.857
-19.736	27.961	1641.009	1352.462
-18.721	27.974	1639.941	1351.619
-17.706	28.009	1638.065	1350.284
-16.692	27.932	1637.113	1348.876
-15.677	27.946	1635.672	1347.738
-14.663	28.037	1634.194	1347.136
-13.648	28.049	1632.175	1345.503
-12.633	27.928	1631.232	1343.784
-11.619	27.877	1629.819	1342.194
-10.604	27.899	1627.914	1340.733
-9.590	27.949	1626.738	1340.081
-8.575	28.010	1625.380	1339.354
-7.560	27.930	1624.364	1337.880
-6.546	28.044	1623.076	1337.596
-5.531	27.978	1621.922	1336.108
-4.517	27.971	1620.558	1334.879
-3.502	27.937	1619.635	1333.823
-2.487	28.045	1618.174	1333.352
-1.473	28.114	1607.004	1324.596
-0.458	26.045	1588.977	1294.849
0.556	21.758	1590.692	1265.303
1.571	19.185	1615.607	1266.118
2.586	18.272	1626.963	1268.142
3.600	16.127	1572.183	1209.959
4.615	9.068	1461.074	1077.131
5.629	2.264	1397.592	986.444
6.644	0.986	1390.041	972.823
7.659	0.844	1389.128	971.187
8.673	0.858	1388.074	970.451
9.688	0.922	1385.746	969.148
10.702	0.718	1381.963	965.114
11.717	3.723	1387.266	987.971
12.731	10.922	1397.892	1041.703
13.746	16.090	1404.608	1079.800
14.761	17.283	1405.447	1087.988
15.775	16.778	1403.898	1083.463
16.790	15.780	1401.577	1075.199
17.804	14.956	1398.999	1067.868
18.819	14.561	1398.080	1064.553
19.834	14.344	1396.695	1062.024
20.848	14.103	1394.996	1059.104
21.863	13.839	1393.585	1056.254
22.877	13.734	1392.372	1054.577
23.892	13.574	1391.367	1052.706
24.907	13.727	1390.317	1052.787
25.921	13.539	1389.777	1051.091
26.936	13.607	1389.121	1050.938
27.950	13.656	1388.024	1050.324
28.965	13.628	1387.023	1049.296
29.980	13.794	1385.956	1049.443
30.994	13.772	1385.048	1048.528
32.009	13.820	1384.063	1047.992
33.023	13.819	1382.703	1046.861
34.038	13.741	1381.779	1045.576
35.053	13.826	1380.526	1045.070
36.067	13.729	1379.487	1043.586
37.082	13.815	1378.245	1043.095
38.096	13.817	1377.418	1042.386
39.111	13.815	1376.735	1041.768
40.126	13.708	1375.974	1040.424
41.140	13.736	1374.999	1039.770
42.155	13.577	1375.002	1038.683
43.169	13.576	1374.825	1038.454
44.184	13.672	1374.102	1038.415
45.199	13.663	1373.633	1037.916
46.213	13.687	1373.252	1037.687
47.228	13.630	1372.505	1036.670
48.242	13.701	1371.334	1036.142
49.257	13.680	1369.507	1034.537
50.271	13.804	1367.535	1033.730
51.286	13.715	1367.007	1032.680
52.301	13.708	1365.609	1031.491
53.315	13.671	1364.503	1030.332
54.330	13.624	1363.939	1029.526
55.344	13.607	1362.157	1027.987
56.359	13.681	1361.337	1027.736
57.374	13.637	1360.327	1026.605
58.388	13.617	1359.249	1025.580
59.403	13.548	1358.976	1024.856
60.417	13.575	1358.389	1024.491
61.432	13.603	1357.352	1023.792
62.447	13.663	1356.008	1023.054
63.461	13.508	1354.760	1021.069
64.476	13.588	1353.955	1020.861
65.490	13.540	1352.739	1019.562
66.505	13.593	1351.287	1018.700
67.520	13.501	1350.364	1017.354
68.534	13.659	1349.242	1017.387
69.549	13.623	1347.523	1015.777
70.563	13.617	1346.638	1014.986
71.578	13.436	1346.239	1013.486
72.593	13.477	1344.724	1012.505
73.607	13.513	1343.923	1012.036
74.622	13.525	1343.061	1011.372
75.636	13.412	1342.101	1009.865
76.651	13.459	1341.645	1009.721
77.666	13.533	1340.693	1009.369
78.680	13.517	1340.648	1009.145
79.695	13.535	1339.650	1008.413
80.709	13.592	1338.553	1007.845
81.724	13.545	1337.886	1006.968
82.739	13.625	1336.760	1006.519
83.753	13.639	1335.652	1005.682
84.768	13.658	1334.877	1005.121
85.782	13.618	1333.707	1003.913
86.797	13.681	1332.434	1003.245
87.812	13.675	1330.764	1001.860
88.826	13.609	1329.596	1000.498
89.841	13.680	1329.001	1000.390
90.855	13.668	1327.944	999.434
91.870	13.756	1326.748	998.973
92.884	13.663	1326.113	997.846
93.899	13.663	1325.573	997.355
94.914	13.769	1324.503	997.095
95.928	13.766	1323.528	996.257
96.943	13.739	1322.642	995.341
97.957	13.725	1322.007	994.692
98.972	13.810	1320.965	994.325
99.987	13.800	1319.677	993.210
101.001	13.726	1318.742	991.977
102.016	13.756	1317.703	991.282
103.030	13.718	1317.038	990.473
104.045	13.849	1315.794	990.231
105.060	13.766	1314.638	988.777
106.074	13.698	1313.336	987.305
107.089	13.587	1311.942	985.509
108.103	13.658	1310.636	984.864
109.118	13.588	1309.467	983.483
110.133	13.550	1307.932	982.015
111.147	13.588	1306.553	981.117
112.162	13.702	1305.353	980.808
113.176	13.740	1304.373	980.206
114.191	13.811	1303.212	979.666
115.206	13.662	1302.490	978.158
116.220	13.666	1301.109	977.058
117.235	13.733	1299.818	976.400
118.249	13.605	1299.288	975.161
119.264	13.684	1297.742	974.379
120.279	13.626	1296.873	973.297
121.293	13.719	1295.619	972.816
122.308	13.701	1294.732	971.958
123.322	13.651	1293.715	970.817
124.337	13.765	1292.129	970.206
125.352	13.726	1290.973	969.028
126.366	13.692	1289.932	967.962
127.381	13.736	1288.726	967.227
128.395	13.570	1288.178	965.762
129.410	13.690	1286.944	965.451
130.424	13.652	1286.169	964.563
131.439	13.662	1284.603	963.357
132.454	13.669	1283.811	962.723
133.468	13.775	1282.614	962.353
134.483	13.832	1281.612	961.845
135.497	13.737	1281.308	960.982
136.512	13.669	1279.631	959.249
137.527	13.743	1278.288	958.582
138.541	13.563	1277.347	956.755
139.556	13.720	1275.386	956.107
140.570	13.649	1274.683	955.084
141.585	13.878	1272.950	955.021
142.600	13.844	1271.801	953.877
143.614	13.870	1270.977	953.322
144.629	13.920	1269.974	952.777
145.643	13.844	1269.093	951.591
146.658	13.782	1267.730	950.134
147.673	13.924	1266.103	949.640
148.687	13.776	1265.105	947.965
149.702	13.831	1263.352	946.880
150.716	13.769	1262.320	945.666
151.731	13.824	1261.264	945.109
152.746	13.783	1259.943	943.799
153.760	13.863	1258.772	943.294
154.775	13.852	1257.930	942.519
155.789	13.798	1256.824	941.297
156.804	13.982	1255.567	941.316
157.819	13.891	1254.685	940.056
158.833	13.987	1253.333	939.503
159.848	14.078	1252.432	939.262
160.862	14.034	1251.694	938.377
161.877	14.030	1250.608	937.455
162.892	14.084	1249.177	936.601
163.906	13.909	1248.827	935.270
164.921	13.978	1247.667	934.709
165.935	13.948	1247.070	934.008
166.950	13.938	1246.282	933.279
167.964	14.118	1245.248	933.435
168.979	14.014	1244.781	932.419
169.994	14.048	1243.385	931.479
171.008	14.045	1242.651	930.834
172.023	14.035	1241.793	930.050
173.037	14.066	1241.090	929.617
174.052	14.053	1240.807	929.249
175.067	14.140	1239.179	928.433
176.081	14.107	1238.289	927.500
177.096	13.988	1237.717	926.325
178.110	14.136	1236.462	926.130
179.125	14.087	1235.126	924.773
180.140	14.198	1233.517	924.104
181.154	14.111	1232.623	922.872
182.169	14.225	1231.588	922.642
183.183	14.181	1230.117	921.220
184.198	14.233	1229.009	920.595
185.213	14.361	1227.689	920.230
186.227	14.258	1227.050	919.103
187.242	14.268	1225.762	918.108
188.256	14.309	1224.524	917.328
189.271	14.376	1223.680	916.983
190.286	14.304	1222.842	915.881
191.300	14.074	1222.536	914.303
192.315	14.123	1221.520	913.734
193.329	14.158	1221.373	913.733
194.344	14.235	1220.388	913.340
195.359	14.224	1219.552	912.571
196.373	14.280	1219.417	912.696
197.388	14.259	1218.904	912.117
198.402	14.348	1218.023	911.861
199.417	14.333	1217.732	911.483
200.432	14.417	1216.523	910.954
201.446	14.489	1215.453	910.466
202.461	14.539	1214.510	909.952
203.475	14.552	1213.594	909.257
204.490	14.497	1212.048	907.721
205.504	14.584	1210.532	906.978
206.519	14.585	1209.419	906.071
207.534	14.506	1208.614	904.958
208.548	14.477	1207.588	903.953
209.563	14.461	1206.902	903.270
210.577	14.447	1206.009	902.447
211.592	14.581	1205.241	902.519
212.607	14.707	1204.076	902.245
213.621	14.629	1203.346	901.198
214.636	14.602	1202.464	900.314
215.650	14.612	1201.473	899.543
216.665	14.712	1200.294	899.120
217.680	14.645	1199.964	898.432
218.694	14.672	1198.894	897.697
219.709	14.626	1198.241	896.879
220.723	14.701	1197.487	896.644
221.738	14.774	1196.409	896.149
222.753	14.738	1195.877	895.478
223.767	14.790	1195.301	895.242
224.782	14.825	1194.510	894.757
225.796	14.922	1193.869	894.718
226.811	14.840	1193.570	893.975
227.826	14.834	1192.603	893.143
228.840	14.877	1191.724	892.636
229.855	14.848	1191.077	891.917
230.869	14.994	1189.874	891.712
231.884	14.953	1188.937	890.716
232.899	14.680	1189.173	889.359
233.913	14.801	1187.982	889.034
234.928	14.766	1187.264	888.228
235.942	14.758	1186.385	887.453
236.957	14.953	1184.937	887.325
237.972	14.843	1185.054	886.751
238.986	14.878	1183.920	886.010
240.001	14.999	1183.201	886.032
241.015	14.965	1182.137	884.977
242.030	14.837	1181.940	884.077
243.045	14.881	1180.834	883.402
244.059	14.880	1179.922	882.636
245.074	15.032	1179.162	882.793
246.088	14.973	1178.193	881.680
247.103	15.116	1177.561	881.881
248.117	15.073	1176.969	881.131
249.132	15.122	1176.183	880.724
250.147	15.246	1175.176	880.543
251.161	15.178	1174.585	879.663
252.176	15.300	1173.749	879.599
253.190	15.198	1173.400	878.726
254.205	15.334	1172.759	878.880
255.220	15.366	1171.944	878.362
256.234	15.307	1171.385	877.556
257.249	15.324	1170.586	876.970
258.263	15.337	1170.074	876.573
259.278	15.369	1169.332	876.109
260.293	15.357	1169.155	875.837
261.307	15.419	1168.382	875.501
262.322	15.422	1167.900	875.078
263.336	15.465	1167.366	874.826
264.351	15.514	1166.187	874.120
265.366	15.534	1165.815	873.866
266.380	15.413	1164.860	872.445
267.395	15.540	1163.902	872.312
268.409	15.528	1163.260	871.692
269.424	15.500	1162.946	871.234
270.439	15.476	1162.416	870.632
271.453	15.515	1161.954	870.415
272.468	15.456	1160.755	869.135
273.482	15.456	1159.863	868.387
274.497	15.553	1159.313	868.401
275.512	15.614	1158.518	868.042
276.526	15.604	1157.705	867.305
277.541	15.526	1156.981	866.285
278.555	15.565	1156.164	865.797
279.570	15.636	1155.553	865.628
280.585	15.735	1154.695	865.417
281.599	15.643	1153.707	864.126
282.614	15.709	1152.703	863.639
283.628	15.768	1151.867	863.239
284.643	15.740	1150.952	862.331
285.657	15.706	1150.002	861.372
286.672	15.669	1149.534	860.757
287.687	15.841	1148.288	860.627
288.701	15.808	1147.160	859.535
289.716	15.780	1146.440	858.775
290.730	15.926	1145.518	858.754
291.745	15.894	1145.159	858.247
292.760	15.788	1144.675	857.268
293.774	15.899	1143.923	857.195
294.789	15.891	1143.463	856.731
295.803	16.004	1142.631	856.606
296.818	15.916	1142.107	855.693
297.833	15.964	1141.098	855.107
298.847	15.849	1140.498	853.993
299.862	15.899	1139.947	853.762
300.876	15.951	1139.118	853.327
301.891	16.016	1138.335	852.997
302.906	16.117	1137.135	852.532
303.920	16.095	1136.993	852.235
304.935	16.169	1136.203	851.945
305.949	16.186	1135.599	851.501
306.964	16.162	1135.160	850.977
307.979	16.164	1134.155	850.155
308.993	16.120	1133.421	849.311
310.008	16.160	1132.638	848.847
311.022	16.243	1131.461	848.311
312.037	16.288	1130.698	847.889
313.052	16.170	1129.991	846.689
314.066	16.205	1129.144	846.155
315.081	16.103	1128.541	845.120
316.095	16.212	1127.489	844.802
317.110	16.225	1127.094	844.499
318.125	16.170	1125.902	843.255
319.139	16.171	1125.309	842.742
320.154	16.197	1124.908	842.494
321.168	16.130	1124.399	841.703
322.183	16.208	1123.684	841.484
323.197	16.215	1122.786	840.771
324.212	16.223	1122.369	840.427
325.227	16.191	1121.484	839.526
326.241	16.270	1120.480	839.094
327.256	16.284	1120.245	838.914
328.270	16.244	1119.507	838.087
329.285	16.387	1118.215	837.758
330.300	16.364	1117.451	836.997
331.314	16.381	1116.009	835.927
332.329	16.341	1115.274	835.105
333.343	16.383	1114.891	834.949
334.358	16.369	1113.861	834.039
335.373	16.415	1113.427	833.865
336.387	16.406	1112.562	833.097
337.402	16.428	1111.391	832.256
338.416	16.539	1110.788	832.280
339.431	16.539	1110.294	831.833
340.446	16.550	1109.627	831.314
341.460	16.603	1108.936	830.987
342.475	16.654	1107.952	830.423
343.489	16.684	1106.993	829.780
344.504	16.788	1105.940	829.427
345.519	16.576	1105.393	827.903
346.533	16.743	1104.636	828.078
347.548	16.864	1103.764	827.947
348.562	16.782	1103.156	827.014
349.577	16.715	1102.250	825.938
350.592	16.722	1101.593	825.404
351.606	16.792	1100.890	825.144
352.621	16.670	1099.956	823.778
353.635	16.652	1099.577	823.334
354.650	16.706	1098.722	822.884
355.665	16.637	1098.275	822.143
356.679	16.670	1097.492	821.641
357.694	16.819	1096.742	821.729
358.708	16.849	1096.118	821.334
359.723	16.922	1095.190	820.919
360.738	16.823	1094.992	820.220
361.752	16.867	1094.124	819.711
362.767	16.899	1093.658	819.445
363.781	16.766	1093.366	818.511
364.796	16.820	1092.569	818.102
365.810	16.883	1091.887	817.825
366.825	16.976	1090.955	817.502
367.840	17.051	1090.581	817.511
368.854	17.034	1090.205	817.074
369.869	16.965	1089.349	816.026
370.883	16.921	1088.873	815.388
371.898	17.139	1087.369	815.234
372.913	17.005	1087.243	814.426
373.927	17.090	1086.568	814.257
374.942	17.166	1086.304	814.350
375.956	17.139	1085.675	813.679
376.971	17.170	1084.836	813.126
377.986	17.089	1084.561	812.458
379.000	17.113	1083.748	811.894
380.015	17.221	1083.441	812.108
381.029	17.377	1082.237	811.877
382.044	17.278	1081.839	811.033
383.059	17.349	1080.958	810.642
384.073	17.194	1080.388	809.406
385.088	17.336	1079.225	809.135
386.102	17.372	1078.259	808.511
387.117	17.250	1077.742	807.475
388.132	17.341	1076.746	807.087
389.146	17.221	1076.164	806.009
390.161	17.331	1075.079	805.647
391.175	17.389	1074.243	805.223
392.190	17.481	1073.302	804.884
393.205	17.382	1072.893	804.036
394.219	17.499	1072.216	804.010
395.234	17.475	1071.338	803.169
396.248	17.475	1070.379	802.377
397.263	17.438	1069.376	801.381
398.278	17.373	1068.807	800.576
399.292	17.432	1068.099	800.256
400.307	17.461	1067.546	799.904
401.321	17.491	1066.942	799.525
402.336	17.526	1065.797	798.757
403.350	17.529	1065.556	798.522
404.365	17.412	1064.879	797.396
405.380	17.581	1063.868	797.357
406.394	17.593	1063.220	796.857
407.409	17.662	1062.253	796.386
408.423	17.639	1061.290	795.484
409.438	17.640	1061.344	795.460
410.453	17.552	1060.587	794.414
411.467	17.718	1059.715	794.462
412.482	17.598	1059.592	793.740
413.496	17.729	1058.702	793.616
414.511	17.718	1057.917	792.903
415.526	17.804	1057.117	792.632
416.540	17.848	1056.505	792.310
417.555	17.926	1056.126	792.316
418.569	17.948	1055.518	791.894
419.584	17.847	1055.160	791.086
420.599	17.868	1054.625	790.710
421.613	105.671	1326.415	1476.382
422.628	97.398	1365.980	1476.466
