DTS Sentinel unit serial number:	SN413079Multiplexer serial number:	ORYXHardware model number:	OX4-SRSoftware version number:	ORYX F/W v4.00 Oryx Data Collector v3.7.2.0data status	okinstallation	princeton_trtdifferential loss correction	single-endedforward channel	channel 2reverse channel	N/Adate	2019/09/19time	10:11:35forward acquisition time	60.00reverse acquisition time	0.00gamma	496.2192k internal	0.2344k external	0.2344temperature offset calibration	1.0008default loss term (dB/km)	0.3790temperature slope calibration	1.0000multiplexer offset coefficient	1.0000multiplexer slope coefficient	1.0000fibre end	0.00T internal ref (°C)	24.00T ext. ref 1 (°C)	0.69T ext. ref 2 (°C)	19.83length (m)	temperature (°C)	Stokes	anti-Stokes-747.200	-42.336	-0.324	-0.166
-746.185	191.835	-0.099	0.149
-745.171	800.000	-0.073	-0.267
-744.156	-200.000	0.039	0.196
-743.142	-200.000	0.037	0.197
-742.127	13.038	-0.305	0.236
-741.112	-73.652	0.076	-0.028
-740.098	-38.588	-0.237	0.125
-739.083	14.938	0.029	0.023
-738.069	170.957	0.263	0.377
-737.054	7.498	0.266	0.199
-736.039	-120.644	-0.058	0.010
-735.025	800.000	0.152	0.430
-734.010	-138.185	-0.184	-0.020
-732.996	-108.825	-0.218	-0.047
-731.981	283.593	0.263	0.473
-730.966	-174.449	-0.194	-0.006
-729.952	387.782	0.071	-0.148
-728.937	-59.370	-0.052	0.022
-727.923	-57.916	0.065	0.029
-726.908	99.456	-0.048	-0.056
-725.894	-200.000	-0.063	-0.346
-724.879	-149.853	-0.319	0.025
-723.864	372.012	-0.113	0.229
-722.850	156.308	0.031	0.043
-721.835	-132.846	-0.486	-0.062
-720.821	-97.177	0.167	0.044
-719.806	800.000	0.062	0.238
-718.791	-94.146	-0.179	0.049
-717.777	601.477	-0.082	-0.202
-716.762	350.922	-0.089	-0.177
-715.748	35.630	-0.192	0.169
-714.733	303.550	-0.062	-0.115
-713.718	23.841	-0.432	-0.356
-712.704	-200.000	0.012	-0.061
-711.689	-151.633	0.352	-0.026
-710.675	-200.000	0.003	0.022
-709.660	-156.764	-0.291	-0.018
-708.645	-135.906	-0.127	-0.015
-707.631	45.085	-0.147	-0.135
-706.616	258.291	-0.140	-0.241
-705.602	-76.708	-0.140	0.049
-704.587	-83.000	0.228	-0.073
-703.572	-21.167	0.327	-0.200
-702.558	-24.917	-0.106	-0.063
-701.543	47.971	0.291	-0.271
-700.529	-168.609	-0.279	-0.011
-699.514	-28.854	-0.171	-0.098
-698.499	-200.000	0.002	-0.204
-697.485	136.391	-0.220	-0.287
-696.470	212.339	0.036	-0.057
-695.456	-200.000	0.013	0.210
-694.441	-87.182	0.211	0.064
-693.426	-57.130	-0.427	0.188
-692.412	-200.000	-0.043	0.465
-691.397	286.468	-0.025	0.045
-690.383	374.536	0.059	-0.120
-689.368	-200.000	0.026	-0.114
-688.354	-15.899	0.410	-0.261
-687.339	-83.562	-0.281	0.090
-686.324	274.878	0.176	0.311
-685.310	71.352	0.098	-0.102
-684.295	-200.000	-0.016	0.102
-683.281	322.716	-0.131	-0.249
-682.266	-200.000	0.007	0.223
-681.251	287.854	-0.030	-0.054
-680.237	98.644	0.173	0.200
-679.222	-200.000	-0.002	-0.121
-678.208	800.000	0.076	-0.293
-677.193	-200.000	0.005	-0.278
-676.178	223.366	-0.008	0.013
-675.164	-151.162	-0.348	0.026
-674.149	228.491	-0.066	-0.107
-673.135	36.266	-0.107	0.094
-672.120	-62.477	-0.402	-0.167
-671.105	800.000	-0.069	-0.252
-670.091	-71.926	-0.347	-0.129
-669.076	144.489	-0.119	-0.158
-668.062	40.967	0.039	0.035
-667.047	397.907	0.030	0.062
-666.032	-66.864	-0.247	0.097
-665.018	-200.000	-0.026	-0.206
-664.003	-200.000	-0.481	0.001
-662.989	316.804	0.044	-0.083
-661.974	-141.548	-0.111	0.011
-660.959	119.016	0.208	-0.257
-659.945	-98.280	-0.177	0.045
-658.930	-128.324	0.197	0.028
-657.916	-128.336	0.247	-0.035
-656.901	0.679	-0.093	-0.066
-655.886	-200.000	-0.072	0.499
-654.872	-15.367	-0.423	0.269
-653.857	387.020	-0.119	0.245
-652.843	-149.840	0.155	-0.012
-651.828	-132.875	-0.212	-0.027
-650.814	29.229	0.185	-0.157
-649.799	-111.680	-0.208	-0.042
-648.784	485.142	0.073	0.166
-647.770	-92.218	-0.040	-0.011
-646.755	193.481	-0.236	0.356
-645.741	114.556	0.151	0.183
-644.726	-200.000	-0.179	-0.000
-643.711	472.287	0.025	-0.056
-642.697	800.000	-0.077	0.260
-641.682	-31.199	0.157	0.088
-640.668	238.512	0.041	0.068
-639.653	210.828	0.196	0.307
-638.638	508.617	0.127	0.294
-637.624	-110.437	0.130	-0.027
-636.609	78.880	-0.227	-0.242
-635.595	229.884	-0.080	0.130
-634.580	45.471	-0.281	0.259
-633.565	-153.404	0.190	-0.013
-632.551	-6.652	-0.147	0.100
-631.536	-38.663	-0.193	-0.101
-630.522	-200.000	0.007	-0.264
-629.507	-200.000	-0.086	0.407
-628.492	-200.000	-0.008	0.083
-627.478	800.000	-0.125	-0.475
-626.463	256.697	0.091	-0.156
-625.449	-97.946	-0.152	-0.039
-624.434	741.960	-0.005	0.014
-623.419	108.801	-0.238	-0.283
-622.405	1.476	-0.310	-0.222
-621.390	284.744	-0.187	0.335
-620.376	-9.135	0.322	0.215
-619.361	30.487	0.202	-0.172
-618.346	235.951	-0.151	-0.248
-617.332	18.329	-0.179	-0.142
-616.317	-52.794	-0.128	0.059
-615.303	-181.460	-0.157	-0.003
-614.288	800.000	0.034	-0.119
-613.273	-200.000	0.002	0.088
-612.259	-136.137	0.260	0.030
-611.244	-43.235	-0.160	0.081
-610.230	-90.688	0.092	-0.027
-609.215	800.000	-0.041	0.171
-608.201	-27.538	-0.113	-0.065
-607.186	59.173	-0.177	0.173
-606.171	-17.992	-0.189	0.118
-605.157	-200.000	-0.039	-0.316
-604.142	800.000	-0.081	0.260
-603.128	43.996	-0.221	0.202
-602.113	-28.099	-0.205	-0.118
-601.098	-200.000	0.020	-0.090
-600.084	-97.310	0.115	0.030
-599.069	12.239	0.184	0.141
-598.055	-200.000	0.001	-0.190
-597.040	-200.000	-0.030	-0.215
-596.025	14.276	-0.089	0.069
-595.011	-197.383	-0.108	-0.001
-593.996	-44.388	-0.260	-0.130
-592.982	-200.000	0.002	0.168
-591.967	-130.250	0.181	-0.024
-590.952	166.625	0.106	-0.150
-589.938	800.000	0.091	-0.369
-588.923	-200.000	-0.013	0.195
-587.909	800.000	0.138	0.571
-586.894	-48.010	0.337	0.162
-585.879	574.250	-0.113	-0.273
-584.865	12.940	0.164	0.126
-583.850	624.218	-0.057	0.143
-582.836	308.147	-0.203	0.377
-581.821	360.582	0.164	0.328
-580.806	50.568	-0.238	-0.224
-579.792	299.070	0.151	0.277
-578.777	-82.140	0.535	-0.173
-577.763	-81.521	0.270	-0.088
-576.748	652.863	-0.069	-0.176
-575.733	-63.487	-0.055	-0.022
-574.719	59.945	-0.123	-0.121
-573.704	-55.341	-0.245	-0.110
-572.690	18.983	-0.141	-0.112
-571.675	-69.881	0.087	-0.033
-570.661	159.311	0.048	-0.066
-569.646	201.565	0.226	-0.346
-568.631	19.387	-0.187	-0.149
-567.617	-200.000	-0.042	0.444
-566.602	56.937	0.160	-0.155
-565.588	42.968	0.204	-0.185
-564.573	-121.964	0.345	-0.056
-563.558	800.000	-0.046	0.160
-562.544	-96.154	0.209	-0.055
-561.529	-97.259	0.311	-0.081
-560.515	80.250	-0.058	-0.062
-559.500	92.029	0.079	-0.088
-558.485	81.021	-0.173	-0.185
-557.471	145.075	0.116	-0.154
-556.456	-3.059	-0.109	-0.076
-555.442	370.186	0.051	0.103
-554.427	-48.739	-0.143	0.068
-553.412	800.000	-0.069	-0.254
-552.398	-84.906	-0.290	0.090
-551.383	286.023	0.073	-0.132
-550.369	198.752	0.038	-0.058
-549.354	-200.000	-0.047	0.267
-548.339	-2.086	0.070	-0.049
-547.325	-200.000	-0.041	0.394
-546.310	239.013	-0.112	-0.184
-545.296	-113.687	-0.042	0.008
-544.281	-95.392	0.260	-0.069
-543.266	-200.000	0.007	0.356
-542.252	-94.095	0.160	-0.043
-541.237	-80.408	-0.202	-0.067
-540.223	-12.062	0.420	-0.273
-539.208	244.774	-0.080	0.133
-538.193	-200.000	-0.033	-0.219
-537.179	103.518	0.102	0.119
-536.164	1.145	-0.255	0.181
-535.150	-54.827	-0.118	0.053
-534.135	-96.363	0.104	0.027
-533.121	651.896	0.060	0.152
-532.106	-200.000	0.002	0.118
-531.091	-27.396	0.381	0.220
-530.077	-37.703	-0.398	-0.210
-529.062	258.994	-0.017	0.029
-528.048	-200.000	0.071	-0.346
-527.033	285.526	0.061	-0.109
-526.018	34.584	-0.043	-0.038
-525.004	67.504	-0.202	-0.205
-523.989	-200.000	0.009	-0.122
-522.975	-157.619	0.085	-0.005
-521.960	128.847	0.352	0.445
-520.945	-200.000	-0.064	-0.278
-519.931	-13.597	0.222	0.143
-518.916	-200.000	-0.023	0.212
-517.902	119.826	0.127	-0.157
-516.887	-200.000	0.101	-0.000
-515.872	19.540	0.170	0.136
-514.858	283.013	-0.196	0.348
-513.843	-84.920	0.182	0.057
-512.829	-140.595	-0.016	0.002
-511.814	521.360	-0.097	-0.225
-510.799	151.925	0.020	-0.027
-509.785	-103.806	0.209	0.048
-508.770	317.089	-0.184	-0.344
-507.756	597.387	0.108	-0.265
-506.741	-200.000	-0.041	0.212
-505.726	-69.104	0.101	-0.039
-504.712	-161.638	0.086	0.004
-503.697	97.108	-0.116	-0.132
-502.683	-5.211	-0.250	0.170
-501.668	19.988	0.259	0.207
-500.653	800.000	0.070	-0.217
-499.639	-139.754	-0.192	0.020
-498.624	-158.053	-0.255	0.015
-497.610	-200.000	0.012	-0.318
-496.595	-33.100	0.205	0.112
-495.581	-52.913	-0.218	0.100
-494.566	507.212	0.119	-0.273
-493.551	-111.528	0.291	0.059
-492.537	255.444	0.069	0.117
-491.522	-118.263	0.149	0.026
-490.508	-76.738	0.211	0.073
-489.493	3.558	-0.010	0.007
-488.478	-78.093	0.170	-0.058
-487.464	3.714	0.089	-0.064
-486.449	-56.792	0.120	-0.053
-485.435	-88.231	0.178	0.053
-484.420	800.000	-0.084	-0.270
-483.405	273.423	-0.130	-0.227
-482.391	153.117	0.097	-0.132
-481.376	-53.092	-0.506	-0.230
-480.362	-57.155	0.380	-0.166
-479.347	-40.390	-0.375	0.193
-478.332	-200.000	-0.001	0.383
-477.318	-61.431	-0.153	-0.064
-476.303	800.000	-0.032	0.118
-475.289	-192.959	-0.091	0.001
-474.274	111.970	0.129	-0.154
-473.259	229.209	0.167	-0.270
-472.245	-200.000	-0.004	0.034
-471.230	337.106	0.069	0.134
-470.216	-89.605	0.184	0.053
-469.201	800.000	0.051	0.154
-468.186	110.598	0.032	0.038
-467.172	-26.108	-0.407	0.237
-466.157	-200.000	0.013	-0.274
-465.143	172.169	-0.119	-0.170
-464.128	800.000	-0.128	-0.428
-463.113	-81.129	-0.454	-0.149
-462.099	-85.152	-0.058	-0.018
-461.084	-149.926	0.070	-0.005
-460.070	-86.487	-0.140	0.042
-459.055	800.000	0.092	0.388
-458.040	58.956	0.352	0.343
-457.026	433.717	-0.018	0.040
-456.011	190.465	-0.071	-0.105
-454.997	-80.203	-0.213	0.071
-453.982	149.840	-0.136	-0.182
-452.968	-200.000	0.027	0.123
-451.953	-52.146	0.218	-0.100
-450.938	-200.000	0.052	-0.381
-449.924	375.368	-0.267	0.538
-448.909	412.746	-0.046	0.096
-447.895	250.052	-0.235	-0.394
-446.880	-200.000	-0.002	-0.251
-445.865	12.533	-0.382	-0.291
-444.851	-200.000	0.037	0.163
-443.836	450.278	-0.073	-0.159
-442.822	-16.947	-0.370	0.231
-441.807	301.203	0.024	0.045
-440.792	303.514	-0.130	0.238
-439.778	-65.111	-0.195	0.078
-438.763	-125.166	-0.094	-0.014
-437.749	-200.000	-0.004	-0.063
-436.734	108.988	0.063	-0.075
-435.719	-51.646	0.167	-0.077
-434.705	-89.554	-0.144	0.042
-433.690	-92.733	-0.440	-0.122
-432.676	-11.283	0.191	0.124
-431.661	489.247	0.070	0.158
-430.646	-111.387	0.092	0.018
-429.632	90.651	-0.233	0.258
-428.617	-26.591	-0.257	0.149
-427.603	60.537	0.205	-0.201
-426.588	213.738	-0.123	-0.193
-425.573	-45.344	-0.406	0.199
-424.559	53.162	-0.175	0.165
-423.544	353.631	0.051	-0.100
-422.530	91.775	0.403	-0.448
-421.515	281.515	0.035	-0.062
-420.500	-200.000	0.029	-0.365
-419.486	1.250	0.190	0.135
-418.471	11.508	-0.117	0.089
-417.457	-150.514	0.263	0.020
-416.442	-200.000	-0.034	-0.189
-415.428	-200.000	-0.006	0.222
-414.413	800.000	0.060	0.182
-413.398	-200.000	-0.026	0.275
-412.384	800.000	-0.080	0.325
-411.369	14.752	0.055	0.043
-410.355	19.144	-0.160	0.127
-409.340	-5.892	0.031	0.021
-408.325	-200.000	0.039	-0.254
-407.311	-30.195	0.299	-0.168
-406.296	800.000	0.057	0.177
-405.282	129.556	-0.080	-0.101
-404.267	132.444	0.198	0.253
-403.252	123.038	0.214	-0.265
-402.238	320.313	0.136	-0.255
-401.223	626.507	-0.076	0.189
-400.209	36.566	-0.261	0.228
-399.194	93.265	0.126	-0.140
-398.179	-67.566	-0.238	0.092
-397.165	-66.768	-0.279	-0.109
-396.150	800.000	0.057	0.236
-395.136	332.365	0.108	0.207
-394.121	-2.232	-0.138	-0.096
-393.106	-70.502	0.210	-0.079
-392.092	800.000	0.041	-0.124
-391.077	-200.000	0.002	0.199
-390.063	-50.462	-0.161	-0.075
-389.048	195.574	-0.122	-0.183
-388.033	456.911	0.036	0.079
-387.019	-132.644	-0.199	-0.025
-386.004	0.899	-0.236	-0.167
-384.990	80.448	0.185	-0.196
-383.975	18.442	-0.243	0.191
-382.960	10.997	0.169	-0.127
-381.946	-200.000	0.021	0.175
-380.931	-160.800	-0.248	0.013
-379.917	90.541	0.112	0.124
-378.902	-60.220	0.066	-0.028
-377.888	63.605	-0.215	0.213
-376.873	-47.813	0.277	-0.132
-375.858	179.849	-0.151	0.219
-374.844	75.909	-0.066	0.069
-373.829	-56.828	0.169	0.074
-372.815	-62.990	0.322	-0.131
-371.800	-175.835	0.121	-0.003
-370.785	-200.000	-0.021	-0.113
-369.771	-71.947	0.128	-0.047
-368.756	-55.745	0.077	0.034
-367.742	157.854	-0.101	0.138
-366.727	800.000	-0.016	-0.048
-365.712	-200.000	0.019	-0.485
-364.698	-200.000	0.009	0.242
-363.683	509.836	0.117	0.268
-362.669	-120.269	-0.235	-0.039
-361.654	-200.000	-0.021	-0.150
-360.639	51.410	0.133	-0.125
-359.625	-200.000	-0.003	0.087
-358.610	-200.000	0.004	0.050
-357.596	242.756	0.112	-0.184
-356.581	46.936	0.039	-0.036
-355.566	800.000	-0.080	0.238
-354.552	103.448	0.219	0.253
-353.537	-200.000	0.001	-0.020
-352.523	-1.165	-0.206	-0.143
-351.508	180.304	0.141	0.204
-350.493	-200.000	0.262	0.001
-349.479	-72.757	-0.386	-0.140
-348.464	300.834	0.093	0.169
-347.450	-115.288	0.213	-0.040
-346.435	115.996	-0.195	-0.235
-345.420	124.520	-0.118	-0.146
-344.406	800.000	-0.105	0.350
-343.391	-200.000	0.069	0.431
-342.377	800.000	-0.086	-0.246
-341.362	800.000	0.152	-0.479
-340.348	-27.937	0.273	-0.156
-339.333	-77.621	0.229	-0.078
-338.318	-26.405	-0.253	-0.146
-337.304	33.034	-0.227	-0.194
-336.289	-85.797	0.248	-0.076
-335.275	-63.458	0.266	0.108
-334.260	361.625	-0.035	0.069
-333.245	-19.109	0.170	-0.104
-332.231	-30.261	0.088	0.049
-331.216	-56.788	0.170	0.074
-330.202	263.919	-0.069	-0.118
-329.187	-91.747	-0.373	-0.104
-328.172	800.000	-0.018	-0.050
-327.158	-37.832	0.315	0.165
-326.143	-200.000	0.046	-0.330
-325.129	81.952	0.281	-0.300
-324.114	-7.666	-0.070	-0.046
-323.099	-93.968	0.139	0.037
-322.085	800.000	-0.041	-0.117
-321.070	-200.000	0.053	0.279
-320.056	-200.000	0.016	-0.100
-319.041	-35.805	0.102	0.054
-318.026	377.655	-0.127	0.256
-317.012	-41.472	0.273	-0.138
-315.997	32.766	0.141	0.120
-314.983	-200.000	-0.044	0.388
-313.968	1.706	0.051	0.036
-312.953	136.050	-0.114	-0.146
-311.939	-200.000	0.011	0.188
-310.924	-150.217	-0.253	-0.019
-309.910	-200.000	0.004	-0.076
-308.895	-81.465	0.036	-0.012
-307.880	7.459	0.134	-0.099
-306.866	117.739	0.110	-0.134
-305.851	227.752	-0.069	-0.110
-304.837	286.362	-0.053	0.094
-303.822	47.171	0.096	0.088
-302.807	-81.719	-0.217	-0.070
-301.793	-140.425	-0.182	-0.019
-300.778	800.000	0.047	0.160
-299.764	421.785	-0.194	0.410
-298.749	12.790	-0.240	0.182
-297.735	800.000	0.147	0.545
-296.720	-85.772	0.080	-0.024
-295.705	-92.850	0.044	-0.012
-294.691	96.106	-0.102	0.115
-293.676	-114.672	0.395	-0.074
-292.662	-141.911	-0.474	0.047
-291.647	9.779	0.222	-0.166
-290.632	-79.243	-0.251	0.084
-289.618	800.000	0.010	-0.031
-288.603	-154.430	0.204	0.013
-287.589	-133.023	0.267	-0.033
-286.574	44.171	0.122	-0.110
-285.559	-200.000	0.025	0.182
-284.545	800.000	-0.038	0.144
-283.530	-82.792	0.219	0.070
-282.516	-200.000	-0.007	-0.209
-281.501	190.352	-0.005	-0.008
-280.486	-200.000	-0.009	0.100
-279.472	-1.503	-0.287	0.199
-278.457	30.410	0.088	-0.074
-277.443	130.995	0.101	-0.127
-276.428	-200.000	-0.011	0.185
-275.413	-200.000	0.012	-0.121
-274.399	-144.797	-0.100	-0.009
-273.384	-126.195	0.185	0.027
-272.370	-69.533	-0.054	-0.020
-271.355	-141.383	0.086	-0.009
-270.340	-16.541	-0.134	0.083
-269.326	-200.000	0.003	0.074
-268.311	29.144	0.222	-0.185
-267.297	-200.000	-0.005	-0.378
-266.282	800.000	0.106	-0.306
-265.267	-82.668	0.134	-0.043
-264.253	-81.039	-0.222	-0.072
-263.238	-43.661	-0.406	0.201
-262.224	-113.659	0.178	-0.034
-261.209	12.316	-0.090	-0.068
-260.195	-54.060	0.295	-0.132
-259.180	-164.432	0.178	-0.008
-258.165	-9.619	-0.189	-0.124
-257.151	800.000	0.022	-0.070
-256.136	-49.973	0.329	-0.153
-255.122	-92.768	0.165	0.045
-254.107	25.493	-0.189	0.154
-253.092	371.865	-0.062	0.123
-252.078	109.258	0.273	0.321
-251.063	136.843	-0.025	0.032
-250.049	165.514	0.024	-0.033
-249.034	218.854	0.081	0.127
-248.019	-48.071	0.068	-0.032
-247.005	-200.000	-0.012	-0.109
-245.990	1.621	-0.101	-0.071
-244.976	92.060	-0.144	-0.159
-243.961	-63.763	0.556	-0.224
-242.946	666.027	-0.038	0.097
-241.932	128.389	0.307	-0.384
-240.917	-18.396	-0.153	0.094
-239.903	251.572	-0.202	0.338
-238.888	800.000	0.046	-0.165
-237.873	-131.023	0.182	0.024
-236.859	-82.661	-0.023	0.007
-235.844	-86.257	-0.379	-0.115
-234.830	800.000	-0.125	0.396
-233.815	-146.937	0.207	0.017
-232.800	-168.811	0.402	0.015
-231.786	-70.318	0.204	0.076
-230.771	-167.800	-0.329	-0.013
-229.757	800.000	-0.049	0.183
-228.742	170.835	0.047	0.067
-227.727	-200.000	-0.015	-0.189
-226.713	800.000	-0.067	-0.231
-225.698	-54.286	-0.094	-0.042
-224.684	800.000	0.043	-0.153
-223.669	800.000	-0.044	0.182
-222.655	137.196	-0.152	0.195
-221.640	-186.324	-0.289	-0.004
-220.625	306.631	-0.159	-0.291
-219.611	800.000	0.047	-0.176
-218.596	40.766	0.140	-0.124
-217.582	143.268	-0.230	0.300
-216.567	181.458	-0.333	0.481
-215.552	157.728	-0.133	-0.181
-214.538	-59.806	-0.098	0.041
-213.523	-103.058	0.312	-0.073
-212.509	53.267	-0.254	-0.239
-211.494	-156.195	0.266	-0.016
-210.479	55.550	-0.232	0.220
-209.465	-2.295	-0.180	0.124
-208.450	139.317	-0.191	-0.247
-207.436	10.718	0.226	0.169
-206.421	800.000	-0.095	-0.401
-205.406	-200.000	0.005	0.182
-204.392	-200.000	-0.025	-0.229
-203.377	-139.207	-0.231	-0.024
-202.363	-126.719	0.163	0.024
-201.348	533.265	-0.219	0.508
-200.333	-48.668	-0.290	0.136
-199.319	274.095	-0.161	-0.279
-198.304	93.798	-0.031	0.035
-197.290	87.238	-0.220	-0.238
-196.275	326.390	-0.070	-0.131
-195.260	-181.549	0.518	0.010
-194.246	141.073	0.130	0.168
-193.231	15.641	0.275	0.211
-192.217	0.956	-0.381	-0.267
-191.202	298.167	0.245	0.441
-190.187	-63.066	-0.123	0.050
-189.173	674.491	-0.110	-0.280
-188.158	-200.000	0.030	0.173
-187.144	-200.000	0.052	-0.326
-186.129	-143.482	0.405	-0.038
-185.114	-152.982	-0.107	-0.007
-184.100	-31.471	-0.137	-0.076
-183.085	568.298	0.083	0.197
-182.071	407.132	-0.099	-0.205
-181.056	261.906	-0.089	-0.152
-180.042	-121.662	-0.224	-0.036
-179.027	10.352	-0.200	0.149
-178.012	-128.351	0.050	0.007
-176.998	-16.059	0.153	-0.095
-175.983	-9.202	0.103	-0.067
-174.969	-200.000	-0.038	-0.292
-173.954	-3.265	0.066	-0.045
-172.939	800.000	0.041	0.134
-171.925	613.505	-0.101	0.247
-170.910	-31.847	0.284	-0.156
-169.896	320.749	0.067	0.125
-168.881	522.380	0.028	0.065
-167.866	-193.280	0.142	0.001
-166.852	378.359	-0.051	0.101
-165.837	-16.850	-0.260	-0.161
-164.823	-97.068	0.188	0.048
-163.808	-66.467	0.227	-0.088
-162.793	334.628	-0.101	0.191
-161.779	-200.000	-0.023	0.325
-160.764	-79.574	0.269	0.089
-159.750	188.988	-0.085	0.125
-158.735	-66.632	-0.096	0.037
-157.720	222.346	0.248	-0.390
-156.706	800.000	0.059	0.160
-155.691	-120.869	0.123	0.020
-154.677	-200.000	0.001	0.030
-153.662	-118.290	-0.155	0.027
-152.647	800.000	0.051	-0.190
-151.633	800.000	-0.027	-0.101
-150.618	237.677	0.041	0.067
-149.604	2.324	0.084	0.059
-148.589	32.047	-0.166	0.140
-147.574	-200.000	0.019	0.119
-146.560	-200.000	0.015	0.234
-145.545	-81.822	0.427	0.137
-144.531	30.736	-0.090	0.075
-143.516	-200.000	-0.032	-0.201
-142.502	-136.842	0.332	0.037
-141.487	58.018	0.125	-0.120
-140.472	800.000	0.051	0.188
-139.458	-0.882	0.276	0.191
-138.443	-200.000	-0.012	-0.192
-137.429	-71.284	0.168	0.062
-136.414	-6.774	0.263	0.175
-135.399	-200.000	0.013	-0.302
-134.385	25.196	-0.058	0.047
-133.370	-200.000	0.016	0.179
-132.356	-200.000	0.016	-0.263
-131.341	-200.000	-0.043	-0.276
-130.326	-43.692	0.436	0.215
-129.312	-47.977	-0.086	0.040
-128.297	36.129	-0.058	-0.050
-127.283	12.251	0.198	0.149
-126.268	-200.000	-0.108	-0.623
-125.253	83.823	-0.348	-0.371
-124.239	172.448	-0.255	0.359
-123.224	-200.000	-0.007	0.277
-122.210	663.947	-0.054	-0.137
-121.195	-154.553	0.301	0.020
-120.180	277.352	-0.158	-0.275
-119.166	125.070	0.227	0.279
-118.151	-200.000	-0.074	0.416
-117.137	-200.000	-0.009	-0.073
-116.122	-144.717	-0.327	-0.029
-115.107	516.123	-0.064	0.146
-114.093	62.908	0.072	0.070
-113.078	406.151	-0.076	0.157
-112.064	64.325	0.079	-0.078
-111.049	-200.000	0.003	-0.172
-110.034	-57.456	-0.224	-0.096
-109.020	-33.753	0.121	0.065
-108.005	-18.236	-0.394	-0.240
-106.991	99.497	-0.121	0.136
-105.976	47.434	0.131	-0.120
-104.962	688.090	-0.156	-0.397
-103.947	-46.031	-0.037	-0.018
-102.932	-105.032	0.163	-0.036
-101.918	11.337	0.202	-0.151
-100.903	-131.113	0.170	-0.022
-99.889	83.698	0.062	0.066
-98.874	258.550	-0.077	-0.130
-97.859	127.146	0.092	-0.114
-96.845	-154.069	-0.115	0.008
-95.830	-25.874	0.279	-0.160
-94.816	800.000	-0.119	-0.416
-93.801	-71.534	0.117	-0.043
-92.786	105.231	0.142	-0.163
-91.772	97.259	0.120	0.135
-90.757	773.073	-0.036	0.096
-89.743	-200.000	-0.014	-0.137
-88.728	800.000	0.037	0.110
-87.713	-67.037	-0.300	0.115
-86.699	-110.840	0.159	-0.032
-85.684	-200.000	-0.002	0.014
-84.670	136.339	0.194	-0.246
-83.655	-200.000	0.011	-0.104
-82.640	-61.212	-0.129	0.053
-81.626	-200.000	-0.047	0.254
-80.611	569.278	-0.155	0.369
-79.597	109.823	0.069	-0.081
-78.582	-200.000	-0.027	-0.218
-77.567	-110.233	0.161	-0.033
-76.553	-200.000	-0.006	0.053
-75.538	51.032	-0.039	-0.036
-74.524	-41.964	0.493	-0.246
-73.509	800.000	0.138	-0.450
-72.494	769.540	0.065	-0.173
-71.480	-200.000	-0.017	-0.147
-70.465	-12.186	-0.332	0.212
-69.451	-39.476	0.154	0.079
-68.436	-46.723	-0.201	0.096
-67.422	380.115	0.110	0.219
-66.407	-107.800	0.199	-0.042
-65.392	-66.249	0.112	-0.044
-64.378	120.422	0.125	0.151
-63.363	-200.000	0.022	-0.101
-62.349	-13.258	0.156	0.099
-61.334	89.414	-1.096	-1.190
-60.319	53.292	0.690	0.644
-59.305	373.729	-0.741	-1.469
-58.290	269.879	0.663	1.135
-57.276	800.000	0.481	1.457
-56.261	-200.000	121.814	616.086
-55.246	386.498	1568.721	3155.680
-54.232	139.945	2752.589	3534.140
-53.217	88.666	2327.498	2520.454
-52.203	33.093	1930.214	1629.643
-51.188	26.954	1721.798	1406.225
-50.173	24.839	1681.348	1357.118
-49.159	44.911	1748.280	1567.446
-48.144	43.049	1760.712	1564.092
-47.130	26.550	1712.111	1394.979
-46.115	24.090	1696.468	1363.374
-45.100	23.884	1692.139	1358.264
-44.086	23.936	1688.983	1356.076
-43.071	23.897	1686.862	1354.023
-42.057	23.812	1684.298	1351.262
-41.042	23.902	1682.164	1350.177
-40.027	23.958	1680.246	1349.015
-39.013	23.862	1678.109	1346.514
-37.998	23.855	1676.982	1345.502
-36.984	23.827	1675.772	1344.266
-35.969	23.938	1674.293	1343.871
-34.954	23.985	1672.620	1342.823
-33.940	23.919	1670.857	1340.859
-32.925	24.033	1668.964	1340.142
-31.911	24.028	1667.416	1338.812
-30.896	24.020	1665.637	1337.268
-29.881	24.014	1664.159	1335.988
-28.867	24.069	1662.153	1334.734
-27.852	23.974	1661.261	1333.250
-26.838	24.126	1659.135	1332.632
-25.823	23.986	1658.300	1330.865
-24.809	24.037	1657.515	1330.560
-23.794	24.127	1655.275	1329.377
-22.779	24.092	1654.077	1328.103
-21.765	24.057	1652.522	1326.540
-20.750	23.930	1650.838	1324.195
-19.736	24.000	1649.716	1323.760
-18.721	24.070	1648.092	1322.923
-17.706	23.876	1647.179	1320.696
-16.692	24.029	1645.060	1320.079
-15.677	23.997	1643.421	1318.475
-14.663	24.056	1642.259	1317.934
-13.648	24.094	1641.078	1317.214
-12.633	24.038	1639.528	1315.504
-11.619	23.931	1637.827	1313.293
-10.604	24.103	1635.530	1312.669
-9.590	23.988	1634.921	1311.279
-8.575	24.035	1633.871	1310.731
-7.560	24.128	1632.082	1309.931
-6.546	23.983	1631.392	1308.257
-5.531	24.036	1630.556	1307.921
-4.517	23.969	1629.571	1306.589
-3.502	24.042	1628.178	1305.956
-2.487	24.121	1626.434	1305.087
-1.473	23.906	1613.937	1293.446
-0.458	21.298	1594.734	1259.229
0.556	16.811	1596.747	1229.272
1.571	14.585	1621.396	1231.725
2.586	14.339	1633.114	1238.691
3.600	13.333	1578.473	1189.903
4.615	7.547	1469.338	1068.691
5.629	1.852	1409.244	988.052
6.644	0.780	1401.860	975.868
7.659	0.634	1400.791	974.097
8.673	0.660	1400.062	973.673
9.688	0.696	1397.924	972.333
10.702	0.475	1394.509	968.450
11.717	3.284	1398.310	989.066
12.731	10.078	1408.560	1040.059
13.746	15.480	1415.941	1080.265
14.761	16.972	1418.449	1091.697
15.775	16.634	1416.566	1087.978
16.790	15.641	1413.721	1079.319
17.804	14.810	1411.341	1072.077
18.819	14.544	1409.608	1068.960
19.834	14.230	1408.727	1066.191
20.848	14.033	1407.054	1063.569
21.863	13.799	1405.787	1061.022
22.877	13.581	1404.947	1058.898
23.892	13.425	1403.943	1057.053
24.907	13.496	1403.214	1056.866
25.921	13.545	1402.084	1056.232
26.936	13.468	1401.321	1055.071
27.950	13.603	1400.439	1055.174
28.965	13.585	1399.193	1054.028
29.980	13.666	1398.418	1053.868
30.994	13.751	1397.408	1053.550
32.009	13.742	1396.275	1052.546
33.023	13.773	1395.208	1051.844
34.038	13.616	1394.222	1050.018
35.053	13.718	1392.410	1049.201
36.067	13.620	1391.635	1047.907
37.082	13.658	1390.882	1047.484
38.096	13.682	1389.728	1046.678
39.111	13.695	1388.920	1046.059
40.126	13.516	1388.525	1044.537
41.140	13.503	1387.726	1043.760
42.155	13.564	1386.822	1043.375
43.169	13.524	1387.114	1043.251
44.184	13.491	1386.806	1042.717
45.199	13.472	1386.053	1041.942
46.213	13.586	1385.161	1041.894
47.228	13.654	1383.956	1041.324
48.242	13.625	1383.085	1040.393
49.257	13.571	1381.688	1038.910
50.271	13.639	1380.186	1038.118
51.286	13.630	1378.689	1036.840
52.301	13.585	1377.425	1035.520
53.315	13.632	1376.467	1035.000
54.330	13.690	1375.215	1034.331
55.344	13.601	1374.141	1032.873
56.359	13.592	1372.916	1031.810
57.374	13.573	1372.124	1031.004
58.388	13.519	1371.613	1030.193
59.403	13.480	1370.955	1029.366
60.417	13.468	1369.811	1028.341
61.432	13.494	1368.957	1027.771
62.447	13.518	1367.676	1026.861
63.461	13.514	1366.669	1025.990
64.476	13.432	1365.874	1024.796
65.490	13.459	1364.641	1023.952
66.505	13.501	1362.478	1022.492
67.520	13.396	1361.547	1021.058
68.534	13.650	1359.929	1021.322
69.549	13.482	1359.524	1019.892
70.563	13.424	1358.436	1018.630
71.578	13.371	1357.325	1017.374
72.593	13.400	1356.276	1016.681
73.607	13.400	1355.808	1016.235
74.622	13.384	1354.907	1015.377
75.636	13.383	1353.929	1014.549
76.651	13.391	1353.188	1013.950
77.666	13.464	1352.349	1013.680
78.680	13.388	1351.916	1012.801
79.695	13.415	1351.460	1012.531
80.709	13.518	1350.172	1012.110
81.724	13.489	1348.963	1010.934
82.739	13.531	1348.303	1010.606
83.753	13.592	1347.174	1010.044
84.768	13.641	1346.033	1009.400
85.782	13.629	1345.108	1008.541
86.797	13.521	1343.481	1006.578
87.812	13.583	1342.079	1005.815
88.826	13.548	1341.140	1004.805
89.841	13.514	1340.301	1003.883
90.855	13.575	1339.273	1003.397
91.870	13.705	1337.997	1003.136
92.884	13.592	1337.694	1002.139
93.899	13.641	1336.313	1001.310
94.914	13.704	1335.713	1001.152
95.928	13.710	1335.096	1000.640
96.943	13.700	1333.859	999.559
97.957	13.691	1333.274	998.983
98.972	13.733	1331.850	998.074
99.987	13.700	1331.065	997.203
101.001	13.652	1330.006	996.035
102.016	13.695	1328.795	995.298
103.030	13.607	1328.245	994.267
104.045	13.752	1326.949	994.081
105.060	13.641	1325.882	992.524
106.074	13.557	1324.338	990.779
107.089	13.586	1322.973	989.844
108.103	13.589	1321.842	988.927
109.118	13.576	1320.504	987.761
110.133	13.540	1318.989	986.328
111.147	13.536	1318.183	985.612
112.162	13.657	1316.632	985.086
113.176	13.676	1315.217	984.056
114.191	13.651	1314.355	983.175
115.206	13.587	1313.459	982.039
116.220	13.663	1311.652	981.050
117.235	13.593	1310.883	979.975
118.249	13.625	1309.644	979.150
119.264	13.587	1308.339	977.865
120.279	13.610	1307.884	977.569
121.293	13.666	1306.550	976.819
122.308	13.593	1305.570	975.572
123.322	13.632	1304.089	974.604
124.337	13.542	1303.357	973.442
125.352	13.505	1302.416	972.436
126.366	13.468	1301.490	971.445
127.381	13.503	1300.178	970.581
128.395	13.534	1298.833	969.676
129.410	13.511	1298.051	968.870
130.424	13.592	1296.875	968.380
131.439	13.563	1295.897	967.393
132.454	13.607	1295.035	966.923
133.468	13.564	1294.271	966.018
134.483	13.663	1293.218	965.723
135.497	13.587	1292.761	964.854
136.512	13.649	1290.866	963.711
137.527	13.575	1289.830	962.425
138.541	13.547	1288.397	961.109
139.556	13.575	1287.320	960.381
140.570	13.571	1286.195	959.435
141.585	13.607	1284.987	958.657
142.600	13.620	1283.781	957.749
143.614	13.685	1283.031	957.479
144.629	13.778	1281.994	957.153
145.643	13.722	1280.733	955.808
146.658	13.805	1279.222	955.071
147.673	13.721	1277.682	953.353
148.687	13.675	1276.848	952.383
149.702	13.777	1275.214	951.667
150.716	13.694	1274.108	950.281
151.731	13.671	1273.696	949.760
152.746	13.657	1272.414	948.640
153.760	13.639	1270.995	947.390
154.775	13.819	1269.742	947.405
155.789	13.854	1268.004	946.222
156.804	13.847	1267.528	945.740
157.819	13.769	1266.175	944.205
158.833	13.855	1265.344	943.994
159.848	13.987	1264.145	943.763
160.862	14.026	1262.907	942.977
161.877	13.820	1262.131	941.143
162.892	13.854	1260.995	940.408
163.906	13.827	1260.412	939.740
164.921	13.825	1259.359	938.856
165.935	13.839	1258.403	938.144
166.950	13.916	1257.250	937.631
167.964	13.921	1256.642	937.124
168.979	13.818	1256.505	936.360
169.994	13.926	1255.450	936.097
171.008	13.955	1254.803	935.694
172.023	13.998	1253.441	934.842
173.037	14.020	1252.555	934.223
174.052	14.087	1251.708	933.882
175.067	13.958	1250.582	932.234
176.081	13.872	1250.023	931.253
177.096	13.947	1249.124	930.921
178.110	13.941	1247.697	929.745
179.125	14.005	1246.230	928.925
180.140	14.110	1245.234	928.688
181.154	13.979	1244.074	927.012
182.169	14.055	1242.750	926.366
183.183	14.053	1241.638	925.442
184.198	14.175	1240.398	925.116
185.213	14.155	1239.157	923.997
186.227	14.242	1238.196	923.682
187.242	14.209	1237.188	922.663
188.256	14.143	1236.270	921.535
189.271	14.299	1234.835	921.243
190.286	14.088	1234.535	919.773
191.300	14.113	1233.624	919.147
192.315	14.077	1232.894	918.324
193.329	13.994	1232.418	917.433
194.344	14.159	1231.448	917.540
195.359	14.228	1230.868	917.407
196.373	14.192	1230.351	916.739
197.388	14.292	1229.961	916.917
198.402	14.312	1229.179	916.363
199.417	14.343	1228.474	915.928
200.432	14.401	1227.738	915.618
201.446	14.383	1226.982	914.873
202.461	14.518	1225.717	914.592
203.475	14.367	1224.723	912.942
204.490	14.522	1223.470	912.773
205.504	14.427	1222.413	911.387
206.519	14.384	1221.244	910.201
207.534	14.376	1220.066	909.198
208.548	14.449	1218.773	908.552
209.563	14.469	1218.550	908.414
210.577	14.493	1217.105	907.387
211.592	14.474	1216.496	906.750
212.607	14.562	1215.640	906.508
213.621	14.565	1215.326	906.208
214.636	14.449	1214.135	904.613
215.650	14.537	1212.966	904.140
216.665	14.533	1212.413	903.625
217.680	14.629	1211.118	903.101
218.694	14.680	1210.149	902.573
219.709	14.683	1209.293	901.872
220.723	14.713	1208.503	901.360
221.738	14.729	1207.704	900.776
222.753	14.693	1207.437	900.298
223.767	14.606	1206.658	899.174
224.782	14.735	1205.934	899.247
225.796	14.737	1205.535	898.878
226.811	14.750	1204.740	898.279
227.826	14.690	1203.767	897.150
228.840	14.730	1202.999	896.715
229.855	14.765	1202.297	896.300
230.869	14.775	1201.623	895.773
231.884	14.751	1200.559	894.768
232.899	14.855	1199.423	894.403
233.913	14.665	1199.692	893.505
234.928	14.660	1198.723	892.680
235.942	14.716	1198.057	892.402
236.957	14.713	1196.830	891.392
237.972	14.737	1196.270	891.027
238.986	14.762	1195.399	890.429
240.001	14.772	1194.829	889.983
241.015	14.775	1193.913	889.236
242.030	14.805	1192.957	888.604
243.045	14.857	1192.154	888.204
244.059	14.889	1191.367	887.708
245.074	14.964	1190.184	887.146
246.088	14.968	1189.949	886.913
247.103	14.967	1188.678	885.884
248.117	14.987	1188.357	885.674
249.132	15.041	1187.407	885.169
250.147	15.038	1186.878	884.682
251.161	15.148	1185.644	884.263
252.176	15.124	1185.375	883.856
253.190	15.221	1184.764	883.836
254.205	15.149	1183.906	882.740
255.220	15.121	1183.756	882.400
256.234	15.203	1183.095	882.262
257.249	15.291	1181.983	881.817
258.263	15.230	1181.220	880.851
259.278	15.301	1180.357	880.501
260.293	15.321	1179.739	880.065
261.307	15.276	1179.377	879.484
262.322	15.303	1178.616	878.978
263.336	15.337	1178.115	878.705
264.351	15.314	1177.747	878.236
265.366	15.441	1176.595	877.961
266.380	15.421	1176.008	877.341
267.395	15.432	1174.925	876.511
268.409	15.372	1174.505	875.810
269.424	15.455	1173.537	875.442
270.439	15.399	1173.564	875.096
271.453	15.406	1172.408	874.189
272.468	15.342	1171.502	873.106
273.482	15.483	1170.742	873.193
274.497	15.447	1170.204	872.530
275.512	15.354	1169.601	871.519
276.526	15.399	1168.777	871.059
277.541	15.527	1167.401	870.620
278.555	15.403	1167.167	869.728
279.570	15.488	1166.452	869.558
280.585	15.513	1165.742	869.083
281.599	15.592	1164.362	868.387
282.614	15.621	1163.555	867.855
283.628	15.554	1162.536	866.673
284.643	15.526	1161.785	865.892
285.657	15.619	1160.760	865.530
286.672	15.616	1159.889	864.788
287.687	15.681	1158.808	864.242
288.701	15.674	1158.203	863.678
289.716	15.781	1157.032	863.278
290.730	15.690	1156.400	862.263
291.745	15.744	1155.698	861.936
292.760	15.731	1155.333	861.523
293.774	15.825	1154.533	861.330
294.789	15.778	1154.027	860.637
295.803	15.836	1153.306	860.319
296.818	15.682	1152.851	859.119
297.833	15.827	1151.775	858.982
298.847	15.834	1151.148	858.474
299.862	15.821	1150.669	857.971
300.876	15.785	1149.590	856.909
301.891	16.021	1148.807	857.453
302.906	15.914	1148.273	856.431
303.920	15.947	1147.154	855.691
304.935	15.964	1146.663	855.334
305.949	16.008	1145.951	854.951
306.964	16.051	1145.271	854.585
307.979	16.089	1144.346	854.014
308.993	16.032	1143.909	853.319
310.008	16.194	1142.572	853.066
311.022	16.063	1142.222	852.068
312.037	16.197	1141.078	851.816
313.052	16.025	1140.640	850.546
314.066	16.040	1139.467	849.674
315.081	15.990	1138.831	848.870
316.095	16.031	1137.871	848.286
317.110	16.105	1137.155	848.051
318.125	16.084	1136.625	847.475
319.139	16.190	1135.871	847.368
320.154	16.205	1134.807	846.574
321.168	16.157	1134.364	845.932
322.183	16.113	1134.015	845.372
323.197	16.126	1133.243	844.789
324.212	16.056	1133.001	844.182
325.227	16.110	1132.375	843.910
326.241	16.093	1131.710	843.257
327.256	16.137	1130.815	842.733
328.270	16.295	1129.359	842.363
329.285	16.181	1128.690	841.221
330.300	16.268	1127.642	840.802
331.314	16.225	1126.792	839.879
332.329	16.299	1125.531	839.229
333.343	16.263	1124.781	838.421
334.358	16.204	1124.292	837.688
335.373	16.304	1123.134	837.247
336.387	16.287	1122.304	836.469
337.402	16.383	1121.701	836.423
338.416	16.270	1121.610	835.718
339.431	16.429	1120.226	835.403
340.446	16.389	1119.968	834.937
341.460	16.495	1119.067	834.714
342.475	16.404	1118.187	833.534
343.489	16.459	1117.356	833.111
344.504	16.539	1116.001	832.425
345.519	16.629	1115.081	832.106
346.533	16.709	1114.283	831.832
347.548	16.650	1113.572	830.934
348.562	16.546	1113.025	829.946
349.577	16.600	1112.561	829.790
350.592	16.578	1111.441	828.772
351.606	16.510	1110.844	827.922
352.621	16.665	1110.202	828.126
353.635	16.573	1109.830	827.325
354.650	16.646	1108.865	826.893
355.665	16.586	1108.249	826.066
356.679	16.657	1107.393	825.703
357.694	16.619	1107.295	825.371
358.708	16.746	1106.255	825.142
359.723	16.798	1105.207	824.539
360.738	16.761	1104.994	824.127
361.752	16.688	1104.600	823.406
362.767	16.660	1103.904	822.675
363.781	16.765	1103.012	822.449
364.796	16.758	1102.485	821.949
365.810	16.840	1101.640	821.645
366.825	16.834	1101.566	821.490
367.840	16.892	1100.385	820.816
368.854	16.920	1100.195	820.736
369.869	16.887	1099.336	819.863
370.883	16.940	1098.238	819.227
371.898	16.884	1097.905	818.639
372.913	16.948	1096.912	818.132
373.927	16.911	1096.541	817.605
374.942	16.919	1096.306	817.395
375.956	17.069	1095.328	817.317
376.971	16.991	1094.818	816.491
377.986	16.966	1094.504	816.062
379.000	16.983	1094.010	815.705
380.015	17.092	1093.487	815.765
381.029	17.090	1092.268	814.773
382.044	17.041	1091.643	813.998
383.059	17.115	1091.068	813.854
384.073	17.213	1090.031	813.479
385.088	17.188	1089.003	812.517
386.102	17.207	1088.102	811.865
387.117	17.214	1087.196	811.151
388.132	17.151	1086.620	810.350
389.146	17.183	1085.705	809.748
390.161	17.163	1084.805	808.910
391.175	17.217	1084.107	808.575
392.190	17.347	1083.449	808.629
393.205	17.299	1082.985	807.983
394.219	17.381	1081.951	807.530
395.234	17.325	1081.120	806.575
396.248	17.257	1079.968	805.319
397.263	17.166	1078.938	804.048
398.278	17.195	1078.453	803.757
399.292	17.266	1077.721	803.472
400.307	17.243	1076.971	802.736
401.321	17.275	1076.257	802.285
402.336	17.288	1075.508	801.717
403.350	17.239	1075.048	801.071
404.365	17.346	1074.145	800.830
405.380	17.433	1073.436	800.639
406.394	17.372	1072.567	799.635
407.409	17.498	1071.904	799.659
408.423	17.480	1071.184	798.970
409.438	17.463	1070.512	798.319
410.453	17.421	1069.886	797.584
411.467	17.651	1068.958	797.900
412.482	17.602	1068.553	797.296
413.496	17.591	1067.823	796.629
414.511	17.618	1066.903	795.998
415.526	17.660	1066.499	795.822
416.540	17.797	1066.068	796.071
417.555	17.706	1065.545	795.182
418.569	17.757	1065.281	795.155
419.584	17.590	1064.874	794.002
420.599	17.682	1064.403	794.011
421.613	107.936	1330.856	1486.980
422.628	99.752	1369.629	1487.056
