DTS Sentinel unit serial number:	SN413079Multiplexer serial number:	ORYXHardware model number:	OX4-SRSoftware version number:	ORYX F/W v4.00 Oryx Data Collector v3.7.2.0data status	okinstallation	princeton_trtdifferential loss correction	single-endedforward channel	channel 2reverse channel	N/Adate	2019/09/19time	01:11:35forward acquisition time	60.00reverse acquisition time	0.00gamma	496.2192k internal	0.2353k external	0.2353temperature offset calibration	1.0012default loss term (dB/km)	0.3790temperature slope calibration	1.0000multiplexer offset coefficient	1.0000multiplexer slope coefficient	1.0000fibre end	0.00T internal ref (°C)	21.81T ext. ref 1 (°C)	0.70T ext. ref 2 (°C)	15.27length (m)	temperature (°C)	Stokes	anti-Stokes-747.200	279.159	0.163	-0.289
-746.185	2.135	-0.153	0.110
-745.171	202.802	-0.131	0.201
-744.156	800.000	0.056	0.184
-743.142	-200.000	0.016	0.281
-742.127	-200.000	-0.050	0.235
-741.112	101.138	-0.136	-0.157
-740.098	-200.000	0.026	0.357
-739.083	-110.032	0.229	0.048
-738.069	74.731	0.134	-0.140
-737.054	800.000	-0.036	0.111
-736.039	31.040	-0.125	0.107
-735.025	-200.000	0.073	0.626
-734.010	183.641	-0.174	-0.256
-732.996	70.630	-0.099	0.102
-731.981	443.861	-0.011	-0.023
-730.966	-153.851	-0.130	0.009
-729.952	-81.868	0.108	-0.035
-728.937	-99.249	-0.150	0.038
-727.923	48.440	0.082	0.077
-726.908	-200.000	-0.015	0.155
-725.894	792.321	0.038	0.104
-724.879	187.663	-0.064	-0.095
-723.864	-17.587	-0.154	-0.097
-722.850	82.158	-0.053	-0.057
-721.835	-4.609	-0.314	-0.216
-720.821	-200.000	-0.032	0.148
-719.806	-13.823	0.135	-0.087
-718.791	-93.127	-0.170	-0.047
-717.777	80.178	0.060	0.064
-716.762	-154.248	0.182	0.012
-715.748	800.000	0.031	0.097
-714.733	25.600	-0.010	-0.008
-713.718	-125.196	-0.227	-0.035
-712.704	-70.779	0.210	-0.079
-711.689	-8.896	-0.175	-0.116
-710.675	-200.000	0.017	-0.227
-709.660	800.000	-0.029	-0.097
-708.645	-11.482	-0.095	-0.062
-707.631	-200.000	-0.066	0.303
-706.616	-83.690	-0.111	-0.035
-705.602	75.429	-0.121	0.127
-704.587	86.895	-0.091	0.100
-703.572	-169.412	0.183	-0.007
-702.558	123.383	-0.056	-0.070
-701.543	800.000	-0.113	-0.375
-700.529	-200.000	0.031	-0.205
-699.514	-51.939	0.108	0.050
-698.499	162.181	0.117	-0.163
-697.485	-200.000	0.058	-0.332
-696.470	800.000	0.031	-0.115
-695.456	392.128	0.092	-0.190
-694.441	-129.918	-0.281	-0.038
-693.426	-200.000	-0.019	-0.089
-692.412	-200.000	0.002	-0.437
-691.397	-123.344	0.190	0.030
-690.383	-50.630	-0.370	-0.173
-689.368	-200.000	0.007	-0.166
-688.354	-51.779	0.124	-0.057
-687.339	380.727	0.018	-0.037
-686.324	800.000	0.071	0.210
-685.310	183.932	-0.074	-0.109
-684.295	40.308	-0.153	-0.137
-683.281	-100.748	-0.272	-0.067
-682.266	23.037	0.187	-0.152
-681.251	-200.000	-0.042	0.187
-680.237	-144.876	-0.341	-0.031
-679.222	18.364	-0.046	0.037
-678.208	490.338	-0.157	0.357
-677.193	144.672	-0.181	0.241
-676.178	715.397	-0.086	-0.228
-675.164	800.000	0.030	0.119
-674.149	-130.225	-0.052	-0.007
-673.135	-200.000	0.004	-0.110
-672.120	349.513	-0.079	-0.155
-671.105	-54.401	-0.425	-0.191
-670.091	267.805	0.021	0.036
-669.076	800.000	0.078	-0.242
-668.062	-200.000	-0.031	-0.398
-667.047	-104.330	-0.401	-0.092
-666.032	33.897	-0.084	0.073
-665.018	-31.971	0.090	0.050
-664.003	-200.000	0.085	0.387
-662.989	800.000	0.070	-0.247
-661.974	-82.343	-0.311	0.101
-660.959	-34.034	-0.225	0.123
-659.945	9.381	0.354	0.266
-658.930	-184.088	-0.458	-0.008
-657.916	800.000	-0.101	0.290
-656.901	266.527	-0.074	-0.129
-655.886	-26.729	-0.102	-0.059
-654.872	94.339	0.167	0.188
-653.857	-81.593	-0.135	0.044
-652.843	-96.006	-0.268	0.071
-651.828	800.000	0.089	-0.245
-650.814	-89.712	-0.133	-0.039
-649.799	50.370	-0.095	0.089
-648.784	15.114	-0.183	0.142
-647.770	-200.000	0.031	0.297
-646.755	272.782	0.231	-0.405
-645.741	29.111	-0.104	0.088
-644.726	317.996	0.125	0.234
-643.711	-13.550	-0.099	0.064
-642.697	-119.767	0.308	-0.053
-641.682	-5.934	-0.231	0.157
-640.668	-38.892	0.099	0.052
-639.653	-200.000	-0.004	-0.203
-638.638	83.013	-0.045	-0.049
-637.624	77.853	0.053	0.056
-636.609	90.880	0.235	-0.262
-635.595	-111.198	0.336	0.068
-634.580	56.734	0.151	0.146
-633.565	-200.000	-0.016	0.317
-632.551	-200.000	-0.017	-0.364
-631.536	-200.000	-0.028	0.220
-630.522	-104.261	0.464	0.107
-629.507	37.729	0.048	0.042
-628.492	237.351	-0.227	0.374
-627.478	-175.787	-0.093	0.002
-626.463	141.957	0.086	-0.114
-625.449	588.990	-0.056	0.137
-624.434	-20.368	0.125	0.076
-623.419	-141.306	-0.535	0.054
-622.405	128.479	0.125	0.158
-621.390	-74.795	-0.104	-0.037
-620.376	-146.465	-0.089	0.008
-619.361	105.538	0.195	0.229
-618.346	94.249	0.140	-0.158
-617.332	466.296	0.105	-0.234
-616.317	-200.000	0.013	0.383
-615.303	171.474	0.223	-0.318
-614.288	56.658	0.320	-0.309
-613.273	-87.465	-0.100	-0.030
-612.259	129.605	-0.197	0.250
-611.244	181.853	0.306	0.446
-610.230	151.100	0.044	-0.059
-609.215	12.668	0.051	0.039
-608.201	56.552	0.047	0.045
-607.186	800.000	0.024	0.077
-606.171	800.000	0.084	0.301
-605.157	587.982	0.027	-0.066
-604.142	-3.189	0.242	-0.167
-603.128	-89.349	0.120	-0.035
-602.113	-170.599	-0.259	-0.009
-601.098	-200.000	0.069	-0.323
-600.084	277.968	0.234	0.414
-599.069	-45.845	0.258	0.126
-598.055	578.620	0.131	-0.319
-597.040	-200.000	-0.199	-0.001
-596.025	416.295	-0.087	-0.185
-595.011	-200.000	0.012	-0.064
-593.996	-32.857	0.216	0.119
-592.982	-200.000	0.005	-0.044
-591.967	800.000	-0.056	0.158
-590.952	-200.000	-0.007	0.039
-589.938	747.942	0.097	-0.259
-588.923	-133.986	0.280	0.034
-587.909	800.000	0.120	0.334
-586.894	581.870	-0.069	-0.167
-585.879	171.363	0.174	0.248
-584.865	-121.828	0.155	0.025
-583.850	407.249	-0.158	-0.331
-582.836	19.034	0.236	0.187
-581.821	800.000	0.147	-0.416
-580.806	29.796	-0.183	0.155
-579.792	-200.000	-0.001	0.160
-578.777	-31.933	-0.097	0.054
-577.763	-200.000	0.186	-0.000
-576.748	-200.000	-0.063	-0.297
-575.733	-14.673	-0.017	-0.011
-574.719	800.000	0.070	0.241
-573.704	497.392	-0.058	0.131
-572.690	253.423	-0.146	-0.246
-571.675	-128.605	-0.231	-0.032
-570.661	-183.328	-0.226	-0.004
-569.646	59.312	-0.268	-0.261
-568.631	-94.028	-0.245	0.067
-567.617	-22.680	-0.269	-0.161
-566.602	-122.329	-0.156	0.025
-565.588	800.000	-0.090	-0.277
-564.573	-200.000	-0.033	-0.469
-563.558	800.000	-0.084	0.254
-562.544	738.124	-0.072	-0.191
-561.529	191.378	0.091	-0.136
-560.515	-200.000	0.002	-0.256
-559.500	-37.621	0.079	-0.042
-558.485	-63.597	0.121	0.049
-557.471	-0.444	-0.057	-0.040
-556.456	44.530	-0.060	-0.054
-555.442	205.228	-0.156	0.240
-554.427	133.547	0.225	0.287
-553.412	629.556	-0.138	-0.345
-552.398	-200.000	0.097	-0.493
-551.383	190.167	0.057	-0.084
-550.369	-126.976	-0.374	-0.054
-549.354	-200.000	0.005	-0.092
-548.339	79.698	-0.058	-0.062
-547.325	179.354	-0.181	0.262
-546.310	12.960	-0.113	0.086
-545.296	283.159	-0.184	0.327
-544.281	633.142	0.030	-0.076
-543.266	-128.106	0.267	0.038
-542.252	498.924	-0.060	-0.136
-541.237	27.291	-0.177	-0.147
-540.223	-39.694	-0.057	0.030
-539.208	341.285	-0.222	-0.429
-538.193	-46.919	0.218	-0.105
-537.179	81.282	-0.141	0.151
-536.164	392.961	-0.127	0.261
-535.150	-200.000	0.021	-0.262
-534.135	9.406	0.153	-0.115
-533.121	-8.486	-0.067	0.045
-532.106	91.748	-0.163	0.181
-531.091	-153.895	-0.153	0.010
-530.077	376.555	-0.061	-0.122
-529.062	-172.077	-0.209	-0.007
-528.048	-200.000	0.039	-0.401
-527.033	180.515	-0.127	0.185
-526.018	215.799	-0.208	0.326
-525.004	446.439	-0.133	-0.289
-523.989	-128.361	-0.378	-0.053
-522.975	-3.105	-0.175	-0.121
-521.960	-67.806	-0.276	0.107
-520.945	-91.278	-0.155	-0.044
-519.931	-22.024	0.330	0.198
-518.916	249.520	0.084	-0.140
-517.902	212.934	0.249	-0.388
-516.887	197.006	-0.123	0.185
-515.872	16.376	-0.045	0.035
-514.858	-100.804	0.133	0.032
-513.843	352.534	0.095	-0.186
-512.829	80.966	0.121	-0.129
-511.814	-200.000	0.078	-0.377
-510.799	10.846	0.170	-0.128
-509.785	4.210	0.141	0.102
-508.770	-108.588	0.145	-0.031
-507.756	800.000	-0.074	0.231
-506.741	800.000	0.045	0.161
-505.726	352.531	0.048	-0.094
-504.712	299.894	-0.059	0.108
-503.697	141.411	0.104	0.136
-502.683	800.000	-0.104	-0.308
-501.668	65.177	0.183	0.182
-500.653	-148.108	-0.372	-0.030
-499.639	-45.292	-0.055	-0.027
-498.624	-200.000	0.023	0.287
-497.610	-114.115	0.065	0.012
-496.595	-118.189	-0.089	0.016
-495.581	21.117	0.113	0.090
-494.566	-200.000	-0.167	0.000
-493.551	218.337	0.073	-0.115
-492.537	239.194	-0.036	-0.060
-491.522	-200.000	-0.006	-0.091
-490.508	800.000	0.041	-0.131
-489.493	168.262	0.296	0.416
-488.478	697.902	0.075	0.195
-487.464	426.090	-0.142	-0.302
-486.449	-96.603	-0.229	0.060
-485.435	53.354	-0.086	0.081
-484.420	800.000	-0.124	0.352
-483.405	-76.110	-0.118	-0.041
-482.391	46.185	0.213	0.194
-481.376	800.000	-0.014	-0.047
-480.362	-200.000	0.002	0.162
-479.347	-19.149	0.281	0.172
-478.332	52.293	-0.193	-0.181
-477.318	800.000	-0.111	0.349
-476.303	-14.814	-0.235	-0.149
-475.289	-200.000	0.019	-0.253
-474.274	-200.000	0.032	-0.256
-473.259	-60.876	0.095	0.040
-472.245	203.737	0.157	0.240
-471.230	-39.132	0.222	0.115
-470.216	-43.021	0.240	0.120
-469.201	800.000	-0.111	-0.341
-468.186	800.000	-0.023	-0.097
-467.172	155.692	-0.162	0.220
-466.157	-200.000	-0.016	-0.223
-465.143	-157.607	0.232	-0.014
-464.128	250.016	0.050	-0.084
-463.113	-127.027	0.105	-0.015
-462.099	107.977	-0.161	0.189
-461.084	-200.000	0.023	0.116
-460.070	298.348	0.052	-0.095
-459.055	800.000	0.078	-0.213
-458.040	-51.661	-0.457	-0.210
-457.026	-112.896	0.149	0.029
-456.011	-19.315	-0.072	-0.044
-454.997	-16.439	-0.134	-0.084
-453.982	800.000	-0.031	0.088
-452.968	-120.228	-0.500	0.084
-451.953	800.000	0.046	-0.162
-450.938	-86.064	0.043	-0.013
-449.924	800.000	-0.016	0.058
-448.909	-110.728	-0.192	0.039
-447.895	-77.418	0.069	-0.023
-446.880	465.780	0.221	0.487
-445.865	800.000	-0.010	0.043
-444.851	-200.000	-0.078	0.452
-443.836	118.768	0.054	0.066
-442.822	-200.000	0.002	-0.116
-441.807	-101.652	-0.049	-0.012
-440.792	-48.460	-0.324	0.154
-439.778	-200.000	0.002	0.148
-438.763	-200.000	-0.067	0.374
-437.749	313.306	-0.159	0.294
-436.734	3.529	-0.275	0.198
-435.719	-40.610	0.206	-0.105
-434.705	21.572	0.258	0.207
-433.690	120.575	-0.218	-0.266
-432.676	103.750	0.221	-0.256
-431.661	-103.227	0.129	0.030
-430.646	800.000	-0.045	-0.142
-429.632	-46.370	0.059	-0.028
-428.617	48.318	-0.176	0.163
-427.603	762.645	-0.052	0.139
-426.588	368.061	-0.162	0.323
-425.573	-78.430	0.240	0.081
-424.559	-128.993	0.124	0.017
-423.544	-105.875	-0.090	-0.020
-422.530	-6.964	0.176	-0.118
-421.515	800.000	0.120	-0.476
-420.500	800.000	-0.113	0.315
-419.486	-200.000	0.039	-0.240
-418.471	227.633	-0.141	-0.226
-417.457	-200.000	-0.053	0.238
-416.442	-107.670	-0.171	0.037
-415.428	-90.497	0.187	-0.053
-414.413	174.212	0.185	0.264
-413.398	168.479	-0.141	0.198
-412.384	241.320	0.159	-0.261
-411.369	133.960	-0.130	-0.166
-410.355	-80.798	-0.285	-0.093
-409.340	143.288	-0.082	0.108
-408.325	-50.579	0.033	-0.015
-407.311	66.475	0.088	-0.088
-406.296	150.627	-0.184	0.245
-405.282	329.050	0.045	-0.085
-404.267	-12.181	-0.355	-0.229
-403.252	800.000	-0.130	-0.398
-402.238	-200.000	0.028	0.135
-401.223	19.932	-0.229	-0.181
-400.209	800.000	-0.120	-0.402
-399.194	-59.710	0.148	0.063
-398.179	-96.307	0.193	-0.050
-397.165	800.000	-0.075	0.222
-396.150	-115.451	0.379	-0.070
-395.136	-200.000	-0.035	0.311
-394.121	-27.893	-0.223	-0.127
-393.106	-54.996	0.039	0.017
-392.092	-120.648	-0.176	-0.029
-391.077	-70.843	0.152	0.056
-390.063	264.138	0.118	-0.202
-389.048	3.774	0.124	0.089
-388.033	-117.077	0.218	0.039
-387.019	-11.208	0.222	0.144
-386.004	-58.960	-0.149	-0.063
-384.990	-99.586	-0.040	0.010
-383.975	-74.141	-0.121	0.043
-382.960	-97.136	-0.126	-0.032
-381.946	800.000	-0.022	0.088
-380.931	128.870	-0.217	-0.272
-379.917	156.619	-0.199	0.270
-378.902	123.806	-0.169	0.208
-377.888	-45.627	0.223	-0.108
-376.873	35.309	-0.245	0.211
-375.858	57.575	-0.223	-0.214
-374.844	89.142	0.168	0.184
-373.829	355.328	0.073	0.143
-372.815	17.335	-0.308	-0.240
-371.800	3.110	0.399	-0.285
-370.785	101.422	0.149	-0.170
-369.771	800.000	0.055	0.201
-368.756	-200.000	0.014	0.257
-367.742	-200.000	0.023	0.344
-366.727	-93.622	-0.424	0.115
-365.712	690.851	-0.121	-0.312
-364.698	-37.898	0.218	-0.114
-363.683	800.000	0.071	0.265
-362.669	-200.000	0.036	0.267
-361.654	-200.000	-0.011	0.069
-360.639	-64.081	0.404	-0.162
-359.625	-27.448	-0.363	-0.207
-358.610	-131.719	-0.171	0.022
-357.596	-200.000	-0.023	0.385
-356.581	-115.020	0.156	-0.029
-355.566	-97.937	-0.127	-0.032
-354.552	-6.858	-0.038	-0.025
-353.537	800.000	-0.061	0.174
-352.523	141.264	0.128	-0.166
-351.508	-129.970	0.185	-0.025
-350.493	-76.179	-0.230	-0.080
-349.479	-81.792	0.233	0.075
-348.464	618.518	-0.125	0.308
-347.450	-70.368	-0.134	-0.050
-346.435	-99.827	0.462	0.113
-345.420	-200.000	-0.011	-0.062
-344.406	800.000	-0.052	0.160
-343.391	-200.000	0.009	0.048
-342.377	-187.049	-0.265	-0.004
-341.362	800.000	-0.045	-0.135
-340.348	-200.000	-0.007	0.063
-339.333	-44.357	0.115	-0.057
-338.318	-46.724	-0.265	0.127
-337.304	341.287	-0.140	-0.269
-336.289	95.700	-0.072	0.081
-335.275	-59.327	-0.186	-0.078
-334.260	800.000	-0.137	-0.532
-333.245	197.611	0.192	-0.288
-332.231	-29.253	0.232	0.130
-331.216	-113.076	-0.199	0.039
-330.202	13.147	0.110	-0.084
-329.187	800.000	0.029	-0.107
-328.172	800.000	-0.070	0.191
-327.158	58.443	0.214	-0.206
-326.143	-43.983	-0.148	0.073
-325.129	46.140	-0.290	0.263
-324.114	28.143	0.214	0.177
-323.099	-142.883	0.275	0.026
-322.085	-200.000	-0.092	0.000
-321.070	-200.000	0.024	-0.225
-320.056	-200.000	0.033	-0.160
-319.041	-33.660	0.350	-0.190
-318.026	256.241	0.182	0.307
-317.012	24.166	-0.196	0.159
-315.997	-200.000	0.013	-0.081
-314.983	-200.000	0.013	-0.068
-313.968	-190.083	0.259	-0.003
-312.953	-21.869	0.199	-0.119
-311.939	61.045	-0.115	0.112
-310.924	-107.794	0.186	0.040
-309.910	574.207	-0.056	-0.134
-308.895	-112.161	-0.236	0.047
-307.880	-23.632	-0.377	0.222
-306.866	-200.000	-0.395	0.000
-305.851	-98.508	0.311	-0.078
-304.837	800.000	0.036	-0.154
-303.822	-200.000	-0.009	-0.170
-302.807	133.101	0.130	0.164
-301.793	-200.000	-0.068	0.382
-300.778	-65.642	0.273	-0.107
-299.764	-200.000	0.012	0.178
-298.749	-96.759	-0.485	-0.125
-297.735	-73.546	-0.306	-0.109
-296.720	-23.860	0.175	-0.103
-295.705	-200.000	-0.030	-0.131
-294.691	-200.000	0.078	0.508
-293.676	-15.262	-0.196	-0.123
-292.662	800.000	0.058	-0.235
-291.647	317.432	-0.111	0.206
-290.632	-187.285	0.153	0.002
-289.618	800.000	-0.067	0.276
-288.603	-20.688	-0.107	-0.064
-287.589	-118.471	0.165	-0.029
-286.574	549.116	0.041	0.097
-285.559	159.059	-0.241	-0.328
-284.545	156.415	-0.198	-0.267
-283.530	212.851	-0.083	-0.128
-282.516	514.379	-0.072	-0.164
-281.501	-142.745	0.435	0.042
-280.486	39.487	-0.227	0.199
-279.472	120.814	-0.152	0.185
-278.457	-21.027	-0.218	0.130
-277.443	-46.086	0.162	-0.078
-276.428	580.670	0.104	0.250
-275.413	-30.725	0.246	0.136
-274.399	-40.490	-0.242	-0.123
-273.384	-147.578	0.216	-0.018
-272.370	-140.260	0.202	-0.021
-271.355	-54.463	-0.303	-0.135
-270.340	455.873	-0.050	-0.108
-269.326	800.000	-0.031	-0.108
-268.311	-84.940	-0.175	-0.054
-267.297	-69.477	-0.104	-0.039
-266.282	-143.424	0.207	0.019
-265.267	-200.000	-0.023	-0.162
-264.253	-200.000	0.025	0.268
-263.238	-107.957	0.204	-0.043
-262.224	-200.000	0.025	0.137
-261.209	-66.582	0.194	-0.075
-260.195	-6.104	0.169	0.113
-259.180	74.605	-0.166	-0.171
-258.165	-32.443	0.164	0.089
-257.151	-200.000	0.018	0.103
-256.136	-118.302	0.390	0.068
-255.122	161.753	0.051	-0.070
-254.107	232.391	0.156	-0.251
-253.092	-57.939	0.169	-0.072
-252.078	247.431	0.135	-0.223
-251.063	-200.000	-0.028	-0.403
-250.049	487.972	-0.030	-0.068
-249.034	-200.000	0.033	0.480
-248.019	296.117	0.047	-0.085
-247.005	344.510	-0.063	0.121
-245.990	16.511	0.109	-0.084
-244.976	227.845	0.121	-0.192
-243.961	-61.038	0.205	-0.085
-242.946	5.126	0.262	-0.188
-241.932	313.920	-0.151	-0.278
-240.917	-200.000	-0.022	-0.200
-239.903	-200.000	-0.006	0.074
-238.888	429.672	0.063	0.134
-237.873	251.488	0.162	0.270
-236.859	-45.009	-0.159	0.077
-235.844	247.977	-0.230	-0.380
-234.830	-200.000	0.023	0.180
-233.815	105.017	0.046	0.053
-232.800	-8.223	0.121	0.079
-231.786	-106.021	-0.027	-0.006
-230.771	-69.175	-0.208	0.078
-229.757	-200.000	-0.026	0.264
-228.742	-170.887	0.088	0.003
-227.727	-36.754	0.174	-0.091
-226.713	415.045	-0.081	0.168
-225.698	31.765	-0.202	0.170
-224.684	28.289	0.142	0.117
-223.669	-106.834	-0.187	-0.041
-222.655	-87.446	0.231	-0.068
-221.640	-200.000	-0.034	-0.361
-220.625	-69.729	-0.413	-0.154
-219.611	800.000	0.033	-0.096
-218.596	245.109	0.146	-0.239
-217.582	264.095	-0.234	0.398
-216.567	16.510	0.168	0.130
-215.552	158.132	-0.019	0.026
-214.538	-55.403	0.190	-0.083
-213.523	477.818	-0.015	-0.033
-212.509	211.041	-0.121	0.185
-211.494	-29.936	-0.037	-0.020
-210.479	800.000	-0.013	0.048
-209.465	105.276	0.120	0.138
-208.450	-70.486	-0.024	-0.009
-207.436	64.620	0.091	-0.090
-206.421	0.612	0.414	-0.289
-205.406	202.747	-0.125	-0.189
-204.392	458.239	-0.021	0.046
-203.377	-50.416	0.293	0.135
-202.363	632.339	0.104	-0.258
-201.348	262.432	0.120	-0.203
-200.333	-27.286	0.293	-0.166
-199.319	-200.000	-0.060	0.334
-198.304	800.000	0.070	0.214
-197.290	-200.000	0.003	-0.227
-196.275	350.760	0.115	0.222
-195.260	10.533	0.208	-0.155
-194.246	-200.000	0.084	-0.360
-193.231	-179.981	-0.055	0.001
-192.217	800.000	0.051	0.205
-191.202	-200.000	-0.035	0.236
-190.187	30.385	0.241	0.200
-189.173	-109.441	0.124	0.026
-188.158	58.547	-0.425	0.407
-187.144	-12.315	0.085	0.054
-186.129	-47.433	-0.026	0.012
-185.114	800.000	0.106	-0.322
-184.100	-50.062	-0.229	0.106
-183.085	-123.213	-0.234	0.037
-182.071	456.057	0.024	0.052
-181.056	-129.640	-0.096	-0.013
-180.042	800.000	-0.069	0.214
-179.027	800.000	0.071	-0.238
-178.012	-30.770	-0.086	0.048
-176.998	235.983	-0.136	-0.220
-175.983	-134.334	-0.105	-0.013
-174.969	-120.442	0.341	0.056
-173.954	60.993	0.101	0.098
-172.939	338.588	0.095	-0.181
-171.925	-148.964	0.414	-0.032
-170.910	-96.958	-0.011	0.003
-169.896	-41.493	-0.272	-0.137
-168.881	310.124	-0.090	0.163
-167.866	800.000	-0.020	-0.077
-166.852	-3.190	-0.035	-0.024
-165.837	-73.535	-0.552	-0.196
-164.823	-200.000	0.048	-0.332
-163.808	-39.387	0.238	0.122
-162.793	539.140	0.051	0.119
-161.779	-200.000	0.055	-0.240
-160.764	350.674	0.036	-0.069
-159.750	-59.120	0.231	-0.097
-158.735	800.000	-0.059	0.166
-157.720	-200.000	-0.027	0.154
-156.706	-138.873	-0.265	0.028
-155.691	800.000	-0.071	0.274
-154.677	230.289	0.173	0.276
-153.662	45.926	0.063	-0.057
-152.647	-200.000	0.005	0.112
-151.633	-200.000	-0.013	-0.417
-150.618	-200.000	0.000	-0.097
-149.604	-7.185	0.328	-0.217
-148.589	50.103	0.202	-0.185
-147.574	-200.000	-0.018	-0.105
-146.560	800.000	-0.049	0.155
-145.545	-63.225	0.384	0.154
-144.531	800.000	0.108	0.458
-143.516	105.812	0.084	0.097
-142.502	-200.000	-0.007	0.125
-141.487	94.447	-0.269	-0.297
-140.472	-75.027	0.133	-0.046
-139.458	121.175	-0.110	-0.133
-138.443	-200.000	0.001	0.242
-137.429	-143.631	0.095	-0.009
-136.414	-136.677	-0.179	-0.020
-135.399	308.288	0.106	-0.193
-134.385	-184.307	-0.414	0.007
-133.370	-66.746	0.510	0.196
-132.356	224.635	-0.115	0.181
-131.341	34.867	0.124	-0.105
-130.326	-200.000	0.001	-0.146
-129.312	424.376	-0.035	-0.074
-128.297	434.460	0.033	-0.069
-127.283	-89.804	0.300	-0.085
-126.268	-26.429	-0.247	0.141
-125.253	-122.015	0.213	-0.034
-124.239	418.876	0.025	0.052
-123.224	-65.518	0.332	-0.130
-122.210	265.718	0.159	0.271
-121.195	800.000	0.026	0.103
-120.180	30.961	0.253	0.211
-119.166	493.904	-0.102	0.227
-118.151	-200.000	0.079	-0.532
-117.137	-78.514	0.186	0.062
-116.122	43.427	-0.260	-0.231
-115.107	41.578	-0.174	-0.153
-114.093	-78.278	0.328	-0.110
-113.078	-92.499	-0.210	-0.057
-112.064	-200.000	-0.134	-0.000
-111.049	-200.000	-0.002	0.072
-110.034	-143.635	0.403	-0.037
-109.020	-141.136	0.178	0.018
-108.005	800.000	-0.109	-0.300
-106.991	-29.663	0.257	0.142
-105.976	81.468	0.059	-0.062
-104.962	153.213	-0.128	0.171
-103.947	-93.552	-0.107	-0.029
-102.932	-53.022	-0.002	-0.001
-101.918	168.676	-0.077	0.106
-100.903	-163.762	-0.056	-0.003
-99.889	286.895	0.220	-0.387
-98.874	-2.007	0.230	0.157
-97.859	-29.356	0.062	0.035
-96.845	800.000	0.066	-0.188
-95.830	27.174	-0.090	0.073
-94.816	-200.000	0.018	0.365
-93.801	-200.000	0.064	-0.307
-92.786	-200.000	-0.001	-0.134
-91.772	-200.000	0.052	0.279
-90.757	15.783	-0.338	-0.258
-89.743	207.828	0.087	0.132
-88.728	-56.616	0.260	-0.112
-87.713	800.000	-0.087	-0.342
-86.699	538.579	-0.024	0.056
-85.684	-37.622	0.152	0.079
-84.670	-83.150	0.329	-0.103
-83.655	-93.895	0.129	0.034
-82.640	130.395	-0.349	0.434
-81.626	41.377	0.145	-0.127
-80.611	-200.000	-0.001	-0.098
-79.597	-200.000	-0.013	0.219
-78.582	33.308	-0.084	-0.071
-77.567	-175.778	-0.327	-0.009
-76.553	-102.190	-0.086	0.020
-75.538	349.729	0.054	-0.103
-74.524	-200.000	0.003	-0.348
-73.509	776.790	-0.044	-0.117
-72.494	-12.317	0.170	0.108
-71.480	-95.499	0.111	-0.029
-70.465	800.000	-0.091	0.293
-69.451	420.643	-0.160	0.332
-68.436	-200.000	-0.027	-0.338
-67.422	-200.000	-0.049	0.351
-66.407	227.749	0.060	-0.094
-65.392	-121.696	0.078	0.013
-64.378	-109.240	0.115	-0.024
-63.363	-54.190	-0.145	0.064
-62.349	-200.000	0.018	-0.120
-61.334	12.948	-1.486	-1.115
-60.319	124.286	0.556	0.678
-59.305	196.537	-0.777	-1.149
-58.290	197.076	0.857	1.268
-57.276	800.000	0.486	1.430
-56.261	-200.000	134.570	687.412
-55.246	355.998	1666.303	3219.379
-54.232	134.364	2812.095	3537.834
-53.217	86.067	2306.812	2463.775
-52.203	30.828	1901.658	1580.096
-51.188	24.873	1696.308	1364.182
-50.173	22.774	1658.540	1318.101
-49.159	45.071	1732.456	1548.439
-48.144	42.111	1741.715	1534.026
-47.130	24.429	1691.904	1357.047
-46.115	21.906	1676.456	1325.567
-45.100	21.744	1671.212	1320.153
-44.086	21.654	1668.919	1317.607
-43.071	21.641	1666.618	1315.641
-42.057	21.581	1664.674	1313.609
-41.042	21.756	1661.866	1312.648
-40.027	21.691	1660.190	1310.784
-39.013	21.744	1658.356	1309.686
-37.998	21.691	1656.865	1308.056
-36.984	21.719	1655.954	1307.499
-35.969	21.726	1654.443	1306.300
-34.954	21.744	1652.161	1304.585
-33.940	21.728	1650.854	1303.384
-32.925	21.725	1649.285	1302.066
-31.911	21.777	1646.993	1300.596
-30.896	21.752	1645.616	1299.270
-29.881	21.745	1644.181	1298.034
-28.867	21.848	1642.691	1297.564
-27.852	21.740	1641.694	1295.927
-26.838	21.780	1640.106	1294.917
-25.823	21.843	1638.842	1294.333
-24.809	21.910	1637.465	1293.691
-23.794	21.825	1636.531	1292.274
-22.779	21.858	1634.574	1290.924
-21.765	21.800	1633.183	1289.344
-20.750	21.915	1630.706	1288.179
-19.736	21.839	1629.734	1286.803
-18.721	21.963	1628.204	1286.456
-17.706	21.852	1626.994	1284.639
-16.692	21.790	1625.620	1283.047
-15.677	21.797	1624.259	1281.971
-14.663	21.892	1623.176	1281.761
-13.648	21.872	1621.355	1280.122
-12.633	21.822	1619.944	1278.593
-11.619	22.013	1617.881	1278.309
-10.604	21.905	1616.625	1276.481
-9.590	21.846	1615.866	1275.402
-8.575	21.827	1614.207	1273.901
-7.560	21.820	1613.537	1273.274
-6.546	21.880	1611.943	1272.396
-5.531	21.859	1611.185	1271.596
-4.517	21.896	1609.672	1270.621
-3.502	21.765	1609.027	1269.116
-2.487	21.930	1607.238	1268.843
-1.473	21.392	1594.703	1255.034
-0.458	18.290	1575.049	1217.494
0.556	13.595	1577.054	1185.830
1.571	11.377	1601.666	1188.094
2.586	11.208	1613.441	1195.481
3.600	10.493	1559.228	1150.144
4.615	6.056	1454.741	1043.553
5.629	1.509	1398.375	973.949
6.644	0.784	1391.263	964.292
7.659	0.827	1390.139	963.695
8.673	0.621	1389.884	962.123
9.688	0.569	1387.577	960.110
10.702	0.431	1384.091	956.737
11.717	2.874	1386.552	973.867
12.731	9.133	1395.764	1020.110
13.746	15.082	1404.910	1064.638
14.761	17.104	1407.560	1079.420
15.775	16.685	1405.648	1075.198
16.790	15.617	1403.686	1066.826
17.804	15.007	1401.083	1060.891
18.819	14.478	1399.823	1056.486
19.834	14.264	1398.632	1054.144
20.848	14.087	1396.989	1051.689
21.863	13.851	1395.777	1049.194
22.877	13.625	1394.419	1046.654
23.892	13.541	1393.922	1045.657
24.907	13.491	1393.198	1044.707
25.921	13.625	1392.202	1044.710
26.936	13.680	1391.216	1044.228
27.950	13.685	1390.032	1043.273
28.965	13.720	1388.954	1042.597
29.980	13.750	1387.875	1041.882
30.994	13.807	1387.168	1041.615
32.009	13.974	1385.748	1041.504
33.023	13.843	1385.051	1040.064
34.038	13.726	1384.077	1038.508
35.053	13.801	1382.316	1037.563
36.067	13.768	1381.451	1036.621
37.082	13.740	1380.676	1035.773
38.096	13.753	1379.761	1035.077
39.111	13.781	1378.762	1034.409
40.126	13.741	1378.140	1033.600
41.140	13.664	1377.439	1032.501
42.155	13.583	1376.801	1031.427
43.169	13.588	1376.904	1031.445
44.184	13.532	1376.355	1030.598
45.199	13.548	1375.690	1030.109
46.213	13.684	1375.356	1030.609
47.228	13.623	1374.894	1029.796
48.242	13.624	1373.598	1028.737
49.257	13.661	1371.519	1027.320
50.271	13.742	1370.317	1026.828
51.286	13.636	1368.610	1024.802
52.301	13.759	1367.445	1024.603
53.315	13.562	1366.545	1022.619
54.330	13.623	1365.948	1022.458
55.344	13.572	1364.216	1020.758
56.359	13.575	1362.961	1019.749
57.374	13.666	1362.075	1019.553
58.388	13.470	1362.107	1018.282
59.403	13.484	1361.118	1017.540
60.417	13.534	1360.464	1017.269
61.432	13.544	1359.398	1016.440
62.447	13.487	1358.190	1015.096
63.461	13.510	1356.759	1014.083
64.476	13.531	1356.230	1013.721
65.490	13.560	1354.100	1012.217
66.505	13.586	1353.028	1011.490
67.520	13.504	1352.222	1010.292
68.534	13.556	1350.884	1009.521
69.549	13.620	1349.595	1008.860
70.563	13.534	1349.004	1007.803
71.578	13.480	1347.910	1006.570
72.593	13.601	1346.595	1006.237
73.607	13.540	1345.886	1005.247
74.622	13.472	1345.094	1004.154
75.636	13.551	1344.202	1003.879
76.651	13.438	1343.710	1002.734
77.666	13.411	1343.515	1002.335
78.680	13.475	1342.487	1001.867
79.695	13.535	1341.642	1001.513
80.709	13.487	1341.001	1000.655
81.724	13.514	1339.835	999.860
82.739	13.641	1338.762	999.734
83.753	13.592	1337.979	998.769
84.768	13.652	1337.011	998.322
85.782	13.669	1335.859	997.474
86.797	13.694	1334.440	996.476
87.812	13.538	1333.980	995.104
88.826	13.630	1332.300	994.319
89.841	13.584	1330.990	992.976
90.855	13.754	1330.230	993.341
91.870	13.803	1329.400	992.927
92.884	13.693	1328.518	991.518
93.899	13.715	1327.406	990.733
94.914	13.759	1327.111	990.692
95.928	13.757	1325.983	989.744
96.943	13.700	1325.179	988.722
97.957	13.734	1324.639	988.433
98.972	13.745	1322.882	987.098
99.987	13.741	1322.090	986.400
101.001	13.693	1321.240	985.391
102.016	13.751	1319.811	984.580
103.030	13.719	1319.427	984.018
104.045	13.866	1318.287	983.950
105.060	13.769	1316.845	982.216
106.074	13.668	1316.096	980.969
107.089	13.610	1314.452	979.317
108.103	13.567	1313.210	978.049
109.118	13.629	1311.862	977.327
110.133	13.630	1310.193	976.004
111.147	13.725	1308.852	975.476
112.162	13.508	1308.026	973.498
113.176	13.683	1306.703	973.456
114.191	13.650	1305.894	972.575
115.206	13.765	1304.478	972.104
116.220	13.655	1303.059	970.318
117.235	13.730	1302.017	969.897
118.249	13.768	1300.945	969.235
119.264	13.644	1300.285	967.933
120.279	13.709	1298.764	967.093
121.293	13.715	1297.916	966.410
122.308	13.718	1296.856	965.556
123.322	13.607	1295.844	964.066
124.337	13.617	1294.606	963.118
125.352	13.607	1293.572	962.208
126.366	13.647	1292.299	961.410
127.381	13.553	1291.323	960.054
128.395	13.670	1290.051	959.701
129.410	13.659	1289.400	959.064
130.424	13.686	1288.648	958.576
131.439	13.674	1287.594	957.642
132.454	13.661	1286.386	956.582
133.468	13.725	1285.709	956.363
134.483	13.757	1284.834	955.811
135.497	13.708	1284.060	954.870
136.512	13.689	1282.234	953.314
137.527	13.638	1281.014	952.033
138.541	13.707	1279.226	951.015
139.556	13.720	1277.870	949.996
140.570	13.655	1277.421	949.210
141.585	13.862	1275.753	949.068
142.600	13.858	1274.540	948.058
143.614	13.857	1273.909	947.499
144.629	13.889	1272.914	946.855
145.643	13.985	1271.313	946.130
146.658	13.885	1270.508	944.879
147.673	13.865	1269.173	943.689
148.687	13.791	1268.377	942.592
149.702	13.880	1266.629	941.717
150.716	13.844	1265.320	940.456
151.731	13.846	1264.187	939.543
152.746	13.869	1263.047	938.738
153.760	13.909	1262.023	938.125
154.775	13.873	1261.058	937.118
155.789	13.888	1260.070	936.388
156.804	13.890	1258.502	935.148
157.819	14.027	1257.172	934.849
158.833	13.973	1256.991	934.326
159.848	14.156	1255.582	934.224
160.862	13.982	1254.659	932.480
161.877	13.981	1253.603	931.609
162.892	13.849	1252.766	930.162
163.906	13.909	1251.533	929.499
164.921	13.953	1250.552	928.937
165.935	14.057	1249.594	928.725
166.950	14.057	1248.984	928.187
167.964	14.019	1248.130	927.262
168.979	13.962	1247.558	926.432
169.994	14.009	1246.636	925.931
171.008	14.039	1245.919	925.480
172.023	14.073	1245.172	925.034
173.037	14.141	1244.057	924.500
174.052	14.182	1243.351	924.121
175.067	14.076	1242.203	922.603
176.081	14.092	1241.287	921.930
177.096	14.088	1240.597	921.309
178.110	14.169	1239.231	920.663
179.125	14.116	1238.365	919.644
180.140	14.220	1236.544	918.784
181.154	14.134	1235.594	917.523
182.169	14.090	1234.901	916.688
183.183	14.249	1232.982	916.056
184.198	14.269	1231.588	915.047
185.213	14.251	1231.102	914.506
186.227	14.283	1230.231	913.955
187.242	14.361	1228.529	913.039
188.256	14.305	1227.781	912.097
189.271	14.350	1226.756	911.497
190.286	14.247	1225.351	909.810
191.300	14.149	1225.285	909.144
192.315	14.148	1224.307	908.337
193.329	14.128	1224.258	908.109
194.344	14.212	1223.023	907.570
195.359	14.267	1222.362	907.299
196.373	14.245	1221.983	906.815
197.388	14.323	1221.329	906.674
198.402	14.393	1220.834	906.611
199.417	14.459	1220.046	906.305
200.432	14.430	1219.176	905.421
201.446	14.523	1218.566	905.392
202.461	14.524	1217.428	904.471
203.475	14.517	1216.860	903.930
204.490	14.472	1215.240	902.402
205.504	14.484	1214.040	901.500
206.519	14.592	1212.636	900.959
207.534	14.586	1211.545	900.036
208.548	14.452	1210.916	898.766
209.563	14.558	1209.503	898.207
210.577	14.578	1209.067	897.916
211.592	14.693	1207.813	897.519
212.607	14.526	1207.631	896.410
213.621	14.568	1206.643	895.824
214.636	14.526	1205.626	894.764
215.650	14.689	1204.606	894.801
216.665	14.714	1203.466	894.010
217.680	14.615	1202.751	892.870
218.694	14.779	1201.943	893.068
219.709	14.759	1200.895	892.102
220.723	14.774	1200.480	891.793
221.738	14.798	1199.773	891.320
222.753	14.806	1198.752	890.523
223.767	14.812	1198.103	889.995
224.782	14.868	1197.176	889.525
225.796	14.834	1196.549	888.799
226.811	14.846	1196.025	888.394
227.826	14.821	1195.405	887.725
228.840	14.842	1194.372	886.987
229.855	14.962	1193.843	887.152
230.869	14.919	1192.691	885.993
231.884	14.839	1192.454	885.315
232.899	14.819	1191.635	884.523
233.913	14.833	1190.787	883.887
234.928	14.924	1190.217	883.868
235.942	14.814	1188.910	882.238
236.957	14.962	1187.707	882.049
237.972	14.917	1187.602	881.655
238.986	14.947	1186.701	881.065
240.001	14.896	1186.657	880.688
241.015	14.821	1186.211	879.881
242.030	15.009	1184.073	879.206
243.045	14.982	1183.706	878.716
244.059	14.989	1183.026	878.169
245.074	14.951	1182.458	877.469
246.088	15.073	1181.249	877.137
247.103	15.112	1180.483	876.692
248.117	15.098	1179.771	876.010
249.132	15.138	1178.999	875.572
250.147	15.145	1178.565	875.209
251.161	15.304	1177.003	874.798
252.176	15.144	1177.128	873.981
253.190	15.325	1176.050	874.045
254.205	15.417	1175.094	873.737
255.220	15.283	1175.466	873.238
256.234	15.264	1175.062	872.763
257.249	15.360	1173.759	872.216
258.263	15.211	1173.353	871.064
259.278	15.367	1172.689	871.302
260.293	15.386	1171.942	870.768
261.307	15.377	1171.212	870.106
262.322	15.447	1170.337	869.742
263.336	15.466	1170.015	869.525
264.351	15.511	1169.213	869.082
265.366	15.642	1168.469	869.129
266.380	15.476	1168.160	867.966
267.395	15.583	1166.801	867.431
268.409	15.525	1166.738	867.009
269.424	15.480	1165.988	866.140
270.439	15.599	1164.973	865.926
271.453	15.543	1164.365	865.109
272.468	15.528	1163.655	864.425
273.482	15.447	1163.022	863.462
274.497	15.551	1162.136	863.262
275.512	15.622	1161.502	863.079
276.526	15.644	1160.436	862.325
277.541	15.579	1159.938	861.547
278.555	15.715	1159.064	861.517
279.570	15.690	1158.350	860.780
280.585	15.688	1157.719	860.224
281.599	15.788	1156.301	859.605
282.614	15.718	1155.479	858.562
283.628	15.825	1154.273	858.135
284.643	15.744	1153.763	857.267
285.657	15.785	1152.738	856.639
286.672	15.892	1151.528	856.209
287.687	15.892	1150.502	855.369
288.701	15.732	1150.277	854.315
289.716	15.839	1149.428	854.150
290.730	15.860	1148.729	853.661
291.745	15.786	1148.191	852.813
292.760	15.868	1147.532	852.664
293.774	15.908	1147.062	852.441
294.789	15.963	1146.455	852.194
295.803	16.023	1145.564	851.758
296.818	15.841	1145.113	850.426
297.833	15.954	1144.242	850.277
298.847	16.016	1143.271	849.793
299.862	15.983	1142.746	849.162
300.876	16.043	1142.283	849.041
301.891	16.022	1141.258	848.104
302.906	16.042	1140.598	847.635
303.920	16.067	1139.887	847.160
304.935	16.135	1138.798	846.615
305.949	16.211	1138.240	846.505
306.964	16.251	1137.542	846.114
307.979	16.170	1136.856	845.120
308.993	16.098	1136.256	844.241
310.008	16.185	1135.456	844.005
311.022	16.247	1134.459	843.501
312.037	16.271	1133.591	842.902
313.052	16.172	1133.138	841.996
314.066	16.280	1131.811	841.474
315.081	16.162	1131.742	840.760
316.095	16.133	1130.517	839.633
317.110	16.236	1129.342	839.199
318.125	16.233	1129.187	838.990
319.139	16.131	1128.457	837.871
320.154	16.262	1127.485	837.724
321.168	16.197	1127.465	837.314
322.183	16.211	1126.223	836.384
323.197	16.219	1125.610	835.896
324.212	16.413	1124.850	836.218
325.227	16.270	1124.815	835.408
326.241	16.307	1124.097	834.984
327.256	16.356	1122.809	834.198
328.270	16.314	1122.253	833.500
329.285	16.222	1121.546	832.450
330.300	16.413	1120.382	832.454
331.314	16.431	1119.454	831.780
332.329	16.351	1118.319	830.466
333.343	16.383	1117.929	830.261
334.358	16.352	1117.348	829.602
335.373	16.476	1116.033	829.164
336.387	16.585	1114.823	828.724
337.402	16.560	1114.540	828.318
338.416	16.508	1113.854	827.482
339.431	16.495	1113.819	827.320
340.446	16.708	1112.568	827.355
341.460	16.593	1112.311	826.529
342.475	16.625	1111.458	825.978
343.489	16.693	1109.900	825.080
344.504	16.633	1109.327	824.289
345.519	16.730	1108.238	823.877
346.533	16.635	1107.757	822.987
347.548	16.829	1107.062	823.341
348.562	16.841	1106.103	822.614
349.577	16.737	1105.520	821.600
350.592	16.725	1104.729	820.882
351.606	16.759	1104.219	820.595
352.621	16.830	1103.073	820.015
353.635	16.791	1102.727	819.498
354.650	16.758	1101.953	818.688
355.665	16.669	1101.209	817.636
356.679	16.793	1100.452	817.599
357.694	16.929	1100.081	817.908
358.708	16.902	1099.177	817.032
359.723	16.977	1098.710	816.975
360.738	16.776	1098.184	815.541
361.752	16.877	1097.473	815.431
362.767	16.953	1096.682	815.135
363.781	16.861	1096.488	814.474
364.796	16.930	1095.619	814.091
365.810	17.037	1095.270	814.269
366.825	16.998	1094.303	813.294
367.840	17.062	1094.037	813.333
368.854	17.057	1093.080	812.521
369.869	17.070	1092.528	812.102
370.883	17.011	1091.743	811.165
371.898	17.082	1090.902	810.810
372.913	17.197	1090.503	810.987
373.927	17.086	1089.825	809.884
374.942	17.221	1088.814	809.704
375.956	17.036	1089.095	808.958
376.971	17.209	1088.230	809.071
377.986	17.271	1087.519	808.762
379.000	17.306	1086.756	808.292
380.015	17.236	1086.086	807.388
381.029	17.282	1085.793	807.321
382.044	17.335	1085.169	807.033
383.059	17.348	1084.126	806.247
384.073	17.356	1083.253	805.566
385.088	17.381	1082.259	804.873
386.102	17.394	1081.639	804.403
387.117	17.390	1080.354	803.357
388.132	17.335	1079.754	802.580
389.146	17.350	1078.935	801.971
390.161	17.274	1078.924	801.533
391.175	17.332	1077.875	800.955
392.190	17.355	1077.146	800.452
393.205	17.437	1076.138	800.017
394.219	17.533	1075.395	799.845
395.234	17.466	1074.432	798.746
396.248	17.427	1073.693	797.940
397.263	17.455	1072.483	797.104
398.278	17.471	1071.746	796.561
399.292	17.388	1071.500	795.919
400.307	17.362	1070.754	795.173
401.321	17.458	1070.017	795.004
402.336	17.484	1069.165	794.421
403.350	17.464	1068.517	793.774
404.365	17.476	1068.054	793.416
405.380	17.567	1067.101	793.062
406.394	17.544	1066.217	792.228
407.409	17.670	1065.346	792.097
408.423	17.621	1064.784	791.382
409.438	17.749	1064.191	791.464
410.453	17.692	1063.519	790.629
411.467	17.817	1062.517	790.392
412.482	17.760	1062.098	789.748
413.496	17.681	1061.638	788.971
414.511	17.798	1060.837	788.849
415.526	17.846	1060.260	788.569
416.540	17.818	1059.962	788.152
417.555	17.908	1059.228	787.951
418.569	17.927	1058.514	787.435
419.584	17.917	1058.240	787.116
420.599	17.962	1057.818	786.940
421.613	109.876	1331.380	1490.870
422.628	101.397	1371.187	1490.932
