DTS Sentinel unit serial number:	SN413079Multiplexer serial number:	ORYXHardware model number:	OX4-SRSoftware version number:	ORYX F/W v4.00 Oryx Data Collector v3.7.2.0data status	okinstallation	princeton_trtdifferential loss correction	single-endedforward channel	channel 2reverse channel	N/Adate	2019/09/18time	17:59:34forward acquisition time	60.00reverse acquisition time	0.00gamma	496.2192k internal	0.2303k external	0.2303temperature offset calibration	1.0024default loss term (dB/km)	0.3790temperature slope calibration	1.0000multiplexer offset coefficient	1.0000multiplexer slope coefficient	1.0000fibre end	0.00T internal ref (°C)	39.67T ext. ref 1 (°C)	0.93T ext. ref 2 (°C)	31.12length (m)	temperature (°C)	Stokes	anti-Stokes-747.200	-200.000	0.057	-0.398
-746.185	-200.000	-0.060	0.316
-745.171	10.899	0.145	0.113
-744.156	-200.000	-0.043	0.278
-743.142	-132.744	0.451	-0.059
-742.127	39.684	-0.087	-0.080
-741.112	-10.266	0.173	0.117
-740.098	-49.733	-0.139	0.067
-739.083	159.640	0.025	0.036
-738.069	8.928	-0.332	-0.255
-737.054	-120.624	0.209	-0.036
-736.039	-200.000	0.037	0.262
-735.025	7.855	0.239	-0.183
-734.010	-200.000	0.011	0.324
-732.996	-20.551	0.209	-0.131
-731.981	190.648	0.170	-0.260
-730.966	-200.000	0.053	0.279
-729.952	-114.605	0.173	-0.034
-728.937	-200.000	-0.050	0.232
-727.923	35.385	0.025	-0.022
-726.908	-200.000	0.002	-0.050
-725.894	-104.783	0.367	0.086
-724.879	-69.972	-0.338	0.131
-723.864	-75.389	0.131	-0.048
-722.850	9.132	-0.115	-0.088
-721.835	573.563	0.106	-0.262
-720.821	-200.000	-0.011	0.050
-719.806	0.513	-0.212	-0.154
-718.791	-59.509	0.178	-0.078
-717.777	44.264	-0.125	-0.117
-716.762	-147.442	0.352	-0.030
-715.748	800.000	0.050	0.144
-714.733	-105.890	-0.134	0.031
-713.718	-140.082	-0.236	-0.025
-712.704	12.131	-0.135	-0.105
-711.689	800.000	-0.053	-0.210
-710.675	-200.000	0.015	-0.196
-709.660	-154.254	0.126	0.009
-708.645	-133.439	0.204	-0.026
-707.631	-107.054	0.251	-0.056
-706.616	28.325	0.197	-0.169
-705.602	-200.000	0.030	-0.374
-704.587	-19.233	0.156	-0.099
-703.572	800.000	-0.008	0.029
-702.558	800.000	0.124	0.364
-701.543	16.845	-0.126	0.102
-700.529	565.672	-0.029	0.071
-699.514	135.068	0.042	-0.055
-698.499	-200.000	-0.073	-0.365
-697.485	-56.504	-0.309	-0.139
-696.470	-97.058	-0.268	-0.071
-695.456	530.875	-0.014	0.033
-694.441	142.570	-0.055	-0.074
-693.426	-145.669	0.298	-0.027
-692.412	-29.561	-0.182	0.105
-691.397	800.000	-0.038	-0.157
-690.383	232.411	-0.022	-0.037
-689.368	22.453	0.061	-0.051
-688.354	550.712	-0.044	0.107
-687.339	2.258	-0.205	0.151
-686.324	330.973	-0.053	0.103
-685.310	800.000	-0.046	-0.171
-684.295	-200.000	-0.022	-0.259
-683.281	-47.979	-0.301	-0.148
-682.266	348.291	-0.052	0.104
-681.251	175.383	-0.046	-0.067
-680.237	-100.092	-0.308	0.078
-679.222	-93.811	-0.317	-0.089
-678.208	-113.553	-0.179	-0.036
-677.193	-200.000	-0.001	0.324
-676.178	-183.481	-0.321	-0.006
-675.164	-114.396	0.063	-0.012
-674.149	800.000	-0.084	-0.284
-673.135	630.958	0.057	0.148
-672.120	304.843	-0.148	0.280
-671.105	-57.037	-0.103	0.046
-670.091	195.120	-0.292	-0.451
-669.076	-81.988	0.348	0.116
-668.062	377.307	-0.140	-0.292
-667.047	800.000	0.104	-0.422
-666.032	800.000	-0.019	-0.060
-665.018	-31.638	-0.330	0.188
-664.003	211.987	-0.140	0.225
-662.989	343.141	-0.071	0.140
-661.974	-48.462	0.241	-0.118
-660.959	-142.696	-0.396	0.039
-659.945	800.000	-0.021	0.065
-658.930	41.544	-0.257	-0.236
-657.916	-129.688	-0.340	0.048
-656.901	239.435	-0.076	-0.128
-655.886	264.002	-0.180	0.318
-654.872	90.656	0.083	0.094
-653.857	800.000	-0.044	-0.178
-652.843	-39.996	-0.261	-0.138
-651.828	800.000	0.027	0.099
-650.814	-200.000	-0.002	0.042
-649.799	-0.345	-0.185	0.133
-648.784	-25.554	0.253	-0.151
-647.770	180.059	-0.144	0.214
-646.755	-104.273	-0.073	0.017
-645.741	7.903	0.256	-0.195
-644.726	419.146	-0.151	-0.327
-643.711	-33.944	-0.182	0.102
-642.697	-63.346	0.088	0.037
-641.682	-125.571	0.105	0.016
-640.668	301.278	-0.028	-0.053
-639.653	408.368	-0.107	-0.229
-638.638	-131.439	0.066	-0.009
-637.624	-99.633	-0.115	-0.029
-636.609	-15.293	0.287	0.186
-635.595	101.765	0.093	0.110
-634.580	-121.239	0.075	0.013
-633.565	-60.522	-0.149	-0.064
-632.551	478.714	-0.098	0.226
-631.536	800.000	0.016	0.066
-630.522	549.945	-0.015	-0.038
-629.507	324.073	-0.020	0.039
-628.492	30.604	-0.129	0.112
-627.478	18.704	0.208	-0.169
-626.463	-53.915	0.071	-0.033
-625.449	-120.489	0.056	0.010
-624.434	-23.238	0.303	0.185
-623.419	22.862	-0.123	0.102
-622.405	-200.000	-0.025	-0.177
-621.390	60.831	0.155	0.156
-620.376	403.544	-0.230	0.492
-619.361	-86.417	0.082	-0.026
-618.346	-200.000	-0.013	-0.155
-617.332	733.602	-0.015	-0.040
-616.317	278.469	0.167	-0.302
-615.303	-156.542	0.129	0.008
-614.288	-99.578	0.389	-0.099
-613.273	-200.000	-0.173	0.000
-612.259	307.159	-0.101	-0.191
-611.244	143.873	0.186	0.252
-610.230	-26.524	0.288	0.171
-609.215	-142.387	-0.122	0.012
-608.201	-7.069	0.178	-0.123
-607.186	78.880	0.105	0.114
-606.171	292.603	0.130	-0.240
-605.157	792.232	0.167	0.466
-604.142	-200.000	0.071	0.375
-603.128	192.281	-0.168	-0.256
-602.113	-200.000	-0.070	0.324
-601.098	-68.185	-0.151	0.059
-600.084	-18.947	0.066	0.041
-599.069	418.610	-0.114	0.246
-598.055	-195.633	0.153	-0.001
-597.040	28.790	0.146	-0.126
-596.025	88.515	0.318	-0.358
-595.011	16.041	0.118	0.095
-593.996	332.279	0.160	0.312
-592.982	63.644	-0.134	-0.136
-591.967	-43.167	0.157	-0.081
-590.952	1.372	0.175	0.127
-589.938	-193.041	-0.154	0.001
-588.923	-200.000	-0.006	0.043
-587.909	-91.089	-0.258	0.075
-586.894	22.126	-0.076	0.063
-585.879	17.528	0.264	-0.213
-584.865	179.845	0.053	0.078
-583.850	16.580	-0.150	-0.120
-582.836	-0.334	-0.144	0.104
-581.821	432.958	-0.232	-0.510
-580.806	101.048	0.106	0.125
-579.792	64.226	-0.103	0.105
-578.777	691.788	-0.039	0.102
-577.763	109.958	-0.050	-0.061
-576.748	56.265	-0.123	0.121
-575.733	40.471	-0.133	-0.122
-574.719	800.000	-0.108	0.445
-573.704	-145.012	-0.424	-0.039
-572.690	187.990	-0.131	-0.198
-571.675	7.962	-0.295	-0.224
-570.661	800.000	-0.068	-0.255
-569.646	-145.153	0.238	0.022
-568.631	-4.274	0.203	0.142
-567.617	-183.725	0.108	-0.002
-566.602	-79.016	-0.163	-0.056
-565.588	-200.000	-0.006	0.058
-564.573	252.448	-0.040	0.069
-563.558	-86.954	-0.224	-0.069
-562.544	0.726	-0.133	-0.096
-561.529	800.000	-0.042	-0.123
-560.515	-73.897	-0.200	0.073
-559.500	-200.000	0.033	-0.172
-558.485	-123.904	0.127	-0.020
-557.471	800.000	0.054	0.166
-556.456	-200.000	0.003	-0.084
-555.442	340.076	0.185	-0.365
-554.427	93.417	-0.093	-0.106
-553.412	366.591	-0.145	-0.296
-552.398	-117.612	0.050	-0.009
-551.383	-200.000	-0.041	0.212
-550.369	47.128	-0.145	-0.137
-549.354	187.833	0.073	0.110
-548.339	45.788	-0.300	0.280
-547.325	397.254	0.243	-0.513
-546.310	70.351	-0.290	-0.303
-545.296	-49.925	0.237	0.114
-544.281	800.000	0.081	-0.245
-543.266	-66.536	-0.224	-0.090
-542.252	47.639	0.162	-0.153
-541.237	-90.331	0.174	0.051
-540.223	224.536	0.059	-0.096
-539.208	-193.651	-0.010	0.000
-538.193	650.587	-0.095	-0.245
-537.179	107.670	0.187	-0.225
-536.164	-200.000	0.011	0.084
-535.150	6.026	0.125	-0.093
-534.135	22.644	0.222	0.183
-533.121	94.565	-0.303	0.348
-532.106	-200.000	0.002	-0.039
-531.091	-74.178	0.243	0.089
-530.077	-200.000	-0.000	-0.138
-529.062	189.384	-0.200	0.303
-528.048	6.056	-0.239	0.179
-527.033	-172.688	0.176	-0.006
-526.018	-112.151	-0.094	-0.019
-525.004	-200.000	0.054	-0.405
-523.989	71.920	-0.065	0.068
-522.975	85.298	-0.188	-0.208
-521.960	-200.000	-0.017	-0.146
-520.945	196.297	0.080	0.123
-519.931	55.270	0.198	0.194
-518.916	428.864	0.054	0.117
-517.902	-24.375	0.169	-0.102
-516.887	-200.000	-0.030	-0.266
-515.872	-100.787	0.551	0.137
-514.858	178.795	0.111	0.164
-513.843	255.890	-0.134	-0.232
-512.829	-76.545	-0.459	0.163
-511.814	89.630	-0.093	0.105
-510.799	-28.852	-0.212	-0.123
-509.785	54.820	0.128	0.125
-508.770	-200.000	0.029	0.204
-507.756	-67.124	0.214	0.085
-506.741	542.439	-0.102	0.245
-505.726	270.045	-0.147	-0.260
-504.712	61.331	-0.195	0.196
-503.697	-21.056	-0.163	0.101
-502.683	-52.151	-0.082	-0.038
-501.668	83.313	-0.120	-0.132
-500.653	4.459	0.175	-0.130
-499.639	-139.999	0.065	0.007
-498.624	75.927	0.152	0.162
-497.610	42.984	-0.139	0.128
-496.595	-200.000	0.012	-0.087
-495.581	-131.762	0.602	-0.080
-494.566	454.508	-0.156	-0.348
-493.551	14.654	-0.140	0.110
-492.537	705.071	0.065	0.172
-491.522	-38.693	-0.216	-0.115
-490.508	-106.806	-0.165	-0.037
-489.493	-138.807	-0.117	0.013
-488.478	-56.994	-0.125	0.056
-487.464	-26.435	-0.111	-0.065
-486.449	-161.735	-0.204	-0.010
-485.435	-138.956	0.282	0.031
-484.420	-46.760	-0.140	-0.069
-483.405	224.688	-0.278	0.453
-482.391	-200.000	0.035	0.241
-481.376	-200.000	-0.046	-0.220
-480.362	66.937	0.097	0.100
-479.347	-200.000	-0.059	0.308
-478.332	-143.500	-0.453	-0.044
-477.318	-43.555	-0.221	-0.113
-476.303	96.885	0.196	-0.227
-475.289	800.000	-0.006	0.019
-474.274	-200.000	0.027	-0.188
-473.259	-131.865	0.157	-0.021
-472.245	-149.767	0.016	-0.001
-471.230	43.624	0.199	0.183
-470.216	-85.411	-0.204	0.064
-469.201	-200.000	-0.020	-0.305
-468.186	-200.000	0.052	0.407
-467.172	-121.848	-0.140	-0.023
-466.157	-95.963	0.082	-0.022
-465.143	-200.000	0.007	0.099
-464.128	-51.106	0.281	0.133
-463.113	-26.110	-0.090	-0.053
-462.099	575.032	-0.073	0.179
-461.084	-154.185	-0.475	-0.032
-460.070	8.101	0.340	-0.257
-459.055	-37.225	-0.065	0.035
-458.040	390.775	-0.088	0.184
-457.026	-200.000	-0.017	0.410
-456.011	-4.003	0.211	0.148
-454.997	-157.521	-0.196	0.012
-453.982	-200.000	0.023	-0.184
-452.968	170.977	0.203	-0.293
-451.953	-141.636	-0.217	-0.022
-450.938	-46.286	-0.400	-0.198
-449.924	800.000	-0.038	0.113
-448.909	124.770	0.076	-0.097
-447.895	-63.221	-0.164	-0.068
-446.880	-2.731	0.211	-0.149
-445.865	-200.000	0.007	0.188
-444.851	-200.000	0.004	-0.077
-443.836	-44.804	-0.154	0.077
-442.822	719.459	0.044	-0.118
-441.807	-0.657	-0.445	-0.318
-440.792	800.000	-0.100	0.380
-439.778	-31.967	-0.073	-0.041
-438.763	531.547	0.034	0.080
-437.749	800.000	0.038	-0.125
-436.734	-99.139	0.252	-0.064
-435.719	74.291	-0.174	0.184
-434.705	-85.570	-0.167	-0.052
-433.690	386.943	0.075	-0.156
-432.676	-200.000	0.003	-0.561
-431.661	-127.171	-0.182	-0.027
-430.646	456.693	0.071	0.158
-429.632	-200.000	0.015	0.205
-428.617	800.000	0.105	-0.300
-427.603	-153.492	-0.191	-0.013
-426.588	-19.285	0.137	-0.086
-425.573	-57.015	-0.127	-0.056
-424.559	-11.577	-0.108	0.072
-423.544	22.336	-0.254	0.209
-422.530	-200.000	-0.011	-0.263
-421.515	-200.000	-0.051	-0.305
-420.500	121.112	-0.095	-0.119
-419.486	-200.000	0.005	0.111
-418.471	800.000	0.026	0.109
-417.457	-39.698	0.383	-0.201
-416.442	88.427	0.058	0.065
-415.428	-49.163	-0.130	0.062
-414.413	-88.782	-0.225	0.067
-413.398	39.675	-0.197	0.177
-412.384	14.170	0.038	0.030
-411.369	-200.000	0.042	-0.372
-410.355	266.459	-0.047	0.082
-409.340	-200.000	-0.023	-0.139
-408.325	-125.232	0.469	-0.072
-407.311	800.000	-0.082	-0.241
-406.296	-200.000	-0.002	-0.282
-405.282	294.057	0.063	0.115
-404.267	39.014	0.138	-0.124
-403.252	40.301	0.120	0.109
-402.238	130.081	-0.191	0.246
-401.223	183.743	0.091	0.136
-400.209	-200.000	0.006	-0.428
-399.194	523.723	-0.040	-0.095
-398.179	-93.821	-0.071	0.020
-397.165	222.184	0.050	0.082
-396.150	-200.000	0.022	0.102
-395.136	-79.099	0.126	0.043
-394.121	-35.446	-0.125	-0.068
-393.106	134.277	0.089	-0.116
-392.092	-200.000	-0.005	0.088
-391.077	667.603	0.112	-0.292
-390.063	-10.401	0.452	0.301
-389.048	-119.841	-0.181	-0.031
-388.033	-19.789	0.266	0.165
-387.019	-1.402	0.101	-0.072
-386.004	-7.409	-0.082	-0.056
-384.990	237.698	-0.086	-0.143
-383.975	137.050	-0.085	0.112
-382.960	247.017	-0.028	-0.048
-381.946	-29.879	-0.121	0.069
-380.931	-88.147	-0.223	-0.067
-379.917	97.166	-0.063	0.073
-378.902	15.849	-0.216	-0.170
-377.888	800.000	-0.189	0.577
-376.873	177.312	-0.124	-0.181
-375.858	-44.164	-0.060	0.030
-374.844	-26.411	0.086	0.051
-373.829	-37.158	0.252	-0.135
-372.815	-63.950	-0.109	0.045
-371.800	-117.299	-0.097	0.018
-370.785	151.143	-0.242	0.331
-369.771	-36.594	-0.177	-0.096
-368.756	-62.312	-0.072	-0.030
-367.742	-164.087	-0.131	-0.006
-366.727	-44.316	0.101	0.051
-365.712	111.441	0.213	-0.258
-364.698	-200.000	-0.009	0.243
-363.683	270.347	-0.125	-0.221
-362.669	128.086	-0.252	-0.321
-361.654	-100.794	0.244	-0.060
-360.639	-179.296	-0.123	0.003
-359.625	-200.000	-0.000	-0.165
-358.610	-200.000	-0.026	0.469
-357.596	-69.113	-0.164	0.063
-356.581	-141.178	-0.168	-0.017
-355.566	14.710	-0.254	0.199
-354.552	-28.825	-0.341	-0.197
-353.537	800.000	-0.033	0.100
-352.523	9.320	0.321	0.244
-351.508	142.664	0.200	0.267
-350.493	136.831	-0.048	-0.063
-349.479	-46.139	0.065	0.032
-348.464	-200.000	-0.005	-0.046
-347.450	224.489	-0.078	0.126
-346.435	-46.438	0.069	0.034
-345.420	108.050	0.031	0.037
-344.406	105.167	0.201	0.238
-343.391	-140.913	0.150	-0.015
-342.377	365.573	-0.015	-0.030
-341.362	215.864	0.107	-0.170
-340.348	-167.660	-0.136	0.005
-339.333	46.445	0.115	-0.107
-338.318	-200.000	-0.011	-0.109
-337.304	205.062	-0.106	-0.165
-336.289	-102.603	-0.227	0.054
-335.275	-123.874	0.219	0.035
-334.260	-68.361	-0.246	0.096
-333.245	-200.000	0.027	0.167
-332.231	-69.153	-0.389	0.150
-331.216	105.629	-0.152	-0.181
-330.202	-42.211	0.284	0.145
-329.187	-126.960	-0.158	0.023
-328.172	-3.813	-0.046	-0.032
-327.158	-94.023	0.190	0.052
-326.143	-200.000	0.059	0.515
-325.129	-200.000	0.034	0.154
-324.114	436.731	0.127	0.278
-323.099	-200.000	0.006	-0.107
-322.085	146.297	0.068	0.092
-321.070	-200.000	-0.026	0.333
-320.056	-200.000	0.001	0.025
-319.041	-200.000	-0.007	-0.245
-318.026	300.281	0.093	0.171
-317.012	466.686	0.022	0.050
-315.997	19.605	0.159	0.128
-314.983	-86.337	-0.253	-0.078
-313.968	157.373	0.054	-0.075
-312.953	84.858	0.073	0.080
-311.939	800.000	0.023	-0.077
-310.924	-2.802	-0.449	0.314
-309.910	85.860	-0.172	0.190
-308.895	38.422	-0.077	0.069
-307.880	207.633	-0.096	0.150
-306.866	800.000	-0.030	0.115
-305.851	617.922	0.091	-0.229
-304.837	-134.631	-0.122	-0.015
-303.822	800.000	0.085	-0.332
-302.807	-200.000	-0.011	-0.177
-301.793	20.800	-0.075	0.060
-300.778	-39.488	-0.175	0.092
-299.764	95.851	-0.206	-0.236
-298.749	-200.000	-0.057	-0.362
-297.735	-200.000	0.034	0.425
-296.720	-103.898	-0.061	-0.014
-295.705	121.222	-0.142	0.176
-294.691	-1.534	0.270	0.190
-293.676	67.893	-0.245	0.251
-292.662	23.155	0.063	0.051
-291.647	-106.829	-0.275	0.061
-290.632	43.823	0.215	-0.197
-289.618	253.842	0.063	0.108
-288.603	-68.976	0.339	-0.131
-287.589	238.454	0.074	0.124
-286.574	-200.000	-0.006	0.267
-285.559	-103.761	-0.233	-0.055
-284.545	-200.000	-0.023	-0.178
-283.530	-82.623	-0.235	-0.076
-282.516	394.783	-0.037	-0.078
-281.501	421.496	-0.035	-0.074
-280.486	87.763	0.194	-0.215
-279.472	-200.000	0.028	-0.306
-278.457	46.798	0.364	-0.339
-277.443	-200.000	0.018	-0.397
-276.428	-37.339	-0.201	0.107
-275.413	463.950	-0.178	-0.397
-274.399	406.441	-0.098	-0.206
-273.384	18.565	0.525	-0.420
-272.370	-117.504	0.294	0.053
-271.355	-2.427	0.016	-0.012
-270.340	461.704	0.085	-0.190
-269.326	337.169	0.047	0.092
-268.311	-128.475	0.079	0.011
-267.297	-6.710	-0.354	0.241
-266.282	800.000	-0.066	-0.270
-265.267	110.705	-0.037	-0.044
-264.253	800.000	0.027	-0.078
-263.238	145.442	-0.109	0.146
-262.224	729.748	0.167	0.445
-261.209	532.985	0.126	-0.299
-260.195	160.798	0.180	-0.251
-259.180	-53.723	0.345	0.158
-258.165	-65.295	0.326	0.131
-257.151	-200.000	0.006	0.184
-256.136	-67.313	0.176	-0.069
-255.122	-146.815	-0.180	-0.016
-254.107	-104.354	-0.160	-0.037
-253.092	-150.102	0.251	0.019
-252.078	189.089	-0.051	-0.077
-251.063	800.000	0.048	-0.162
-250.049	338.592	0.064	0.124
-249.034	-200.000	-0.006	0.036
-248.019	-112.197	-0.146	0.029
-247.005	-24.526	0.131	0.078
-245.990	183.909	-0.151	-0.223
-244.976	68.174	0.082	0.084
-243.961	-200.000	-0.004	0.370
-242.946	3.787	-0.165	-0.121
-241.932	-200.000	-0.016	0.179
-240.917	694.995	-0.061	-0.160
-239.903	356.004	-0.034	-0.068
-238.888	195.031	0.122	-0.185
-237.873	-95.989	0.357	0.095
-236.859	211.922	-0.063	0.099
-235.844	800.000	0.060	0.196
-234.830	-185.219	0.243	0.004
-233.815	57.786	-0.275	-0.268
-232.800	-200.000	-0.019	-0.097
-231.786	143.895	0.097	0.129
-230.771	800.000	0.057	0.195
-229.757	383.277	0.061	0.126
-228.742	-32.332	0.304	-0.169
-227.727	-6.349	0.104	0.071
-226.713	-118.538	0.185	0.033
-225.698	-20.756	-0.368	0.226
-224.684	13.381	0.042	0.033
-223.669	156.121	-0.043	0.059
-222.655	-153.183	0.175	-0.012
-221.640	-157.867	-0.296	-0.018
-220.625	77.162	-0.145	-0.154
-219.611	800.000	0.027	-0.109
-218.596	-85.299	0.358	0.112
-217.582	-75.968	0.217	0.077
-216.567	-18.939	0.187	0.116
-215.552	-100.182	-0.365	-0.091
-214.538	8.341	0.114	0.085
-213.523	-120.765	0.235	-0.040
-212.509	-200.000	-0.048	0.233
-211.494	392.333	-0.089	-0.185
-210.479	-159.054	0.461	0.026
-209.465	-182.597	0.089	0.002
-208.450	390.473	0.043	0.088
-207.436	-86.415	0.126	0.039
-206.421	-183.528	-0.341	-0.006
-205.406	212.330	0.115	0.182
-204.392	-16.681	-0.099	0.062
-203.377	-159.250	-0.077	0.004
-202.363	38.044	-0.141	0.125
-201.348	-29.379	0.258	0.147
-200.333	90.435	0.171	-0.191
-199.319	800.000	0.046	-0.180
-198.304	28.995	-0.097	-0.082
-197.290	327.425	-0.147	-0.281
-196.275	4.978	0.306	-0.225
-195.260	-141.655	-0.247	0.025
-194.246	428.467	-0.095	0.205
-193.231	117.899	-0.137	-0.169
-192.217	159.796	0.211	-0.293
-191.202	800.000	0.089	0.251
-190.187	464.959	-0.095	0.213
-189.173	-200.000	0.008	-0.099
-188.158	277.086	-0.093	-0.164
-187.144	800.000	0.083	-0.273
-186.129	63.557	0.212	0.212
-185.114	148.848	-0.100	0.135
-184.100	-132.555	0.233	0.030
-183.085	-142.264	0.191	0.019
-182.071	707.759	-0.074	0.194
-181.056	147.468	-0.223	0.299
-180.042	135.719	-0.082	0.107
-179.027	433.252	0.027	0.058
-178.012	-22.012	0.150	-0.091
-176.998	132.069	0.184	-0.236
-175.983	224.105	0.139	0.223
-174.969	-200.000	0.012	0.091
-173.954	169.261	0.208	-0.296
-172.939	-126.770	0.321	-0.047
-171.925	-81.204	-0.155	-0.051
-170.910	609.860	-0.050	-0.125
-169.896	29.495	0.105	-0.089
-168.881	67.239	0.036	-0.036
-167.866	70.827	0.155	-0.160
-166.852	-71.200	-0.185	0.069
-165.837	-5.724	0.191	0.130
-164.823	-95.012	0.382	-0.103
-163.808	45.010	0.122	-0.112
-162.793	-104.580	-0.072	0.016
-161.779	-117.866	0.084	-0.015
-160.764	-200.000	-0.005	-0.222
-159.750	-200.000	0.006	-0.220
-158.735	-200.000	-0.004	-0.366
-157.720	-121.686	0.203	0.033
-156.706	-200.000	-0.030	0.373
-155.691	27.281	-0.300	0.251
-154.677	599.752	0.087	0.214
-153.662	678.028	-0.155	0.400
-152.647	106.614	-0.209	-0.246
-151.633	800.000	0.098	0.294
-150.618	380.379	0.070	0.144
-149.604	-83.987	0.345	0.109
-148.589	381.909	-0.061	-0.126
-147.574	-49.156	-0.218	-0.104
-146.560	-2.757	0.087	0.061
-145.545	163.391	-0.187	-0.261
-144.531	24.094	0.224	-0.184
-143.516	800.000	-0.055	0.171
-142.502	-33.484	0.248	0.136
-141.487	35.021	0.131	0.114
-140.472	-176.830	-0.164	0.004
-139.458	-56.733	0.259	-0.114
-138.443	-81.585	0.132	-0.043
-137.429	-50.846	0.335	-0.156
-136.414	-137.963	0.243	-0.027
-135.399	228.605	0.262	-0.424
-134.385	800.000	-0.071	-0.229
-133.370	-164.566	0.156	0.007
-132.356	333.991	0.137	-0.263
-131.341	68.371	-0.110	-0.112
-130.326	-131.015	0.485	-0.064
-129.312	91.357	-0.187	-0.209
-128.297	175.624	0.131	0.189
-127.283	417.368	0.080	-0.171
-126.268	46.636	-0.135	0.125
-125.253	-200.000	-0.029	0.180
-124.239	800.000	0.063	0.214
-123.224	466.193	0.018	-0.040
-122.210	-112.067	0.234	-0.047
-121.195	-200.000	-0.019	0.098
-120.180	107.988	-0.157	0.186
-119.166	243.177	-0.159	-0.264
-118.151	241.472	0.204	0.340
-117.137	40.102	-0.040	-0.036
-116.122	-27.592	0.173	-0.100
-115.107	305.935	-0.153	-0.283
-114.093	84.394	-0.017	0.019
-113.078	-200.000	-0.021	-0.294
-112.064	800.000	-0.039	-0.143
-111.049	20.040	0.097	0.078
-110.034	61.163	0.117	0.116
-109.020	254.719	0.080	-0.136
-108.005	341.824	0.043	0.083
-106.991	-31.380	0.128	0.072
-105.976	-200.000	0.014	-0.102
-104.962	-34.775	0.042	-0.023
-103.947	800.000	-0.144	0.413
-102.932	-118.163	-0.151	0.027
-101.918	-16.937	0.165	-0.104
-100.903	-132.767	0.153	-0.019
-99.889	342.905	-0.037	-0.071
-98.874	-104.782	0.207	0.047
-97.859	198.040	0.033	0.051
-96.845	-121.163	0.191	-0.032
-95.830	-27.924	0.139	-0.080
-94.816	-8.763	0.122	0.081
-93.801	260.068	-0.098	-0.169
-92.786	-128.925	-0.150	-0.021
-91.772	-200.000	0.007	-0.147
-90.757	500.560	0.076	0.175
-89.743	117.253	-0.063	0.077
-88.728	800.000	-0.067	0.222
-87.713	155.558	0.128	0.175
-86.699	-144.872	0.081	-0.007
-85.684	33.889	0.138	0.119
-84.670	-112.585	-0.060	0.012
-83.655	800.000	0.026	0.095
-82.640	-154.335	0.427	0.029
-81.626	-141.489	0.007	-0.001
-80.611	-200.000	0.006	-0.038
-79.597	262.938	-0.057	-0.098
-78.582	-200.000	-0.028	0.209
-77.567	800.000	-0.106	0.312
-76.553	-28.016	-0.244	0.140
-75.538	305.393	0.031	-0.057
-74.524	-46.298	0.104	0.051
-73.509	-200.000	0.026	0.139
-72.494	-200.000	0.006	0.134
-71.480	92.297	0.055	-0.061
-70.465	174.169	0.096	-0.138
-69.451	-61.425	-0.326	-0.136
-68.436	-100.011	0.137	-0.034
-67.422	800.000	0.047	-0.181
-66.407	292.115	-0.205	0.371
-65.392	800.000	0.044	-0.134
-64.378	-200.000	0.010	-0.094
-63.363	-100.781	0.444	0.108
-62.349	-61.523	-0.225	0.094
-61.334	92.804	-0.623	-0.698
-60.319	471.000	0.144	0.322
-59.305	800.000	-0.232	-0.651
-58.290	323.216	0.345	0.652
-57.276	168.529	0.803	1.134
-56.261	-200.000	80.753	508.061
-55.246	507.272	1344.321	3092.997
-54.232	147.222	2582.195	3446.147
-53.217	107.115	2366.603	2788.579
-52.203	48.555	1981.069	1840.681
-51.188	42.857	1766.716	1596.429
-50.173	40.094	1721.097	1533.755
-49.159	54.483	1759.711	1681.082
-48.144	58.614	1778.360	1731.176
-47.130	42.745	1739.348	1570.576
-46.115	39.784	1724.565	1534.193
-45.100	39.582	1720.523	1528.970
-44.086	39.535	1717.833	1526.154
-43.071	39.513	1715.447	1523.805
-42.057	39.509	1712.746	1521.315
-41.042	39.465	1710.881	1519.256
-40.027	39.457	1709.161	1517.609
-39.013	39.514	1706.587	1515.704
-37.998	39.464	1705.160	1513.990
-36.984	39.549	1703.795	1513.367
-35.969	39.606	1702.398	1512.506
-34.954	39.707	1700.633	1511.652
-33.940	39.651	1698.850	1509.575
-32.925	39.702	1696.661	1507.966
-31.911	39.641	1694.609	1505.612
-30.896	39.726	1693.124	1504.887
-29.881	39.714	1691.505	1503.295
-28.867	39.683	1689.977	1501.637
-27.852	39.626	1688.562	1499.887
-26.838	39.689	1687.098	1499.008
-25.823	39.713	1685.536	1497.743
-24.809	39.729	1684.458	1496.847
-23.794	39.743	1682.735	1495.363
-22.779	39.727	1681.058	1493.694
-21.765	39.706	1679.491	1492.083
-20.750	39.657	1677.596	1489.971
-19.736	39.753	1675.891	1489.122
-18.721	39.712	1674.854	1487.833
-17.706	39.637	1673.553	1486.049
-16.692	39.644	1672.035	1484.696
-15.677	39.744	1670.326	1483.873
-14.663	39.732	1668.778	1482.346
-13.648	39.735	1667.684	1481.335
-12.633	39.705	1665.646	1479.242
-11.619	39.717	1664.377	1478.148
-10.604	39.671	1662.740	1476.296
-9.590	39.651	1661.407	1474.899
-8.575	39.785	1659.875	1474.481
-7.560	39.748	1658.693	1473.096
-6.546	39.637	1657.746	1471.371
-5.531	39.679	1656.303	1470.347
-4.517	39.603	1655.203	1468.747
-3.502	39.714	1654.158	1468.584
-2.487	39.779	1651.945	1467.047
-1.473	39.297	1639.930	1452.759
-0.458	35.278	1616.877	1402.947
0.556	28.700	1611.132	1348.610
1.571	24.298	1631.404	1332.639
2.586	22.461	1643.075	1328.214
3.600	19.562	1589.587	1263.676
4.615	11.135	1475.144	1115.124
5.629	2.860	1404.422	1007.440
6.644	1.078	1394.707	988.764
7.659	0.930	1393.566	986.904
8.673	0.881	1392.262	985.572
9.688	0.832	1390.815	984.146
10.702	0.663	1387.825	980.842
11.717	3.865	1393.465	1005.591
12.731	11.983	1406.025	1067.646
13.746	17.253	1412.953	1107.238
14.761	17.626	1412.475	1109.190
15.775	16.923	1409.749	1102.386
16.790	15.978	1406.811	1093.859
17.804	15.108	1404.976	1086.693
18.819	14.563	1404.073	1082.362
19.834	14.295	1402.422	1079.253
20.848	14.064	1401.118	1076.658
21.863	13.895	1399.602	1074.310
22.877	13.623	1398.380	1071.516
23.892	13.643	1397.183	1070.630
24.907	13.564	1396.804	1069.736
25.921	13.748	1395.214	1069.612
26.936	13.699	1394.953	1069.002
27.950	13.699	1393.591	1067.861
28.965	13.822	1392.546	1067.761
29.980	13.878	1391.880	1067.512
30.994	13.877	1391.115	1066.827
32.009	13.863	1390.092	1065.860
33.023	13.857	1388.645	1064.616
34.038	13.824	1387.437	1063.384
35.053	13.829	1386.295	1062.448
36.067	13.740	1385.714	1061.334
37.082	13.789	1384.393	1060.542
38.096	13.890	1383.207	1060.184
39.111	13.829	1382.699	1059.313
40.126	13.781	1382.076	1058.440
41.140	13.696	1380.953	1056.943
42.155	13.630	1380.537	1056.111
43.169	13.694	1380.453	1056.359
44.184	13.570	1380.600	1055.587
45.199	13.668	1379.606	1055.359
46.213	13.647	1379.117	1054.757
47.228	13.638	1377.833	1053.626
48.242	13.671	1376.891	1053.019
49.257	13.695	1375.194	1051.780
50.271	13.767	1373.514	1050.860
51.286	13.793	1372.149	1049.889
52.301	13.751	1371.242	1048.837
53.315	13.634	1370.251	1047.246
54.330	13.716	1368.987	1046.702
55.344	13.636	1367.776	1045.181
56.359	13.726	1366.685	1044.821
57.374	13.726	1365.686	1043.967
58.388	13.679	1364.658	1042.791
59.403	13.540	1364.619	1041.798
60.417	13.652	1363.459	1041.521
61.432	13.550	1362.872	1040.341
62.447	13.566	1361.501	1039.301
63.461	13.555	1360.523	1038.397
64.476	13.542	1359.303	1037.290
65.490	13.460	1358.126	1035.790
66.505	13.575	1356.437	1035.125
67.520	13.561	1355.537	1034.258
68.534	13.538	1354.390	1033.154
69.549	13.640	1352.844	1032.515
70.563	13.533	1351.915	1031.048
71.578	13.570	1350.332	1029.981
72.593	13.511	1349.526	1028.906
73.607	13.565	1349.032	1028.775
74.622	13.495	1348.028	1027.481
75.636	13.529	1347.236	1026.999
76.651	13.522	1346.290	1026.148
77.666	13.492	1345.835	1025.522
78.680	13.621	1345.260	1025.793
79.695	13.600	1344.364	1024.885
80.709	13.503	1343.714	1023.699
81.724	13.605	1342.523	1023.335
82.739	13.670	1341.695	1023.013
83.753	13.652	1340.820	1022.145
84.768	13.682	1339.530	1021.259
85.782	13.666	1338.590	1020.351
86.797	13.752	1337.079	1019.639
87.812	13.597	1335.991	1017.767
88.826	13.628	1334.525	1016.750
89.841	13.682	1333.693	1016.357
90.855	13.714	1332.328	1015.422
91.870	13.750	1331.620	1015.011
92.884	13.759	1331.331	1014.757
93.899	13.738	1330.372	1013.808
94.914	13.871	1329.019	1013.496
95.928	13.796	1328.277	1012.386
96.943	13.864	1326.951	1011.703
97.957	13.795	1326.655	1010.968
98.972	13.879	1325.435	1010.455
99.987	13.737	1324.831	1009.043
101.001	13.841	1323.149	1008.307
102.016	13.769	1322.525	1007.301
103.030	13.779	1321.505	1006.500
104.045	13.827	1320.145	1005.666
105.060	13.731	1319.091	1004.190
106.074	13.699	1317.868	1002.974
107.089	13.695	1316.330	1001.697
108.103	13.600	1315.718	1000.563
109.118	13.683	1314.058	999.717
110.133	13.656	1312.600	998.356
111.147	13.606	1311.523	997.146
112.162	13.673	1310.438	996.639
113.176	13.635	1309.227	995.402
114.191	13.760	1308.225	995.298
115.206	13.772	1306.842	994.230
116.220	13.773	1305.425	993.071
117.235	13.695	1304.502	991.813
118.249	13.690	1303.921	991.253
119.264	13.743	1302.168	990.152
120.279	13.683	1301.000	988.816
121.293	13.636	1300.605	988.148
122.308	13.698	1299.233	987.390
123.322	13.695	1297.726	986.138
124.337	13.671	1296.850	985.241
125.352	13.596	1296.212	984.223
126.366	13.749	1294.645	983.856
127.381	13.763	1293.917	983.297
128.395	13.704	1292.456	981.750
129.410	13.650	1291.929	980.948
130.424	13.736	1290.785	980.501
131.439	13.777	1289.766	979.880
132.454	13.861	1288.940	979.660
133.468	13.803	1288.042	978.552
134.483	13.768	1287.287	977.682
135.497	13.806	1286.296	977.071
136.512	13.818	1284.701	975.840
137.527	13.782	1283.208	974.412
138.541	13.803	1281.793	973.374
139.556	13.764	1280.448	972.037
140.570	13.850	1279.811	971.970
141.585	13.942	1278.553	971.468
142.600	13.947	1277.141	970.337
143.614	13.899	1276.318	969.344
144.629	13.982	1275.209	968.904
145.643	13.900	1273.852	967.310
146.658	13.964	1272.490	966.561
147.673	13.851	1271.009	964.693
148.687	13.758	1270.671	963.809
149.702	13.779	1269.032	962.604
150.716	13.830	1267.391	961.572
151.731	13.850	1266.158	960.664
152.746	13.884	1265.074	959.956
153.760	13.867	1263.871	958.859
154.775	13.975	1262.800	958.583
155.789	13.935	1261.811	957.520
156.804	13.902	1260.542	956.280
157.819	13.979	1259.294	955.690
158.833	14.008	1257.961	954.763
159.848	14.090	1257.456	954.765
160.862	14.021	1256.624	953.652
161.877	14.059	1255.044	952.586
162.892	13.929	1254.376	951.249
163.906	13.921	1253.434	950.409
164.921	13.833	1252.609	949.194
165.935	13.946	1251.599	948.992
166.950	13.939	1251.193	948.559
167.964	13.948	1250.451	947.962
168.979	14.060	1249.501	947.796
169.994	14.036	1249.022	947.212
171.008	14.028	1247.880	946.216
172.023	14.066	1247.023	945.704
173.037	14.111	1246.668	945.606
174.052	14.060	1245.305	944.196
175.067	14.192	1244.114	943.959
176.081	14.147	1243.337	943.029
177.096	14.096	1242.441	941.981
178.110	14.032	1241.426	940.765
179.125	14.022	1240.391	939.837
180.140	14.040	1239.249	938.994
181.154	14.213	1237.375	938.466
182.169	14.132	1236.361	937.160
183.183	14.279	1235.048	936.909
184.198	14.247	1234.010	935.860
185.213	14.260	1232.620	934.792
186.227	14.332	1231.575	934.319
187.242	14.276	1230.732	933.287
188.256	14.316	1229.556	932.533
189.271	14.361	1228.688	932.048
190.286	14.324	1227.547	930.890
191.300	14.187	1227.415	929.942
192.315	14.119	1226.050	928.446
193.329	14.205	1225.155	928.168
194.344	14.211	1224.660	927.743
195.359	14.140	1224.576	927.201
196.373	14.339	1223.397	927.334
197.388	14.278	1223.057	926.656
198.402	14.335	1222.894	926.769
199.417	14.389	1221.779	926.139
200.432	14.480	1220.562	925.642
201.446	14.405	1219.933	924.665
202.461	14.479	1218.936	924.238
203.475	14.576	1218.139	924.090
204.490	14.525	1216.838	922.738
205.504	14.505	1215.556	921.577
206.519	14.374	1214.364	919.867
207.534	14.451	1213.253	919.371
208.548	14.516	1212.401	919.000
209.563	14.401	1211.989	917.970
210.577	14.550	1210.724	917.752
211.592	14.532	1209.704	916.801
212.607	14.655	1209.072	916.917
213.621	14.685	1208.082	916.249
214.636	14.613	1207.357	915.224
215.650	14.607	1206.456	914.427
216.665	14.503	1205.796	913.274
217.680	14.699	1204.545	913.317
218.694	14.733	1203.664	912.753
219.709	14.798	1202.575	912.203
220.723	14.665	1202.553	911.381
221.738	14.642	1201.578	910.434
222.753	14.651	1201.055	910.009
223.767	14.762	1200.029	909.756
224.782	14.832	1199.332	909.524
225.796	14.830	1198.613	908.890
226.811	14.920	1197.752	908.643
227.826	14.903	1196.900	907.826
228.840	14.844	1196.651	907.237
229.855	14.863	1195.885	906.676
230.869	14.888	1194.542	905.719
231.884	14.857	1193.944	905.014
232.899	14.815	1193.291	904.213
233.913	14.805	1192.267	903.302
234.928	14.916	1191.243	903.044
235.942	14.778	1190.885	901.950
236.957	14.847	1189.938	901.524
237.972	14.889	1189.146	901.072
238.986	14.857	1188.830	900.578
240.001	14.907	1187.800	899.990
241.015	14.860	1187.417	899.368
242.030	14.904	1186.217	898.612
243.045	14.926	1185.560	898.155
244.059	15.051	1184.512	897.953
245.074	14.956	1183.724	896.764
246.088	14.979	1182.997	896.260
247.103	14.977	1182.590	895.861
248.117	15.106	1181.116	895.356
249.132	15.145	1180.631	895.118
250.147	15.293	1179.714	895.130
251.161	15.262	1179.073	894.399
252.176	15.135	1178.597	893.286
253.190	15.288	1177.733	893.366
254.205	15.267	1177.082	892.679
255.220	15.295	1176.937	892.643
256.234	15.402	1175.684	892.178
257.249	15.370	1175.041	891.441
258.263	15.325	1174.572	890.771
259.278	15.266	1173.925	889.885
260.293	15.346	1173.536	889.937
261.307	15.452	1172.786	889.854
262.322	15.389	1172.124	888.938
263.336	15.452	1171.357	888.608
264.351	15.542	1170.751	888.546
265.366	15.459	1170.310	887.694
266.380	15.466	1169.347	886.926
267.395	15.473	1168.539	886.271
268.409	15.534	1167.340	885.606
269.424	15.536	1166.946	885.239
270.439	15.487	1166.544	884.593
271.453	15.548	1165.812	884.283
272.468	15.428	1165.133	883.061
273.482	15.531	1164.148	882.775
274.497	15.470	1163.500	881.884
275.512	15.545	1162.925	881.768
276.526	15.484	1162.206	880.821
277.541	15.584	1161.146	880.465
278.555	15.541	1160.873	879.954
279.570	15.659	1159.794	879.678
280.585	15.642	1159.122	878.998
281.599	15.739	1157.549	878.236
282.614	15.693	1157.117	877.590
283.628	15.540	1156.113	875.952
284.643	15.591	1155.037	875.327
285.657	15.622	1154.167	874.752
286.672	15.814	1153.026	874.809
287.687	15.738	1152.349	873.822
288.701	15.850	1151.336	873.559
289.716	15.850	1150.761	873.043
290.730	15.826	1150.089	872.331
291.745	15.858	1149.339	871.853
292.760	15.726	1149.054	870.876
293.774	15.832	1148.396	870.849
294.789	15.893	1147.513	870.417
295.803	15.764	1146.800	869.131
296.818	15.813	1145.980	868.687
297.833	15.920	1145.051	868.455
298.847	15.897	1144.405	867.771
299.862	15.983	1143.394	867.369
300.876	15.905	1143.241	866.777
301.891	16.072	1142.276	866.829
302.906	15.934	1141.830	865.701
303.920	16.049	1141.103	865.667
304.935	16.020	1140.628	865.082
305.949	16.190	1139.275	864.851
306.964	16.168	1138.836	864.326
307.979	16.085	1138.313	863.428
308.993	16.083	1137.500	862.722
310.008	16.204	1136.355	862.398
311.022	16.192	1136.012	862.000
312.037	16.131	1135.209	861.003
313.052	16.195	1133.777	860.166
314.066	16.007	1133.549	858.962
315.081	16.123	1132.272	858.506
316.095	16.002	1131.880	857.517
317.110	16.028	1130.815	856.768
318.125	16.130	1129.693	856.360
319.139	16.042	1129.585	855.754
320.154	16.167	1128.737	855.669
321.168	16.113	1128.452	855.105
322.183	16.176	1127.697	854.778
323.197	16.143	1127.146	854.117
324.212	16.176	1126.002	853.342
325.227	16.214	1125.573	853.132
326.241	16.252	1124.903	852.741
327.256	16.225	1124.502	852.227
328.270	16.243	1123.570	851.534
329.285	16.131	1122.585	850.148
330.300	16.224	1121.348	849.605
331.314	16.250	1120.729	849.192
332.329	16.297	1119.671	848.549
333.343	16.258	1118.855	847.663
334.358	16.254	1117.697	846.687
335.373	16.294	1117.356	846.555
336.387	16.379	1116.748	846.449
337.402	16.537	1115.393	846.135
338.416	16.434	1115.031	845.268
339.431	16.383	1114.400	844.461
340.446	16.529	1113.324	844.300
341.460	16.488	1113.156	843.893
342.475	16.613	1112.193	843.711
343.489	16.624	1110.909	842.719
344.504	16.647	1110.223	842.238
345.519	16.602	1109.548	841.427
346.533	16.637	1108.671	840.864
347.548	16.741	1107.714	840.577
348.562	16.689	1107.059	839.752
349.577	16.762	1106.348	839.499
350.592	16.661	1105.606	838.360
351.606	16.587	1105.028	837.481
352.621	16.758	1104.127	837.571
353.635	16.701	1103.606	836.818
354.650	16.659	1102.646	835.808
355.665	16.666	1102.210	835.439
356.679	16.584	1101.870	834.703
357.694	16.752	1100.918	834.737
358.708	16.732	1100.086	833.932
359.723	16.786	1099.410	833.613
360.738	16.734	1098.812	832.828
361.752	16.821	1098.216	832.732
362.767	16.752	1098.064	832.202
363.781	16.744	1097.530	831.687
364.796	16.849	1096.345	831.229
365.810	16.862	1095.771	830.784
366.825	16.903	1095.072	830.380
367.840	17.010	1094.618	830.486
368.854	17.088	1093.530	829.971
369.869	17.141	1092.934	829.703
370.883	16.995	1092.465	828.563
371.898	17.054	1091.725	828.215
372.913	16.930	1091.560	827.410
373.927	17.108	1090.717	827.568
374.942	17.102	1089.956	826.885
375.956	17.136	1089.204	826.407
376.971	17.105	1089.005	826.035
377.986	17.148	1088.113	825.495
379.000	17.076	1087.903	824.910
380.015	17.180	1087.191	824.804
381.029	17.267	1086.486	824.618
382.044	17.273	1085.728	823.997
383.059	17.452	1084.584	823.922
384.073	17.255	1084.207	822.609
385.088	17.286	1083.628	822.249
386.102	17.440	1082.711	822.223
387.117	17.225	1081.609	820.277
388.132	17.227	1081.009	819.758
389.146	17.295	1080.018	819.260
390.161	17.177	1079.463	818.200
391.175	17.248	1078.039	817.392
392.190	17.395	1077.424	817.556
393.205	17.400	1076.833	817.064
394.219	17.514	1075.874	816.807
395.234	17.467	1075.070	815.901
396.248	17.434	1073.983	814.847
397.263	17.361	1073.187	813.819
398.278	17.407	1072.471	813.426
399.292	17.404	1071.823	812.849
400.307	17.378	1070.842	811.906
401.321	17.383	1070.396	811.521
402.336	17.398	1070.108	811.302
403.350	17.488	1069.150	810.933
404.365	17.467	1068.158	810.010
405.380	17.461	1067.491	809.403
406.394	17.428	1066.859	808.696
407.409	17.366	1066.660	808.177
408.423	17.527	1065.239	807.794
409.438	17.598	1064.681	807.635
410.453	17.632	1063.886	807.124
411.467	17.587	1063.225	806.338
412.482	17.762	1062.690	806.686
413.496	17.618	1062.296	805.636
414.511	17.625	1061.687	805.137
415.526	17.713	1061.292	805.180
416.540	17.772	1060.725	804.957
417.555	17.742	1059.898	804.119
418.569	17.835	1059.471	804.160
419.584	17.835	1058.745	803.538
420.599	17.829	1058.261	803.071
421.613	91.870	1303.764	1398.141
422.628	84.788	1339.522	1398.243
