DTS Sentinel unit serial number:	SN413079Multiplexer serial number:	ORYXHardware model number:	OX4-SRSoftware version number:	ORYX F/W v4.00 Oryx Data Collector v3.7.2.0data status	okinstallation	princeton_trtdifferential loss correction	single-endedforward channel	channel 4reverse channel	N/Adate	2019/09/10time	21:07:11forward acquisition time	60.00reverse acquisition time	0.00gamma	496.2192k internal	0.2313k external	0.2313temperature offset calibration	0.9946default loss term (dB/km)	0.3790temperature slope calibration	1.0000multiplexer offset coefficient	1.0000multiplexer slope coefficient	1.0000fibre end	0.00T internal ref (°C)	31.50T ext. ref 1 (°C)	-0.31T ext. ref 2 (°C)	24.60length (m)	temperature (°C)	Stokes	anti-Stokes-747.200	-150.901	0.163	0.012
-746.185	-200.000	-0.023	0.231
-745.171	-152.562	0.164	0.012
-744.156	-188.565	0.256	-0.003
-743.142	291.945	-0.070	0.130
-742.127	492.777	-0.073	0.169
-741.112	-113.747	0.180	0.036
-740.098	-200.000	-0.040	0.352
-739.083	124.010	-0.042	0.054
-738.069	15.380	-0.129	0.103
-737.054	102.494	0.113	-0.134
-736.039	-13.952	-0.098	0.064
-735.025	-200.000	0.043	0.337
-734.010	-1.241	0.263	0.188
-732.996	-49.792	-0.529	0.255
-731.981	-200.000	0.076	-0.343
-730.966	-200.000	-0.011	0.246
-729.952	289.121	-0.068	-0.125
-728.937	402.573	-0.034	0.073
-727.923	54.399	-0.099	-0.096
-726.908	27.345	-0.164	0.140
-725.894	-139.298	0.236	-0.026
-724.879	-200.000	0.049	-0.289
-723.864	-70.657	-0.177	-0.068
-722.850	256.391	-0.117	-0.203
-721.835	-79.338	-0.218	0.075
-720.821	-200.000	-0.057	0.253
-719.806	-103.330	-0.228	-0.054
-718.791	800.000	0.033	-0.142
-717.777	-95.315	0.251	0.068
-716.762	-200.000	0.019	0.403
-715.748	10.089	0.072	0.055
-714.733	-10.922	0.233	-0.156
-713.718	-200.000	0.006	0.136
-712.704	64.566	-0.203	-0.207
-711.689	-22.538	-0.227	0.139
-710.675	-73.457	0.182	-0.067
-709.660	800.000	-0.078	-0.225
-708.645	39.047	0.132	-0.120
-707.631	-141.557	-0.426	-0.044
-706.616	-79.704	0.070	0.024
-705.602	55.681	-0.156	-0.153
-704.587	-200.000	-0.030	-0.458
-703.572	-44.661	-0.064	-0.032
-702.558	70.909	0.124	-0.130
-701.543	-117.116	0.153	0.028
-700.529	800.000	0.035	0.100
-699.514	800.000	0.065	0.213
-698.499	-110.615	0.095	-0.020
-697.485	31.164	-0.187	0.162
-696.470	292.520	-0.192	0.355
-695.456	65.773	-0.167	-0.172
-694.441	335.471	0.053	-0.105
-693.426	-127.072	-0.164	0.024
-692.412	389.343	0.038	-0.079
-691.397	127.189	-0.278	-0.357
-690.383	86.543	0.121	-0.135
-689.368	-29.052	0.020	-0.012
-688.354	-159.195	0.242	-0.014
-687.339	-200.000	0.010	-0.254
-686.324	194.656	0.187	-0.286
-685.310	-43.853	0.095	-0.048
-684.295	-200.000	0.021	0.233
-683.281	59.436	-0.309	-0.308
-682.266	-200.000	-0.029	0.132
-681.251	325.902	0.121	0.234
-680.237	-23.803	0.081	0.049
-679.222	-200.000	0.046	0.223
-678.208	-80.552	-0.248	-0.084
-677.193	-200.000	-0.004	-0.402
-676.178	440.064	0.053	-0.118
-675.164	18.087	0.056	-0.045
-674.149	91.410	-0.160	0.182
-673.135	-200.000	-0.050	0.283
-672.120	-88.616	-0.347	-0.105
-671.105	-36.523	0.199	-0.108
-670.091	-147.074	-0.099	-0.009
-669.076	-49.763	-0.153	-0.074
-668.062	16.629	-0.238	-0.190
-667.047	195.580	-0.100	-0.153
-666.032	800.000	0.007	-0.025
-665.018	-138.346	0.563	-0.063
-664.003	-200.000	-0.014	0.178
-662.989	-106.393	-0.147	0.033
-661.974	800.000	-0.053	0.173
-660.959	290.108	-0.114	0.210
-659.945	156.426	0.151	0.211
-658.930	68.945	0.157	0.163
-657.916	-200.000	0.010	0.225
-656.901	-17.668	0.258	0.164
-655.886	-200.000	-0.032	-0.296
-654.872	800.000	-0.077	0.341
-653.857	-161.332	0.369	0.019
-652.843	-158.144	-0.105	-0.006
-651.828	-82.885	-0.458	0.150
-650.814	-200.000	-0.040	-0.449
-649.799	-200.000	0.010	-0.614
-648.784	67.840	0.129	0.133
-647.770	28.495	-0.116	0.099
-646.755	-62.397	-0.101	0.043
-645.741	8.905	-0.112	0.085
-644.726	-112.763	-0.224	0.045
-643.711	-200.000	0.042	0.286
-642.697	-200.000	-0.006	0.084
-641.682	-200.000	0.027	-0.167
-640.668	479.539	0.089	-0.203
-639.653	-200.000	-0.027	-0.392
-638.638	64.860	0.089	0.091
-637.624	800.000	-0.050	0.164
-636.609	144.920	0.176	-0.237
-635.595	136.101	-0.090	-0.118
-634.580	-20.688	0.265	-0.165
-633.565	306.477	-0.081	0.152
-632.551	292.222	0.167	-0.307
-631.536	-200.000	0.005	-0.347
-630.522	33.071	0.267	-0.234
-629.507	247.044	0.214	0.365
-628.492	-95.821	-0.026	0.007
-627.478	-80.917	0.257	-0.086
-626.463	-21.530	0.244	0.151
-625.449	8.742	0.288	-0.219
-624.434	-200.000	-0.029	-0.166
-623.419	-12.193	-0.465	0.307
-622.405	-200.000	-0.025	-0.229
-621.390	72.242	0.198	-0.209
-620.376	-200.000	0.002	-0.117
-619.361	29.999	0.080	0.069
-618.346	114.304	0.090	-0.111
-617.332	15.850	-0.246	0.196
-616.317	-152.768	0.102	0.007
-615.303	65.216	0.176	0.179
-614.288	35.822	0.063	-0.056
-613.273	-8.009	-0.117	0.080
-612.259	-126.600	0.702	-0.105
-611.244	321.143	-0.021	0.040
-610.230	125.021	0.272	-0.346
-609.215	-200.000	-0.076	0.360
-608.201	98.603	0.175	0.203
-607.186	-200.000	-0.043	-0.372
-606.171	-200.000	0.040	-0.210
-605.157	-115.786	0.163	-0.031
-604.142	-143.449	0.121	0.012
-603.128	800.000	0.041	0.153
-602.113	-162.448	-0.363	0.018
-601.098	799.992	0.100	-0.279
-600.084	175.504	-0.196	0.287
-599.069	4.471	-0.051	-0.038
-598.055	48.749	-0.073	-0.069
-597.040	-200.000	0.008	-0.315
-596.025	-24.947	-0.152	0.091
-595.011	-177.141	-0.105	-0.003
-593.996	800.000	-0.005	-0.015
-592.982	-200.000	-0.006	-0.096
-591.967	98.778	-0.108	0.125
-590.952	377.496	-0.128	0.265
-589.938	282.963	-0.163	-0.294
-588.923	-0.502	-0.259	0.185
-587.909	182.672	-0.231	-0.344
-586.894	-42.088	-0.293	0.151
-585.879	-99.552	0.162	0.041
-584.865	-200.000	0.032	-0.204
-583.850	-48.355	-0.208	0.101
-582.836	149.247	-0.076	-0.103
-581.821	-102.083	-0.182	0.044
-580.806	42.191	-0.059	0.054
-579.792	101.200	-0.218	0.255
-578.777	-99.088	0.316	0.081
-577.763	-5.847	-0.301	-0.208
-576.748	239.361	-0.054	0.091
-575.733	412.559	0.025	-0.053
-574.719	-147.479	0.237	-0.020
-573.704	369.436	-0.258	-0.526
-572.690	399.123	0.069	-0.147
-571.675	17.563	-0.321	0.257
-570.661	-83.176	-0.201	-0.065
-569.646	130.299	-0.139	-0.179
-568.631	63.931	0.254	-0.257
-567.617	-67.832	-0.092	0.036
-566.602	-135.468	-0.207	-0.025
-565.588	-57.569	-0.332	-0.147
-564.573	-143.839	0.143	-0.014
-563.558	-112.052	-0.697	-0.141
-562.544	81.577	-0.121	-0.132
-561.529	800.000	0.032	0.091
-560.515	-151.276	0.092	-0.007
-559.500	-200.000	-0.003	-0.110
-558.485	105.790	0.081	0.096
-557.471	-189.278	-0.084	-0.001
-556.456	-200.000	-0.009	0.048
-555.442	-1.834	0.317	0.225
-554.427	-115.864	0.341	-0.064
-553.412	615.876	-0.065	0.163
-552.398	-128.427	-0.037	-0.005
-551.383	-14.407	0.130	-0.084
-550.369	-49.493	-0.400	0.192
-549.354	-135.314	0.149	0.018
-548.339	-13.779	0.098	0.064
-547.325	-200.000	-0.043	0.372
-546.310	90.472	0.239	-0.269
-545.296	162.665	-0.075	-0.106
-544.281	800.000	-0.012	-0.042
-543.266	545.054	0.062	0.149
-542.252	443.589	-0.046	-0.102
-541.237	143.621	-0.029	-0.039
-540.223	335.835	-0.199	0.389
-539.208	485.621	-0.017	-0.039
-538.193	334.134	0.176	-0.342
-537.179	-86.911	0.121	0.037
-536.164	800.000	-0.055	0.209
-535.150	-97.005	-0.160	-0.042
-534.135	-19.951	0.218	0.135
-533.121	-118.748	0.316	-0.056
-532.106	-97.413	0.231	0.061
-531.091	609.773	0.154	-0.386
-530.077	122.749	0.096	-0.121
-529.062	-90.575	-0.244	0.071
-528.048	-77.600	0.136	-0.047
-527.033	-151.020	-0.067	0.005
-526.018	543.743	0.064	0.153
-525.004	589.921	0.037	0.091
-523.989	-56.783	0.107	0.048
-522.975	-16.612	0.134	-0.085
-521.960	-25.738	-0.214	-0.127
-520.945	-17.793	-0.107	0.068
-519.931	-85.205	0.064	-0.020
-518.916	-20.428	-0.142	0.088
-517.902	-159.285	-0.400	0.023
-516.887	800.000	-0.075	-0.321
-515.872	800.000	-0.058	0.218
-514.858	800.000	0.063	0.202
-513.843	369.764	-0.152	0.309
-512.829	-200.000	0.009	-0.342
-511.814	67.668	0.103	-0.106
-510.799	800.000	0.035	-0.131
-509.785	141.455	0.164	0.219
-508.770	-114.810	0.159	0.030
-507.756	800.000	0.105	0.294
-506.741	19.609	0.279	0.226
-505.726	368.568	-0.146	0.296
-504.712	-200.000	0.007	-0.545
-503.697	488.325	-0.032	-0.074
-502.683	800.000	0.051	-0.166
-501.668	-59.997	-0.147	0.063
-500.653	-140.134	-0.300	0.032
-499.639	93.559	-0.184	0.209
-498.624	-82.586	0.056	0.018
-497.610	-47.853	-0.228	0.111
-496.595	296.787	0.023	0.043
-495.581	41.884	0.135	0.123
-494.566	-154.989	0.044	-0.003
-493.551	43.048	0.190	0.174
-492.537	-63.726	-0.293	-0.121
-491.522	800.000	-0.073	-0.286
-490.508	-32.768	-0.218	0.122
-489.493	215.642	0.030	-0.048
-488.478	73.940	-0.204	-0.215
-487.464	-80.737	0.261	0.087
-486.449	800.000	0.039	-0.130
-485.435	-57.468	0.079	0.035
-484.420	-164.732	0.130	-0.006
-483.405	-53.115	0.057	0.026
-482.391	85.041	-0.112	-0.124
-481.376	-200.000	-0.058	-0.273
-480.362	92.959	-0.204	0.232
-479.347	-77.752	-0.326	0.113
-478.332	537.490	-0.074	-0.176
-477.318	123.353	0.279	0.351
-476.303	-33.027	0.136	0.076
-475.289	80.265	0.100	-0.108
-474.274	-125.052	-0.339	-0.052
-473.259	70.887	0.142	-0.148
-472.245	-200.000	-0.026	-0.132
-471.230	45.628	-0.168	0.156
-470.216	189.906	0.114	-0.172
-469.201	121.466	-0.159	-0.199
-468.186	-10.293	0.157	0.104
-467.172	-66.872	0.279	-0.111
-466.157	-8.660	0.177	-0.119
-465.143	-200.000	0.004	-0.180
-464.128	462.532	0.085	0.191
-463.113	725.918	-0.005	-0.013
-462.099	-41.464	0.397	-0.205
-461.084	641.347	-0.013	-0.033
-460.070	-62.559	-0.069	-0.029
-459.055	168.479	0.119	0.170
-458.040	-200.000	-0.005	0.183
-457.026	-116.718	-0.185	0.034
-456.011	-116.822	-0.137	0.025
-454.997	0.341	0.474	0.340
-453.982	14.791	0.182	0.142
-452.968	-9.490	0.327	0.219
-451.953	-85.382	-0.258	0.081
-450.938	399.042	-0.083	-0.175
-449.924	-104.651	-0.570	0.132
-448.909	-81.176	0.060	-0.020
-447.895	-79.516	-0.154	-0.052
-446.880	61.891	0.172	-0.172
-445.865	416.471	0.129	0.277
-444.851	-195.130	0.310	-0.002
-443.836	800.000	-0.091	-0.261
-442.822	220.443	-0.147	0.237
-441.807	-158.151	-0.250	-0.015
-440.792	800.000	0.112	-0.417
-439.778	-45.087	-0.196	0.098
-438.763	170.518	-0.056	0.081
-437.749	-75.167	0.242	0.087
-436.734	-200.000	-0.007	-0.260
-435.719	768.310	-0.110	0.299
-434.705	800.000	0.110	0.388
-433.690	800.000	-0.091	0.348
-432.676	-14.756	-0.051	-0.033
-431.661	-200.000	-0.054	0.257
-430.646	37.234	0.049	-0.044
-429.632	217.933	-0.166	0.265
-428.617	-48.469	0.138	0.066
-427.603	-155.232	-0.360	0.023
-426.588	-200.000	-0.033	-0.288
-425.573	-148.427	0.073	0.006
-424.559	-200.000	-0.017	0.133
-423.544	-76.708	-0.192	-0.067
-422.530	-195.292	-0.057	-0.000
-421.515	33.782	0.061	-0.053
-420.500	-13.390	-0.175	0.114
-419.486	-170.944	0.288	0.010
-418.471	-101.787	-0.204	-0.049
-417.457	-200.000	0.036	0.291
-416.442	-28.879	0.173	-0.099
-415.428	205.565	-0.241	0.375
-414.413	-200.000	-0.009	0.042
-413.398	-200.000	0.261	0.000
-412.384	800.000	-0.038	-0.147
-411.369	-175.389	-0.132	0.004
-410.355	14.695	0.287	-0.225
-409.340	274.484	0.131	0.232
-408.325	-104.022	-0.223	0.052
-407.311	-200.000	0.003	-0.138
-406.296	-117.966	-0.059	0.011
-405.282	-126.343	0.133	-0.020
-404.267	15.256	-0.084	0.066
-403.252	146.428	0.297	0.399
-402.238	89.789	-0.150	-0.168
-401.223	145.434	0.211	0.283
-400.209	326.453	-0.021	-0.040
-399.194	347.073	0.056	-0.111
-398.179	-67.831	0.207	-0.081
-397.165	-85.818	0.159	0.049
-396.150	-194.760	0.283	-0.002
-395.136	218.719	-0.194	0.309
-394.121	58.466	-0.097	-0.095
-393.106	100.896	-0.147	-0.170
-392.092	800.000	0.050	0.161
-391.077	-200.000	-0.057	0.303
-390.063	-163.413	0.511	0.024
-389.048	392.225	-0.018	-0.038
-388.033	-46.262	0.059	-0.029
-387.019	6.832	-0.153	-0.114
-386.004	127.499	0.210	0.267
-384.990	-27.227	0.142	0.083
-383.975	74.544	-0.026	-0.027
-382.960	666.346	0.047	-0.121
-381.946	-200.000	-0.001	0.141
-380.931	167.753	-0.100	-0.142
-379.917	-4.088	-0.175	-0.122
-378.902	262.689	0.155	-0.269
-377.888	-194.226	-0.457	0.004
-376.873	-200.000	0.005	-0.044
-375.858	16.528	0.263	-0.208
-374.844	73.266	0.273	-0.286
-373.829	562.158	0.092	0.223
-372.815	-52.385	0.185	-0.086
-371.800	800.000	-0.036	-0.117
-370.785	190.107	-0.130	-0.195
-369.771	100.904	0.131	0.152
-368.756	800.000	-0.020	0.066
-367.742	-86.265	-0.237	-0.073
-366.727	87.430	0.161	-0.178
-365.712	-63.918	-0.133	0.054
-364.698	-178.562	-0.236	-0.005
-363.683	-40.327	-0.154	-0.080
-362.669	-38.251	0.113	-0.060
-361.654	65.144	0.285	0.288
-360.639	117.914	-0.159	0.196
-359.625	198.383	0.151	0.231
-358.610	-76.545	0.233	-0.082
-357.596	800.000	-0.050	-0.141
-356.581	-154.082	0.183	-0.012
-355.566	11.233	0.146	-0.111
-354.552	245.844	-0.171	0.287
-353.537	141.191	-0.223	-0.295
-352.523	320.293	-0.117	0.222
-351.508	179.608	-0.126	0.184
-350.493	800.000	-0.049	-0.153
-349.479	-98.249	-0.154	0.039
-348.464	-59.152	-0.199	0.086
-347.450	33.337	0.115	-0.100
-346.435	-25.498	0.148	-0.088
-345.420	-175.548	-0.395	0.011
-344.406	-116.519	0.135	0.025
-343.391	800.000	-0.055	-0.211
-342.377	90.659	0.120	0.134
-341.362	155.337	-0.286	-0.392
-340.348	396.117	-0.083	0.174
-339.333	-200.000	-0.001	0.116
-338.318	-200.000	-0.020	0.106
-337.304	260.719	-0.045	0.078
-336.289	-180.305	0.240	-0.005
-335.275	5.690	-0.025	0.018
-334.260	22.807	-0.254	-0.208
-333.245	362.260	0.082	-0.164
-332.231	-68.921	0.290	-0.112
-331.216	58.749	-0.152	-0.149
-330.202	97.748	0.235	0.270
-329.187	-140.806	-0.212	0.022
-328.172	-200.000	0.009	-0.306
-327.158	-200.000	-0.004	0.089
-326.143	-200.000	0.030	0.288
-325.129	-14.909	-0.152	-0.097
-324.114	-200.000	-0.028	-0.273
-323.099	-120.435	0.277	-0.047
-322.085	388.956	0.076	-0.156
-321.070	34.103	-0.235	0.204
-320.056	-39.046	-0.236	-0.124
-319.041	486.871	-0.070	0.160
-318.026	-200.000	-0.003	0.086
-317.012	-200.000	-0.073	0.347
-315.997	346.481	-0.112	0.220
-314.983	-122.218	0.510	-0.083
-313.968	109.006	-0.207	-0.247
-312.953	-150.221	-0.271	-0.021
-311.939	-200.000	0.013	0.098
-310.924	80.512	0.119	-0.128
-309.910	81.781	0.080	0.086
-308.895	-178.342	0.146	-0.003
-307.880	-128.983	-0.108	-0.015
-306.866	-25.901	-0.118	0.069
-305.851	146.043	0.159	-0.213
-304.837	-32.034	-0.273	-0.152
-303.822	692.673	-0.023	0.060
-302.807	496.879	-0.039	-0.088
-301.793	-58.849	-0.086	0.037
-300.778	13.301	0.127	-0.098
-299.764	-24.964	-0.149	0.088
-298.749	19.084	-0.160	-0.128
-297.735	-10.954	-0.183	-0.121
-296.720	6.035	-0.259	0.191
-295.705	800.000	0.059	0.200
-294.691	-200.000	-0.027	-0.259
-293.676	544.407	0.078	0.185
-292.662	-9.251	0.235	0.157
-291.647	54.047	0.291	-0.278
-290.632	-131.154	-0.025	0.003
-289.618	-200.000	0.064	-0.508
-288.603	309.257	-0.112	0.208
-287.589	800.000	0.084	0.235
-286.574	-200.000	0.019	0.141
-285.559	10.730	0.083	0.063
-284.545	-51.067	-0.189	-0.088
-283.530	-200.000	-0.002	0.384
-282.516	393.493	-0.041	-0.085
-281.501	-29.976	-0.149	-0.085
-280.486	147.417	0.044	-0.059
-279.472	-13.907	-0.310	-0.200
-278.457	67.607	0.135	-0.137
-277.443	-143.826	-0.127	0.012
-276.428	-66.873	0.168	-0.066
-275.413	581.420	0.072	0.177
-274.399	-114.137	-0.225	-0.043
-273.384	718.967	-0.057	0.151
-272.370	2.889	-0.256	-0.185
-271.355	215.284	-0.028	0.044
-270.340	-76.373	0.361	-0.126
-269.326	-200.000	-0.017	0.211
-268.311	77.841	-0.258	-0.274
-267.297	-54.506	0.201	-0.091
-266.282	-200.000	-0.096	0.454
-265.267	90.975	0.223	0.249
-264.253	25.661	0.512	-0.424
-263.238	-200.000	-0.012	-0.212
-262.224	800.000	-0.082	-0.337
-261.209	173.915	0.218	-0.313
-260.195	-50.804	0.250	-0.117
-259.180	-200.000	-0.039	-0.216
-258.165	-160.110	0.129	0.007
-257.151	88.034	0.109	-0.120
-256.136	-200.000	-0.013	0.127
-255.122	38.296	0.109	0.096
-254.107	-44.870	-0.331	-0.164
-253.092	56.294	0.028	0.027
-252.078	800.000	-0.135	-0.391
-251.063	800.000	0.079	-0.300
-250.049	-10.446	-0.083	0.054
-249.034	-45.482	-0.411	-0.203
-248.019	-200.000	-0.021	0.233
-247.005	377.140	0.121	0.246
-245.990	-169.419	-0.253	0.009
-244.976	-33.503	0.396	0.218
-243.961	-200.000	0.011	-0.066
-242.946	57.875	-0.251	0.245
-241.932	-110.275	0.241	0.050
-240.917	-72.009	-0.248	0.092
-239.903	-19.957	-0.402	0.247
-238.888	-155.173	-0.190	0.012
-237.873	273.496	0.079	0.138
-236.859	800.000	-0.067	0.224
-235.844	19.445	0.174	0.139
-234.830	181.377	0.147	0.215
-233.815	-60.177	-0.277	-0.117
-232.800	-200.000	0.007	-0.115
-231.786	-86.793	-0.262	-0.080
-230.771	-63.134	-0.142	0.058
-229.757	191.631	0.098	0.146
-228.742	113.309	0.311	-0.375
-227.727	108.654	0.123	0.146
-226.713	367.335	0.240	0.483
-225.698	-65.803	-0.349	0.139
-224.684	-200.000	0.001	-0.016
-223.669	-139.749	0.386	-0.041
-222.655	-171.207	0.149	-0.005
-221.640	235.368	-0.083	0.136
-220.625	-93.972	0.062	-0.017
-219.611	-121.874	-0.082	-0.013
-218.596	-200.000	0.028	0.408
-217.582	-200.000	0.018	-0.206
-216.567	-200.000	0.054	-0.337
-215.552	326.676	-0.098	-0.187
-214.538	-16.546	-0.191	0.121
-213.523	6.136	-0.159	0.117
-212.509	205.802	0.173	-0.267
-211.494	658.383	0.047	-0.121
-210.479	-133.332	0.363	0.045
-209.465	-200.000	-0.020	-0.115
-208.450	227.522	0.183	-0.295
-207.436	800.000	-0.067	-0.250
-206.421	14.124	-0.046	-0.036
-205.406	142.639	-0.108	-0.143
-204.392	-63.250	0.260	0.106
-203.377	-200.000	-0.011	-0.082
-202.363	-82.290	-0.065	-0.021
-201.348	97.421	0.083	-0.095
-200.333	800.000	0.088	0.372
-199.319	432.240	0.227	0.489
-198.304	-86.402	-0.111	-0.034
-197.290	800.000	0.086	0.293
-196.275	-200.000	-0.058	-0.335
-195.260	-79.565	0.450	-0.151
-194.246	562.534	-0.073	-0.174
-193.231	-123.790	0.245	-0.038
-192.217	800.000	0.065	0.216
-191.202	431.831	0.062	-0.134
-190.187	15.941	-0.374	0.293
-189.173	-20.906	-0.193	0.117
-188.158	800.000	-0.028	0.088
-187.144	64.668	-0.366	0.367
-186.129	244.120	0.148	0.246
-185.114	-72.104	-0.350	0.129
-184.100	-125.375	0.279	0.042
-183.085	800.000	0.042	-0.173
-182.071	390.139	-0.083	0.172
-181.056	-132.229	-0.296	0.038
-180.042	800.000	0.017	0.057
-179.027	224.387	0.090	0.145
-178.012	-200.000	-0.005	0.340
-176.998	-120.698	0.392	0.066
-175.983	800.000	0.026	0.074
-174.969	51.403	-0.066	0.062
-173.954	578.576	0.057	-0.139
-172.939	-135.409	0.346	-0.041
-171.925	800.000	-0.096	-0.288
-170.910	452.028	-0.038	-0.083
-169.896	-200.000	-0.008	-0.330
-168.881	-95.270	-0.132	0.035
-167.866	-94.703	0.123	-0.033
-166.852	2.157	0.139	-0.100
-165.837	-200.000	-0.045	-0.243
-164.823	80.769	0.135	-0.144
-163.808	-200.000	0.003	-0.185
-162.793	-107.714	-0.226	0.049
-161.779	191.010	0.053	-0.080
-160.764	57.595	0.244	0.236
-159.750	664.394	-0.128	0.328
-158.735	-143.541	0.138	0.013
-157.720	281.810	-0.151	0.268
-156.706	-200.000	0.009	0.161
-155.691	111.451	0.085	-0.102
-154.677	-91.797	-0.284	-0.080
-153.662	-167.348	0.183	0.007
-152.647	192.413	0.090	0.135
-151.633	615.853	-0.043	0.107
-150.618	-16.484	0.340	0.214
-149.604	278.330	-0.070	-0.123
-148.589	16.474	-0.027	0.021
-147.574	800.000	0.061	0.257
-146.560	-86.624	-0.200	-0.061
-145.545	-13.231	0.189	-0.122
-144.531	-105.357	-0.051	-0.011
-143.516	6.530	0.083	-0.061
-142.502	16.663	0.118	0.092
-141.487	31.410	-0.215	0.183
-140.472	622.834	-0.056	0.140
-139.458	800.000	-0.061	-0.179
-138.443	337.621	0.177	-0.342
-137.429	172.193	0.079	-0.113
-136.414	165.644	0.017	-0.024
-135.399	118.745	0.086	0.105
-134.385	-200.000	-0.027	0.129
-133.370	-87.711	-0.088	0.026
-132.356	-107.058	0.148	-0.032
-131.341	142.450	0.088	-0.115
-130.326	-29.344	-0.130	-0.074
-129.312	80.621	0.058	-0.062
-128.297	99.377	-0.095	0.109
-127.283	-41.853	-0.127	0.064
-126.268	54.069	0.071	0.068
-125.253	192.081	-0.159	-0.237
-124.239	-21.067	0.275	0.167
-123.224	88.537	0.095	-0.105
-122.210	-39.172	0.285	-0.148
-121.195	5.909	0.278	0.204
-120.180	-200.000	0.001	-0.061
-119.166	-200.000	-0.023	-0.285
-118.151	167.714	0.172	-0.242
-117.137	-147.471	-0.201	0.017
-116.122	-16.074	0.123	0.077
-115.107	-62.288	0.389	-0.160
-114.093	-139.040	0.140	-0.015
-113.078	-200.000	-0.073	0.412
-112.064	-100.545	0.301	-0.074
-111.049	-200.000	0.013	-0.277
-110.034	58.530	0.262	0.255
-109.020	141.215	-0.186	-0.243
-108.005	-198.765	0.348	-0.002
-106.991	-39.016	0.162	0.084
-105.976	-200.000	-0.034	0.323
-104.962	-200.000	0.009	0.137
-103.947	-102.094	0.363	0.086
-102.932	180.095	0.091	0.132
-101.918	4.089	-0.317	-0.230
-100.903	-10.251	0.231	0.152
-99.889	800.000	0.023	0.072
-98.874	269.233	-0.128	0.223
-97.859	-200.000	-0.008	-0.049
-96.845	-75.871	0.338	-0.118
-95.830	-64.206	-0.241	0.097
-94.816	-179.024	0.071	-0.002
-93.801	125.992	0.030	-0.038
-92.786	211.712	0.064	0.099
-91.772	-29.649	0.146	-0.082
-90.757	-13.811	-0.141	0.090
-89.743	800.000	0.132	-0.383
-88.728	-182.571	-0.257	0.005
-87.713	39.890	-0.100	-0.089
-86.699	800.000	-0.074	0.211
-85.684	-98.169	0.157	-0.040
-84.670	-38.075	-0.148	-0.077
-83.655	10.178	0.099	-0.074
-82.640	-68.256	-0.275	0.106
-81.626	-200.000	-0.062	0.315
-80.611	456.812	-0.123	0.270
-79.597	-108.512	-0.195	-0.041
-78.582	-90.670	0.384	-0.109
-77.567	800.000	0.051	0.188
-76.553	-30.512	0.126	-0.070
-75.538	-47.537	-0.264	-0.127
-74.524	69.022	-0.099	-0.101
-73.509	-200.000	0.004	-0.034
-72.494	-68.606	0.300	0.115
-71.480	-138.744	0.205	0.022
-70.465	-55.074	-0.128	-0.057
-69.451	-75.322	0.279	0.098
-68.436	-78.983	-0.261	0.088
-67.422	172.153	0.123	0.175
-66.407	-116.058	0.279	-0.051
-65.392	-40.672	-0.132	0.068
-64.378	581.098	0.074	0.179
-63.363	107.552	-0.061	-0.072
-62.349	800.000	0.030	-0.119
-61.334	81.325	-0.769	-0.820
-60.319	17.605	0.537	0.422
-59.305	268.092	-0.423	-0.731
-58.290	399.119	0.630	1.303
-57.276	800.000	0.460	1.572
-56.261	-200.000	98.017	606.441
-55.246	588.516	1401.129	3407.724
-54.232	188.645	2601.779	3843.027
-53.217	106.725	2306.747	2702.398
-52.203	38.134	2062.743	1812.060
-51.188	33.329	1976.814	1693.642
-50.173	31.677	1958.624	1663.332
-49.159	46.284	2009.748	1838.571
-48.144	47.840	2027.035	1868.323
-47.130	33.835	1988.165	1707.644
-46.115	31.548	1978.092	1678.436
-45.100	31.391	1975.370	1674.660
-44.086	31.366	1972.945	1672.307
-43.071	31.265	1970.380	1669.168
-42.057	31.274	1968.078	1667.231
-41.042	31.320	1966.398	1666.153
-40.027	31.358	1964.167	1664.532
-39.013	31.415	1961.765	1662.942
-37.998	31.402	1959.936	1661.211
-36.984	31.436	1958.356	1660.103
-35.969	31.496	1955.890	1658.479
-34.954	31.514	1954.716	1657.575
-33.940	31.540	1953.403	1656.625
-32.925	31.472	1951.885	1654.674
-31.911	31.473	1950.150	1653.148
-30.896	31.522	1948.541	1652.149
-29.881	31.497	1946.916	1650.485
-28.867	31.513	1945.757	1649.580
-27.852	31.539	1944.063	1648.305
-26.838	31.582	1941.418	1646.373
-25.823	31.489	1940.633	1644.831
-24.809	31.599	1938.107	1643.585
-23.794	31.517	1936.502	1641.442
-22.779	31.521	1934.825	1639.993
-21.765	31.511	1933.066	1638.350
-20.750	31.462	1931.646	1636.646
-19.736	31.512	1930.009	1635.635
-18.721	31.503	1928.668	1634.351
-17.706	31.538	1926.949	1633.139
-16.692	31.456	1925.441	1631.084
-15.677	31.509	1924.091	1630.331
-14.663	31.477	1922.509	1628.654
-13.648	31.533	1921.025	1627.814
-12.633	31.537	1919.564	1626.549
-11.619	31.530	1918.712	1625.702
-10.604	31.592	1917.190	1624.886
-9.590	31.521	1915.500	1622.775
-8.575	31.491	1914.409	1621.521
-7.560	31.517	1912.956	1620.455
-6.546	31.527	1911.755	1619.456
-5.531	31.507	1910.314	1618.001
-4.517	31.487	1909.604	1617.162
-3.502	31.528	1908.370	1616.409
-2.487	31.460	1907.266	1614.819
-1.473	31.465	1906.158	1613.862
-0.458	31.498	1901.521	1610.155
0.556	28.850	1880.693	1580.843
1.571	24.471	1861.433	1527.144
2.586	20.446	1883.601	1510.279
3.600	19.425	1919.241	1529.668
4.615	19.244	1914.637	1524.263
5.629	14.728	1815.022	1406.869
6.644	5.341	1695.912	1240.236
7.659	0.232	1658.417	1172.990
8.673	-0.246	1655.149	1166.860
9.688	-0.248	1653.454	1165.549
10.702	-0.300	1651.986	1164.005
11.717	-0.465	1648.914	1160.459
12.731	-0.178	1647.704	1161.731
13.746	5.916	1661.921	1219.091
14.761	15.300	1683.032	1307.988
15.775	19.669	1690.167	1347.567
16.790	20.150	1691.329	1352.127
17.804	20.221	1690.591	1351.966
18.819	20.256	1689.289	1351.082
19.834	20.394	1688.478	1351.382
20.848	20.526	1688.208	1352.081
21.863	20.503	1687.750	1351.410
22.877	20.522	1686.616	1350.531
23.892	20.586	1685.661	1350.147
24.907	20.672	1684.290	1349.591
25.921	20.550	1683.774	1348.115
26.936	20.582	1682.575	1347.283
27.950	20.640	1681.388	1346.659
28.965	20.681	1680.802	1346.394
29.980	20.598	1680.099	1345.066
30.994	20.591	1678.944	1343.973
32.009	20.673	1676.720	1342.707
33.023	20.539	1676.445	1341.331
34.038	20.592	1675.804	1341.110
35.053	20.567	1674.422	1339.687
36.067	20.553	1673.355	1338.611
37.082	20.568	1672.394	1337.840
38.096	20.578	1670.899	1336.602
39.111	20.589	1670.994	1336.640
40.126	20.566	1670.171	1335.689
41.140	20.637	1668.951	1335.138
42.155	20.559	1667.728	1333.449
43.169	20.609	1666.419	1332.664
44.184	20.539	1665.926	1331.617
45.199	20.521	1664.349	1330.099
46.213	20.561	1663.099	1329.288
47.228	20.545	1662.035	1328.201
48.242	20.523	1661.054	1327.130
49.257	20.490	1660.188	1326.072
50.271	20.576	1658.544	1325.291
51.286	20.542	1657.224	1323.864
52.301	20.573	1655.875	1322.902
53.315	20.455	1654.558	1320.840
54.330	20.650	1652.578	1320.620
55.344	20.434	1652.456	1318.763
56.359	20.525	1650.655	1317.906
57.374	20.544	1649.483	1316.995
58.388	20.652	1648.304	1316.754
59.403	20.566	1647.352	1315.228
60.417	20.561	1646.360	1314.284
61.432	20.588	1645.335	1313.547
62.447	20.622	1643.957	1312.594
63.461	20.569	1642.997	1311.306
64.476	20.626	1641.972	1310.803
65.490	20.582	1640.580	1309.242
66.505	20.552	1639.912	1308.371
67.520	20.573	1638.628	1307.390
68.534	20.618	1637.387	1306.620
69.549	20.568	1636.712	1305.592
70.563	20.522	1635.721	1304.338
71.578	20.573	1634.094	1303.307
72.593	20.699	1632.910	1303.192
73.607	20.607	1632.306	1301.909
74.622	20.582	1630.943	1300.521
75.636	20.621	1630.076	1300.003
76.651	20.594	1629.459	1299.197
77.666	20.711	1628.156	1298.910
78.680	20.557	1627.925	1297.465
79.695	20.577	1626.674	1296.501
80.709	20.635	1625.650	1296.005
81.724	20.606	1624.886	1295.063
82.739	20.640	1623.793	1294.331
83.753	20.591	1623.519	1293.633
84.768	20.619	1621.987	1292.505
85.782	20.594	1620.986	1291.409
86.797	20.641	1620.186	1291.006
87.812	20.614	1619.176	1289.888
88.826	20.656	1617.869	1289.045
89.841	20.576	1617.197	1287.802
90.855	20.700	1615.817	1287.502
91.870	20.679	1614.637	1286.295
92.884	20.602	1614.127	1285.206
93.899	20.654	1612.853	1284.465
94.914	20.690	1612.086	1284.004
95.928	20.577	1611.073	1282.252
96.943	20.601	1609.488	1281.050
97.957	20.658	1607.844	1280.049
98.972	20.639	1606.788	1278.953
99.987	20.644	1605.342	1277.730
101.001	20.586	1604.172	1276.257
102.016	20.665	1602.236	1275.185
103.030	20.527	1600.822	1272.935
104.045	20.624	1599.293	1272.313
105.060	20.590	1598.349	1271.204
106.074	20.644	1596.921	1270.351
107.089	20.708	1595.360	1269.460
108.103	20.657	1594.409	1268.220
109.118	20.666	1593.418	1267.389
110.133	20.726	1591.704	1266.346
111.147	20.662	1590.406	1264.735
112.162	20.718	1589.111	1264.003
113.176	20.760	1587.521	1262.930
114.191	20.710	1587.140	1262.154
115.206	20.634	1586.374	1260.884
116.220	20.757	1584.596	1260.250
117.235	20.730	1583.420	1259.004
118.249	20.752	1582.133	1258.028
119.264	20.644	1580.804	1256.086
120.279	20.674	1579.714	1255.323
121.293	20.732	1578.063	1254.314
122.308	20.776	1577.119	1253.772
123.322	20.799	1575.448	1252.497
124.337	20.709	1574.355	1250.872
125.352	20.767	1573.498	1250.498
126.366	20.745	1572.318	1249.291
127.381	20.841	1571.132	1248.927
128.395	20.830	1570.603	1248.315
129.410	20.903	1568.687	1247.204
130.424	20.855	1567.401	1245.728
131.439	20.762	1566.297	1244.078
132.454	20.800	1565.436	1243.554
133.468	20.780	1563.773	1241.979
134.483	20.792	1562.086	1240.615
135.497	20.783	1561.457	1239.944
136.512	20.751	1560.174	1238.590
137.527	20.805	1558.731	1237.719
138.541	20.850	1557.459	1236.913
139.556	20.799	1556.538	1235.711
140.570	20.734	1555.458	1234.283
141.585	20.749	1553.766	1232.940
142.600	20.673	1553.253	1231.887
143.614	20.844	1551.871	1231.887
144.629	20.858	1550.528	1230.812
145.643	20.778	1549.339	1229.194
146.658	20.777	1547.996	1228.012
147.673	20.694	1546.795	1226.369
148.687	20.730	1545.545	1225.520
149.702	20.819	1544.002	1224.818
150.716	20.732	1542.459	1222.876
151.731	20.682	1541.659	1221.777
152.746	20.759	1540.795	1221.529
153.760	20.765	1539.273	1220.253
154.775	20.848	1538.145	1219.831
155.789	20.907	1537.054	1219.271
156.804	20.880	1535.994	1218.138
157.819	20.673	1535.652	1216.311
158.833	20.759	1534.174	1215.630
159.848	20.816	1533.158	1215.118
160.862	20.946	1531.661	1214.730
161.877	20.955	1530.580	1213.826
162.892	20.941	1529.774	1212.984
163.906	20.879	1528.924	1211.769
164.921	20.917	1527.780	1211.020
165.935	20.955	1527.046	1210.599
166.950	20.977	1525.916	1209.743
167.964	20.910	1525.496	1208.841
168.979	20.945	1524.148	1207.911
169.994	20.929	1523.927	1207.518
171.008	20.945	1522.393	1206.301
172.023	21.032	1520.885	1205.601
173.037	20.887	1520.402	1204.110
174.052	20.970	1519.116	1203.560
175.067	20.973	1518.337	1202.858
176.081	20.917	1517.524	1201.722
177.096	20.937	1516.105	1200.631
178.110	20.942	1515.562	1200.123
179.125	20.887	1514.302	1198.642
180.140	20.961	1513.376	1198.312
181.154	20.953	1512.627	1197.557
182.169	20.935	1511.804	1196.678
183.183	20.919	1510.769	1195.646
184.198	20.987	1509.470	1194.978
185.213	20.891	1508.653	1193.568
186.227	21.040	1507.897	1193.882
187.242	21.077	1506.949	1193.280
188.256	20.980	1506.053	1191.804
189.271	21.004	1505.249	1191.220
190.286	21.083	1504.483	1191.050
191.300	21.107	1503.642	1190.442
192.315	21.137	1502.659	1189.762
193.329	21.016	1501.495	1187.916
194.344	21.062	1500.592	1187.403
195.359	21.045	1499.817	1186.575
196.373	20.970	1499.562	1185.755
197.388	21.048	1498.406	1185.268
198.402	21.019	1497.254	1184.056
199.417	20.986	1496.082	1182.802
200.432	20.932	1495.717	1182.039
201.446	21.140	1494.263	1182.196
202.461	21.037	1493.289	1180.623
203.475	21.029	1492.841	1180.110
204.490	20.999	1491.956	1179.101
205.504	20.907	1491.281	1177.839
206.519	20.963	1490.027	1177.126
207.534	21.037	1489.036	1176.737
208.548	21.141	1488.516	1176.926
209.563	21.059	1487.295	1175.304
210.577	21.070	1486.452	1174.604
211.592	21.126	1485.559	1174.176
212.607	21.050	1485.226	1173.294
213.621	21.066	1484.500	1172.724
214.636	21.166	1484.003	1172.898
215.650	21.108	1482.713	1171.390
216.665	21.089	1481.905	1170.520
217.680	21.109	1480.876	1169.737
218.694	21.119	1480.885	1169.705
219.709	21.172	1479.545	1168.904
220.723	21.130	1478.745	1167.881
221.738	21.149	1478.400	1167.634
222.753	21.160	1477.004	1166.505
223.767	21.085	1476.092	1165.179
224.782	21.013	1475.752	1164.325
225.796	21.110	1474.941	1164.231
226.811	21.234	1473.729	1163.995
227.826	21.211	1473.444	1163.515
228.840	21.216	1472.317	1162.554
229.855	21.157	1471.622	1161.513
230.869	21.212	1470.984	1161.272
231.884	21.289	1469.392	1160.426
232.899	21.245	1468.530	1159.350
233.913	21.259	1467.348	1158.404
234.928	21.186	1466.417	1157.085
235.942	21.207	1465.794	1156.631
236.957	21.305	1464.797	1156.390
237.972	21.359	1463.375	1155.520
238.986	21.323	1462.505	1154.491
240.001	21.288	1461.490	1153.357
241.015	21.299	1460.413	1152.480
242.030	21.342	1459.673	1152.076
243.045	21.334	1459.158	1151.516
244.059	21.370	1457.832	1150.602
245.074	21.334	1457.234	1149.795
246.088	21.396	1456.215	1149.296
247.103	21.426	1455.959	1149.188
248.117	21.383	1455.122	1148.147
249.132	21.403	1454.028	1147.312
250.147	21.457	1453.327	1147.008
251.161	21.456	1453.092	1146.715
252.176	21.447	1452.126	1145.792
253.190	21.594	1451.336	1146.030
254.205	21.525	1450.098	1144.500
255.220	21.419	1449.550	1143.274
256.234	21.416	1448.706	1142.485
257.249	21.480	1447.948	1142.205
258.263	21.417	1447.297	1141.182
259.278	21.461	1446.105	1140.430
260.293	21.460	1445.516	1139.859
261.307	21.502	1444.671	1139.360
262.322	21.529	1444.379	1139.208
263.336	21.538	1443.602	1138.552
264.351	21.530	1442.513	1137.538
265.366	21.513	1441.466	1136.507
266.380	21.471	1440.967	1135.734
267.395	21.563	1439.829	1135.336
268.409	21.550	1439.303	1134.739
269.424	21.528	1437.950	1133.425
270.439	21.619	1436.806	1133.014
271.453	21.666	1435.921	1132.521
272.468	21.497	1435.764	1131.202
273.482	21.671	1434.638	1131.342
274.497	21.543	1433.811	1129.763
275.512	21.549	1433.270	1129.276
276.526	21.577	1432.636	1128.853
277.541	21.610	1431.635	1128.176
278.555	21.655	1430.703	1127.631
279.570	21.678	1430.001	1127.127
280.585	21.741	1428.795	1126.484
281.599	21.600	1428.480	1125.231
282.614	21.527	1427.636	1123.998
283.628	21.685	1426.382	1123.920
284.643	21.605	1425.221	1122.394
285.657	21.751	1424.558	1122.708
286.672	21.710	1423.794	1121.747
287.687	21.761	1422.628	1121.056
288.701	21.635	1421.588	1119.330
289.716	21.737	1421.588	1119.883
290.730	21.696	1420.833	1118.924
291.745	21.761	1419.473	1118.171
292.760	21.635	1419.167	1117.031
293.774	21.728	1418.355	1116.884
294.789	21.745	1417.539	1116.251
295.803	21.760	1416.281	1115.253
296.818	21.865	1415.142	1114.926
297.833	21.849	1414.202	1113.988
298.847	21.792	1413.405	1112.896
299.862	21.758	1413.141	1112.379
300.876	21.696	1412.411	1111.311
301.891	21.853	1410.764	1110.911
302.906	21.879	1410.280	1110.598
303.920	21.932	1409.383	1110.129
304.935	21.972	1408.859	1109.871
305.949	22.086	1407.743	1109.614
306.964	21.843	1407.875	1108.080
307.979	21.968	1406.525	1107.709
308.993	21.891	1405.459	1106.290
310.008	21.954	1404.884	1106.132
311.022	21.929	1404.099	1105.261
312.037	21.955	1403.049	1104.500
313.052	21.922	1402.323	1103.624
314.066	21.945	1400.933	1102.576
315.081	22.017	1400.080	1102.262
316.095	21.925	1399.713	1101.295
317.110	22.019	1398.688	1100.983
318.125	21.997	1397.667	1099.940
319.139	22.030	1396.656	1099.254
320.154	22.043	1395.918	1098.659
321.168	21.971	1395.452	1097.743
322.183	21.969	1394.473	1096.866
323.197	22.030	1393.406	1096.307
324.212	22.013	1392.332	1095.258
325.227	21.938	1392.127	1094.532
326.241	22.003	1390.874	1093.858
327.256	22.050	1390.231	1093.549
328.270	22.220	1389.445	1093.893
329.285	22.134	1388.604	1092.597
330.300	22.118	1387.829	1091.790
331.314	22.065	1387.206	1090.878
332.329	22.172	1385.834	1090.365
333.343	22.076	1385.618	1089.502
334.358	22.155	1384.787	1089.244
335.373	22.143	1383.969	1088.426
336.387	22.253	1382.809	1088.099
337.402	22.271	1382.327	1087.739
338.416	22.280	1382.073	1087.495
339.431	22.277	1381.315	1086.785
340.446	22.200	1380.848	1085.844
341.460	22.307	1379.482	1085.336
342.475	22.314	1378.691	1084.657
343.489	22.256	1377.957	1083.628
344.504	22.314	1377.384	1083.438
345.519	22.267	1376.025	1081.985
346.533	22.288	1375.187	1081.357
347.548	22.257	1374.438	1080.485
348.562	22.318	1373.653	1080.145
349.577	22.357	1373.086	1079.846
350.592	22.353	1372.449	1079.224
351.606	22.309	1371.683	1078.255
352.621	22.251	1370.245	1076.677
353.635	22.377	1369.459	1076.735
354.650	22.361	1368.556	1075.830
355.665	22.375	1368.034	1075.411
356.679	22.387	1366.739	1074.371
357.694	22.392	1365.702	1073.490
358.708	22.383	1364.783	1072.619
359.723	22.452	1363.401	1071.859
360.738	22.352	1362.748	1070.638
361.752	22.375	1361.829	1069.962
362.767	22.377	1360.727	1069.017
363.781	22.384	1360.051	1068.434
364.796	22.361	1359.334	1067.637
365.810	22.472	1358.555	1067.603
366.825	22.467	1357.391	1066.561
367.840	22.464	1357.038	1066.171
368.854	22.495	1356.002	1065.452
369.869	22.561	1356.015	1065.769
370.883	22.530	1355.139	1064.793
371.898	22.546	1354.280	1064.125
372.913	22.571	1353.685	1063.715
373.927	22.547	1352.946	1062.894
374.942	22.592	1351.750	1062.131
375.956	22.609	1351.585	1062.008
376.971	22.548	1350.714	1060.863
377.986	22.568	1349.872	1060.228
379.000	22.504	1349.206	1059.229
380.015	22.575	1348.500	1059.008
381.029	22.693	1347.543	1058.872
382.044	22.642	1346.959	1058.011
383.059	22.557	1346.675	1057.182
384.073	22.691	1345.662	1057.098
385.088	22.738	1345.090	1056.838
386.102	22.710	1344.132	1055.822
387.117	22.779	1343.527	1055.671
388.132	22.738	1343.020	1054.930
389.146	22.698	1342.351	1054.074
390.161	22.764	1341.470	1053.683
391.175	22.850	1340.662	1053.466
392.190	22.817	1339.706	1052.428
393.205	22.820	1339.084	1051.862
394.219	22.694	1338.463	1050.531
395.234	22.786	1337.118	1049.929
396.248	22.785	1335.994	1048.945
397.263	22.807	1334.927	1048.149
398.278	22.830	1333.824	1047.326
399.292	22.810	1332.922	1046.404
400.307	22.923	1332.095	1046.333
401.321	23.011	1330.848	1045.780
402.336	22.866	1330.491	1044.553
403.350	22.957	1328.829	1043.691
404.365	22.886	1328.458	1042.888
405.380	22.894	1327.740	1042.280
406.394	22.942	1326.521	1041.513
407.409	22.978	1325.946	1041.183
408.423	23.013	1325.280	1040.770
409.438	22.905	1324.860	1039.716
410.453	23.023	1324.028	1039.666
411.467	23.101	1323.114	1039.314
412.482	23.047	1322.603	1038.506
413.496	23.010	1322.321	1037.974
414.511	22.979	1321.002	1036.662
415.526	23.056	1320.285	1036.461
416.540	23.220	1318.957	1036.284
417.555	23.109	1318.496	1035.182
418.569	23.066	1318.471	1034.822
419.584	22.987	1318.448	1034.248
420.599	23.078	1317.537	1033.975
421.613	138.855	1429.481	1796.058
422.628	135.066	1445.754	1796.152
