DTS Sentinel unit serial number:	SN413079Multiplexer serial number:	ORYXHardware model number:	OX4-SRSoftware version number:	ORYX F/W v4.00 Oryx Data Collector v3.7.2.0data status	okinstallation	princeton_trtdifferential loss correction	single-endedforward channel	channel 4reverse channel	N/Adate	2019/09/10time	15:35:11forward acquisition time	60.00reverse acquisition time	0.00gamma	496.2192k internal	0.2293k external	0.2293temperature offset calibration	0.9939default loss term (dB/km)	0.3790temperature slope calibration	1.0000multiplexer offset coefficient	1.0000multiplexer slope coefficient	1.0000fibre end	0.00T internal ref (°C)	37.94T ext. ref 1 (°C)	-0.29T ext. ref 2 (°C)	32.24length (m)	temperature (°C)	Stokes	anti-Stokes-747.200	4.781	-0.268	0.202
-746.185	339.079	0.135	0.268
-745.171	-4.835	0.286	-0.202
-744.156	172.849	-0.128	0.189
-743.142	225.162	-0.065	-0.107
-742.127	-51.098	0.111	0.053
-741.112	-72.167	-0.179	0.068
-740.098	-24.858	-0.087	-0.053
-739.083	301.241	0.085	0.161
-738.069	481.836	0.204	0.475
-737.054	76.622	0.146	0.158
-736.039	60.483	-0.169	-0.171
-735.025	-54.093	0.107	-0.050
-734.010	-18.534	-0.101	0.065
-732.996	308.347	-0.192	-0.367
-731.981	-200.000	0.004	0.040
-730.966	186.525	0.128	0.195
-729.952	-59.594	0.057	0.025
-728.937	-200.000	-0.030	0.149
-727.923	-64.243	-0.385	0.160
-726.908	285.639	-0.171	-0.315
-725.894	-200.000	0.008	0.318
-724.879	93.810	-0.228	0.265
-723.864	32.489	0.275	0.243
-722.850	800.000	-0.082	-0.263
-721.835	-48.788	-0.365	-0.179
-720.821	-139.026	0.101	-0.011
-719.806	-155.712	-0.373	-0.024
-718.791	241.684	-0.005	-0.008
-717.777	532.589	-0.061	0.148
-716.762	-62.862	-0.076	0.032
-715.748	212.785	0.177	-0.285
-714.733	287.190	0.129	0.239
-713.718	405.726	0.146	-0.315
-712.704	-116.210	0.364	-0.069
-711.689	53.519	0.115	0.113
-710.675	-200.000	0.013	-0.389
-709.660	131.085	-0.133	-0.174
-708.645	-67.890	-0.211	-0.084
-707.631	619.938	0.046	-0.119
-706.616	90.754	-0.032	-0.036
-705.602	84.874	0.121	-0.135
-704.587	800.000	0.092	-0.284
-703.572	-200.000	0.049	-0.288
-702.558	-183.159	0.097	0.002
-701.543	-5.944	0.287	0.201
-700.529	47.508	-0.116	0.111
-699.514	-200.000	-0.014	-0.064
-698.499	800.000	-0.090	-0.391
-697.485	-17.641	0.055	0.035
-696.470	800.000	-0.012	0.039
-695.456	108.079	-0.051	-0.062
-694.441	-18.204	-0.205	0.131
-693.426	-200.000	0.039	-0.225
-692.412	-88.874	0.187	-0.056
-691.397	-101.388	0.260	0.065
-690.383	198.675	0.050	-0.078
-689.368	800.000	-0.020	-0.078
-688.354	-98.755	0.168	-0.044
-687.339	134.284	0.147	0.194
-686.324	-71.251	0.438	0.168
-685.310	-200.000	0.082	0.387
-684.295	744.745	-0.064	-0.175
-683.281	128.452	0.137	0.178
-682.266	277.526	0.232	-0.422
-681.251	-98.082	-0.399	-0.105
-680.237	-200.000	0.031	0.232
-679.222	-4.755	0.320	-0.225
-678.208	800.000	-0.131	-0.404
-677.193	-46.265	-0.051	-0.025
-676.178	-66.611	-0.190	-0.077
-675.164	-82.358	0.067	-0.022
-674.149	-57.598	-0.205	0.092
-673.135	800.000	0.067	0.256
-672.120	-70.011	-0.128	0.050
-671.105	-69.930	-0.352	-0.137
-670.091	-200.000	-0.023	-0.264
-669.076	-66.736	0.330	-0.133
-668.062	-109.930	-0.029	-0.006
-667.047	-63.959	-0.242	-0.101
-666.032	-82.684	0.161	0.053
-665.018	58.871	0.183	-0.183
-664.003	89.231	0.198	-0.225
-662.989	50.865	0.046	0.044
-661.974	310.554	-0.163	-0.311
-660.959	229.432	-0.189	0.315
-659.945	-156.262	0.338	-0.022
-658.930	-93.608	-0.132	-0.037
-657.916	137.564	0.174	-0.232
-656.901	3.988	-0.189	-0.141
-655.886	800.000	-0.020	0.083
-654.872	210.988	-0.120	0.193
-653.857	-126.174	0.059	-0.009
-652.843	-158.689	0.130	0.008
-651.828	-93.235	-0.329	-0.093
-650.814	137.322	0.141	-0.188
-649.799	800.000	-0.026	-0.086
-648.784	-200.000	0.009	-0.066
-647.770	-113.548	-0.160	-0.032
-646.755	52.196	-0.170	-0.165
-645.741	127.406	0.089	-0.115
-644.726	-51.215	-0.303	-0.145
-643.711	-4.168	0.167	-0.118
-642.697	88.101	0.191	0.216
-641.682	-81.700	-0.059	0.020
-640.668	-141.398	-0.217	0.022
-639.653	345.122	0.136	-0.273
-638.638	-200.000	0.001	0.013
-637.624	-100.938	0.317	-0.079
-636.609	-92.459	0.172	0.049
-635.595	-80.203	0.089	-0.030
-634.580	-200.000	0.003	-0.171
-633.565	51.971	0.335	-0.325
-632.551	310.975	0.162	0.310
-631.536	-200.000	0.046	0.205
-630.522	-38.724	-0.162	0.087
-629.507	157.718	0.006	0.009
-628.492	13.519	-0.248	0.196
-627.478	52.578	-0.274	0.266
-626.463	-68.914	-0.278	0.109
-625.449	-73.289	-0.251	0.093
-624.434	-123.049	-0.221	-0.036
-623.419	122.458	-0.213	0.271
-622.405	342.726	0.155	0.309
-621.390	-153.230	-0.167	-0.012
-620.376	474.135	0.087	-0.199
-619.361	92.558	0.176	0.202
-618.346	-200.000	0.001	0.101
-617.332	800.000	-0.081	-0.324
-616.317	198.924	0.051	-0.080
-615.303	-48.202	0.273	0.134
-614.288	191.001	0.087	0.133
-613.273	-117.896	-0.229	0.042
-612.259	633.440	-0.008	0.020
-611.244	-200.000	-0.013	0.086
-610.230	166.380	-0.153	-0.220
-609.215	800.000	-0.080	0.256
-608.201	-200.000	0.006	-0.195
-607.186	-200.000	-0.004	0.020
-606.171	56.632	-0.079	0.078
-605.157	-200.000	0.003	-0.222
-604.142	148.200	-0.076	-0.104
-603.128	74.422	0.265	0.284
-602.113	-200.000	-0.005	-0.048
-601.098	402.458	-0.032	-0.068
-600.084	800.000	-0.034	-0.139
-599.069	800.000	-0.042	-0.159
-598.055	-93.696	0.272	0.076
-597.040	209.111	0.199	-0.317
-596.025	27.945	-0.215	0.184
-595.011	-113.941	-0.279	0.055
-593.996	-200.000	0.052	0.234
-592.982	-68.525	-0.459	0.181
-591.967	364.077	-0.114	-0.234
-590.952	-200.000	0.018	0.081
-589.938	-133.967	-0.070	0.009
-588.923	-50.108	0.267	-0.129
-587.909	150.159	0.164	-0.226
-586.894	800.000	-0.092	-0.398
-585.879	147.701	-0.143	0.196
-584.865	-200.000	-0.003	0.109
-583.850	-200.000	-0.015	0.237
-582.836	-18.320	0.174	-0.111
-581.821	-51.699	-0.294	-0.139
-580.806	-200.000	-0.029	0.160
-579.792	-73.183	0.227	0.085
-578.777	285.641	0.129	-0.236
-577.763	-173.127	0.284	-0.009
-576.748	14.054	-0.097	-0.077
-575.733	38.974	0.248	0.225
-574.719	-133.067	0.198	-0.026
-573.704	136.068	-0.139	-0.184
-572.690	5.474	-0.077	0.058
-571.675	-103.606	0.237	-0.056
-570.661	36.374	0.137	0.123
-569.646	-127.781	-0.195	-0.029
-568.631	30.776	0.101	-0.088
-567.617	-2.126	0.142	-0.101
-566.602	-43.576	-0.354	0.181
-565.588	800.000	-0.025	-0.074
-564.573	1.804	-0.039	0.029
-563.558	-200.000	0.059	-0.464
-562.544	800.000	-0.130	-0.471
-561.529	34.087	-0.144	-0.127
-560.515	71.547	-0.180	-0.190
-559.500	133.401	0.253	0.332
-558.485	-135.227	-0.329	0.040
-557.471	-151.301	0.168	0.013
-556.456	354.868	0.129	-0.260
-555.442	-200.000	0.031	0.385
-554.427	-64.179	-0.145	0.060
-553.412	-200.000	0.041	-0.319
-552.398	-109.752	-0.329	-0.070
-551.383	27.144	-0.304	-0.259
-550.369	-16.812	0.288	-0.185
-549.354	629.621	-0.090	-0.230
-548.339	-44.827	-0.040	0.020
-547.325	453.939	0.041	-0.092
-546.310	-41.338	-0.246	0.128
-545.296	-52.468	-0.097	0.046
-544.281	-58.899	-0.471	-0.207
-543.266	120.735	-0.136	-0.171
-542.252	89.064	-0.152	-0.172
-541.237	634.676	0.052	-0.135
-540.223	-194.000	-0.138	0.001
-539.208	54.740	-0.096	-0.094
-538.193	-71.059	0.469	0.179
-537.179	19.379	0.215	0.176
-536.164	590.839	0.037	-0.093
-535.150	800.000	-0.068	-0.230
-534.135	-62.730	-0.180	0.076
-533.121	-166.085	0.216	-0.009
-532.106	338.777	-0.085	0.168
-531.091	-87.604	-0.140	0.043
-530.077	24.109	-0.185	0.155
-529.062	800.000	0.127	0.396
-528.048	132.111	-0.099	0.129
-527.033	160.687	0.082	0.116
-526.018	-200.000	-0.012	-0.161
-525.004	381.776	-0.018	-0.037
-523.989	-200.000	0.008	0.037
-522.975	185.020	-0.056	-0.084
-521.960	800.000	-0.044	-0.178
-520.945	-90.695	0.244	0.071
-519.931	20.222	0.338	-0.277
-518.916	249.990	-0.101	-0.175
-517.902	-112.817	0.236	0.047
-516.887	-200.000	-0.055	0.304
-515.872	358.383	0.091	0.185
-514.858	438.734	-0.079	-0.174
-513.843	91.572	-0.070	0.079
-512.829	126.150	0.015	-0.020
-511.814	38.919	-0.106	0.096
-510.799	800.000	0.063	0.180
-509.785	-109.779	0.115	0.024
-508.770	9.350	-0.238	-0.183
-507.756	86.056	0.326	-0.363
-506.741	101.510	0.104	0.122
-505.726	1.873	-0.126	0.092
-504.712	-32.181	-0.163	0.092
-503.697	-155.858	-0.127	-0.008
-502.683	252.974	0.102	0.177
-501.668	-139.301	0.040	-0.004
-500.653	-39.740	0.234	-0.124
-499.639	-200.000	-0.023	-0.169
-498.624	-200.000	0.039	-0.299
-497.610	-83.903	-0.325	0.105
-496.595	800.000	-0.089	-0.389
-495.581	-156.049	-0.134	-0.009
-494.566	-200.000	0.022	-0.198
-493.551	476.958	0.046	-0.105
-492.537	-87.359	-0.266	-0.082
-491.522	586.134	0.036	-0.090
-490.508	-200.000	0.004	-0.034
-489.493	0.323	-0.162	0.117
-488.478	-54.137	0.113	0.052
-487.464	-172.688	-0.215	-0.007
-486.449	363.432	0.189	0.384
-485.435	73.198	0.116	0.123
-484.420	-113.272	-0.160	0.032
-483.405	237.401	0.166	-0.279
-482.391	-113.106	-0.211	0.042
-481.376	-187.580	-0.101	-0.001
-480.362	-200.000	0.034	-0.260
-479.347	800.000	0.088	-0.365
-478.332	182.186	-0.060	-0.089
-477.318	-90.449	-0.067	0.020
-476.303	800.000	-0.066	0.255
-475.289	-200.000	-0.049	0.257
-474.274	0.064	0.262	0.189
-473.259	-5.371	-0.083	-0.058
-472.245	-123.651	-0.257	0.041
-471.230	641.750	0.121	0.312
-470.216	-200.000	-0.011	0.137
-469.201	-200.000	-0.022	-0.125
-468.186	155.342	0.071	-0.099
-467.172	-200.000	0.025	-0.178
-466.157	13.050	-0.184	-0.144
-465.143	83.882	-0.090	0.099
-464.128	467.150	0.114	0.259
-463.113	184.870	-0.225	0.337
-462.099	87.659	0.161	-0.181
-461.084	-41.015	0.125	-0.066
-460.070	-25.616	-0.285	-0.170
-459.055	-139.722	-0.201	-0.022
-458.040	45.262	-0.088	-0.082
-457.026	81.970	0.292	0.320
-456.011	-25.493	-0.248	0.148
-454.997	-98.187	-0.390	0.102
-453.982	556.590	0.104	-0.254
-452.968	92.862	-0.028	0.032
-451.953	52.429	-0.155	0.149
-450.938	130.291	0.025	0.033
-449.924	-200.000	-0.082	-0.521
-448.909	-18.386	0.194	0.123
-447.895	-20.829	0.188	-0.117
-446.880	-77.552	-0.104	-0.036
-445.865	-19.917	-0.259	-0.162
-444.851	162.393	-0.123	-0.175
-443.836	669.749	0.003	0.009
-442.822	-200.000	-0.014	-0.215
-441.807	-112.613	-0.074	0.015
-440.792	-71.589	-0.146	0.055
-439.778	86.085	0.192	0.214
-438.763	-124.430	-0.343	0.054
-437.749	-25.673	0.049	0.029
-436.734	-100.102	0.169	-0.043
-435.719	224.973	-0.137	-0.225
-434.705	49.068	0.064	0.061
-433.690	800.000	0.060	-0.260
-432.676	-144.815	-0.346	-0.032
-431.661	-200.000	-0.014	0.169
-430.646	263.568	0.129	0.227
-429.632	726.123	-0.072	0.195
-428.617	101.247	0.136	-0.161
-427.603	800.000	-0.076	0.220
-426.588	-60.273	-0.119	0.051
-425.573	148.778	0.102	-0.140
-424.559	245.060	0.147	0.250
-423.544	228.230	-0.134	0.220
-422.530	19.763	0.147	-0.120
-421.515	-161.713	-0.331	0.017
-420.500	-53.892	0.324	0.149
-419.486	88.845	-0.115	0.129
-418.471	800.000	0.043	0.127
-417.457	351.782	-0.102	0.204
-416.442	5.736	-0.208	0.155
-415.428	-106.288	-0.124	0.028
-414.413	65.758	0.275	-0.281
-413.398	800.000	0.093	-0.296
-412.384	-64.782	0.619	0.253
-411.369	800.000	0.061	0.243
-410.355	617.242	0.055	0.138
-409.340	184.603	0.108	-0.162
-408.325	22.294	0.051	-0.042
-407.311	219.618	0.160	-0.259
-406.296	-32.031	0.222	-0.125
-405.282	255.415	-0.097	0.168
-404.267	33.720	-0.248	0.218
-403.252	390.552	-0.209	0.439
-402.238	-82.278	0.149	0.049
-401.223	-30.650	0.294	-0.168
-400.209	171.527	0.103	-0.149
-399.194	-200.000	0.014	0.351
-398.179	-157.391	-0.069	-0.004
-397.165	-154.055	0.145	0.010
-396.150	-81.652	0.202	-0.067
-395.136	-27.260	-0.214	0.126
-394.121	-200.000	-0.053	0.243
-393.106	-200.000	0.003	-0.182
-392.092	-67.634	0.073	-0.029
-391.077	800.000	-0.070	0.272
-390.063	65.861	-0.204	0.209
-389.048	-200.000	0.000	-0.134
-388.033	-89.171	0.302	0.090
-387.019	97.422	-0.106	0.123
-386.004	-200.000	-0.006	-0.069
-384.990	-27.634	0.187	0.109
-383.975	-200.000	0.034	-0.175
-382.960	-75.315	0.211	0.076
-381.946	800.000	-0.076	0.243
-380.931	154.452	0.135	0.188
-379.917	775.623	0.104	0.285
-378.902	-200.000	-0.020	-0.096
-377.888	59.340	0.012	-0.012
-376.873	-77.462	0.196	-0.068
-375.858	-200.000	0.058	-0.390
-374.844	-146.889	0.230	-0.020
-373.829	-94.195	0.136	-0.038
-372.815	-200.000	-0.006	-0.086
-371.800	32.251	-0.059	0.051
-370.785	-50.204	0.101	0.048
-369.771	317.223	-0.120	0.228
-368.756	-161.353	-0.167	-0.009
-367.742	97.939	-0.069	-0.081
-366.727	-21.195	0.189	0.117
-365.712	-137.134	-0.289	-0.033
-364.698	84.123	-0.073	0.080
-363.683	800.000	0.036	-0.129
-362.669	2.857	-0.090	-0.066
-361.654	-116.254	0.133	-0.025
-360.639	59.611	-0.064	-0.063
-359.625	-51.658	0.238	-0.112
-358.610	25.835	0.253	-0.213
-357.596	204.417	-0.178	-0.278
-356.581	330.612	-0.150	0.291
-355.566	-92.635	-0.258	-0.073
-354.552	22.624	0.178	-0.147
-353.537	460.645	0.057	-0.127
-352.523	-143.000	0.342	-0.033
-351.508	259.488	0.085	0.149
-350.493	800.000	-0.033	-0.094
-349.479	-135.177	0.226	-0.027
-348.464	-200.000	-0.016	0.294
-347.450	-200.000	-0.003	-0.242
-346.435	-48.188	-0.188	0.092
-345.420	800.000	-0.105	-0.449
-344.406	358.963	0.080	0.161
-343.391	-47.706	-0.263	-0.128
-342.377	335.281	-0.028	-0.054
-341.362	800.000	-0.112	0.341
-340.348	119.760	-0.005	0.007
-339.333	-137.115	0.227	0.026
-338.318	348.573	0.054	0.108
-337.304	-93.316	0.287	-0.080
-336.289	-96.003	0.243	-0.065
-335.275	-53.608	-0.304	-0.140
-334.260	58.924	-0.254	0.252
-333.245	253.061	-0.149	0.256
-332.231	800.000	-0.068	0.216
-331.216	75.408	-0.149	0.158
-330.202	-200.000	0.048	0.228
-329.187	-98.772	-0.317	-0.081
-328.172	-200.000	0.028	-0.350
-327.158	-17.353	0.281	0.178
-326.143	800.000	-0.062	-0.250
-325.129	-75.711	0.165	0.059
-324.114	-82.408	0.291	0.095
-323.099	-115.505	0.287	-0.054
-322.085	-142.673	-0.371	0.036
-321.070	261.020	0.088	-0.153
-320.056	-103.991	-0.135	-0.032
-319.041	-62.017	-0.042	0.017
-318.026	4.786	0.069	-0.051
-317.012	800.000	-0.022	-0.063
-315.997	54.150	-0.177	0.171
-314.983	-103.081	-0.271	-0.065
-313.968	-61.153	-0.129	0.055
-312.953	-134.234	0.210	0.026
-311.939	-66.713	-0.229	-0.091
-310.924	-103.953	-0.247	0.058
-309.910	176.478	0.070	-0.102
-308.895	94.309	0.086	-0.098
-307.880	50.245	-0.141	-0.134
-306.866	-200.000	0.018	0.224
-305.851	48.384	-0.120	0.113
-304.837	-139.873	0.092	-0.010
-303.822	-200.000	-0.077	-0.427
-302.807	-150.765	0.322	-0.025
-301.793	800.000	-0.067	0.199
-300.778	-83.286	-0.131	0.042
-299.764	411.863	0.060	-0.128
-298.749	-81.979	-0.365	0.120
-297.735	-200.000	-0.002	0.019
-296.720	-90.783	0.385	-0.111
-295.705	-76.062	0.217	0.077
-294.691	53.287	-0.214	-0.206
-293.676	-200.000	0.075	0.332
-292.662	-84.814	-0.241	0.076
-291.647	185.558	-0.037	-0.055
-290.632	75.392	-0.129	0.136
-289.618	-7.349	0.151	-0.103
-288.603	-19.704	-0.190	0.118
-287.589	-24.668	-0.248	-0.148
-286.574	194.723	-0.095	-0.144
-285.559	18.120	0.379	0.304
-284.545	198.511	0.034	-0.052
-283.530	-200.000	0.034	-0.346
-282.516	-10.262	0.075	0.050
-281.501	336.568	0.073	0.142
-280.486	75.358	0.107	-0.114
-279.472	-73.056	-0.227	-0.084
-278.457	170.137	0.050	-0.072
-277.443	283.662	-0.096	-0.173
-276.428	-200.000	-0.007	-0.259
-275.413	-175.405	-0.136	0.004
-274.399	207.405	0.188	0.295
-273.384	-76.097	0.235	-0.083
-272.370	-27.676	0.146	-0.085
-271.355	-200.000	0.022	-0.213
-270.340	-31.930	-0.152	0.086
-269.326	800.000	-0.104	-0.299
-268.311	522.123	0.050	-0.118
-267.297	-35.884	0.139	0.076
-266.282	-200.000	0.007	-0.034
-265.267	56.529	0.060	0.058
-264.253	-41.682	0.188	-0.097
-263.238	41.831	0.023	-0.021
-262.224	136.386	-0.093	0.122
-261.209	-49.352	0.124	-0.059
-260.195	-73.036	-0.317	-0.117
-259.180	-9.039	0.059	-0.039
-258.165	-89.370	0.272	-0.081
-257.151	-200.000	0.008	0.250
-256.136	-121.716	-0.242	0.040
-255.122	800.000	0.039	0.143
-254.107	-34.422	-0.095	-0.052
-253.092	-84.508	-0.125	-0.040
-252.078	-93.105	0.301	0.084
-251.063	-111.264	-0.160	0.033
-250.049	-61.236	0.471	-0.199
-249.034	-58.795	0.206	0.089
-248.019	303.150	-0.112	-0.207
-247.005	78.584	-0.102	0.109
-245.990	133.184	0.183	-0.238
-244.976	-200.000	0.019	0.128
-243.961	-140.108	0.203	-0.021
-242.946	107.523	-0.088	0.105
-241.932	-114.571	-0.326	-0.063
-240.917	-120.790	0.290	0.049
-239.903	-200.000	-0.002	0.165
-238.888	101.086	0.157	-0.183
-237.873	26.250	0.322	0.269
-236.859	-200.000	0.071	-0.396
-235.844	-200.000	-0.037	-0.350
-234.830	-200.000	0.004	-0.114
-233.815	63.842	0.192	0.194
-232.800	-65.013	-0.150	-0.061
-231.786	-200.000	-0.013	-0.137
-230.771	253.215	0.048	0.082
-229.757	536.100	0.066	0.156
-228.742	-130.155	0.361	0.049
-227.727	-179.499	0.296	0.006
-226.713	58.553	0.144	0.142
-225.698	-80.977	0.173	-0.058
-224.684	-9.523	0.174	-0.116
-223.669	366.343	0.085	0.172
-222.655	88.944	0.089	0.099
-221.640	-36.537	-0.212	0.114
-220.625	800.000	0.111	-0.432
-219.611	800.000	-0.031	0.118
-218.596	138.690	0.110	-0.144
-217.582	24.915	0.089	0.074
-216.567	90.850	-0.095	0.106
-215.552	-200.000	-0.015	-0.159
-214.538	685.740	-0.059	-0.155
-213.523	31.798	0.083	0.072
-212.509	-175.061	0.128	0.004
-211.494	9.938	-0.307	-0.233
-210.479	-200.000	-0.043	0.227
-209.465	140.419	-0.089	0.118
-208.450	246.054	-0.256	0.432
-207.436	-86.490	0.221	0.068
-206.421	-145.821	0.095	0.008
-205.406	800.000	0.032	-0.129
-204.392	-200.000	-0.015	0.123
-203.377	346.261	-0.032	-0.062
-202.363	54.201	-0.120	0.115
-201.348	-1.144	-0.161	0.114
-200.333	40.808	0.105	0.095
-199.319	326.537	-0.089	0.170
-198.304	-200.000	-0.014	0.205
-197.290	800.000	-0.093	0.341
-196.275	-144.416	0.254	0.024
-195.260	-126.057	-0.323	0.049
-194.246	-200.000	0.075	0.431
-193.231	-13.097	0.218	-0.142
-192.217	-162.855	-0.382	-0.019
-191.202	256.569	0.034	-0.058
-190.187	-59.904	0.204	0.087
-189.173	433.218	0.072	0.155
-188.158	-33.164	-0.092	0.051
-187.144	359.427	-0.049	-0.099
-186.129	57.660	-0.039	-0.038
-185.114	364.052	0.142	0.285
-184.100	-169.949	0.173	-0.006
-183.085	41.344	0.087	0.079
-182.071	12.422	0.070	0.054
-181.056	198.043	0.076	0.116
-180.042	-200.000	-0.041	-0.187
-179.027	9.716	0.243	0.185
-178.012	-200.000	-0.042	-0.438
-176.998	800.000	0.033	0.115
-175.983	-53.394	-0.294	0.135
-174.969	-200.000	0.014	0.197
-173.954	-17.204	0.337	-0.212
-172.939	70.021	-0.169	-0.174
-171.925	800.000	-0.097	0.367
-170.910	-63.859	-0.255	0.104
-169.896	800.000	0.109	-0.306
-168.881	48.697	0.157	0.148
-167.866	800.000	-0.041	0.157
-166.852	-149.198	0.281	0.023
-165.837	15.802	0.272	0.214
-164.823	-12.242	-0.100	-0.065
-163.808	158.227	-0.165	0.229
-162.793	-200.000	0.024	0.253
-161.779	-126.176	0.274	-0.041
-160.764	29.092	-0.116	-0.098
-159.750	-26.627	-0.164	-0.096
-158.735	-176.497	0.196	-0.005
-157.720	-200.000	0.000	-0.109
-156.706	102.814	-0.194	0.227
-155.691	194.706	-0.082	-0.124
-154.677	-200.000	-0.016	-0.263
-153.662	800.000	-0.041	-0.180
-152.647	-130.550	-0.240	0.032
-151.633	502.294	-0.193	-0.447
-150.618	-101.572	0.188	-0.046
-149.604	-68.562	-0.163	-0.063
-148.589	800.000	-0.126	-0.385
-147.574	800.000	0.034	-0.122
-146.560	-107.847	-0.129	-0.028
-145.545	-200.000	-0.001	0.105
-144.531	165.824	0.089	-0.126
-143.516	-115.636	0.299	-0.056
-142.502	-200.000	-0.054	0.422
-141.487	73.705	0.150	0.157
-140.472	-137.500	0.324	0.037
-139.458	-79.254	0.100	0.034
-138.443	-57.781	-0.240	-0.105
-137.429	-100.190	0.022	0.006
-136.414	38.279	0.248	0.221
-135.399	158.108	-0.205	0.284
-134.385	-28.014	-0.178	0.103
-133.370	117.160	-0.085	0.104
-132.356	162.343	0.053	-0.075
-131.341	-83.318	0.309	0.099
-130.326	-142.891	-0.133	0.013
-129.312	592.165	-0.120	-0.295
-128.297	-85.898	0.293	0.091
-127.283	-161.994	0.423	-0.021
-126.268	53.101	0.285	-0.273
-125.253	-66.399	-0.303	-0.120
-124.239	800.000	-0.075	0.286
-123.224	26.089	0.076	0.063
-122.210	-200.000	0.016	0.134
-121.195	-55.510	0.223	0.100
-120.180	-107.598	0.115	-0.025
-119.166	43.830	0.186	0.170
-118.151	-95.729	0.213	-0.057
-117.137	-200.000	-0.053	0.349
-116.122	-159.560	0.232	0.013
-115.107	-176.531	-0.410	0.011
-114.093	78.873	-0.055	0.059
-113.078	53.448	-0.130	-0.124
-112.064	800.000	-0.025	0.106
-111.049	-131.386	0.193	-0.025
-110.034	800.000	-0.051	-0.174
-109.020	162.855	0.224	0.315
-108.005	-200.000	0.003	0.436
-106.991	-200.000	-0.078	-0.406
-105.976	-200.000	0.038	-0.286
-104.962	129.973	-0.110	-0.140
-103.947	800.000	-0.052	0.144
-102.932	-114.036	0.357	0.069
-101.918	-200.000	-0.018	0.178
-100.903	-49.289	-0.226	0.108
-99.889	-57.677	0.331	-0.145
-98.874	-200.000	-0.111	-0.510
-97.859	800.000	0.074	0.238
-96.845	97.648	0.126	0.145
-95.830	17.696	0.188	-0.149
-94.816	800.000	0.072	-0.201
-93.801	618.913	-0.160	0.402
-92.786	615.267	-0.115	-0.288
-91.772	-40.441	0.225	0.117
-90.757	616.388	0.072	0.179
-89.743	68.523	0.250	0.256
-88.728	-0.873	0.113	-0.080
-87.713	-143.223	0.120	0.012
-86.699	800.000	0.069	0.237
-85.684	222.056	-0.204	0.327
-84.670	-70.250	0.275	-0.104
-83.655	28.960	-0.128	-0.108
-82.640	200.879	-0.152	-0.232
-81.626	338.740	0.070	0.135
-80.611	-8.992	0.016	-0.011
-79.597	-16.296	0.086	-0.054
-78.582	-65.870	-0.084	0.034
-77.567	-200.000	0.015	0.178
-76.553	-138.741	0.198	0.022
-75.538	142.330	0.147	-0.194
-74.524	235.284	-0.132	0.217
-73.509	176.909	0.268	0.388
-72.494	-44.393	0.231	0.115
-71.480	-104.995	-0.284	0.065
-70.465	27.769	0.095	0.079
-69.451	39.969	0.226	0.202
-68.436	-62.466	-0.569	0.236
-67.422	-200.000	-0.043	0.242
-66.407	184.669	0.122	-0.180
-65.392	-140.454	-0.350	-0.036
-64.378	7.791	-0.149	-0.111
-63.363	457.537	0.078	-0.173
-62.349	10.857	0.136	0.103
-61.334	127.799	-0.656	-0.830
-60.319	-200.000	-0.002	0.480
-59.305	180.437	-0.544	-0.795
-58.290	156.040	0.750	1.030
-57.276	800.000	0.449	1.284
-56.261	-200.000	82.203	505.459
-55.246	550.341	1386.844	3312.605
-54.232	174.022	2659.358	3825.338
-53.217	111.234	2439.519	2927.233
-52.203	44.505	2174.706	1989.581
-51.188	39.603	2080.606	1857.382
-50.173	38.044	2060.005	1824.358
-49.159	50.636	2101.279	1979.881
-48.144	53.830	2121.557	2029.064
-47.130	40.442	2084.613	1868.573
-46.115	38.060	2073.673	1836.319
-45.100	37.855	2071.277	1832.199
-44.086	37.885	2068.487	1829.940
-43.071	37.892	2065.621	1827.399
-42.057	37.808	2063.823	1824.947
-41.042	37.814	2062.101	1823.413
-40.027	37.887	2059.971	1822.137
-39.013	37.907	2057.638	1820.186
-37.998	37.883	2055.965	1818.410
-36.984	37.843	2054.318	1816.514
-35.969	37.868	2052.363	1814.944
-34.954	37.985	2050.148	1814.004
-33.940	37.927	2048.751	1812.152
-32.925	37.968	2046.955	1810.869
-31.911	37.988	2045.149	1809.392
-30.896	37.934	2043.179	1807.070
-29.881	37.950	2041.918	1806.035
-28.867	38.023	2039.652	1804.633
-27.852	37.983	2038.585	1803.248
-26.838	38.001	2036.223	1801.253
-25.823	37.926	2034.916	1799.337
-24.809	38.053	2032.489	1798.291
-23.794	37.881	2031.286	1795.570
-22.779	37.990	2029.109	1794.574
-21.765	38.006	2027.108	1792.877
-20.750	37.864	2025.779	1790.333
-19.736	37.921	2023.797	1789.030
-18.721	38.006	2022.488	1788.583
-17.706	38.010	2020.888	1787.133
-16.692	37.878	2019.180	1784.347
-15.677	37.897	2017.490	1782.947
-14.663	37.952	2015.622	1781.730
-13.648	37.898	2014.718	1780.373
-12.633	38.003	2013.410	1780.104
-11.619	37.987	2012.028	1778.666
-10.604	37.942	2010.206	1776.571
-9.590	37.915	2009.242	1775.400
-8.575	37.942	2007.874	1774.367
-7.560	37.877	2006.395	1772.404
-6.546	37.998	2004.257	1771.545
-5.531	37.907	2003.430	1769.911
-4.517	37.898	2002.539	1768.973
-3.502	37.871	2001.383	1767.634
-2.487	37.864	2000.008	1766.295
-1.473	37.886	1998.997	1765.529
-0.458	38.024	1994.262	1762.520
0.556	35.667	1974.801	1737.467
1.571	31.839	1955.177	1685.712
2.586	27.450	1977.337	1664.648
3.600	25.919	2015.198	1682.091
4.615	25.476	2013.077	1676.042
5.629	21.572	1911.690	1556.844
6.644	9.966	1778.467	1351.640
7.659	1.191	1728.743	1242.109
8.673	-0.137	1722.922	1226.974
9.688	-0.267	1721.414	1224.725
10.702	-0.367	1719.920	1222.738
11.717	-0.388	1716.655	1220.138
12.731	0.304	1717.065	1225.955
13.746	8.450	1738.799	1308.263
14.761	16.582	1754.243	1386.687
15.775	14.881	1747.264	1367.147
16.790	12.375	1740.558	1341.346
17.804	12.159	1739.347	1338.526
18.819	12.024	1738.364	1336.555
19.834	12.165	1737.699	1337.074
20.848	12.277	1737.373	1337.615
21.863	12.178	1735.971	1335.617
22.877	12.128	1735.109	1334.426
23.892	12.200	1733.974	1334.017
24.907	12.193	1732.841	1332.970
25.921	12.185	1731.770	1331.966
26.936	12.212	1730.827	1331.341
27.950	12.237	1729.714	1330.567
28.965	12.225	1728.841	1329.683
29.980	12.170	1728.256	1328.671
30.994	12.239	1726.585	1327.827
32.009	12.238	1724.702	1326.255
33.023	12.187	1723.625	1324.895
34.038	12.279	1722.171	1324.402
35.053	12.146	1721.180	1322.452
36.067	12.133	1719.663	1321.065
37.082	12.180	1717.960	1320.017
38.096	12.228	1716.600	1319.244
39.111	12.170	1716.054	1318.240
40.126	12.226	1715.305	1317.998
41.140	12.134	1714.238	1316.319
42.155	12.181	1712.760	1315.451
43.169	12.136	1711.494	1314.001
44.184	12.236	1710.026	1313.557
45.199	12.134	1709.126	1311.936
46.213	12.148	1707.665	1310.806
47.228	12.111	1706.281	1309.330
48.242	12.165	1704.771	1308.488
49.257	12.063	1703.517	1306.600
50.271	12.170	1701.867	1306.066
51.286	12.172	1700.458	1304.887
52.301	12.158	1698.647	1303.274
53.315	12.113	1697.638	1302.025
54.330	12.235	1695.613	1301.326
55.344	12.159	1693.890	1299.287
56.359	12.146	1692.257	1297.814
57.374	12.138	1690.945	1296.626
58.388	12.187	1689.552	1295.831
59.403	12.093	1688.105	1293.870
60.417	12.119	1686.248	1292.533
61.432	12.143	1685.137	1291.761
62.447	12.061	1684.006	1290.131
63.461	12.090	1682.589	1289.163
64.476	12.128	1681.081	1288.192
65.490	12.138	1679.927	1287.266
66.505	12.060	1679.007	1285.838
67.520	12.100	1677.480	1284.865
68.534	12.060	1676.145	1283.417
69.549	12.112	1674.632	1282.553
70.563	12.178	1673.042	1281.738
71.578	12.034	1671.715	1279.483
72.593	12.158	1669.882	1278.936
73.607	12.048	1669.063	1277.341
74.622	12.074	1667.784	1276.447
75.636	12.091	1667.150	1275.979
76.651	12.072	1665.926	1274.785
77.666	12.131	1664.301	1273.884
78.680	12.123	1662.553	1272.374
79.695	12.049	1661.916	1271.200
80.709	12.170	1660.429	1270.888
81.724	12.100	1659.571	1269.579
82.739	12.127	1658.490	1268.846
83.753	12.068	1656.804	1266.985
84.768	12.106	1655.003	1265.796
85.782	12.159	1653.665	1265.063
86.797	12.168	1652.821	1264.374
87.812	12.131	1650.848	1262.471
88.826	12.153	1649.491	1261.495
89.841	12.074	1648.435	1259.962
90.855	12.035	1647.066	1258.504
91.870	12.130	1645.675	1258.060
92.884	12.098	1644.777	1257.017
93.899	12.165	1642.986	1256.055
94.914	12.218	1641.444	1255.167
95.928	12.210	1639.722	1253.679
96.943	12.124	1638.441	1251.931
97.957	12.185	1636.378	1250.710
98.972	12.111	1634.835	1248.856
99.987	12.178	1633.199	1248.006
101.001	12.234	1630.883	1246.552
102.016	12.165	1629.009	1244.487
103.030	12.239	1627.120	1243.493
104.045	12.225	1625.337	1241.915
105.060	12.247	1623.569	1240.617
106.074	12.238	1621.059	1238.525
107.089	12.152	1619.541	1236.607
108.103	12.204	1618.226	1235.881
109.118	12.309	1616.119	1234.955
110.133	12.249	1615.089	1233.607
111.147	12.266	1612.947	1231.990
112.162	12.247	1611.605	1230.716
113.176	12.295	1609.616	1229.448
114.191	12.353	1607.921	1228.476
115.206	12.356	1606.361	1227.197
116.220	12.288	1605.004	1225.548
117.235	12.369	1603.110	1224.595
118.249	12.332	1601.070	1222.654
119.264	12.294	1600.035	1221.470
120.279	12.310	1598.417	1220.244
121.293	12.355	1596.448	1218.967
122.308	12.395	1594.432	1217.618
123.322	12.503	1591.959	1216.420
124.337	12.446	1590.382	1214.686
125.352	12.481	1588.432	1213.353
126.366	12.473	1587.312	1212.326
127.381	12.441	1585.722	1210.772
128.395	12.579	1584.348	1210.630
129.410	12.489	1582.577	1208.510
130.424	12.506	1581.475	1207.684
131.439	12.524	1579.289	1206.037
132.454	12.521	1577.882	1204.834
133.468	12.535	1576.025	1203.416
134.483	12.505	1574.408	1201.853
135.497	12.660	1572.445	1201.379
136.512	12.603	1570.836	1199.629
137.527	12.681	1569.274	1198.902
138.541	12.587	1568.053	1197.177
139.556	12.638	1566.293	1196.097
140.570	12.590	1564.916	1194.588
141.585	12.634	1562.726	1193.133
142.600	12.563	1561.357	1191.467
143.614	12.568	1560.303	1190.594
144.629	12.699	1558.498	1190.059
145.643	12.661	1557.110	1188.617
146.658	12.632	1555.498	1187.075
147.673	12.640	1553.140	1185.224
148.687	12.580	1552.090	1183.892
149.702	12.590	1550.238	1182.441
150.716	12.657	1548.589	1181.564
151.731	12.725	1547.207	1180.891
152.746	12.736	1545.445	1179.519
153.760	12.738	1544.182	1178.469
154.775	12.706	1542.914	1177.164
155.789	12.788	1541.444	1176.528
156.804	12.710	1539.955	1174.732
157.819	12.710	1538.662	1173.635
158.833	12.847	1536.727	1173.033
159.848	12.860	1535.699	1172.235
160.862	12.740	1534.664	1170.494
161.877	12.832	1532.995	1169.768
162.892	12.791	1532.177	1168.749
163.906	12.785	1531.153	1167.821
164.921	12.883	1529.718	1167.320
165.935	12.812	1528.971	1166.144
166.950	12.852	1527.257	1165.011
167.964	12.901	1525.964	1164.272
168.979	12.892	1525.033	1163.396
169.994	12.838	1524.345	1162.389
171.008	12.863	1523.154	1161.551
172.023	12.900	1521.900	1160.752
173.037	13.038	1520.250	1160.359
174.052	12.901	1519.078	1158.401
175.067	12.981	1518.259	1158.239
176.081	13.084	1516.811	1157.754
177.096	13.028	1515.189	1156.021
178.110	13.022	1514.513	1155.356
179.125	13.034	1513.470	1154.549
180.140	13.013	1512.335	1153.434
181.154	13.094	1511.448	1153.219
182.169	13.072	1510.197	1152.011
183.183	13.087	1509.045	1151.135
184.198	13.138	1507.768	1150.409
185.213	13.114	1506.619	1149.269
186.227	13.123	1505.895	1148.674
187.242	13.184	1505.351	1148.578
188.256	13.147	1503.537	1146.839
189.271	13.160	1502.404	1145.962
190.286	13.146	1501.793	1145.300
191.300	13.233	1500.840	1145.071
192.315	13.201	1499.626	1143.824
193.329	13.198	1499.079	1143.288
194.344	13.250	1497.491	1142.334
195.359	13.208	1496.792	1141.406
196.373	13.201	1495.552	1140.312
197.388	13.248	1494.554	1139.775
198.402	13.286	1492.643	1138.482
199.417	13.195	1492.028	1137.283
200.432	13.218	1491.122	1136.652
201.446	13.227	1490.273	1135.962
202.461	13.319	1488.925	1135.466
203.475	13.274	1488.001	1134.353
204.490	13.270	1486.857	1133.356
205.504	13.416	1485.516	1133.231
206.519	13.392	1484.749	1132.381
207.534	13.410	1483.244	1131.258
208.548	13.457	1482.179	1130.666
209.563	13.416	1481.656	1129.885
210.577	13.385	1480.985	1129.063
211.592	13.508	1479.846	1128.931
212.607	13.433	1479.172	1127.805
213.621	13.474	1478.719	1127.644
214.636	13.521	1477.204	1126.706
215.650	13.564	1476.464	1126.333
216.665	13.545	1475.515	1125.383
217.680	13.522	1474.644	1124.466
218.694	13.539	1474.342	1124.245
219.709	13.522	1473.385	1123.306
220.723	13.641	1472.118	1123.045
221.738	13.619	1471.034	1121.967
222.753	13.613	1470.042	1121.072
223.767	13.498	1469.512	1119.794
224.782	13.609	1468.615	1119.762
225.796	13.685	1467.411	1119.257
226.811	13.720	1466.431	1118.647
227.826	13.702	1465.845	1117.975
228.840	13.745	1464.739	1117.327
229.855	13.760	1464.425	1117.085
230.869	13.714	1463.308	1115.825
231.884	13.841	1462.013	1115.596
232.899	13.783	1460.905	1114.260
233.913	13.805	1459.945	1113.576
234.928	13.762	1458.866	1112.365
235.942	13.900	1457.478	1112.137
236.957	13.891	1456.564	1111.277
237.972	13.823	1455.641	1110.020
238.986	14.051	1454.235	1110.372
240.001	13.999	1453.293	1109.209
241.015	13.872	1452.723	1107.827
242.030	13.935	1451.470	1107.194
243.045	13.944	1450.602	1106.498
244.059	14.013	1449.632	1106.117
245.074	14.036	1448.620	1105.401
246.088	14.090	1447.571	1104.860
247.103	14.013	1447.308	1104.052
248.117	14.025	1447.042	1103.833
249.132	14.083	1445.683	1103.078
250.147	14.060	1444.978	1102.289
251.161	14.152	1444.016	1102.068
252.176	14.175	1443.670	1101.864
253.190	14.089	1443.024	1100.699
254.205	14.173	1442.072	1100.432
255.220	14.143	1441.031	1099.347
256.234	14.123	1440.028	1098.346
257.249	14.164	1439.711	1098.278
258.263	14.247	1438.243	1097.614
259.278	14.095	1437.882	1096.235
260.293	14.218	1436.958	1096.242
261.307	14.290	1435.849	1095.778
262.322	14.243	1435.685	1095.247
263.336	14.322	1434.361	1094.655
264.351	14.257	1433.809	1093.708
265.366	14.283	1432.634	1092.887
266.380	14.370	1431.673	1092.629
267.395	14.357	1430.335	1091.429
268.409	14.421	1429.447	1091.072
269.424	14.441	1428.676	1090.519
270.439	14.443	1427.748	1089.726
271.453	14.373	1427.104	1088.680
272.468	14.435	1426.138	1088.255
273.482	14.388	1425.509	1087.372
274.497	14.457	1424.538	1086.981
275.512	14.439	1423.691	1086.119
276.526	14.476	1422.667	1085.486
277.541	14.491	1422.028	1085.001
278.555	14.423	1421.340	1083.934
279.570	14.558	1420.484	1084.063
280.585	14.533	1419.363	1082.950
281.599	14.583	1418.469	1082.499
282.614	14.565	1417.814	1081.787
283.628	14.604	1416.290	1080.782
284.643	14.545	1415.690	1079.844
285.657	14.620	1414.700	1079.480
286.672	14.547	1413.403	1077.922
287.687	14.666	1412.279	1077.736
288.701	14.557	1412.255	1076.919
289.716	14.690	1411.009	1076.731
290.730	14.727	1409.994	1076.103
291.745	14.678	1409.065	1074.979
292.760	14.672	1408.208	1074.195
293.774	14.712	1407.501	1073.818
294.789	14.710	1406.441	1072.901
295.803	14.767	1405.213	1072.238
296.818	14.729	1404.749	1071.540
297.833	14.766	1403.713	1070.894
298.847	14.781	1402.999	1070.353
299.862	14.843	1401.536	1069.538
300.876	14.818	1400.751	1068.681
301.891	14.869	1399.726	1068.133
302.906	14.935	1398.823	1067.768
303.920	14.896	1398.833	1067.431
304.935	14.902	1397.904	1066.666
305.949	14.868	1397.343	1065.928
306.964	14.884	1396.289	1065.135
307.979	14.940	1395.168	1064.539
308.993	14.969	1394.180	1063.879
310.008	15.046	1393.277	1063.584
311.022	14.965	1392.762	1062.581
312.037	15.029	1391.374	1061.835
313.052	14.936	1391.154	1060.982
314.066	15.012	1389.807	1060.344
315.081	15.094	1388.958	1060.120
316.095	15.072	1387.775	1058.985
317.110	15.053	1386.733	1057.976
318.125	15.102	1386.009	1057.641
319.139	15.176	1385.258	1057.437
320.154	15.150	1383.918	1056.158
321.168	15.105	1383.126	1055.178
322.183	15.166	1381.910	1054.542
323.197	15.163	1381.185	1053.876
324.212	15.151	1380.782	1053.399
325.227	15.258	1379.392	1052.917
326.241	15.198	1378.811	1052.006
327.256	15.269	1378.024	1051.758
328.270	15.267	1377.227	1051.040
329.285	15.330	1376.321	1050.655
330.300	15.221	1375.846	1049.514
331.314	15.282	1374.656	1048.895
332.329	15.326	1373.519	1048.209
333.343	15.442	1372.647	1048.175
334.358	15.437	1371.742	1047.360
335.373	15.449	1371.118	1046.869
336.387	15.375	1370.330	1045.711
337.402	15.404	1369.921	1045.490
338.416	15.543	1369.114	1045.645
339.431	15.413	1368.561	1044.321
340.446	15.430	1367.985	1043.893
341.460	15.446	1366.829	1043.019
342.475	15.523	1365.805	1042.622
343.489	15.443	1365.374	1041.705
344.504	15.477	1364.112	1040.861
345.519	15.516	1363.229	1040.337
346.533	15.595	1362.094	1039.871
347.548	15.650	1361.516	1039.676
348.562	15.629	1360.537	1038.705
349.577	15.571	1359.938	1037.797
350.592	15.669	1358.648	1037.327
351.606	15.672	1357.870	1036.662
352.621	15.738	1356.851	1036.195
353.635	15.639	1356.141	1034.953
354.650	15.699	1355.501	1034.746
355.665	15.752	1354.159	1033.955
356.679	15.735	1353.522	1033.273
357.694	15.669	1352.091	1031.680
358.708	15.681	1351.101	1030.909
359.723	15.851	1349.909	1030.947
360.738	15.754	1349.143	1029.678
361.752	15.820	1347.884	1029.032
362.767	15.738	1347.413	1028.077
363.781	15.728	1346.595	1027.302
364.796	15.832	1345.595	1027.086
365.810	15.825	1344.956	1026.460
366.825	15.864	1344.106	1025.960
367.840	15.891	1343.351	1025.455
368.854	15.886	1342.626	1024.783
369.869	15.854	1342.306	1024.252
370.883	15.932	1341.272	1023.846
371.898	15.867	1340.592	1022.842
372.913	15.965	1339.846	1022.779
373.927	15.930	1338.881	1021.742
374.942	15.889	1338.824	1021.356
375.956	15.920	1337.523	1020.463
376.971	15.951	1336.593	1019.848
377.986	15.910	1336.418	1019.380
379.000	15.959	1334.890	1018.418
380.015	15.978	1333.804	1017.614
381.029	15.969	1333.431	1017.185
382.044	15.934	1332.482	1016.158
383.059	15.951	1331.910	1015.735
384.073	15.922	1331.230	1014.953
385.088	15.961	1330.803	1014.771
386.102	16.038	1329.922	1014.476
387.117	15.860	1329.179	1012.745
388.132	15.933	1327.945	1012.153
389.146	15.885	1327.560	1011.484
390.161	16.009	1326.329	1011.204
391.175	15.897	1325.716	1009.972
392.190	15.963	1324.912	1009.668
393.205	15.926	1324.183	1008.803
394.219	15.908	1323.403	1008.008
395.234	15.846	1321.809	1006.334
396.248	15.889	1320.471	1005.484
397.263	15.886	1319.135	1004.361
398.278	15.912	1317.727	1003.353
399.292	15.913	1316.737	1002.518
400.307	15.852	1315.721	1001.295
401.321	15.788	1315.065	1000.325
402.336	15.793	1314.209	999.615
403.350	15.803	1313.109	998.747
404.365	15.814	1311.564	997.547
405.380	15.837	1310.999	997.170
406.394	15.892	1310.058	996.691
407.409	15.854	1309.297	995.796
408.423	15.775	1308.767	994.837
409.438	15.728	1307.871	993.791
410.453	15.707	1306.809	992.773
411.467	15.762	1305.967	992.373
412.482	15.603	1305.596	991.060
413.496	15.639	1304.686	990.499
414.511	15.602	1303.850	989.558
415.526	15.639	1303.102	989.117
416.540	15.652	1302.197	988.423
417.555	15.624	1301.232	987.439
418.569	15.636	1300.306	986.719
419.584	15.581	1300.388	986.368
420.599	15.597	1299.463	985.672
421.613	134.862	1418.170	1777.552
422.628	130.884	1435.468	1777.660
