DTS Sentinel unit serial number:	SN413079Multiplexer serial number:	ORYXHardware model number:	OX4-SRSoftware version number:	ORYX F/W v4.00 Oryx Data Collector v3.7.2.0data status	okinstallation	princeton_trtdifferential loss correction	single-endedforward channel	channel 4reverse channel	N/Adate	2019/09/10time	21:15:10forward acquisition time	60.00reverse acquisition time	0.00gamma	496.2192k internal	0.2313k external	0.2313temperature offset calibration	0.9947default loss term (dB/km)	0.3790temperature slope calibration	1.0000multiplexer offset coefficient	1.0000multiplexer slope coefficient	1.0000fibre end	0.00T internal ref (°C)	31.37T ext. ref 1 (°C)	-0.30T ext. ref 2 (°C)	24.57length (m)	temperature (°C)	Stokes	anti-Stokes-747.200	20.029	0.137	-0.112
-746.185	98.753	-0.065	0.076
-745.171	-81.634	-0.238	-0.079
-744.156	377.499	-0.011	-0.023
-743.142	-200.000	0.007	-0.041
-742.127	-15.862	-0.042	0.027
-741.112	39.557	-0.210	-0.191
-740.098	-200.000	0.011	0.113
-739.083	80.119	-0.062	0.068
-738.069	93.216	-0.309	0.354
-737.054	70.077	0.236	-0.247
-736.039	-78.326	-0.202	-0.070
-735.025	-32.442	-0.160	0.090
-734.010	-200.000	-0.004	-0.257
-732.996	-86.418	0.200	0.062
-731.981	203.177	-0.115	-0.181
-730.966	-200.000	0.019	0.321
-729.952	-26.705	-0.109	-0.065
-728.937	-57.772	-0.036	0.016
-727.923	-200.000	-0.031	-0.403
-726.908	-52.410	-0.052	-0.025
-725.894	-200.000	0.022	0.162
-724.879	33.218	-0.207	0.182
-723.864	81.515	-0.139	-0.152
-722.850	-38.822	-0.289	-0.154
-721.835	191.921	-0.139	-0.212
-720.821	800.000	0.120	-0.353
-719.806	-11.425	-0.260	-0.173
-718.791	143.081	-0.134	-0.181
-717.777	291.242	-0.045	-0.083
-716.762	120.904	0.156	-0.196
-715.748	30.003	-0.214	-0.185
-714.733	-73.736	0.170	0.063
-713.718	-46.635	-0.243	-0.121
-712.704	-73.288	-0.257	0.095
-711.689	800.000	-0.016	-0.070
-710.675	-94.321	-0.129	-0.036
-709.660	-140.869	-0.217	0.023
-708.645	800.000	-0.077	0.264
-707.631	-70.855	-0.166	0.063
-706.616	151.457	0.120	-0.166
-705.602	102.846	0.170	-0.201
-704.587	-168.185	0.184	0.007
-703.572	-124.695	0.156	0.024
-702.558	-14.388	-0.047	-0.031
-701.543	56.450	0.065	0.064
-700.529	319.561	-0.212	-0.407
-699.514	120.929	0.045	0.056
-698.499	800.000	0.141	-0.394
-697.485	424.098	0.145	0.315
-696.470	-200.000	0.018	-0.161
-695.456	507.631	0.064	0.150
-694.441	282.536	0.118	-0.215
-693.426	62.726	0.119	-0.120
-692.412	451.895	-0.096	-0.214
-691.397	-80.357	-0.327	-0.110
-690.383	-34.233	0.168	0.093
-689.368	64.822	0.165	-0.169
-688.354	748.451	0.074	-0.202
-687.339	-38.708	0.192	0.102
-686.324	800.000	0.078	-0.332
-685.310	-10.027	-0.130	0.088
-684.295	-200.000	-0.062	-0.482
-683.281	-159.136	-0.346	-0.020
-682.266	800.000	-0.046	0.164
-681.251	-200.000	-0.016	-0.202
-680.237	-61.708	0.172	0.073
-679.222	-51.151	0.283	-0.134
-678.208	345.824	-0.173	-0.344
-677.193	305.678	-0.029	0.054
-676.178	800.000	-0.027	-0.101
-675.164	-200.000	0.000	-0.025
-674.149	-68.411	-0.321	0.126
-673.135	-159.764	-0.238	-0.013
-672.120	-200.000	0.017	-0.119
-671.105	-200.000	0.000	0.107
-670.091	-200.000	0.005	0.235
-669.076	-97.141	0.198	0.052
-668.062	-16.123	-0.227	-0.146
-667.047	-119.068	0.173	0.031
-666.032	-128.739	-0.343	0.049
-665.018	212.508	-0.183	0.292
-664.003	-65.380	-0.076	0.031
-662.989	504.429	0.070	0.164
-661.974	-82.140	-0.439	-0.145
-660.959	-87.762	-0.172	-0.052
-659.945	380.542	0.109	0.227
-658.930	-22.513	0.387	0.237
-657.916	-200.000	-0.061	-0.449
-656.901	187.836	-0.090	-0.137
-655.886	115.809	-0.013	-0.016
-654.872	-49.288	0.310	0.150
-653.857	370.039	-0.029	-0.058
-652.843	-200.000	0.003	-0.031
-651.828	105.422	0.056	0.067
-650.814	235.127	0.086	-0.144
-649.799	-105.963	-0.142	-0.032
-648.784	-93.511	0.096	0.027
-647.770	0.236	-0.315	-0.227
-646.755	43.650	-0.193	0.179
-645.741	-200.000	0.011	0.127
-644.726	155.263	-0.291	-0.404
-643.711	-3.241	-0.016	-0.011
-642.697	190.905	-0.074	0.113
-641.682	110.984	0.134	-0.164
-640.668	154.611	-0.098	0.137
-639.653	222.767	-0.181	0.295
-638.638	146.920	-0.039	0.053
-637.624	-200.000	-0.018	0.334
-636.609	70.847	0.286	0.299
-635.595	96.002	-0.134	-0.154
-634.580	73.875	-0.266	-0.282
-633.565	390.714	0.056	-0.117
-632.551	89.428	-0.221	-0.249
-631.536	-133.952	0.437	-0.055
-630.522	-147.186	0.164	-0.014
-629.507	-200.000	-0.107	0.000
-628.492	-34.784	0.161	0.089
-627.478	334.043	0.026	0.050
-626.463	-41.743	0.249	0.129
-625.449	381.135	-0.132	-0.274
-624.434	-200.000	0.032	-0.255
-623.419	-84.569	-0.207	0.066
-622.405	-64.556	-0.097	0.040
-621.390	800.000	-0.096	-0.291
-620.376	42.486	-0.141	-0.130
-619.361	278.288	-0.104	-0.187
-618.346	800.000	-0.053	-0.176
-617.332	62.044	-0.237	-0.238
-616.317	-200.000	-0.004	-0.089
-615.303	-200.000	-0.020	0.145
-614.288	-132.313	-0.101	0.013
-613.273	406.163	0.208	0.444
-612.259	-200.000	-0.037	0.195
-611.244	-30.935	0.092	0.053
-610.230	-200.000	0.034	-0.296
-609.215	155.390	0.088	0.123
-608.201	5.261	-0.176	0.131
-607.186	5.700	-0.218	-0.163
-606.171	800.000	-0.065	-0.213
-605.157	-20.633	-0.155	0.096
-604.142	101.452	0.161	0.189
-603.128	28.067	0.046	0.040
-602.113	-115.499	-0.491	0.093
-601.098	-178.380	0.256	0.006
-600.084	33.313	-0.172	-0.151
-599.069	800.000	0.044	-0.141
-598.055	260.796	0.097	-0.170
-597.040	-156.337	-0.318	0.020
-596.025	650.237	-0.120	-0.310
-595.011	284.716	-0.170	-0.308
-593.996	20.408	0.160	-0.131
-592.982	795.991	0.107	-0.297
-591.967	678.723	0.038	0.101
-590.952	800.000	0.031	-0.097
-589.938	800.000	0.039	-0.127
-588.923	-123.928	-0.105	-0.017
-587.909	17.737	0.294	0.236
-586.894	800.000	-0.084	-0.333
-585.879	-18.679	0.092	-0.058
-584.865	80.655	-0.113	-0.123
-583.850	-33.124	0.109	-0.061
-582.836	-151.038	0.278	-0.021
-581.821	13.975	-0.144	0.113
-580.806	-200.000	-0.053	0.332
-579.792	-200.000	0.007	0.097
-578.777	60.997	-0.088	0.088
-577.763	-52.488	-0.269	0.125
-576.748	-75.870	0.336	-0.120
-575.733	-131.009	0.159	-0.021
-574.719	-200.000	0.006	0.288
-573.704	-200.000	-0.029	0.283
-572.690	-99.722	0.411	-0.104
-571.675	140.417	0.104	0.139
-570.661	-142.463	-0.130	0.013
-569.646	-86.619	-0.045	-0.014
-568.631	-144.956	-0.459	0.042
-567.617	187.405	0.054	0.082
-566.602	-200.000	0.000	-0.014
-565.588	561.253	-0.131	-0.318
-564.573	-200.000	-0.064	-0.306
-563.558	-10.101	-0.225	0.151
-562.544	-61.871	0.222	0.093
-561.529	800.000	-0.011	0.047
-560.515	-200.000	0.046	-0.283
-559.500	17.455	-0.078	-0.062
-558.485	-165.951	0.212	0.009
-557.471	-63.592	0.307	0.127
-556.456	-135.420	-0.407	0.049
-555.442	800.000	-0.081	0.253
-554.427	800.000	-0.042	-0.126
-553.412	336.595	-0.175	-0.341
-552.398	-38.928	-0.182	-0.097
-551.383	-200.000	-0.001	0.087
-550.369	-71.864	0.348	0.130
-549.354	-130.197	-0.181	-0.025
-548.339	-200.000	0.009	0.156
-547.325	800.000	0.052	0.152
-546.310	-93.375	-0.464	0.129
-545.296	-109.544	-0.128	0.027
-544.281	-55.747	-0.162	0.073
-543.266	-131.737	0.255	0.034
-542.252	-40.762	0.219	-0.114
-541.237	192.112	-0.035	0.053
-540.223	-115.912	0.475	-0.089
-539.208	-97.293	-0.234	-0.061
-538.193	800.000	-0.052	0.165
-537.179	-94.172	-0.193	-0.053
-536.164	-52.958	-0.418	0.194
-535.150	61.063	0.031	-0.031
-534.135	178.545	0.108	-0.159
-533.121	800.000	-0.062	-0.243
-532.106	800.000	0.062	0.262
-531.091	3.508	-0.235	0.172
-530.077	-200.000	-0.017	-0.425
-529.062	1.358	-0.077	-0.055
-528.048	-67.017	0.089	0.035
-527.033	242.254	-0.056	-0.094
-526.018	795.812	0.072	-0.199
-525.004	800.000	0.017	0.057
-523.989	8.948	0.088	0.066
-522.975	178.731	0.161	0.237
-521.960	-90.357	-0.296	0.086
-520.945	-66.610	0.030	0.012
-519.931	-143.335	0.232	0.022
-518.916	-0.968	0.292	0.207
-517.902	-16.377	-0.522	0.333
-516.887	800.000	0.014	-0.042
-515.872	-200.000	-0.030	0.261
-514.858	-24.825	-0.337	-0.201
-513.843	381.034	0.099	-0.204
-512.829	5.396	0.378	0.280
-511.814	800.000	0.081	-0.313
-510.799	800.000	0.065	0.284
-509.785	-56.172	0.131	-0.059
-508.770	800.000	0.011	0.043
-507.756	-200.000	0.048	-0.301
-506.741	800.000	-0.051	-0.208
-505.726	-200.000	-0.040	-0.488
-504.712	100.193	0.163	-0.190
-503.697	584.463	0.136	-0.337
-502.683	-200.000	-0.017	-0.077
-501.668	-68.380	0.257	-0.100
-500.653	-78.903	-0.106	0.036
-499.639	-182.492	0.454	0.008
-498.624	-200.000	0.003	-0.322
-497.610	-200.000	0.013	0.133
-496.595	-107.499	-0.248	-0.055
-495.581	703.985	-0.110	-0.291
-494.566	-95.793	-0.254	-0.068
-493.551	-18.778	-0.374	-0.234
-492.537	312.043	-0.025	0.046
-491.522	-200.000	0.006	-0.040
-490.508	42.918	0.343	0.314
-489.493	28.047	0.137	-0.116
-488.478	109.870	0.117	-0.141
-487.464	-1.634	0.451	0.319
-486.449	-200.000	0.014	-0.215
-485.435	249.235	-0.145	-0.247
-484.420	-59.560	-0.230	0.099
-483.405	-135.607	-0.257	-0.031
-482.391	-135.827	-0.370	0.044
-481.376	-79.572	0.142	-0.048
-480.362	-73.328	0.179	-0.066
-479.347	15.381	-0.174	-0.137
-478.332	-200.000	0.028	-0.156
-477.318	-62.554	0.153	-0.064
-476.303	149.786	0.101	0.137
-475.289	-128.201	-0.246	0.035
-474.274	106.374	0.132	0.158
-473.259	266.231	-0.085	-0.149
-472.245	-88.255	0.097	-0.029
-471.230	-200.000	-0.030	-0.271
-470.216	-200.000	0.000	-0.288
-469.201	800.000	-0.052	-0.194
-468.186	-5.510	-0.250	-0.172
-467.172	-149.320	0.181	0.014
-466.157	-7.521	-0.198	0.135
-465.143	-122.524	0.366	-0.060
-464.128	71.566	0.219	-0.228
-463.113	376.998	-0.208	0.426
-462.099	800.000	0.116	-0.333
-461.084	290.259	0.126	0.230
-460.070	56.624	-0.084	0.082
-459.055	-200.000	0.043	0.354
-458.040	-56.636	0.190	0.084
-457.026	315.530	-0.174	-0.330
-456.011	-66.590	0.145	0.058
-454.997	107.752	0.070	-0.084
-453.982	800.000	-0.079	-0.298
-452.968	-12.746	-0.224	-0.147
-451.953	-200.000	0.025	0.337
-450.938	-200.000	-0.002	-0.027
-449.924	-95.505	0.038	-0.010
-448.909	-200.000	0.014	0.365
-447.895	115.867	-0.141	-0.173
-446.880	316.629	0.228	0.432
-445.865	-100.831	0.126	-0.031
-444.851	67.956	0.166	0.170
-443.836	149.873	0.030	-0.041
-442.822	-200.000	-0.001	-0.173
-441.807	-158.583	-0.161	0.009
-440.792	-32.706	-0.234	0.130
-439.778	-200.000	0.029	-0.298
-438.763	297.141	-0.110	0.203
-437.749	800.000	-0.025	-0.087
-436.734	800.000	-0.064	-0.220
-435.719	-200.000	-0.025	-0.335
-434.705	17.182	0.285	0.226
-433.690	-47.170	-0.518	-0.253
-432.676	-200.000	0.025	0.310
-431.661	-200.000	0.005	-0.108
-430.646	-200.000	0.044	0.347
-429.632	-92.649	0.097	-0.027
-428.617	-200.000	-0.013	0.061
-427.603	234.627	-0.044	-0.073
-426.588	800.000	-0.043	-0.183
-425.573	800.000	0.129	0.380
-424.559	359.608	0.082	-0.164
-423.544	-200.000	0.054	0.318
-422.530	28.586	-0.138	-0.117
-421.515	-118.213	0.105	0.019
-420.500	60.677	0.188	0.186
-419.486	85.274	0.192	0.211
-418.471	-200.000	0.019	-0.151
-417.457	-200.000	-0.039	-0.356
-416.442	800.000	-0.059	0.178
-415.428	800.000	-0.046	0.142
-414.413	74.179	0.145	-0.153
-413.398	800.000	0.101	0.426
-412.384	-200.000	0.009	-0.168
-411.369	-53.803	-0.135	0.062
-410.355	800.000	0.099	0.385
-409.340	-3.936	0.084	0.059
-408.325	-49.765	0.081	-0.038
-407.311	-127.838	-0.377	0.054
-406.296	-157.962	0.172	0.010
-405.282	285.009	-0.066	-0.120
-404.267	800.000	-0.065	0.186
-403.252	43.268	0.070	0.064
-402.238	27.369	0.251	0.211
-401.223	-110.746	0.268	-0.055
-400.209	293.126	-0.047	0.086
-399.194	-110.637	0.068	-0.014
-398.179	-121.057	-0.231	0.039
-397.165	133.614	0.149	0.193
-396.150	72.380	-0.069	0.072
-395.136	129.983	-0.214	0.273
-394.121	-3.009	0.138	0.096
-393.106	-23.970	-0.153	-0.092
-392.092	-70.102	-0.265	-0.101
-391.077	-200.000	0.000	0.079
-390.063	-106.487	0.153	-0.034
-389.048	547.700	0.078	-0.187
-388.033	-49.002	0.128	-0.061
-387.019	-150.055	0.063	-0.005
-386.004	13.605	0.107	0.083
-384.990	241.877	-0.161	-0.269
-383.975	342.845	-0.293	0.574
-382.960	-119.852	0.136	-0.023
-381.946	-81.490	0.138	-0.045
-380.931	-200.000	0.002	-0.017
-379.917	316.377	-0.172	-0.324
-378.902	-60.493	0.209	-0.089
-377.888	-77.438	0.013	0.004
-376.873	-53.516	0.310	-0.142
-375.858	21.681	0.234	0.190
-374.844	-29.806	0.345	0.197
-373.829	287.901	-0.035	0.064
-372.815	271.474	0.048	-0.085
-371.800	800.000	0.047	0.193
-370.785	8.284	-0.176	0.132
-369.771	96.376	-0.068	-0.078
-368.756	-174.612	0.178	-0.005
-367.742	-8.755	-0.205	-0.137
-366.727	-200.000	-0.009	-0.061
-365.712	800.000	0.047	-0.157
-364.698	-27.180	-0.233	0.136
-363.683	67.447	0.030	-0.031
-362.669	-35.445	0.158	0.085
-361.654	-154.659	-0.083	-0.006
-360.639	-34.256	-0.198	-0.108
-359.625	-29.091	0.164	-0.094
-358.610	520.556	-0.180	-0.422
-357.596	-200.000	-0.009	-0.230
-356.581	50.523	-0.163	0.154
-355.566	-120.350	-0.098	-0.017
-354.552	463.588	0.086	-0.192
-353.537	-200.000	-0.008	-0.066
-352.523	800.000	-0.077	0.233
-351.508	99.264	-0.309	0.357
-350.493	37.069	-0.061	-0.054
-349.479	-17.164	0.493	-0.310
-348.464	-35.753	0.181	-0.098
-347.450	-46.201	-0.312	0.154
-346.435	11.445	0.136	0.104
-345.420	-82.429	0.226	-0.073
-344.406	800.000	0.089	0.270
-343.391	-175.299	0.256	-0.007
-342.377	685.555	0.096	-0.251
-341.362	800.000	-0.108	-0.457
-340.348	128.073	-0.138	-0.176
-339.333	800.000	-0.077	0.232
-338.318	22.901	-0.054	0.044
-337.304	84.340	0.109	0.119
-336.289	-38.256	0.131	0.069
-335.275	170.728	0.088	0.126
-334.260	-1.764	0.244	0.171
-333.245	554.429	0.041	-0.098
-332.231	3.600	-0.119	0.087
-331.216	442.857	0.157	0.344
-330.202	-67.164	0.288	0.113
-329.187	132.967	-0.187	-0.241
-328.172	-107.955	0.133	-0.029
-327.158	29.085	0.097	-0.082
-326.143	-64.898	0.306	0.124
-325.129	28.609	0.223	-0.188
-324.114	800.000	-0.049	0.151
-323.099	800.000	-0.027	-0.101
-322.085	13.529	0.246	-0.191
-321.070	32.170	-0.037	-0.032
-320.056	23.679	-0.102	0.084
-319.041	-20.558	0.153	-0.094
-318.026	281.860	-0.062	-0.110
-317.012	-66.832	0.188	0.074
-315.997	-67.066	0.197	0.077
-314.983	356.055	-0.093	-0.184
-313.968	-132.939	0.251	-0.032
-312.953	-68.217	0.093	-0.036
-311.939	-180.511	0.153	-0.003
-310.924	-139.274	0.172	0.018
-309.910	-144.659	0.315	-0.029
-308.895	800.000	0.035	0.122
-307.880	3.009	-0.257	0.186
-306.866	800.000	0.036	-0.128
-305.851	-65.198	0.282	0.113
-304.837	-200.000	-0.002	0.128
-303.822	800.000	0.037	0.126
-302.807	-79.920	-0.255	0.085
-301.793	-200.000	-0.022	-0.305
-300.778	-80.298	-0.195	-0.065
-299.764	-135.898	-0.073	0.009
-298.749	-128.111	0.175	-0.025
-297.735	800.000	0.064	-0.184
-296.720	106.791	0.110	-0.131
-295.705	62.646	0.262	0.261
-294.691	-200.000	-0.005	-0.112
-293.676	-46.408	-0.236	0.116
-292.662	39.200	0.160	-0.142
-291.647	198.420	0.110	0.167
-290.632	-99.046	-0.148	-0.037
-289.618	800.000	0.109	-0.392
-288.603	-200.000	-0.012	0.157
-287.589	-200.000	-0.022	0.194
-286.574	-195.506	-0.438	0.003
-285.559	444.235	-0.099	0.217
-284.545	8.362	-0.142	0.106
-283.530	800.000	-0.051	-0.201
-282.516	-108.712	-0.351	0.075
-281.501	47.305	0.118	0.110
-280.486	54.153	0.063	-0.061
-279.472	235.537	0.151	-0.248
-278.457	-51.779	-0.241	-0.112
-277.443	-200.000	0.058	0.257
-276.428	61.173	0.080	-0.079
-275.413	497.998	-0.026	0.060
-274.399	-79.439	0.332	0.112
-273.384	-189.480	0.176	0.002
-272.370	-39.333	-0.278	-0.145
-271.355	327.020	-0.068	0.130
-270.340	-200.000	0.014	0.349
-269.326	800.000	0.031	0.101
-268.311	231.155	0.125	0.204
-267.297	17.464	0.074	-0.058
-266.282	-138.415	0.079	-0.009
-265.267	458.052	-0.025	-0.056
-264.253	-87.280	-0.087	0.026
-263.238	-169.902	-0.130	-0.005
-262.224	800.000	0.052	0.208
-261.209	-28.387	-0.163	-0.094
-260.195	122.227	0.110	-0.137
-259.180	-98.935	-0.334	-0.084
-258.165	-200.000	-0.008	-0.033
-257.151	-87.158	-0.318	0.096
-256.136	755.918	-0.018	-0.047
-255.122	99.818	0.262	0.302
-254.107	-200.000	0.016	-0.141
-253.092	-188.030	-0.443	-0.006
-252.078	-87.724	-0.283	0.085
-251.063	45.617	-0.166	0.152
-250.049	-200.000	0.027	0.344
-249.034	-200.000	0.049	-0.261
-248.019	154.611	-0.174	0.237
-247.005	800.000	0.054	0.229
-245.990	97.394	-0.311	0.355
-244.976	800.000	-0.142	-0.431
-243.961	19.166	0.062	0.050
-242.946	22.128	0.184	-0.149
-241.932	-58.594	0.139	-0.060
-240.917	800.000	-0.083	-0.229
-239.903	-182.245	0.276	0.005
-238.888	800.000	0.079	0.260
-237.873	-118.038	0.156	-0.028
-236.859	800.000	0.026	0.107
-235.844	12.552	0.077	0.059
-234.830	-135.090	0.104	0.012
-233.815	-102.342	0.009	-0.002
-232.800	263.224	0.019	0.033
-231.786	289.354	0.116	0.210
-230.771	-72.775	0.119	0.044
-229.757	-53.976	0.079	-0.036
-228.742	-21.462	-0.240	0.146
-227.727	-200.000	-0.036	0.280
-226.713	-88.224	0.081	0.024
-225.698	-47.261	0.121	0.059
-224.684	1.843	-0.087	0.062
-223.669	-77.742	0.062	-0.021
-222.655	145.941	-0.079	0.105
-221.640	-200.000	0.006	-0.133
-220.625	-175.268	-0.218	-0.006
-219.611	37.459	-0.121	0.107
-218.596	-45.786	-0.194	0.095
-217.582	-43.991	-0.252	0.126
-216.567	550.895	0.065	0.155
-215.552	-13.279	-0.258	-0.167
-214.538	-108.275	0.200	-0.043
-213.523	-137.053	0.075	-0.009
-212.509	-152.190	-0.347	-0.025
-211.494	394.978	-0.136	-0.283
-210.479	-200.000	-0.019	-0.364
-209.465	-133.433	-0.139	-0.017
-208.450	-154.190	-0.485	0.033
-207.436	-46.304	0.248	-0.121
-206.421	800.000	-0.037	0.114
-205.406	176.538	0.025	0.035
-204.392	-26.787	0.348	0.202
-203.377	-40.795	0.383	0.197
-202.363	17.911	0.219	0.173
-201.348	-81.011	-0.344	0.113
-200.333	-34.958	0.048	-0.026
-199.319	800.000	0.058	-0.183
-198.304	-38.603	0.055	-0.029
-197.290	-171.053	0.082	0.003
-196.275	-29.721	0.202	0.114
-195.260	-52.817	0.132	0.061
-194.246	-32.096	-0.260	0.144
-193.231	19.279	-0.177	0.141
-192.217	-101.467	-0.085	-0.021
-191.202	-114.322	-0.221	-0.042
-190.187	-113.796	0.205	-0.040
-189.173	-84.526	0.337	0.105
-188.158	240.970	0.195	0.323
-187.144	81.451	0.288	0.309
-186.129	-34.539	-0.195	-0.106
-185.114	477.549	0.073	0.163
-184.100	-200.000	0.045	-0.248
-183.085	-200.000	-0.053	0.563
-182.071	282.370	0.129	-0.230
-181.056	-124.973	-0.062	0.009
-180.042	-5.890	-0.289	0.196
-179.027	-22.994	-0.282	-0.169
-178.012	314.439	-0.042	-0.079
-176.998	-200.000	0.025	-0.110
-175.983	-46.451	0.080	0.039
-174.969	95.934	-0.074	0.083
-173.954	-83.267	-0.207	0.066
-172.939	52.564	-0.053	0.050
-171.925	-103.112	0.395	-0.093
-170.910	515.914	-0.188	-0.435
-169.896	281.453	0.111	-0.197
-168.881	-1.019	-0.082	-0.058
-167.866	104.633	-0.217	0.254
-166.852	-150.807	-0.072	0.005
-165.837	27.963	-0.276	-0.231
-164.823	454.949	0.063	-0.138
-163.808	-26.503	0.388	0.226
-162.793	510.004	-0.053	-0.122
-161.779	-200.000	0.005	-0.249
-160.764	214.751	0.151	-0.237
-159.750	800.000	-0.067	0.197
-158.735	-200.000	-0.013	-0.074
-157.720	104.316	0.176	-0.205
-156.706	-72.999	0.250	0.091
-155.691	-15.642	0.177	-0.112
-154.677	-17.677	-0.352	0.219
-153.662	-27.018	-0.163	0.094
-152.647	-63.140	0.099	0.041
-151.633	-200.000	-0.066	0.000
-150.618	-36.306	0.256	-0.137
-149.604	85.170	0.307	-0.333
-148.589	24.590	-0.287	0.236
-147.574	-114.469	0.295	-0.056
-146.560	-176.326	0.147	0.004
-145.545	90.301	0.124	-0.138
-144.531	-127.053	0.440	0.064
-143.516	-112.627	-0.055	-0.011
-142.502	-200.000	0.032	0.279
-141.487	-40.287	0.087	0.045
-140.472	58.386	-0.163	-0.158
-139.458	-110.773	-0.137	-0.028
-138.443	-55.644	0.279	0.124
-137.429	40.580	-0.357	-0.318
-136.414	-200.000	0.054	-0.278
-135.399	738.011	0.083	-0.220
-134.385	-23.535	-0.077	0.046
-133.370	-125.963	-0.579	0.086
-132.356	26.907	0.218	0.181
-131.341	-119.586	0.346	0.059
-130.326	48.854	-0.092	-0.086
-129.312	42.076	-0.141	0.127
-128.297	-200.000	-0.223	-0.001
-127.283	800.000	0.065	-0.235
-126.268	-46.084	-0.228	-0.111
-125.253	-43.620	-0.087	-0.043
-124.239	-200.000	-0.036	-0.197
-123.224	70.020	-0.127	0.130
-122.210	21.853	0.198	-0.159
-121.195	483.313	-0.010	0.022
-120.180	131.460	0.045	-0.058
-119.166	36.569	0.064	0.056
-118.151	-44.174	-0.115	0.057
-117.137	-90.468	-0.110	-0.031
-116.122	181.279	0.043	-0.063
-115.107	-74.281	0.141	-0.050
-114.093	-23.035	-0.234	-0.139
-113.078	123.453	0.262	0.325
-112.064	-70.527	0.272	0.102
-111.049	8.427	0.129	-0.096
-110.034	-124.312	0.354	-0.055
-109.020	-22.945	-0.237	-0.141
-108.005	-200.000	0.015	-0.108
-106.991	520.814	0.017	0.040
-105.976	-200.000	0.291	0.001
-104.962	40.306	-0.086	0.076
-103.947	78.061	0.098	0.103
-102.932	-200.000	0.009	0.283
-101.918	387.379	-0.115	0.235
-100.903	109.943	-0.098	0.116
-99.889	42.877	0.284	-0.256
-98.874	800.000	0.071	0.266
-97.859	800.000	-0.148	-0.411
-96.845	156.852	0.007	-0.009
-95.830	-148.715	0.328	0.026
-94.816	-200.000	0.008	-0.074
-93.801	562.835	0.041	-0.097
-92.786	-41.926	-0.102	0.052
-91.772	-200.000	0.053	0.300
-90.757	-106.295	-0.114	0.025
-89.743	800.000	-0.045	-0.148
-88.728	-10.260	0.253	-0.166
-87.713	37.249	0.089	0.078
-86.699	-53.851	-0.125	0.056
-85.684	-200.000	0.029	-0.133
-84.670	-10.131	0.122	-0.080
-83.655	-13.958	-0.039	-0.025
-82.640	-20.739	-0.228	0.138
-81.626	800.000	0.095	0.310
-80.611	-200.000	-0.022	-0.289
-79.597	141.322	0.173	-0.226
-78.582	800.000	-0.102	-0.407
-77.567	-12.543	0.114	-0.074
-76.553	-200.000	0.006	0.116
-75.538	147.276	-0.116	-0.155
-74.524	-60.528	0.194	0.081
-73.509	-113.037	-0.420	-0.082
-72.494	225.118	-0.067	0.107
-71.480	-105.094	-0.336	-0.076
-70.465	800.000	0.085	0.233
-69.451	800.000	-0.065	-0.269
-68.436	243.135	0.081	-0.134
-67.422	-200.000	0.076	0.346
-66.407	800.000	0.063	0.239
-65.392	306.708	-0.111	0.204
-64.378	-200.000	0.003	-0.027
-63.363	55.611	-0.123	0.117
-62.349	33.205	0.263	0.225
-61.334	88.906	-0.716	-0.787
-60.319	-44.050	0.349	0.173
-59.305	503.726	-0.450	-1.028
-58.290	199.880	0.652	0.988
-57.276	226.546	0.800	1.282
-56.261	-200.000	98.599	612.626
-55.246	585.216	1406.507	3412.576
-54.232	187.913	2607.110	3843.593
-53.217	106.704	2306.844	2701.793
-52.203	38.020	2062.041	1810.031
-51.188	33.150	1976.012	1691.027
-50.173	31.566	1957.368	1660.956
-49.159	46.469	2009.169	1839.338
-48.144	47.695	2026.558	1866.218
-47.130	33.710	1987.280	1705.429
-46.115	31.358	1977.621	1676.012
-45.100	31.260	1974.768	1672.647
-44.086	31.142	1972.749	1669.813
-43.071	31.140	1969.771	1667.210
-42.057	31.238	1967.126	1665.784
-41.042	31.164	1965.942	1664.049
-40.027	31.283	1963.085	1662.628
-39.013	31.296	1960.915	1660.836
-37.998	31.290	1959.485	1659.508
-36.984	31.250	1957.842	1657.694
-35.969	31.316	1955.219	1655.996
-34.954	31.329	1954.237	1655.210
-33.940	31.392	1952.563	1654.290
-32.925	31.446	1951.224	1653.567
-31.911	31.426	1949.158	1651.569
-30.896	31.392	1947.699	1649.966
-29.881	31.361	1946.638	1648.734
-28.867	31.400	1944.940	1647.574
-27.852	31.401	1943.407	1646.216
-26.838	31.473	1940.714	1644.499
-25.823	31.428	1939.622	1643.118
-24.809	31.389	1937.756	1641.127
-23.794	31.332	1936.435	1639.447
-22.779	31.413	1933.643	1637.723
-21.765	31.405	1932.432	1636.566
-20.750	31.416	1930.881	1635.283
-19.736	31.354	1929.227	1633.272
-18.721	31.340	1927.826	1631.897
-17.706	31.359	1926.167	1630.599
-16.692	31.368	1924.592	1629.278
-15.677	31.386	1923.380	1628.341
-14.663	31.443	1921.185	1626.916
-13.648	31.390	1920.537	1625.842
-12.633	31.403	1919.407	1624.938
-11.619	31.450	1917.511	1623.675
-10.604	31.296	1916.556	1621.466
-9.590	31.386	1914.969	1620.835
-8.575	31.463	1913.089	1619.849
-7.560	31.447	1912.116	1618.818
-6.546	31.389	1911.090	1617.391
-5.531	31.371	1910.242	1616.450
-4.517	31.503	1908.117	1615.726
-3.502	31.340	1907.682	1613.891
-2.487	31.340	1905.822	1612.247
-1.473	31.416	1905.764	1612.788
-0.458	31.403	1900.705	1608.336
0.556	28.686	1880.400	1578.750
1.571	24.468	1860.392	1525.847
2.586	20.390	1883.142	1509.014
3.600	19.353	1918.800	1528.263
4.615	19.177	1914.735	1523.332
5.629	14.591	1815.480	1405.690
6.644	5.264	1696.010	1239.359
7.659	0.263	1658.069	1172.668
8.673	-0.182	1655.323	1167.166
9.688	-0.341	1654.198	1165.032
10.702	-0.296	1652.327	1163.963
11.717	-0.391	1648.784	1160.623
12.731	-0.151	1647.861	1161.733
13.746	5.750	1662.438	1217.849
14.761	15.231	1683.067	1307.115
15.775	19.652	1690.701	1347.491
16.790	20.228	1691.359	1352.386
17.804	20.262	1690.756	1352.048
18.819	20.302	1690.016	1351.648
19.834	20.351	1689.627	1351.601
20.848	20.581	1688.970	1352.746
21.863	20.660	1687.623	1352.161
22.877	20.667	1687.122	1351.693
23.892	20.759	1685.669	1351.124
24.907	20.656	1685.287	1349.900
25.921	20.681	1683.900	1348.862
26.936	20.670	1682.944	1347.891
27.950	20.666	1681.679	1346.731
28.965	20.625	1681.698	1346.309
29.980	20.774	1679.973	1345.956
30.994	20.642	1679.003	1344.043
32.009	20.722	1677.329	1343.202
33.023	20.688	1677.182	1342.701
34.038	20.663	1675.974	1341.422
35.053	20.693	1674.651	1340.479
36.067	20.672	1673.324	1339.140
37.082	20.719	1672.565	1338.768
38.096	20.698	1671.685	1337.789
39.111	20.688	1670.973	1337.023
40.126	20.718	1670.325	1336.618
41.140	20.650	1669.501	1335.317
42.155	20.639	1668.233	1334.098
43.169	20.630	1667.184	1333.070
44.184	20.673	1665.874	1332.239
45.199	20.629	1665.096	1331.158
46.213	20.606	1663.885	1329.898
47.228	20.602	1663.040	1329.078
48.242	20.662	1661.321	1328.043
49.257	20.639	1660.210	1326.863
50.271	20.628	1659.103	1325.778
51.286	20.649	1657.811	1324.785
52.301	20.682	1655.980	1323.453
53.315	20.658	1654.942	1322.325
54.330	20.681	1653.225	1321.016
55.344	20.659	1652.160	1319.878
56.359	20.706	1650.601	1318.871
57.374	20.659	1649.882	1317.825
58.388	20.703	1648.488	1316.930
59.403	20.648	1647.604	1315.691
60.417	20.569	1646.308	1313.938
61.432	20.668	1645.316	1313.783
62.447	20.684	1644.055	1312.777
63.461	20.710	1643.136	1312.126
64.476	20.655	1642.662	1311.215
65.490	20.620	1641.381	1309.809
66.505	20.714	1639.662	1309.033
67.520	20.708	1639.007	1308.348
68.534	20.701	1637.700	1307.137
69.549	20.645	1636.849	1305.921
70.563	20.675	1635.448	1304.912
71.578	20.729	1634.121	1304.142
72.593	20.690	1633.339	1303.114
73.607	20.664	1632.972	1302.507
74.622	20.778	1631.709	1302.240
75.636	20.664	1630.946	1300.660
76.651	20.665	1630.127	1299.904
77.666	20.696	1628.766	1298.935
78.680	20.748	1627.486	1298.183
79.695	20.727	1626.692	1297.278
80.709	20.692	1625.987	1296.339
81.724	20.739	1625.362	1296.078
82.739	20.775	1624.069	1295.201
83.753	20.760	1623.046	1294.159
84.768	20.698	1622.596	1293.228
85.782	20.693	1621.528	1292.226
86.797	20.651	1620.386	1290.884
87.812	20.708	1619.426	1290.432
88.826	20.781	1618.145	1289.838
89.841	20.664	1617.283	1288.167
90.855	20.582	1616.798	1287.059
91.870	20.721	1615.445	1286.895
92.884	20.698	1614.488	1285.855
93.899	20.767	1613.172	1285.199
94.914	20.845	1611.787	1284.556
95.928	20.721	1611.118	1282.994
96.943	20.747	1609.711	1281.954
97.957	20.783	1608.471	1281.121
98.972	20.740	1607.251	1279.721
99.987	20.737	1605.641	1278.298
101.001	20.799	1604.188	1277.485
102.016	20.836	1602.073	1275.956
103.030	20.641	1601.971	1274.339
104.045	20.726	1600.643	1273.789
105.060	20.693	1599.266	1272.340
106.074	20.790	1597.353	1271.413
107.089	20.801	1596.319	1270.557
108.103	20.695	1595.418	1268.953
109.118	20.860	1593.915	1268.850
110.133	20.830	1592.334	1267.257
111.147	20.846	1590.712	1265.972
112.162	20.824	1589.941	1265.091
113.176	20.766	1589.376	1264.105
114.191	20.857	1587.657	1263.286
115.206	20.780	1586.565	1261.745
116.220	20.812	1585.301	1260.860
117.235	20.803	1584.205	1259.812
118.249	20.812	1582.832	1258.673
119.264	20.781	1581.407	1257.211
120.279	20.804	1580.113	1256.233
121.293	20.864	1578.632	1255.378
122.308	20.847	1577.122	1253.945
123.322	20.809	1576.463	1253.033
124.337	20.896	1574.489	1251.983
125.352	20.873	1573.221	1250.697
126.366	20.905	1572.563	1250.292
127.381	20.911	1571.483	1249.369
128.395	20.881	1570.562	1248.311
129.410	20.921	1569.699	1247.802
130.424	20.940	1568.283	1246.696
131.439	20.960	1566.820	1245.571
132.454	20.900	1565.851	1244.260
133.468	20.982	1564.272	1243.476
134.483	20.922	1562.872	1241.827
135.497	20.795	1562.161	1240.249
136.512	20.766	1560.801	1238.854
137.527	20.869	1559.500	1238.442
138.541	20.951	1558.324	1237.981
139.556	20.888	1556.965	1236.343
140.570	20.862	1556.137	1235.396
141.585	20.899	1554.225	1234.029
142.600	20.852	1553.018	1232.633
143.614	20.860	1552.431	1232.110
144.629	20.940	1550.680	1231.178
145.643	20.965	1549.673	1230.447
146.658	20.864	1548.508	1228.703
147.673	20.806	1546.642	1226.703
148.687	20.827	1545.856	1226.120
149.702	20.867	1544.899	1225.529
150.716	20.757	1543.475	1223.517
151.731	20.826	1542.047	1222.766
152.746	20.930	1541.181	1222.696
153.760	20.966	1539.322	1221.365
154.775	20.890	1538.866	1220.369
155.789	20.846	1537.843	1219.142
156.804	20.883	1536.783	1218.448
157.819	20.981	1534.991	1217.603
158.833	20.914	1534.578	1216.703
159.848	20.952	1533.381	1215.910
160.862	20.881	1532.528	1214.631
161.877	21.025	1531.000	1214.318
162.892	21.001	1529.954	1213.213
163.906	20.996	1529.029	1212.336
164.921	20.971	1528.467	1211.611
165.935	21.139	1527.014	1211.519
166.950	20.978	1526.722	1210.062
167.964	21.001	1525.461	1209.113
168.979	20.954	1524.456	1207.882
169.994	21.047	1523.262	1207.477
171.008	21.122	1522.420	1207.220
172.023	20.995	1522.022	1205.920
173.037	21.124	1520.041	1205.137
174.052	21.086	1519.539	1204.364
175.067	20.953	1519.132	1203.022
176.081	21.025	1517.267	1201.934
177.096	21.109	1516.549	1201.837
178.110	21.050	1515.442	1200.448
179.125	21.032	1514.396	1199.391
180.140	21.129	1513.144	1198.956
181.154	21.125	1512.785	1198.536
182.169	21.038	1511.990	1197.209
183.183	21.072	1510.473	1196.134
184.198	21.058	1509.586	1195.226
185.213	21.085	1508.734	1194.633
186.227	21.089	1508.218	1194.142
187.242	21.188	1507.448	1194.109
188.256	21.159	1506.340	1192.926
189.271	21.203	1505.118	1192.150
190.286	21.132	1504.214	1190.849
191.300	21.088	1503.515	1189.888
192.315	21.109	1502.369	1189.016
193.329	21.070	1501.826	1188.215
194.344	21.090	1500.961	1187.568
195.359	21.163	1499.922	1187.134
196.373	21.211	1499.016	1186.638
197.388	21.092	1498.477	1185.299
198.402	21.148	1496.770	1184.224
199.417	21.040	1496.126	1182.878
200.432	21.047	1495.507	1182.330
201.446	21.121	1495.111	1182.416
202.461	21.129	1494.088	1181.552
203.475	21.101	1492.818	1180.255
204.490	21.114	1491.810	1179.443
205.504	21.132	1491.014	1178.831
206.519	21.100	1490.298	1177.944
207.534	21.043	1489.779	1177.041
208.548	21.235	1488.744	1177.419
209.563	21.170	1487.806	1176.136
210.577	21.128	1486.582	1174.781
211.592	21.112	1486.316	1174.360
212.607	21.196	1485.334	1174.045
213.621	21.208	1484.514	1173.373
214.636	21.230	1484.197	1173.164
215.650	21.246	1482.799	1172.065
216.665	21.260	1482.164	1171.552
217.680	21.285	1481.361	1170.980
218.694	21.214	1480.900	1170.037
219.709	21.212	1479.888	1169.121
220.723	21.193	1479.355	1168.470
221.738	21.306	1477.744	1167.847
222.753	21.274	1477.115	1167.034
223.767	21.114	1476.509	1165.382
224.782	21.136	1475.420	1164.569
225.796	21.357	1474.844	1165.486
226.811	21.268	1474.045	1164.152
227.826	21.362	1473.127	1163.952
228.840	21.308	1472.680	1163.139
229.855	21.357	1471.790	1162.654
230.869	21.384	1470.338	1161.586
231.884	21.284	1470.115	1160.645
232.899	21.201	1469.215	1159.280
233.913	21.363	1467.592	1158.970
234.928	21.203	1467.287	1157.564
235.942	21.426	1465.706	1157.696
236.957	21.496	1464.429	1157.048
237.972	21.433	1463.195	1155.553
238.986	21.382	1462.271	1154.382
240.001	21.379	1461.575	1153.713
241.015	21.415	1460.640	1153.109
242.030	21.435	1459.590	1152.311
243.045	21.408	1459.159	1151.692
244.059	21.464	1458.247	1151.235
245.074	21.524	1456.942	1150.499
246.088	21.524	1456.302	1149.889
247.103	21.498	1455.761	1149.191
248.117	21.400	1455.665	1148.368
249.132	21.493	1454.132	1147.670
250.147	21.494	1453.230	1146.863
251.161	21.585	1452.732	1146.962
252.176	21.536	1452.054	1146.006
253.190	21.540	1451.286	1145.329
254.205	21.647	1450.361	1145.193
255.220	21.596	1449.766	1144.287
256.234	21.638	1448.597	1143.543
257.249	21.580	1448.141	1142.699
258.263	21.573	1447.391	1141.962
259.278	21.616	1446.588	1141.506
260.293	21.608	1445.613	1140.587
261.307	21.642	1444.758	1140.029
262.322	21.632	1444.164	1139.399
263.336	21.586	1443.657	1138.597
264.351	21.676	1442.531	1138.194
265.366	21.597	1441.784	1136.992
266.380	21.659	1440.654	1136.403
267.395	21.677	1439.891	1135.816
268.409	21.498	1439.797	1134.481
269.424	21.639	1437.903	1133.798
270.439	21.619	1437.179	1132.999
271.453	21.713	1435.969	1132.551
272.468	21.724	1435.514	1132.162
273.482	21.665	1435.385	1131.578
274.497	21.699	1434.272	1130.825
275.512	21.635	1433.772	1129.912
276.526	21.741	1432.324	1129.359
277.541	21.721	1431.658	1128.605
278.555	21.648	1431.008	1127.522
279.570	21.710	1430.200	1127.183
280.585	21.795	1429.329	1126.946
281.599	21.776	1428.610	1126.154
282.614	21.765	1427.766	1125.321
283.628	21.742	1426.197	1123.835
284.643	21.722	1425.600	1123.135
285.657	21.835	1424.990	1123.280
286.672	21.778	1424.238	1122.227
287.687	21.761	1422.746	1120.842
288.701	21.712	1422.238	1120.029
289.716	21.904	1421.057	1120.225
290.730	21.892	1420.708	1119.777
291.745	21.812	1419.830	1118.474
292.760	21.862	1418.580	1117.707
293.774	21.854	1418.012	1117.109
294.789	21.797	1417.424	1116.184
295.803	21.835	1416.674	1115.738
296.818	21.914	1415.678	1115.354
297.833	21.799	1415.082	1114.059
298.847	21.848	1414.051	1113.460
299.862	21.931	1412.972	1113.039
300.876	21.927	1412.363	1112.431
301.891	21.960	1411.063	1111.519
302.906	21.932	1410.858	1111.085
303.920	22.024	1410.342	1111.160
304.935	22.001	1409.764	1110.464
305.949	21.973	1408.936	1109.537
306.964	21.900	1407.806	1108.086
307.979	22.003	1406.823	1107.861
308.993	22.048	1405.917	1107.337
310.008	22.031	1405.312	1106.653
311.022	22.052	1404.238	1105.841
312.037	22.089	1403.276	1105.217
313.052	22.063	1402.365	1104.244
314.066	22.083	1401.504	1103.592
315.081	22.016	1400.272	1102.105
316.095	22.041	1399.926	1101.888
317.110	22.062	1398.701	1100.959
318.125	22.113	1397.908	1100.560
319.139	22.086	1397.285	1099.799
320.154	22.161	1396.150	1099.280
321.168	22.080	1395.367	1098.058
322.183	22.207	1394.446	1098.029
323.197	22.113	1393.673	1096.736
324.212	22.139	1393.140	1096.381
325.227	22.103	1392.208	1095.332
326.241	22.233	1390.828	1094.954
327.256	22.170	1390.269	1094.026
328.270	22.324	1389.743	1094.474
329.285	22.248	1388.955	1093.282
330.300	22.168	1387.930	1091.883
331.314	22.209	1387.549	1091.744
332.329	22.209	1386.490	1090.814
333.343	22.166	1385.878	1089.969
334.358	22.278	1384.611	1089.565
335.373	22.174	1384.382	1088.646
336.387	22.270	1383.228	1088.240
337.402	22.296	1382.953	1088.088
338.416	22.350	1382.378	1087.874
339.431	22.324	1382.005	1087.319
340.446	22.352	1381.386	1086.908
341.460	22.359	1380.178	1085.906
342.475	22.408	1379.123	1085.284
343.489	22.504	1378.103	1084.973
344.504	22.346	1377.319	1083.287
345.519	22.408	1376.549	1082.968
346.533	22.359	1375.392	1081.662
347.548	22.414	1374.814	1081.448
348.562	22.446	1373.769	1080.728
349.577	22.458	1373.204	1080.260
350.592	22.458	1372.754	1079.814
351.606	22.409	1371.994	1078.817
352.621	22.332	1370.939	1077.420
353.635	22.394	1369.866	1076.865
354.650	22.516	1369.234	1077.014
355.665	22.469	1368.681	1076.202
356.679	22.435	1367.097	1074.649
357.694	22.483	1366.402	1074.302
358.708	22.573	1365.150	1073.772
359.723	22.571	1364.144	1072.872
360.738	22.513	1363.203	1071.684
361.752	22.494	1362.004	1070.533
362.767	22.516	1360.905	1069.710
363.781	22.554	1360.281	1069.354
364.796	22.575	1359.395	1068.689
365.810	22.584	1358.327	1067.808
366.825	22.662	1357.727	1067.717
367.840	22.582	1357.260	1066.769
368.854	22.726	1356.735	1067.130
369.869	22.723	1356.159	1066.571
370.883	22.639	1355.182	1065.196
371.898	22.647	1354.989	1064.999
372.913	22.709	1354.351	1064.781
373.927	22.698	1353.064	1063.606
374.942	22.760	1352.057	1063.097
375.956	22.717	1351.547	1062.341
376.971	22.746	1350.905	1061.917
377.986	22.703	1350.510	1061.255
379.000	22.709	1349.604	1060.483
380.015	22.742	1348.695	1059.874
381.029	22.870	1347.757	1059.808
382.044	22.741	1347.018	1058.359
383.059	22.736	1346.548	1057.868
384.073	22.698	1346.298	1057.352
385.088	22.795	1345.641	1057.321
386.102	22.872	1344.734	1056.979
387.117	22.718	1344.412	1055.710
388.132	22.784	1343.453	1055.257
389.146	22.875	1342.291	1054.792
390.161	22.878	1341.435	1054.050
391.175	22.895	1341.178	1053.851
392.190	22.889	1340.276	1053.018
393.205	22.958	1339.600	1052.800
394.219	22.801	1339.019	1051.317
395.234	22.865	1337.398	1050.334
396.248	22.891	1336.382	1049.595
397.263	22.908	1335.139	1048.629
398.278	22.998	1333.938	1048.126
399.292	23.067	1333.183	1047.850
400.307	23.037	1332.360	1046.933
401.321	22.943	1331.736	1045.791
402.336	23.047	1330.904	1045.662
403.350	22.975	1329.323	1043.901
404.365	22.995	1328.466	1043.252
405.380	23.047	1327.714	1042.879
406.394	22.999	1327.343	1042.209
407.409	23.013	1326.754	1041.740
408.423	23.095	1325.781	1041.365
409.438	23.107	1325.035	1040.758
410.453	23.091	1324.317	1040.005
411.467	23.158	1323.658	1039.794
412.482	23.235	1322.823	1039.497
413.496	23.208	1322.222	1038.771
414.511	23.138	1321.781	1037.923
415.526	23.162	1320.911	1037.287
416.540	23.193	1319.704	1036.432
417.555	23.164	1319.289	1035.842
418.569	23.181	1318.639	1035.342
419.584	23.237	1318.259	1035.277
420.599	23.273	1317.532	1034.825
421.613	138.680	1431.037	1796.602
422.628	134.845	1447.545	1796.698
