DTS Sentinel unit serial number:	SN413079Multiplexer serial number:	ORYXHardware model number:	OX4-SRSoftware version number:	ORYX F/W v4.00 Oryx Data Collector v3.7.2.0data status	okinstallation	princeton_trtdifferential loss correction	single-endedforward channel	channel 4reverse channel	N/Adate	2019/09/11time	20:31:10forward acquisition time	60.00reverse acquisition time	0.00gamma	496.2192k internal	0.2303k external	0.2303temperature offset calibration	1.0058default loss term (dB/km)	0.3790temperature slope calibration	1.0000multiplexer offset coefficient	1.0000multiplexer slope coefficient	1.0000fibre end	0.00T internal ref (°C)	37.58T ext. ref 1 (°C)	1.49T ext. ref 2 (°C)	30.88length (m)	temperature (°C)	Stokes	anti-Stokes-747.200	-200.000	-0.019	0.251
-746.185	-89.252	-0.271	0.081
-745.171	86.412	0.222	0.249
-744.156	-200.000	0.025	0.185
-743.142	514.851	-0.057	-0.136
-742.127	289.644	0.208	0.384
-741.112	-172.914	0.145	-0.005
-740.098	800.000	-0.066	-0.191
-739.083	5.899	0.119	0.090
-738.069	-52.838	0.179	0.084
-737.054	-200.000	0.014	0.112
-736.039	-46.065	-0.186	0.093
-735.025	-28.154	0.093	0.055
-734.010	-97.863	-0.539	0.142
-732.996	-151.746	0.117	-0.009
-731.981	118.638	-0.104	0.131
-730.966	557.235	0.144	0.353
-729.952	-153.029	-0.187	-0.013
-728.937	-200.000	-0.016	-0.265
-727.923	173.726	0.111	-0.163
-726.908	-200.000	0.031	-0.222
-725.894	45.835	0.217	0.204
-724.879	-152.869	0.185	-0.013
-723.864	143.121	-0.196	-0.265
-722.850	800.000	0.077	-0.240
-721.835	75.630	0.058	0.063
-720.821	-200.000	0.036	-0.168
-719.806	207.651	0.201	-0.320
-718.791	-135.046	-0.177	0.022
-717.777	-200.000	-0.018	0.240
-716.762	-48.417	0.124	-0.061
-715.748	12.738	0.245	0.192
-714.733	-35.777	0.239	-0.132
-713.718	-120.898	-0.309	-0.053
-712.704	-21.714	-0.165	0.102
-711.689	50.161	0.270	0.259
-710.675	800.000	-0.037	0.137
-709.660	800.000	-0.076	-0.231
-708.645	-177.212	-0.228	-0.006
-707.631	-124.205	0.297	-0.047
-706.616	-200.000	-0.080	0.383
-705.602	-162.918	0.209	-0.010
-704.587	-16.417	0.202	0.130
-703.572	150.285	-0.182	-0.252
-702.558	800.000	0.078	-0.249
-701.543	-81.463	0.334	-0.112
-700.529	197.585	0.168	-0.260
-699.514	44.734	0.208	0.194
-698.499	-116.375	-0.247	-0.047
-697.485	383.787	-0.059	0.123
-696.470	0.962	-0.102	-0.075
-695.456	-200.000	-0.007	0.085
-694.441	-70.657	-0.049	0.019
-693.426	-200.000	-0.009	0.210
-692.412	-89.185	0.252	0.076
-691.397	-139.048	-0.332	-0.037
-690.383	-86.795	-0.370	-0.115
-689.368	136.122	-0.165	0.218
-688.354	2.861	0.160	0.118
-687.339	800.000	-0.124	-0.352
-686.324	-120.210	0.200	0.035
-685.310	226.581	0.216	-0.357
-684.295	12.764	-0.045	0.036
-683.281	441.306	0.069	-0.155
-682.266	51.452	0.355	-0.342
-681.251	252.727	-0.029	-0.050
-680.237	165.799	0.121	0.174
-679.222	-200.000	-0.015	0.247
-678.208	-109.743	0.059	-0.013
-677.193	-58.834	-0.040	0.017
-676.178	800.000	0.069	-0.239
-675.164	-200.000	-0.011	-0.220
-674.149	71.675	-0.187	0.197
-673.135	280.922	-0.182	0.332
-672.120	-200.000	0.040	-0.325
-671.105	35.101	0.215	0.191
-670.091	-115.354	-0.188	0.036
-669.076	694.814	-0.102	-0.271
-668.062	-200.000	-0.016	0.134
-667.047	-16.800	-0.047	0.030
-666.032	-200.000	-0.071	0.000
-665.018	-200.000	0.012	0.203
-664.003	-96.615	-0.318	-0.085
-662.989	800.000	-0.043	-0.125
-661.974	70.544	0.335	0.352
-660.959	800.000	0.034	-0.098
-659.945	239.797	0.110	0.185
-658.930	-32.065	-0.087	-0.049
-657.916	800.000	0.055	-0.198
-656.901	210.560	0.064	-0.102
-655.886	95.329	0.084	-0.097
-654.872	191.111	0.192	-0.293
-653.857	543.817	0.105	0.255
-652.843	800.000	-0.101	0.343
-651.828	-5.876	-0.197	-0.137
-650.814	177.355	-0.143	0.211
-649.799	800.000	0.112	-0.321
-648.784	-95.007	-0.156	0.043
-647.770	-200.000	-0.036	0.454
-646.755	-200.000	0.009	-0.071
-645.741	629.099	-0.091	-0.233
-644.726	29.305	-0.219	-0.189
-643.711	-200.000	-0.039	-0.256
-642.697	360.213	-0.076	0.155
-641.682	-20.401	-0.175	0.109
-640.668	120.057	0.109	0.137
-639.653	78.709	-0.345	-0.374
-638.638	-200.000	-0.042	-0.210
-637.624	-200.000	0.026	-0.182
-636.609	-149.645	0.205	0.016
-635.595	0.622	0.128	0.093
-634.580	3.726	-0.087	-0.065
-633.565	-68.866	0.143	-0.056
-632.551	149.028	-0.118	-0.163
-631.536	-148.887	-0.226	-0.019
-630.522	179.834	-0.153	0.228
-629.507	49.968	-0.198	0.190
-628.492	-90.138	-0.132	-0.039
-627.478	249.575	0.117	-0.201
-626.463	-86.130	0.059	-0.018
-625.449	-142.888	-0.094	0.009
-624.434	86.365	0.065	-0.073
-623.419	5.476	0.239	0.179
-622.405	-35.584	0.285	0.157
-621.390	201.348	-0.068	-0.106
-620.376	1.788	0.278	0.203
-619.361	-14.493	0.258	0.169
-618.346	-166.101	-0.304	0.013
-617.332	-83.692	0.141	-0.046
-616.317	273.604	0.212	-0.380
-615.303	800.000	0.156	-0.452
-614.288	340.158	-0.072	0.143
-613.273	127.509	0.028	0.036
-612.259	-158.333	0.049	0.003
-611.244	20.587	-0.217	-0.178
-610.230	434.878	0.130	0.287
-609.215	-200.000	-0.058	0.318
-608.201	-200.000	-0.051	0.396
-607.186	-200.000	0.039	0.278
-606.171	-106.936	0.152	-0.034
-605.157	31.355	0.135	-0.118
-604.142	-200.000	0.012	-0.197
-603.128	45.479	-0.110	-0.103
-602.113	504.399	-0.040	-0.093
-601.098	-124.936	-0.154	0.024
-600.084	-200.000	-0.048	-0.392
-599.069	15.932	-0.083	0.066
-598.055	-1.951	0.063	0.045
-597.040	-130.589	0.195	0.027
-596.025	-115.152	-0.229	0.044
-595.011	800.000	0.068	0.206
-593.996	460.032	-0.140	0.317
-592.982	-200.000	-0.069	0.468
-591.967	3.985	0.042	0.031
-590.952	23.586	0.220	-0.184
-589.938	-65.035	0.128	0.053
-588.923	-41.485	0.300	0.156
-587.909	-200.000	0.070	-0.394
-586.894	-112.921	-0.471	0.094
-585.879	-200.000	-0.007	-0.090
-584.865	479.075	0.101	0.232
-583.850	-17.119	0.373	-0.238
-582.836	38.842	0.042	-0.038
-581.821	101.119	-0.208	0.245
-580.806	444.950	0.075	-0.166
-579.792	324.556	0.049	-0.096
-578.777	21.283	-0.452	-0.372
-577.763	-161.010	0.272	-0.014
-576.748	228.856	0.029	-0.047
-575.733	-71.343	0.330	0.125
-574.719	-91.390	-0.252	-0.073
-573.704	-200.000	0.038	0.194
-572.690	79.190	0.136	-0.148
-571.675	800.000	0.016	0.060
-570.661	-200.000	-0.001	-0.292
-569.646	-200.000	0.038	-0.197
-568.631	86.745	0.238	-0.266
-567.617	800.000	0.014	0.057
-566.602	163.325	-0.070	-0.100
-565.588	-6.144	-0.269	-0.186
-564.573	-136.488	0.177	0.021
-563.558	82.858	-0.266	-0.293
-562.544	16.388	-0.123	0.098
-561.529	185.193	0.151	-0.226
-560.515	197.012	0.118	-0.183
-559.500	-180.933	-0.120	0.002
-558.485	800.000	0.116	-0.489
-557.471	800.000	-0.049	-0.141
-556.456	-17.084	0.053	-0.034
-555.442	-46.240	0.111	-0.055
-554.427	800.000	-0.047	-0.137
-553.412	-200.000	0.078	0.000
-552.398	-130.078	-0.036	0.005
-551.383	585.406	-0.067	0.168
-550.369	-200.000	0.040	-0.377
-549.354	33.889	-0.138	0.122
-548.339	83.289	-0.208	-0.229
-547.325	214.772	-0.079	0.126
-546.310	88.917	-0.211	0.238
-545.296	20.350	-0.054	0.044
-544.281	-132.734	0.155	-0.020
-543.266	-66.877	0.127	-0.051
-542.252	-3.193	-0.254	-0.179
-541.237	-200.000	0.051	-0.462
-540.223	-55.137	0.291	-0.132
-539.208	-26.423	0.193	-0.114
-538.193	-68.244	-0.225	-0.088
-537.179	-49.740	-0.155	-0.075
-536.164	41.334	-0.141	0.129
-535.150	513.657	0.173	-0.408
-534.135	-153.428	-0.144	0.010
-533.121	438.119	-0.081	0.178
-532.106	214.957	0.075	-0.120
-531.091	-200.000	0.016	-0.212
-530.077	-104.256	0.315	-0.074
-529.062	10.817	0.153	-0.118
-528.048	-102.753	0.232	0.056
-527.033	-141.763	0.281	0.029
-526.018	-200.000	-0.012	0.178
-525.004	229.232	0.185	-0.305
-523.989	-124.297	0.217	0.034
-522.975	77.791	-0.137	-0.147
-521.960	-87.995	-0.491	-0.149
-520.945	44.680	-0.315	-0.293
-519.931	-32.128	0.222	-0.125
-518.916	619.024	0.061	-0.156
-517.902	800.000	-0.060	0.244
-516.887	16.036	0.231	-0.184
-515.872	-120.210	0.034	-0.006
-514.858	-35.659	-0.033	-0.018
-513.843	800.000	0.112	-0.323
-512.829	162.744	0.080	0.114
-511.814	-143.234	0.394	-0.038
-510.799	35.563	-0.101	-0.090
-509.785	-73.784	0.262	-0.096
-508.770	-200.000	0.039	0.360
-507.756	-200.000	-0.023	0.194
-506.741	-66.301	0.241	0.097
-505.726	-138.506	0.535	0.059
-504.712	-118.536	0.111	-0.020
-503.697	637.600	-0.143	0.368
-502.683	184.386	-0.127	0.190
-501.668	-36.847	0.299	-0.162
-500.653	13.430	-0.318	-0.249
-499.639	-23.969	-0.225	0.136
-498.624	76.791	-0.141	0.151
-497.610	87.187	0.104	0.116
-496.595	794.269	-0.165	-0.459
-495.581	569.349	-0.052	0.127
-494.566	-50.008	0.228	-0.109
-493.551	-200.000	-0.005	0.156
-492.537	-24.530	-0.428	-0.257
-491.522	-80.358	0.234	-0.079
-490.508	222.185	0.127	-0.206
-489.493	290.531	0.107	0.195
-488.478	-200.000	0.016	0.253
-487.464	220.434	0.150	0.242
-486.449	-92.221	-0.145	-0.041
-485.435	800.000	-0.045	-0.165
-484.420	189.344	-0.035	0.053
-483.405	800.000	0.065	-0.183
-482.391	550.682	0.047	-0.114
-481.376	800.000	-0.074	0.301
-480.362	-88.854	-0.125	-0.037
-479.347	-200.000	0.005	0.074
-478.332	-19.455	-0.252	0.157
-477.318	237.571	0.177	0.296
-476.303	-200.000	0.025	-0.116
-475.289	64.158	0.190	-0.193
-474.274	239.863	0.117	-0.196
-473.259	336.351	0.122	-0.239
-472.245	47.958	-0.070	-0.066
-471.230	-76.962	-0.089	-0.031
-470.216	-200.000	-0.016	-0.093
-469.201	138.908	-0.088	-0.116
-468.186	800.000	-0.098	-0.286
-467.172	-123.883	0.067	-0.011
-466.157	-163.806	0.114	0.005
-465.143	417.240	-0.108	0.232
-464.128	-86.434	-0.168	0.052
-463.113	587.609	0.177	0.440
-462.099	-200.000	0.001	0.249
-461.084	800.000	-0.041	0.168
-460.070	410.229	0.107	0.228
-459.055	-200.000	-0.018	-0.176
-458.040	-12.605	-0.084	0.055
-457.026	50.628	-0.178	-0.170
-456.011	605.080	0.133	0.332
-454.997	406.908	-0.127	-0.270
-453.982	16.576	0.216	0.172
-452.968	255.961	-0.013	-0.023
-451.953	-7.474	-0.066	0.045
-450.938	-200.000	0.015	0.231
-449.924	19.739	-0.196	-0.159
-448.909	-200.000	-0.029	0.351
-447.895	113.786	0.065	-0.080
-446.880	800.000	0.047	-0.133
-445.865	-176.772	0.298	0.008
-444.851	73.025	-0.244	-0.257
-443.836	116.409	0.176	0.218
-442.822	-147.356	-0.248	0.021
-441.807	-77.266	-0.217	-0.076
-440.792	-67.553	0.113	0.045
-439.778	-38.332	-0.047	-0.025
-438.763	800.000	0.070	0.228
-437.749	-200.000	-0.035	0.262
-436.734	-95.561	0.171	0.046
-435.719	262.231	-0.182	-0.318
-434.705	-124.694	-0.161	0.025
-433.690	98.459	-0.049	-0.057
-432.676	57.765	-0.179	0.176
-431.661	289.106	-0.231	0.421
-430.646	-200.000	0.037	-0.187
-429.632	-200.000	0.016	0.111
-428.617	24.887	0.193	-0.161
-427.603	-174.907	0.244	-0.007
-426.588	289.689	0.135	-0.246
-425.573	157.184	0.138	0.192
-424.559	149.752	-0.103	-0.141
-423.544	-62.635	0.359	-0.150
-422.530	-19.607	-0.377	-0.235
-421.515	800.000	0.025	-0.094
-420.500	788.571	-0.041	-0.115
-419.486	-107.425	0.194	-0.043
-418.471	-25.436	-0.358	-0.213
-417.457	-133.451	0.134	0.017
-416.442	62.436	0.318	0.319
-415.428	38.390	-0.228	-0.204
-414.413	-82.378	0.131	0.043
-413.398	24.910	-0.205	-0.171
-412.384	528.750	-0.048	0.114
-411.369	-32.223	0.340	0.191
-410.355	-168.820	-0.274	0.010
-409.340	519.032	-0.031	-0.072
-408.325	-153.710	-0.140	0.010
-407.311	-41.994	-0.113	0.058
-406.296	-200.000	0.014	0.182
-405.282	-200.000	0.115	0.586
-404.267	64.064	-0.341	-0.345
-403.252	106.011	-0.014	0.017
-402.238	-167.586	0.296	-0.012
-401.223	-171.594	0.212	-0.007
-400.209	12.688	0.086	0.067
-399.194	136.158	-0.189	-0.247
-398.179	-121.616	-0.041	0.007
-397.165	36.666	-0.209	0.186
-396.150	-200.000	-0.007	0.043
-395.136	-200.000	0.006	0.151
-394.121	139.974	-0.086	0.114
-393.106	96.910	0.118	0.136
-392.092	-101.021	-0.213	-0.052
-391.077	267.239	-0.152	0.267
-390.063	-200.000	-0.001	0.044
-389.048	-11.924	0.244	-0.161
-388.033	10.957	-0.061	-0.047
-387.019	-200.000	0.020	0.253
-386.004	800.000	0.026	0.093
-384.990	-77.114	-0.244	-0.086
-383.975	-200.000	-0.014	-0.074
-382.960	216.972	-0.022	-0.035
-381.946	-200.000	-0.000	0.017
-380.931	117.707	-0.063	0.078
-379.917	40.127	0.117	-0.105
-378.902	-0.705	0.049	0.035
-377.888	682.390	0.090	0.235
-376.873	241.482	-0.197	0.330
-375.858	-44.727	-0.118	-0.059
-374.844	-98.398	0.311	-0.080
-373.829	-25.542	0.018	-0.011
-372.815	78.988	0.090	-0.097
-371.800	100.172	-0.162	0.188
-370.785	727.472	-0.121	0.323
-369.771	17.678	0.164	0.131
-368.756	553.950	-0.133	-0.321
-367.742	89.363	0.232	-0.260
-366.727	-36.323	-0.187	-0.101
-365.712	411.689	-0.123	0.261
-364.698	166.994	-0.029	0.041
-363.683	800.000	-0.082	0.315
-362.669	241.161	-0.112	-0.187
-361.654	135.991	0.253	-0.331
-360.639	-78.826	0.300	0.103
-359.625	-152.704	-0.311	-0.022
-358.610	507.254	-0.055	-0.127
-357.596	-200.000	0.073	0.349
-356.581	-135.278	-0.128	-0.015
-355.566	-200.000	0.027	-0.198
-354.552	-93.791	0.253	-0.070
-353.537	-62.442	-0.126	0.052
-352.523	-34.030	0.086	-0.048
-351.508	-156.679	-0.082	0.005
-350.493	-44.500	-0.193	0.097
-349.479	-200.000	0.031	0.214
-348.464	-82.536	0.163	-0.053
-347.450	-200.000	-0.032	0.204
-346.435	-85.987	-0.038	0.012
-345.420	-137.893	0.340	-0.038
-344.406	-166.418	0.474	0.020
-343.391	-13.538	-0.121	0.079
-342.377	-195.787	-0.156	-0.001
-341.362	-89.014	0.249	-0.074
-340.348	-200.000	-0.027	-0.445
-339.333	800.000	-0.087	0.323
-338.318	475.289	-0.063	0.144
-337.304	-200.000	-0.008	-0.088
-336.289	33.493	0.062	-0.054
-335.275	28.247	-0.121	0.102
-334.260	-22.971	-0.148	-0.089
-333.245	-200.000	0.022	-0.311
-332.231	120.247	0.153	0.191
-331.216	-102.204	-0.191	0.046
-330.202	167.946	0.070	0.100
-329.187	-64.287	0.304	0.124
-328.172	-0.309	-0.208	-0.148
-327.158	366.075	-0.130	-0.263
-326.143	519.255	0.188	0.442
-325.129	-120.394	0.281	-0.048
-324.114	-200.000	-0.006	-0.363
-323.099	129.623	-0.089	-0.114
-322.085	23.141	0.124	0.102
-321.070	-147.564	0.158	0.013
-320.056	-5.672	-0.207	-0.142
-319.041	-25.688	-0.143	-0.085
-318.026	-200.000	0.068	0.354
-317.012	24.828	-0.246	-0.205
-315.997	-117.943	0.318	-0.057
-314.983	160.355	-0.083	-0.116
-313.968	-200.000	0.043	0.250
-312.953	-184.274	-0.378	0.006
-311.939	-200.000	-0.072	-0.326
-310.924	-200.000	0.007	-0.263
-309.910	-59.403	-0.239	0.103
-308.895	-54.575	-0.079	-0.036
-307.880	33.349	-0.329	0.286
-306.866	-200.000	-0.017	0.266
-305.851	800.000	0.018	0.057
-304.837	12.144	-0.354	-0.273
-303.822	57.797	0.061	0.060
-302.807	800.000	0.111	0.422
-301.793	-132.008	0.146	0.019
-300.778	-126.363	0.095	-0.014
-299.764	-12.157	0.245	-0.160
-298.749	-200.000	0.085	0.486
-297.735	-112.151	-0.226	0.045
-296.720	480.832	0.054	0.124
-295.705	28.684	-0.118	0.100
-294.691	25.715	0.139	-0.116
-293.676	473.207	-0.139	-0.314
-292.662	-93.158	0.287	-0.080
-291.647	629.248	-0.036	0.092
-290.632	-200.000	-0.012	0.080
-289.618	-200.000	-0.014	-0.086
-288.603	159.473	0.158	0.221
-287.589	50.036	0.270	-0.255
-286.574	800.000	-0.071	0.225
-285.559	-112.656	-0.243	0.048
-284.545	-200.000	-0.007	0.248
-283.530	-171.769	0.160	0.005
-282.516	-48.183	0.054	-0.026
-281.501	93.328	-0.228	0.258
-280.486	244.012	0.231	-0.388
-279.472	-200.000	-0.001	-0.620
-278.457	108.645	0.112	-0.134
-277.443	800.000	-0.111	0.317
-276.428	51.411	-0.140	-0.133
-275.413	-200.000	-0.058	0.287
-274.399	-200.000	0.004	0.465
-273.384	243.422	-0.292	-0.490
-272.370	112.318	0.057	0.068
-271.355	524.498	0.037	0.088
-270.340	46.617	-0.130	0.121
-269.326	61.919	-0.330	-0.329
-268.311	53.946	-0.034	-0.033
-267.297	149.425	-0.130	0.176
-266.282	-120.718	-0.208	-0.035
-265.267	-125.306	-0.088	0.013
-264.253	311.620	0.143	-0.269
-263.238	71.702	0.055	0.058
-262.224	19.768	-0.445	-0.358
-261.209	-90.614	-0.287	0.083
-260.195	-200.000	-0.011	-0.156
-259.180	-82.132	-0.201	-0.065
-258.165	207.780	-0.018	0.028
-257.151	-135.422	0.145	0.017
-256.136	-3.671	-0.106	0.073
-255.122	-3.169	-0.130	0.091
-254.107	800.000	0.114	0.366
-253.092	74.753	0.022	-0.023
-252.078	-162.841	0.200	-0.010
-251.063	-170.529	-0.203	-0.007
-250.049	-200.000	-0.086	-0.444
-249.034	800.000	-0.055	-0.162
-248.019	36.231	-0.326	-0.287
-247.005	-78.354	-0.286	-0.098
-245.990	56.698	-0.064	-0.063
-244.976	-200.000	0.024	0.275
-243.961	-82.688	-0.220	-0.071
-242.946	-200.000	0.011	0.077
-241.932	-123.114	-0.214	-0.034
-240.917	-75.049	0.132	0.047
-239.903	-64.389	-0.177	-0.072
-238.888	233.996	-0.119	0.195
-237.873	781.605	0.046	-0.126
-236.859	109.606	0.195	0.233
-235.844	97.081	-0.245	0.280
-234.830	439.398	0.159	0.346
-233.815	433.935	0.079	0.172
-232.800	-7.202	-0.105	-0.071
-231.786	20.036	0.219	-0.176
-230.771	-200.000	0.012	0.077
-229.757	-99.010	-0.090	-0.023
-228.742	800.000	0.049	-0.188
-227.727	-200.000	0.001	0.101
-226.713	-128.826	-0.139	-0.020
-225.698	-200.000	-0.014	-0.090
-224.684	-200.000	-0.033	0.239
-223.669	800.000	-0.069	0.298
-222.655	-110.334	-0.360	-0.075
-221.640	-162.314	-0.161	-0.008
-220.625	439.039	-0.081	-0.175
-219.611	134.378	-0.270	-0.350
-218.596	-17.365	-0.228	0.143
-217.582	632.143	0.059	0.150
-216.567	42.910	0.391	-0.356
-215.552	230.780	0.119	0.194
-214.538	136.062	0.196	0.254
-213.523	800.000	-0.037	0.126
-212.509	-64.745	0.189	-0.077
-211.494	-148.635	0.423	-0.034
-210.479	524.441	0.021	-0.050
-209.465	271.680	0.217	0.381
-208.450	7.086	-0.155	0.115
-207.436	-40.119	-0.097	-0.051
-206.421	585.527	0.146	0.358
-205.406	-200.000	-0.016	0.109
-204.392	34.887	0.295	-0.258
-203.377	-8.964	0.149	-0.099
-202.363	-138.786	-0.223	-0.024
-201.348	123.334	0.082	0.103
-200.333	-189.470	0.261	0.003
-199.319	-135.517	0.137	-0.016
-198.304	85.943	0.092	0.101
-197.290	30.316	0.123	0.105
-196.275	-200.000	-0.044	0.244
-195.260	489.244	0.083	-0.188
-194.246	380.840	0.054	0.111
-193.231	60.988	-0.109	0.107
-192.217	-143.416	0.373	-0.036
-191.202	-67.135	-0.184	0.072
-190.187	66.524	0.148	0.150
-189.173	800.000	-0.066	0.283
-188.158	-136.914	0.106	-0.012
-187.144	429.336	-0.057	-0.122
-186.129	46.608	0.167	-0.155
-185.114	-122.602	0.324	-0.052
-184.100	-113.755	-0.099	-0.019
-183.085	1.936	-0.131	0.094
-182.071	-124.359	0.231	0.036
-181.056	-50.285	-0.023	-0.011
-180.042	207.295	-0.138	-0.215
-179.027	-20.806	-0.230	0.140
-178.012	-200.000	-0.029	0.185
-176.998	150.796	0.260	0.353
-175.983	508.183	0.094	0.216
-174.969	-178.418	-0.089	-0.002
-173.954	-114.221	0.035	-0.007
-172.939	-64.475	-0.267	-0.108
-171.925	-69.290	-0.218	0.084
-170.910	-70.249	0.230	-0.087
-169.896	-7.466	-0.209	-0.141
-168.881	-86.232	0.347	-0.107
-167.866	-64.596	0.193	0.078
-166.852	7.856	-0.136	-0.102
-165.837	-200.000	-0.020	0.224
-164.823	69.582	0.074	0.076
-163.808	-199.532	0.275	-0.001
-162.793	-39.621	-0.254	-0.133
-161.779	-138.849	-0.094	0.010
-160.764	575.624	-0.087	0.211
-159.750	56.622	0.154	-0.150
-158.735	132.159	0.272	0.349
-157.720	140.804	0.110	0.144
-156.706	597.383	-0.138	-0.342
-155.691	-167.784	-0.145	0.006
-154.677	-36.972	0.251	0.134
-153.662	-139.713	-0.323	0.034
-152.647	-45.602	0.147	-0.073
-151.633	162.068	0.055	0.076
-150.618	-144.479	0.063	0.006
-149.604	30.203	-0.344	0.292
-148.589	19.954	-0.093	0.074
-147.574	71.245	0.035	0.036
-146.560	-200.000	0.006	0.358
-145.545	153.795	0.166	0.226
-144.531	-200.000	0.020	-0.111
-143.516	-57.376	-0.158	-0.069
-142.502	-159.726	0.200	0.011
-141.487	-79.954	-0.121	0.041
-140.472	-34.942	0.197	0.107
-139.458	222.910	0.058	0.092
-138.443	800.000	-0.036	0.105
-137.429	-200.000	-0.003	-0.080
-136.414	87.075	0.114	-0.126
-135.399	-106.366	0.216	-0.048
-134.385	531.103	-0.095	0.223
-133.370	172.268	0.036	-0.051
-132.356	77.353	0.130	0.138
-131.341	252.355	0.099	-0.168
-130.326	-98.836	0.332	0.084
-129.312	384.392	0.009	-0.018
-128.297	0.174	-0.232	-0.165
-127.283	-40.999	0.154	0.079
-126.268	1.611	0.258	0.185
-125.253	-175.663	0.290	0.008
-124.239	800.000	0.030	-0.115
-123.224	54.144	0.107	0.103
-122.210	39.825	-0.135	-0.121
-121.195	-92.106	0.222	-0.062
-120.180	481.657	0.087	-0.197
-119.166	-40.063	-0.246	0.128
-118.151	-100.767	0.107	0.026
-117.137	-200.000	0.007	0.059
-116.122	47.600	-0.118	0.109
-115.107	19.942	-0.120	-0.096
-114.093	-200.000	0.018	0.113
-113.078	-125.385	-0.192	0.029
-112.064	67.570	-0.170	0.173
-111.049	222.469	-0.074	-0.118
-110.034	228.799	-0.083	0.134
-109.020	-200.000	0.031	0.178
-108.005	303.395	-0.073	0.135
-106.991	263.313	0.127	0.219
-105.976	800.000	0.099	0.365
-104.962	125.929	-0.019	0.024
-103.947	7.639	0.158	-0.118
-102.932	88.571	0.304	-0.336
-101.918	533.285	-0.123	0.290
-100.903	800.000	-0.023	-0.068
-99.889	31.569	0.075	0.064
-98.874	-200.000	0.012	0.106
-97.859	239.592	0.085	-0.141
-96.845	800.000	0.115	-0.403
-95.830	105.364	-0.172	-0.202
-94.816	94.881	0.111	0.126
-93.801	-110.339	0.313	-0.065
-92.786	-76.439	0.157	0.055
-91.772	-200.000	-0.022	0.241
-90.757	131.753	-0.148	0.188
-89.743	-77.562	0.171	-0.059
-88.728	96.307	-0.170	-0.193
-87.713	-115.943	0.327	-0.061
-86.699	800.000	0.103	0.376
-85.684	57.835	-0.139	0.135
-84.670	-40.540	0.084	-0.043
-83.655	443.096	0.070	0.152
-82.640	-42.735	-0.253	0.128
-81.626	102.613	-0.111	0.129
-80.611	-80.147	-0.118	0.039
-79.597	-200.000	0.026	0.128
-78.582	130.586	-0.203	0.258
-77.567	-19.397	0.370	0.228
-76.553	105.960	0.252	-0.296
-75.538	502.010	-0.061	-0.140
-74.524	800.000	-0.061	0.204
-73.509	-126.072	0.274	-0.041
-72.494	-111.011	-0.247	-0.050
-71.480	-162.504	0.263	0.013
-70.465	85.497	-0.230	0.250
-69.451	-123.309	0.198	0.031
-68.436	-197.553	0.183	-0.001
-67.422	24.374	0.238	0.195
-66.407	375.980	-0.180	-0.363
-65.392	-125.281	0.041	-0.006
-64.378	261.646	-0.099	0.170
-63.363	-151.171	0.550	-0.041
-62.349	-42.678	0.439	-0.221
-61.334	152.540	-0.637	-0.863
-60.319	33.316	0.509	0.438
-59.305	-200.000	-0.126	-0.829
-58.290	800.000	0.216	0.630
-57.276	763.733	0.700	1.885
-56.261	-200.000	87.979	492.940
-55.246	473.295	1365.926	3053.210
-54.232	149.348	2584.211	3469.571
-53.217	104.903	2333.051	2728.277
-52.203	44.034	2079.019	1889.787
-51.188	39.407	1990.034	1767.417
-50.173	37.777	1971.283	1736.187
-49.159	50.412	2018.579	1892.085
-48.144	53.441	2038.832	1938.366
-47.130	40.209	1997.156	1780.680
-46.115	37.751	1985.372	1748.079
-45.100	37.588	1982.269	1743.823
-44.086	37.529	1980.414	1741.594
-43.071	37.548	1977.773	1739.365
-42.057	37.501	1976.256	1737.549
-41.042	37.578	1973.866	1736.065
-40.027	37.550	1971.536	1733.697
-39.013	37.547	1969.851	1732.114
-37.998	37.456	1968.414	1729.972
-36.984	37.563	1966.407	1729.095
-35.969	37.498	1964.731	1726.970
-34.954	37.603	1962.634	1725.996
-33.940	37.657	1961.432	1725.345
-32.925	37.617	1959.445	1723.180
-31.911	37.562	1958.288	1721.605
-30.896	37.616	1956.525	1720.462
-29.881	37.641	1954.709	1719.014
-28.867	37.648	1953.230	1717.713
-27.852	37.767	1950.853	1716.600
-26.838	37.585	1949.894	1714.086
-25.823	37.685	1947.912	1713.152
-24.809	37.633	1946.048	1710.989
-23.794	37.685	1943.806	1709.408
-22.779	37.536	1942.541	1706.920
-21.765	37.562	1941.098	1705.810
-20.750	37.617	1939.255	1704.608
-19.736	37.543	1937.980	1702.770
-18.721	37.615	1936.584	1702.106
-17.706	37.522	1934.982	1699.821
-16.692	37.515	1933.561	1698.438
-15.677	37.528	1931.738	1696.891
-14.663	37.583	1930.280	1696.015
-13.648	37.606	1928.881	1694.923
-12.633	37.584	1927.375	1693.342
-11.619	37.555	1926.080	1691.882
-10.604	37.581	1924.464	1690.621
-9.590	37.575	1923.289	1689.466
-8.575	37.548	1921.975	1688.014
-7.560	37.564	1920.698	1686.969
-6.546	37.594	1918.878	1685.562
-5.531	37.509	1917.823	1683.830
-4.517	37.573	1916.705	1683.338
-3.502	37.584	1915.492	1682.301
-2.487	37.520	1913.995	1680.362
-1.473	37.470	1913.759	1679.660
-0.458	37.534	1909.136	1676.086
0.556	36.943	1888.694	1646.010
1.571	32.278	1868.217	1588.714
2.586	27.860	1889.205	1568.562
3.600	26.659	1925.316	1587.882
4.615	25.860	1921.316	1577.450
5.629	19.637	1818.652	1441.286
6.644	8.189	1694.357	1253.191
7.659	2.163	1652.740	1176.011
8.673	1.594	1648.793	1168.727
9.688	1.555	1647.843	1167.655
10.702	1.456	1645.971	1165.460
11.717	1.346	1643.174	1162.535
12.731	1.764	1642.659	1165.269
13.746	8.875	1659.675	1232.052
14.761	19.708	1683.920	1333.993
15.775	24.914	1692.310	1380.786
16.790	25.633	1693.122	1386.877
17.804	25.726	1693.003	1387.374
18.819	25.758	1692.217	1386.852
19.834	25.978	1691.472	1387.810
20.848	26.073	1691.038	1388.064
21.863	26.210	1689.901	1388.061
22.877	26.158	1688.960	1386.765
23.892	26.141	1687.933	1385.666
24.907	26.198	1686.959	1385.181
25.921	26.145	1686.351	1384.153
26.936	26.099	1685.190	1382.725
27.950	26.183	1684.164	1382.406
28.965	26.131	1684.109	1381.840
29.980	26.197	1682.669	1381.040
30.994	26.111	1681.524	1379.325
32.009	26.053	1680.753	1378.122
33.023	26.098	1679.349	1377.197
34.038	26.175	1678.034	1376.583
35.053	26.124	1677.013	1375.236
36.067	26.192	1676.503	1375.209
37.082	26.139	1675.030	1373.480
38.096	26.135	1673.846	1372.357
39.111	26.101	1673.452	1371.652
40.126	26.069	1673.173	1371.057
41.140	26.109	1672.267	1370.501
42.155	26.162	1670.761	1369.544
43.169	26.099	1669.897	1368.237
44.184	26.156	1669.002	1367.813
45.199	26.196	1667.529	1366.790
46.213	26.109	1666.739	1365.361
47.228	26.169	1665.368	1364.577
48.242	26.161	1664.051	1363.313
49.257	26.103	1663.382	1362.203
50.271	26.152	1661.877	1361.223
51.286	26.116	1660.687	1359.858
52.301	26.135	1659.572	1358.970
53.315	26.024	1658.375	1357.028
54.330	26.087	1656.561	1355.896
55.344	26.078	1655.450	1354.802
56.359	26.156	1654.146	1354.203
57.374	26.179	1653.005	1353.318
58.388	26.167	1652.222	1352.469
59.403	26.036	1651.193	1350.525
60.417	26.162	1649.293	1349.791
61.432	26.189	1648.708	1349.400
62.447	26.141	1647.350	1347.806
63.461	26.140	1646.550	1347.028
64.476	26.128	1646.010	1346.378
65.490	26.099	1644.588	1344.882
66.505	26.120	1643.352	1343.908
67.520	26.225	1642.309	1343.716
68.534	26.192	1641.807	1342.938
69.549	26.221	1640.435	1341.913
70.563	26.233	1639.550	1341.159
71.578	26.166	1638.154	1339.400
72.593	26.129	1637.472	1338.452
73.607	26.156	1636.410	1337.667
74.622	26.119	1635.711	1336.700
75.636	26.157	1634.776	1336.102
76.651	26.271	1633.598	1335.862
77.666	26.254	1632.724	1334.904
78.680	26.196	1631.972	1333.747
79.695	26.123	1631.484	1332.686
80.709	26.221	1630.242	1332.277
81.724	26.190	1629.752	1331.532
82.739	26.140	1629.225	1330.613
83.753	26.118	1628.055	1329.381
84.768	26.218	1626.847	1329.011
85.782	26.188	1626.157	1328.110
86.797	26.198	1624.913	1327.049
87.812	26.177	1624.653	1326.562
88.826	26.216	1623.240	1325.578
89.841	26.245	1622.426	1325.012
90.855	26.113	1621.768	1323.385
91.870	26.127	1620.697	1322.499
92.884	26.145	1619.638	1321.652
93.899	26.235	1618.392	1321.174
94.914	26.271	1617.217	1320.363
95.928	26.258	1615.655	1318.877
96.943	26.232	1614.909	1317.957
97.957	26.153	1613.638	1316.231
98.972	26.196	1612.635	1315.609
99.987	26.178	1610.736	1313.809
101.001	26.259	1609.071	1312.927
102.016	26.196	1607.936	1311.425
103.030	26.137	1606.750	1309.918
104.045	26.213	1605.770	1309.555
105.060	26.166	1604.557	1308.107
106.074	26.095	1603.660	1306.744
107.089	26.184	1602.115	1306.015
108.103	26.200	1600.991	1305.101
109.118	26.170	1600.346	1304.243
110.133	26.256	1598.642	1303.355
111.147	26.192	1597.604	1301.935
112.162	26.283	1596.721	1301.756
113.176	26.262	1595.312	1300.340
114.191	26.286	1594.019	1299.344
115.206	26.306	1593.099	1298.623
116.220	26.255	1592.131	1297.352
117.235	26.236	1591.084	1296.244
118.249	26.261	1589.901	1295.348
119.264	26.198	1589.036	1294.076
120.279	26.157	1588.140	1292.939
121.293	26.228	1586.930	1292.347
122.308	26.319	1585.934	1292.072
123.322	26.220	1584.541	1290.117
124.337	26.306	1583.044	1289.395
125.352	26.175	1582.346	1287.782
126.366	26.274	1581.429	1287.622
127.381	26.282	1580.488	1286.803
128.395	26.292	1579.544	1285.991
129.410	26.321	1578.334	1285.101
130.424	26.401	1577.132	1284.573
131.439	26.367	1575.986	1283.287
132.454	26.279	1575.077	1281.806
133.468	26.286	1573.643	1280.579
134.483	26.291	1572.154	1279.286
135.497	26.342	1571.253	1278.803
136.512	26.312	1570.026	1277.476
137.527	26.312	1568.693	1276.281
138.541	26.255	1568.210	1275.375
139.556	26.306	1566.961	1274.606
140.570	26.336	1565.668	1273.652
141.585	26.337	1564.507	1272.603
142.600	26.355	1563.080	1271.457
143.614	26.322	1561.965	1270.204
144.629	26.377	1561.005	1269.698
145.643	26.284	1559.978	1268.097
146.658	26.369	1558.637	1267.489
147.673	26.319	1557.174	1265.835
148.687	26.329	1556.181	1264.989
149.702	26.291	1555.168	1263.787
150.716	26.274	1553.546	1262.241
151.731	26.297	1553.008	1261.848
152.746	26.341	1551.868	1261.116
153.760	26.339	1550.665	1260.015
154.775	26.269	1549.603	1258.555
155.789	26.344	1548.787	1258.299
156.804	26.391	1547.625	1257.574
157.819	26.311	1546.905	1256.322
158.833	26.254	1545.588	1254.741
159.848	26.292	1544.917	1254.352
160.862	26.504	1543.119	1254.248
161.877	26.398	1542.400	1252.822
162.892	26.318	1541.682	1251.575
163.906	26.478	1540.668	1251.748
164.921	26.414	1539.683	1250.393
165.935	26.421	1539.178	1249.920
166.950	26.436	1538.062	1249.009
167.964	26.438	1536.743	1247.839
168.979	26.445	1536.064	1247.224
169.994	26.385	1535.622	1246.342
171.008	26.422	1534.514	1245.591
172.023	26.475	1533.215	1244.789
173.037	26.493	1532.667	1244.354
174.052	26.454	1531.391	1242.944
175.067	26.460	1530.024	1241.763
176.081	26.475	1529.281	1241.154
177.096	26.480	1528.461	1240.412
178.110	26.426	1527.657	1239.284
179.125	26.337	1526.703	1237.785
180.140	26.491	1525.340	1237.625
181.154	26.556	1524.341	1237.148
182.169	26.472	1523.851	1236.067
183.183	26.484	1522.695	1235.104
184.198	26.507	1521.967	1234.561
185.213	26.574	1520.972	1234.105
186.227	26.528	1520.294	1233.133
187.242	26.549	1519.327	1232.380
188.256	26.635	1518.374	1232.080
189.271	26.554	1517.840	1230.990
190.286	26.613	1516.471	1230.167
191.300	26.542	1515.822	1229.051
192.315	26.547	1515.224	1228.496
193.329	26.579	1514.088	1227.677
194.344	26.574	1513.108	1226.741
195.359	26.524	1512.856	1226.089
196.373	26.582	1511.701	1225.438
197.388	26.508	1510.609	1223.945
198.402	26.526	1509.448	1223.019
199.417	26.506	1508.773	1222.229
200.432	26.526	1507.613	1221.318
201.446	26.645	1507.218	1221.689
202.461	26.506	1506.523	1220.081
203.475	26.501	1505.670	1219.249
204.490	26.516	1504.832	1218.566
205.504	26.439	1503.968	1217.235
206.519	26.508	1503.325	1217.074
207.534	26.573	1502.268	1216.545
208.548	26.597	1501.434	1215.928
209.563	26.594	1500.592	1215.118
210.577	26.652	1499.730	1214.698
211.592	26.625	1498.971	1213.798
212.607	26.529	1498.595	1212.742
213.621	26.696	1497.763	1213.082
214.636	26.758	1496.512	1212.371
215.650	26.679	1495.867	1211.212
216.665	26.662	1494.953	1210.252
217.680	26.650	1494.331	1209.565
218.694	26.640	1493.698	1208.876
219.709	26.687	1492.988	1208.507
220.723	26.773	1491.724	1207.952
221.738	26.648	1491.385	1206.736
222.753	26.697	1489.982	1205.820
223.767	26.460	1489.644	1203.862
224.782	26.613	1488.830	1204.121
225.796	26.718	1487.764	1203.850
226.811	26.790	1487.061	1203.651
227.826	26.929	1486.161	1203.734
228.840	26.801	1485.644	1202.365
229.855	26.807	1484.776	1201.590
230.869	26.671	1483.889	1199.865
231.884	26.692	1483.351	1199.465
232.899	26.757	1481.857	1198.580
233.913	26.717	1480.731	1197.300
234.928	26.767	1479.820	1196.785
235.942	26.735	1478.947	1195.764
236.957	26.886	1477.998	1195.888
237.972	26.790	1477.068	1194.398
238.986	26.855	1475.814	1193.707
240.001	26.742	1475.242	1192.392
241.015	26.756	1474.636	1191.888
242.030	26.894	1473.289	1191.605
243.045	26.953	1471.704	1190.601
244.059	26.885	1471.575	1189.944
245.074	26.900	1470.825	1189.335
246.088	26.943	1469.712	1188.606
247.103	26.944	1469.370	1188.231
248.117	26.982	1468.373	1187.574
249.132	26.939	1467.538	1186.509
250.147	26.880	1467.128	1185.691
251.161	26.921	1466.099	1185.016
252.176	27.039	1465.384	1185.107
253.190	26.882	1465.455	1184.034
254.205	27.050	1463.928	1183.792
255.220	27.093	1462.954	1183.178
256.234	27.022	1462.272	1182.059
257.249	26.993	1461.591	1181.218
258.263	27.079	1460.471	1180.763
259.278	27.096	1459.795	1180.227
260.293	27.154	1458.646	1179.566
261.307	27.142	1458.216	1179.036
262.322	27.012	1457.945	1177.870
263.336	27.158	1457.211	1178.124
264.351	27.159	1455.587	1176.710
265.366	27.103	1454.852	1175.650
266.380	27.038	1454.386	1174.747
267.395	27.027	1453.574	1173.918
268.409	27.147	1452.310	1173.564
269.424	27.132	1451.407	1172.640
270.439	27.156	1450.870	1172.254
271.453	27.103	1449.990	1171.097
272.468	27.126	1449.209	1170.511
273.482	27.103	1448.602	1169.769
274.497	27.043	1447.982	1168.780
275.512	27.095	1446.982	1168.205
276.526	27.180	1446.004	1167.854
277.541	27.294	1445.223	1167.852
278.555	27.187	1444.597	1166.557
279.570	27.208	1443.868	1166.000
280.585	27.156	1443.133	1164.973
281.599	27.249	1442.136	1164.659
282.614	27.299	1440.596	1163.631
283.628	27.240	1440.100	1162.749
284.643	27.167	1439.287	1161.528
285.657	27.252	1438.606	1161.413
286.672	27.270	1437.626	1160.638
287.687	27.251	1436.715	1159.676
288.701	27.171	1436.034	1158.514
289.716	27.234	1435.484	1158.370
290.730	27.376	1434.337	1158.246
291.745	27.408	1433.271	1157.485
292.760	27.344	1432.695	1156.513
293.774	27.280	1431.754	1155.241
294.789	27.343	1430.757	1154.739
295.803	27.377	1430.603	1154.723
296.818	27.391	1429.684	1153.972
297.833	27.354	1428.777	1152.902
298.847	27.345	1427.860	1152.004
299.862	27.309	1427.236	1151.170
300.876	27.448	1426.303	1151.192
301.891	27.408	1425.684	1150.343
302.906	27.393	1424.599	1149.266
303.920	27.349	1424.579	1148.875
304.935	27.442	1423.824	1148.748
305.949	27.498	1422.783	1148.164
306.964	27.427	1422.162	1147.109
307.979	27.526	1421.213	1146.867
308.993	27.505	1420.224	1145.833
310.008	27.489	1419.624	1145.149
311.022	27.503	1418.296	1144.062
312.037	27.507	1417.533	1143.376
313.052	27.620	1416.787	1143.378
314.066	27.467	1415.880	1141.584
315.081	27.582	1414.625	1141.191
316.095	27.539	1413.816	1140.168
317.110	27.644	1412.763	1139.878
318.125	27.620	1412.176	1139.155
319.139	27.490	1411.911	1138.025
320.154	27.566	1410.780	1137.486
321.168	27.503	1409.959	1136.334
322.183	27.579	1409.020	1135.951
323.197	27.601	1408.254	1135.367
324.212	27.628	1407.513	1134.836
325.227	27.633	1406.184	1133.699
326.241	27.649	1405.736	1133.336
327.256	27.645	1404.745	1132.413
328.270	27.719	1404.263	1132.382
329.285	27.698	1403.028	1131.158
330.300	27.788	1401.967	1130.760
331.314	27.746	1401.708	1130.190
332.329	27.772	1400.708	1129.444
333.343	27.797	1399.724	1128.706
334.358	27.778	1399.469	1128.280
335.373	27.770	1398.729	1127.533
336.387	27.812	1397.777	1126.926
337.402	27.735	1397.703	1126.290
338.416	27.845	1396.898	1126.224
339.431	27.739	1396.520	1125.165
340.446	27.934	1395.429	1125.389
341.460	27.797	1394.923	1124.034
342.475	27.775	1393.743	1122.849
343.489	27.966	1393.055	1123.374
344.504	27.900	1392.101	1122.098
345.519	27.923	1391.156	1121.377
346.533	27.770	1390.299	1119.648
347.548	27.811	1389.327	1119.017
348.562	27.911	1388.494	1118.861
349.577	27.944	1387.632	1118.268
350.592	28.043	1386.682	1118.012
351.606	27.901	1386.334	1116.764
352.621	27.856	1385.463	1115.685
353.635	27.847	1384.452	1114.718
354.650	27.893	1383.827	1114.401
355.665	28.039	1382.236	1113.910
356.679	27.925	1381.643	1112.636
357.694	27.947	1381.004	1112.161
358.708	27.990	1380.165	1111.647
359.723	27.996	1378.720	1110.419
360.738	27.939	1377.439	1108.944
361.752	28.074	1376.010	1108.514
362.767	27.923	1375.429	1107.036
363.781	28.147	1374.363	1107.436
364.796	28.022	1373.894	1106.203
365.810	28.047	1373.472	1105.916
366.825	28.094	1372.686	1105.466
367.840	28.102	1371.723	1104.645
368.854	28.203	1370.913	1104.501
369.869	28.184	1370.627	1104.058
370.883	28.167	1370.391	1103.671
371.898	28.189	1369.331	1102.850
372.913	28.272	1368.824	1102.844
373.927	28.239	1367.543	1101.514
374.942	28.199	1367.103	1100.822
375.956	28.195	1366.345	1100.094
376.971	28.247	1366.066	1100.082
377.986	28.235	1365.070	1099.111
379.000	28.340	1363.947	1098.739
380.015	28.278	1363.378	1097.815
381.029	28.280	1362.673	1097.156
382.044	28.271	1362.054	1096.509
383.059	28.297	1361.411	1096.049
384.073	28.187	1361.223	1095.143
385.088	28.228	1360.552	1094.752
386.102	28.350	1359.621	1094.636
387.117	28.301	1359.132	1093.853
388.132	28.330	1358.152	1093.137
389.146	28.284	1357.628	1092.349
390.161	28.320	1356.817	1091.815
391.175	28.451	1356.091	1091.909
392.190	28.447	1355.427	1091.257
393.205	28.341	1354.746	1089.979
394.219	28.369	1353.873	1089.346
395.234	28.381	1353.293	1088.858
396.248	28.468	1351.911	1088.164
397.263	28.464	1350.748	1087.107
398.278	28.426	1349.711	1085.953
399.292	28.509	1348.640	1085.486
400.307	28.512	1348.100	1084.973
401.321	28.551	1347.222	1084.405
402.336	28.515	1346.170	1083.246
403.350	28.371	1345.487	1081.751
404.365	28.567	1344.146	1081.730
405.380	28.466	1343.928	1080.867
406.394	28.562	1342.743	1080.384
407.409	28.567	1342.228	1079.904
408.423	28.578	1341.694	1079.445
409.438	28.640	1340.941	1079.107
410.453	28.652	1339.924	1078.263
411.467	28.601	1339.713	1077.697
412.482	28.640	1339.163	1077.387
413.496	28.626	1338.334	1076.542
414.511	28.675	1337.648	1076.184
415.526	28.684	1336.574	1075.280
416.540	28.706	1335.853	1074.732
417.555	28.702	1335.210	1074.094
418.569	28.682	1334.761	1073.523
419.584	28.774	1333.995	1073.347
420.599	28.758	1333.813	1073.014
421.613	89.420	1342.357	1421.570
422.628	89.227	1343.554	1421.676
