DTS Sentinel unit serial number:	SN413079Multiplexer serial number:	ORYXHardware model number:	OX4-SRSoftware version number:	ORYX F/W v4.00 Oryx Data Collector v3.7.2.0data status	okinstallation	princeton_trtdifferential loss correction	single-endedforward channel	channel 4reverse channel	N/Adate	2019/09/10time	21:31:11forward acquisition time	60.00reverse acquisition time	0.00gamma	496.2192k internal	0.2314k external	0.2314temperature offset calibration	0.9946default loss term (dB/km)	0.3790temperature slope calibration	1.0000multiplexer offset coefficient	1.0000multiplexer slope coefficient	1.0000fibre end	0.00T internal ref (°C)	31.12T ext. ref 1 (°C)	-0.32T ext. ref 2 (°C)	24.34length (m)	temperature (°C)	Stokes	anti-Stokes-747.200	84.039	0.050	0.055
-746.185	103.475	0.196	0.233
-745.171	283.033	-0.091	-0.165
-744.156	-92.953	-0.056	0.016
-743.142	-23.602	0.069	0.042
-742.127	144.205	-0.075	0.102
-741.112	-62.604	-0.328	-0.138
-740.098	-200.000	0.010	-0.119
-739.083	800.000	-0.077	-0.297
-738.069	-200.000	0.001	-0.059
-737.054	-148.325	-0.159	-0.013
-736.039	800.000	-0.116	-0.450
-735.025	106.690	0.243	0.292
-734.010	130.633	-0.111	-0.145
-732.996	-106.793	0.364	0.082
-731.981	-20.200	-0.262	0.163
-730.966	151.440	0.162	-0.223
-729.952	394.184	0.044	-0.094
-728.937	-100.949	-0.461	0.115
-727.923	-200.000	0.004	-0.134
-726.908	454.923	-0.168	-0.377
-725.894	47.789	-0.059	0.056
-724.879	417.160	0.125	-0.271
-723.864	-74.267	0.176	-0.065
-722.850	-59.094	-0.291	-0.127
-721.835	479.274	-0.094	-0.215
-720.821	109.132	0.136	-0.165
-719.806	-142.211	0.081	0.008
-718.791	-121.193	-0.062	0.010
-717.777	7.078	-0.445	-0.337
-716.762	-200.000	0.026	0.411
-715.748	800.000	0.082	-0.268
-714.733	2.692	-0.071	0.052
-713.718	689.609	-0.090	-0.239
-712.704	167.733	0.099	0.143
-711.689	-104.802	0.112	-0.026
-710.675	22.876	-0.112	-0.093
-709.660	800.000	0.066	-0.264
-708.645	-40.103	-0.072	0.038
-707.631	-200.000	0.006	0.313
-706.616	-77.924	0.157	-0.055
-705.602	-38.415	0.409	-0.219
-704.587	75.377	-0.100	-0.107
-703.572	-51.596	0.253	0.119
-702.558	-200.000	-0.012	0.109
-701.543	31.508	0.229	-0.199
-700.529	170.540	-0.094	0.137
-699.514	701.961	-0.073	-0.196
-698.499	-6.739	-0.073	-0.050
-697.485	-39.664	-0.116	-0.061
-696.470	54.966	-0.105	-0.103
-695.456	-14.521	-0.134	0.087
-694.441	775.616	-0.044	0.122
-693.426	-137.186	0.549	0.063
-692.412	-34.690	0.067	0.037
-691.397	-167.209	0.346	0.014
-690.383	64.491	0.172	-0.175
-689.368	171.777	0.141	-0.205
-688.354	-1.326	0.056	-0.040
-687.339	316.330	-0.022	0.042
-686.324	-143.950	-0.284	0.027
-685.310	-200.000	-0.009	0.072
-684.295	800.000	0.062	0.218
-683.281	22.972	-0.136	-0.113
-682.266	166.834	-0.128	-0.184
-681.251	-142.879	-0.271	0.027
-680.237	45.582	0.178	0.167
-679.222	84.269	-0.116	-0.128
-678.208	-110.201	-0.228	-0.048
-677.193	-200.000	0.058	-0.320
-676.178	-138.475	0.173	0.019
-675.164	-143.809	-0.167	-0.016
-674.149	-200.000	-0.021	0.231
-673.135	-78.311	0.063	-0.022
-672.120	800.000	0.016	-0.069
-671.105	-23.843	0.199	-0.121
-670.091	800.000	0.086	-0.326
-669.076	104.206	0.082	-0.097
-668.062	95.369	0.101	-0.117
-667.047	41.284	-0.013	0.012
-666.032	-46.533	-0.210	-0.104
-665.018	-117.258	-0.251	0.046
-664.003	8.338	0.203	-0.154
-662.989	1.520	0.179	0.130
-661.974	-2.027	-0.091	-0.065
-660.959	-141.015	-0.393	-0.041
-659.945	8.659	-0.102	0.078
-658.930	96.536	0.121	-0.140
-657.916	-109.229	-0.187	-0.040
-656.901	-200.000	-0.071	-0.364
-655.886	-30.460	-0.081	-0.046
-654.872	541.070	0.062	0.149
-653.857	-77.082	-0.415	-0.146
-652.843	-0.891	0.141	-0.101
-651.828	-50.532	0.122	-0.058
-650.814	-200.000	-0.016	-0.246
-649.799	76.212	0.143	-0.152
-648.784	-200.000	0.092	0.519
-647.770	-47.806	0.305	0.149
-646.755	-68.706	-0.271	-0.106
-645.741	-28.942	0.135	-0.079
-644.726	-200.000	0.037	-0.198
-643.711	136.382	0.036	0.047
-642.697	113.864	-0.189	0.232
-641.682	144.266	-0.148	-0.199
-640.668	38.149	-0.069	-0.062
-639.653	264.083	-0.096	0.169
-638.638	309.848	0.127	-0.239
-637.624	3.054	0.145	-0.106
-636.609	20.903	0.237	-0.194
-635.595	25.731	0.048	-0.040
-634.580	-158.300	-0.117	-0.007
-633.565	-168.294	-0.055	-0.002
-632.551	732.222	0.042	0.112
-631.536	800.000	0.094	-0.393
-630.522	81.289	-0.106	0.115
-629.507	164.979	-0.146	0.208
-628.492	-117.851	0.240	0.044
-627.478	106.531	-0.189	0.226
-626.463	197.207	0.255	-0.393
-625.449	138.083	-0.010	0.013
-624.434	-109.535	-0.195	-0.041
-623.419	-18.075	0.277	-0.175
-622.405	173.691	0.154	0.225
-621.390	-68.381	-0.121	0.047
-620.376	-200.000	0.070	-0.343
-619.361	-58.890	-0.349	-0.152
-618.346	77.648	0.116	-0.125
-617.332	-130.214	-0.336	-0.046
-616.317	10.709	0.180	-0.139
-615.303	-200.000	0.025	-0.132
-614.288	-133.033	0.163	-0.021
-613.273	-54.069	-0.046	0.021
-612.259	800.000	0.037	-0.137
-611.244	22.750	0.054	0.044
-610.230	121.896	0.173	0.218
-609.215	-200.000	-0.039	-0.204
-608.201	318.067	0.045	0.087
-607.186	644.431	0.089	-0.229
-606.171	-50.903	-0.173	0.082
-605.157	-63.752	0.088	-0.036
-604.142	225.020	-0.191	-0.311
-603.128	-200.000	0.025	-0.392
-602.113	-39.177	-0.149	0.079
-601.098	102.112	0.140	-0.165
-600.084	-60.371	0.114	-0.049
-599.069	-52.015	0.058	-0.027
-598.055	-172.703	-0.260	0.008
-597.040	169.898	-0.196	0.283
-596.025	-72.724	-0.287	-0.107
-595.011	-121.461	0.223	-0.037
-593.996	-25.680	-0.062	-0.037
-592.982	29.482	0.098	0.084
-591.967	800.000	0.065	-0.228
-590.952	-200.000	0.002	0.059
-589.938	-41.954	-0.200	-0.103
-588.923	-200.000	-0.062	-0.339
-587.909	-200.000	-0.004	-0.075
-586.894	11.848	0.078	-0.061
-585.879	-46.613	-0.281	0.139
-584.865	460.134	0.087	-0.195
-583.850	-55.249	-0.255	0.115
-582.836	14.692	-0.101	-0.080
-581.821	-83.668	-0.379	0.122
-580.806	-81.633	0.367	-0.121
-579.792	-200.000	0.030	-0.268
-578.777	-49.145	-0.303	-0.146
-577.763	259.948	0.095	-0.165
-576.748	18.195	0.194	-0.156
-575.733	120.727	-0.094	-0.118
-574.719	-115.030	-0.253	0.048
-573.704	-147.698	0.320	0.027
-572.690	800.000	0.080	-0.298
-571.675	-3.091	-0.270	-0.190
-570.661	220.069	0.086	0.138
-569.646	10.157	0.042	0.032
-568.631	298.654	0.059	0.109
-567.617	10.508	-0.153	0.118
-566.602	-12.976	-0.014	0.009
-565.588	-19.895	-0.289	0.179
-564.573	714.213	-0.142	0.379
-563.558	254.731	-0.117	0.202
-562.544	-132.921	-0.240	0.031
-561.529	134.723	-0.121	-0.158
-560.515	35.109	-0.367	-0.324
-559.500	239.943	0.104	0.175
-558.485	23.341	0.298	0.247
-557.471	800.000	0.073	0.247
-556.456	67.237	-0.251	-0.258
-555.442	55.141	0.293	0.285
-554.427	-2.180	0.060	-0.042
-553.412	-172.672	0.322	-0.010
-552.398	-95.435	-0.164	0.044
-551.383	-15.288	-0.209	-0.135
-550.369	283.366	0.099	-0.180
-549.354	800.000	-0.048	-0.187
-548.339	-169.256	-0.185	-0.007
-547.325	-4.335	-0.378	-0.263
-546.310	-151.792	0.252	0.019
-545.296	800.000	-0.063	0.240
-544.281	-73.442	0.317	-0.117
-543.266	-10.308	0.227	-0.151
-542.252	-12.299	-0.230	0.151
-541.237	368.265	0.204	-0.416
-540.223	-29.066	-0.056	-0.032
-539.208	33.058	0.133	-0.116
-538.193	11.889	-0.105	0.081
-537.179	-200.000	-0.283	-0.001
-536.164	20.848	0.045	0.037
-535.150	-77.863	-0.056	-0.019
-534.135	-200.000	0.040	0.458
-533.121	-51.740	-0.170	-0.079
-532.106	342.391	0.104	0.204
-531.091	-83.975	0.174	0.056
-530.077	-4.046	-0.115	0.080
-529.062	143.320	0.215	0.288
-528.048	800.000	-0.137	0.498
-527.033	-109.702	0.206	-0.044
-526.018	188.257	0.116	0.174
-525.004	251.567	-0.058	0.099
-523.989	530.529	0.024	-0.057
-522.975	-200.000	-0.024	-0.310
-521.960	-13.021	0.121	0.079
-520.945	228.231	-0.090	0.147
-519.931	308.358	0.125	-0.235
-518.916	-200.000	0.053	-0.241
-517.902	-200.000	-0.035	0.255
-516.887	-136.444	0.070	0.008
-515.872	152.764	0.180	-0.247
-514.858	-200.000	0.023	-0.165
-513.843	98.083	-0.134	-0.155
-512.829	-64.431	0.341	0.139
-511.814	-180.260	-0.235	-0.005
-510.799	-79.998	0.242	0.082
-509.785	122.235	-0.266	0.334
-508.770	800.000	0.029	0.114
-507.756	-59.386	-0.279	-0.121
-506.741	-95.104	0.070	0.019
-505.726	1.925	0.221	0.160
-504.712	504.685	0.016	0.037
-503.697	-14.631	-0.065	-0.042
-502.683	502.017	-0.106	0.246
-501.668	242.485	-0.080	0.134
-500.653	-99.047	0.228	0.058
-499.639	-24.253	-0.256	0.153
-498.624	-17.351	0.133	-0.084
-497.610	366.317	-0.104	0.210
-496.595	-200.000	0.019	0.175
-495.581	-64.123	0.443	-0.182
-494.566	-200.000	0.007	0.065
-493.551	-167.781	0.331	-0.013
-492.537	137.497	-0.128	0.169
-491.522	-24.057	0.128	-0.077
-490.508	-200.000	-0.005	0.078
-489.493	800.000	0.118	-0.477
-488.478	800.000	-0.142	-0.503
-487.464	303.029	0.238	-0.442
-486.449	58.810	-0.302	0.298
-485.435	-137.910	0.359	0.040
-484.420	317.012	0.151	0.287
-483.405	318.863	-0.090	-0.171
-482.391	-189.887	-0.137	-0.002
-481.376	35.829	-0.121	0.107
-480.362	24.151	0.227	0.188
-479.347	79.156	0.207	0.223
-478.332	496.023	-0.053	0.122
-477.318	173.820	0.082	-0.119
-476.303	145.124	-0.097	0.131
-475.289	-54.927	-0.071	0.032
-474.274	381.632	0.221	-0.456
-473.259	-83.816	0.428	-0.137
-472.245	800.000	0.054	-0.160
-471.230	112.589	-0.190	0.230
-470.216	96.392	0.199	0.229
-469.201	-127.347	0.155	0.023
-468.186	-74.085	-0.315	0.114
-467.172	-75.117	0.156	0.056
-466.157	-60.962	0.179	-0.076
-465.143	-86.903	-0.188	0.058
-464.128	-101.885	-0.294	0.071
-463.113	208.111	-0.124	-0.195
-462.099	-82.788	-0.327	0.106
-461.084	-123.898	0.148	0.023
-460.070	800.000	-0.043	-0.182
-459.055	146.748	0.091	0.122
-458.040	-30.093	-0.267	-0.152
-457.026	112.979	-0.158	-0.192
-456.011	-107.746	0.465	0.102
-454.997	320.634	0.043	-0.082
-453.982	-84.622	0.267	0.084
-452.968	434.972	0.033	0.071
-451.953	63.371	0.148	0.149
-450.938	800.000	0.070	0.203
-449.924	28.109	0.057	0.049
-448.909	444.002	-0.140	0.308
-447.895	800.000	-0.030	0.093
-446.880	20.370	0.146	0.118
-445.865	-20.824	-0.098	-0.060
-444.851	800.000	-0.027	-0.085
-443.836	106.842	0.218	-0.259
-442.822	800.000	0.033	-0.103
-441.807	-93.797	-0.467	-0.129
-440.792	426.677	-0.192	0.414
-439.778	-76.966	-0.052	0.018
-438.763	-99.581	0.309	-0.078
-437.749	-135.981	0.174	-0.021
-436.734	-34.635	0.069	0.038
-435.719	-13.802	0.115	0.075
-434.705	-132.553	-0.145	-0.019
-433.690	-20.578	0.112	0.069
-432.676	-9.463	0.202	0.135
-431.661	175.063	-0.057	-0.082
-430.646	-16.597	-0.119	-0.075
-429.632	-200.000	-0.038	-0.186
-428.617	-200.000	0.034	-0.267
-427.603	249.026	-0.043	-0.073
-426.588	-15.402	-0.082	0.052
-425.573	536.021	0.078	-0.187
-424.559	-103.394	0.352	-0.083
-423.544	-200.000	0.047	-0.377
-422.530	-149.746	-0.325	-0.026
-421.515	-124.849	0.104	-0.016
-420.500	-49.719	0.085	0.040
-419.486	-132.236	0.118	0.015
-418.471	166.785	-0.105	-0.149
-417.457	42.640	0.247	0.225
-416.442	-62.570	-0.317	-0.132
-415.428	56.849	-0.300	0.293
-414.413	6.043	-0.149	-0.111
-413.398	-130.206	-0.414	0.056
-412.384	-78.435	-0.286	-0.098
-411.369	557.580	0.066	0.160
-410.355	-131.803	0.166	-0.022
-409.340	800.000	-0.053	-0.162
-408.325	800.000	-0.082	-0.256
-407.311	-200.000	0.002	-0.135
-406.296	5.365	-0.131	-0.097
-405.282	-28.268	0.046	-0.026
-404.267	27.562	0.155	0.130
-403.252	249.448	0.013	-0.022
-402.238	24.867	0.032	-0.027
-401.223	800.000	-0.060	-0.178
-400.209	-146.923	0.418	-0.036
-399.194	691.739	-0.143	0.374
-398.179	93.270	-0.172	0.194
-397.165	-175.657	-0.091	0.002
-396.150	-200.000	-0.015	0.106
-395.136	800.000	-0.046	-0.179
-394.121	36.118	-0.030	0.026
-393.106	800.000	0.037	-0.157
-392.092	-34.675	0.152	0.083
-391.077	176.189	0.153	-0.223
-390.063	800.000	0.048	-0.166
-389.048	-46.218	0.020	-0.010
-388.033	142.333	-0.077	-0.102
-387.019	78.893	-0.170	-0.182
-386.004	-200.000	-0.027	0.165
-384.990	-68.764	-0.282	-0.109
-383.975	-101.705	-0.405	-0.098
-382.960	353.036	-0.135	-0.269
-381.946	104.204	-0.116	0.137
-380.931	-111.452	0.169	-0.034
-379.917	-121.128	0.157	-0.026
-378.902	-24.540	0.196	-0.116
-377.888	-42.423	-0.344	0.176
-376.873	338.395	-0.129	-0.250
-375.858	3.211	-0.286	0.208
-374.844	-88.601	0.077	-0.023
-373.829	285.497	0.083	-0.150
-372.815	800.000	0.052	0.214
-371.800	609.436	-0.070	0.175
-370.785	-200.000	-0.015	0.087
-369.771	-200.000	0.004	-0.406
-368.756	-136.404	0.072	-0.008
-367.742	-27.552	-0.145	-0.084
-366.727	124.182	-0.095	0.119
-365.712	-125.297	-0.300	0.046
-364.698	-36.679	-0.284	0.152
-363.683	64.242	0.256	-0.257
-362.669	94.559	0.041	-0.047
-361.654	-24.086	0.063	-0.038
-360.639	-17.685	-0.299	-0.188
-359.625	318.906	0.054	-0.102
-358.610	-148.428	-0.178	-0.015
-357.596	93.976	-0.247	0.280
-356.581	-133.981	-0.134	0.017
-355.566	-200.000	0.038	0.386
-354.552	-119.550	-0.048	-0.008
-353.537	390.625	0.137	0.284
-352.523	-91.490	0.364	-0.104
-351.508	-172.378	-0.296	-0.009
-350.493	-175.563	-0.293	-0.008
-349.479	-42.112	0.287	0.147
-348.464	-100.566	0.253	0.063
-347.450	800.000	0.043	0.126
-346.435	54.299	-0.162	0.156
-345.420	448.954	0.094	0.208
-344.406	800.000	0.071	0.199
-343.391	111.257	-0.144	-0.173
-342.377	206.778	0.105	0.164
-341.362	521.826	0.049	-0.114
-340.348	432.882	-0.032	0.069
-339.333	246.739	-0.155	0.260
-338.318	-200.000	-0.032	0.257
-337.304	-166.179	-0.153	0.006
-336.289	647.238	0.024	-0.061
-335.275	-118.058	-0.392	0.070
-334.260	-67.571	0.138	-0.054
-333.245	-184.551	-0.289	-0.005
-332.231	-200.000	0.002	0.019
-331.216	-36.191	-0.268	-0.145
-330.202	65.002	-0.108	-0.109
-329.187	-10.092	-0.188	-0.125
-328.172	-41.410	-0.463	-0.238
-327.158	800.000	-0.011	-0.037
-326.143	-29.349	-0.153	0.087
-325.129	-36.182	0.149	-0.080
-324.114	413.675	-0.043	-0.092
-323.099	-200.000	0.073	-0.321
-322.085	668.891	-0.111	0.286
-321.070	-68.612	0.201	-0.078
-320.056	-28.418	-0.153	0.088
-319.041	-91.557	-0.493	0.140
-318.026	-64.971	0.173	0.070
-317.012	80.313	-0.063	0.068
-315.997	486.731	0.141	-0.322
-314.983	800.000	0.072	-0.222
-313.968	-200.000	0.269	0.001
-312.953	-31.219	-0.334	0.188
-311.939	367.724	0.013	-0.026
-310.924	-154.999	-0.103	-0.007
-309.910	18.263	0.309	0.246
-308.895	242.337	-0.152	0.253
-307.880	251.046	-0.028	-0.048
-306.866	231.387	-0.143	-0.234
-305.851	-27.061	-0.243	-0.141
-304.837	-76.866	-0.134	0.047
-303.822	439.594	0.032	-0.070
-302.807	-66.593	0.393	-0.155
-301.793	800.000	0.081	0.238
-300.778	688.116	-0.112	-0.291
-299.764	-92.045	0.467	0.132
-298.749	800.000	0.088	-0.272
-297.735	-200.000	0.032	0.218
-296.720	-200.000	0.039	-0.364
-295.705	67.316	0.120	0.122
-294.691	-200.000	0.009	0.041
-293.676	122.894	0.210	-0.262
-292.662	-0.631	0.055	0.039
-291.647	-154.978	0.348	-0.023
-290.632	800.000	-0.117	0.326
-289.618	660.529	0.017	0.045
-288.603	-200.000	0.013	-0.123
-287.589	487.324	-0.059	-0.134
-286.574	800.000	0.018	-0.062
-285.559	2.651	-0.161	-0.116
-284.545	-16.237	0.131	0.083
-283.530	129.131	-0.100	0.127
-282.516	-200.000	-0.032	0.441
-281.501	-200.000	0.001	-0.026
-280.486	-100.354	0.096	-0.024
-279.472	-17.597	-0.119	-0.075
-278.457	-200.000	-0.048	0.239
-277.443	426.042	-0.067	0.144
-276.428	-200.000	-0.035	0.193
-275.413	-200.000	-0.061	0.386
-274.399	-34.874	-0.090	0.049
-273.384	119.679	0.195	0.241
-272.370	44.961	-0.288	-0.264
-271.355	-200.000	0.022	-0.122
-270.340	-80.435	0.312	-0.104
-269.326	-50.935	-0.052	-0.024
-268.311	-44.858	-0.050	-0.025
-267.297	8.501	-0.293	-0.219
-266.282	81.061	-0.098	0.105
-265.267	-95.150	0.330	-0.088
-264.253	130.402	-0.059	0.076
-263.238	800.000	0.120	0.462
-262.224	225.264	0.159	0.257
-261.209	-200.000	-0.025	0.161
-260.195	-200.000	0.035	0.268
-259.180	800.000	-0.043	-0.138
-258.165	114.300	-0.030	0.036
-257.151	800.000	0.096	0.278
-256.136	70.476	0.234	0.240
-255.122	149.505	0.186	0.251
-254.107	-104.792	0.068	0.016
-253.092	-43.999	0.096	-0.048
-252.078	99.881	0.223	0.257
-251.063	800.000	0.052	-0.224
-250.049	111.756	-0.072	-0.087
-249.034	82.887	-0.200	0.216
-248.019	151.282	0.235	0.318
-247.005	114.741	-0.061	-0.073
-245.990	-86.709	-0.259	0.079
-244.976	99.883	0.115	0.133
-243.961	201.950	-0.102	-0.156
-242.946	-200.000	-0.020	0.169
-241.932	121.986	-0.260	-0.323
-240.917	-16.694	-0.196	-0.123
-239.903	21.154	0.071	0.057
-238.888	29.478	-0.277	-0.234
-237.873	-200.000	-0.031	-0.433
-236.859	-200.000	-0.044	0.194
-235.844	75.694	-0.077	-0.081
-234.830	800.000	-0.045	-0.168
-233.815	693.505	0.022	-0.058
-232.800	800.000	0.110	-0.448
-231.786	-52.856	-0.294	0.135
-230.771	-126.894	0.405	0.059
-229.757	-46.471	-0.239	0.117
-228.742	-200.000	-0.020	-0.194
-227.727	231.628	-0.187	-0.305
-226.713	100.933	-0.194	-0.224
-225.698	-200.000	-0.025	-0.117
-224.684	-170.228	0.252	0.009
-223.669	-64.325	0.179	0.072
-222.655	4.466	0.323	0.235
-221.640	115.714	0.137	0.166
-220.625	497.351	0.134	-0.307
-219.611	-72.501	0.166	0.061
-218.596	-71.133	-0.344	0.128
-217.582	-200.000	-0.022	0.332
-216.567	228.301	-0.042	-0.069
-215.552	-71.260	-0.185	0.069
-214.538	27.260	0.189	0.157
-213.523	53.867	0.165	0.158
-212.509	-200.000	0.026	-0.177
-211.494	-13.521	0.153	0.098
-210.479	388.491	0.076	0.155
-209.465	800.000	0.162	0.533
-208.450	-200.000	0.017	-0.216
-207.436	-27.946	0.282	-0.162
-206.421	-200.000	0.031	0.397
-205.406	-200.000	0.334	0.001
-204.392	-91.415	-0.143	0.040
-203.377	248.414	0.173	-0.290
-202.363	395.687	0.063	0.130
-201.348	-46.990	-0.120	-0.058
-200.333	80.816	-0.247	0.265
-199.319	-50.230	0.201	0.094
-198.304	221.113	0.031	-0.049
-197.290	82.142	-0.090	0.097
-196.275	-62.196	0.232	0.096
-195.260	112.987	-0.225	-0.271
-194.246	-200.000	0.006	0.099
-193.231	-200.000	0.060	-0.269
-192.217	12.612	0.249	0.191
-191.202	-200.000	0.080	0.362
-190.187	111.310	-0.102	0.122
-189.173	-166.336	-0.282	-0.012
-188.158	14.106	0.181	0.140
-187.144	134.427	0.174	0.224
-186.129	214.004	-0.125	-0.196
-185.114	-200.000	0.003	-0.080
-184.100	344.374	-0.089	-0.173
-183.085	-63.233	0.110	0.045
-182.071	249.289	0.094	-0.159
-181.056	-17.497	0.397	-0.248
-180.042	-142.369	-0.152	-0.015
-179.027	-82.870	0.219	0.070
-178.012	-141.221	0.588	-0.059
-176.998	128.552	-0.124	0.157
-175.983	84.787	-0.194	0.210
-174.969	157.378	-0.114	-0.156
-173.954	800.000	-0.038	0.149
-172.939	800.000	-0.069	0.224
-171.925	-172.773	-0.069	0.002
-170.910	-69.094	0.272	-0.104
-169.896	-200.000	-0.045	-0.227
-168.881	800.000	-0.042	-0.150
-167.866	125.268	-0.102	0.128
-166.852	800.000	-0.056	0.169
-165.837	-97.773	-0.207	0.053
-164.823	-16.918	0.365	-0.229
-163.808	167.885	-0.208	0.293
-162.793	-0.658	0.352	-0.247
-161.779	-21.535	0.130	-0.079
-160.764	1.162	0.298	-0.212
-159.750	800.000	-0.113	-0.382
-158.735	-31.298	-0.290	0.162
-157.720	-200.000	0.007	0.135
-156.706	-22.949	0.228	0.136
-155.691	800.000	-0.048	-0.163
-154.677	133.597	0.099	-0.127
-153.662	-95.606	-0.046	0.012
-152.647	242.589	-0.109	0.181
-151.633	-47.856	0.192	0.092
-150.618	88.559	-0.163	-0.179
-149.604	800.000	0.020	-0.062
-148.589	-200.000	-0.018	-0.222
-147.574	-67.764	-0.198	0.077
-146.560	-38.453	0.134	-0.070
-145.545	248.745	0.102	0.172
-144.531	-200.000	-0.010	0.113
-143.516	-164.208	0.249	0.011
-142.502	39.311	-0.198	-0.175
-141.487	-71.526	0.260	-0.096
-140.472	-26.427	-0.263	-0.153
-139.458	334.459	0.136	-0.261
-138.443	420.469	0.137	-0.290
-137.429	800.000	0.036	-0.140
-136.414	-28.631	-0.184	0.105
-135.399	501.301	0.113	-0.259
-134.385	59.026	-0.307	0.299
-133.370	-148.176	0.222	-0.018
-132.356	39.548	-0.138	-0.123
-131.341	218.648	0.051	-0.080
-130.326	-68.472	0.084	0.032
-129.312	-200.000	0.029	0.177
-128.297	-170.978	0.231	-0.008
-127.283	-200.000	0.002	-0.013
-126.268	519.292	-0.025	0.058
-125.253	629.680	-0.040	0.101
-124.239	800.000	-0.075	0.224
-123.224	112.920	-0.204	0.244
-122.210	800.000	0.090	0.373
-121.195	146.638	0.068	0.090
-120.180	-149.128	0.180	-0.014
-119.166	145.629	0.053	0.070
-118.151	-78.353	0.204	0.069
-117.137	-200.000	0.034	-0.247
-116.122	-200.000	0.001	0.213
-115.107	-98.995	-0.163	0.041
-114.093	44.912	0.022	0.020
-113.078	113.961	-0.052	0.063
-112.064	-70.833	0.351	0.131
-111.049	-5.751	-0.314	0.213
-110.034	59.828	-0.165	-0.161
-109.020	-99.153	0.299	0.075
-108.005	83.945	0.037	0.040
-106.991	-55.844	-0.055	0.024
-105.976	-200.000	0.055	-0.293
-104.962	-67.061	-0.359	-0.140
-103.947	-200.000	-0.001	0.052
-102.932	-74.505	0.108	0.038
-101.918	-50.727	-0.338	0.157
-100.903	-153.201	0.162	-0.011
-99.889	-200.000	-0.029	0.155
-98.874	800.000	0.081	0.311
-97.859	-45.196	-0.166	-0.082
-96.845	800.000	-0.037	0.134
-95.830	-200.000	0.055	0.280
-94.816	70.686	0.215	0.220
-93.801	-129.567	0.290	-0.040
-92.786	13.204	0.155	-0.119
-91.772	-200.000	-0.038	0.233
-90.757	-38.355	0.216	0.113
-89.743	-44.533	-0.248	0.122
-88.728	-34.316	0.061	0.033
-87.713	-78.609	0.328	0.111
-86.699	-11.652	-0.128	0.083
-85.684	800.000	0.011	-0.032
-84.670	-27.457	-0.081	0.046
-83.655	-200.000	0.010	0.455
-82.640	639.849	-0.024	-0.061
-81.626	-119.154	-0.276	-0.048
-80.611	137.613	-0.037	0.048
-79.597	97.349	0.175	0.198
-78.582	505.961	0.099	-0.227
-77.567	-75.875	0.247	-0.086
-76.553	-200.000	-0.026	0.312
-75.538	-184.992	0.414	-0.006
-74.524	-63.059	0.223	-0.091
-73.509	428.082	-0.082	-0.175
-72.494	-98.963	0.276	0.069
-71.480	-1.524	0.240	0.167
-70.465	-116.795	-0.233	0.042
-69.451	800.000	0.106	0.348
-68.436	-135.565	-0.093	-0.011
-67.422	-65.276	-0.188	0.075
-66.407	429.401	-0.105	-0.225
-65.392	-200.000	0.031	-0.310
-64.378	-43.112	-0.022	0.011
-63.363	-14.360	0.128	0.081
-62.349	-76.256	-0.144	-0.050
-61.334	33.284	-1.058	-0.906
-60.319	-77.649	0.418	0.143
-59.305	-200.000	-0.142	-1.069
-58.290	136.099	0.653	0.840
-57.276	800.000	0.548	1.570
-56.261	-200.000	98.876	618.000
-55.246	570.278	1421.438	3413.458
-54.232	185.496	2622.211	3843.756
-53.217	106.702	2307.779	2702.702
-52.203	37.717	2062.119	1807.173
-51.188	32.891	1975.681	1688.319
-50.173	31.333	1956.859	1658.352
-49.159	46.692	2008.460	1840.563
-48.144	47.861	2026.196	1867.267
-47.130	33.480	1986.879	1702.913
-46.115	31.142	1976.668	1673.158
-45.100	31.038	1974.268	1670.130
-44.086	30.928	1971.922	1667.097
-43.071	30.972	1969.052	1664.994
-42.057	30.963	1966.860	1662.993
-41.042	30.988	1965.276	1661.813
-40.027	30.987	1963.285	1660.060
-39.013	31.015	1960.958	1658.270
-37.998	30.943	1959.507	1656.341
-36.984	31.017	1957.309	1655.075
-35.969	31.036	1955.113	1653.323
-34.954	31.048	1953.757	1652.209
-33.940	31.113	1952.452	1651.614
-32.925	31.062	1951.184	1650.026
-31.911	31.089	1949.300	1648.612
-30.896	31.119	1947.701	1647.452
-29.881	31.117	1946.554	1646.405
-28.867	31.221	1943.983	1645.077
-27.852	31.155	1943.164	1643.738
-26.838	31.202	1940.655	1641.964
-25.823	31.139	1939.432	1640.316
-24.809	31.240	1937.535	1639.526
-23.794	31.140	1935.620	1636.970
-22.779	31.126	1934.104	1635.500
-21.765	31.108	1932.203	1633.670
-20.750	31.164	1930.344	1632.518
-19.736	31.102	1929.147	1630.904
-18.721	31.248	1926.719	1630.055
-17.706	31.182	1925.574	1628.447
-16.692	31.198	1923.888	1627.101
-15.677	31.119	1922.551	1625.212
-14.663	31.104	1921.206	1623.887
-13.648	31.176	1919.966	1623.393
-12.633	31.192	1918.992	1622.652
-11.619	31.134	1917.840	1621.102
-10.604	31.149	1916.246	1619.827
-9.590	31.181	1914.951	1618.945
-8.575	31.087	1913.650	1616.959
-7.560	31.208	1911.970	1616.531
-6.546	31.212	1910.543	1615.288
-5.531	31.158	1909.519	1613.893
-4.517	31.196	1908.033	1612.907
-3.502	31.168	1906.987	1611.716
-2.487	31.131	1906.074	1610.554
-1.473	31.162	1904.982	1609.839
-0.458	31.140	1899.949	1605.330
0.556	28.553	1879.626	1576.956
1.571	24.174	1860.590	1523.491
2.586	20.141	1882.849	1506.604
3.600	19.195	1917.955	1526.183
4.615	19.088	1912.667	1520.897
5.629	14.561	1813.506	1403.904
6.644	5.238	1696.000	1239.137
7.659	0.144	1658.188	1171.817
8.673	-0.214	1655.144	1166.786
9.688	-0.305	1653.496	1164.813
10.702	-0.342	1651.792	1163.224
11.717	-0.429	1648.612	1160.204
12.731	-0.125	1647.755	1161.849
13.746	5.910	1662.665	1219.255
14.761	15.392	1683.451	1308.668
15.775	19.701	1691.283	1348.334
16.790	20.289	1691.725	1353.147
17.804	20.401	1690.859	1353.214
18.819	20.428	1689.786	1352.445
19.834	20.557	1689.104	1352.778
20.848	20.717	1688.323	1353.283
21.863	20.808	1687.374	1353.107
22.877	20.767	1686.898	1352.287
23.892	20.699	1686.109	1351.006
24.907	20.825	1684.862	1350.869
25.921	20.741	1684.407	1349.726
26.936	20.813	1682.868	1348.931
27.950	20.801	1682.466	1348.396
28.965	20.716	1681.916	1347.179
29.980	20.785	1680.529	1346.485
30.994	20.756	1679.117	1345.014
32.009	20.759	1677.540	1343.654
33.023	20.804	1677.142	1343.564
34.038	20.735	1676.513	1342.405
35.053	20.751	1675.227	1341.383
36.067	20.778	1674.006	1340.490
37.082	20.785	1672.895	1339.538
38.096	20.818	1671.723	1338.736
39.111	20.723	1671.425	1337.651
40.126	20.654	1671.276	1336.880
41.140	20.752	1669.805	1336.334
42.155	20.818	1668.377	1335.585
43.169	20.743	1667.227	1333.970
44.184	20.858	1666.063	1333.798
45.199	20.794	1665.313	1332.590
46.213	20.732	1664.042	1330.986
47.228	20.705	1663.150	1329.942
48.242	20.762	1662.080	1329.404
49.257	20.736	1660.911	1328.156
50.271	20.792	1659.458	1327.305
51.286	20.719	1658.759	1326.069
52.301	20.837	1657.002	1325.445
53.315	20.690	1655.769	1323.230
54.330	20.794	1654.116	1322.579
55.344	20.722	1652.944	1320.973
56.359	20.749	1651.523	1319.926
57.374	20.717	1650.922	1319.090
58.388	20.765	1649.787	1318.427
59.403	20.818	1648.114	1317.379
60.417	20.782	1647.321	1316.354
61.432	20.796	1645.841	1315.162
62.447	20.770	1644.650	1313.896
63.461	20.786	1643.942	1313.335
64.476	20.869	1643.062	1313.142
65.490	20.750	1642.039	1311.314
66.505	20.830	1640.671	1310.707
67.520	20.836	1639.951	1310.056
68.534	20.787	1638.762	1308.626
69.549	20.817	1637.820	1307.983
70.563	20.815	1636.461	1306.763
71.578	20.847	1635.068	1305.782
72.593	20.827	1634.606	1305.143
73.607	20.880	1633.096	1304.221
74.622	20.913	1632.349	1303.755
75.636	20.756	1631.931	1302.128
76.651	20.809	1630.588	1301.343
77.666	20.807	1630.003	1300.742
78.680	20.830	1628.643	1299.718
79.695	20.870	1627.815	1299.240
80.709	20.833	1627.161	1298.328
81.724	20.831	1626.496	1297.667
82.739	20.819	1625.837	1296.938
83.753	20.768	1624.804	1295.614
84.768	20.859	1623.077	1294.803
85.782	20.732	1622.510	1293.289
86.797	20.882	1621.281	1293.309
87.812	20.815	1620.265	1291.886
88.826	20.854	1619.408	1291.377
89.841	20.850	1618.174	1290.250
90.855	20.817	1617.357	1289.241
91.870	20.828	1615.948	1288.082
92.884	20.869	1615.079	1287.585
93.899	20.840	1614.183	1286.540
94.914	20.854	1612.960	1285.552
95.928	20.880	1611.502	1284.468
96.943	20.907	1610.388	1283.670
97.957	20.942	1608.709	1282.472
98.972	20.913	1607.703	1281.344
99.987	20.887	1606.296	1279.921
101.001	20.859	1604.921	1278.504
102.016	20.849	1603.376	1277.087
103.030	20.779	1602.162	1275.496
104.045	20.844	1600.550	1274.571
105.060	20.764	1599.602	1273.123
106.074	20.807	1598.030	1272.072
107.089	20.853	1596.406	1271.002
108.103	20.897	1595.591	1270.561
109.118	20.881	1594.384	1269.369
110.133	20.859	1593.139	1268.110
111.147	20.864	1591.974	1267.102
112.162	20.956	1590.655	1266.611
113.176	20.938	1589.368	1265.346
114.191	20.973	1588.071	1264.453
115.206	20.979	1587.070	1263.590
116.220	20.886	1585.913	1261.881
117.235	20.842	1584.798	1260.566
118.249	20.886	1583.291	1259.573
119.264	20.905	1582.401	1258.889
120.279	20.856	1580.600	1256.994
121.293	20.883	1579.130	1255.905
122.308	20.983	1577.913	1255.548
123.322	20.976	1576.871	1254.560
124.337	20.974	1574.953	1252.906
125.352	21.029	1573.575	1252.096
126.366	21.077	1572.828	1251.735
127.381	21.012	1572.206	1250.660
128.395	21.025	1571.353	1249.966
129.410	21.008	1570.044	1248.692
130.424	20.999	1568.362	1247.177
131.439	20.953	1567.935	1246.396
132.454	20.961	1566.353	1245.087
133.468	20.911	1564.531	1243.173
134.483	20.985	1563.608	1242.858
135.497	21.038	1561.913	1241.778
136.512	21.015	1560.737	1240.570
137.527	20.948	1559.362	1238.888
138.541	20.989	1558.695	1238.541
139.556	20.987	1557.304	1237.314
140.570	20.992	1555.928	1236.147
141.585	21.041	1554.645	1235.364
142.600	20.983	1553.365	1233.828
143.614	21.005	1552.368	1233.084
144.629	20.914	1550.982	1231.229
145.643	21.071	1549.980	1231.431
146.658	20.895	1548.563	1228.958
147.673	20.899	1547.286	1227.865
148.687	20.993	1545.879	1227.296
149.702	20.997	1544.958	1226.491
150.716	20.977	1543.482	1225.068
151.731	20.946	1542.394	1223.876
152.746	20.936	1541.345	1222.866
153.760	20.983	1540.150	1222.138
154.775	20.952	1538.868	1220.800
155.789	21.057	1537.417	1220.271
156.804	21.070	1536.739	1219.718
157.819	21.082	1535.295	1218.547
158.833	21.090	1534.067	1217.520
159.848	21.029	1533.642	1216.649
160.862	21.061	1532.448	1215.815
161.877	21.046	1531.634	1214.959
162.892	21.068	1530.304	1213.949
163.906	21.030	1529.776	1213.162
164.921	21.071	1528.746	1212.522
165.935	21.016	1528.036	1211.469
166.950	21.078	1526.582	1210.640
167.964	21.120	1525.932	1210.310
168.979	21.091	1524.780	1209.084
169.994	21.117	1523.557	1208.187
171.008	21.169	1522.884	1207.907
172.023	21.126	1522.023	1206.822
173.037	21.139	1520.885	1205.903
174.052	21.101	1519.353	1204.321
175.067	21.090	1518.635	1203.568
176.081	21.275	1517.470	1203.809
177.096	21.186	1516.439	1202.272
178.110	21.104	1515.761	1201.063
179.125	21.117	1514.574	1200.108
180.140	21.081	1513.955	1199.263
181.154	21.181	1512.791	1198.926
182.169	21.241	1511.975	1198.584
183.183	21.165	1510.827	1197.046
184.198	21.128	1510.082	1196.095
185.213	21.143	1509.264	1195.446
186.227	21.162	1508.255	1194.670
187.242	21.160	1507.827	1194.210
188.256	21.166	1506.530	1193.121
189.271	21.146	1506.082	1192.521
190.286	21.178	1504.970	1191.754
191.300	21.221	1504.081	1191.238
192.315	21.195	1503.087	1190.168
193.329	21.167	1501.912	1188.944
194.344	21.229	1501.237	1188.727
195.359	21.142	1500.461	1187.411
196.373	21.273	1499.630	1187.543
197.388	21.234	1498.553	1186.321
198.402	21.137	1497.825	1184.981
199.417	21.034	1496.496	1183.122
200.432	21.133	1495.847	1183.176
201.446	21.156	1495.246	1182.752
202.461	21.214	1494.128	1182.158
203.475	21.195	1493.256	1181.230
204.490	21.231	1492.206	1180.542
205.504	21.150	1491.788	1179.560
206.519	21.244	1490.587	1179.142
207.534	21.275	1489.799	1178.622
208.548	21.304	1488.873	1177.976
209.563	21.292	1488.067	1177.156
210.577	21.297	1487.152	1176.364
211.592	21.233	1485.969	1174.892
212.607	21.253	1485.720	1174.725
213.621	21.324	1484.889	1174.440
214.636	21.364	1484.515	1174.309
215.650	21.345	1483.284	1173.107
216.665	21.375	1482.209	1172.355
217.680	21.330	1481.704	1171.546
218.694	21.330	1480.861	1170.779
219.709	21.384	1479.595	1170.037
220.723	21.436	1478.983	1169.793
221.738	21.392	1478.142	1168.734
222.753	21.366	1476.861	1167.445
223.767	21.171	1476.829	1166.011
224.782	21.255	1475.903	1165.739
225.796	21.360	1474.950	1165.580
226.811	21.408	1473.956	1165.012
227.826	21.358	1473.433	1164.165
228.840	21.398	1472.808	1163.832
229.855	21.463	1472.140	1163.635
230.869	21.373	1471.189	1162.185
231.884	21.362	1470.083	1161.134
232.899	21.397	1468.820	1160.268
233.913	21.426	1468.044	1159.742
234.928	21.328	1467.507	1158.567
235.942	21.428	1466.087	1158.005
236.957	21.461	1464.717	1157.035
237.972	21.450	1464.154	1156.416
238.986	21.448	1463.349	1155.664
240.001	21.428	1462.439	1154.711
241.015	21.489	1461.244	1154.071
242.030	21.539	1460.126	1153.416
243.045	21.567	1459.277	1152.828
244.059	21.570	1458.147	1151.848
245.074	21.524	1458.084	1151.394
246.088	21.631	1456.600	1150.827
247.103	21.638	1455.996	1150.290
248.117	21.616	1455.160	1149.383
249.132	21.636	1454.703	1149.057
250.147	21.699	1453.566	1148.469
251.161	21.613	1453.020	1147.369
252.176	21.695	1452.544	1147.430
253.190	21.651	1451.861	1146.500
254.205	21.669	1450.894	1145.753
255.220	21.727	1449.623	1145.029
256.234	21.679	1449.333	1144.386
257.249	21.645	1448.469	1143.377
258.263	21.637	1448.111	1142.942
259.278	21.712	1446.974	1142.436
260.293	21.739	1445.787	1141.569
261.307	21.745	1445.150	1141.008
262.322	21.633	1444.919	1139.992
263.336	21.724	1444.054	1139.805
264.351	21.746	1442.797	1138.851
265.366	21.693	1442.326	1138.038
266.380	21.733	1441.171	1137.285
267.395	21.710	1439.864	1136.005
268.409	21.734	1439.813	1136.018
269.424	21.725	1438.738	1135.007
270.439	21.698	1437.744	1133.954
271.453	21.763	1436.580	1133.355
272.468	21.842	1435.765	1133.122
273.482	21.785	1435.427	1132.383
274.497	21.827	1434.679	1131.965
275.512	21.669	1434.063	1130.360
276.526	21.776	1433.164	1130.238
277.541	21.821	1432.225	1129.688
278.555	21.762	1431.557	1128.686
279.570	21.822	1430.776	1128.351
280.585	21.870	1429.632	1127.663
281.599	21.802	1428.780	1126.454
282.614	21.868	1427.850	1126.041
283.628	21.862	1426.572	1124.898
284.643	21.874	1425.862	1124.312
285.657	21.953	1424.847	1123.919
286.672	21.808	1424.409	1122.546
287.687	21.834	1423.543	1121.932
288.701	21.869	1422.500	1121.232
289.716	21.954	1421.979	1121.267
290.730	21.763	1421.659	1119.698
291.745	21.964	1419.999	1119.569
292.760	21.857	1419.544	1118.434
293.774	21.994	1418.206	1118.152
294.789	21.926	1417.832	1117.324
295.803	21.984	1417.005	1116.943
296.818	21.948	1415.998	1115.822
297.833	21.976	1415.244	1115.304
298.847	22.051	1414.338	1114.970
299.862	22.037	1413.601	1114.202
300.876	22.029	1412.825	1113.440
301.891	22.008	1411.748	1112.360
302.906	22.048	1410.882	1111.833
303.920	22.004	1410.500	1111.153
304.935	22.118	1410.136	1111.490
305.949	22.145	1408.810	1110.518
306.964	22.090	1408.218	1109.606
307.979	22.062	1407.770	1108.979
308.993	22.171	1406.464	1108.535
310.008	22.150	1405.835	1107.809
311.022	22.126	1404.888	1106.815
312.037	22.128	1403.382	1105.544
313.052	22.097	1402.928	1104.895
314.066	22.178	1401.674	1104.318
315.081	22.187	1401.061	1103.795
316.095	22.116	1400.244	1102.608
317.110	22.089	1399.622	1101.852
318.125	22.199	1398.657	1101.685
319.139	22.142	1397.911	1100.639
320.154	22.195	1396.749	1099.961
321.168	22.145	1396.186	1099.108
322.183	22.337	1394.766	1099.088
323.197	22.163	1394.448	1097.655
324.212	22.216	1393.522	1097.161
325.227	22.255	1392.734	1096.688
326.241	22.194	1391.992	1095.622
327.256	22.277	1390.996	1095.263
328.270	22.459	1390.022	1095.528
329.285	22.312	1389.508	1094.111
330.300	22.364	1388.600	1093.624
331.314	22.354	1387.801	1092.837
332.329	22.269	1386.631	1091.290
333.343	22.397	1385.939	1091.441
334.358	22.280	1385.590	1090.348
335.373	22.362	1384.746	1090.096
336.387	22.422	1383.992	1089.778
337.402	22.518	1383.274	1089.709
338.416	22.443	1382.919	1088.865
339.431	22.492	1382.019	1088.364
340.446	22.443	1381.556	1087.599
341.460	22.430	1380.741	1086.781
342.475	22.380	1379.868	1085.692
343.489	22.458	1379.048	1085.429
344.504	22.558	1377.555	1084.777
345.519	22.417	1376.829	1083.240
346.533	22.499	1375.938	1082.946
347.548	22.501	1375.297	1082.358
348.562	22.498	1374.439	1081.568
349.577	22.505	1373.376	1080.679
350.592	22.607	1372.813	1080.769
351.606	22.521	1372.206	1079.667
352.621	22.507	1370.739	1078.330
353.635	22.424	1370.024	1077.165
354.650	22.548	1369.545	1077.451
355.665	22.560	1368.261	1076.418
356.679	22.590	1367.691	1076.062
357.694	22.606	1366.886	1075.426
358.708	22.643	1365.556	1074.516
359.723	22.553	1364.360	1072.929
360.738	22.559	1363.398	1072.111
361.752	22.599	1362.408	1071.486
362.767	22.560	1361.446	1070.394
363.781	22.649	1360.439	1070.052
364.796	22.611	1360.010	1069.388
365.810	22.657	1358.968	1068.752
366.825	22.738	1358.283	1068.606
367.840	22.694	1357.961	1067.993
368.854	22.738	1357.112	1067.497
369.869	22.750	1356.363	1066.890
370.883	22.880	1355.861	1067.181
371.898	22.868	1354.965	1066.310
372.913	22.825	1354.388	1065.506
373.927	22.792	1353.602	1064.591
374.942	22.736	1352.697	1063.448
375.956	22.771	1352.213	1063.182
376.971	22.818	1351.302	1062.659
377.986	22.829	1350.512	1062.007
379.000	22.834	1349.831	1061.411
380.015	22.859	1349.362	1061.094
381.029	22.839	1348.389	1060.120
382.044	22.824	1347.922	1059.564
383.059	22.909	1346.976	1059.237
384.073	22.927	1346.713	1059.045
385.088	22.925	1345.872	1058.276
386.102	22.935	1345.301	1057.799
387.117	22.912	1344.313	1056.790
388.132	22.959	1343.874	1056.630
389.146	22.991	1342.790	1055.875
390.161	22.906	1342.592	1055.120
391.175	23.019	1341.149	1054.565
392.190	23.085	1340.739	1054.545
393.205	22.913	1340.413	1053.168
394.219	22.973	1339.474	1052.696
395.234	23.047	1337.719	1051.664
396.248	23.027	1336.840	1050.760
397.263	23.008	1335.714	1049.669
398.278	23.095	1334.659	1049.262
399.292	23.114	1333.922	1048.701
400.307	23.118	1332.884	1047.816
401.321	23.098	1332.008	1046.918
402.336	23.199	1330.553	1046.277
403.350	23.096	1329.865	1045.036
404.365	23.143	1329.219	1044.716
405.380	23.135	1328.126	1043.714
406.394	23.105	1327.321	1042.814
407.409	23.209	1326.706	1042.854
408.423	23.267	1326.134	1042.653
409.438	23.223	1325.588	1041.873
410.453	23.270	1324.680	1041.344
411.467	23.269	1323.943	1040.665
412.482	23.313	1323.288	1040.314
413.496	23.279	1322.967	1039.769
414.511	23.262	1321.850	1038.701
415.526	23.375	1321.140	1038.715
416.540	23.340	1320.509	1037.919
417.555	23.179	1319.860	1036.377
418.569	23.294	1319.066	1036.334
419.584	23.305	1318.559	1035.907
420.599	23.249	1318.472	1035.422
421.613	138.701	1430.977	1796.628
422.628	134.902	1447.332	1796.734
