DTS Sentinel unit serial number:	SN413079Multiplexer serial number:	ORYXHardware model number:	OX4-SRSoftware version number:	ORYX F/W v4.00 Oryx Data Collector v3.7.2.0data status	okinstallation	princeton_trtdifferential loss correction	single-endedforward channel	channel 4reverse channel	N/Adate	2019/09/11time	19:59:11forward acquisition time	60.00reverse acquisition time	0.00gamma	496.2192k internal	0.2300k external	0.2300temperature offset calibration	1.0045default loss term (dB/km)	0.3790temperature slope calibration	1.0000multiplexer offset coefficient	1.0000multiplexer slope coefficient	1.0000fibre end	0.00T internal ref (°C)	38.87T ext. ref 1 (°C)	1.37T ext. ref 2 (°C)	31.98length (m)	temperature (°C)	Stokes	anti-Stokes-747.200	-200.000	0.016	-0.158
-746.185	-51.586	-0.184	0.087
-745.171	-164.468	0.096	0.004
-744.156	520.088	-0.094	0.226
-743.142	-28.959	-0.173	0.101
-742.127	108.469	0.155	0.189
-741.112	151.202	-0.111	0.154
-740.098	800.000	-0.102	0.360
-739.083	-37.329	0.124	0.068
-738.069	-158.818	-0.276	0.016
-737.054	-113.187	-0.139	-0.028
-736.039	-53.651	0.080	0.037
-735.025	349.332	-0.065	0.132
-734.010	360.703	-0.119	0.243
-732.996	121.376	-0.055	-0.070
-731.981	-200.000	0.042	0.481
-730.966	-200.000	-0.018	0.127
-729.952	-51.091	-0.323	0.154
-728.937	-46.709	0.166	-0.083
-727.923	800.000	-0.034	-0.142
-726.908	-63.311	-0.292	0.122
-725.894	-145.040	-0.235	0.022
-724.879	73.532	-0.214	-0.228
-723.864	-200.000	0.030	-0.157
-722.850	-187.047	-0.243	-0.003
-721.835	-42.758	-0.232	-0.120
-720.821	-3.949	-0.283	-0.200
-719.806	-200.000	0.018	-0.222
-718.791	-74.409	0.251	-0.092
-717.777	-140.610	0.095	0.010
-716.762	-200.000	0.032	0.237
-715.748	800.000	0.102	0.382
-714.733	-122.715	0.318	0.052
-713.718	6.189	0.192	-0.145
-712.704	-18.554	-0.276	-0.175
-711.689	65.691	-0.019	0.019
-710.675	-200.000	0.058	0.262
-709.660	212.307	0.068	0.109
-708.645	294.752	-0.236	0.439
-707.631	-155.839	-0.111	-0.007
-706.616	729.937	0.063	0.170
-705.602	-200.000	0.006	0.115
-704.587	276.306	0.052	0.094
-703.572	-121.639	0.297	-0.050
-702.558	-23.933	0.085	-0.052
-701.543	-80.749	0.235	-0.080
-700.529	766.097	-0.132	-0.366
-699.514	529.844	-0.084	0.202
-698.499	576.624	0.131	-0.327
-697.485	-86.904	0.356	0.111
-696.470	83.397	-0.168	0.187
-695.456	-200.000	0.004	0.039
-694.441	-14.104	0.144	-0.095
-693.426	-76.131	-0.276	-0.099
-692.412	-65.369	0.322	-0.132
-691.397	41.792	0.123	0.113
-690.383	155.151	-0.120	0.168
-689.368	-76.509	0.136	0.049
-688.354	-92.171	0.176	0.051
-687.339	-200.000	-0.016	-0.176
-686.324	236.130	-0.026	-0.043
-685.310	488.227	0.061	0.141
-684.295	167.559	-0.172	0.249
-683.281	28.823	-0.056	0.048
-682.266	800.000	0.065	-0.243
-681.251	-90.603	-0.205	-0.060
-680.237	-90.962	0.069	-0.020
-679.222	402.514	-0.096	0.205
-678.208	255.044	0.218	-0.380
-677.193	144.370	-0.254	-0.345
-676.178	115.478	0.121	-0.151
-675.164	-137.045	0.244	-0.028
-674.149	4.473	0.128	-0.095
-673.135	511.016	0.090	-0.214
-672.120	-83.169	-0.221	-0.072
-671.105	800.000	-0.032	0.121
-670.091	800.000	-0.051	-0.219
-669.076	109.723	0.283	-0.345
-668.062	-41.923	-0.087	0.046
-667.047	-200.000	0.001	0.035
-666.032	-200.000	-0.022	0.359
-665.018	-200.000	0.073	-0.372
-664.003	-135.712	0.309	-0.037
-662.989	-76.073	-0.250	0.090
-661.974	-107.474	0.112	-0.025
-660.959	-82.859	0.296	-0.097
-659.945	5.568	-0.072	-0.054
-658.930	-200.000	0.029	0.243
-657.916	137.006	0.216	0.287
-656.901	-25.216	-0.257	-0.155
-655.886	800.000	-0.036	0.157
-654.872	-89.446	-0.151	-0.045
-653.857	-6.074	-0.067	0.046
-652.843	-11.745	0.132	-0.088
-651.828	-192.716	-0.270	0.003
-650.814	-67.928	-0.324	0.129
-649.799	-143.668	0.157	-0.015
-648.784	129.756	-0.189	-0.245
-647.770	37.362	-0.052	-0.047
-646.755	-68.702	0.182	-0.072
-645.741	-200.000	0.026	-0.150
-644.726	-200.000	-0.061	-0.406
-643.711	-200.000	-0.015	0.137
-642.697	97.076	0.084	-0.098
-641.682	-63.600	0.209	0.087
-640.668	400.255	0.053	-0.112
-639.653	-103.239	-0.390	-0.094
-638.638	-62.421	-0.241	0.102
-637.624	800.000	0.102	-0.432
-636.609	21.293	0.119	-0.098
-635.595	9.767	-0.215	0.166
-634.580	277.658	0.038	0.069
-633.565	54.598	-0.079	0.077
-632.551	-171.682	-0.157	-0.005
-631.536	-80.457	-0.109	-0.037
-630.522	-76.138	0.364	-0.131
-629.507	-200.000	-0.009	0.051
-628.492	-40.330	0.162	0.086
-627.478	-11.356	-0.529	0.354
-626.463	-30.024	-0.061	0.035
-625.449	17.876	-0.172	0.139
-624.434	-71.040	-0.289	-0.111
-623.419	301.521	-0.125	-0.235
-622.405	-23.521	0.176	0.108
-621.390	-123.531	-0.167	-0.027
-620.376	-200.000	-0.003	-0.105
-619.361	-170.930	0.244	0.008
-618.346	-98.270	-0.229	-0.060
-617.332	-200.000	0.062	-0.336
-616.317	-111.460	-0.269	-0.056
-615.303	-83.505	0.040	-0.013
-614.288	-200.000	0.007	-0.216
-613.273	638.361	-0.046	0.119
-612.259	-200.000	-0.001	0.192
-611.244	-122.438	-0.221	-0.036
-610.230	93.708	-0.146	-0.168
-609.215	9.138	0.176	-0.135
-608.201	352.759	0.016	0.031
-607.186	132.932	0.047	0.062
-606.171	-77.485	-0.231	0.081
-605.157	274.873	-0.161	-0.289
-604.142	-200.000	0.486	-0.002
-603.128	121.644	-0.169	0.213
-602.113	-200.000	-0.008	0.073
-601.098	-200.000	-0.010	0.271
-600.084	257.110	0.126	-0.220
-599.069	-200.000	0.011	-0.101
-598.055	-163.129	-0.047	0.002
-597.040	-200.000	0.052	-0.371
-596.025	-116.456	-0.300	0.056
-595.011	-200.000	-0.038	0.281
-593.996	800.000	0.059	-0.192
-592.982	488.846	0.059	-0.137
-591.967	-25.763	-0.207	0.124
-590.952	114.600	0.271	0.335
-589.938	-200.000	-0.050	0.286
-588.923	191.390	0.172	-0.263
-587.909	-182.209	-0.363	0.007
-586.894	-200.000	-0.002	-0.195
-585.879	-48.465	-0.174	-0.085
-584.865	63.028	-0.394	0.400
-583.850	596.418	0.142	-0.357
-582.836	-65.546	-0.321	-0.130
-581.821	481.644	-0.124	-0.286
-580.806	-49.505	-0.178	-0.086
-579.792	-33.108	0.120	0.068
-578.777	130.715	0.261	0.340
-577.763	-56.748	-0.236	0.106
-576.748	-200.000	-0.005	0.325
-575.733	105.006	0.031	-0.037
-574.719	800.000	0.041	-0.132
-573.704	-120.098	0.164	0.028
-572.690	183.752	0.080	0.120
-571.675	-35.153	-0.127	0.070
-570.661	-200.000	-0.032	0.162
-569.646	17.116	-0.207	-0.166
-568.631	146.239	-0.118	-0.161
-567.617	146.601	0.164	-0.223
-566.602	-18.238	-0.182	0.116
-565.588	324.929	-0.015	0.028
-564.573	171.049	-0.171	-0.248
-563.558	-39.426	0.207	-0.110
-562.544	-98.544	0.216	0.056
-561.529	-145.148	-0.335	-0.031
-560.515	-93.039	0.046	-0.013
-559.500	-105.082	0.276	-0.064
-558.485	439.049	-0.065	-0.145
-557.471	-69.349	0.257	0.100
-556.456	800.000	-0.084	0.255
-555.442	15.680	-0.082	0.065
-554.427	242.894	0.186	0.315
-553.412	-174.565	0.259	0.007
-552.398	19.611	0.188	-0.153
-551.383	800.000	0.089	0.251
-550.369	-30.621	0.166	0.095
-549.354	29.877	0.098	0.085
-548.339	-134.838	0.320	0.039
-547.325	-92.177	-0.268	-0.077
-546.310	-24.246	-0.132	-0.080
-545.296	-73.154	0.243	-0.090
-544.281	-200.000	0.014	-0.190
-543.266	-52.113	-0.148	-0.069
-542.252	800.000	0.064	0.250
-541.237	21.213	0.164	-0.135
-540.223	-44.125	-0.130	0.066
-539.208	-10.712	-0.245	0.164
-538.193	15.599	0.169	-0.134
-537.179	-200.000	-0.027	0.179
-536.164	-200.000	-0.000	-0.299
-535.150	-70.105	-0.193	0.074
-534.135	-121.696	0.144	-0.024
-533.121	24.922	-0.220	-0.185
-532.106	-1.164	0.055	-0.039
-531.091	63.574	-0.128	-0.129
-530.077	-147.301	-0.326	0.028
-529.062	162.627	0.115	-0.164
-528.048	79.213	0.046	-0.050
-527.033	-71.277	-0.247	0.094
-526.018	-75.419	0.079	0.028
-525.004	-93.271	0.153	-0.043
-523.989	25.391	0.202	-0.170
-522.975	-135.951	0.281	-0.033
-521.960	-112.324	0.260	0.053
-520.945	-16.327	-0.177	0.113
-519.931	-105.240	0.038	-0.009
-518.916	142.928	-0.055	-0.074
-517.902	31.428	-0.143	-0.125
-516.887	-22.875	0.184	0.112
-515.872	-200.000	0.007	-0.059
-514.858	12.813	-0.105	-0.082
-513.843	-90.104	-0.109	-0.032
-512.829	-47.492	0.200	0.098
-511.814	87.624	0.152	0.170
-510.799	-129.111	0.469	-0.066
-509.785	300.103	-0.050	-0.093
-508.770	-37.560	-0.213	0.115
-507.756	252.994	0.218	-0.375
-506.741	-60.268	0.203	0.087
-505.726	800.000	-0.020	-0.061
-504.712	-31.655	-0.075	-0.042
-503.697	-105.480	0.174	0.040
-502.683	-164.118	-0.214	-0.010
-501.668	128.257	0.083	0.107
-500.653	46.273	-0.237	-0.222
-499.639	-200.000	0.029	-0.143
-498.624	408.762	-0.138	0.296
-497.610	-109.149	0.133	0.028
-496.595	-70.972	-0.294	0.112
-495.581	-90.068	-0.178	0.052
-494.566	-41.244	-0.305	-0.159
-493.551	467.511	-0.031	-0.070
-492.537	-35.271	0.246	0.135
-491.522	92.565	0.360	-0.410
-490.508	208.892	-0.119	0.188
-489.493	-54.203	-0.310	0.142
-488.478	-10.927	-0.159	0.106
-487.464	-47.281	0.331	0.163
-486.449	-200.000	0.027	0.205
-485.435	345.536	-0.103	0.204
-484.420	334.953	-0.038	0.075
-483.405	800.000	-0.053	-0.190
-482.391	800.000	-0.051	-0.196
-481.376	119.014	0.159	0.198
-480.362	29.632	-0.155	-0.133
-479.347	-10.886	-0.290	-0.193
-478.332	-55.901	0.061	-0.027
-477.318	77.234	0.197	0.211
-476.303	55.676	-0.381	0.373
-475.289	-93.980	0.284	0.079
-474.274	125.639	-0.126	-0.161
-473.259	-46.160	-0.448	0.222
-472.245	143.391	-0.111	0.150
-471.230	-200.000	-0.070	-0.501
-470.216	-28.693	0.167	-0.097
-469.201	-5.666	0.177	-0.122
-468.186	278.472	0.155	0.278
-467.172	-200.000	0.012	0.089
-466.157	-9.997	0.305	0.205
-465.143	145.077	0.172	0.232
-464.128	-104.625	-0.163	0.038
-463.113	-200.000	0.007	-0.245
-462.099	547.688	-0.090	-0.218
-461.084	-71.136	0.224	0.085
-460.070	133.562	-0.121	-0.158
-459.055	-93.332	-0.120	0.034
-458.040	-86.469	0.270	-0.084
-457.026	325.924	-0.028	-0.054
-456.011	100.578	0.130	0.152
-454.997	552.902	-0.057	0.137
-453.982	674.074	0.075	0.196
-452.968	-200.000	-0.055	0.289
-451.953	800.000	0.038	-0.121
-450.938	15.261	-0.106	-0.084
-449.924	9.760	-0.169	-0.129
-448.909	-183.456	-0.322	-0.006
-447.895	800.000	0.080	0.258
-446.880	-163.633	-0.112	-0.005
-445.865	783.585	-0.108	0.297
-444.851	-155.946	0.160	-0.010
-443.836	266.795	0.058	0.102
-442.822	-81.973	-0.028	0.009
-441.807	-3.784	-0.043	-0.030
-440.792	-200.000	-0.004	0.275
-439.778	366.804	-0.104	0.212
-438.763	-103.261	-0.330	0.079
-437.749	661.448	-0.093	-0.241
-436.734	108.794	0.038	0.046
-435.719	-125.763	-0.164	-0.025
-434.705	800.000	0.042	0.150
-433.690	122.799	-0.208	0.262
-432.676	11.203	0.414	-0.319
-431.661	-114.124	-0.105	0.020
-430.646	-200.000	0.013	0.235
-429.632	591.648	-0.232	-0.578
-428.617	-200.000	-0.033	-0.204
-427.603	503.048	0.046	0.106
-426.588	-200.000	0.054	0.240
-425.573	-35.999	-0.333	0.182
-424.559	180.560	0.174	-0.257
-423.544	-112.036	-0.322	0.065
-422.530	-160.934	0.162	0.009
-421.515	-12.835	-0.180	-0.118
-420.500	-39.330	-0.216	-0.114
-419.486	-98.113	0.218	-0.056
-418.471	87.019	-0.142	0.158
-417.457	-53.680	-0.090	0.041
-416.442	-200.000	0.021	-0.106
-415.428	-154.868	0.298	0.020
-414.413	-80.821	0.160	0.054
-413.398	-46.051	-0.142	-0.070
-412.384	772.962	0.059	-0.162
-411.369	800.000	0.037	-0.151
-410.355	800.000	-0.093	0.274
-409.340	550.184	0.036	-0.088
-408.325	-56.133	0.200	-0.090
-407.311	168.811	-0.144	0.207
-406.296	-113.966	0.182	0.036
-405.282	-157.543	0.168	-0.010
-404.267	-200.000	-0.006	0.382
-403.252	214.642	-0.040	-0.064
-402.238	800.000	-0.126	0.381
-401.223	64.427	0.094	0.096
-400.209	-81.211	-0.402	-0.134
-399.194	-95.972	-0.096	0.026
-398.179	102.818	0.120	-0.141
-397.165	800.000	-0.026	0.084
-396.150	7.206	-0.178	0.134
-395.136	-200.000	-0.052	0.274
-394.121	0.088	0.148	0.106
-393.106	800.000	-0.083	-0.251
-392.092	-84.085	0.206	-0.066
-391.077	-99.581	0.090	-0.023
-390.063	-118.832	-0.217	0.038
-389.048	800.000	0.090	0.269
-388.033	80.539	0.091	-0.098
-387.019	301.277	0.032	-0.059
-386.004	-96.381	-0.364	-0.097
-384.990	-2.010	-0.204	-0.144
-383.975	-54.197	-0.047	0.021
-382.960	-16.834	0.184	0.117
-381.946	45.633	-0.088	-0.082
-380.931	800.000	0.108	-0.402
-379.917	800.000	-0.038	-0.159
-378.902	52.957	-0.214	-0.206
-377.888	56.956	-0.221	-0.217
-376.873	-184.927	0.276	-0.004
-375.858	-122.184	-0.204	-0.034
-374.844	-200.000	0.036	0.209
-373.829	168.410	0.142	-0.203
-372.815	22.936	0.332	0.274
-371.800	-71.645	0.085	-0.032
-370.785	193.867	-0.114	-0.174
-369.771	197.062	0.032	-0.050
-368.756	-46.957	0.235	-0.115
-367.742	-97.629	0.102	-0.027
-366.727	-145.547	-0.236	-0.021
-365.712	-200.000	0.008	-0.068
-364.698	-161.404	0.187	-0.010
-363.683	50.581	0.201	0.191
-362.669	43.535	-0.301	-0.277
-361.654	-24.201	0.122	-0.073
-360.639	-77.099	-0.420	-0.147
-359.625	39.987	-0.224	-0.202
-358.610	635.328	0.044	-0.111
-357.596	-43.757	0.174	-0.088
-356.581	-200.000	-0.006	-0.134
-355.566	84.197	-0.295	-0.324
-354.552	43.586	0.301	-0.277
-353.537	-200.000	0.009	-0.193
-352.523	-94.323	0.135	0.037
-351.508	533.427	0.049	0.116
-350.493	800.000	-0.008	-0.028
-349.479	119.931	0.090	0.112
-348.464	109.047	-0.071	0.085
-347.450	10.651	-0.414	0.317
-346.435	-135.747	0.314	0.037
-345.420	260.394	-0.060	-0.103
-344.406	-200.000	0.024	0.160
-343.391	261.469	0.112	-0.194
-342.377	429.775	0.070	-0.152
-341.362	-37.624	0.159	-0.085
-340.348	197.188	0.064	-0.098
-339.333	23.763	-0.287	-0.237
-338.318	-61.851	0.292	-0.123
-337.304	490.362	-0.044	0.101
-336.289	502.824	0.064	0.149
-335.275	70.320	0.104	0.108
-334.260	-200.000	-0.023	0.219
-333.245	147.740	0.274	-0.371
-332.231	-200.000	0.015	-0.358
-331.216	478.784	0.029	0.066
-330.202	800.000	0.072	0.210
-329.187	35.295	0.054	0.048
-328.172	-200.000	0.008	-0.072
-327.158	270.146	0.157	-0.278
-326.143	-6.756	-0.192	-0.131
-325.129	-118.672	-0.487	-0.086
-324.114	42.623	0.128	0.117
-323.099	-200.000	0.011	0.133
-322.085	-107.962	0.253	0.055
-321.070	-200.000	-0.025	0.237
-320.056	287.086	-0.039	0.071
-319.041	182.546	-0.199	0.294
-318.026	26.319	-0.299	0.250
-317.012	-200.000	-0.020	-0.125
-315.997	-176.733	0.095	0.002
-314.983	361.560	-0.174	0.350
-313.968	-149.460	-0.198	0.016
-312.953	-200.000	0.005	0.151
-311.939	-19.563	-0.092	0.057
-310.924	-108.604	-0.202	0.044
-309.910	-200.000	0.004	-0.088
-308.895	-77.047	-0.161	-0.056
-307.880	-165.642	0.152	0.007
-306.866	74.000	0.166	-0.174
-305.851	250.250	0.021	0.036
-304.837	590.231	0.055	0.137
-303.822	153.313	-0.097	-0.133
-302.807	112.929	0.153	-0.186
-301.793	-200.000	-0.014	0.107
-300.778	-200.000	0.000	0.277
-299.764	-119.245	0.086	0.015
-298.749	14.782	0.382	-0.300
-297.735	118.131	0.106	0.131
-296.720	-4.480	0.214	0.148
-295.705	-29.834	0.050	0.029
-294.691	38.460	0.078	0.069
-293.676	3.471	-0.241	0.176
-292.662	197.978	0.090	0.138
-291.647	280.621	0.068	0.122
-290.632	20.919	-0.254	-0.207
-289.618	94.967	0.269	-0.307
-288.603	-200.000	0.002	0.019
-287.589	292.113	0.063	0.115
-286.574	-5.865	0.291	0.199
-285.559	-200.000	0.009	0.080
-284.545	-200.000	-0.034	-0.513
-283.530	59.052	-0.266	0.262
-282.516	1.384	0.181	0.130
-281.501	800.000	-0.055	-0.180
-280.486	496.153	0.069	-0.159
-279.472	-163.746	0.380	0.018
-278.457	-142.080	-0.316	0.031
-277.443	-96.273	-0.223	0.059
-276.428	-200.000	0.000	-0.138
-275.413	800.000	-0.200	-0.557
-274.399	-1.253	0.398	-0.281
-273.384	-38.100	0.294	-0.156
-272.370	70.486	0.202	-0.209
-271.355	-85.224	0.530	-0.166
-270.340	-116.795	-0.224	0.041
-269.326	-114.010	-0.398	-0.077
-268.311	206.469	0.052	0.081
-267.297	-94.597	0.328	0.089
-266.282	484.185	0.080	0.181
-265.267	-92.914	0.225	0.063
-264.253	-48.533	0.112	-0.054
-263.238	-200.000	0.016	0.199
-262.224	800.000	-0.070	0.221
-261.209	-97.678	-0.121	0.031
-260.195	-94.128	-0.146	-0.040
-259.180	-200.000	-0.008	0.075
-258.165	-200.000	0.077	0.482
-257.151	94.688	-0.180	0.204
-256.136	-200.000	-0.069	-0.304
-255.122	-67.356	0.282	0.111
-254.107	800.000	-0.058	-0.208
-253.092	496.180	0.059	-0.136
-252.078	-133.653	0.280	-0.035
-251.063	387.827	0.159	0.329
-250.049	-200.000	-0.033	0.231
-249.034	-124.276	0.196	-0.031
-248.019	-200.000	-0.052	0.238
-247.005	-129.358	0.296	-0.041
-245.990	-46.330	-0.054	-0.026
-244.976	-90.711	0.292	-0.084
-243.961	98.699	0.122	0.141
-242.946	193.852	-0.195	0.295
-241.932	-67.584	0.119	0.047
-240.917	426.038	-0.063	-0.136
-239.903	-200.000	-0.046	0.498
-238.888	-200.000	0.018	0.168
-237.873	62.211	-0.073	0.073
-236.859	-128.748	0.361	-0.051
-235.844	-200.000	-0.028	-0.223
-234.830	-10.937	0.342	-0.226
-233.815	309.408	-0.117	0.218
-232.800	87.744	-0.155	-0.171
-231.786	165.530	0.055	-0.078
-230.771	-68.642	-0.144	-0.056
-229.757	-32.114	0.254	-0.142
-228.742	800.000	-0.059	-0.217
-227.727	-161.574	-0.263	0.013
-226.713	49.812	-0.128	-0.120
-225.698	-16.909	-0.093	-0.059
-224.684	248.147	-0.197	-0.334
-223.669	388.767	0.275	-0.569
-222.655	800.000	-0.006	0.024
-221.640	-200.000	-0.046	0.228
-220.625	302.733	-0.170	0.314
-219.611	-64.137	0.472	0.193
-218.596	61.017	-0.069	-0.068
-217.582	49.908	-0.226	0.213
-216.567	-88.880	-0.219	0.065
-215.552	800.000	0.036	0.130
-214.538	-200.000	-0.007	0.143
-213.523	-156.083	-0.176	-0.011
-212.509	68.077	0.012	0.013
-211.494	-200.000	-0.045	-0.229
-210.479	-76.779	0.238	-0.083
-209.465	-121.329	0.251	-0.042
-208.450	729.004	-0.021	0.057
-207.436	-3.088	-0.206	-0.144
-206.421	190.356	0.152	-0.228
-205.406	44.218	0.168	-0.154
-204.392	-178.801	-0.069	-0.002
-203.377	-10.131	-0.218	-0.145
-202.363	87.729	-0.013	0.014
-201.348	526.487	-0.173	0.407
-200.333	192.030	-0.063	0.095
-199.319	97.507	-0.230	-0.264
-198.304	127.803	-0.174	-0.221
-197.290	-65.972	0.118	0.047
-196.275	-200.000	-0.017	-0.154
-195.260	-50.154	0.243	0.115
-194.246	194.996	-0.278	0.421
-193.231	-4.080	0.138	0.096
-192.217	23.886	-0.071	0.058
-191.202	-78.563	-0.060	0.020
-190.187	122.209	0.260	0.324
-189.173	155.816	0.252	0.347
-188.158	-200.000	0.007	0.157
-187.144	-111.974	-0.317	-0.064
-186.129	87.381	0.322	-0.355
-185.114	465.171	-0.105	0.234
-184.100	-200.000	-0.030	-0.160
-183.085	-43.196	-0.239	-0.121
-182.071	162.805	0.202	-0.283
-181.056	-200.000	0.025	-0.113
-180.042	800.000	0.164	0.504
-179.027	-120.439	0.169	0.029
-178.012	800.000	0.100	0.308
-176.998	-200.000	0.050	0.235
-175.983	725.965	0.069	0.184
-174.969	56.683	-0.102	0.099
-173.954	800.000	0.060	0.219
-172.939	-200.000	-0.005	0.045
-171.925	26.855	-0.163	0.136
-170.910	116.869	-0.106	-0.130
-169.896	-114.277	0.344	0.066
-168.881	394.044	0.045	-0.093
-167.866	800.000	0.036	0.120
-166.852	-130.174	0.015	0.002
-165.837	319.405	0.058	-0.110
-164.823	-11.565	0.095	-0.063
-163.808	-63.778	0.107	0.044
-162.793	-123.538	0.181	0.029
-161.779	174.511	0.051	-0.073
-160.764	562.862	-0.103	0.249
-159.750	-191.172	0.152	-0.002
-158.735	713.044	0.134	-0.354
-157.720	99.591	-0.188	0.217
-156.706	415.650	-0.074	0.158
-155.691	45.801	-0.213	-0.197
-154.677	-119.900	-0.336	-0.058
-153.662	-86.125	0.251	0.077
-152.647	54.032	0.099	-0.095
-151.633	-120.875	-0.218	0.037
-150.618	193.928	0.083	0.126
-149.604	-28.473	-0.255	0.147
-148.589	395.068	-0.070	0.146
-147.574	800.000	0.066	0.202
-146.560	26.743	-0.134	-0.112
-145.545	11.731	0.205	0.157
-144.531	174.424	-0.116	0.168
-143.516	237.939	0.101	-0.167
-142.502	-119.211	0.233	-0.040
-141.487	-200.000	-0.039	0.318
-140.472	154.537	-0.182	0.249
-139.458	-131.097	0.110	-0.015
-138.443	-200.000	0.008	0.308
-137.429	48.131	0.242	0.226
-136.414	-43.273	0.169	0.085
-135.399	-58.443	-0.065	-0.028
-134.385	359.420	0.066	0.131
-133.370	800.000	0.087	-0.262
-132.356	-200.000	-0.035	-0.195
-131.341	-77.206	-0.344	0.119
-130.326	800.000	0.073	0.290
-129.312	-34.279	0.162	0.088
-128.297	86.760	0.298	-0.328
-127.283	-143.229	0.183	0.018
-126.268	-20.633	0.093	-0.057
-125.253	241.681	0.076	-0.127
-124.239	453.995	-0.071	0.156
-123.224	-41.963	-0.125	-0.064
-122.210	-105.789	-0.074	-0.017
-121.195	326.761	-0.066	-0.126
-120.180	-63.540	-0.073	0.030
-119.166	-83.339	0.289	-0.092
-118.151	56.050	0.021	-0.020
-117.137	-0.807	0.125	-0.088
-116.122	-74.788	0.204	0.073
-115.107	81.254	0.233	-0.250
-114.093	-200.000	0.003	0.136
-113.078	31.200	0.192	0.164
-112.064	332.501	0.077	0.148
-111.049	-39.235	0.254	0.133
-110.034	435.760	-0.078	0.169
-109.020	-200.000	-0.012	-0.177
-108.005	51.287	0.144	-0.136
-106.991	151.393	0.206	0.279
-105.976	-176.642	0.547	-0.014
-104.962	-137.411	0.199	0.022
-103.947	56.688	-0.043	0.041
-102.932	-200.000	0.017	-0.448
-101.918	-160.807	0.369	0.019
-100.903	102.698	-0.131	0.153
-99.889	-2.065	0.187	0.131
-98.874	-108.172	-0.026	-0.006
-97.859	55.271	-0.059	0.056
-96.845	179.680	0.051	0.074
-95.830	-200.000	0.005	-0.119
-94.816	205.657	-0.037	-0.058
-93.801	218.151	-0.146	0.231
-92.786	-200.000	0.061	-0.456
-91.772	431.121	-0.047	-0.102
-90.757	110.235	-0.328	-0.392
-89.743	-20.410	-0.102	-0.063
-88.728	29.011	-0.053	0.045
-87.713	277.870	-0.079	-0.139
-86.699	800.000	-0.060	0.224
-85.684	14.037	-0.062	0.048
-84.670	-200.000	-0.007	-0.104
-83.655	-200.000	-0.023	0.404
-82.640	98.769	-0.157	0.181
-81.626	782.376	0.115	-0.312
-80.611	800.000	-0.078	-0.239
-79.597	57.836	-0.209	-0.204
-78.582	-11.171	-0.099	-0.065
-77.567	-200.000	-0.001	-0.094
-76.553	50.350	-0.333	0.313
-75.538	-126.316	0.167	0.025
-74.524	800.000	-0.026	-0.089
-73.509	153.449	-0.177	-0.241
-72.494	800.000	-0.104	0.304
-71.480	800.000	-0.090	0.357
-70.465	98.376	-0.052	-0.060
-69.451	-200.000	-0.041	0.409
-68.436	-0.581	0.307	-0.217
-67.422	-189.362	-0.089	-0.001
-66.407	-56.484	0.233	0.103
-65.392	111.475	-0.208	-0.249
-64.378	-200.000	-0.046	-0.207
-63.363	800.000	0.127	-0.451
-62.349	800.000	-0.027	-0.099
-61.334	183.965	-0.571	-0.839
-60.319	-200.000	0.004	0.070
-59.305	635.235	-0.410	-1.034
-58.290	800.000	0.171	0.699
-57.276	417.100	0.602	1.276
-56.261	-200.000	84.575	502.230
-55.246	495.746	1353.623	3088.322
-54.232	149.067	2574.565	3457.616
-53.217	105.299	2346.872	2751.155
-52.203	45.304	2090.902	1914.531
-51.188	40.688	2000.222	1789.933
-50.173	39.112	1980.502	1758.123
-49.159	51.390	2025.512	1909.421
-48.144	55.138	2046.283	1962.896
-47.130	41.513	2006.009	1802.279
-46.115	38.884	1994.874	1768.545
-45.100	38.854	1991.269	1765.013
-44.086	38.755	1989.460	1762.446
-43.071	38.723	1986.546	1759.512
-42.057	38.796	1984.365	1758.166
-41.042	38.783	1982.940	1756.718
-40.027	38.666	1981.563	1754.373
-39.013	38.810	1979.027	1753.345
-37.998	38.852	1976.954	1751.822
-36.984	38.948	1975.272	1751.117
-35.969	38.880	1973.892	1749.219
-34.954	38.818	1971.950	1746.871
-33.940	38.843	1970.623	1745.854
-32.925	38.846	1968.958	1744.337
-31.911	38.885	1967.228	1743.080
-30.896	38.913	1965.568	1741.788
-29.881	38.908	1964.702	1740.907
-28.867	38.994	1961.977	1739.187
-27.852	38.920	1960.513	1737.164
-26.838	38.903	1958.926	1735.536
-25.823	38.890	1957.398	1733.998
-24.809	38.984	1955.016	1732.645
-23.794	38.920	1953.690	1730.839
-22.779	38.861	1951.732	1728.520
-21.765	38.864	1950.069	1727.000
-20.750	38.913	1948.283	1725.786
-19.736	38.790	1947.389	1723.840
-18.721	38.846	1945.595	1722.679
-17.706	38.882	1943.760	1721.302
-16.692	38.817	1942.389	1719.450
-15.677	38.845	1940.448	1717.910
-14.663	38.910	1938.811	1716.962
-13.648	38.911	1937.820	1716.025
-12.633	38.971	1936.635	1715.429
-11.619	38.931	1935.544	1714.049
-10.604	38.913	1933.876	1712.343
-9.590	38.895	1932.169	1710.603
-8.575	38.803	1931.278	1708.944
-7.560	38.808	1930.205	1707.974
-6.546	38.916	1928.630	1707.451
-5.531	38.814	1927.531	1705.526
-4.517	38.856	1926.032	1704.494
-3.502	38.958	1924.934	1704.340
-2.487	38.875	1923.736	1702.492
-1.473	38.814	1922.512	1700.815
-0.458	38.885	1917.953	1697.326
0.556	37.973	1897.391	1666.358
1.571	33.081	1876.231	1606.181
2.586	28.450	1896.190	1583.239
3.600	27.092	1932.276	1601.262
4.615	26.363	1928.775	1591.804
5.629	20.134	1826.239	1454.942
6.644	8.395	1700.243	1262.186
7.659	2.016	1657.340	1180.978
8.673	1.494	1653.667	1174.224
9.688	1.419	1652.516	1172.723
10.702	1.361	1650.905	1171.032
11.717	1.226	1647.811	1167.690
12.731	1.641	1647.084	1170.262
13.746	8.683	1664.591	1237.180
14.761	19.508	1689.039	1339.706
15.775	24.684	1697.997	1386.971
16.790	25.410	1698.585	1392.961
17.804	25.581	1697.845	1393.556
18.819	25.561	1697.176	1392.724
19.834	25.734	1695.976	1392.959
20.848	25.855	1695.921	1393.726
21.863	25.907	1694.992	1393.236
22.877	25.859	1694.131	1392.041
23.892	25.924	1692.924	1391.424
24.907	25.876	1692.218	1390.352
25.921	25.910	1691.686	1390.051
26.936	25.932	1690.297	1388.959
27.950	25.936	1689.099	1387.879
28.965	25.869	1688.741	1386.945
29.980	25.918	1688.099	1386.672
30.994	25.917	1686.391	1385.145
32.009	25.936	1684.661	1383.746
33.023	25.936	1684.178	1383.223
34.038	25.912	1682.814	1381.797
35.053	25.912	1682.063	1381.062
36.067	25.930	1681.302	1380.449
37.082	25.941	1680.072	1379.401
38.096	25.881	1679.543	1378.387
39.111	25.969	1678.275	1377.901
40.126	25.937	1677.740	1377.094
41.140	25.893	1676.921	1375.965
42.155	25.948	1675.790	1375.332
43.169	25.847	1675.094	1373.865
44.184	25.890	1673.785	1373.000
45.199	25.963	1672.325	1372.234
46.213	25.896	1671.800	1371.171
47.228	25.888	1670.189	1369.669
48.242	25.923	1668.904	1368.761
49.257	25.882	1667.862	1367.476
50.271	25.903	1666.940	1366.757
51.286	25.955	1665.647	1365.973
52.301	25.860	1664.834	1364.463
53.315	25.861	1663.189	1363.005
54.330	25.848	1661.860	1361.696
55.344	25.870	1660.206	1360.388
56.359	25.875	1658.699	1359.069
57.374	25.871	1657.838	1358.215
58.388	25.877	1656.846	1357.326
59.403	25.929	1655.573	1356.550
60.417	25.954	1654.682	1355.893
61.432	25.920	1653.873	1354.856
62.447	25.799	1652.998	1353.106
63.461	25.946	1651.508	1352.871
64.476	25.962	1650.443	1351.995
65.490	25.981	1649.512	1351.255
66.505	25.884	1648.587	1349.655
67.520	25.951	1647.740	1349.343
68.534	25.943	1646.923	1348.493
69.549	25.964	1645.524	1347.384
70.563	25.888	1644.492	1345.853
71.578	25.940	1643.547	1345.352
72.593	26.000	1642.298	1344.659
73.607	25.986	1641.405	1343.705
74.622	26.014	1640.119	1342.738
75.636	25.965	1639.361	1341.638
76.651	25.990	1638.721	1341.179
77.666	25.958	1638.278	1340.461
78.680	25.904	1637.292	1339.135
79.695	26.031	1636.256	1339.108
80.709	25.992	1635.254	1337.884
81.724	26.032	1634.414	1337.371
82.739	26.003	1633.830	1336.560
83.753	25.945	1632.934	1335.280
84.768	25.838	1632.435	1333.961
85.782	25.972	1631.143	1333.780
86.797	25.964	1629.844	1332.541
87.812	26.003	1628.594	1331.685
88.826	25.934	1627.950	1330.531
89.841	25.940	1627.317	1329.943
90.855	26.077	1625.667	1329.489
91.870	25.917	1625.198	1327.807
92.884	25.856	1624.600	1326.755
93.899	25.972	1622.686	1325.927
94.914	26.033	1621.735	1325.483
95.928	25.985	1620.632	1324.104
96.943	26.006	1619.198	1322.974
97.957	26.030	1618.009	1322.058
98.972	26.041	1616.532	1320.814
99.987	26.039	1615.281	1319.660
101.001	26.000	1614.097	1318.293
102.016	26.048	1612.333	1317.086
103.030	25.939	1611.047	1315.124
104.045	25.944	1610.238	1314.384
105.060	25.943	1609.160	1313.381
106.074	25.963	1607.526	1312.076
107.089	26.020	1606.172	1311.271
108.103	25.960	1605.674	1310.309
109.118	25.912	1604.527	1308.910
110.133	26.008	1603.154	1308.373
111.147	25.986	1602.414	1307.492
112.162	26.052	1601.088	1306.776
113.176	25.980	1600.152	1305.373
114.191	26.091	1598.748	1304.911
115.206	26.047	1597.756	1303.673
116.220	26.027	1596.197	1302.139
117.235	25.973	1595.507	1301.068
118.249	25.992	1594.113	1299.958
119.264	25.934	1593.251	1298.721
120.279	25.986	1591.521	1297.568
121.293	26.033	1590.361	1296.845
122.308	26.131	1588.841	1296.197
123.322	26.134	1587.986	1295.404
124.337	26.041	1587.135	1293.933
125.352	26.018	1586.026	1292.750
126.366	26.088	1585.109	1292.383
127.381	26.042	1584.557	1291.495
128.395	26.093	1583.267	1290.693
129.410	26.155	1581.909	1289.915
130.424	26.105	1580.715	1288.472
131.439	26.102	1579.761	1287.557
132.454	26.169	1578.587	1286.963
133.468	26.060	1577.415	1285.115
134.483	26.077	1576.139	1284.082
135.497	26.095	1574.835	1283.040
136.512	26.140	1573.854	1282.444
137.527	26.152	1573.038	1281.747
138.541	26.158	1571.815	1280.685
139.556	26.147	1570.435	1279.364
140.570	26.087	1569.211	1277.830
141.585	26.087	1568.092	1276.810
142.600	26.114	1567.091	1276.070
143.614	26.093	1565.868	1274.817
144.629	26.058	1565.010	1273.755
145.643	26.112	1563.663	1272.929
146.658	26.040	1562.708	1271.531
147.673	26.047	1560.976	1270.058
148.687	26.022	1559.671	1268.704
149.702	26.050	1559.009	1268.252
150.716	26.074	1557.557	1267.131
151.731	26.026	1556.730	1266.009
152.746	26.119	1555.618	1265.643
153.760	26.041	1554.645	1264.189
154.775	26.079	1553.766	1263.630
155.789	26.158	1552.209	1262.804
156.804	26.064	1551.620	1261.558
157.819	26.105	1550.212	1260.586
158.833	26.064	1549.360	1259.497
159.848	26.193	1548.517	1259.601
160.862	26.171	1547.132	1258.211
161.877	26.187	1546.152	1257.412
162.892	26.175	1545.517	1256.703
163.906	26.203	1543.845	1255.424
164.921	26.122	1543.575	1254.529
165.935	26.249	1542.809	1254.682
166.950	26.162	1541.812	1253.152
167.964	26.346	1540.446	1253.211
168.979	26.211	1539.656	1251.522
169.994	26.163	1538.889	1250.451
171.008	26.256	1537.567	1249.912
172.023	26.258	1536.922	1249.288
173.037	26.174	1535.891	1247.758
174.052	26.193	1535.132	1247.165
175.067	26.205	1534.467	1246.600
176.081	26.168	1533.316	1245.299
177.096	26.237	1532.016	1244.604
178.110	26.188	1530.876	1243.231
179.125	26.132	1530.507	1242.438
180.140	26.162	1529.251	1241.513
181.154	26.307	1528.363	1241.680
182.169	26.236	1527.498	1240.380
183.183	26.288	1526.374	1239.712
184.198	26.252	1525.708	1238.818
185.213	26.274	1524.708	1238.048
186.227	26.252	1524.140	1237.328
187.242	26.306	1523.093	1236.737
188.256	26.316	1522.233	1235.997
189.271	26.370	1521.336	1235.530
190.286	26.342	1520.188	1234.292
191.300	26.308	1519.485	1233.384
192.315	26.279	1518.742	1232.473
193.329	26.294	1517.633	1231.564
194.344	26.216	1517.021	1230.426
195.359	26.294	1516.311	1230.273
196.373	26.445	1515.720	1230.715
197.388	26.390	1514.489	1229.234
198.402	26.267	1513.742	1227.683
199.417	26.182	1512.687	1226.139
200.432	26.295	1512.347	1226.522
201.446	26.346	1511.183	1225.813
202.461	26.405	1510.359	1225.439
203.475	26.261	1509.643	1223.775
204.490	26.399	1508.472	1223.652
205.504	26.304	1507.643	1222.229
206.519	26.206	1506.965	1220.904
207.534	26.333	1506.031	1220.897
208.548	26.388	1504.929	1220.271
209.563	26.379	1504.401	1219.671
210.577	26.307	1503.862	1218.642
211.592	26.374	1502.559	1217.932
212.607	26.257	1502.559	1217.036
213.621	26.338	1501.487	1216.605
214.636	26.447	1500.580	1216.494
215.650	26.424	1499.978	1215.743
216.665	26.513	1498.343	1214.905
217.680	26.396	1498.133	1213.842
218.694	26.538	1497.184	1213.922
219.709	26.457	1496.855	1213.004
220.723	26.461	1495.651	1211.950
221.738	26.427	1494.591	1210.757
222.753	26.470	1493.990	1210.446
223.767	26.433	1493.219	1209.471
224.782	26.405	1492.182	1208.334
225.796	26.441	1491.248	1207.711
226.811	26.497	1490.612	1207.465
227.826	26.499	1489.985	1206.865
228.840	26.509	1489.303	1206.268
229.855	26.554	1488.343	1205.685
230.869	26.533	1487.570	1204.811
231.884	26.433	1486.810	1203.427
232.899	26.531	1485.242	1202.698
233.913	26.504	1483.953	1201.368
234.928	26.581	1483.287	1201.236
235.942	26.580	1482.210	1200.251
236.957	26.649	1480.959	1199.590
237.972	26.535	1480.508	1198.361
238.986	26.557	1479.643	1197.699
240.001	26.468	1478.814	1196.338
241.015	26.582	1477.628	1196.028
242.030	26.581	1476.506	1195.004
243.045	26.739	1475.414	1195.058
244.059	26.677	1475.186	1194.357
245.074	26.704	1474.150	1193.589
246.088	26.636	1473.621	1192.606
247.103	26.720	1472.587	1192.217
248.117	26.699	1472.193	1191.658
249.132	26.606	1471.030	1189.998
250.147	26.699	1470.421	1190.013
251.161	26.668	1470.083	1189.429
252.176	26.805	1469.275	1189.567
253.190	26.854	1468.316	1189.010
254.205	26.810	1467.527	1187.978
255.220	26.754	1467.243	1187.272
256.234	26.755	1466.066	1186.226
257.249	26.739	1465.143	1185.267
258.263	26.709	1464.670	1184.585
259.278	26.820	1463.612	1184.345
260.293	26.733	1462.456	1182.742
261.307	26.823	1461.996	1182.847
262.322	26.771	1461.617	1182.097
263.336	26.856	1460.609	1181.735
264.351	26.880	1459.499	1180.886
265.366	26.738	1459.171	1179.591
266.380	26.916	1457.856	1179.586
267.395	26.895	1456.721	1178.425
268.409	26.894	1456.184	1177.879
269.424	26.782	1455.594	1176.569
270.439	26.878	1454.416	1176.134
271.453	26.878	1453.558	1175.341
272.468	26.905	1452.605	1174.638
273.482	26.848	1452.290	1173.911
274.497	26.842	1451.445	1173.086
275.512	26.833	1450.383	1172.064
276.526	26.990	1449.682	1172.409
277.541	26.964	1448.936	1171.535
278.555	26.905	1448.251	1170.497
279.570	26.910	1447.515	1169.832
280.585	26.998	1446.369	1169.370
281.599	26.975	1445.615	1168.504
282.614	27.022	1445.101	1168.288
283.628	26.938	1443.848	1166.636
284.643	26.984	1443.091	1166.212
285.657	27.029	1441.927	1165.455
286.672	27.029	1441.252	1164.808
287.687	26.975	1440.267	1163.564
288.701	27.002	1439.437	1162.963
289.716	27.016	1438.893	1162.509
290.730	27.098	1438.297	1162.452
291.745	26.982	1437.300	1160.800
292.760	27.032	1436.652	1160.496
293.774	27.136	1435.177	1159.863
294.789	27.101	1434.550	1159.034
295.803	27.115	1433.747	1158.369
296.818	27.135	1433.181	1157.937
297.833	27.177	1432.089	1157.221
298.847	27.135	1431.305	1156.218
299.862	27.039	1430.811	1155.108
300.876	27.095	1429.753	1154.508
301.891	27.168	1428.468	1153.826
302.906	27.203	1428.139	1153.680
303.920	27.188	1427.751	1153.173
304.935	27.136	1427.266	1152.345
305.949	27.343	1425.940	1152.484
306.964	27.324	1425.379	1151.814
307.979	27.225	1424.162	1150.098
308.993	27.261	1423.870	1149.991
310.008	27.315	1422.836	1149.392
311.022	27.305	1421.872	1148.449
312.037	27.261	1420.881	1147.270
313.052	27.319	1420.241	1147.018
314.066	27.212	1419.242	1145.434
315.081	27.344	1418.138	1145.275
316.095	27.176	1417.751	1143.805
317.110	27.292	1416.591	1143.493
318.125	27.354	1415.442	1142.856
319.139	27.324	1415.064	1142.262
320.154	27.303	1414.272	1141.388
321.168	27.376	1412.924	1140.660
322.183	27.423	1412.013	1140.118
323.197	27.367	1411.046	1138.885
324.212	27.403	1410.114	1138.254
325.227	27.346	1409.883	1137.611
326.241	27.282	1409.422	1136.741
327.256	27.370	1408.133	1136.151
328.270	27.445	1407.282	1135.829
329.285	27.454	1406.468	1135.127
330.300	27.440	1405.506	1134.167
331.314	27.533	1404.848	1134.113
332.329	27.471	1404.351	1133.227
333.343	27.401	1403.435	1131.953
334.358	27.473	1402.805	1131.791
335.373	27.586	1402.179	1131.887
336.387	27.591	1401.357	1131.155
337.402	27.556	1400.891	1130.463
338.416	27.589	1400.284	1130.074
339.431	27.620	1399.668	1129.669
340.446	27.628	1398.859	1128.966
341.460	27.684	1397.855	1128.401
342.475	27.652	1397.006	1127.417
343.489	27.702	1396.453	1127.181
344.504	27.669	1395.175	1125.847
345.519	27.650	1394.226	1124.866
346.533	27.715	1393.499	1124.578
347.548	27.508	1393.095	1122.877
348.562	27.624	1392.271	1122.829
349.577	27.705	1391.560	1122.658
350.592	27.721	1390.664	1121.929
351.606	27.643	1389.775	1120.634
352.621	27.712	1388.910	1120.263
353.635	27.663	1387.866	1119.020
354.650	27.709	1387.177	1118.648
355.665	27.746	1385.641	1117.539
356.679	27.716	1385.083	1116.805
357.694	27.754	1384.340	1116.336
358.708	27.877	1383.039	1115.942
359.723	27.763	1382.024	1114.326
360.738	27.786	1381.023	1113.566
361.752	27.772	1379.899	1112.471
362.767	27.801	1378.707	1111.591
363.781	27.788	1378.003	1110.842
364.796	27.828	1377.319	1110.440
365.810	27.906	1376.649	1110.275
366.825	27.827	1376.193	1109.328
367.840	27.769	1375.342	1108.191
368.854	27.937	1374.837	1108.709
369.869	27.940	1374.136	1108.062
370.883	27.980	1373.194	1107.444
371.898	27.901	1372.433	1106.258
372.913	28.029	1372.005	1106.586
373.927	27.955	1371.117	1105.324
374.942	27.957	1370.539	1104.773
375.956	28.022	1369.443	1104.185
376.971	28.000	1369.057	1103.644
377.986	27.927	1368.347	1102.533
379.000	27.845	1367.676	1101.399
380.015	28.055	1366.562	1101.670
381.029	28.068	1366.109	1101.290
382.044	28.161	1364.780	1100.680
383.059	28.051	1364.681	1099.840
384.073	28.049	1364.227	1099.364
385.088	28.083	1363.674	1099.023
386.102	28.135	1362.836	1098.567
387.117	28.130	1362.503	1098.170
388.132	28.187	1361.575	1097.665
389.146	28.090	1360.768	1096.340
390.161	28.120	1360.078	1095.866
391.175	28.117	1359.854	1095.566
392.190	28.075	1359.095	1094.610
393.205	28.203	1357.784	1094.222
394.219	28.129	1357.193	1093.207
395.234	28.090	1356.254	1092.118
396.248	28.206	1354.842	1091.580
397.263	28.193	1354.329	1090.992
398.278	28.186	1353.155	1089.905
399.292	28.242	1352.186	1089.362
400.307	28.254	1351.358	1088.668
401.321	28.287	1350.270	1087.896
402.336	28.366	1349.444	1087.603
403.350	28.276	1348.100	1085.889
404.365	28.157	1347.518	1084.620
405.380	28.247	1346.940	1084.590
406.394	28.293	1346.329	1084.273
407.409	28.340	1345.449	1083.746
408.423	28.375	1344.420	1083.028
409.438	28.436	1343.786	1082.785
410.453	28.428	1343.336	1082.280
411.467	28.466	1342.485	1081.719
412.482	28.490	1341.715	1081.147
413.496	28.477	1341.086	1080.467
414.511	28.421	1340.841	1079.844
415.526	28.468	1339.946	1079.304
416.540	28.477	1339.102	1078.582
417.555	28.460	1338.353	1077.783
418.569	28.459	1337.744	1077.190
419.584	28.564	1337.278	1077.339
420.599	28.518	1337.010	1076.758
421.613	87.242	1338.915	1409.620
422.628	87.244	1339.141	1409.741
