DTS Sentinel unit serial number:	SN413079Multiplexer serial number:	ORYXHardware model number:	OX4-SRSoftware version number:	ORYX F/W v4.00 Oryx Data Collector v3.7.2.0data status	okinstallation	princeton_trtdifferential loss correction	single-endedforward channel	channel 4reverse channel	N/Adate	2019/09/10time	20:11:11forward acquisition time	60.00reverse acquisition time	0.00gamma	496.2192k internal	0.2312k external	0.2312temperature offset calibration	0.9947default loss term (dB/km)	0.3790temperature slope calibration	1.0000multiplexer offset coefficient	1.0000multiplexer slope coefficient	1.0000fibre end	0.00T internal ref (°C)	32.41T ext. ref 1 (°C)	-0.31T ext. ref 2 (°C)	25.33length (m)	temperature (°C)	Stokes	anti-Stokes-747.200	545.872	-0.070	-0.171
-746.185	-29.932	-0.314	0.182
-745.171	-2.563	-0.254	0.180
-744.156	101.035	-0.265	0.312
-743.142	226.664	-0.121	-0.200
-742.127	515.434	-0.081	0.192
-741.112	-162.821	0.156	-0.008
-740.098	-39.046	-0.189	-0.101
-739.083	-136.955	0.232	0.027
-738.069	245.888	0.090	0.153
-737.054	-200.000	0.029	0.326
-736.039	414.445	-0.210	0.453
-735.025	-51.930	-0.133	0.063
-734.010	257.526	0.022	0.038
-732.996	-14.670	-0.277	0.181
-731.981	164.054	0.133	0.191
-730.966	218.498	-0.109	-0.176
-729.952	-200.000	-0.007	0.061
-728.937	160.649	-0.060	0.085
-727.923	800.000	0.047	0.140
-726.908	68.365	-0.196	-0.204
-725.894	-69.549	0.355	0.138
-724.879	-129.374	-0.041	0.006
-723.864	-71.569	0.147	-0.056
-722.850	411.108	0.054	0.116
-721.835	-179.862	0.266	-0.006
-720.821	-53.229	-0.149	-0.069
-719.806	-200.000	-0.322	0.001
-718.791	800.000	0.019	-0.073
-717.777	-200.000	0.027	0.269
-716.762	293.046	0.109	-0.202
-715.748	-99.876	-0.102	-0.026
-714.733	-200.000	0.002	-0.055
-713.718	-89.646	0.301	-0.089
-712.704	104.062	-0.158	-0.188
-711.689	-115.334	-0.392	0.075
-710.675	320.706	0.128	-0.247
-709.660	-200.000	-0.011	0.268
-708.645	151.813	0.162	-0.224
-707.631	498.256	0.187	-0.437
-706.616	-152.179	0.118	-0.009
-705.602	5.992	-0.220	-0.165
-704.587	-34.529	-0.091	0.050
-703.572	-43.840	-0.048	0.024
-702.558	98.587	-0.147	0.171
-701.543	-86.242	0.155	-0.048
-700.529	-134.317	-0.176	0.022
-699.514	338.812	-0.095	-0.187
-698.499	-27.566	0.579	-0.341
-697.485	-70.800	-0.424	-0.162
-696.470	800.000	-0.128	-0.361
-695.456	336.295	-0.132	0.260
-694.441	-64.793	0.074	0.031
-693.426	39.252	0.215	-0.195
-692.412	-84.397	-0.143	0.046
-691.397	115.560	0.091	0.112
-690.383	-200.000	-0.077	-0.381
-689.368	22.384	0.117	0.097
-688.354	-170.822	0.381	-0.013
-687.339	-200.000	-0.100	0.000
-686.324	-101.915	-0.307	-0.075
-685.310	800.000	0.051	-0.203
-684.295	-200.000	-0.002	0.222
-683.281	68.738	0.172	0.179
-682.266	-200.000	-0.011	0.143
-681.251	-200.000	0.034	0.252
-680.237	-200.000	-0.014	-0.128
-679.222	23.428	0.132	0.110
-678.208	-200.000	0.023	-0.219
-677.193	-84.410	-0.354	0.113
-676.178	28.341	0.046	0.039
-675.164	64.284	0.113	-0.115
-674.149	-139.923	0.481	-0.051
-673.135	30.876	-0.195	-0.169
-672.120	177.786	-0.110	-0.162
-671.105	76.336	0.283	0.304
-670.091	27.293	0.195	0.166
-669.076	149.281	-0.078	-0.107
-668.062	-6.260	0.286	-0.198
-667.047	-200.000	0.028	-0.201
-666.032	800.000	-0.028	-0.085
-665.018	-200.000	-0.073	0.365
-664.003	483.172	-0.119	-0.275
-662.989	-62.376	-0.197	0.083
-661.974	-200.000	-0.055	-0.274
-660.959	800.000	-0.072	0.270
-659.945	-200.000	-0.012	0.202
-658.930	800.000	0.050	0.208
-657.916	21.115	-0.078	0.064
-656.901	225.803	0.152	0.249
-655.886	128.018	-0.390	0.502
-654.872	186.307	-0.156	0.235
-653.857	4.717	0.221	0.165
-652.843	-172.029	-0.081	0.003
-651.828	-200.000	-0.057	-0.271
-650.814	-200.000	0.037	-0.171
-649.799	36.438	-0.064	0.057
-648.784	213.044	-0.170	0.271
-647.770	74.394	-0.034	0.037
-646.755	-86.738	-0.135	-0.042
-645.741	-78.626	0.076	-0.026
-644.726	-200.000	-0.016	0.138
-643.711	-124.472	-0.239	-0.038
-642.697	-82.211	0.316	0.104
-641.682	-83.227	0.186	-0.060
-640.668	-200.000	-0.010	-0.101
-639.653	-168.091	-0.210	0.008
-638.638	-200.000	-0.013	0.272
-637.624	55.788	0.161	0.157
-636.609	398.196	-0.151	-0.320
-635.595	-200.000	-0.005	-0.067
-634.580	-120.050	0.247	-0.043
-633.565	-200.000	0.040	0.214
-632.551	800.000	0.065	0.279
-631.536	34.445	-0.144	0.127
-630.522	285.762	-0.143	-0.260
-629.507	-24.158	0.198	0.119
-628.492	-115.771	-0.143	-0.027
-627.478	-200.000	-0.047	0.280
-626.463	-137.554	0.189	0.021
-625.449	120.818	-0.089	-0.111
-624.434	-149.073	-0.216	0.017
-623.419	-94.841	0.220	-0.060
-622.405	-200.000	-0.009	0.046
-621.390	-35.257	0.119	0.065
-620.376	-102.358	0.125	-0.030
-619.361	-200.000	-0.010	-0.197
-618.346	242.544	0.080	0.136
-617.332	62.848	-0.121	0.122
-616.317	243.057	-0.109	0.185
-615.303	-105.652	-0.230	-0.053
-614.288	-119.019	-0.243	-0.043
-613.273	800.000	0.072	0.222
-612.259	9.857	-0.191	-0.146
-611.244	402.340	-0.074	-0.156
-610.230	51.442	-0.056	0.054
-609.215	2.590	0.116	0.085
-608.201	-200.000	0.004	0.216
-607.186	3.995	-0.115	0.085
-606.171	-21.458	-0.126	-0.077
-605.157	-200.000	0.013	-0.074
-604.142	250.152	0.249	-0.427
-603.128	79.765	0.049	0.054
-602.113	536.649	0.127	-0.303
-601.098	25.245	-0.121	0.101
-600.084	-146.723	0.372	-0.032
-599.069	294.506	-0.027	-0.050
-598.055	3.836	0.194	0.143
-597.040	777.045	-0.098	-0.269
-596.025	-148.544	0.561	0.046
-595.011	-99.872	0.237	0.060
-593.996	611.920	-0.010	0.025
-592.982	-200.000	0.001	-0.021
-591.967	-106.869	-0.143	-0.032
-590.952	-124.198	0.265	0.042
-589.938	-200.000	0.012	-0.199
-588.923	-200.000	-0.031	-0.174
-587.909	-77.637	0.182	-0.063
-586.894	92.228	0.145	-0.165
-585.879	68.019	-0.131	-0.136
-584.865	-73.893	0.298	-0.109
-583.850	800.000	-0.071	-0.259
-582.836	577.408	-0.084	0.207
-581.821	-5.504	0.186	0.128
-580.806	-103.695	0.040	-0.010
-579.792	-200.000	0.006	-0.178
-578.777	1.474	-0.189	-0.137
-577.763	-200.000	0.000	0.028
-576.748	301.847	-0.044	0.083
-575.733	-87.248	0.095	-0.029
-574.719	20.105	0.111	-0.090
-573.704	550.168	-0.095	0.231
-572.690	62.694	0.194	-0.195
-571.675	8.644	0.192	-0.146
-570.661	35.589	-0.115	-0.102
-569.646	-107.279	0.343	-0.076
-568.631	-200.000	0.000	0.083
-567.617	301.388	0.094	-0.176
-566.602	-200.000	-0.036	-0.234
-565.588	-200.000	-0.035	-0.190
-564.573	333.484	-0.008	0.015
-563.558	800.000	-0.109	-0.353
-562.544	52.095	0.185	-0.177
-561.529	139.625	-0.065	0.086
-560.515	142.281	-0.047	-0.063
-559.500	80.564	0.101	-0.110
-558.485	-12.061	0.021	-0.014
-557.471	109.923	0.029	0.035
-556.456	-35.821	-0.162	0.088
-555.442	-15.720	-0.144	0.093
-554.427	144.897	-0.170	-0.229
-553.412	-22.409	0.156	0.095
-552.398	131.934	0.167	-0.217
-551.383	-35.551	-0.291	-0.159
-550.369	-62.995	-0.323	0.134
-549.354	-70.306	0.202	0.077
-548.339	-63.997	0.208	-0.086
-547.325	177.914	-0.049	-0.072
-546.310	73.636	0.206	-0.217
-545.296	35.752	-0.251	0.222
-544.281	800.000	-0.034	0.101
-543.266	-27.043	-0.122	0.072
-542.252	23.732	-0.159	0.131
-541.237	-3.318	0.248	-0.174
-540.223	46.240	-0.360	-0.336
-539.208	-143.518	-0.267	-0.026
-538.193	-118.985	0.436	0.077
-537.179	104.859	0.038	-0.045
-536.164	-65.964	0.092	-0.037
-535.150	-200.000	-0.003	-0.182
-534.135	-153.324	0.112	-0.008
-533.121	800.000	-0.030	0.128
-532.106	84.349	-0.219	-0.242
-531.091	-119.076	0.099	-0.017
-530.077	-104.581	-0.268	-0.062
-529.062	633.862	-0.017	-0.044
-528.048	-186.424	0.167	-0.002
-527.033	-80.311	-0.169	-0.057
-526.018	110.775	0.167	0.203
-525.004	-32.789	0.386	0.216
-523.989	473.869	0.127	-0.289
-522.975	-200.000	-0.016	0.117
-521.960	-200.000	0.004	0.121
-520.945	-89.779	-0.184	0.054
-519.931	800.000	0.024	-0.097
-518.916	30.450	-0.044	-0.038
-517.902	-200.000	0.078	-0.444
-516.887	-200.000	0.002	-0.024
-515.872	-120.852	-0.143	0.024
-514.858	-30.157	-0.086	0.049
-513.843	-64.457	0.086	-0.035
-512.829	-138.654	0.384	0.042
-511.814	315.639	0.134	-0.255
-510.799	41.274	0.189	-0.172
-509.785	96.800	-0.186	0.214
-508.770	23.023	-0.153	-0.126
-507.756	-200.000	0.027	-0.423
-506.741	-158.924	-0.233	0.013
-505.726	-37.297	-0.125	-0.067
-504.712	143.641	0.179	-0.240
-503.697	800.000	0.053	-0.179
-502.683	60.226	-0.146	-0.145
-501.668	800.000	0.077	-0.222
-500.653	154.581	0.259	-0.358
-499.639	25.570	-0.202	-0.169
-498.624	-111.328	0.118	0.024
-497.610	276.833	-0.244	-0.436
-496.595	344.147	0.082	0.161
-495.581	800.000	-0.034	-0.102
-494.566	29.570	0.196	-0.167
-493.551	215.945	-0.128	-0.204
-492.537	210.054	-0.147	-0.232
-491.522	-119.829	0.157	-0.027
-490.508	-11.401	-0.196	0.130
-489.493	800.000	0.024	0.075
-488.478	240.490	0.089	0.148
-487.464	-200.000	-0.015	0.272
-486.449	67.943	0.046	0.047
-485.435	800.000	-0.098	-0.307
-484.420	322.117	-0.163	0.312
-483.405	-200.000	-0.063	-0.497
-482.391	-59.471	-0.262	-0.113
-481.376	59.218	0.148	0.146
-480.362	-146.684	0.187	0.016
-479.347	372.344	-0.100	0.205
-478.332	338.631	0.110	-0.215
-477.318	-200.000	0.028	-0.221
-476.303	303.142	0.101	0.187
-475.289	-16.377	0.206	0.131
-474.274	-200.000	-0.016	-0.212
-473.259	-200.000	0.049	-0.322
-472.245	-200.000	0.046	-0.244
-471.230	18.249	0.246	0.197
-470.216	-125.872	-0.160	0.024
-469.201	-8.964	-0.101	0.068
-468.186	37.510	0.074	-0.066
-467.172	11.762	0.053	-0.041
-466.157	800.000	-0.043	-0.129
-465.143	257.796	-0.033	-0.057
-464.128	655.680	-0.076	-0.196
-463.113	517.406	-0.076	0.179
-462.099	604.322	-0.137	-0.342
-461.084	-148.059	-0.172	0.014
-460.070	159.620	0.107	-0.149
-459.055	-200.000	0.000	-0.400
-458.040	302.565	0.087	0.162
-457.026	-2.403	-0.134	0.094
-456.011	242.423	0.065	0.109
-454.997	720.805	0.096	0.257
-453.982	503.669	-0.073	-0.170
-452.968	-200.000	0.022	0.108
-451.953	-200.000	0.020	0.432
-450.938	599.865	-0.112	-0.278
-449.924	-200.000	0.010	0.082
-448.909	447.440	0.045	-0.099
-447.895	351.906	0.126	-0.251
-446.880	800.000	-0.061	-0.204
-445.865	-200.000	0.021	0.207
-444.851	229.245	0.157	0.256
-443.836	-200.000	-0.028	0.376
-442.822	179.763	-0.010	-0.015
-441.807	-142.646	0.320	-0.031
-440.792	-77.287	-0.263	-0.092
-439.778	131.971	-0.035	0.046
-438.763	315.356	0.122	0.231
-437.749	-200.000	0.017	-0.121
-436.734	282.428	-0.133	-0.240
-435.719	-200.000	0.002	0.098
-434.705	-71.101	0.128	0.048
-433.690	60.400	0.262	0.260
-432.676	-64.582	0.182	0.074
-431.661	-49.937	-0.242	-0.115
-430.646	-121.880	-0.389	0.064
-429.632	72.237	0.190	0.198
-428.617	131.579	-0.251	0.324
-427.603	-51.365	-0.042	0.020
-426.588	-40.227	-0.076	0.040
-425.573	-132.916	-0.109	-0.014
-424.559	8.338	0.172	0.130
-423.544	-22.518	-0.057	-0.034
-422.530	14.786	0.175	0.137
-421.515	154.947	-0.092	0.127
-420.500	358.864	0.043	-0.085
-419.486	691.451	0.053	-0.138
-418.471	-200.000	0.010	-0.287
-417.457	199.925	0.124	-0.191
-416.442	-200.000	0.001	-0.256
-415.428	-130.245	0.265	0.036
-414.413	-70.024	-0.134	-0.051
-413.398	-70.892	-0.207	-0.078
-412.384	-200.000	-0.030	-0.228
-411.369	585.695	0.127	-0.312
-410.355	800.000	-0.071	-0.267
-409.340	-200.000	0.017	-0.084
-408.325	-35.672	0.017	0.009
-407.311	-0.101	0.083	0.059
-406.296	-36.089	-0.212	0.115
-405.282	304.289	0.149	0.278
-404.267	81.861	-0.041	0.045
-403.252	-130.226	0.114	-0.016
-402.238	-200.000	-0.043	-0.200
-401.223	-29.442	0.247	-0.142
-400.209	208.737	-0.342	-0.535
-399.194	-127.029	0.222	-0.033
-398.179	225.357	0.094	0.153
-397.165	46.838	0.099	-0.092
-396.150	-9.121	0.284	0.190
-395.136	-200.000	0.020	0.158
-394.121	-58.649	-0.212	0.092
-393.106	570.752	0.096	0.233
-392.092	492.578	-0.095	0.219
-391.077	597.498	-0.053	-0.131
-390.063	-2.131	-0.052	0.036
-389.048	-101.096	-0.335	-0.082
-388.033	93.861	-0.009	-0.010
-387.019	-62.079	-0.314	0.131
-386.004	-43.744	0.102	-0.051
-384.990	-175.245	0.279	-0.008
-383.975	-57.669	-0.290	-0.127
-382.960	-6.423	0.273	-0.186
-381.946	45.003	-0.055	-0.051
-380.931	-2.007	-0.342	0.240
-379.917	-200.000	0.087	-0.448
-378.902	-75.385	0.076	0.027
-377.888	352.825	-0.049	-0.098
-376.873	620.635	-0.052	-0.130
-375.858	-84.356	-0.242	-0.077
-374.844	-200.000	-0.004	0.261
-373.829	186.612	0.161	-0.239
-372.815	231.257	0.156	-0.255
-371.800	305.077	-0.136	0.253
-370.785	71.178	-0.050	0.051
-369.771	-200.000	-0.039	0.317
-368.756	-200.000	0.027	0.212
-367.742	83.794	0.024	0.027
-366.727	194.797	-0.141	-0.215
-365.712	140.965	-0.182	0.240
-364.698	-65.571	-0.208	-0.083
-363.683	100.680	0.094	0.109
-362.669	-1.198	0.063	-0.045
-361.654	15.549	0.211	0.166
-360.639	-85.238	-0.079	-0.025
-359.625	-200.000	0.039	0.563
-358.610	-104.640	0.242	0.056
-357.596	-200.000	0.043	-0.378
-356.581	-72.619	0.019	-0.007
-355.566	274.262	0.102	-0.180
-354.552	142.005	-0.170	0.225
-353.537	800.000	-0.065	-0.280
-352.523	-53.143	0.113	-0.052
-351.508	-42.350	0.285	0.145
-350.493	-200.000	0.039	0.425
-349.479	-200.000	-0.065	0.302
-348.464	-200.000	-0.006	0.169
-347.450	266.375	0.067	-0.116
-346.435	-200.000	0.012	-0.090
-345.420	-200.000	0.019	-0.209
-344.406	33.257	0.198	-0.171
-343.391	-109.540	0.101	0.021
-342.377	13.240	-0.048	-0.037
-341.362	159.755	0.113	0.157
-340.348	497.441	0.142	0.327
-339.333	800.000	-0.029	0.086
-338.318	-200.000	0.016	0.170
-337.304	-11.267	0.275	0.181
-336.289	800.000	-0.069	0.201
-335.275	71.241	-0.058	-0.060
-334.260	-160.968	-0.082	0.004
-333.245	-131.678	-0.398	0.052
-332.231	-33.875	-0.122	0.067
-331.216	369.317	-0.058	0.117
-330.202	14.656	-0.272	0.212
-329.187	-11.399	-0.355	0.233
-328.172	35.409	-0.132	0.116
-327.158	190.463	0.151	0.227
-326.143	88.374	-0.333	0.369
-325.129	45.933	0.188	-0.173
-324.114	-88.613	-0.218	0.065
-323.099	78.234	0.163	0.173
-322.085	127.455	0.049	0.062
-321.070	-153.344	-0.167	-0.012
-320.056	-200.000	-0.012	0.099
-319.041	769.012	-0.041	-0.112
-318.026	-54.566	-0.096	-0.043
-317.012	242.599	-0.121	-0.203
-315.997	-78.251	-0.190	-0.065
-314.983	-200.000	-0.019	0.117
-313.968	800.000	0.042	0.132
-312.953	-22.210	-0.183	-0.110
-311.939	-84.222	0.056	-0.018
-310.924	214.030	0.160	0.253
-309.910	-200.000	-0.022	-0.171
-308.895	-200.000	-0.030	0.198
-307.880	-83.871	0.233	0.074
-306.866	-81.628	0.122	-0.040
-305.851	800.000	0.038	-0.114
-304.837	-200.000	0.035	-0.199
-303.822	800.000	-0.189	0.524
-302.807	183.939	-0.078	-0.115
-301.793	-112.147	-0.155	-0.031
-300.778	-95.207	-0.159	-0.043
-299.764	-104.816	-0.333	-0.076
-298.749	98.084	0.143	0.164
-297.735	-200.000	-0.064	0.284
-296.720	-60.302	0.169	0.072
-295.705	-62.224	0.269	-0.112
-294.691	-200.000	-0.040	0.197
-293.676	18.322	0.320	0.255
-292.662	-84.013	0.104	0.033
-291.647	-16.638	0.138	0.087
-290.632	60.869	-0.247	0.245
-289.618	-200.000	-0.031	-0.149
-288.603	13.584	0.088	0.068
-287.589	-27.677	0.060	0.035
-286.574	-200.000	-0.010	0.149
-285.559	233.729	-0.183	-0.300
-284.545	-47.964	0.243	0.117
-283.530	415.409	0.081	-0.172
-282.516	-104.855	-0.146	0.033
-281.501	124.607	0.059	-0.074
-280.486	-119.386	0.259	0.045
-279.472	-152.793	-0.145	0.010
-278.457	61.393	-0.072	0.071
-277.443	-200.000	-0.013	0.068
-276.428	-200.000	0.014	0.111
-275.413	208.505	-0.164	-0.256
-274.399	356.058	0.044	0.088
-273.384	767.583	0.108	-0.291
-272.370	153.704	0.083	-0.114
-271.355	-64.160	-0.296	-0.120
-270.340	-66.352	-0.400	-0.158
-269.326	-200.000	0.019	0.125
-268.311	79.117	0.279	-0.298
-267.297	208.688	-0.118	-0.184
-266.282	-44.097	-0.108	-0.054
-265.267	-106.525	0.117	0.026
-264.253	564.317	0.043	0.103
-263.238	800.000	-0.011	0.043
-262.224	-168.368	0.193	0.007
-261.209	326.730	-0.223	-0.425
-260.195	-100.585	0.287	0.071
-259.180	-200.000	0.195	-0.000
-258.165	21.498	0.189	0.153
-257.151	292.832	-0.118	-0.213
-256.136	-200.000	0.041	-0.251
-255.122	-200.000	0.004	0.201
-254.107	800.000	-0.023	-0.078
-253.092	-13.400	0.366	0.236
-252.078	-54.814	-0.205	0.092
-251.063	-89.770	0.302	0.088
-250.049	191.600	0.114	0.171
-249.034	127.859	-0.152	-0.192
-248.019	94.784	-0.031	0.035
-247.005	-86.664	-0.115	-0.035
-245.990	106.323	-0.073	0.086
-244.976	-200.000	-0.317	-0.001
-243.961	139.135	-0.051	-0.067
-242.946	728.314	-0.038	-0.101
-241.932	38.367	0.282	-0.250
-240.917	75.068	0.108	0.114
-239.903	203.106	-0.106	-0.164
-238.888	318.821	0.040	0.075
-237.873	-86.094	0.276	0.085
-236.859	86.229	0.086	0.094
-235.844	246.894	-0.178	0.299
-234.830	800.000	-0.059	0.214
-233.815	3.676	-0.117	-0.085
-232.800	37.987	0.349	-0.308
-231.786	741.985	-0.032	0.085
-230.771	-126.470	-0.418	0.062
-229.757	-200.000	-0.012	0.309
-228.742	-162.988	0.154	0.007
-227.727	800.000	-0.056	0.155
-226.713	19.192	0.320	0.255
-225.698	209.835	-0.080	0.125
-224.684	-200.000	0.073	0.369
-223.669	-102.226	0.036	0.009
-222.655	-200.000	0.008	-0.163
-221.640	-200.000	0.053	0.242
-220.625	-14.049	-0.374	-0.240
-219.611	-200.000	0.010	0.000
-218.596	-78.530	-0.174	0.059
-217.582	95.250	-0.079	0.089
-216.567	41.431	-0.039	0.035
-215.552	-73.937	0.294	0.106
-214.538	-179.912	0.084	0.002
-213.523	-40.986	0.154	-0.079
-212.509	-200.000	-0.017	-0.260
-211.494	-200.000	0.040	-0.231
-210.479	-200.000	0.019	-0.209
-209.465	-200.000	-0.001	0.330
-208.450	124.692	-0.112	0.141
-207.436	522.532	-0.199	0.465
-206.421	-163.181	-0.236	-0.011
-205.406	800.000	-0.017	0.054
-204.392	-52.632	-0.210	-0.096
-203.377	464.502	0.045	-0.099
-202.363	150.257	0.033	0.045
-201.348	800.000	-0.065	-0.189
-200.333	-146.813	-0.367	0.031
-199.319	800.000	-0.086	0.261
-198.304	-44.393	0.069	0.034
-197.290	-200.000	0.000	-0.046
-196.275	276.802	0.071	-0.126
-195.260	-105.417	-0.114	0.026
-194.246	-90.764	0.138	-0.039
-193.231	-200.000	0.042	0.323
-192.217	344.296	0.129	-0.251
-191.202	112.984	-0.253	0.304
-190.187	-64.903	0.096	0.039
-189.173	119.068	-0.217	0.266
-188.158	-110.274	-0.265	-0.055
-187.144	60.273	-0.101	-0.099
-186.129	-102.858	-0.281	-0.066
-185.114	-200.000	0.007	0.090
-184.100	111.250	0.234	0.279
-183.085	225.717	0.127	-0.204
-182.071	-71.472	0.091	-0.034
-181.056	37.113	0.090	-0.079
-180.042	-110.499	0.079	0.016
-179.027	-99.401	0.120	0.030
-178.012	-85.685	0.137	0.042
-176.998	-70.127	-0.272	-0.103
-175.983	-200.000	-0.049	0.244
-174.969	-200.000	-0.009	-0.246
-173.954	19.605	0.222	-0.178
-172.939	-200.000	-0.352	0.000
-171.925	-72.024	-0.183	-0.067
-170.910	721.225	0.071	-0.187
-169.896	130.415	0.230	0.292
-168.881	-166.743	0.335	0.014
-167.866	-46.481	-0.094	0.046
-166.852	-63.331	0.092	0.038
-165.837	-200.000	-0.024	0.307
-164.823	-60.897	0.322	-0.135
-163.808	-103.554	-0.352	-0.082
-162.793	72.151	-0.092	0.095
-161.779	215.701	-0.124	0.195
-160.764	79.723	0.051	-0.054
-159.750	104.106	-0.292	0.341
-158.735	800.000	0.176	0.509
-157.720	165.914	-0.097	-0.136
-156.706	521.574	0.094	0.218
-155.691	-55.961	-0.131	0.058
-154.677	285.901	0.087	0.155
-153.662	88.804	-0.107	-0.118
-152.647	-200.000	-0.079	0.363
-151.633	153.675	0.014	0.019
-150.618	-132.330	0.404	-0.052
-149.604	-39.128	0.187	0.097
-148.589	64.013	-0.129	0.129
-147.574	-17.073	-0.057	-0.036
-146.560	167.979	-0.029	-0.041
-145.545	140.010	0.159	-0.208
-144.531	-98.333	0.072	-0.018
-143.516	80.179	0.262	-0.280
-142.502	-47.165	0.116	0.056
-141.487	-72.051	-0.225	-0.083
-140.472	25.444	-0.032	0.026
-139.458	181.223	0.075	0.109
-138.443	-153.483	0.166	0.011
-137.429	-68.847	-0.182	0.070
-136.414	35.752	-0.247	0.215
-135.399	800.000	0.061	0.218
-134.385	52.590	0.220	-0.208
-133.370	5.317	0.133	0.098
-132.356	-148.794	-0.219	0.018
-131.341	14.450	0.124	-0.096
-130.326	107.888	-0.098	-0.115
-129.312	277.484	0.146	-0.258
-128.297	162.218	0.210	0.292
-127.283	-86.183	0.329	0.100
-126.268	11.871	-0.120	-0.092
-125.253	232.980	0.085	0.139
-124.239	33.873	-0.172	-0.148
-123.224	-200.000	0.011	0.200
-122.210	596.096	0.081	-0.199
-121.195	800.000	-0.018	0.054
-120.180	131.210	0.197	-0.251
-119.166	800.000	-0.060	-0.242
-118.151	-138.547	0.241	0.026
-117.137	-123.086	0.107	0.017
-116.122	-200.000	-0.008	0.148
-115.107	-85.064	-0.114	0.035
-114.093	-14.472	0.208	0.133
-113.078	35.213	0.036	0.032
-112.064	-71.626	0.392	-0.145
-111.049	-63.157	-0.272	-0.111
-110.034	-200.000	-0.006	0.051
-109.020	-200.000	-0.005	0.121
-108.005	35.422	-0.307	-0.267
-106.991	416.296	0.068	-0.143
-105.976	74.120	0.044	-0.045
-104.962	-200.000	-0.019	-0.127
-103.947	-137.101	-0.274	0.031
-102.932	-49.868	-0.083	-0.039
-101.918	-64.900	0.181	0.073
-100.903	-83.716	-0.378	0.119
-99.889	-1.728	0.236	0.164
-98.874	-146.248	-0.019	-0.002
-97.859	18.903	0.161	-0.127
-96.845	173.928	-0.115	-0.164
-95.830	31.802	0.088	0.075
-94.816	455.801	-0.126	-0.277
-93.801	304.910	0.106	0.196
-92.786	504.108	-0.205	0.469
-91.772	398.842	0.063	0.130
-90.757	-200.000	0.055	0.429
-89.743	-200.000	-0.031	0.287
-88.728	800.000	0.056	-0.166
-87.713	-150.567	-0.175	-0.013
-86.699	189.960	-0.112	0.167
-85.684	-15.501	0.341	0.216
-84.670	-148.220	-0.374	-0.031
-83.655	-20.182	0.178	0.108
-82.640	800.000	-0.080	0.264
-81.626	498.361	-0.090	-0.204
-80.611	-10.235	0.162	-0.106
-79.597	56.818	-0.022	0.021
-78.582	-200.000	-0.045	0.265
-77.567	-92.210	0.188	0.052
-76.553	-17.789	0.076	-0.047
-75.538	-47.320	0.112	-0.054
-74.524	35.179	-0.188	-0.163
-73.509	149.732	0.094	0.126
-72.494	-70.133	0.249	0.094
-71.480	-200.000	0.012	-0.074
-70.465	-148.996	0.384	-0.031
-69.451	33.647	-0.271	0.233
-68.436	340.975	-0.064	-0.124
-67.422	136.695	-0.126	0.163
-66.407	-55.894	0.190	-0.084
-65.392	379.299	-0.076	0.153
-64.378	106.248	-0.101	-0.118
-63.363	50.601	-0.081	0.076
-62.349	-200.000	-0.045	0.262
-61.334	136.998	-0.864	-1.116
-60.319	-62.333	0.367	0.151
-59.305	-200.000	-0.238	-1.151
-58.290	451.908	0.543	1.185
-57.276	751.951	0.484	1.290
-56.261	-200.000	99.114	599.490
-55.246	593.399	1412.731	3449.190
-54.232	186.036	2615.076	3841.477
-53.217	106.750	2315.488	2714.510
-52.203	39.027	2067.636	1825.759
-51.188	34.275	1982.293	1707.846
-50.173	32.672	1964.211	1677.940
-49.159	47.104	2015.600	1852.392
-48.144	48.517	2032.994	1881.059
-47.130	34.738	1993.545	1721.441
-46.115	32.486	1982.485	1691.614
-45.100	32.374	1979.858	1688.302
-44.086	32.240	1978.084	1685.521
-43.071	32.183	1975.199	1682.485
-42.057	32.177	1973.256	1680.710
-41.042	32.249	1971.516	1679.803
-40.027	32.288	1969.109	1678.031
-39.013	32.275	1967.593	1676.562
-37.998	32.285	1965.724	1674.986
-36.984	32.339	1963.749	1673.720
-35.969	32.421	1961.480	1672.453
-34.954	32.360	1960.215	1670.760
-33.940	32.379	1958.830	1669.684
-32.925	32.419	1957.392	1668.745
-31.911	32.438	1955.606	1667.323
-30.896	32.489	1954.195	1666.506
-29.881	32.463	1952.764	1664.990
-28.867	32.379	1951.637	1663.221
-27.852	32.484	1949.257	1662.052
-26.838	32.460	1947.543	1660.322
-25.823	32.438	1945.551	1658.357
-24.809	32.503	1943.155	1656.824
-23.794	32.389	1942.092	1654.848
-22.779	32.410	1939.693	1652.926
-21.765	32.491	1937.861	1652.010
-20.750	32.382	1937.099	1650.333
-19.736	32.419	1935.265	1649.029
-18.721	32.378	1934.065	1647.586
-17.706	32.379	1932.541	1646.228
-16.692	32.475	1930.728	1645.457
-15.677	32.398	1928.601	1642.907
-14.663	32.422	1927.489	1642.103
-13.648	32.390	1926.111	1640.584
-12.633	32.412	1924.790	1639.593
-11.619	32.379	1924.265	1638.794
-10.604	32.420	1922.232	1637.349
-9.590	32.427	1920.843	1636.167
-8.575	32.401	1919.056	1634.348
-7.560	32.456	1917.696	1633.608
-6.546	32.448	1916.821	1632.725
-5.531	32.449	1915.662	1631.680
-4.517	32.414	1914.260	1630.118
-3.502	32.397	1913.312	1629.096
-2.487	32.390	1911.873	1627.754
-1.473	32.417	1911.122	1627.278
-0.458	32.400	1906.248	1622.917
0.556	29.684	1886.131	1593.378
1.571	25.227	1865.992	1538.118
2.586	21.027	1888.292	1519.843
3.600	19.995	1923.775	1539.095
4.615	19.782	1920.093	1534.127
5.629	15.151	1820.780	1415.599
6.644	5.647	1700.735	1246.806
7.659	0.311	1661.912	1176.653
8.673	-0.256	1658.494	1169.714
9.688	-0.304	1657.303	1168.393
10.702	-0.309	1655.869	1167.237
11.717	-0.391	1652.402	1164.060
12.731	-0.045	1651.555	1166.044
13.746	6.595	1667.037	1228.733
14.761	15.792	1688.329	1316.591
15.775	19.439	1694.313	1349.726
16.790	19.628	1693.404	1350.363
17.804	19.748	1692.762	1350.670
18.819	19.742	1691.653	1349.618
19.834	19.915	1691.287	1350.557
20.848	20.080	1690.808	1351.341
21.863	20.118	1690.185	1351.020
22.877	20.042	1689.077	1349.426
23.892	20.095	1688.051	1348.898
24.907	20.168	1686.947	1348.463
25.921	20.078	1686.276	1347.104
26.936	20.120	1684.936	1346.245
27.950	20.110	1683.776	1345.119
28.965	20.050	1683.780	1344.537
29.980	20.122	1682.654	1344.081
30.994	20.058	1681.367	1342.437
32.009	20.093	1679.774	1341.316
33.023	20.027	1679.059	1340.117
34.038	20.135	1678.091	1340.057
35.053	20.041	1677.254	1338.545
36.067	20.082	1676.252	1337.944
37.082	20.111	1674.912	1336.979
38.096	20.102	1674.139	1336.177
39.111	20.109	1672.727	1334.984
40.126	20.128	1672.362	1334.720
41.140	20.125	1671.605	1333.977
42.155	20.141	1670.082	1332.764
43.169	20.076	1669.272	1331.505
44.184	20.089	1668.222	1330.646
45.199	20.016	1667.297	1329.229
46.213	19.964	1665.913	1327.614
47.228	20.099	1664.651	1327.520
48.242	20.061	1663.717	1326.368
49.257	20.076	1662.510	1325.403
50.271	20.093	1660.700	1323.977
51.286	20.090	1659.623	1322.976
52.301	20.122	1658.103	1321.893
53.315	20.021	1657.690	1320.675
54.330	20.077	1655.672	1319.377
55.344	20.119	1653.881	1318.151
56.359	20.108	1652.854	1317.134
57.374	20.043	1651.835	1315.709
58.388	20.096	1650.623	1315.034
59.403	20.084	1649.028	1313.551
60.417	20.081	1648.543	1313.025
61.432	20.067	1647.265	1311.791
62.447	20.079	1645.789	1310.584
63.461	20.104	1644.830	1309.893
64.476	20.127	1643.802	1309.134
65.490	20.055	1642.831	1307.702
66.505	20.061	1641.864	1306.865
67.520	20.069	1640.995	1306.114
68.534	20.166	1639.587	1305.610
69.549	20.169	1638.715	1304.825
70.563	20.166	1637.263	1303.530
71.578	20.155	1636.327	1302.584
72.593	20.131	1635.410	1301.558
73.607	20.097	1634.764	1300.674
74.622	20.109	1633.323	1299.500
75.636	20.184	1632.569	1299.351
76.651	20.149	1631.590	1298.197
77.666	20.057	1631.205	1297.082
78.680	20.148	1629.833	1296.560
79.695	20.111	1628.726	1295.290
80.709	20.132	1628.127	1294.853
81.724	20.153	1627.080	1294.062
82.739	20.081	1626.572	1293.003
83.753	20.121	1624.892	1291.854
84.768	20.230	1623.989	1291.835
85.782	20.092	1623.603	1290.389
86.797	20.182	1622.061	1289.716
87.812	20.187	1620.888	1288.708
88.826	20.128	1620.418	1287.778
89.841	20.157	1619.412	1287.078
90.855	20.167	1618.193	1286.076
91.870	20.180	1616.703	1284.868
92.884	20.216	1615.895	1284.384
93.899	20.171	1615.179	1283.370
94.914	20.246	1613.755	1282.679
95.928	20.210	1612.493	1281.296
96.943	20.227	1611.252	1280.320
97.957	20.120	1610.029	1278.444
98.972	20.160	1608.713	1277.579
99.987	20.237	1607.164	1276.806
101.001	20.201	1605.762	1275.312
102.016	20.232	1604.082	1274.094
103.030	20.148	1602.504	1272.116
104.045	20.188	1601.433	1271.441
105.060	20.210	1600.012	1270.360
106.074	20.140	1599.018	1268.952
107.089	20.159	1597.669	1267.906
108.103	20.141	1596.576	1266.795
109.118	20.166	1595.616	1266.101
110.133	20.234	1594.093	1265.278
111.147	20.186	1592.866	1263.842
112.162	20.163	1591.745	1262.671
113.176	20.296	1589.857	1262.036
114.191	20.203	1588.507	1260.172
115.206	20.269	1587.316	1259.596
116.220	20.264	1586.047	1258.440
117.235	20.277	1585.011	1257.601
118.249	20.276	1583.468	1256.259
119.264	20.255	1582.544	1255.263
120.279	20.213	1581.446	1253.974
121.293	20.261	1579.776	1252.889
122.308	20.302	1578.521	1252.079
123.322	20.297	1576.956	1250.691
124.337	20.258	1575.896	1249.455
125.352	20.295	1574.539	1248.540
126.366	20.266	1573.794	1247.626
127.381	20.415	1572.650	1247.682
128.395	20.300	1572.114	1246.318
129.410	20.232	1570.683	1244.585
130.424	20.359	1568.778	1243.876
131.439	20.277	1568.065	1242.618
132.454	20.307	1566.778	1241.697
133.468	20.294	1565.369	1240.380
134.483	20.357	1563.686	1239.390
135.497	20.317	1562.675	1238.194
136.512	20.265	1561.776	1236.996
137.527	20.268	1559.816	1235.359
138.541	20.321	1558.919	1234.915
139.556	20.260	1557.773	1233.463
140.570	20.284	1556.450	1232.476
141.585	20.325	1555.065	1231.563
142.600	20.330	1553.749	1230.447
143.614	20.312	1552.380	1229.130
144.629	20.246	1551.529	1227.876
145.643	20.312	1549.905	1226.952
146.658	20.234	1548.930	1225.519
147.673	20.186	1547.463	1223.909
148.687	20.288	1545.977	1223.344
149.702	20.237	1545.000	1222.109
150.716	20.225	1543.509	1220.732
151.731	20.318	1542.125	1220.184
152.746	20.333	1540.992	1219.290
153.760	20.282	1539.910	1217.961
154.775	20.367	1538.441	1217.288
155.789	20.357	1537.762	1216.572
156.804	20.354	1536.185	1215.197
157.819	20.336	1535.286	1214.256
158.833	20.334	1534.133	1213.222
159.848	20.294	1533.475	1212.312
160.862	20.291	1532.466	1211.390
161.877	20.444	1530.999	1211.192
162.892	20.384	1531.061	1210.710
163.906	20.262	1529.528	1208.541
164.921	20.417	1528.237	1208.495
165.935	20.397	1527.697	1207.824
166.950	20.436	1525.945	1206.597
167.964	20.418	1524.906	1205.551
168.979	20.349	1524.462	1204.613
169.994	20.441	1523.462	1204.353
171.008	20.511	1522.060	1203.624
172.023	20.477	1521.470	1202.816
173.037	20.436	1520.653	1201.774
174.052	20.384	1519.529	1200.424
175.067	20.396	1518.191	1199.342
176.081	20.474	1517.187	1198.980
177.096	20.401	1516.696	1197.984
178.110	20.400	1515.425	1196.871
179.125	20.403	1513.963	1195.625
180.140	20.432	1513.150	1195.080
181.154	20.674	1512.105	1195.813
182.169	20.460	1511.289	1193.588
183.183	20.485	1510.388	1192.948
184.198	20.461	1509.284	1191.804
185.213	20.396	1508.488	1190.626
186.227	20.489	1507.330	1190.238
187.242	20.513	1506.845	1189.915
188.256	20.559	1505.616	1189.158
189.271	20.513	1504.659	1187.982
190.286	20.536	1503.946	1187.466
191.300	20.561	1502.956	1186.751
192.315	20.569	1502.146	1186.062
193.329	20.499	1501.542	1185.000
194.344	20.585	1500.348	1184.541
195.359	20.513	1499.905	1183.597
196.373	20.587	1498.823	1183.145
197.388	20.540	1497.739	1181.860
198.402	20.450	1496.449	1180.130
199.417	20.493	1495.155	1179.293
200.432	20.418	1495.289	1178.788
201.446	20.519	1494.311	1178.595
202.461	20.572	1493.192	1177.970
203.475	20.577	1492.340	1177.226
204.490	20.594	1491.329	1176.443
205.504	20.570	1490.366	1175.416
206.519	20.474	1489.912	1174.302
207.534	20.434	1489.011	1173.218
208.548	20.591	1487.715	1173.152
209.563	20.570	1486.940	1172.300
210.577	20.651	1486.115	1172.090
211.592	20.544	1485.441	1170.732
212.607	20.491	1484.899	1169.844
213.621	20.592	1483.918	1169.651
214.636	20.664	1483.110	1169.392
215.650	20.622	1482.319	1168.386
216.665	20.627	1481.206	1167.433
217.680	20.604	1480.536	1166.650
218.694	20.565	1480.274	1166.078
219.709	20.635	1478.949	1165.403
220.723	20.714	1477.760	1164.892
221.738	20.624	1477.499	1163.980
222.753	20.604	1476.992	1163.343
223.767	20.580	1475.652	1162.027
224.782	20.557	1475.084	1161.319
225.796	20.600	1474.102	1160.733
226.811	20.686	1473.109	1160.421
227.826	20.801	1472.189	1160.362
228.840	20.780	1471.568	1159.628
229.855	20.714	1470.459	1158.212
230.869	20.657	1469.907	1157.297
231.884	20.644	1469.092	1156.465
232.899	20.722	1468.278	1156.239
233.913	20.716	1467.009	1155.100
234.928	20.698	1466.191	1154.233
235.942	20.696	1464.837	1153.055
236.957	20.745	1463.994	1152.613
237.972	20.731	1462.819	1151.487
238.986	20.675	1462.030	1150.400
240.001	20.734	1461.128	1149.977
241.015	20.824	1459.918	1149.516
242.030	20.783	1459.366	1148.710
243.045	20.828	1458.158	1147.950
244.059	20.872	1457.130	1147.330
245.074	20.947	1456.241	1147.023
246.088	20.862	1455.939	1146.126
247.103	20.914	1455.220	1145.800
248.117	20.959	1454.387	1145.338
249.132	20.903	1453.758	1144.370
250.147	20.796	1452.802	1142.815
251.161	20.903	1452.166	1142.921
252.176	21.001	1451.527	1142.959
253.190	20.981	1450.364	1141.810
254.205	20.936	1449.753	1140.933
255.220	20.991	1448.820	1140.458
256.234	20.966	1448.308	1139.790
257.249	20.959	1447.332	1138.874
258.263	21.014	1446.663	1138.608
259.278	21.007	1445.724	1137.719
260.293	20.945	1444.853	1136.530
261.307	20.936	1444.448	1136.054
262.322	21.039	1443.523	1135.896
263.336	21.088	1442.678	1135.446
264.351	21.004	1441.650	1133.994
265.366	21.100	1440.358	1133.497
266.380	21.100	1439.747	1132.920
267.395	20.995	1439.138	1131.659
268.409	21.114	1438.542	1131.860
269.424	20.951	1437.597	1129.963
270.439	21.001	1436.181	1129.072
271.453	21.016	1435.499	1128.530
272.468	21.108	1434.903	1128.561
273.482	21.075	1434.427	1127.874
274.497	21.002	1433.256	1126.379
275.512	21.082	1432.488	1126.194
276.526	21.085	1431.976	1125.708
277.541	20.976	1431.194	1124.295
278.555	21.128	1430.224	1124.411
279.570	21.112	1429.255	1123.446
280.585	21.096	1428.759	1122.857
281.599	21.130	1427.617	1122.074
282.614	21.120	1426.465	1121.004
283.628	21.145	1425.222	1120.090
284.643	21.129	1424.751	1119.522
285.657	21.183	1423.850	1119.058
286.672	21.129	1423.017	1117.959
287.687	21.161	1421.869	1117.163
288.701	21.073	1421.739	1116.401
289.716	21.201	1420.817	1116.396
290.730	21.259	1419.889	1115.939
291.745	21.196	1419.059	1114.782
292.760	21.217	1418.072	1114.044
293.774	21.343	1416.714	1113.679
294.789	21.297	1415.629	1112.434
295.803	21.271	1415.414	1112.005
296.818	21.352	1414.749	1111.900
297.833	21.339	1413.539	1110.768
298.847	21.256	1413.278	1109.937
299.862	21.322	1412.463	1109.617
300.876	21.240	1411.714	1108.410
301.891	21.314	1410.466	1107.804
302.906	21.349	1409.813	1107.413
303.920	21.289	1408.924	1106.233
304.935	21.310	1408.734	1106.118
305.949	21.472	1407.574	1106.136
306.964	21.386	1406.782	1104.876
307.979	21.361	1405.709	1103.775
308.993	21.500	1404.673	1103.739
310.008	21.393	1404.322	1102.689
311.022	21.541	1403.027	1102.508
312.037	21.392	1401.943	1100.623
313.052	21.427	1401.518	1100.410
314.066	21.374	1400.409	1099.112
315.081	21.522	1399.487	1099.220
316.095	21.434	1398.854	1098.072
317.110	21.471	1397.478	1097.130
318.125	21.457	1397.121	1096.665
319.139	21.526	1396.023	1096.137
320.154	21.578	1395.329	1095.818
321.168	21.504	1394.197	1094.370
322.183	21.529	1393.549	1093.924
323.197	21.581	1392.557	1093.373
324.212	21.501	1391.557	1091.992
325.227	21.388	1391.560	1091.188
326.241	21.415	1390.478	1090.411
327.256	21.518	1389.386	1090.104
328.270	21.627	1388.676	1090.129
329.285	21.609	1387.899	1089.308
330.300	21.631	1387.013	1088.652
331.314	21.631	1386.311	1088.007
332.329	21.719	1385.148	1087.545
333.343	21.701	1384.545	1086.865
334.358	21.665	1384.395	1086.426
335.373	21.672	1383.523	1085.687
336.387	21.678	1382.338	1084.702
337.402	21.660	1381.899	1084.145
338.416	21.662	1381.543	1083.782
339.431	21.713	1380.460	1083.152
340.446	21.753	1380.060	1082.994
341.460	21.743	1379.188	1082.151
342.475	21.684	1378.064	1080.809
343.489	21.686	1377.160	1080.017
344.504	21.934	1376.000	1080.540
345.519	21.819	1375.044	1078.983
346.533	21.788	1374.265	1078.088
347.548	21.782	1373.333	1077.222
348.562	21.742	1372.757	1076.433
349.577	21.736	1372.467	1076.069
350.592	21.885	1371.251	1075.937
351.606	21.860	1370.257	1074.908
352.621	21.803	1369.504	1073.872
353.635	21.764	1368.567	1072.802
354.650	21.878	1367.777	1072.786
355.665	21.812	1367.072	1071.735
356.679	21.823	1365.866	1070.765
357.694	21.934	1364.696	1070.427
358.708	21.915	1363.548	1069.317
359.723	21.966	1362.675	1068.848
360.738	21.875	1361.744	1067.468
361.752	21.892	1360.327	1066.369
362.767	21.935	1359.232	1065.676
363.781	21.970	1358.407	1065.147
364.796	21.902	1357.992	1064.314
365.810	21.917	1357.296	1063.770
366.825	21.959	1356.977	1063.680
367.840	21.987	1355.770	1062.806
368.854	22.017	1355.439	1062.635
369.869	21.966	1355.039	1061.918
370.883	22.098	1353.921	1061.749
371.898	21.994	1353.397	1060.612
372.913	22.165	1352.455	1060.812
373.927	21.951	1351.989	1059.062
374.942	22.036	1351.372	1058.998
375.956	22.089	1350.417	1058.473
376.971	22.102	1349.237	1057.538
377.986	22.032	1348.561	1056.491
379.000	21.986	1348.221	1055.856
380.015	22.112	1347.413	1055.885
381.029	22.125	1346.564	1055.203
382.044	22.161	1345.790	1054.721
383.059	22.216	1345.201	1054.493
384.073	22.220	1344.619	1053.970
385.088	22.204	1344.148	1053.413
386.102	22.172	1343.389	1052.530
387.117	22.230	1342.882	1052.389
388.132	22.233	1341.905	1051.546
389.146	22.207	1341.001	1050.589
390.161	22.198	1340.627	1050.150
391.175	22.232	1339.865	1049.667
392.190	22.229	1339.318	1049.123
393.205	22.301	1337.829	1048.294
394.219	22.225	1337.092	1047.173
395.234	22.213	1336.115	1046.240
396.248	22.310	1334.510	1045.472
397.263	22.370	1333.625	1045.041
398.278	22.329	1332.972	1044.195
399.292	22.389	1331.832	1043.563
400.307	22.342	1330.928	1042.481
401.321	22.422	1329.908	1042.068
402.336	22.466	1328.984	1041.512
403.350	22.471	1328.153	1040.795
404.365	22.337	1327.138	1039.117
405.380	22.411	1326.511	1038.975
406.394	22.369	1325.807	1038.078
407.409	22.477	1324.691	1037.753
408.423	22.469	1324.453	1037.429
409.438	22.627	1323.393	1037.432
410.453	22.526	1322.942	1036.394
411.467	22.492	1322.578	1035.817
412.482	22.533	1321.588	1035.190
413.496	22.659	1320.591	1035.057
414.511	22.464	1320.274	1033.574
415.526	22.540	1319.154	1033.049
416.540	22.531	1318.697	1032.552
417.555	22.497	1318.017	1031.728
418.569	22.515	1317.291	1031.172
419.584	22.536	1316.874	1030.876
420.599	22.549	1316.211	1030.345
421.613	138.544	1429.007	1794.700
422.628	134.729	1445.395	1794.774
