DTS Sentinel unit serial number:	SN413079Multiplexer serial number:	ORYXHardware model number:	OX4-SRSoftware version number:	ORYX F/W v4.00 Oryx Data Collector v3.7.2.0data status	okinstallation	princeton_trtdifferential loss correction	single-endedforward channel	channel 4reverse channel	N/Adate	2019/09/12time	00:59:11forward acquisition time	60.00reverse acquisition time	0.00gamma	496.2192k internal	0.2308k external	0.2308temperature offset calibration	1.0090default loss term (dB/km)	0.3790temperature slope calibration	1.0000multiplexer offset coefficient	1.0000multiplexer slope coefficient	1.0000fibre end	0.00T internal ref (°C)	33.19T ext. ref 1 (°C)	2.08T ext. ref 2 (°C)	27.35length (m)	temperature (°C)	Stokes	anti-Stokes-747.200	10.068	-0.106	0.082
-746.185	-200.000	-0.005	0.167
-745.171	-88.530	0.061	0.018
-744.156	-200.000	0.016	0.135
-743.142	-62.648	-0.178	-0.075
-742.127	800.000	-0.210	0.666
-741.112	143.532	0.075	-0.102
-740.098	145.036	0.184	-0.250
-739.083	-12.785	-0.286	-0.190
-738.069	28.655	-0.293	0.252
-737.054	-125.737	0.348	0.053
-736.039	421.756	-0.032	0.069
-735.025	-84.148	-0.084	0.027
-734.010	-52.587	-0.178	-0.083
-732.996	0.973	-0.294	-0.214
-731.981	-59.346	-0.224	0.098
-730.966	-65.481	0.137	0.056
-729.952	106.234	-0.010	0.012
-728.937	-200.000	-0.014	-0.439
-727.923	92.666	0.331	0.380
-726.908	430.171	0.081	-0.179
-725.894	800.000	-0.024	-0.069
-724.879	-135.755	0.168	-0.020
-723.864	349.562	-0.062	0.124
-722.850	383.406	-0.209	0.437
-721.835	-200.000	0.025	0.231
-720.821	88.255	0.217	0.244
-719.806	-188.345	-0.354	-0.005
-718.791	118.433	-0.132	-0.165
-717.777	-84.454	-0.257	0.082
-716.762	-200.000	0.004	0.144
-715.748	311.463	-0.059	-0.113
-714.733	-200.000	0.033	-0.256
-713.718	-137.578	-0.097	0.011
-712.704	-83.153	-0.165	-0.054
-711.689	794.220	0.088	-0.246
-710.675	85.827	-0.147	-0.164
-709.660	65.841	-0.169	-0.174
-708.645	1.662	-0.280	-0.204
-707.631	-149.307	-0.153	0.012
-706.616	-71.213	0.405	0.154
-705.602	288.015	-0.187	0.343
-704.587	33.736	-0.215	-0.190
-703.572	800.000	-0.027	0.086
-702.558	-41.461	-0.268	-0.140
-701.543	579.119	0.135	-0.336
-700.529	-150.651	-0.169	-0.013
-699.514	-152.393	0.389	0.028
-698.499	-200.000	-0.025	-0.187
-697.485	-113.033	0.182	0.036
-696.470	800.000	-0.018	0.078
-695.456	83.032	-0.209	0.231
-694.441	482.643	-0.111	0.255
-693.426	39.926	-0.063	0.058
-692.412	-74.020	-0.188	-0.069
-691.397	203.849	0.099	-0.155
-690.383	-81.538	0.210	0.070
-689.368	-139.127	-0.322	0.035
-688.354	541.149	0.157	0.379
-687.339	-200.000	-0.006	0.182
-686.324	800.000	0.035	0.146
-685.310	55.274	0.169	-0.165
-684.295	20.833	0.218	-0.179
-683.281	-19.162	0.224	-0.141
-682.266	-86.082	-0.085	-0.027
-681.251	-50.666	0.249	-0.119
-680.237	800.000	-0.038	0.107
-679.222	800.000	-0.065	0.238
-678.208	800.000	-0.121	-0.381
-677.193	-33.736	0.078	0.044
-676.178	291.908	0.156	0.289
-675.164	325.032	0.037	-0.071
-674.149	27.252	-0.169	0.144
-673.135	177.490	0.116	0.172
-672.120	-104.310	0.154	0.036
-671.105	199.440	-0.188	-0.291
-670.091	800.000	0.060	0.183
-669.076	377.388	-0.043	-0.089
-668.062	216.994	-0.057	0.092
-667.047	800.000	-0.024	0.086
-666.032	800.000	0.134	0.451
-665.018	-130.340	0.243	0.033
-664.003	-16.213	-0.125	-0.081
-662.989	99.158	-0.155	0.181
-661.974	46.891	0.077	-0.073
-660.959	783.721	0.019	0.053
-659.945	7.664	-0.223	0.169
-658.930	-200.000	0.012	-0.175
-657.916	-105.045	-0.149	-0.035
-656.901	216.874	0.102	0.165
-655.886	207.581	-0.108	0.171
-654.872	-200.000	-0.029	0.380
-653.857	0.560	-0.148	0.107
-652.843	-76.257	0.196	0.070
-651.828	-200.000	-0.047	-0.347
-650.814	-200.000	-0.034	-0.154
-649.799	-78.800	-0.269	-0.093
-648.784	800.000	0.050	-0.182
-647.770	-200.000	0.018	0.167
-646.755	7.542	0.160	-0.121
-645.741	800.000	-0.080	-0.234
-644.726	180.797	0.059	-0.087
-643.711	371.106	0.101	-0.207
-642.697	137.887	-0.048	0.064
-641.682	-3.484	0.160	-0.113
-640.668	156.779	-0.093	0.130
-639.653	250.617	0.085	0.146
-638.638	-107.222	0.120	-0.027
-637.624	-200.000	0.012	-0.382
-636.609	-14.182	0.449	0.293
-635.595	309.551	0.219	0.414
-634.580	800.000	0.026	0.087
-633.565	-103.528	0.034	0.008
-632.551	-200.000	0.010	0.209
-631.536	24.878	0.166	-0.139
-630.522	-150.941	0.176	-0.013
-629.507	-72.836	-0.061	0.023
-628.492	800.000	0.149	-0.450
-627.478	-57.077	-0.074	-0.033
-626.463	541.050	-0.090	-0.218
-625.449	-73.135	0.032	-0.012
-624.434	-46.923	0.167	0.082
-623.419	800.000	0.135	0.451
-622.405	800.000	-0.004	-0.017
-621.390	727.359	-0.063	-0.171
-620.376	-45.445	-0.349	-0.175
-619.361	-20.297	-0.176	-0.110
-618.346	-200.000	0.047	-0.230
-617.332	0.516	-0.141	-0.102
-616.317	800.000	0.026	-0.088
-615.303	-97.838	-0.187	0.049
-614.288	-111.469	0.135	0.028
-613.273	-13.682	-0.103	0.067
-612.259	-28.335	-0.259	0.151
-611.244	-200.000	0.005	-0.059
-610.230	-52.944	-0.138	-0.064
-609.215	-0.417	-0.046	-0.033
-608.201	-200.000	-0.047	0.247
-607.186	-200.000	0.006	0.062
-606.171	-102.618	0.409	-0.099
-605.157	19.419	0.211	0.171
-604.142	-200.000	0.040	0.376
-603.128	-200.000	-0.001	0.247
-602.113	-200.000	0.007	0.125
-601.098	-200.000	0.003	-0.025
-600.084	800.000	-0.062	-0.193
-599.069	-122.277	0.121	-0.020
-598.055	-23.160	-0.213	-0.130
-597.040	315.535	-0.117	-0.224
-596.025	55.107	0.070	0.068
-595.011	-152.841	-0.164	0.012
-593.996	206.671	0.076	-0.119
-592.982	30.626	0.227	-0.196
-591.967	-126.274	0.282	0.043
-590.952	-8.681	0.167	-0.113
-589.938	800.000	0.013	-0.038
-588.923	-15.276	0.144	-0.093
-587.909	46.928	-0.093	-0.087
-586.894	88.085	-0.099	-0.111
-585.879	416.772	-0.036	-0.077
-584.865	800.000	-0.167	-0.502
-583.850	-168.905	-0.358	0.014
-582.836	800.000	-0.096	-0.301
-581.821	-41.836	0.216	0.112
-580.806	-200.000	-0.008	-0.146
-579.792	-53.953	0.244	-0.112
-578.777	-200.000	0.004	-0.099
-577.763	249.012	-0.123	0.211
-576.748	-112.897	-0.213	-0.043
-575.733	532.557	-0.116	-0.276
-574.719	53.629	0.136	-0.132
-573.704	-200.000	0.034	0.202
-572.690	-200.000	0.009	-0.054
-571.675	800.000	-0.065	0.183
-570.661	26.145	-0.075	0.063
-569.646	-74.971	0.049	0.018
-568.631	-80.310	0.152	-0.051
-567.617	-200.000	0.038	-0.337
-566.602	82.234	0.277	-0.303
-565.588	198.849	0.048	0.074
-564.573	-128.549	-0.181	-0.026
-563.558	-200.000	0.065	0.321
-562.544	71.153	-0.145	0.152
-561.529	337.692	0.192	0.377
-560.515	800.000	-0.103	0.312
-559.500	284.691	-0.078	0.142
-558.485	181.966	0.224	-0.333
-557.471	800.000	0.118	-0.347
-556.456	-107.538	-0.245	0.054
-555.442	200.366	-0.047	-0.072
-554.427	800.000	-0.097	-0.346
-553.412	800.000	-0.078	0.313
-552.398	-65.156	-0.280	0.114
-551.383	-200.000	-0.048	0.278
-550.369	20.925	0.161	0.131
-549.354	-103.186	0.387	-0.092
-548.339	-25.446	-0.102	-0.061
-547.325	-154.398	0.154	0.010
-546.310	16.339	-0.094	0.075
-545.296	-113.747	0.053	0.010
-544.281	-39.917	-0.293	0.154
-543.266	-200.000	0.011	0.091
-542.252	602.562	0.065	-0.163
-541.237	-134.658	-0.227	0.028
-540.223	-160.123	0.219	-0.012
-539.208	-200.000	0.008	0.130
-538.193	-14.159	0.371	0.241
-537.179	246.687	-0.141	-0.240
-536.164	800.000	-0.113	0.416
-535.150	-96.676	0.255	0.068
-534.135	-146.969	0.127	0.011
-533.121	-56.143	-0.201	0.090
-532.106	-80.761	0.173	-0.058
-531.091	1.820	0.113	-0.082
-530.077	350.681	-0.030	0.061
-529.062	-200.000	-0.049	-0.305
-528.048	102.614	-0.061	0.072
-527.033	210.507	0.075	-0.119
-526.018	81.977	-0.073	0.080
-525.004	800.000	-0.052	-0.159
-523.989	253.230	0.061	-0.106
-522.975	139.557	-0.185	0.245
-521.960	168.819	-0.197	0.282
-520.945	475.917	0.121	0.274
-519.931	-2.610	0.271	-0.191
-518.916	-41.082	-0.403	0.210
-517.902	-185.355	-0.220	-0.003
-516.887	-99.635	-0.304	0.077
-515.872	-51.472	0.354	0.167
-514.858	191.081	-0.126	-0.191
-513.843	352.607	-0.071	-0.142
-512.829	30.833	-0.233	-0.201
-511.814	2.014	-0.112	-0.081
-510.799	-6.906	-0.378	-0.259
-509.785	800.000	-0.124	-0.373
-508.770	-92.519	0.076	-0.022
-507.756	96.356	-0.155	-0.179
-506.741	527.437	-0.045	-0.107
-505.726	-85.812	0.190	-0.059
-504.712	-40.464	-0.231	0.121
-503.697	-103.653	-0.181	0.043
-502.683	456.008	-0.042	-0.094
-501.668	115.765	0.223	-0.275
-500.653	-118.385	0.306	-0.055
-499.639	-135.546	0.268	0.032
-498.624	-131.753	0.235	-0.031
-497.610	127.910	0.065	0.083
-496.595	227.794	-0.191	-0.313
-495.581	-200.000	0.000	0.151
-494.566	-106.336	0.409	-0.092
-493.551	-82.983	0.209	0.068
-492.537	-200.000	0.023	-0.215
-491.522	-99.811	-0.104	-0.026
-490.508	-127.304	0.195	-0.029
-489.493	-36.259	-0.248	-0.135
-488.478	800.000	-0.015	0.058
-487.464	243.634	-0.060	-0.101
-486.449	17.918	-0.061	0.049
-485.435	-27.437	-0.350	-0.205
-484.420	800.000	0.042	-0.123
-483.405	-51.245	0.181	0.085
-482.391	-143.315	-0.139	0.013
-481.376	-35.438	-0.298	0.163
-480.362	-200.000	-0.026	0.192
-479.347	348.699	0.092	0.183
-478.332	-200.000	0.066	0.334
-477.318	277.273	-0.142	0.255
-476.303	-60.093	-0.153	0.066
-475.289	-200.000	-0.016	-0.279
-474.274	-200.000	-0.011	0.217
-473.259	61.725	-0.039	0.039
-472.245	-89.241	-0.072	0.021
-471.230	-100.309	0.205	0.051
-470.216	-36.212	-0.121	0.066
-469.201	16.372	-0.137	-0.109
-468.186	56.487	0.020	-0.019
-467.172	34.173	-0.234	0.205
-466.157	-58.872	0.165	-0.072
-465.143	680.400	-0.051	-0.134
-464.128	126.365	0.112	-0.142
-463.113	121.227	0.165	0.206
-462.099	-104.680	0.230	-0.053
-461.084	-181.713	0.169	0.003
-460.070	24.075	-0.213	0.177
-459.055	-200.000	0.022	0.264
-458.040	396.521	0.102	0.215
-457.026	800.000	0.038	-0.165
-456.011	-200.000	-0.020	-0.090
-454.997	-78.266	0.472	-0.163
-453.982	-6.579	0.130	-0.089
-452.968	582.647	-0.103	0.253
-451.953	339.847	0.083	-0.162
-450.938	-173.246	-0.169	-0.005
-449.924	148.772	-0.039	0.052
-448.909	-200.000	-0.012	0.268
-447.895	40.509	-0.223	-0.202
-446.880	87.775	0.083	-0.093
-445.865	100.961	0.041	-0.047
-444.851	-200.000	0.005	-0.183
-443.836	100.590	0.049	0.057
-442.822	64.058	-0.105	0.106
-441.807	-200.000	-0.067	0.391
-440.792	-135.292	0.236	-0.028
-439.778	163.993	0.174	-0.247
-438.763	110.132	0.088	0.107
-437.749	-200.000	-0.159	-0.001
-436.734	-200.000	0.005	-0.128
-435.719	-60.723	-0.182	-0.077
-434.705	-164.403	-0.259	-0.012
-433.690	155.898	0.053	-0.074
-432.676	45.570	-0.300	0.278
-431.661	-5.842	0.099	0.068
-430.646	315.427	-0.109	0.206
-429.632	169.481	0.235	0.337
-428.617	392.786	0.095	0.198
-427.603	800.000	0.045	0.167
-426.588	758.673	0.066	-0.180
-425.573	-199.524	0.241	0.001
-424.559	800.000	0.096	0.411
-423.544	-200.000	-0.045	-0.282
-422.530	-200.000	0.006	-0.250
-421.515	55.827	-0.078	0.075
-420.500	800.000	-0.075	0.283
-419.486	378.628	-0.032	-0.065
-418.471	800.000	-0.106	-0.444
-417.457	-79.687	0.039	0.013
-416.442	-200.000	0.040	-0.207
-415.428	169.503	-0.093	-0.133
-414.413	15.538	0.209	-0.165
-413.398	193.641	0.150	0.228
-412.384	-117.638	0.275	-0.050
-411.369	-200.000	-0.054	-0.366
-410.355	100.379	0.110	0.128
-409.340	-44.040	0.120	0.060
-408.325	-73.452	0.158	-0.058
-407.311	800.000	-0.141	0.410
-406.296	800.000	-0.042	-0.122
-405.282	800.000	0.059	0.184
-404.267	8.160	0.144	0.109
-403.252	800.000	0.106	0.310
-402.238	45.997	0.236	0.219
-401.223	-91.008	-0.417	0.120
-400.209	-200.000	0.019	-0.123
-399.194	800.000	-0.077	-0.296
-398.179	-109.910	-0.231	0.049
-397.165	-37.111	0.084	-0.045
-396.150	382.589	-0.144	-0.297
-395.136	165.428	0.221	-0.313
-394.121	-60.115	-0.232	-0.099
-393.106	304.897	0.085	0.159
-392.092	109.643	-0.129	-0.155
-391.077	360.456	0.074	-0.148
-390.063	-122.104	-0.404	-0.066
-389.048	397.619	-0.038	-0.079
-388.033	-165.161	0.147	0.007
-387.019	-64.176	0.071	-0.029
-386.004	-106.808	-0.322	0.072
-384.990	169.769	-0.083	-0.119
-383.975	800.000	0.063	-0.240
-382.960	118.453	-0.174	-0.215
-381.946	651.124	-0.055	0.142
-380.931	-200.000	0.017	-0.111
-379.917	-177.408	0.199	0.005
-378.902	-16.034	-0.412	-0.262
-377.888	-200.000	-0.092	0.000
-376.873	-21.620	0.239	0.146
-375.858	376.744	0.108	-0.221
-374.844	-166.801	-0.135	0.006
-373.829	-22.603	0.161	0.098
-372.815	703.575	-0.107	-0.282
-371.800	-33.325	-0.215	-0.119
-370.785	-13.944	0.363	0.235
-369.771	-14.496	-0.583	0.376
-368.756	-130.909	-0.092	0.012
-367.742	696.887	0.057	-0.149
-366.727	-15.452	0.180	0.115
-365.712	800.000	-0.101	0.297
-364.698	-34.837	0.161	-0.088
-363.683	626.089	0.037	-0.093
-362.669	33.920	0.272	0.237
-361.654	47.385	-0.092	0.086
-360.639	-99.781	0.282	0.071
-359.625	146.721	0.112	-0.150
-358.610	275.510	-0.121	0.216
-357.596	-62.652	0.342	-0.142
-356.581	-200.000	-0.030	-0.394
-355.566	447.965	0.095	0.209
-354.552	-48.962	-0.256	0.123
-353.537	-200.000	-0.002	0.127
-352.523	-72.384	0.160	0.059
-351.508	-200.000	-0.002	-0.112
-350.493	-77.017	-0.186	-0.065
-349.479	335.323	0.036	0.070
-348.464	15.653	0.138	-0.109
-347.450	106.071	-0.203	0.240
-346.435	523.348	0.102	0.240
-345.420	800.000	-0.051	0.179
-344.406	-200.000	-0.072	-0.420
-343.391	-58.932	-0.150	0.065
-342.377	147.332	-0.189	0.255
-341.362	-75.993	0.250	-0.088
-340.348	-23.107	-0.214	-0.129
-339.333	-158.083	-0.139	0.008
-338.318	-94.218	0.502	-0.137
-337.304	-200.000	0.050	0.225
-336.289	-200.000	0.009	0.112
-335.275	-9.242	-0.146	0.098
-334.260	413.035	-0.056	-0.119
-333.245	-200.000	0.058	-0.308
-332.231	-182.584	-0.353	-0.006
-331.216	-200.000	-0.023	-0.165
-330.202	-178.505	-0.061	-0.001
-329.187	-91.555	-0.166	0.047
-328.172	132.301	0.246	0.317
-327.158	-101.861	-0.175	0.042
-326.143	686.546	0.065	-0.170
-325.129	-42.938	-0.121	-0.061
-324.114	180.617	0.128	0.188
-323.099	262.729	0.056	0.098
-322.085	-99.660	-0.303	-0.076
-321.070	800.000	0.074	-0.242
-320.056	40.934	-0.349	-0.315
-319.041	-170.248	0.265	-0.009
-318.026	-72.050	0.294	-0.109
-317.012	770.556	-0.093	-0.252
-315.997	-94.841	-0.183	0.050
-314.983	-84.718	0.426	0.134
-313.968	18.935	0.156	-0.125
-312.953	-101.892	-0.307	-0.074
-311.939	8.089	-0.164	0.123
-310.924	152.852	-0.256	0.350
-309.910	-46.206	0.095	0.047
-308.895	195.960	0.106	-0.161
-307.880	-97.182	0.269	-0.070
-306.866	-52.900	0.075	0.034
-305.851	-200.000	-0.002	0.014
-304.837	-149.830	0.303	-0.024
-303.822	115.985	0.056	0.068
-302.807	-15.749	-0.255	0.163
-301.793	-9.544	0.086	0.057
-300.778	-200.000	0.045	0.203
-299.764	-59.947	-0.186	0.080
-298.749	278.922	0.005	0.008
-297.735	-200.000	-0.051	0.499
-296.720	800.000	-0.052	0.208
-295.705	-200.000	-0.002	0.040
-294.691	-148.862	-0.158	-0.013
-293.676	143.456	-0.060	-0.080
-292.662	800.000	-0.097	0.364
-291.647	-200.000	-0.015	-0.101
-290.632	98.160	0.167	0.192
-289.618	45.116	-0.113	-0.104
-288.603	314.545	0.109	0.205
-287.589	142.137	-0.309	0.409
-286.574	-89.116	0.293	-0.086
-285.559	-200.000	0.016	0.225
-284.545	-120.953	0.073	-0.012
-283.530	-119.429	-0.315	0.055
-282.516	-200.000	-0.003	-0.112
-281.501	-87.215	-0.260	-0.079
-280.486	330.850	0.142	0.274
-279.472	424.864	0.055	0.117
-278.457	228.368	-0.050	0.081
-277.443	-200.000	-0.012	0.105
-276.428	800.000	-0.054	-0.178
-275.413	160.519	0.204	0.284
-274.399	50.154	-0.104	0.098
-273.384	340.390	0.145	-0.283
-272.370	183.247	0.234	-0.345
-271.355	130.164	-0.188	0.240
-270.340	-30.596	0.217	0.123
-269.326	800.000	-0.062	0.205
-268.311	105.201	-0.121	-0.143
-267.297	800.000	0.026	0.107
-266.282	-60.961	0.154	-0.065
-265.267	120.356	0.101	-0.126
-264.253	-145.259	-0.289	-0.026
-263.238	-42.552	0.149	0.076
-262.224	-200.000	0.045	0.415
-261.209	-200.000	0.013	-0.246
-260.195	-2.326	0.225	-0.158
-259.180	-37.290	-0.379	-0.202
-258.165	778.725	0.063	0.173
-257.151	800.000	0.103	-0.371
-256.136	-18.298	-0.152	-0.095
-255.122	-94.293	-0.150	0.041
-254.107	800.000	-0.028	0.115
-253.092	370.072	-0.071	-0.144
-252.078	683.278	0.082	0.214
-251.063	-200.000	0.007	-0.188
-250.049	4.012	-0.149	0.108
-249.034	100.072	-0.173	-0.200
-248.019	800.000	-0.048	-0.138
-247.005	-18.887	0.117	0.073
-245.990	-137.137	-0.213	0.024
-244.976	-69.481	-0.177	0.067
-243.961	-62.064	0.234	0.097
-242.946	-200.000	-0.016	0.112
-241.932	-145.106	0.244	-0.022
-240.917	800.000	0.012	0.047
-239.903	54.957	0.116	-0.111
-238.888	-200.000	-0.028	0.140
-237.873	618.638	-0.168	0.419
-236.859	53.479	0.083	-0.080
-235.844	-39.008	0.093	-0.049
-234.830	-200.000	-0.005	-0.146
-233.815	-61.075	0.274	-0.115
-232.800	-141.755	-0.559	-0.056
-231.786	-58.956	-0.194	-0.083
-230.771	457.647	0.107	0.236
-229.757	-31.278	-0.111	0.062
-228.742	-44.993	0.174	0.086
-227.727	800.000	0.007	-0.019
-226.713	2.000	0.322	0.232
-225.698	23.977	0.181	0.148
-224.684	-39.495	-0.157	0.082
-223.669	28.554	-0.228	-0.192
-222.655	365.201	0.068	-0.136
-221.640	800.000	-0.119	0.412
-220.625	-5.391	0.401	0.274
-219.611	-200.000	-0.007	0.174
-218.596	-31.731	0.121	-0.068
-217.582	-24.484	-0.172	-0.102
-216.567	-67.602	0.072	0.028
-215.552	-105.681	0.394	-0.089
-214.538	-200.000	0.020	0.461
-213.523	-35.666	-0.318	0.171
-212.509	67.423	-0.194	0.197
-211.494	-39.342	0.105	-0.055
-210.479	193.456	-0.194	0.293
-209.465	-188.759	0.098	0.001
-208.450	47.473	0.234	-0.217
-207.436	-112.976	0.247	0.049
-206.421	106.832	-0.109	0.128
-205.406	531.924	-0.120	-0.284
-204.392	-82.843	0.154	-0.049
-203.377	114.667	-0.108	-0.130
-202.363	74.265	0.283	-0.295
-201.348	-46.841	-0.277	-0.135
-200.333	-200.000	0.003	-0.145
-199.319	135.659	-0.097	-0.125
-198.304	89.016	0.136	0.151
-197.290	800.000	0.065	-0.227
-196.275	368.778	0.152	-0.306
-195.260	498.540	-0.170	0.389
-194.246	-109.051	-0.140	-0.030
-193.231	548.596	-0.092	-0.219
-192.217	220.148	0.116	0.184
-191.202	-38.418	-0.089	0.047
-190.187	547.469	-0.040	0.094
-189.173	683.725	0.013	-0.033
-188.158	40.237	-0.321	-0.287
-187.144	-68.322	0.228	-0.088
-186.129	-83.783	0.116	0.037
-185.114	-200.000	0.043	0.256
-184.100	-180.900	-0.410	-0.008
-183.085	39.530	0.186	0.166
-182.071	-29.622	0.076	0.043
-181.056	800.000	0.042	-0.146
-180.042	-200.000	0.024	0.123
-179.027	69.858	-0.020	0.020
-178.012	19.959	0.291	-0.234
-176.998	377.733	-0.182	-0.371
-175.983	-19.012	-0.159	-0.098
-174.969	481.586	0.065	-0.146
-173.954	-200.000	-0.038	-0.224
-172.939	501.790	0.166	0.381
-171.925	15.332	-0.138	0.107
-170.910	-122.058	0.365	-0.060
-169.896	130.230	-0.155	-0.197
-168.881	-200.000	-0.017	-0.076
-167.866	561.880	0.054	0.130
-166.852	-85.850	-0.296	0.091
-165.837	800.000	0.081	-0.301
-164.823	20.257	0.346	-0.277
-163.808	800.000	0.065	-0.196
-162.793	-200.000	-0.028	0.520
-161.779	288.038	0.169	0.305
-160.764	143.023	-0.031	0.041
-159.750	-200.000	-0.049	-0.236
-158.735	646.860	0.016	0.042
-157.720	-23.419	-0.071	-0.042
-156.706	-200.000	-0.003	-0.274
-155.691	-55.551	-0.280	-0.124
-154.677	80.964	0.179	0.192
-153.662	5.009	-0.065	-0.048
-152.647	535.432	-0.170	-0.401
-151.633	54.009	-0.059	-0.056
-150.618	301.934	0.111	-0.204
-149.604	-156.225	0.058	0.004
-148.589	100.590	-0.020	0.023
-147.574	177.948	0.085	0.124
-146.560	-200.000	0.013	-0.096
-145.545	-200.000	-0.016	0.132
-144.531	-102.014	0.128	0.031
-143.516	-104.294	-0.154	0.035
-142.502	-30.530	0.156	-0.088
-141.487	-8.904	-0.284	0.189
-140.472	-131.483	0.238	0.031
-139.458	-24.063	-0.169	0.100
-138.443	-9.637	-0.376	-0.249
-137.429	167.373	-0.041	0.058
-136.414	800.000	0.067	-0.255
-135.399	-200.000	0.006	-0.131
-134.385	377.651	0.178	-0.360
-133.370	228.580	-0.105	0.169
-132.356	-102.103	-0.259	-0.062
-131.341	-200.000	0.011	0.315
-130.326	800.000	0.076	0.247
-129.312	117.968	0.029	-0.035
-128.297	343.539	-0.022	-0.043
-127.283	-200.000	0.039	-0.221
-126.268	-107.541	0.203	0.044
-125.253	-87.324	0.111	-0.033
-124.239	35.857	0.070	-0.061
-123.224	-200.000	0.065	0.757
-122.210	-200.000	0.048	0.367
-121.195	-141.404	0.463	0.047
-120.180	-45.131	0.231	0.114
-119.166	-200.000	0.021	0.160
-118.151	-91.939	0.360	-0.101
-117.137	-200.000	-0.003	0.384
-116.122	-28.545	-0.176	0.100
-115.107	-161.546	0.383	0.020
-114.093	-170.931	0.162	0.005
-113.078	-52.265	0.128	0.059
-112.064	-54.927	0.246	0.110
-111.049	800.000	-0.094	0.276
-110.034	-89.218	0.087	-0.025
-109.020	149.160	-0.022	-0.029
-108.005	297.302	-0.125	0.227
-106.991	22.827	-0.221	0.179
-105.976	-200.000	0.011	0.167
-104.962	-81.549	-0.372	-0.121
-103.947	-51.426	-0.216	-0.100
-102.932	-91.078	-0.220	0.063
-101.918	27.748	0.121	-0.101
-100.903	139.662	0.124	-0.162
-99.889	35.427	0.205	-0.179
-98.874	-200.000	-0.013	0.150
-97.859	-145.768	0.163	-0.014
-96.845	-200.000	0.076	-0.476
-95.830	800.000	0.068	0.278
-94.816	-65.570	-0.167	-0.066
-93.801	-200.000	-0.007	-0.431
-92.786	186.825	0.120	0.177
-91.772	474.071	-0.061	0.135
-90.757	716.914	-0.097	-0.256
-89.743	241.373	-0.243	0.402
-88.728	-168.709	0.239	0.009
-87.713	112.348	-0.068	-0.082
-86.699	-121.283	0.305	0.051
-85.684	-40.950	-0.210	0.107
-84.670	11.283	-0.019	0.014
-83.655	90.179	0.403	0.446
-82.640	-119.184	-0.091	-0.016
-81.626	475.943	-0.050	0.113
-80.611	-21.511	0.169	0.102
-79.597	-200.000	0.006	0.112
-78.582	-200.000	-0.046	0.421
-77.567	-56.532	0.126	0.055
-76.553	37.649	-0.098	0.086
-75.538	800.000	0.038	0.123
-74.524	-126.787	0.334	0.049
-73.509	48.816	-0.269	0.249
-72.494	667.439	-0.191	0.488
-71.480	72.202	-0.236	-0.243
-70.465	-25.414	0.063	0.037
-69.451	-200.000	0.008	0.157
-68.436	-76.202	-0.307	-0.107
-67.422	-105.089	-0.275	0.062
-66.407	-200.000	0.011	0.056
-65.392	-200.000	0.005	0.193
-64.378	-48.260	0.428	-0.204
-63.363	741.701	0.114	-0.304
-62.349	348.004	-0.125	0.244
-61.334	92.496	-0.833	-0.930
-60.319	148.730	0.246	0.329
-59.305	-200.000	-0.238	-1.077
-58.290	82.799	0.521	0.560
-57.276	193.576	0.895	1.340
-56.261	-200.000	96.281	576.857
-55.246	539.258	1383.982	3257.373
-54.232	155.381	2572.027	3502.432
-53.217	102.512	2303.275	2664.695
-52.203	39.665	2058.913	1826.703
-51.188	34.949	1974.087	1709.364
-50.173	33.401	1955.695	1679.650
-49.159	47.985	2004.847	1853.140
-48.144	49.591	2023.047	1884.317
-47.130	35.475	1984.867	1723.143
-46.115	33.195	1974.188	1693.424
-45.100	33.107	1971.034	1689.866
-44.086	33.061	1968.905	1687.562
-43.071	32.958	1966.401	1684.428
-42.057	32.941	1964.205	1682.330
-41.042	32.933	1962.806	1680.992
-40.027	33.038	1960.407	1679.800
-39.013	33.120	1957.906	1678.323
-37.998	33.053	1956.532	1676.481
-36.984	33.109	1954.779	1675.415
-35.969	33.131	1953.133	1674.126
-34.954	33.136	1951.756	1672.926
-33.940	33.143	1949.922	1671.350
-32.925	33.208	1948.065	1670.265
-31.911	33.245	1946.457	1669.150
-30.896	33.178	1945.167	1667.386
-29.881	33.195	1943.429	1665.975
-28.867	33.142	1942.226	1664.410
-27.852	33.294	1940.049	1663.814
-26.838	33.261	1938.262	1661.926
-25.823	33.150	1936.653	1659.509
-24.809	33.265	1934.581	1658.678
-23.794	33.235	1933.404	1657.343
-22.779	33.193	1931.468	1655.243
-21.765	33.114	1929.973	1653.211
-20.750	33.135	1928.149	1651.766
-19.736	33.158	1926.913	1650.844
-18.721	33.242	1924.653	1649.571
-17.706	33.243	1922.951	1648.056
-16.692	33.138	1921.952	1646.219
-15.677	33.242	1919.911	1645.311
-14.663	33.209	1918.642	1643.873
-13.648	33.184	1917.514	1642.618
-12.633	33.229	1916.532	1642.105
-11.619	33.262	1914.917	1640.947
-10.604	33.261	1913.335	1639.512
-9.590	33.217	1912.303	1638.183
-8.575	33.248	1910.538	1636.878
-7.560	33.219	1909.297	1635.494
-6.546	33.230	1908.290	1634.666
-5.531	33.223	1907.145	1633.559
-4.517	33.243	1905.561	1632.313
-3.502	33.169	1904.815	1630.964
-2.487	33.220	1903.558	1630.262
-1.473	33.197	1903.146	1629.646
-0.458	33.229	1898.255	1625.669
0.556	33.390	1878.660	1598.299
1.571	29.345	1859.911	1548.334
2.586	25.800	1882.685	1536.960
3.600	25.038	1918.722	1559.608
4.615	24.470	1914.291	1550.935
5.629	18.692	1812.507	1420.665
6.644	8.043	1691.576	1243.085
7.659	2.622	1652.686	1172.990
8.673	2.234	1648.895	1167.238
9.688	2.138	1647.232	1165.223
10.702	2.022	1646.403	1163.651
11.717	1.906	1643.049	1160.289
12.731	2.351	1641.989	1162.824
13.746	9.194	1659.097	1227.257
14.761	19.840	1683.253	1327.114
15.775	25.348	1693.154	1377.177
16.790	26.418	1693.699	1385.700
17.804	26.560	1693.501	1386.502
18.819	26.622	1692.893	1386.357
19.834	26.743	1691.757	1386.235
20.848	26.934	1691.806	1387.614
21.863	26.931	1690.920	1386.734
22.877	26.989	1689.610	1385.984
23.892	27.044	1688.511	1385.379
24.907	27.004	1687.984	1384.520
25.921	27.067	1686.490	1383.649
26.936	27.160	1685.407	1383.349
27.950	27.100	1684.556	1382.068
28.965	27.065	1684.287	1381.462
29.980	26.969	1683.610	1380.050
30.994	27.077	1681.807	1379.273
32.009	27.039	1680.865	1378.093
33.023	27.065	1680.111	1377.550
34.038	27.042	1679.102	1376.425
35.053	27.126	1677.614	1375.719
36.067	27.023	1677.138	1374.426
37.082	27.030	1675.927	1373.367
38.096	27.002	1675.276	1372.502
39.111	27.039	1674.225	1371.798
40.126	27.020	1673.514	1370.953
41.140	27.096	1672.867	1370.874
42.155	26.984	1671.713	1368.961
43.169	26.972	1670.513	1367.763
44.184	26.990	1669.650	1367.074
45.199	27.038	1668.581	1366.440
46.213	26.926	1667.577	1364.653
47.228	27.098	1665.610	1364.217
48.242	27.048	1664.999	1363.217
49.257	27.062	1663.959	1362.352
50.271	26.954	1663.037	1360.666
51.286	27.020	1661.560	1359.834
52.301	27.023	1660.632	1358.976
53.315	26.987	1659.207	1357.421
54.330	26.989	1657.646	1356.034
55.344	27.027	1656.183	1355.006
56.359	27.016	1654.928	1353.772
57.374	27.100	1653.693	1353.271
58.388	27.068	1652.771	1352.160
59.403	27.108	1651.660	1351.426
60.417	27.098	1650.513	1350.296
61.432	27.011	1649.791	1348.934
62.447	27.015	1648.586	1347.865
63.461	27.003	1647.877	1347.076
64.476	27.021	1646.920	1346.306
65.490	27.049	1645.741	1345.428
66.505	27.030	1644.863	1344.453
67.520	27.102	1643.514	1343.766
68.534	26.935	1643.010	1341.998
69.549	27.084	1641.508	1341.757
70.563	27.122	1640.347	1340.965
71.578	27.082	1639.291	1339.693
72.593	27.055	1638.668	1338.862
73.607	27.061	1637.509	1337.844
74.622	27.108	1636.859	1337.535
75.636	27.104	1635.652	1336.402
76.651	27.092	1635.217	1335.843
77.666	27.079	1634.284	1334.865
78.680	26.997	1633.311	1333.352
79.695	27.079	1632.416	1333.107
80.709	27.119	1631.128	1332.232
81.724	27.083	1630.755	1331.540
82.739	27.098	1629.503	1330.512
83.753	27.014	1628.539	1328.990
84.768	27.082	1627.372	1328.422
85.782	27.042	1626.795	1327.535
86.797	27.022	1625.836	1326.492
87.812	27.075	1625.393	1326.404
88.826	27.104	1623.518	1324.963
89.841	27.078	1623.116	1324.328
90.855	27.107	1621.970	1323.489
91.870	27.191	1620.681	1322.932
92.884	27.086	1620.481	1321.883
93.899	27.132	1618.985	1320.885
94.914	27.139	1617.658	1319.735
95.928	27.184	1616.591	1319.078
96.943	27.095	1615.818	1317.680
97.957	27.103	1614.810	1316.802
98.972	27.053	1613.408	1315.181
99.987	27.153	1611.529	1314.257
101.001	27.161	1610.388	1313.265
102.016	27.096	1608.929	1311.492
103.030	27.017	1607.297	1309.474
104.045	27.103	1606.304	1309.165
105.060	26.960	1605.344	1307.241
106.074	27.099	1604.053	1307.075
107.089	27.015	1603.345	1305.780
108.103	27.084	1601.670	1304.790
109.118	27.128	1600.671	1304.179
110.133	27.062	1599.902	1302.963
111.147	27.106	1598.470	1301.995
112.162	27.109	1597.508	1301.120
113.176	27.147	1596.154	1300.173
114.191	27.103	1595.053	1298.852
115.206	27.142	1593.994	1298.153
116.220	27.127	1593.027	1297.141
117.235	27.105	1591.732	1295.815
118.249	27.116	1590.611	1294.865
119.264	27.130	1589.518	1293.959
120.279	27.198	1587.861	1292.982
121.293	27.152	1586.674	1291.574
122.308	27.182	1585.868	1291.013
123.322	27.173	1584.530	1289.748
124.337	27.122	1583.351	1288.312
125.352	27.165	1582.498	1287.808
126.366	27.137	1581.453	1286.648
127.381	27.201	1580.296	1286.041
128.395	27.178	1579.469	1285.096
129.410	27.188	1578.518	1284.282
130.424	27.285	1576.840	1283.484
131.439	27.137	1576.138	1281.755
132.454	27.174	1574.920	1280.915
133.468	27.202	1573.376	1279.741
134.483	27.166	1572.403	1278.584
135.497	27.131	1571.406	1277.412
136.512	27.210	1570.316	1276.966
137.527	27.131	1568.983	1275.220
138.541	27.249	1567.796	1274.966
139.556	27.236	1566.962	1274.086
140.570	27.224	1565.425	1272.640
141.585	27.161	1564.418	1271.269
142.600	27.309	1562.960	1271.007
143.614	27.235	1562.125	1269.697
144.629	27.139	1561.590	1268.477
145.643	27.201	1560.151	1267.626
146.658	27.207	1558.839	1266.493
147.673	27.103	1557.473	1264.545
148.687	27.148	1556.394	1263.872
149.702	27.254	1555.126	1263.467
150.716	27.210	1554.057	1262.183
151.731	27.120	1552.831	1260.447
152.746	27.126	1551.876	1259.605
153.760	27.180	1550.373	1258.644
154.775	27.254	1549.519	1258.354
155.789	27.247	1548.980	1257.755
156.804	27.208	1547.805	1256.419
157.819	27.308	1546.298	1255.776
158.833	27.212	1545.559	1254.404
159.848	27.253	1544.541	1253.748
160.862	27.265	1543.517	1252.892
161.877	27.340	1542.732	1252.656
162.892	27.337	1541.932	1251.876
163.906	27.288	1541.128	1250.778
164.921	27.292	1539.808	1249.625
165.935	27.274	1539.527	1249.161
166.950	27.289	1538.399	1248.240
167.964	27.328	1537.343	1247.537
168.979	27.315	1536.301	1246.494
169.994	27.252	1535.746	1245.503
171.008	27.353	1534.904	1245.399
172.023	27.317	1533.520	1243.923
173.037	27.326	1532.557	1243.088
174.052	27.461	1531.079	1242.699
175.067	27.360	1530.196	1241.188
176.081	27.409	1529.679	1240.991
177.096	27.344	1528.565	1239.538
178.110	27.329	1527.829	1238.730
179.125	27.325	1527.156	1238.041
180.140	27.364	1525.841	1237.133
181.154	27.450	1525.160	1237.054
182.169	27.396	1524.344	1235.920
183.183	27.404	1522.643	1234.483
184.198	27.481	1521.843	1234.248
185.213	27.501	1521.120	1233.686
186.227	27.370	1520.732	1232.376
187.242	27.418	1519.714	1231.771
188.256	27.447	1519.065	1231.327
189.271	27.447	1517.830	1230.221
190.286	27.475	1516.756	1229.431
191.300	27.438	1516.067	1228.509
192.315	27.461	1515.290	1227.927
193.329	27.447	1514.247	1226.880
194.344	27.467	1513.131	1226.000
195.359	27.505	1512.693	1225.791
196.373	27.413	1511.899	1224.421
197.388	27.449	1510.851	1223.710
198.402	27.422	1509.953	1222.695
199.417	27.255	1509.232	1220.875
200.432	27.386	1508.212	1220.822
201.446	27.438	1507.656	1220.612
202.461	27.415	1506.843	1219.695
203.475	27.415	1506.095	1218.983
204.490	27.438	1504.845	1218.017
205.504	27.454	1504.055	1217.375
206.519	27.439	1503.502	1216.718
207.534	27.507	1502.452	1216.218
208.548	27.509	1501.557	1215.397
209.563	27.479	1501.072	1214.696
210.577	27.594	1499.827	1214.348
211.592	27.546	1499.154	1213.375
212.607	27.508	1498.433	1212.433
213.621	27.631	1497.748	1212.589
214.636	27.627	1496.707	1211.614
215.650	27.627	1496.129	1211.039
216.665	27.617	1495.030	1209.971
217.680	27.526	1494.726	1209.016
218.694	27.593	1493.572	1208.418
219.709	27.526	1493.054	1207.451
220.723	27.634	1492.364	1207.503
221.738	27.576	1491.483	1206.301
222.753	27.562	1490.646	1205.423
223.767	27.442	1489.746	1203.793
224.782	27.498	1488.737	1203.241
225.796	27.551	1488.221	1203.066
226.811	27.673	1487.556	1203.230
227.826	27.706	1486.487	1202.476
228.840	27.692	1485.368	1201.375
229.855	27.720	1484.915	1201.082
230.869	27.603	1484.302	1199.709
231.884	27.676	1482.871	1198.931
232.899	27.697	1481.869	1198.148
233.913	27.643	1481.055	1197.028
234.928	27.721	1479.735	1196.370
235.942	27.697	1478.764	1195.324
236.957	27.730	1478.290	1195.052
237.972	27.778	1477.204	1194.383
238.986	27.654	1475.969	1192.466
240.001	27.698	1475.278	1192.086
241.015	27.721	1474.016	1191.111
242.030	27.857	1472.944	1191.032
243.045	27.842	1472.340	1190.340
244.059	27.897	1471.599	1189.993
245.074	27.771	1470.981	1188.566
246.088	27.847	1469.790	1187.993
247.103	27.842	1469.655	1187.744
248.117	27.946	1468.419	1187.318
249.132	27.819	1467.970	1186.025
250.147	27.808	1467.480	1185.452
251.161	27.860	1466.845	1185.170
252.176	27.877	1465.746	1184.287
253.190	27.975	1464.714	1183.986
254.205	27.972	1463.943	1183.238
255.220	27.970	1463.089	1182.431
256.234	27.910	1462.177	1181.199
257.249	27.893	1461.716	1180.612
258.263	27.945	1460.932	1180.212
259.278	28.029	1460.210	1180.069
260.293	27.995	1459.088	1178.838
261.307	28.042	1458.124	1178.254
262.322	28.046	1457.780	1177.901
263.336	28.102	1457.008	1177.534
264.351	28.126	1455.760	1176.571
265.366	28.042	1455.209	1175.487
266.380	27.878	1454.535	1173.779
267.395	28.035	1453.459	1173.817
268.409	28.079	1452.445	1173.176
269.424	27.949	1451.912	1171.810
270.439	27.937	1451.006	1170.898
271.453	28.007	1450.316	1170.686
272.468	27.987	1449.325	1169.652
273.482	28.129	1448.963	1170.170
274.497	28.061	1448.071	1168.910
275.512	28.093	1446.810	1167.991
276.526	28.140	1446.308	1167.780
277.541	28.149	1445.188	1166.835
278.555	28.169	1444.638	1166.412
279.570	28.119	1444.355	1165.763
280.585	28.133	1442.932	1164.597
281.599	28.108	1442.266	1163.801
282.614	28.206	1441.295	1163.535
283.628	28.010	1440.713	1161.717
284.643	28.066	1440.044	1161.429
285.657	28.143	1438.780	1160.801
286.672	28.144	1437.936	1160.019
287.687	28.131	1437.037	1159.114
288.701	28.150	1436.102	1158.373
289.716	28.190	1435.461	1158.010
290.730	28.196	1435.032	1157.594
291.745	28.217	1433.984	1156.785
292.760	28.133	1433.317	1155.614
293.774	28.270	1432.370	1155.609
294.789	28.192	1431.483	1154.302
295.803	28.278	1430.757	1154.156
296.818	28.277	1429.813	1153.285
297.833	28.278	1429.117	1152.626
298.847	28.257	1428.444	1151.851
299.862	28.276	1427.396	1151.024
300.876	28.258	1427.011	1150.500
301.891	28.325	1425.514	1149.607
302.906	28.300	1425.092	1149.012
303.920	28.346	1424.982	1149.110
304.935	28.422	1423.878	1148.592
305.949	28.437	1422.926	1147.816
306.964	28.322	1422.657	1146.780
307.979	28.366	1421.134	1145.722
308.993	28.419	1420.282	1145.271
310.008	28.445	1419.487	1144.690
311.022	28.424	1418.931	1144.009
312.037	28.356	1418.092	1142.804
313.052	28.432	1417.032	1142.322
314.066	28.443	1415.853	1141.342
315.081	28.484	1414.964	1140.778
316.095	28.410	1413.911	1139.369
317.110	28.481	1413.137	1139.087
318.125	28.504	1412.484	1138.601
319.139	28.472	1411.908	1137.836
320.154	28.447	1410.881	1136.754
321.168	28.470	1410.024	1136.102
322.183	28.494	1409.149	1135.446
323.197	28.561	1408.210	1135.008
324.212	28.447	1407.636	1133.737
325.227	28.531	1406.770	1133.460
326.241	28.530	1406.091	1132.802
327.256	28.546	1405.350	1132.207
328.270	28.759	1403.925	1132.271
329.285	28.614	1403.458	1130.904
330.300	28.587	1402.741	1130.060
331.314	28.589	1401.946	1129.330
332.329	28.600	1400.959	1128.501
333.343	28.626	1400.372	1128.089
334.358	28.529	1399.957	1127.056
335.373	28.718	1398.911	1127.278
336.387	28.687	1398.801	1126.896
337.402	28.695	1397.739	1125.993
338.416	28.732	1397.283	1125.754
339.431	28.697	1396.552	1124.852
340.446	28.783	1395.821	1124.688
341.460	28.751	1394.832	1123.593
342.475	28.787	1394.070	1123.101
343.489	28.804	1393.038	1122.275
344.504	28.797	1392.316	1121.550
345.519	28.808	1391.577	1120.925
346.533	28.861	1390.253	1120.083
347.548	28.907	1389.206	1119.420
348.562	28.891	1388.529	1118.677
349.577	28.891	1387.961	1118.121
350.592	28.863	1387.546	1117.515
351.606	28.787	1386.996	1116.510
352.621	28.796	1385.558	1115.309
353.635	28.815	1384.694	1114.632
354.650	28.829	1383.952	1114.022
355.665	28.956	1382.861	1113.813
356.679	28.924	1381.938	1112.779
357.694	28.849	1380.926	1111.408
358.708	28.977	1379.701	1111.097
359.723	28.991	1378.931	1110.467
360.738	28.870	1378.150	1109.011
361.752	28.889	1376.959	1108.066
362.767	28.910	1375.749	1107.122
363.781	28.869	1375.044	1106.210
364.796	28.959	1374.795	1106.455
365.810	29.078	1373.654	1106.154
366.825	29.018	1373.050	1105.207
367.840	28.978	1372.204	1104.190
368.854	29.087	1371.321	1104.032
369.869	29.133	1370.836	1103.823
370.883	29.053	1370.392	1102.888
371.898	29.151	1369.980	1103.045
372.913	29.127	1368.798	1101.851
373.927	29.163	1367.939	1101.278
374.942	29.135	1367.246	1100.454
375.956	29.127	1366.616	1099.804
376.971	29.152	1365.613	1099.048
377.986	29.137	1365.114	1098.459
379.000	29.138	1364.360	1097.764
380.015	29.139	1364.039	1097.414
381.029	29.115	1363.307	1096.585
382.044	29.180	1362.411	1096.150
383.059	29.131	1361.665	1095.163
384.073	29.238	1361.161	1095.294
385.088	29.178	1360.829	1094.579
386.102	29.230	1359.793	1093.954
387.117	29.300	1358.928	1093.576
388.132	29.235	1358.344	1092.628
389.146	29.206	1357.766	1091.891
390.161	29.207	1357.100	1091.264
391.175	29.391	1356.199	1091.534
392.190	29.284	1355.557	1090.287
393.205	29.269	1354.734	1089.439
394.219	29.328	1353.932	1089.049
395.234	29.316	1352.745	1087.924
396.248	29.311	1351.563	1086.849
397.263	29.449	1350.444	1086.668
398.278	29.448	1349.634	1085.911
399.292	29.394	1348.842	1084.863
400.307	29.495	1347.738	1084.468
401.321	29.472	1347.182	1083.792
402.336	29.481	1346.597	1083.277
403.350	29.330	1345.262	1081.223
404.365	29.446	1344.130	1080.898
405.380	29.424	1343.611	1080.258
406.394	29.494	1342.704	1079.840
407.409	29.484	1342.131	1079.225
408.423	29.494	1341.824	1078.944
409.438	29.553	1340.890	1078.438
410.453	29.553	1340.395	1077.948
411.467	29.657	1339.343	1077.611
412.482	29.625	1339.047	1077.091
413.496	29.629	1338.077	1076.237
414.511	29.587	1337.672	1075.571
415.526	29.542	1336.802	1074.518
416.540	29.593	1336.621	1074.574
417.555	29.675	1335.626	1074.157
418.569	29.660	1334.874	1073.365
419.584	29.642	1334.750	1073.069
420.599	29.648	1334.024	1072.427
421.613	95.159	1351.911	1454.470
422.628	94.690	1354.465	1454.586
