DTS Sentinel unit serial number:	SN413079Multiplexer serial number:	ORYXHardware model number:	OX4-SRSoftware version number:	ORYX F/W v4.00 Oryx Data Collector v3.7.2.0data status	okinstallation	princeton_trtdifferential loss correction	single-endedforward channel	channel 4reverse channel	N/Adate	2019/09/10time	18:59:10forward acquisition time	60.00reverse acquisition time	0.00gamma	496.2192k internal	0.2305k external	0.2305temperature offset calibration	0.9944default loss term (dB/km)	0.3790temperature slope calibration	1.0000multiplexer offset coefficient	1.0000multiplexer slope coefficient	1.0000fibre end	0.00T internal ref (°C)	34.62T ext. ref 1 (°C)	-0.34T ext. ref 2 (°C)	26.77length (m)	temperature (°C)	Stokes	anti-Stokes-747.200	-25.182	-0.185	0.112
-746.185	39.842	-0.146	0.134
-745.171	-49.294	-0.130	0.063
-744.156	122.003	-0.169	-0.214
-743.142	-159.778	-0.479	0.027
-742.127	-200.000	0.027	0.264
-741.112	-190.047	0.090	-0.001
-740.098	42.009	-0.212	-0.196
-739.083	-144.768	0.133	0.012
-738.069	-200.000	-0.017	0.136
-737.054	-83.359	-0.334	-0.109
-736.039	154.138	-0.127	-0.177
-735.025	-123.153	-0.200	0.033
-734.010	36.588	-0.364	0.327
-732.996	-95.781	-0.141	-0.038
-731.981	683.007	0.032	-0.085
-730.966	-172.638	-0.189	-0.006
-729.952	711.435	0.025	-0.067
-728.937	-68.228	-0.112	-0.044
-727.923	-172.173	-0.203	-0.007
-726.908	-87.829	-0.304	0.093
-725.894	800.000	-0.062	0.213
-724.879	100.833	0.043	0.051
-723.864	273.473	-0.074	-0.133
-722.850	195.642	-0.051	-0.078
-721.835	61.893	0.118	0.120
-720.821	-48.399	-0.259	0.127
-719.806	-113.375	-0.158	0.032
-718.791	-77.476	-0.106	-0.037
-717.777	765.526	0.130	0.359
-716.762	151.504	0.129	0.179
-715.748	634.297	0.023	-0.059
-714.733	-117.752	-0.354	-0.065
-713.718	-200.000	0.011	0.216
-712.704	443.762	0.051	0.113
-711.689	-18.304	0.201	-0.128
-710.675	29.160	-0.191	0.165
-709.660	-77.171	-0.200	-0.071
-708.645	-200.000	-0.001	-0.066
-707.631	88.544	-0.158	0.178
-706.616	-43.781	0.207	0.106
-705.602	-200.000	-0.012	-0.153
-704.587	554.060	-0.117	0.287
-703.572	557.288	-0.112	-0.274
-702.558	-154.181	0.300	0.021
-701.543	-139.229	0.233	0.026
-700.529	162.606	-0.270	-0.384
-699.514	16.626	-0.034	-0.028
-698.499	-97.150	-0.152	-0.040
-697.485	0.338	0.229	-0.166
-696.470	-65.051	0.061	-0.025
-695.456	-151.825	0.327	0.024
-694.441	273.933	-0.169	0.304
-693.426	-162.296	0.109	0.006
-692.412	86.961	0.030	0.034
-691.397	-53.847	0.173	-0.080
-690.383	17.919	-0.236	-0.191
-689.368	-97.206	-0.291	-0.077
-688.354	325.868	0.082	0.160
-687.339	490.210	0.057	0.133
-686.324	-200.000	0.018	-0.102
-685.310	-147.307	-0.131	0.011
-684.295	-133.298	0.090	-0.012
-683.281	361.595	-0.154	-0.313
-682.266	-1.914	0.018	0.013
-681.251	83.727	-0.176	-0.195
-680.237	-39.725	-0.253	0.134
-679.222	21.207	-0.162	0.134
-678.208	125.509	0.241	-0.308
-677.193	-173.592	0.274	0.008
-676.178	-8.496	0.209	-0.142
-675.164	211.474	-0.113	-0.181
-674.149	203.859	0.144	-0.227
-673.135	-106.679	-0.154	-0.035
-672.120	-8.693	0.144	0.098
-671.105	-156.031	0.163	-0.010
-670.091	-146.379	-0.114	0.010
-669.076	270.261	0.068	-0.121
-668.062	800.000	0.092	-0.399
-667.047	-34.891	0.303	-0.168
-666.032	422.923	-0.096	-0.209
-665.018	777.375	-0.098	-0.273
-664.003	139.910	-0.120	-0.161
-662.989	57.841	0.059	-0.058
-661.974	-200.000	-0.025	-0.175
-660.959	-200.000	0.037	0.211
-659.945	51.128	0.072	-0.069
-658.930	440.893	-0.014	-0.030
-657.916	800.000	-0.053	0.193
-656.901	-200.000	-0.025	0.141
-655.886	238.721	0.212	-0.357
-654.872	-89.772	0.190	-0.056
-653.857	53.451	0.105	-0.102
-652.843	290.628	-0.056	0.103
-651.828	-133.152	-0.140	-0.018
-650.814	19.332	-0.175	0.143
-649.799	7.523	-0.231	0.175
-648.784	800.000	0.020	-0.080
-647.770	-47.338	0.223	-0.110
-646.755	0.907	0.209	-0.152
-645.741	800.000	-0.067	-0.220
-644.726	800.000	0.043	0.144
-643.711	-115.463	0.081	-0.016
-642.697	90.664	0.151	-0.171
-641.682	-200.000	-0.005	-0.227
-640.668	83.243	0.130	-0.144
-639.653	215.989	-0.052	0.084
-638.638	-132.231	-0.201	-0.026
-637.624	86.502	0.195	-0.218
-636.609	193.974	-0.164	0.251
-635.595	799.778	-0.141	0.395
-634.580	150.379	0.077	-0.106
-633.565	55.320	0.121	0.118
-632.551	-200.000	-0.141	0.629
-631.536	-200.000	-0.066	0.388
-630.522	625.650	-0.098	-0.249
-629.507	-200.000	0.045	-0.213
-628.492	-200.000	0.002	0.017
-627.478	77.242	0.132	0.143
-626.463	-174.704	-0.443	-0.013
-625.449	-200.000	0.010	0.059
-624.434	800.000	0.049	-0.203
-623.419	-13.060	0.326	-0.215
-622.405	166.839	-0.230	-0.330
-621.390	-200.000	0.036	0.353
-620.376	69.449	0.032	-0.033
-619.361	800.000	-0.068	-0.200
-618.346	52.662	-0.188	0.182
-617.332	155.685	0.049	-0.069
-616.317	-200.000	-0.035	0.235
-615.303	24.161	0.104	0.087
-614.288	-75.119	0.111	0.040
-613.273	657.335	-0.032	-0.084
-612.259	-114.444	0.328	-0.064
-611.244	796.350	0.079	-0.220
-610.230	-143.761	-0.115	0.011
-609.215	-195.742	-0.221	-0.002
-608.201	-118.523	0.089	-0.016
-607.186	-153.820	0.206	0.014
-606.171	-176.796	0.312	0.008
-605.157	-120.453	-0.364	0.063
-604.142	352.491	0.190	-0.380
-603.128	800.000	-0.111	-0.310
-602.113	89.699	-0.188	-0.212
-601.098	81.113	0.028	-0.031
-600.084	105.996	0.060	0.072
-599.069	202.851	0.196	0.306
-598.055	104.738	-0.166	-0.198
-597.040	-200.000	-0.021	-0.170
-596.025	672.721	0.062	-0.164
-595.011	-44.220	-0.149	-0.075
-593.996	558.286	0.103	0.251
-592.982	-200.000	0.024	-0.162
-591.967	-15.056	0.099	-0.064
-590.952	228.721	0.189	-0.311
-589.938	160.329	-0.083	0.117
-588.923	176.461	-0.112	0.164
-587.909	-81.601	0.261	-0.087
-586.894	-200.000	-0.027	0.130
-585.879	106.070	0.264	0.316
-584.865	-115.343	-0.250	0.048
-583.850	342.118	-0.129	-0.256
-582.836	19.874	-0.216	0.176
-581.821	81.496	0.108	0.119
-580.806	-119.331	-0.208	-0.037
-579.792	-169.914	0.175	-0.006
-578.777	-85.006	0.150	-0.048
-577.763	800.000	-0.034	-0.130
-576.748	199.696	0.247	-0.384
-575.733	352.056	0.020	-0.041
-574.719	-53.756	-0.052	-0.024
-573.704	-54.905	0.128	0.059
-572.690	12.217	0.198	-0.154
-571.675	58.621	0.139	-0.138
-570.661	30.607	0.172	-0.149
-569.646	714.843	-0.075	-0.200
-568.631	-71.530	-0.342	-0.129
-567.617	-5.335	0.132	-0.092
-566.602	348.673	-0.114	-0.228
-565.588	-56.962	-0.140	-0.062
-564.573	474.583	-0.088	0.201
-563.558	-104.426	-0.101	-0.024
-562.544	-138.039	0.247	0.028
-561.529	-131.776	-0.028	0.004
-560.515	-200.000	-0.013	-0.220
-559.500	-86.017	0.231	-0.072
-558.485	-7.462	0.124	-0.084
-557.471	-30.709	0.237	-0.136
-556.456	800.000	-0.097	-0.425
-555.442	77.861	-0.087	0.093
-554.427	800.000	-0.033	-0.099
-553.412	763.438	-0.029	0.079
-552.398	-200.000	-0.209	-0.000
-551.383	-87.482	-0.241	-0.074
-550.369	443.666	0.121	-0.268
-549.354	-53.374	-0.112	0.052
-548.339	-69.010	-0.075	0.029
-547.325	-71.249	-0.219	0.083
-546.310	-200.000	0.030	-0.199
-545.296	670.629	-0.076	-0.198
-544.281	64.708	-0.524	-0.534
-543.266	-52.135	0.215	-0.101
-542.252	-112.115	-0.277	-0.056
-541.237	122.831	-0.017	0.021
-540.223	82.418	-0.291	-0.319
-539.208	-175.117	-0.179	-0.005
-538.193	317.153	0.087	-0.166
-537.179	-3.223	-0.107	0.075
-536.164	-200.000	0.047	-0.279
-535.150	-200.000	0.014	0.184
-534.135	272.693	0.133	-0.237
-533.121	-12.704	-0.156	-0.103
-532.106	316.179	-0.125	0.238
-531.091	-153.402	0.276	-0.019
-530.077	-200.000	-0.033	0.199
-529.062	-96.167	-0.302	-0.081
-528.048	170.509	0.036	0.051
-527.033	356.645	0.092	0.184
-526.018	-27.463	-0.277	-0.162
-525.004	-108.357	0.346	-0.075
-523.989	-42.335	0.283	-0.146
-522.975	172.987	-0.238	0.346
-521.960	0.465	-0.083	0.060
-520.945	-23.739	0.311	0.188
-519.931	-200.000	-0.032	-0.221
-518.916	95.729	-0.073	0.084
-517.902	-200.000	-0.011	0.051
-516.887	276.976	-0.081	0.146
-515.872	-18.262	0.107	-0.068
-514.858	3.409	-0.098	0.072
-513.843	-92.568	0.399	0.113
-512.829	-107.834	-0.328	0.072
-511.814	-122.232	0.232	-0.038
-510.799	232.531	-0.092	-0.153
-509.785	108.839	-0.222	-0.267
-508.770	800.000	-0.076	0.245
-507.756	-200.000	0.026	0.126
-506.741	193.693	0.157	-0.239
-505.726	48.223	-0.067	0.063
-504.712	111.319	0.181	0.220
-503.697	528.279	0.062	0.148
-502.683	83.158	0.213	-0.234
-501.668	-200.000	0.031	-0.149
-500.653	-7.904	-0.166	-0.113
-499.639	-43.924	0.191	0.097
-498.624	-200.000	0.033	0.271
-497.610	315.677	-0.055	-0.105
-496.595	-103.901	0.327	0.077
-495.581	-141.896	0.112	-0.011
-494.566	45.679	0.094	0.087
-493.551	129.493	-0.302	-0.388
-492.537	19.566	-0.540	-0.438
-491.522	550.945	0.048	-0.117
-490.508	60.013	0.086	0.086
-489.493	-87.589	-0.260	0.079
-488.478	-72.854	-0.187	0.069
-487.464	303.273	-0.115	0.215
-486.449	-90.898	0.137	0.040
-485.435	-200.000	-0.002	-0.129
-484.420	110.825	-0.158	0.192
-483.405	41.688	-0.392	0.358
-482.391	-200.000	-0.004	0.018
-481.376	800.000	0.032	-0.132
-480.362	-200.000	0.012	0.128
-479.347	-104.733	-0.244	-0.056
-478.332	8.698	0.141	0.107
-477.318	800.000	0.023	-0.068
-476.303	612.759	0.098	0.246
-475.289	585.865	-0.105	-0.260
-474.274	-82.558	-0.079	0.026
-473.259	-200.000	0.004	-0.085
-472.245	800.000	0.105	-0.298
-471.230	800.000	-0.030	0.102
-470.216	-18.460	0.271	0.170
-469.201	-76.625	-0.141	0.050
-468.186	-200.000	-0.011	0.168
-467.172	800.000	0.029	0.127
-466.157	317.006	-0.218	-0.415
-465.143	-69.322	-0.245	0.095
-464.128	-92.679	-0.295	0.083
-463.113	-200.000	-0.031	-0.276
-462.099	254.660	-0.065	-0.112
-461.084	167.258	-0.181	0.258
-460.070	-78.528	0.372	0.128
-459.055	558.442	-0.110	0.268
-458.040	-124.021	-0.083	0.013
-457.026	240.646	0.042	0.071
-456.011	-85.686	0.102	0.032
-454.997	-200.000	0.017	-0.209
-453.982	-162.134	0.190	-0.010
-452.968	190.823	0.026	0.039
-451.953	-200.000	-0.014	0.066
-450.938	381.345	0.116	-0.240
-449.924	-200.000	-0.049	0.363
-448.909	-200.000	-0.011	-0.068
-447.895	136.944	-0.149	-0.196
-446.880	519.789	0.176	-0.414
-445.865	37.771	-0.233	-0.208
-444.851	-200.000	-0.010	0.362
-443.836	800.000	0.048	-0.152
-442.822	117.393	0.104	-0.129
-441.807	76.331	-0.180	-0.192
-440.792	-200.000	-0.033	0.241
-439.778	41.484	-0.066	0.060
-438.763	68.377	-0.088	-0.090
-437.749	32.953	-0.178	0.155
-436.734	100.738	0.215	0.252
-435.719	-200.000	-0.033	-0.184
-434.705	124.755	0.212	-0.268
-433.690	-12.012	0.137	0.090
-432.676	-167.733	0.246	0.010
-431.661	-104.211	-0.465	0.109
-430.646	395.858	-0.236	0.496
-429.632	-200.000	-0.008	0.037
-428.617	-57.675	-0.194	-0.085
-427.603	-95.343	0.265	-0.072
-426.588	-141.122	-0.229	-0.024
-425.573	43.379	0.156	-0.143
-424.559	-200.000	0.006	-0.156
-423.544	800.000	-0.046	-0.164
-422.530	-35.669	-0.172	0.094
-421.515	13.332	-0.071	0.055
-420.500	718.240	-0.020	0.054
-419.486	-47.908	0.274	0.133
-418.471	-200.000	-0.015	-0.218
-417.457	123.873	-0.125	0.157
-416.442	-110.938	0.145	0.030
-415.428	-200.000	-0.027	-0.318
-414.413	65.992	-0.101	-0.103
-413.398	54.923	-0.042	-0.041
-412.384	-57.834	-0.578	0.254
-411.369	41.839	0.298	-0.271
-410.355	-48.139	0.299	0.145
-409.340	-160.485	0.264	-0.014
-408.325	-36.263	0.047	-0.025
-407.311	-39.839	-0.259	0.136
-406.296	-148.343	-0.183	0.015
-405.282	351.536	-0.058	0.115
-404.267	-93.269	-0.226	0.063
-403.252	61.086	0.197	-0.196
-402.238	-39.322	0.166	-0.087
-401.223	-200.000	-0.017	-0.080
-400.209	-19.585	-0.044	-0.027
-399.194	108.118	-0.207	-0.248
-398.179	372.810	-0.071	0.145
-397.165	76.110	0.060	0.064
-396.150	-200.000	-0.015	0.244
-395.136	-41.327	-0.202	0.104
-394.121	-54.358	0.252	-0.115
-393.106	-200.000	0.036	-0.347
-392.092	-200.000	0.064	-0.373
-391.077	800.000	-0.041	-0.165
-390.063	32.803	0.085	0.074
-389.048	800.000	-0.038	0.115
-388.033	-200.000	0.037	0.219
-387.019	-130.034	-0.344	-0.047
-386.004	800.000	-0.099	0.426
-384.990	-66.645	-0.469	-0.186
-383.975	131.181	-0.054	0.070
-382.960	800.000	0.093	0.346
-381.946	237.774	0.070	0.116
-380.931	-119.769	0.059	-0.010
-379.917	-200.000	-0.024	0.168
-378.902	43.963	-0.091	-0.084
-377.888	225.232	0.203	0.329
-376.873	199.663	-0.149	-0.230
-375.858	-88.911	-0.171	0.051
-374.844	43.524	0.088	-0.080
-373.829	226.008	-0.059	0.095
-372.815	79.589	-0.124	0.133
-371.800	-200.000	-0.004	-0.018
-370.785	-61.733	-0.220	0.093
-369.771	-49.561	-0.068	0.032
-368.756	-106.335	-0.106	0.024
-367.742	800.000	-0.063	0.245
-366.727	-12.430	-0.253	-0.166
-365.712	-200.000	0.005	0.033
-364.698	162.542	-0.131	-0.184
-363.683	-99.823	0.345	-0.087
-362.669	-120.194	-0.145	-0.025
-361.654	-23.462	0.097	0.058
-360.639	495.533	-0.091	-0.210
-359.625	39.476	0.037	-0.033
-358.610	800.000	0.078	0.246
-357.596	545.252	0.053	0.127
-356.581	-132.231	0.214	0.028
-355.566	-115.827	-0.058	-0.011
-354.552	90.053	0.128	-0.144
-353.537	800.000	0.124	0.381
-352.523	-143.612	-0.255	0.024
-351.508	-59.025	-0.111	0.048
-350.493	255.518	0.286	0.492
-349.479	-94.333	-0.369	0.101
-348.464	-200.000	-0.045	0.253
-347.450	-200.000	-0.033	-0.170
-346.435	-142.246	0.598	-0.059
-345.420	800.000	-0.065	0.228
-344.406	10.762	-0.486	0.372
-343.391	-200.000	0.021	-0.177
-342.377	-200.000	-0.043	-0.322
-341.362	119.635	0.114	0.142
-340.348	-57.903	-0.213	0.093
-339.333	-114.564	-0.274	0.053
-338.318	-68.050	-0.265	0.104
-337.304	-200.000	0.047	-0.238
-336.289	87.825	-0.176	-0.195
-335.275	42.644	0.154	-0.140
-334.260	37.824	0.047	-0.042
-333.245	-200.000	0.043	-0.442
-332.231	-123.527	-0.176	0.028
-331.216	-59.367	-0.151	0.065
-330.202	-15.648	-0.172	0.110
-329.187	-200.000	0.081	0.441
-328.172	749.326	0.041	0.111
-327.158	290.396	-0.135	0.245
-326.143	-189.975	-0.142	-0.002
-325.129	-162.193	-0.047	-0.002
-324.114	-200.000	-0.006	0.138
-323.099	178.678	0.208	0.304
-322.085	-42.994	0.243	-0.124
-321.070	60.398	0.147	0.146
-320.056	-76.228	-0.288	0.102
-319.041	-128.541	-0.249	0.035
-318.026	-106.095	0.042	-0.009
-317.012	-80.176	0.145	-0.048
-315.997	-37.981	0.121	0.064
-314.983	264.842	0.120	0.210
-313.968	29.791	-0.327	-0.279
-312.953	-94.352	-0.189	-0.052
-311.939	698.101	0.053	0.140
-310.924	72.548	-0.195	0.203
-309.910	-200.000	-0.057	0.265
-308.895	-200.000	-0.089	-0.427
-307.880	-76.884	0.123	0.043
-306.866	38.119	-0.127	-0.113
-305.851	800.000	0.070	-0.220
-304.837	-172.943	-0.282	-0.009
-303.822	248.101	-0.098	0.166
-302.807	50.775	0.066	-0.062
-301.793	6.386	0.127	-0.094
-300.778	11.942	0.169	0.130
-299.764	-200.000	0.005	-0.066
-298.749	207.267	0.098	-0.152
-297.735	620.776	-0.114	-0.288
-296.720	-200.000	0.032	-0.267
-295.705	194.917	-0.155	0.235
-294.691	-139.407	-0.071	0.008
-293.676	800.000	-0.011	-0.041
-292.662	-9.402	0.151	0.101
-291.647	-43.042	-0.116	0.059
-290.632	170.166	0.227	-0.324
-289.618	-34.909	0.358	0.195
-288.603	-71.101	0.310	0.116
-287.589	-94.223	-0.065	0.018
-286.574	-38.288	0.044	-0.023
-285.559	537.978	0.057	-0.134
-284.545	-200.000	0.006	-0.035
-283.530	249.035	-0.198	0.334
-282.516	-167.493	0.245	0.010
-281.501	19.460	-0.128	0.102
-280.486	-75.003	-0.078	0.028
-279.472	800.000	-0.075	-0.255
-278.457	10.938	-0.229	-0.175
-277.443	-200.000	0.007	0.070
-276.428	800.000	0.098	-0.333
-275.413	108.863	-0.054	-0.064
-274.399	-5.482	0.192	-0.131
-273.384	325.629	0.114	0.218
-272.370	-11.541	0.122	0.080
-271.355	96.957	0.140	-0.160
-270.340	-69.361	0.217	0.083
-269.326	-30.707	0.028	-0.016
-268.311	-124.375	0.373	0.058
-267.297	-38.899	0.101	-0.053
-266.282	-7.969	-0.152	0.102
-265.267	-66.207	-0.321	-0.128
-264.253	-102.646	-0.472	0.112
-263.238	221.752	0.221	-0.354
-262.224	-90.087	-0.298	0.087
-261.209	-92.672	0.299	0.084
-260.195	51.326	0.181	-0.172
-259.180	-156.563	-0.122	0.008
-258.165	-135.845	-0.020	0.002
-257.151	82.855	0.026	-0.028
-256.136	457.169	0.079	0.175
-255.122	-149.724	-0.409	-0.032
-254.107	83.253	0.166	-0.181
-253.092	-132.782	0.079	0.010
-252.078	357.207	0.087	0.173
-251.063	264.798	-0.025	0.044
-250.049	-5.144	-0.007	0.005
-249.034	800.000	-0.042	0.125
-248.019	-61.058	-0.192	-0.081
-247.005	180.801	-0.175	-0.256
-245.990	37.677	-0.162	0.144
-244.976	-78.292	0.285	-0.098
-243.961	-200.000	-0.024	0.114
-242.946	-88.804	0.254	0.075
-241.932	800.000	-0.063	-0.187
-240.917	7.445	0.177	0.132
-239.903	-23.677	0.085	0.051
-238.888	-200.000	0.019	0.140
-237.873	-34.826	0.031	0.017
-236.859	226.907	0.192	0.312
-235.844	-48.712	0.188	0.090
-234.830	57.620	0.296	0.289
-233.815	761.831	-0.111	0.300
-232.800	225.075	0.137	0.222
-231.786	-33.205	0.323	-0.179
-230.771	209.243	0.048	0.075
-229.757	800.000	0.113	0.416
-228.742	-123.326	0.437	-0.070
-227.727	800.000	-0.105	0.426
-226.713	-147.684	-0.126	0.011
-225.698	-200.000	0.011	0.133
-224.684	800.000	-0.104	-0.322
-223.669	-111.682	0.231	-0.047
-222.655	-200.000	0.009	-0.104
-221.640	-200.000	0.011	-0.087
-220.625	-71.541	-0.189	-0.071
-219.611	-28.125	0.075	-0.043
-218.596	-19.834	0.102	-0.063
-217.582	277.958	-0.089	-0.158
-216.567	669.742	0.144	-0.372
-215.552	171.929	-0.028	-0.040
-214.538	-200.000	0.045	0.283
-213.523	-112.180	0.021	-0.004
-212.509	800.000	0.015	0.043
-211.494	32.573	-0.180	-0.155
-210.479	-86.953	0.104	0.032
-209.465	640.169	0.084	-0.214
-208.450	358.530	0.106	-0.210
-207.436	125.715	-0.033	0.041
-206.421	800.000	0.153	-0.426
-205.406	-200.000	0.011	-0.094
-204.392	800.000	-0.122	0.367
-203.377	274.519	0.151	0.267
-202.363	245.153	0.084	-0.141
-201.348	-77.124	0.299	-0.104
-200.333	417.282	0.141	0.301
-199.319	-200.000	0.034	0.325
-198.304	-28.032	0.107	-0.062
-197.290	-106.312	0.052	-0.012
-196.275	-200.000	-0.032	0.161
-195.260	-88.689	0.305	-0.090
-194.246	800.000	0.062	0.205
-193.231	35.392	-0.264	0.231
-192.217	53.429	0.099	-0.094
-191.202	158.783	0.085	-0.117
-190.187	-173.693	-0.385	0.011
-189.173	-38.145	0.299	0.158
-188.158	220.579	-0.102	0.163
-187.144	116.761	0.066	0.081
-186.129	128.761	0.104	0.132
-185.114	-161.811	0.285	0.014
-184.100	800.000	0.038	-0.166
-183.085	-47.180	-0.020	-0.010
-182.071	-200.000	0.047	0.239
-181.056	135.209	-0.340	0.440
-180.042	-109.389	0.324	-0.068
-179.027	-85.884	0.444	-0.137
-178.012	-55.355	0.549	0.245
-176.998	-10.189	-0.256	-0.169
-175.983	-109.486	0.245	-0.052
-174.969	-126.921	-0.053	0.008
-173.954	25.098	0.268	-0.222
-172.939	-200.000	-0.034	0.322
-171.925	-97.827	-0.135	0.035
-170.910	342.420	0.035	0.068
-169.896	16.330	0.196	-0.154
-168.881	-34.704	0.176	0.096
-167.866	-121.827	0.068	-0.011
-166.852	440.435	-0.109	-0.236
-165.837	166.041	-0.186	-0.262
-164.823	-42.986	-0.299	0.151
-163.808	-92.947	-0.163	-0.045
-162.793	-200.000	-0.048	0.282
-161.779	104.364	-0.333	0.390
-160.764	-26.515	0.233	-0.136
-159.750	131.943	0.064	0.082
-158.735	69.717	0.152	0.156
-157.720	-200.000	0.018	0.319
-156.706	-60.373	0.237	0.100
-155.691	218.581	0.067	-0.106
-154.677	-200.000	-0.017	0.078
-153.662	-90.300	-0.162	-0.047
-152.647	-200.000	0.031	-0.273
-151.633	60.109	0.182	-0.179
-150.618	247.469	0.039	0.065
-149.604	264.017	0.075	0.130
-148.589	293.621	0.032	0.059
-147.574	240.868	0.086	-0.143
-146.560	3.520	-0.172	-0.125
-145.545	3.911	0.532	-0.386
-144.531	-9.624	0.389	0.258
-143.516	-19.906	0.170	-0.105
-142.502	-200.000	-0.016	0.136
-141.487	-33.546	-0.115	-0.063
-140.472	305.663	0.067	-0.124
-139.458	353.447	0.128	-0.253
-138.443	-162.427	0.439	-0.022
-137.429	-123.195	0.213	0.034
-136.414	800.000	-0.108	0.344
-135.399	-78.128	-0.012	-0.004
-134.385	-69.110	0.213	-0.082
-133.370	-200.000	0.003	-0.158
-132.356	800.000	0.078	-0.333
-131.341	731.223	-0.068	0.181
-130.326	-79.859	-0.036	0.012
-129.312	-103.275	0.460	0.108
-128.297	-200.000	-0.002	0.210
-127.283	389.486	-0.144	-0.297
-126.268	203.511	0.069	0.106
-125.253	-83.881	0.201	-0.064
-124.239	32.229	-0.257	0.220
-123.224	-200.000	0.031	0.278
-122.210	26.015	0.184	-0.152
-121.195	80.898	0.123	0.132
-120.180	-200.000	-0.019	-0.120
-119.166	-200.000	0.035	0.422
-118.151	-200.000	-0.015	0.543
-117.137	-200.000	-0.032	0.318
-116.122	-132.025	-0.092	-0.012
-115.107	195.577	-0.058	0.087
-114.093	224.197	0.096	0.155
-113.078	-83.972	0.302	-0.095
-112.064	305.283	-0.058	0.107
-111.049	-68.991	-0.306	0.117
-110.034	72.934	0.210	-0.218
-109.020	159.456	-0.128	-0.177
-108.005	234.840	-0.013	0.021
-106.991	-200.000	0.002	-0.398
-105.976	-23.910	-0.228	-0.135
-104.962	-200.000	-0.006	-0.110
-103.947	800.000	0.041	0.152
-102.932	-68.741	-0.115	-0.044
-101.918	-200.000	0.016	-0.143
-100.903	38.106	0.335	0.296
-99.889	406.287	-0.083	-0.174
-98.874	660.631	-0.070	0.179
-97.859	-125.859	0.313	-0.047
-96.845	645.525	-0.080	-0.202
-95.830	-77.163	-0.070	0.024
-94.816	334.878	-0.083	0.159
-93.801	800.000	-0.099	0.415
-92.786	71.257	-0.236	-0.243
-91.772	126.118	-0.055	-0.069
-90.757	-43.594	0.107	0.054
-89.743	-162.874	0.212	0.010
-88.728	-200.000	-0.004	0.107
-87.713	479.197	0.227	0.510
-86.699	-200.000	0.015	0.100
-85.684	-176.772	-0.330	0.008
-84.670	800.000	-0.046	-0.127
-83.655	800.000	-0.043	-0.121
-82.640	61.878	0.218	0.215
-81.626	234.603	-0.152	0.249
-80.611	-29.513	-0.329	0.187
-79.597	282.763	0.075	0.133
-78.582	-150.519	0.230	-0.017
-77.567	73.397	0.137	0.142
-76.553	217.915	0.089	0.141
-75.538	-158.021	0.396	-0.023
-74.524	101.613	-0.135	-0.156
-73.509	289.203	0.151	-0.272
-72.494	-200.000	0.048	-0.262
-71.480	-12.568	0.258	0.167
-70.465	96.678	-0.160	-0.182
-69.451	8.248	-0.069	-0.051
-68.436	-151.168	0.242	0.018
-67.422	613.043	0.157	-0.389
-66.407	-60.217	0.384	-0.162
-65.392	800.000	0.093	0.391
-64.378	-173.029	0.183	-0.006
-63.363	-200.000	0.027	-0.140
-62.349	114.700	-0.178	0.215
-61.334	112.584	-0.616	-0.739
-60.319	340.224	0.125	0.242
-59.305	800.000	-0.303	-0.927
-58.290	309.567	0.596	1.104
-57.276	477.315	0.742	1.663
-56.261	-200.000	101.600	595.750
-55.246	601.482	1423.455	3503.763
-54.232	178.870	2651.161	3839.236
-53.217	111.153	2345.290	2798.851
-52.203	41.365	2089.706	1872.497
-51.188	36.455	2002.281	1749.750
-50.173	35.020	1983.402	1720.298
-49.159	49.726	2037.888	1901.988
-48.144	52.150	2057.329	1942.173
-47.130	37.113	2012.626	1764.504
-46.115	34.630	2001.400	1732.098
-45.100	34.592	1997.970	1728.712
-44.086	34.584	1996.040	1726.907
-43.071	34.450	1993.162	1723.135
-42.057	34.491	1991.404	1721.922
-41.042	34.410	1989.957	1719.870
-40.027	34.562	1987.785	1719.296
-39.013	34.582	1985.455	1717.386
-37.998	34.584	1983.506	1715.651
-36.984	34.611	1982.309	1714.793
-35.969	34.544	1980.426	1712.495
-34.954	34.498	1978.398	1710.259
-33.940	34.593	1977.138	1709.952
-32.925	34.596	1975.642	1708.621
-31.911	34.587	1974.273	1707.285
-30.896	34.692	1971.718	1705.948
-29.881	34.554	1970.938	1703.975
-28.867	34.680	1968.624	1703.030
-27.852	34.724	1966.787	1701.765
-26.838	34.619	1965.175	1699.364
-25.823	34.667	1962.871	1697.732
-24.809	34.701	1961.156	1696.488
-23.794	34.675	1959.723	1694.947
-22.779	34.660	1958.126	1693.368
-21.765	34.628	1956.156	1691.312
-20.750	34.677	1954.541	1690.282
-19.736	34.751	1953.045	1689.577
-18.721	34.693	1951.561	1687.710
-17.706	34.589	1950.693	1685.976
-16.692	34.622	1948.702	1684.475
-15.677	34.599	1946.650	1682.436
-14.663	34.645	1945.483	1681.769
-13.648	34.721	1944.051	1681.126
-12.633	34.665	1942.500	1679.231
-11.619	34.606	1941.805	1678.042
-10.604	34.624	1940.026	1676.594
-9.590	34.655	1938.302	1675.315
-8.575	34.595	1937.519	1674.042
-7.560	34.631	1935.813	1672.820
-6.546	34.625	1934.809	1671.832
-5.531	34.610	1933.438	1670.448
-4.517	34.580	1932.536	1669.339
-3.502	34.621	1930.969	1668.280
-2.487	34.621	1929.680	1667.097
-1.473	34.565	1929.047	1666.001
-0.458	34.605	1924.479	1662.335
0.556	31.679	1903.158	1630.280
1.571	26.951	1881.881	1571.094
2.586	22.356	1902.822	1548.116
3.600	21.084	1938.848	1565.880
4.615	20.704	1935.411	1559.563
5.629	16.033	1834.816	1438.590
6.644	6.015	1712.634	1262.487
7.659	0.226	1672.311	1187.124
8.673	-0.287	1668.753	1180.457
9.688	-0.353	1667.262	1178.773
10.702	-0.321	1665.375	1177.586
11.717	-0.418	1662.252	1174.515
12.731	-0.057	1661.598	1176.775
13.746	6.276	1677.624	1237.971
14.761	15.404	1697.490	1324.894
15.775	18.858	1702.267	1355.808
16.790	18.760	1701.876	1354.599
17.804	18.821	1701.289	1354.494
18.819	18.815	1700.228	1353.481
19.834	18.853	1699.888	1353.391
20.848	19.133	1698.890	1354.683
21.863	19.202	1698.136	1354.503
22.877	19.031	1697.257	1352.333
23.892	19.122	1696.374	1352.231
24.907	19.129	1695.319	1351.320
25.921	19.161	1693.821	1350.263
26.936	19.186	1692.841	1349.552
27.950	19.150	1692.360	1348.772
28.965	19.114	1692.231	1348.264
29.980	19.127	1690.770	1347.088
30.994	19.134	1689.174	1345.752
32.009	19.178	1687.766	1344.850
33.023	19.080	1687.611	1343.845
34.038	19.115	1686.365	1343.009
35.053	19.129	1685.310	1342.154
36.067	19.149	1683.990	1341.141
37.082	19.096	1683.073	1339.878
38.096	19.161	1681.842	1339.289
39.111	19.245	1681.040	1339.181
40.126	19.205	1679.871	1337.822
41.140	19.173	1679.391	1337.071
42.155	19.084	1678.285	1335.386
43.169	19.031	1677.481	1334.215
44.184	19.173	1676.386	1334.329
45.199	19.183	1674.557	1332.827
46.213	19.093	1674.075	1331.629
47.228	19.071	1672.503	1330.098
48.242	19.183	1670.884	1329.557
49.257	19.118	1670.186	1328.376
50.271	19.088	1669.010	1327.097
51.286	19.068	1667.994	1326.013
52.301	19.069	1666.906	1325.039
53.315	19.161	1664.838	1323.988
54.330	19.204	1663.317	1322.993
55.344	19.165	1662.313	1321.771
56.359	19.165	1660.747	1320.415
57.374	19.130	1659.403	1318.960
58.388	19.134	1658.707	1318.323
59.403	19.152	1657.765	1317.593
60.417	19.152	1656.135	1316.179
61.432	19.168	1655.360	1315.570
62.447	19.189	1653.949	1314.490
63.461	19.174	1652.951	1313.467
64.476	19.185	1652.032	1312.705
65.490	19.134	1650.973	1311.359
66.505	19.162	1649.499	1310.284
67.520	19.255	1648.623	1310.184
68.534	19.206	1647.613	1308.889
69.549	19.153	1646.509	1307.497
70.563	19.136	1644.956	1306.015
71.578	19.195	1644.138	1305.699
72.593	19.220	1642.824	1304.734
73.607	19.195	1642.287	1304.001
74.622	19.159	1641.085	1302.655
75.636	19.151	1640.077	1301.678
76.651	19.121	1639.198	1300.638
77.666	19.121	1638.700	1300.134
78.680	19.203	1637.206	1299.449
79.695	19.174	1636.377	1298.460
80.709	19.227	1635.232	1297.833
81.724	19.280	1634.113	1297.227
82.739	19.218	1633.214	1295.935
83.753	19.241	1631.670	1294.766
84.768	19.124	1631.362	1293.527
85.782	19.145	1629.848	1292.371
86.797	19.232	1629.429	1292.581
87.812	19.163	1627.986	1290.804
88.826	19.174	1626.835	1289.859
89.841	19.210	1626.145	1289.469
90.855	19.250	1624.997	1288.739
91.870	19.221	1623.987	1287.607
92.884	19.255	1622.607	1286.656
93.899	19.248	1622.029	1286.033
94.914	19.220	1620.534	1284.526
95.928	19.272	1619.348	1283.859
96.943	19.313	1617.843	1282.856
97.957	19.267	1616.427	1281.275
98.972	19.180	1615.569	1279.835
99.987	19.343	1613.357	1279.185
101.001	19.282	1611.860	1277.431
102.016	19.283	1610.388	1276.160
103.030	19.253	1609.056	1274.764
104.045	19.226	1608.035	1273.645
105.060	19.221	1606.490	1272.276
106.074	19.176	1605.427	1270.982
107.089	19.185	1604.229	1269.993
108.103	19.225	1602.750	1269.004
109.118	19.277	1601.586	1268.354
110.133	19.236	1600.254	1266.886
111.147	19.248	1598.640	1265.584
112.162	19.283	1597.625	1264.920
113.176	19.312	1595.889	1263.652
114.191	19.279	1594.428	1262.140
115.206	19.293	1593.313	1261.244
116.220	19.344	1591.557	1260.119
117.235	19.269	1591.030	1259.042
118.249	19.271	1589.788	1257.962
119.264	19.226	1588.734	1256.688
120.279	19.221	1587.101	1255.251
121.293	19.248	1585.596	1254.140
122.308	19.326	1584.074	1253.398
123.322	19.308	1582.699	1252.070
124.337	19.282	1581.294	1250.656
125.352	19.392	1579.618	1250.016
126.366	19.317	1578.659	1248.603
127.381	19.341	1578.110	1248.230
128.395	19.315	1577.127	1247.155
129.410	19.390	1575.622	1246.399
130.424	19.358	1574.125	1244.872
131.439	19.344	1572.818	1243.629
132.454	19.419	1571.483	1243.001
133.468	19.402	1569.879	1241.503
134.483	19.313	1569.146	1240.170
135.497	19.334	1567.914	1239.243
136.512	19.419	1566.619	1238.716
137.527	19.398	1565.286	1237.403
138.541	19.374	1563.749	1235.903
139.556	19.375	1562.625	1234.917
140.570	19.414	1561.234	1233.986
141.585	19.402	1559.981	1232.799
142.600	19.419	1558.810	1231.889
143.614	19.371	1557.849	1230.678
144.629	19.397	1556.075	1229.353
145.643	19.323	1555.464	1228.235
146.658	19.290	1554.058	1226.780
147.673	19.285	1552.496	1225.405
148.687	19.370	1550.997	1224.716
149.702	19.346	1549.741	1223.446
150.716	19.353	1548.123	1222.108
151.731	19.307	1547.550	1221.224
152.746	19.386	1546.195	1220.607
153.760	19.363	1545.006	1219.391
154.775	19.408	1543.573	1218.472
155.789	19.424	1542.424	1217.569
156.804	19.399	1541.632	1216.665
157.819	19.400	1540.229	1215.451
158.833	19.373	1539.511	1214.587
159.848	19.402	1538.305	1213.736
160.862	19.410	1537.168	1212.789
161.877	19.507	1536.031	1212.466
162.892	19.459	1535.152	1211.324
163.906	19.437	1534.154	1210.275
164.921	19.500	1532.902	1209.620
165.935	19.451	1532.094	1208.536
166.950	19.443	1531.138	1207.620
167.964	19.431	1529.893	1206.445
168.979	19.432	1528.945	1205.600
169.994	19.491	1527.853	1205.043
171.008	19.506	1527.192	1204.517
172.023	19.449	1526.334	1203.339
173.037	19.502	1525.272	1202.768
174.052	19.471	1523.611	1201.129
175.067	19.574	1522.772	1201.084
176.081	19.504	1522.050	1199.916
177.096	19.548	1520.662	1199.022
178.110	19.441	1519.682	1197.403
179.125	19.539	1518.642	1197.160
180.140	19.610	1517.771	1196.860
181.154	19.530	1517.358	1195.870
182.169	19.549	1515.956	1194.788
183.183	19.541	1514.497	1193.478
184.198	19.526	1513.980	1192.863
185.213	19.574	1512.747	1192.122
186.227	19.541	1512.198	1191.353
187.242	19.594	1511.402	1190.986
188.256	19.478	1510.675	1189.504
189.271	19.527	1509.481	1188.800
190.286	19.605	1508.489	1188.453
191.300	19.579	1507.553	1187.428
192.315	19.630	1506.770	1187.056
193.329	19.585	1505.569	1185.699
194.344	19.543	1505.020	1184.873
195.359	19.576	1504.239	1184.379
196.373	19.579	1503.367	1183.609
197.388	19.489	1502.345	1182.079
198.402	19.511	1501.130	1181.170
199.417	19.519	1499.947	1180.188
200.432	19.597	1498.821	1179.733
201.446	19.562	1498.722	1179.311
202.461	19.517	1497.770	1178.153
203.475	19.567	1496.749	1177.584
204.490	19.633	1495.334	1176.815
205.504	19.653	1494.745	1176.386
206.519	19.611	1493.721	1175.187
207.534	19.592	1493.119	1174.484
208.548	19.664	1491.871	1173.886
209.563	19.637	1490.880	1172.819
210.577	19.633	1489.861	1171.887
211.592	19.625	1489.454	1171.410
212.607	19.656	1488.424	1170.708
213.621	19.635	1488.084	1170.190
214.636	19.721	1487.707	1170.374
215.650	19.734	1486.260	1169.218
216.665	19.595	1485.985	1167.957
217.680	19.750	1484.411	1167.668
218.694	19.668	1484.159	1166.809
219.709	19.679	1483.153	1165.994
220.723	19.685	1482.089	1165.094
221.738	19.767	1481.235	1164.868
222.753	19.623	1480.777	1163.437
223.767	19.653	1479.169	1162.272
224.782	19.611	1478.604	1161.444
225.796	19.723	1477.723	1161.400
226.811	19.771	1476.926	1160.993
227.826	19.804	1476.269	1160.599
228.840	19.731	1475.632	1159.502
229.855	19.891	1474.480	1159.569
230.869	19.766	1473.716	1158.028
231.884	19.671	1472.958	1156.691
232.899	19.848	1471.074	1156.292
233.913	19.815	1470.289	1155.355
234.928	19.710	1469.974	1154.307
235.942	19.769	1468.902	1153.751
236.957	19.961	1467.162	1153.566
237.972	19.897	1466.212	1152.291
238.986	19.826	1465.481	1151.139
240.001	19.810	1464.708	1150.323
241.015	19.795	1463.517	1149.191
242.030	19.997	1462.546	1149.665
243.045	19.927	1461.502	1148.280
244.059	19.938	1461.032	1147.878
245.074	19.986	1459.927	1147.230
246.088	19.898	1459.440	1146.164
247.103	19.951	1458.692	1145.825
248.117	19.943	1457.997	1145.123
249.132	19.935	1456.768	1144.007
250.147	19.909	1456.164	1143.258
251.161	20.022	1455.592	1143.452
252.176	20.057	1454.771	1142.936
253.190	20.072	1454.243	1142.520
254.205	20.111	1453.096	1141.772
255.220	20.109	1451.943	1140.758
256.234	20.000	1451.566	1139.638
257.249	19.957	1451.111	1138.899
258.263	20.135	1449.769	1138.917
259.278	20.025	1448.763	1137.299
260.293	19.994	1448.400	1136.714
261.307	20.099	1447.645	1136.707
262.322	20.057	1446.903	1135.747
263.336	20.106	1446.014	1135.273
264.351	20.093	1445.064	1134.344
265.366	20.037	1444.609	1133.520
266.380	20.087	1443.635	1132.980
267.395	20.007	1442.586	1131.531
268.409	20.080	1441.905	1131.378
269.424	19.984	1441.734	1130.517
270.439	20.032	1440.062	1129.418
271.453	20.112	1438.951	1128.967
272.468	20.081	1438.609	1128.398
273.482	20.069	1437.664	1127.479
274.497	20.090	1436.815	1126.848
275.512	20.036	1436.456	1126.117
276.526	20.166	1435.589	1126.180
277.541	20.183	1434.286	1125.170
278.555	20.174	1433.352	1124.277
279.570	20.224	1432.461	1123.804
280.585	20.254	1431.890	1123.453
281.599	20.149	1430.948	1121.935
282.614	20.157	1430.424	1121.478
283.628	20.292	1428.661	1120.867
284.643	20.201	1428.075	1119.718
285.657	20.312	1426.840	1119.366
286.672	20.144	1426.722	1118.093
287.687	20.184	1425.847	1117.567
288.701	20.154	1424.545	1116.254
289.716	20.217	1423.869	1116.033
290.730	20.311	1423.426	1116.191
291.745	20.401	1421.878	1115.457
292.760	20.342	1421.165	1114.420
293.774	20.334	1420.184	1113.500
294.789	20.309	1419.258	1112.516
295.803	20.321	1418.825	1112.152
296.818	20.274	1417.924	1111.049
297.833	20.321	1417.088	1110.597
298.847	20.295	1416.191	1109.626
299.862	20.385	1415.053	1109.210
300.876	20.318	1414.680	1108.394
301.891	20.359	1413.127	1107.342
302.906	20.340	1412.983	1107.010
303.920	20.397	1412.335	1106.764
304.935	20.454	1411.740	1106.567
305.949	20.357	1410.641	1104.988
306.964	20.414	1409.808	1104.602
307.979	20.399	1409.007	1103.779
308.993	20.472	1407.714	1103.133
310.008	20.494	1406.893	1102.531
311.022	20.531	1406.108	1102.055
312.037	20.483	1405.247	1100.977
313.052	20.462	1404.481	1100.146
314.066	20.513	1403.046	1099.246
315.081	20.514	1402.352	1098.615
316.095	20.598	1401.340	1098.256
317.110	20.445	1400.804	1096.767
318.125	20.541	1399.792	1096.490
319.139	20.538	1399.059	1095.795
320.154	20.568	1398.458	1095.418
321.168	20.507	1397.359	1094.074
322.183	20.507	1396.287	1093.139
323.197	20.543	1395.163	1092.392
324.212	20.557	1394.045	1091.505
325.227	20.621	1393.749	1091.581
326.241	20.568	1392.602	1090.251
327.256	20.599	1392.008	1089.886
328.270	20.644	1391.645	1089.782
329.285	20.623	1390.584	1088.723
330.300	20.620	1389.563	1087.812
331.314	20.594	1388.882	1087.018
332.329	20.584	1388.248	1086.362
333.343	20.767	1387.092	1086.506
334.358	20.673	1386.860	1085.644
335.373	20.708	1385.733	1084.882
336.387	20.768	1385.183	1084.730
337.402	20.691	1384.602	1083.698
338.416	20.729	1383.753	1083.175
339.431	20.744	1383.217	1082.755
340.446	20.864	1382.423	1082.783
341.460	20.730	1381.447	1081.087
342.475	20.797	1380.734	1080.853
343.489	20.800	1379.901	1080.124
344.504	20.857	1378.818	1079.529
345.519	20.720	1377.947	1077.904
346.533	20.859	1377.275	1078.148
347.548	20.769	1376.489	1076.876
348.562	20.864	1375.584	1076.662
349.577	20.854	1374.357	1075.544
350.592	20.903	1373.922	1075.410
351.606	20.944	1373.001	1074.845
352.621	20.871	1372.007	1073.527
353.635	20.760	1371.540	1072.380
354.650	20.832	1370.207	1071.689
355.665	20.950	1369.028	1071.396
356.679	20.886	1368.301	1070.336
357.694	21.011	1366.806	1069.844
358.708	20.961	1366.101	1068.887
359.723	20.964	1365.163	1068.080
360.738	20.837	1364.051	1066.335
361.752	20.949	1362.641	1065.826
362.767	20.968	1361.807	1065.193
363.781	20.960	1361.087	1064.486
364.796	21.093	1360.054	1064.397
365.810	21.040	1359.782	1063.768
366.825	21.017	1359.012	1062.928
367.840	20.955	1358.444	1062.011
368.854	21.066	1357.917	1062.184
369.869	21.142	1356.932	1061.783
370.883	21.110	1356.161	1060.892
371.898	20.989	1355.858	1059.826
372.913	20.992	1355.246	1059.271
373.927	21.130	1354.303	1059.277
374.942	21.131	1353.383	1058.470
375.956	21.115	1352.869	1057.876
376.971	21.228	1351.841	1057.661
377.986	21.132	1351.261	1056.537
379.000	21.141	1350.245	1055.699
380.015	21.240	1349.620	1055.718
381.029	21.132	1349.424	1054.817
382.044	21.134	1348.381	1053.920
383.059	21.186	1347.820	1053.703
384.073	21.258	1346.915	1053.335
385.088	21.318	1346.590	1053.349
386.102	21.270	1345.884	1052.419
387.117	21.201	1345.041	1051.248
388.132	21.378	1343.948	1051.364
389.146	21.348	1343.245	1050.541
390.161	21.255	1342.682	1049.450
391.175	21.292	1341.957	1049.016
392.190	21.282	1341.398	1048.426
393.205	21.241	1340.958	1047.741
394.219	21.341	1339.236	1046.904
395.234	21.359	1337.901	1045.876
396.248	21.274	1336.981	1044.551
397.263	21.389	1335.849	1044.265
398.278	21.398	1334.907	1043.491
399.292	21.409	1333.900	1042.675
400.307	21.377	1333.305	1041.927
401.321	21.463	1332.281	1041.549
402.336	21.374	1331.375	1040.216
403.350	21.411	1330.137	1039.376
404.365	21.483	1329.071	1038.878
405.380	21.366	1328.485	1037.637
406.394	21.475	1327.632	1037.522
407.409	21.485	1326.839	1036.873
408.423	21.467	1326.000	1036.015
409.438	21.574	1325.589	1036.239
410.453	21.667	1324.335	1035.716
411.467	21.572	1323.997	1034.798
412.482	21.602	1323.346	1034.375
413.496	21.551	1322.807	1033.562
414.511	21.539	1322.076	1032.828
415.526	21.557	1321.284	1032.221
416.540	21.660	1320.087	1031.807
417.555	21.539	1319.821	1030.794
418.569	21.503	1319.230	1030.028
419.584	21.478	1319.226	1029.788
420.599	21.618	1318.089	1029.633
421.613	137.182	1427.905	1791.849
422.628	133.492	1443.868	1791.951
