DTS Sentinel unit serial number:	SN413079Multiplexer serial number:	ORYXHardware model number:	OX4-SRSoftware version number:	ORYX F/W v4.00 Oryx Data Collector v3.7.2.0data status	okinstallation	princeton_trtdifferential loss correction	single-endedforward channel	channel 4reverse channel	N/Adate	2019/09/10time	19:55:11forward acquisition time	60.00reverse acquisition time	0.00gamma	496.2192k internal	0.2310k external	0.2310temperature offset calibration	0.9950default loss term (dB/km)	0.3790temperature slope calibration	1.0000multiplexer offset coefficient	1.0000multiplexer slope coefficient	1.0000fibre end	0.00T internal ref (°C)	32.75T ext. ref 1 (°C)	-0.31T ext. ref 2 (°C)	25.76length (m)	temperature (°C)	Stokes	anti-Stokes-747.200	-200.000	0.031	-0.147
-746.185	9.266	-0.235	0.181
-745.171	-200.000	-0.047	0.378
-744.156	-87.308	0.131	-0.040
-743.142	-89.248	0.190	0.057
-742.127	69.942	0.167	0.175
-741.112	-95.520	0.160	-0.043
-740.098	23.460	-0.253	0.211
-739.083	148.931	0.086	0.118
-738.069	-124.826	-0.167	0.026
-737.054	92.469	0.254	0.291
-736.039	-42.747	-0.246	-0.127
-735.025	45.152	0.290	0.272
-734.010	-110.938	-0.376	0.079
-732.996	228.597	0.091	0.151
-731.981	-200.000	0.073	0.363
-730.966	-147.590	-0.229	0.020
-729.952	45.304	0.111	-0.104
-728.937	324.192	-0.111	-0.216
-727.923	75.178	-0.250	-0.268
-726.908	71.274	-0.067	-0.070
-725.894	-200.000	0.006	0.423
-724.879	-123.977	-0.090	-0.014
-723.864	-200.000	-0.050	-0.269
-722.850	103.304	-0.212	-0.252
-721.835	663.238	-0.122	0.320
-720.821	-200.000	-0.013	-0.148
-719.806	120.747	0.203	-0.256
-718.791	14.727	-0.256	0.203
-717.777	-79.608	0.347	-0.119
-716.762	188.035	-0.058	0.089
-715.748	413.728	0.171	-0.370
-714.733	-33.932	-0.236	-0.132
-713.718	-200.000	-0.041	0.227
-712.704	-16.609	-0.137	-0.088
-711.689	384.196	0.070	0.147
-710.675	-25.329	0.184	0.110
-709.660	86.505	-0.080	-0.090
-708.645	-21.366	0.210	-0.130
-707.631	166.292	0.127	0.183
-706.616	800.000	-0.023	-0.072
-705.602	-75.414	-0.369	0.133
-704.587	436.233	-0.077	0.170
-703.572	-95.587	-0.197	0.054
-702.558	-119.420	-0.354	-0.062
-701.543	-60.724	-0.179	0.077
-700.529	241.744	0.082	0.139
-699.514	-165.839	-0.198	0.009
-698.499	423.331	-0.170	-0.370
-697.485	422.342	-0.018	0.040
-696.470	77.351	-0.122	0.132
-695.456	253.306	-0.260	0.450
-694.441	-200.000	0.038	0.316
-693.426	800.000	0.018	-0.063
-692.412	-62.779	-0.416	0.175
-691.397	-200.000	0.020	0.167
-690.383	-4.814	-0.278	-0.194
-689.368	33.558	-0.097	-0.085
-688.354	-84.907	0.111	0.035
-687.339	-77.051	0.330	-0.117
-686.324	-4.595	-0.089	0.062
-685.310	695.595	0.035	-0.094
-684.295	-200.000	-0.003	0.207
-683.281	363.902	-0.050	-0.102
-682.266	-73.635	-0.175	0.065
-681.251	-99.066	-0.215	-0.055
-680.237	186.973	-0.137	-0.207
-679.222	-36.212	0.017	0.010
-678.208	-200.000	-0.016	0.109
-677.193	-40.611	-0.090	0.047
-676.178	-72.889	-0.364	0.135
-675.164	800.000	-0.093	0.339
-674.149	-68.286	-0.108	0.043
-673.135	228.135	0.072	0.118
-672.120	-124.562	0.263	-0.041
-671.105	564.111	-0.083	0.205
-670.091	50.804	0.070	-0.067
-669.076	-200.000	0.006	-0.041
-668.062	-200.000	0.000	0.049
-667.047	25.203	0.042	-0.036
-666.032	-200.000	-0.033	-0.379
-665.018	44.800	-0.153	-0.143
-664.003	437.596	0.058	0.129
-662.989	800.000	-0.038	0.137
-661.974	233.142	-0.134	-0.223
-660.959	4.292	-0.233	-0.173
-659.945	-70.491	0.098	0.037
-658.930	-134.740	-0.037	-0.005
-657.916	-104.117	0.164	0.039
-656.901	-30.100	-0.145	-0.083
-655.886	-200.000	-0.021	-0.114
-654.872	-200.000	-0.013	0.157
-653.857	-200.000	0.011	0.336
-652.843	-103.146	-0.113	-0.027
-651.828	99.788	0.152	-0.178
-650.814	-74.595	-0.249	0.091
-649.799	-127.828	-0.095	0.014
-648.784	50.898	-0.321	0.308
-647.770	609.247	-0.034	-0.087
-646.755	186.334	-0.101	0.152
-645.741	114.907	-0.136	-0.168
-644.726	800.000	0.078	-0.312
-643.711	800.000	0.049	0.212
-642.697	63.921	0.068	0.069
-641.682	123.254	-0.081	0.102
-640.668	157.801	0.160	0.224
-639.653	-200.000	0.031	-0.228
-638.638	-200.000	0.005	-0.193
-637.624	743.047	0.089	0.241
-636.609	-143.871	-0.178	-0.017
-635.595	-200.000	-0.069	-0.460
-634.580	352.938	-0.101	0.202
-633.565	162.998	-0.108	0.154
-632.551	157.230	-0.289	0.405
-631.536	176.841	-0.235	0.345
-630.522	-8.064	0.275	-0.188
-629.507	-84.513	-0.324	0.103
-628.492	40.244	-0.267	0.243
-627.478	-120.727	0.163	0.028
-626.463	-133.814	-0.184	-0.023
-625.449	-121.771	0.328	-0.055
-624.434	224.811	0.112	0.183
-623.419	345.983	0.039	0.077
-622.405	800.000	-0.116	-0.345
-621.390	12.679	-0.344	-0.269
-620.376	-165.601	-0.190	0.008
-619.361	-200.000	-0.003	0.023
-618.346	44.391	0.204	0.190
-617.332	583.923	-0.108	0.267
-616.317	314.620	0.132	-0.251
-615.303	-200.000	0.015	-0.069
-614.288	-200.000	-0.022	0.195
-613.273	508.843	-0.038	-0.089
-612.259	38.811	-0.145	-0.131
-611.244	-42.548	0.125	-0.064
-610.230	800.000	0.125	-0.355
-609.215	-54.566	0.075	-0.034
-608.201	-99.985	0.201	0.051
-607.186	338.084	-0.132	-0.259
-606.171	281.997	-0.080	-0.145
-605.157	-73.618	0.389	-0.143
-604.142	-34.893	-0.162	-0.089
-603.128	-151.110	0.112	-0.008
-602.113	-19.877	-0.010	0.006
-601.098	30.210	0.236	-0.203
-600.084	-173.941	0.368	-0.011
-599.069	117.628	-0.113	0.141
-598.055	-200.000	0.058	-0.368
-597.040	-23.451	-0.118	-0.071
-596.025	800.000	0.054	0.195
-595.011	-110.064	-0.098	-0.021
-593.996	800.000	-0.042	0.141
-592.982	-15.797	-0.242	-0.155
-591.967	124.109	-0.251	0.319
-590.952	-77.318	0.226	0.079
-589.938	627.885	0.063	-0.161
-588.923	458.000	-0.191	-0.428
-587.909	211.672	-0.080	-0.126
-586.894	-200.000	-0.003	-0.071
-585.879	-75.117	0.419	-0.151
-584.865	-127.093	0.168	-0.025
-583.850	101.866	-0.095	0.112
-582.836	132.001	-0.225	-0.293
-581.821	-114.164	-0.164	-0.032
-580.806	673.603	-0.037	0.098
-579.792	230.718	0.109	0.180
-578.777	5.424	0.284	-0.212
-577.763	380.877	-0.057	0.118
-576.748	-56.741	-0.153	-0.069
-575.733	-105.465	0.079	-0.018
-574.719	29.534	0.197	0.169
-573.704	598.697	-0.049	0.123
-572.690	45.205	0.042	0.039
-571.675	-147.006	0.280	0.024
-570.661	-200.000	-0.013	-0.303
-569.646	-179.430	0.115	0.003
-568.631	93.925	0.110	0.125
-567.617	117.976	0.200	0.249
-566.602	137.364	0.251	-0.332
-565.588	-200.000	-0.098	0.000
-564.573	487.380	-0.121	0.277
-563.558	692.640	-0.043	0.114
-562.544	358.806	-0.129	0.259
-561.529	-200.000	0.020	0.295
-560.515	61.216	0.142	-0.142
-559.500	-108.393	-0.352	-0.077
-558.485	-200.000	-0.037	-0.193
-557.471	-29.231	-0.330	-0.191
-556.456	298.057	0.009	0.017
-555.442	-191.089	0.196	-0.002
-554.427	-200.000	0.017	-0.078
-553.412	-54.949	0.115	-0.052
-552.398	-116.152	0.188	-0.035
-551.383	-16.472	-0.112	-0.072
-550.369	-67.809	0.261	-0.103
-549.354	-200.000	-0.021	-0.117
-548.339	51.159	0.246	0.235
-547.325	-127.055	-0.148	-0.022
-546.310	22.584	-0.031	-0.026
-545.296	-55.517	-0.056	0.025
-544.281	-74.946	0.375	-0.135
-543.266	43.397	-0.158	0.145
-542.252	22.412	-0.206	-0.170
-541.237	219.048	0.024	-0.039
-540.223	-183.467	0.129	-0.002
-539.208	-16.876	-0.066	-0.042
-538.193	280.222	0.136	0.245
-537.179	441.345	0.047	0.105
-536.164	800.000	-0.125	-0.381
-535.150	-200.000	0.051	0.284
-534.135	-192.628	-0.252	0.002
-533.121	-94.624	0.223	-0.061
-532.106	-40.726	-0.115	-0.060
-531.091	-88.728	-0.269	-0.081
-530.077	378.785	-0.025	-0.051
-529.062	175.869	0.224	0.328
-528.048	-12.429	0.272	0.179
-527.033	-143.263	0.062	0.006
-526.018	93.365	-0.028	0.032
-525.004	-131.313	-0.220	-0.029
-523.989	-200.000	-0.030	-0.144
-522.975	277.740	-0.105	-0.189
-521.960	-200.000	-0.016	0.190
-520.945	104.598	-0.095	0.112
-519.931	80.511	0.129	0.139
-518.916	-200.000	0.006	0.266
-517.902	-200.000	-0.013	-0.062
-516.887	-102.607	0.154	-0.037
-515.872	-200.000	0.028	0.223
-514.858	-91.229	-0.225	-0.065
-513.843	-200.000	-0.018	-0.158
-512.829	-131.593	-0.218	0.029
-511.814	38.524	0.073	0.066
-510.799	588.212	-0.084	-0.209
-509.785	-162.483	-0.235	0.012
-508.770	70.504	0.087	0.090
-507.756	69.339	-0.125	-0.129
-506.741	270.449	0.154	-0.272
-505.726	-126.712	-0.124	-0.018
-504.712	216.764	0.159	0.254
-503.697	-200.000	-0.007	-0.178
-502.683	-24.501	-0.097	-0.058
-501.668	-200.000	0.042	0.473
-500.653	-41.215	0.141	0.073
-499.639	-89.446	-0.199	-0.059
-498.624	-159.189	0.185	-0.010
-497.610	-200.000	0.056	-0.264
-496.595	-87.463	0.236	0.072
-495.581	-200.000	-0.001	0.047
-494.566	294.282	-0.206	0.378
-493.551	-200.000	0.012	-0.081
-492.537	-92.663	0.147	0.041
-491.522	-96.430	0.361	-0.096
-490.508	744.550	-0.096	0.259
-489.493	800.000	0.024	0.074
-488.478	727.317	0.177	-0.475
-487.464	207.108	0.159	0.249
-486.449	27.810	0.122	0.104
-485.435	-101.169	-0.154	-0.038
-484.420	-41.782	0.047	0.024
-483.405	-90.745	-0.227	-0.066
-482.391	-53.606	-0.135	-0.062
-481.376	-60.096	0.261	-0.112
-480.362	-200.000	-0.032	-0.198
-479.347	-23.820	0.380	0.229
-478.332	-180.837	-0.278	0.006
-477.318	-43.772	-0.443	-0.224
-476.303	800.000	-0.020	0.056
-475.289	60.021	-0.005	-0.005
-474.274	-16.998	0.042	-0.027
-473.259	-200.000	0.014	0.249
-472.245	101.641	-0.126	-0.148
-471.230	-57.741	0.196	0.086
-470.216	-99.226	0.419	-0.106
-469.201	-7.647	-0.349	-0.237
-468.186	-73.396	0.079	-0.029
-467.172	21.097	-0.139	-0.113
-466.157	-24.898	-0.124	0.074
-465.143	-158.948	-0.340	0.019
-464.128	-153.732	0.109	-0.008
-463.113	86.909	0.334	-0.371
-462.099	-142.520	0.391	-0.039
-461.084	800.000	0.070	0.201
-460.070	-80.022	-0.560	-0.189
-459.055	198.609	0.110	0.169
-458.040	-200.000	-0.005	0.339
-457.026	-74.952	-0.272	-0.098
-456.011	-158.462	0.193	-0.011
-454.997	800.000	-0.112	-0.319
-453.982	-125.048	0.051	-0.008
-452.968	-156.546	0.171	-0.011
-451.953	-11.350	-0.349	0.231
-450.938	205.078	-0.100	-0.156
-449.924	36.822	-0.058	0.052
-448.909	38.529	0.256	0.229
-447.895	287.462	0.138	-0.250
-446.880	458.817	-0.069	0.153
-445.865	-28.864	0.211	0.122
-444.851	613.354	-0.066	0.166
-443.836	-104.254	-0.223	-0.052
-442.822	-124.653	-0.094	-0.015
-441.807	-200.000	0.004	0.018
-440.792	800.000	-0.103	0.290
-439.778	419.654	0.084	0.181
-438.763	160.637	-0.149	-0.208
-437.749	476.558	-0.077	-0.174
-436.734	53.868	0.130	-0.125
-435.719	21.055	0.137	-0.111
-434.705	132.393	0.238	0.308
-433.690	157.070	-0.110	-0.153
-432.676	343.025	-0.089	0.174
-431.661	-200.000	-0.003	0.097
-430.646	-200.000	-0.045	-0.369
-429.632	800.000	0.102	-0.287
-428.617	197.690	-0.189	-0.290
-427.603	242.353	-0.110	-0.185
-426.588	721.227	0.114	-0.305
-425.573	116.551	0.098	-0.121
-424.559	-39.624	-0.301	0.158
-423.544	116.288	-0.063	-0.077
-422.530	57.841	0.067	-0.065
-421.515	800.000	-0.009	0.037
-420.500	-85.450	-0.234	-0.073
-419.486	-11.477	-0.138	-0.091
-418.471	-60.351	-0.118	0.050
-417.457	144.339	0.200	0.268
-416.442	-200.000	0.015	-0.104
-415.428	800.000	-0.137	-0.433
-414.413	800.000	0.041	-0.146
-413.398	-99.796	0.074	-0.019
-412.384	348.557	0.072	-0.142
-411.369	134.460	-0.115	-0.149
-410.355	-167.073	0.197	-0.008
-409.340	-0.356	-0.251	-0.179
-408.325	-200.000	0.002	0.195
-407.311	124.630	-0.106	0.133
-406.296	84.906	0.147	0.161
-405.282	75.408	0.217	-0.230
-404.267	17.427	0.129	0.103
-403.252	611.328	-0.048	-0.119
-402.238	-167.907	-0.144	-0.006
-401.223	48.353	-0.217	-0.204
-400.209	-111.495	-0.247	-0.050
-399.194	644.815	0.093	-0.238
-398.179	144.677	0.137	0.184
-397.165	-200.000	-0.010	0.178
-396.150	800.000	-0.095	0.338
-395.136	379.230	0.061	0.126
-394.121	-95.837	-0.162	0.043
-393.106	800.000	0.032	-0.103
-392.092	-200.000	0.065	0.286
-391.077	168.329	-0.074	0.105
-390.063	-111.208	-0.209	0.043
-389.048	-52.683	0.092	-0.042
-388.033	474.117	-0.016	-0.037
-387.019	-200.000	-0.036	-0.170
-386.004	-9.661	0.227	-0.152
-384.990	-200.000	-0.012	-0.097
-383.975	117.437	0.051	-0.063
-382.960	-43.131	-0.068	0.034
-381.946	206.850	-0.090	0.140
-380.931	791.336	-0.101	0.278
-379.917	-187.448	0.219	0.003
-378.902	800.000	0.059	0.246
-377.888	299.126	-0.109	-0.201
-376.873	1.413	-0.173	0.125
-375.858	-81.339	0.091	-0.030
-374.844	105.592	-0.095	-0.112
-373.829	-200.000	0.013	0.095
-372.815	22.880	0.325	0.266
-371.800	42.688	0.154	0.140
-370.785	-75.483	-0.090	-0.032
-369.771	6.890	0.185	0.138
-368.756	629.182	-0.068	-0.172
-367.742	42.462	0.144	-0.131
-366.727	-121.643	0.149	0.025
-365.712	128.649	-0.044	0.057
-364.698	71.453	0.028	-0.029
-363.683	-200.000	-0.043	0.209
-362.669	800.000	-0.077	-0.325
-361.654	-23.567	0.185	-0.111
-360.639	182.927	0.175	0.259
-359.625	-162.704	0.048	0.002
-358.610	-154.466	-0.267	-0.018
-357.596	106.442	-0.126	-0.149
-356.581	-200.000	-0.042	-0.441
-355.566	36.151	0.154	0.136
-354.552	208.779	0.073	-0.115
-353.537	-122.744	-0.244	-0.039
-352.523	79.454	-0.056	0.060
-351.508	97.297	-0.154	0.176
-350.493	317.965	-0.205	0.387
-349.479	-200.000	-0.065	0.350
-348.464	-200.000	0.038	-0.297
-347.450	-33.012	-0.158	-0.088
-346.435	800.000	0.165	-0.470
-345.420	-183.473	-0.110	0.002
-344.406	446.375	0.184	0.405
-343.391	209.596	-0.247	0.388
-342.377	-112.682	0.373	-0.074
-341.362	-119.523	0.136	0.024
-340.348	151.621	0.173	-0.235
-339.333	-143.720	-0.377	0.036
-338.318	-87.706	0.221	-0.067
-337.304	-49.943	-0.040	-0.019
-336.289	12.315	-0.110	-0.085
-335.275	460.847	0.091	-0.203
-334.260	-57.491	-0.110	0.048
-333.245	-131.386	-0.230	0.030
-332.231	-49.841	0.155	0.073
-331.216	24.307	-0.056	-0.046
-330.202	-151.611	-0.163	0.012
-329.187	-100.137	-0.281	-0.070
-328.172	-146.123	0.224	0.020
-327.158	-131.762	0.402	-0.053
-326.143	439.062	-0.137	-0.299
-325.129	53.922	0.262	-0.252
-324.114	-33.965	0.248	0.137
-323.099	-49.826	-0.086	0.041
-322.085	420.146	0.054	-0.116
-321.070	800.000	0.068	-0.209
-320.056	-42.732	0.160	-0.081
-319.041	179.247	-0.155	-0.227
-318.026	-127.474	-0.113	-0.016
-317.012	-139.435	-0.489	-0.052
-315.997	500.429	0.107	0.246
-314.983	121.076	0.130	-0.162
-313.968	-200.000	-0.025	-0.364
-312.953	-29.183	-0.243	0.139
-311.939	800.000	0.148	0.525
-310.924	180.255	0.048	0.071
-309.910	230.805	-0.094	-0.154
-308.895	167.177	-0.037	0.053
-307.880	351.097	0.067	-0.132
-306.866	-142.219	0.289	0.029
-305.851	-6.138	-0.383	-0.261
-304.837	-200.000	-0.051	0.223
-303.822	800.000	-0.093	-0.257
-302.807	106.939	-0.062	0.073
-301.793	39.020	-0.100	-0.089
-300.778	-200.000	-0.079	-0.369
-299.764	27.410	0.164	-0.137
-298.749	267.308	0.087	-0.152
-297.735	129.988	0.092	-0.118
-296.720	-200.000	0.014	0.062
-295.705	46.802	0.155	0.144
-294.691	-200.000	0.003	0.310
-293.676	-0.467	-0.357	-0.253
-292.662	131.566	0.068	-0.088
-291.647	144.095	-0.083	-0.111
-290.632	-89.436	-0.156	-0.046
-289.618	-36.294	-0.308	-0.166
-288.603	-200.000	-0.007	0.090
-287.589	92.781	0.069	-0.077
-286.574	-37.040	0.317	0.169
-285.559	204.800	-0.127	-0.197
-284.545	8.758	-0.320	-0.240
-283.530	-12.744	0.040	-0.026
-282.516	80.823	0.083	-0.090
-281.501	-149.428	0.236	0.019
-280.486	13.259	-0.168	-0.130
-279.472	293.637	-0.052	0.095
-278.457	800.000	0.042	0.175
-277.443	-200.000	0.038	-0.324
-276.428	86.816	-0.158	-0.174
-275.413	-194.910	0.093	-0.001
-274.399	197.961	0.168	0.255
-273.384	59.983	-0.351	0.346
-272.370	165.339	-0.187	-0.263
-271.355	-200.000	0.006	-0.233
-270.340	39.268	0.053	-0.047
-269.326	800.000	-0.030	0.088
-268.311	-37.007	0.312	-0.167
-267.297	800.000	-0.101	0.321
-266.282	91.651	-0.048	0.054
-265.267	61.147	0.120	0.119
-264.253	245.173	0.117	0.196
-263.238	-54.494	0.113	0.051
-262.224	25.471	0.172	-0.142
-261.209	-200.000	-0.062	0.387
-260.195	-200.000	0.023	0.151
-259.180	350.209	-0.173	-0.341
-258.165	-121.697	0.243	-0.040
-257.151	-200.000	-0.027	-0.163
-256.136	76.361	-0.180	0.190
-255.122	-105.365	-0.286	0.065
-254.107	800.000	0.124	0.449
-253.092	-78.025	-0.054	-0.019
-252.078	101.927	-0.153	0.177
-251.063	79.311	0.072	0.076
-250.049	66.457	0.098	0.099
-249.034	47.720	0.102	-0.095
-248.019	484.344	-0.128	0.291
-247.005	-170.273	-0.198	-0.007
-245.990	45.278	0.287	0.264
-244.976	-200.000	-0.014	-0.136
-243.961	-165.817	-0.276	0.012
-242.946	-33.649	-0.236	0.130
-241.932	-200.000	-0.080	0.444
-240.917	-200.000	0.119	0.532
-239.903	-66.275	0.100	-0.039
-238.888	-49.256	-0.077	0.036
-237.873	477.342	0.052	0.116
-236.859	104.088	0.026	0.030
-235.844	-200.000	-0.001	0.162
-234.830	-101.140	-0.090	-0.022
-233.815	-158.137	0.171	-0.010
-232.800	574.027	0.059	-0.144
-231.786	-200.000	0.005	0.193
-230.771	-200.000	0.058	0.446
-229.757	-140.138	0.315	-0.033
-228.742	416.559	-0.210	0.447
-227.727	-137.330	0.141	0.016
-226.713	-120.796	-0.049	0.008
-225.698	-14.942	-0.188	0.120
-224.684	105.278	0.227	-0.267
-223.669	-80.964	-0.164	-0.054
-222.655	-42.635	0.045	0.023
-221.640	4.106	0.085	0.062
-220.625	800.000	0.079	0.306
-219.611	-64.339	0.250	-0.101
-218.596	800.000	0.058	0.232
-217.582	214.049	-0.068	0.107
-216.567	-102.565	0.314	-0.075
-215.552	359.153	0.130	-0.259
-214.538	137.362	-0.246	-0.320
-213.523	-8.586	0.162	-0.108
-212.509	-102.130	0.160	0.038
-211.494	-200.000	-0.006	0.039
-210.479	-67.895	-0.158	0.061
-209.465	-102.033	0.032	-0.008
-208.450	-54.903	0.432	-0.194
-207.436	300.772	-0.120	0.220
-206.421	109.555	0.194	-0.231
-205.406	-136.337	0.159	-0.018
-204.392	-200.000	-0.198	-0.000
-203.377	448.444	0.038	0.083
-202.363	-200.000	-0.022	0.111
-201.348	187.120	-0.150	-0.222
-200.333	319.841	-0.021	-0.040
-199.319	-120.095	-0.281	-0.048
-198.304	91.652	0.335	0.374
-197.290	-200.000	-0.014	0.173
-196.275	800.000	-0.073	0.208
-195.260	-55.431	0.073	-0.032
-194.246	-114.004	0.242	0.047
-193.231	-21.923	0.191	-0.115
-192.217	-68.769	0.142	-0.055
-191.202	-100.385	0.186	0.046
-190.187	-103.628	-0.130	0.030
-189.173	-71.200	0.243	0.091
-188.158	-79.598	0.175	0.059
-187.144	-73.260	-0.187	-0.068
-186.129	-200.000	0.025	-0.141
-185.114	-200.000	-0.063	0.274
-184.100	-53.087	0.123	0.056
-183.085	654.100	-0.058	-0.147
-182.071	644.825	0.036	0.092
-181.056	-40.117	-0.012	-0.006
-180.042	-200.000	-0.017	0.255
-179.027	-200.000	-0.010	0.281
-178.012	18.099	0.112	0.089
-176.998	79.848	-0.103	-0.110
-175.983	752.188	-0.084	-0.224
-174.969	-200.000	0.056	-0.504
-173.954	-50.943	0.125	-0.059
-172.939	-62.256	0.176	-0.073
-171.925	-23.788	-0.219	0.130
-170.910	-200.000	-0.028	0.139
-169.896	-30.996	0.041	-0.023
-168.881	230.682	-0.213	-0.346
-167.866	-200.000	-0.006	0.191
-166.852	4.264	-0.309	-0.225
-165.837	800.000	0.053	0.168
-164.823	-200.000	0.021	0.211
-163.808	66.785	-0.262	0.265
-162.793	-200.000	-0.016	-0.120
-161.779	180.113	0.011	-0.016
-160.764	-200.000	0.015	0.409
-159.750	631.593	-0.058	0.145
-158.735	-44.066	-0.140	0.070
-157.720	28.152	-0.242	-0.203
-156.706	-81.652	0.120	0.039
-155.691	-87.219	0.286	-0.086
-154.677	-11.063	0.218	-0.143
-153.662	26.620	0.230	0.191
-152.647	-200.000	-0.007	-0.197
-151.633	277.436	-0.122	-0.215
-150.618	100.931	-0.049	0.056
-149.604	259.417	-0.263	-0.450
-148.589	156.502	0.149	0.204
-147.574	800.000	-0.068	0.248
-146.560	-154.986	0.400	0.026
-145.545	-200.000	0.030	-0.304
-144.531	-74.261	-0.082	0.029
-143.516	-3.322	-0.202	0.139
-142.502	-60.459	-0.187	0.079
-141.487	-200.000	0.034	-0.153
-140.472	-66.042	0.245	0.097
-139.458	544.241	0.025	0.059
-138.443	-44.950	0.147	0.072
-137.429	413.218	0.031	-0.066
-136.414	15.284	0.240	-0.187
-135.399	335.441	-0.146	0.280
-134.385	-60.786	-0.262	0.110
-133.370	-30.761	0.177	-0.099
-132.356	26.581	-0.049	-0.041
-131.341	-55.625	0.059	-0.026
-130.326	12.412	0.327	-0.250
-129.312	162.161	0.126	-0.175
-128.297	5.521	-0.209	0.153
-127.283	191.426	-0.105	-0.156
-126.268	-66.105	-0.115	-0.045
-125.253	732.709	-0.117	0.309
-124.239	-154.483	0.148	-0.010
-123.224	-112.499	-0.062	-0.012
-122.210	137.288	0.275	0.357
-121.195	-0.590	-0.080	0.056
-120.180	-84.958	-0.185	0.057
-119.166	42.021	0.282	0.254
-118.151	-152.744	0.186	-0.013
-117.137	-6.663	-0.284	0.192
-116.122	-100.854	-0.264	-0.064
-115.107	-118.125	0.291	0.051
-114.093	-51.771	-0.408	0.188
-113.078	164.337	0.168	0.235
-112.064	-200.000	-0.056	-0.363
-111.049	94.048	0.180	0.203
-110.034	83.191	-0.050	0.054
-109.020	-200.000	0.003	0.317
-108.005	-200.000	-0.061	-0.267
-106.991	-200.000	0.005	-0.089
-105.976	194.209	0.180	-0.270
-104.962	31.669	-0.206	-0.176
-103.947	82.969	0.204	0.220
-102.932	303.317	-0.097	0.178
-101.918	-34.718	-0.066	0.036
-100.903	-87.754	0.128	0.038
-99.889	633.687	-0.065	-0.164
-98.874	142.908	-0.120	0.158
-97.859	-134.536	0.349	0.042
-96.845	626.393	0.027	-0.068
-95.830	-12.592	-0.149	0.096
-94.816	569.835	-0.093	0.225
-93.801	319.283	0.147	-0.277
-92.786	-68.266	-0.052	-0.020
-91.772	-134.033	0.320	0.039
-90.757	469.933	0.075	-0.166
-89.743	13.034	-0.176	0.135
-88.728	114.718	0.025	-0.031
-87.713	-49.731	-0.231	0.109
-86.699	307.217	-0.094	0.174
-85.684	-71.815	0.135	0.050
-84.670	-200.000	0.023	0.182
-83.655	195.114	-0.133	-0.200
-82.640	-45.235	0.185	0.091
-81.626	800.000	0.095	0.349
-80.611	-200.000	0.095	0.431
-79.597	-84.131	-0.105	0.033
-78.582	10.502	-0.368	-0.278
-77.567	94.077	-0.307	-0.345
-76.553	-144.650	0.276	-0.025
-75.538	12.105	-0.219	-0.167
-74.524	280.980	-0.226	0.400
-73.509	677.150	-0.057	0.145
-72.494	-75.043	-0.169	-0.060
-71.480	299.228	0.055	-0.100
-70.465	183.127	-0.190	-0.277
-69.451	64.795	-0.181	-0.180
-68.436	-66.826	0.080	0.031
-67.422	87.526	0.150	0.165
-66.407	-200.000	0.025	0.132
-65.392	-104.672	0.225	0.051
-64.378	20.325	0.152	0.121
-63.363	800.000	0.086	-0.316
-62.349	-122.818	0.440	-0.070
-61.334	195.153	-0.627	-0.941
-60.319	-200.000	0.222	1.084
-59.305	567.440	-0.268	-0.643
-58.290	157.746	0.912	1.249
-57.276	800.000	0.497	1.483
-56.261	-200.000	99.875	609.637
-55.246	599.426	1420.673	3484.751
-54.232	183.568	2628.020	3840.689
-53.217	107.254	2322.945	2729.864
-52.203	39.338	2072.534	1834.261
-51.188	34.632	1986.797	1716.132
-50.173	33.018	1968.460	1685.835
-49.159	47.413	2020.934	1861.361
-48.144	48.939	2038.343	1891.146
-47.130	35.073	1997.844	1729.381
-46.115	32.746	1987.300	1699.247
-45.100	32.629	1984.409	1695.656
-44.086	32.547	1982.705	1693.391
-43.071	32.514	1980.065	1690.779
-42.057	32.505	1977.499	1688.441
-41.042	32.559	1975.937	1687.520
-40.027	32.675	1973.818	1686.684
-39.013	32.572	1972.410	1684.491
-37.998	32.560	1970.623	1682.788
-36.984	32.608	1968.619	1681.438
-35.969	32.722	1966.318	1680.425
-34.954	32.695	1964.913	1678.920
-33.940	32.768	1963.620	1678.399
-32.925	32.866	1961.267	1677.192
-31.911	32.817	1960.020	1675.619
-30.896	32.774	1958.513	1673.884
-29.881	32.817	1957.025	1672.925
-28.867	32.850	1955.637	1671.969
-27.852	32.853	1953.942	1670.476
-26.838	32.896	1951.104	1668.366
-25.823	32.800	1949.590	1666.156
-24.809	32.831	1947.953	1664.966
-23.794	32.806	1946.409	1663.358
-22.779	32.700	1944.505	1660.733
-21.765	32.779	1942.637	1659.766
-20.750	32.781	1941.624	1658.848
-19.736	32.766	1939.559	1656.888
-18.721	32.768	1938.469	1655.907
-17.706	32.773	1936.514	1654.219
-16.692	32.732	1935.351	1652.796
-15.677	32.723	1933.525	1651.096
-14.663	32.801	1931.493	1649.979
-13.648	32.784	1930.723	1649.108
-12.633	32.767	1929.487	1647.837
-11.619	32.783	1927.952	1646.599
-10.604	32.777	1926.738	1645.446
-9.590	32.717	1925.246	1643.587
-8.575	32.767	1923.464	1642.429
-7.560	32.692	1922.403	1640.805
-6.546	32.684	1921.093	1639.554
-5.531	32.723	1919.812	1638.735
-4.517	32.669	1919.041	1637.547
-3.502	32.706	1917.916	1636.841
-2.487	32.737	1916.217	1635.592
-1.473	32.670	1915.539	1634.368
-0.458	32.743	1910.799	1630.888
0.556	30.049	1890.546	1600.986
1.571	25.552	1870.182	1545.059
2.586	21.451	1891.104	1526.487
3.600	20.324	1926.636	1545.011
4.615	20.279	1922.644	1541.270
5.629	15.692	1823.642	1423.045
6.644	5.842	1702.356	1250.108
7.659	0.264	1662.727	1177.395
8.673	-0.254	1659.187	1170.741
9.688	-0.290	1657.325	1169.046
10.702	-0.340	1656.642	1168.074
11.717	-0.376	1652.942	1165.077
12.731	-0.019	1651.859	1166.982
13.746	6.540	1668.021	1229.584
14.761	15.794	1688.924	1317.664
15.775	19.361	1694.335	1349.746
16.790	19.591	1693.126	1350.456
17.804	19.539	1692.959	1349.800
18.819	19.662	1691.466	1349.452
19.834	19.675	1691.334	1349.332
20.848	19.906	1690.815	1350.596
21.863	19.943	1689.960	1350.081
22.877	19.937	1688.607	1348.839
23.892	19.907	1688.164	1348.128
24.907	19.960	1687.254	1347.693
25.921	20.008	1685.668	1346.681
26.936	19.935	1685.101	1345.545
27.950	19.946	1684.162	1344.761
28.965	19.916	1683.183	1343.624
29.980	20.024	1682.273	1343.621
30.994	19.946	1680.624	1341.578
32.009	19.908	1679.876	1340.566
33.023	19.952	1679.179	1340.232
34.038	20.003	1677.680	1339.312
35.053	20.004	1676.861	1338.552
36.067	19.978	1675.490	1337.138
37.082	19.876	1675.177	1335.980
38.096	19.907	1673.861	1335.050
39.111	19.894	1673.138	1334.260
40.126	19.933	1671.978	1333.512
41.140	19.936	1671.504	1333.043
42.155	19.968	1669.957	1331.936
43.169	19.939	1669.064	1330.881
44.184	19.976	1667.982	1330.184
45.199	19.897	1666.985	1328.666
46.213	19.917	1665.460	1327.488
47.228	19.866	1664.752	1326.417
48.242	19.957	1663.230	1325.783
49.257	19.887	1662.213	1324.318
50.271	19.912	1660.707	1323.193
51.286	19.931	1659.510	1322.269
52.301	19.915	1658.372	1321.121
53.315	19.985	1656.671	1320.184
54.330	19.905	1655.914	1318.855
55.344	19.904	1654.360	1317.490
56.359	19.878	1652.917	1316.026
57.374	19.789	1652.047	1314.543
58.388	19.959	1650.392	1314.399
59.403	19.881	1649.467	1312.954
60.417	19.920	1648.066	1312.019
61.432	19.902	1647.317	1311.173
62.447	19.944	1646.046	1310.359
63.461	20.006	1644.982	1309.867
64.476	19.797	1644.716	1307.955
65.490	19.870	1643.650	1307.544
66.505	19.872	1642.235	1306.321
67.520	19.925	1641.012	1305.629
68.534	19.888	1640.175	1304.570
69.549	19.959	1638.566	1303.713
70.563	19.937	1637.163	1302.317
71.578	19.995	1636.011	1301.717
72.593	19.997	1635.698	1301.367
73.607	19.949	1634.923	1300.274
74.622	19.904	1633.523	1298.713
75.636	19.935	1632.653	1298.138
76.651	19.961	1631.648	1297.414
77.666	20.043	1630.414	1296.937
78.680	19.921	1629.829	1295.445
79.695	19.930	1628.673	1294.474
80.709	19.891	1628.158	1293.661
81.724	19.979	1626.706	1293.046
82.739	19.913	1626.401	1292.199
83.753	20.011	1624.774	1291.527
84.768	20.000	1623.899	1290.632
85.782	19.869	1623.129	1288.927
86.797	19.918	1622.440	1288.636
87.812	19.990	1621.209	1288.074
88.826	19.952	1619.773	1286.537
89.841	19.886	1618.879	1285.227
90.855	19.975	1618.006	1285.079
91.870	19.943	1616.989	1283.924
92.884	19.996	1615.020	1282.639
93.899	19.981	1614.647	1282.114
94.914	19.942	1613.184	1280.551
95.928	19.912	1612.607	1279.757
96.943	19.962	1610.569	1278.399
97.957	19.990	1609.263	1277.453
98.972	19.973	1608.304	1276.457
99.987	20.030	1606.584	1275.394
101.001	20.075	1604.834	1274.222
102.016	19.993	1603.273	1272.274
103.030	19.878	1602.139	1270.417
104.045	19.897	1601.010	1269.545
105.060	19.894	1599.500	1268.216
106.074	19.959	1598.380	1267.690
107.089	20.016	1596.842	1266.774
108.103	20.050	1595.838	1266.117
109.118	20.060	1594.494	1265.007
110.133	20.031	1593.158	1263.628
111.147	20.052	1591.838	1262.621
112.162	20.162	1590.647	1262.365
113.176	20.104	1589.166	1260.658
114.191	20.090	1587.961	1259.483
115.206	20.119	1586.928	1258.765
116.220	20.106	1585.788	1257.654
117.235	20.108	1584.334	1256.406
118.249	20.051	1583.156	1254.950
119.264	20.114	1581.866	1254.268
120.279	20.056	1580.916	1252.987
121.293	20.093	1579.227	1251.805
122.308	20.127	1578.038	1250.998
123.322	20.072	1576.354	1249.158
124.337	20.060	1575.436	1248.231
125.352	20.112	1573.868	1247.251
126.366	20.096	1572.776	1246.163
127.381	20.138	1571.852	1245.623
128.395	20.116	1571.139	1244.786
129.410	20.088	1570.107	1243.660
130.424	20.114	1568.296	1242.298
131.439	20.122	1566.802	1241.065
132.454	20.092	1565.812	1239.953
133.468	20.147	1564.149	1238.923
134.483	20.046	1562.860	1237.067
135.497	20.036	1562.083	1236.274
136.512	20.072	1560.853	1235.451
137.527	20.142	1558.940	1234.323
138.541	20.074	1557.967	1232.963
139.556	20.098	1556.675	1231.996
140.570	20.099	1555.386	1230.878
141.585	20.123	1553.740	1229.638
142.600	19.993	1553.065	1228.070
143.614	20.204	1551.513	1228.229
144.629	20.079	1550.823	1226.693
145.643	20.170	1549.004	1225.786
146.658	20.068	1547.661	1223.896
147.673	20.101	1546.044	1222.741
148.687	20.072	1545.349	1221.874
149.702	20.086	1543.813	1220.656
150.716	20.107	1542.680	1219.799
151.731	20.092	1541.524	1218.667
152.746	20.183	1540.509	1218.401
153.760	20.070	1539.300	1216.545
154.775	20.199	1537.799	1216.151
155.789	20.212	1537.227	1215.681
156.804	20.309	1535.613	1214.981
157.819	20.194	1534.651	1213.305
158.833	20.215	1533.868	1212.726
159.848	20.138	1532.532	1211.025
160.862	20.235	1531.741	1210.968
161.877	20.241	1530.192	1209.681
162.892	20.250	1529.213	1208.860
163.906	20.183	1528.259	1207.537
164.921	20.150	1527.728	1206.780
165.935	20.217	1526.513	1206.176
166.950	20.245	1525.294	1205.305
167.964	20.119	1524.952	1204.048
168.979	20.235	1523.627	1203.701
169.994	20.280	1522.858	1203.301
171.008	20.253	1521.609	1202.023
172.023	20.245	1520.910	1201.307
173.037	20.237	1520.094	1200.502
174.052	20.176	1518.843	1198.984
175.067	20.151	1517.873	1197.942
176.081	20.255	1516.687	1197.618
177.096	20.154	1515.794	1196.105
178.110	20.200	1514.941	1195.645
179.125	20.305	1513.436	1195.074
180.140	20.241	1512.591	1193.861
181.154	20.354	1511.596	1193.746
182.169	20.292	1510.845	1192.620
183.183	20.251	1509.705	1191.335
184.198	20.336	1508.580	1190.926
185.213	20.275	1507.680	1189.695
186.227	20.369	1506.844	1189.572
187.242	20.411	1506.271	1189.299
188.256	20.253	1505.946	1187.858
189.271	20.297	1504.614	1187.004
190.286	20.392	1503.744	1186.864
191.300	20.297	1503.051	1185.556
192.315	20.369	1502.026	1185.135
193.329	20.221	1501.474	1183.588
194.344	20.324	1500.614	1183.504
195.359	20.372	1499.660	1182.980
196.373	20.454	1498.312	1182.365
197.388	20.292	1497.684	1180.663
198.402	20.250	1496.432	1179.285
199.417	20.292	1495.307	1178.583
200.432	20.268	1494.640	1177.792
201.446	20.267	1493.757	1176.984
202.461	20.336	1492.331	1176.223
203.475	20.303	1491.950	1175.596
204.490	20.412	1490.530	1175.111
205.504	20.347	1489.881	1174.052
206.519	20.241	1489.320	1172.794
207.534	20.338	1488.456	1172.663
208.548	20.369	1487.794	1172.245
209.563	20.430	1486.685	1171.681
210.577	20.342	1485.677	1170.188
211.592	20.381	1484.776	1169.639
212.607	20.435	1483.982	1169.271
213.621	20.467	1483.534	1169.032
214.636	20.422	1482.790	1168.036
215.650	20.489	1481.657	1167.495
216.665	20.452	1481.505	1167.020
217.680	20.482	1479.978	1165.920
218.694	20.383	1479.415	1164.706
219.709	20.486	1478.752	1164.773
220.723	20.435	1477.909	1163.661
221.738	20.424	1477.262	1162.978
222.753	20.478	1476.095	1162.318
223.767	20.333	1475.136	1160.493
224.782	20.422	1474.005	1160.093
225.796	20.435	1473.675	1159.817
226.811	20.460	1472.808	1159.201
227.826	20.578	1471.863	1159.135
228.840	20.431	1471.592	1157.841
229.855	20.452	1470.988	1157.404
230.869	20.454	1469.832	1156.407
231.884	20.482	1468.545	1155.480
232.899	20.510	1467.232	1154.527
233.913	20.470	1466.566	1153.639
234.928	20.504	1465.386	1152.834
235.942	20.543	1464.201	1152.056
236.957	20.647	1462.837	1151.570
237.972	20.630	1461.911	1150.627
238.986	20.557	1460.971	1149.299
240.001	20.503	1460.580	1148.533
241.015	20.591	1458.942	1147.724
242.030	20.704	1458.099	1147.710
243.045	20.707	1457.393	1147.068
244.059	20.664	1456.357	1145.872
245.074	20.675	1455.239	1144.960
246.088	20.620	1455.287	1144.536
247.103	20.665	1454.163	1143.844
248.117	20.642	1453.643	1143.182
249.132	20.721	1452.586	1142.771
250.147	20.728	1452.008	1142.264
251.161	20.716	1451.666	1141.814
252.176	20.783	1450.788	1141.460
253.190	20.763	1450.208	1140.774
254.205	20.725	1448.960	1139.443
255.220	20.853	1447.798	1139.264
256.234	20.778	1447.440	1138.391
257.249	20.678	1446.987	1137.277
258.263	20.814	1445.968	1137.268
259.278	20.729	1445.224	1136.024
260.293	20.752	1444.072	1135.170
261.307	20.814	1443.454	1134.988
262.322	20.837	1442.668	1134.418
263.336	20.901	1441.733	1134.001
264.351	20.944	1440.420	1133.143
265.366	20.872	1440.383	1132.546
266.380	20.868	1439.211	1131.498
267.395	20.932	1437.994	1130.859
268.409	20.800	1437.920	1129.846
269.424	20.862	1436.489	1129.022
270.439	20.868	1435.755	1128.382
271.453	20.930	1434.821	1127.953
272.468	20.907	1434.404	1127.373
273.482	20.886	1433.848	1126.705
274.497	20.831	1432.693	1125.341
275.512	20.798	1432.157	1124.604
276.526	20.920	1431.273	1124.602
277.541	21.028	1429.951	1124.159
278.555	20.946	1429.135	1122.887
279.570	20.967	1429.033	1122.846
280.585	20.987	1427.533	1121.692
281.599	20.937	1427.365	1121.142
282.614	21.004	1426.026	1120.421
283.628	21.000	1424.884	1119.399
284.643	20.964	1424.428	1118.710
285.657	20.926	1423.427	1117.584
286.672	20.921	1422.496	1116.722
287.687	21.015	1421.681	1116.583
288.701	21.041	1420.467	1115.696
289.716	20.965	1420.159	1114.870
290.730	21.135	1419.075	1115.005
291.745	21.061	1418.236	1113.779
292.760	21.076	1417.314	1113.048
293.774	21.108	1416.378	1112.418
294.789	21.031	1415.775	1111.357
295.803	21.086	1415.226	1111.179
296.818	21.071	1414.199	1110.177
297.833	21.118	1412.976	1109.421
298.847	21.094	1412.456	1108.760
299.862	21.141	1411.356	1108.097
300.876	21.241	1410.140	1107.678
301.891	21.089	1409.173	1105.855
302.906	21.169	1409.076	1106.190
303.920	21.254	1408.206	1105.946
304.935	21.240	1407.371	1105.108
305.949	21.256	1406.858	1104.708
306.964	21.167	1405.877	1103.276
307.979	21.174	1405.296	1102.766
308.993	21.179	1404.222	1101.855
310.008	21.306	1403.437	1101.945
311.022	21.338	1402.028	1100.943
312.037	21.172	1401.357	1099.276
313.052	21.227	1400.960	1099.211
314.066	21.301	1399.842	1098.701
315.081	21.252	1398.750	1097.438
316.095	21.306	1398.030	1097.119
317.110	21.252	1396.851	1095.757
318.125	21.341	1396.200	1095.709
319.139	21.349	1394.903	1094.643
320.154	21.285	1394.355	1093.713
321.168	21.384	1393.228	1093.354
322.183	21.352	1392.688	1092.630
323.197	21.351	1391.896	1091.910
324.212	21.329	1390.991	1090.962
325.227	21.336	1390.378	1090.430
326.241	21.431	1389.412	1090.171
327.256	21.324	1389.220	1089.253
328.270	21.381	1388.231	1088.735
329.285	21.262	1387.481	1087.312
330.300	21.363	1386.290	1086.908
331.314	21.461	1385.425	1086.742
332.329	21.417	1384.743	1085.839
333.343	21.449	1384.151	1085.482
334.358	21.466	1383.172	1084.720
335.373	21.466	1382.986	1084.480
336.387	21.611	1381.463	1084.086
337.402	21.567	1381.180	1083.495
338.416	21.603	1380.559	1083.136
339.431	21.550	1379.808	1082.120
340.446	21.492	1379.435	1081.375
341.460	21.471	1378.546	1080.452
342.475	21.566	1377.492	1080.122
343.489	21.551	1376.702	1079.311
344.504	21.566	1375.617	1078.459
345.519	21.535	1374.665	1077.423
346.533	21.560	1373.809	1076.813
347.548	21.665	1372.451	1076.295
348.562	21.674	1371.614	1075.601
349.577	21.578	1371.363	1074.719
350.592	21.589	1370.763	1074.224
351.606	21.602	1369.904	1073.536
352.621	21.561	1368.546	1072.121
353.635	21.641	1367.852	1071.975
354.650	21.743	1367.123	1071.935
355.665	21.676	1366.171	1070.684
356.679	21.685	1365.432	1070.065
357.694	21.692	1363.945	1068.843
358.708	21.766	1362.813	1068.317
359.723	21.782	1361.896	1067.597
360.738	21.635	1361.402	1066.224
361.752	21.723	1360.042	1065.598
362.767	21.754	1358.740	1064.671
363.781	21.714	1357.766	1063.572
364.796	21.707	1357.832	1063.487
365.810	21.730	1356.998	1062.877
366.825	21.785	1356.263	1062.544
367.840	21.794	1355.679	1062.043
368.854	21.857	1354.596	1061.486
369.869	21.865	1354.129	1061.074
370.883	21.888	1353.349	1060.510
371.898	21.872	1352.705	1059.810
372.913	22.025	1351.602	1059.777
373.927	21.911	1351.271	1058.734
374.942	21.832	1350.614	1057.652
375.956	21.938	1349.598	1057.404
376.971	21.960	1348.705	1056.738
377.986	21.806	1348.183	1055.309
379.000	21.848	1347.708	1055.098
380.015	21.982	1346.654	1054.983
381.029	21.923	1345.801	1053.869
382.044	21.972	1345.153	1053.565
383.059	21.905	1344.734	1052.740
384.073	22.003	1343.722	1052.440
385.088	22.070	1343.288	1052.413
386.102	22.068	1343.019	1052.091
387.117	22.056	1342.314	1051.376
388.132	22.026	1341.214	1050.241
389.146	21.979	1340.752	1049.505
390.161	21.968	1340.059	1048.804
391.175	22.046	1339.206	1048.509
392.190	22.067	1338.235	1047.781
393.205	22.161	1337.222	1047.460
394.219	22.057	1336.861	1046.462
395.234	22.177	1335.063	1045.676
396.248	22.233	1334.089	1045.156
397.263	22.189	1332.700	1043.714
398.278	22.172	1331.969	1042.950
399.292	22.195	1330.824	1042.095
400.307	22.195	1330.152	1041.477
401.321	22.299	1329.560	1041.538
402.336	22.207	1328.240	1039.863
403.350	22.188	1326.918	1038.626
404.365	22.256	1326.177	1038.357
405.380	22.171	1325.723	1037.409
406.394	22.179	1324.811	1036.647
407.409	22.242	1324.190	1036.442
408.423	22.282	1323.416	1035.980
409.438	22.248	1322.914	1035.293
410.453	22.200	1322.186	1034.351
411.467	22.293	1321.236	1034.064
412.482	22.387	1320.596	1034.022
413.496	22.306	1319.984	1032.975
414.511	22.331	1319.167	1032.395
415.526	22.328	1318.559	1031.809
416.540	22.362	1317.817	1031.333
417.555	22.349	1316.926	1030.470
418.569	22.331	1316.455	1029.906
419.584	22.289	1316.475	1029.588
420.599	22.292	1315.670	1028.883
421.613	138.115	1429.440	1793.798
422.628	134.281	1445.980	1793.908
