DTS Sentinel unit serial number:	SN413079Multiplexer serial number:	ORYXHardware model number:	OX4-SRSoftware version number:	ORYX F/W v4.00 Oryx Data Collector v3.7.2.0data status	okinstallation	princeton_trtdifferential loss correction	single-endedforward channel	channel 4reverse channel	N/Adate	2019/09/10time	17:23:11forward acquisition time	60.00reverse acquisition time	0.00gamma	496.2192k internal	0.2295k external	0.2295temperature offset calibration	0.9936default loss term (dB/km)	0.3790temperature slope calibration	1.0000multiplexer offset coefficient	1.0000multiplexer slope coefficient	1.0000fibre end	0.00T internal ref (°C)	37.66T ext. ref 1 (°C)	-0.36T ext. ref 2 (°C)	32.40length (m)	temperature (°C)	Stokes	anti-Stokes-747.200	224.482	0.013	-0.021
-746.185	137.159	0.087	-0.116
-745.171	800.000	-0.091	-0.261
-744.156	800.000	-0.074	-0.273
-743.142	-98.687	0.320	0.083
-742.127	633.960	-0.124	0.322
-741.112	-200.000	0.042	0.189
-740.098	-102.383	-0.193	0.047
-739.083	466.670	0.088	0.202
-738.069	-38.273	0.180	0.097
-737.054	49.851	0.121	-0.116
-736.039	1.827	0.381	0.281
-735.025	-102.805	0.250	0.061
-734.010	224.418	-0.079	-0.131
-732.996	-200.000	0.006	-0.036
-731.981	66.496	-0.170	-0.177
-730.966	-95.346	0.190	0.052
-729.952	800.000	0.070	0.300
-728.937	14.406	-0.353	-0.281
-727.923	-167.194	-0.191	0.008
-726.908	-200.000	0.015	0.270
-725.894	205.017	-0.062	-0.099
-724.879	-73.285	-0.033	-0.012
-723.864	-37.504	0.030	0.016
-722.850	800.000	0.015	-0.059
-721.835	610.577	-0.078	0.200
-720.821	23.767	0.109	-0.092
-719.806	11.410	-0.078	-0.061
-718.791	291.525	-0.269	0.499
-717.777	501.898	0.096	0.227
-716.762	131.505	0.008	-0.011
-715.748	27.438	-0.098	0.084
-714.733	-34.225	-0.376	-0.211
-713.718	5.286	0.025	0.019
-712.704	-200.000	-0.072	0.414
-711.689	-36.567	-0.251	0.138
-710.675	-41.346	-0.219	0.115
-709.660	313.198	0.058	0.111
-708.645	-135.777	-0.077	0.009
-707.631	51.554	-0.183	-0.177
-706.616	-113.285	0.150	-0.030
-705.602	-152.218	0.180	-0.013
-704.587	-126.672	0.202	-0.030
-703.572	9.385	-0.170	-0.131
-702.558	-91.738	0.225	-0.065
-701.543	-200.000	-0.033	-0.238
-700.529	262.976	-0.103	-0.183
-699.514	121.192	-0.254	-0.322
-698.499	-37.346	0.481	-0.262
-697.485	-78.477	0.245	-0.086
-696.470	368.434	-0.107	-0.220
-695.456	34.284	-0.226	-0.201
-694.441	-174.231	-0.128	0.004
-693.426	-173.585	-0.159	-0.005
-692.412	-68.379	0.183	-0.072
-691.397	7.602	0.391	0.298
-690.383	-41.283	-0.257	0.135
-689.368	199.481	0.237	0.371
-688.354	800.000	0.073	0.228
-687.339	71.973	-0.029	0.030
-686.324	800.000	0.022	-0.082
-685.310	-200.000	0.022	0.141
-684.295	-136.562	0.111	0.013
-683.281	-44.329	-0.411	0.210
-682.266	-51.708	-0.029	0.014
-681.251	131.199	-0.091	-0.119
-680.237	437.102	0.042	0.092
-679.222	5.525	-0.094	-0.071
-678.208	-101.421	0.254	0.063
-677.193	-171.638	-0.334	-0.011
-676.178	-44.057	0.141	0.072
-675.164	96.201	-0.333	0.388
-674.149	-200.000	0.023	0.255
-673.135	-200.000	-0.055	-0.268
-672.120	800.000	-0.023	-0.093
-671.105	-200.000	0.007	0.254
-670.091	176.789	0.032	-0.048
-669.076	-100.398	-0.047	-0.012
-668.062	60.928	-0.172	0.174
-667.047	-27.260	0.031	0.018
-666.032	-5.568	-0.352	0.246
-665.018	-74.443	0.212	0.078
-664.003	7.461	-0.142	0.108
-662.989	192.717	-0.168	-0.259
-661.974	528.034	-0.106	-0.255
-660.959	800.000	0.012	-0.043
-659.945	74.436	-0.339	-0.363
-658.930	432.780	-0.111	-0.246
-657.916	-34.195	0.169	-0.095
-656.901	-67.337	0.240	0.096
-655.886	-200.000	0.007	0.136
-654.872	-105.689	-0.249	-0.057
-653.857	84.892	0.284	-0.317
-652.843	71.509	-0.047	-0.050
-651.828	-72.723	0.097	0.036
-650.814	107.943	0.158	-0.192
-649.799	-68.764	-0.192	0.075
-648.784	-200.000	-0.025	0.293
-647.770	-54.227	-0.085	-0.039
-646.755	-200.000	-0.044	-0.198
-645.741	-38.619	-0.185	-0.100
-644.726	-69.187	-0.228	-0.089
-643.711	-137.257	-0.208	-0.024
-642.697	16.603	0.313	0.252
-641.682	-66.561	-0.200	-0.081
-640.668	-200.000	0.011	0.287
-639.653	223.227	-0.071	-0.116
-638.638	-200.000	-0.006	0.315
-637.624	549.138	-0.031	0.077
-636.609	107.032	-0.089	0.108
-635.595	-164.871	0.125	0.006
-634.580	30.137	0.075	0.065
-633.565	28.367	-0.266	0.229
-632.551	42.665	0.192	0.178
-631.536	51.723	-0.112	0.109
-630.522	124.730	-0.077	-0.098
-629.507	261.849	0.045	0.080
-628.492	108.994	0.083	0.101
-627.478	88.155	-0.005	0.006
-626.463	-63.266	0.142	-0.060
-625.449	17.816	0.166	0.135
-624.434	800.000	0.060	0.228
-623.419	159.279	-0.208	-0.295
-622.405	800.000	-0.118	0.358
-621.390	-92.695	0.312	0.089
-620.376	105.949	-0.127	0.153
-619.361	800.000	0.047	0.179
-618.346	289.696	0.256	-0.473
-617.332	2.457	-0.136	-0.100
-616.317	-182.141	-0.021	-0.000
-615.303	-6.802	-0.183	0.127
-614.288	800.000	-0.041	0.171
-613.273	-200.000	-0.009	-0.180
-612.259	467.050	-0.037	-0.084
-611.244	-109.320	-0.409	-0.088
-610.230	-200.000	-0.010	-0.068
-609.215	-145.740	0.092	-0.008
-608.201	-200.000	-0.015	0.118
-607.186	-141.165	-0.139	0.014
-606.171	322.653	0.109	0.212
-605.157	-200.000	0.044	0.348
-604.142	-115.505	0.146	-0.028
-603.128	34.336	-0.143	-0.127
-602.113	-21.520	-0.162	-0.100
-601.098	-7.288	0.188	-0.129
-600.084	-200.000	-0.003	-0.041
-599.069	79.736	-0.329	-0.359
-598.055	-200.000	-0.015	-0.069
-597.040	-105.720	-0.162	-0.037
-596.025	100.293	0.068	-0.080
-595.011	-200.000	0.002	-0.243
-593.996	-26.206	-0.247	0.148
-592.982	-95.100	0.182	-0.050
-591.967	-64.202	0.455	-0.188
-590.952	-200.000	-0.014	0.388
-589.938	94.903	-0.078	-0.090
-588.923	800.000	0.070	0.209
-587.909	93.516	-0.308	0.355
-586.894	800.000	-0.043	-0.171
-585.879	746.322	0.082	-0.225
-584.865	-124.602	0.160	-0.025
-583.850	454.417	0.095	0.214
-582.836	800.000	0.069	-0.278
-581.821	-68.370	0.205	0.081
-580.806	-1.475	-0.292	0.209
-579.792	579.670	-0.080	-0.199
-578.777	17.435	0.190	0.153
-577.763	-84.615	0.073	0.023
-576.748	-134.200	0.119	-0.015
-575.733	293.630	-0.134	0.248
-574.719	-172.507	0.067	-0.002
-573.704	72.767	0.214	-0.227
-572.690	541.683	0.053	0.128
-571.675	800.000	0.038	0.128
-570.661	-200.000	-0.017	0.315
-569.646	71.758	0.337	-0.355
-568.631	-23.533	-0.222	0.135
-567.617	377.378	-0.102	0.213
-566.602	-12.568	0.114	-0.076
-565.588	-65.480	0.037	0.015
-564.573	-62.463	-0.408	-0.172
-563.558	-173.630	-0.128	0.004
-562.544	114.938	-0.027	-0.034
-561.529	-106.580	0.093	0.021
-560.515	15.415	0.375	-0.299
-559.500	139.288	0.194	-0.259
-558.485	447.115	0.172	-0.385
-557.471	72.937	-0.051	0.055
-556.456	3.352	0.188	0.139
-555.442	451.142	-0.082	0.184
-554.427	-103.332	0.301	-0.072
-553.412	761.525	-0.071	0.196
-552.398	25.578	0.036	-0.030
-551.383	279.900	-0.078	-0.141
-550.369	-200.000	-0.105	-0.001
-549.354	-41.827	-0.063	0.033
-548.339	81.569	-0.094	-0.104
-547.325	148.431	0.248	0.340
-546.310	399.708	0.134	0.284
-545.296	461.249	0.053	-0.121
-544.281	589.935	-0.029	0.073
-543.266	210.553	0.129	-0.205
-542.252	-21.238	-0.006	-0.004
-541.237	800.000	-0.081	-0.347
-540.223	-200.000	-0.052	0.233
-539.208	-83.234	0.245	0.080
-538.193	-38.509	-0.194	-0.104
-537.179	-145.688	-0.140	-0.013
-536.164	-200.000	0.059	0.528
-535.150	233.344	0.159	-0.265
-534.135	-30.597	0.081	0.046
-533.121	-11.620	-0.260	0.173
-532.106	-200.000	0.022	0.124
-531.091	-200.000	-0.022	-0.195
-530.077	8.831	-0.080	-0.061
-529.062	-125.497	-0.040	-0.006
-528.048	-10.137	-0.085	-0.057
-527.033	468.496	-0.068	-0.156
-526.018	-115.638	0.169	-0.032
-525.004	165.620	-0.099	-0.142
-523.989	29.364	0.045	0.038
-522.975	214.060	-0.098	-0.157
-521.960	-200.000	-0.006	0.079
-520.945	-62.498	0.144	0.060
-519.931	621.411	0.083	0.211
-518.916	-169.064	0.324	0.012
-517.902	-97.170	-0.360	-0.095
-516.887	-18.318	-0.094	0.059
-515.872	-200.000	-0.023	0.237
-514.858	107.246	0.155	-0.187
-513.843	-200.000	-0.002	0.152
-512.829	249.836	-0.169	0.290
-511.814	39.497	0.202	0.183
-510.799	-128.406	0.370	-0.053
-509.785	92.659	-0.160	-0.182
-508.770	382.145	-0.046	0.096
-507.756	-200.000	-0.065	0.298
-506.741	-200.000	-0.005	0.039
-505.726	91.184	0.061	-0.070
-504.712	-125.191	-0.091	0.014
-503.697	800.000	-0.103	-0.431
-502.683	1.267	-0.159	0.116
-501.668	-184.038	0.215	0.004
-500.653	-87.996	-0.289	0.088
-499.639	800.000	0.105	0.340
-498.624	229.628	-0.131	0.217
-497.610	72.694	-0.231	-0.244
-496.595	-200.000	-0.020	0.181
-495.581	111.934	0.100	0.122
-494.566	-27.915	0.069	0.040
-493.551	-200.000	0.003	0.013
-492.537	-35.571	-0.220	-0.121
-491.522	156.489	0.186	-0.260
-490.508	-125.135	0.333	0.052
-489.493	-85.416	-0.241	-0.076
-488.478	-46.156	0.198	0.099
-487.464	177.922	-0.083	-0.123
-486.449	-104.367	0.331	0.078
-485.435	17.267	-0.076	0.061
-484.420	64.428	-0.067	0.068
-483.405	739.236	-0.086	-0.233
-482.391	-200.000	-0.021	-0.117
-481.376	41.296	-0.222	0.203
-480.362	-25.108	0.117	0.070
-479.347	-200.000	-0.007	-0.415
-478.332	-142.601	-0.336	0.033
-477.318	-55.151	0.183	-0.083
-476.303	418.498	0.077	-0.167
-475.289	0.805	-0.137	0.099
-474.274	-31.667	-0.052	0.029
-473.259	-39.309	-0.029	-0.016
-472.245	800.000	0.050	-0.150
-471.230	-94.000	-0.156	0.043
-470.216	-200.000	-0.008	0.204
-469.201	167.579	-0.110	-0.158
-468.186	-200.000	0.008	0.126
-467.172	-200.000	0.006	-0.101
-466.157	43.812	-0.182	0.169
-465.143	-9.020	0.249	-0.168
-464.128	-200.000	0.032	-0.173
-463.113	64.847	-0.195	-0.199
-462.099	-93.229	-0.058	-0.016
-461.084	246.129	-0.121	0.206
-460.070	-100.248	-0.219	0.055
-459.055	800.000	0.089	0.370
-458.040	452.408	0.102	0.228
-457.026	89.821	-0.132	-0.150
-456.011	383.634	0.116	-0.242
-454.997	516.386	-0.122	-0.288
-453.982	553.116	0.063	-0.154
-452.968	-22.685	-0.225	0.137
-451.953	800.000	-0.001	-0.003
-450.938	-151.375	0.208	0.016
-449.924	-101.381	-0.350	-0.086
-448.909	40.242	0.154	-0.140
-447.895	-200.000	-0.004	-0.162
-446.880	294.147	-0.087	0.160
-445.865	-41.801	-0.366	0.190
-444.851	-48.030	-0.120	-0.058
-443.836	-56.454	0.194	-0.087
-442.822	-200.000	0.046	0.464
-441.807	-183.024	-0.151	0.003
-440.792	209.261	-0.185	0.293
-439.778	-170.771	0.494	-0.017
-438.763	800.000	-0.042	-0.118
-437.749	80.330	-0.132	-0.143
-436.734	800.000	-0.024	-0.075
-435.719	-200.000	0.053	-0.268
-434.705	-200.000	0.016	-0.144
-433.690	92.595	-0.102	-0.117
-432.676	-24.961	0.175	-0.105
-431.661	-200.000	0.003	0.111
-430.646	-200.000	-0.060	-0.396
-429.632	566.253	0.081	0.199
-428.617	105.630	0.177	-0.211
-427.603	13.476	0.108	0.085
-426.588	14.692	-0.178	-0.140
-425.573	162.091	0.071	-0.100
-424.559	-40.201	0.151	-0.079
-423.544	300.262	0.165	-0.307
-422.530	-200.000	0.001	0.048
-421.515	-136.479	-0.204	-0.024
-420.500	-200.000	0.208	-0.000
-419.486	298.069	-0.067	0.125
-418.471	-118.857	-0.297	0.053
-417.457	800.000	-0.174	-0.494
-416.442	-80.501	0.291	-0.098
-415.428	707.924	0.056	0.151
-414.413	-77.863	0.308	0.107
-413.398	-109.532	-0.409	-0.087
-412.384	110.733	0.135	-0.164
-411.369	89.681	-0.131	0.147
-410.355	-65.103	-0.199	-0.081
-409.340	113.040	0.064	0.079
-408.325	268.835	-0.040	0.071
-407.311	-41.060	-0.078	0.041
-406.296	-145.504	0.240	-0.022
-405.282	800.000	0.066	-0.193
-404.267	224.311	-0.113	-0.184
-403.252	-29.425	0.198	-0.114
-402.238	92.822	0.227	0.258
-401.223	193.650	-0.028	0.043
-400.209	-124.480	0.189	-0.030
-399.194	-109.576	-0.278	0.059
-398.179	-200.000	0.003	-0.024
-397.165	5.582	-0.149	-0.111
-396.150	-70.474	-0.324	0.124
-395.136	50.320	-0.051	0.049
-394.121	46.086	0.153	-0.143
-393.106	58.291	0.112	-0.111
-392.092	-200.000	0.052	-0.324
-391.077	800.000	0.113	-0.374
-390.063	-200.000	0.007	0.313
-389.048	24.705	0.139	-0.116
-388.033	74.049	0.312	0.330
-387.019	-19.910	-0.178	-0.111
-386.004	-155.558	-0.307	-0.020
-384.990	800.000	-0.073	-0.207
-383.975	-82.690	0.456	0.149
-382.960	-156.419	-0.246	0.015
-381.946	-95.187	0.402	0.109
-380.931	-181.946	-0.537	0.010
-379.917	-123.110	-0.241	-0.039
-378.902	117.970	-0.175	0.217
-377.888	-54.408	-0.151	0.069
-376.873	-200.000	0.018	-0.146
-375.858	207.796	-0.088	0.138
-374.844	52.622	0.015	-0.014
-373.829	35.960	0.311	0.275
-372.815	728.483	-0.075	0.202
-371.800	-200.000	0.030	0.317
-370.785	170.992	0.085	-0.122
-369.771	-123.190	-0.156	0.025
-368.756	-58.703	0.136	0.059
-367.742	-200.000	-0.027	-0.176
-366.727	-200.000	0.001	0.087
-365.712	125.184	0.202	-0.257
-364.698	-31.003	0.099	-0.056
-363.683	-200.000	0.027	-0.189
-362.669	154.801	0.105	-0.146
-361.654	-176.692	-0.032	0.001
-360.639	-121.425	0.183	-0.031
-359.625	180.717	0.078	0.115
-358.610	456.987	0.165	0.369
-357.596	619.030	0.053	0.133
-356.581	412.356	0.035	-0.075
-355.566	35.184	-0.125	-0.110
-354.552	800.000	-0.122	-0.411
-353.537	800.000	-0.099	0.294
-352.523	302.613	0.143	0.267
-351.508	-110.763	-0.270	-0.056
-350.493	-166.894	-0.232	-0.010
-349.479	800.000	0.077	-0.224
-348.464	24.712	0.190	-0.158
-347.450	101.631	0.119	0.140
-346.435	-200.000	0.015	-0.078
-345.420	641.511	0.029	-0.075
-344.406	509.903	-0.083	-0.195
-343.391	-112.810	0.227	0.045
-342.377	191.058	0.114	-0.172
-341.362	-200.000	0.002	-0.107
-340.348	-182.689	-0.189	0.003
-339.333	136.655	-0.070	-0.093
-338.318	-125.064	-0.070	-0.011
-337.304	-26.701	0.065	-0.038
-336.289	-184.748	0.099	-0.002
-335.275	-38.878	-0.144	0.076
-334.260	92.000	0.138	0.156
-333.245	-146.125	0.069	0.006
-332.231	272.916	0.181	0.321
-331.216	170.372	-0.210	-0.302
-330.202	59.665	-0.024	0.023
-329.187	-102.074	-0.240	-0.058
-328.172	-85.770	0.351	0.110
-327.158	-113.582	0.118	0.023
-326.143	-41.138	-0.098	0.051
-325.129	-200.000	0.008	-0.431
-324.114	156.322	-0.088	0.122
-323.099	-73.071	0.229	0.084
-322.085	-84.397	-0.203	0.065
-321.070	-3.756	0.281	-0.196
-320.056	572.011	0.097	-0.236
-319.041	800.000	-0.051	0.174
-318.026	-100.589	0.292	0.073
-317.012	39.544	-0.306	0.275
-315.997	-121.103	-0.051	-0.009
-314.983	168.386	0.285	-0.408
-313.968	75.636	0.161	0.171
-312.953	-117.593	0.550	-0.100
-311.939	-200.000	-0.038	0.347
-310.924	364.767	0.085	-0.172
-309.910	-200.000	0.004	-0.091
-308.895	0.021	0.072	0.052
-307.880	-136.279	-0.281	-0.033
-306.866	14.097	-0.281	-0.220
-305.851	-22.167	-0.226	-0.138
-304.837	800.000	-0.035	0.112
-303.822	-53.968	-0.123	-0.056
-302.807	-45.728	-0.301	-0.150
-301.793	-173.065	-0.131	0.004
-300.778	185.637	-0.118	0.176
-299.764	-200.000	-0.001	-0.105
-298.749	254.615	0.079	0.136
-297.735	-86.743	0.249	-0.076
-296.720	369.589	-0.067	0.135
-295.705	-118.862	-0.135	-0.024
-294.691	-70.160	-0.231	-0.088
-293.676	182.361	0.187	0.278
-292.662	88.913	-0.127	-0.142
-291.647	383.778	-0.251	-0.519
-290.632	209.248	-0.033	0.052
-289.618	-102.390	-0.405	0.098
-288.603	-200.000	-0.001	-0.120
-287.589	-139.033	-0.375	-0.041
-286.574	21.339	-0.035	0.028
-285.559	-11.213	-0.138	0.091
-284.545	561.263	0.078	0.190
-283.530	-96.357	-0.124	-0.033
-282.516	68.568	-0.094	-0.097
-281.501	-34.494	-0.271	-0.149
-280.486	-10.697	0.036	0.024
-279.472	-114.927	0.209	0.040
-278.457	19.868	0.271	-0.219
-277.443	-141.076	0.191	0.020
-276.428	-130.660	0.320	0.043
-275.413	-200.000	-0.002	0.164
-274.399	-200.000	0.006	0.027
-273.384	-42.169	-0.290	-0.149
-272.370	135.872	0.152	-0.199
-271.355	-76.987	0.062	0.022
-270.340	-131.645	-0.282	-0.037
-269.326	6.037	-0.098	-0.073
-268.311	-52.481	0.029	-0.014
-267.297	-200.000	0.003	-0.203
-266.282	66.405	-0.182	-0.186
-265.267	-67.159	0.205	-0.081
-264.253	63.260	-0.184	-0.185
-263.238	93.013	0.089	0.101
-262.224	147.803	-0.261	-0.353
-261.209	-200.000	-0.003	0.218
-260.195	-152.290	-0.284	-0.021
-259.180	-200.000	0.043	0.488
-258.165	7.371	0.280	0.210
-257.151	-169.262	0.155	-0.006
-256.136	-37.222	-0.244	0.131
-255.122	-87.464	-0.253	-0.077
-254.107	95.324	-0.198	-0.227
-253.092	-145.117	-0.316	0.029
-252.078	-123.188	0.253	-0.041
-251.063	207.520	-0.136	0.212
-250.049	394.417	-0.102	0.213
-249.034	-19.148	-0.051	0.032
-248.019	55.583	-0.067	-0.065
-247.005	800.000	-0.113	0.382
-245.990	-24.346	-0.100	0.060
-244.976	20.626	-0.129	-0.105
-243.961	-160.193	0.067	-0.004
-242.946	48.959	-0.266	-0.250
-241.932	-47.807	0.222	0.108
-240.917	-200.000	0.056	0.343
-239.903	31.064	-0.176	0.152
-238.888	254.622	0.118	-0.203
-237.873	-75.505	0.282	-0.100
-236.859	-80.196	0.104	0.035
-235.844	237.716	0.071	0.118
-234.830	-126.739	0.185	0.027
-233.815	800.000	-0.072	-0.301
-232.800	-40.197	0.313	0.163
-231.786	-200.000	-0.007	0.357
-230.771	178.523	-0.101	0.147
-229.757	-200.000	-0.067	0.484
-228.742	146.123	0.081	-0.109
-227.727	-200.000	0.017	0.236
-226.713	65.406	-0.323	-0.327
-225.698	-74.397	0.235	0.085
-224.684	87.373	-0.253	-0.280
-223.669	-200.000	0.078	0.410
-222.655	-108.249	0.388	-0.084
-221.640	-200.000	-0.031	-0.138
-220.625	800.000	-0.045	-0.133
-219.611	-200.000	-0.017	-0.196
-218.596	82.081	-0.028	-0.031
-217.582	-154.980	0.033	0.002
-216.567	305.559	0.175	0.325
-215.552	-200.000	-0.029	-0.127
-214.538	-78.254	0.215	-0.074
-213.523	-24.084	0.069	-0.041
-212.509	800.000	0.108	-0.299
-211.494	-200.000	0.031	-0.194
-210.479	302.521	-0.009	0.016
-209.465	77.834	0.317	0.338
-208.450	-65.006	0.186	-0.075
-207.436	-200.000	0.068	0.310
-206.421	114.755	-0.093	-0.114
-205.406	-36.636	0.328	-0.176
-204.392	-200.000	0.003	0.022
-203.377	800.000	-0.062	-0.210
-202.363	-1.609	-0.064	0.045
-201.348	-200.000	0.002	0.060
-200.333	102.991	-0.029	-0.035
-199.319	-41.289	-0.029	-0.015
-198.304	-1.921	0.214	-0.150
-197.290	-146.570	-0.209	-0.018
-196.275	244.457	0.017	-0.029
-195.260	528.694	0.052	-0.123
-194.246	-200.000	-0.014	-0.251
-193.231	-135.213	0.174	-0.021
-192.217	800.000	0.157	-0.550
-191.202	800.000	0.056	-0.166
-190.187	-78.431	0.356	-0.122
-189.173	-45.768	0.208	-0.103
-188.158	-200.000	-0.009	-0.153
-187.144	-123.888	0.009	-0.001
-186.129	-112.608	0.108	-0.021
-185.114	121.917	0.183	-0.229
-184.100	800.000	0.034	-0.119
-183.085	-200.000	0.006	0.097
-182.071	19.691	-0.178	-0.143
-181.056	-200.000	-0.029	0.214
-180.042	-114.495	0.155	0.030
-179.027	209.839	0.079	-0.124
-178.012	-92.718	-0.081	0.023
-176.998	58.900	0.110	-0.108
-175.983	114.259	-0.240	0.292
-174.969	174.401	0.077	-0.111
-173.954	-128.988	-0.222	0.031
-172.939	800.000	0.015	0.063
-171.925	-160.014	0.112	0.006
-170.910	304.724	-0.153	0.284
-169.896	-200.000	-0.022	0.098
-168.881	58.132	0.083	0.082
-167.866	149.649	0.158	0.214
-166.852	539.048	-0.073	-0.174
-165.837	-200.000	0.024	0.187
-164.823	-55.709	-0.160	0.072
-163.808	-8.072	0.258	0.174
-162.793	51.354	0.072	0.068
-161.779	8.011	0.207	0.155
-160.764	-200.000	-0.043	0.224
-159.750	106.398	0.139	0.164
-158.735	260.933	-0.057	0.099
-157.720	800.000	-0.063	0.257
-156.706	571.450	0.033	0.080
-155.691	-51.261	0.193	-0.090
-154.677	-200.000	-0.070	0.402
-153.662	63.985	-0.061	0.061
-152.647	-50.631	-0.080	-0.038
-151.633	-22.611	-0.077	0.047
-150.618	742.356	-0.077	0.208
-149.604	447.082	0.070	0.153
-148.589	800.000	0.065	-0.180
-147.574	-137.144	-0.227	0.026
-146.560	-30.547	0.208	-0.118
-145.545	-24.793	-0.211	0.125
-144.531	794.957	-0.114	0.313
-143.516	396.611	0.089	-0.185
-142.502	162.898	0.065	0.092
-141.487	-9.095	0.156	0.104
-140.472	151.319	-0.094	0.128
-139.458	48.334	-0.029	-0.027
-138.443	-79.203	-0.205	-0.069
-137.429	-109.158	-0.129	-0.027
-136.414	-200.000	-0.007	-0.038
-135.399	517.689	0.214	0.500
-134.385	-72.413	0.163	0.060
-133.370	13.204	-0.186	-0.144
-132.356	-200.000	-0.039	0.270
-131.341	85.263	-0.406	0.444
-130.326	-161.746	0.130	0.007
-129.312	-200.000	-0.015	-0.100
-128.297	-200.000	0.035	-0.235
-127.283	543.347	-0.026	0.062
-126.268	-200.000	-0.046	-0.328
-125.253	-96.541	-0.146	-0.039
-124.239	-200.000	-0.001	0.067
-123.224	-200.000	0.008	0.132
-122.210	-48.017	0.173	0.083
-121.195	-200.000	0.052	0.408
-120.180	800.000	-0.041	0.131
-119.166	-159.319	-0.153	-0.009
-118.151	-94.391	0.243	-0.066
-117.137	-78.639	0.247	0.084
-116.122	-82.768	0.472	-0.152
-115.107	-67.742	-0.228	-0.089
-114.093	192.769	-0.166	0.249
-113.078	172.710	0.038	0.054
-112.064	278.375	-0.140	-0.248
-111.049	95.800	-0.178	-0.203
-110.034	7.379	-0.046	-0.034
-109.020	-148.094	-0.326	0.027
-108.005	185.994	0.112	0.166
-106.991	-156.193	-0.185	0.012
-105.976	-151.675	0.298	-0.022
-104.962	-24.449	0.297	0.176
-103.947	-53.642	0.192	-0.087
-102.932	-74.138	0.319	0.115
-101.918	-136.827	0.314	0.036
-100.903	-200.000	0.039	0.304
-99.889	263.190	-0.058	0.100
-98.874	4.730	0.098	0.072
-97.859	-23.100	-0.199	0.120
-96.845	-199.364	-0.150	0.001
-95.830	30.945	0.329	0.281
-94.816	147.334	-0.091	-0.123
-93.801	800.000	0.093	-0.373
-92.786	-76.795	-0.255	0.089
-91.772	-100.006	0.232	0.058
-90.757	356.379	0.050	-0.100
-89.743	613.028	-0.043	0.108
-88.728	-44.570	-0.034	0.017
-87.713	25.738	0.241	0.200
-86.699	250.952	0.089	-0.150
-85.684	18.441	-0.018	0.015
-84.670	-172.427	-0.222	0.007
-83.655	217.780	0.147	-0.234
-82.640	-163.514	0.122	-0.006
-81.626	-19.092	0.306	0.190
-80.611	-102.555	-0.522	-0.124
-79.597	-145.360	-0.278	-0.025
-78.582	-200.000	0.068	0.297
-77.567	-37.232	-0.206	0.110
-76.553	-200.000	0.009	0.137
-75.538	2.350	-0.249	-0.179
-74.524	-105.181	0.377	0.086
-73.509	-200.000	0.000	0.411
-72.494	-11.453	0.068	0.044
-71.480	360.024	-0.038	0.076
-70.465	45.546	0.210	0.193
-69.451	-158.007	0.199	0.012
-68.436	186.962	0.049	-0.073
-67.422	-200.000	-0.001	0.255
-66.407	-15.462	-0.213	0.136
-65.392	-200.000	0.010	-0.140
-64.378	81.384	0.069	-0.074
-63.363	-95.433	-0.383	0.102
-62.349	512.341	0.086	-0.199
-61.334	62.199	-0.648	-0.643
-60.319	800.000	0.078	0.303
-59.305	-200.000	0.046	-0.892
-58.290	119.817	0.587	0.724
-57.276	800.000	0.403	1.441
-56.261	-200.000	85.792	508.578
-55.246	552.628	1378.395	3294.631
-54.232	178.453	2634.215	3826.829
-53.217	110.949	2403.428	2878.298
-52.203	44.054	2142.437	1953.759
-51.188	39.373	2049.276	1825.451
-50.173	37.769	2029.449	1792.976
-49.159	50.706	2073.401	1952.316
-48.144	53.789	2093.400	1999.755
-47.130	40.182	2054.358	1837.209
-46.115	37.714	2043.283	1804.398
-45.100	37.631	2040.241	1800.878
-44.086	37.650	2038.070	1799.060
-43.071	37.564	2035.399	1795.838
-42.057	37.536	2033.517	1793.845
-41.042	37.525	2032.083	1792.408
-40.027	37.606	2029.949	1791.199
-39.013	37.667	2027.538	1789.564
-37.998	37.521	2026.433	1787.183
-36.984	37.647	2023.885	1786.013
-35.969	37.536	2022.046	1783.309
-34.954	37.618	2020.097	1782.264
-33.940	37.707	2018.714	1781.785
-32.925	37.647	2017.181	1779.820
-31.911	37.701	2015.510	1778.766
-30.896	37.713	2013.526	1777.056
-29.881	37.711	2012.268	1775.851
-28.867	37.708	2010.487	1774.188
-27.852	37.780	2008.398	1772.930
-26.838	37.665	2007.293	1770.837
-25.823	37.691	2005.135	1769.094
-24.809	37.707	2002.753	1767.070
-23.794	37.665	2001.211	1765.256
-22.779	37.680	1999.406	1763.735
-21.765	37.584	1998.112	1761.651
-20.750	37.672	1996.520	1760.979
-19.736	37.682	1994.256	1758.996
-18.721	37.671	1992.889	1757.626
-17.706	37.701	1991.433	1756.541
-16.692	37.617	1990.192	1754.615
-15.677	37.726	1987.862	1753.472
-14.663	37.647	1986.564	1751.549
-13.648	37.628	1985.711	1750.556
-12.633	37.684	1983.980	1749.468
-11.619	37.616	1982.711	1747.664
-10.604	37.645	1981.119	1746.451
-9.590	37.524	1980.568	1744.815
-8.575	37.639	1978.653	1744.086
-7.560	37.723	1976.559	1742.921
-6.546	37.693	1975.443	1741.600
-5.531	37.746	1974.018	1740.754
-4.517	37.610	1973.641	1739.133
-3.502	37.601	1972.462	1737.947
-2.487	37.700	1970.568	1737.089
-1.473	37.682	1969.451	1735.880
-0.458	37.762	1965.173	1732.750
0.556	35.290	1945.827	1707.301
1.571	31.147	1926.240	1653.353
2.586	26.824	1947.943	1633.005
3.600	25.405	1985.183	1651.046
4.615	24.792	1981.416	1642.138
5.629	18.615	1876.381	1501.074
6.644	6.893	1746.111	1300.765
7.659	0.366	1701.467	1214.919
8.673	-0.208	1697.733	1207.531
9.688	-0.286	1696.173	1205.683
10.702	-0.387	1694.654	1203.689
11.717	-0.558	1692.064	1200.374
12.731	-0.256	1691.275	1202.130
13.746	6.544	1708.089	1268.838
14.761	15.319	1727.483	1354.286
15.775	17.264	1728.449	1370.622
16.790	16.456	1725.936	1362.004
17.804	16.381	1725.237	1360.723
18.819	16.499	1723.846	1360.453
19.834	16.502	1723.360	1359.974
20.848	16.699	1722.980	1361.139
21.863	16.700	1722.079	1360.315
22.877	16.659	1720.918	1358.946
23.892	16.666	1720.065	1358.208
24.907	16.662	1719.151	1357.336
25.921	16.726	1718.151	1356.941
26.936	16.634	1717.174	1355.313
27.950	16.673	1716.136	1354.687
28.965	16.734	1715.355	1354.439
29.980	16.691	1714.318	1353.156
30.994	16.601	1713.210	1351.443
32.009	16.605	1711.713	1350.174
33.023	16.659	1710.308	1349.377
34.038	16.665	1709.464	1348.636
35.053	16.642	1708.200	1347.336
36.067	16.679	1706.766	1346.387
37.082	16.656	1706.249	1345.672
38.096	16.638	1705.273	1344.646
39.111	16.685	1704.159	1344.016
40.126	16.712	1703.054	1343.240
41.140	16.688	1702.357	1342.384
42.155	16.632	1701.555	1341.184
43.169	16.630	1700.484	1340.206
44.184	16.714	1699.001	1339.583
45.199	16.571	1698.116	1337.642
46.213	16.633	1696.342	1336.616
47.228	16.660	1695.042	1335.682
48.242	16.705	1693.463	1334.675
49.257	16.633	1692.527	1333.252
50.271	16.625	1691.729	1332.445
51.286	16.682	1690.095	1331.490
52.301	16.664	1689.274	1330.583
53.315	16.595	1687.586	1328.589
54.330	16.563	1686.243	1327.164
55.344	16.588	1684.570	1325.925
56.359	16.704	1682.975	1325.463
57.374	16.707	1682.253	1324.799
58.388	16.706	1680.552	1323.337
59.403	16.660	1679.537	1322.063
60.417	16.663	1678.474	1321.126
61.432	16.659	1676.803	1319.663
62.447	16.675	1675.542	1318.678
63.461	16.675	1674.721	1317.915
64.476	16.583	1674.080	1316.584
65.490	16.753	1672.402	1316.467
66.505	16.660	1671.225	1314.699
67.520	16.695	1669.962	1313.865
68.534	16.644	1669.234	1312.779
69.549	16.739	1667.733	1312.215
70.563	16.762	1666.316	1311.166
71.578	16.625	1665.360	1309.239
72.593	16.626	1664.531	1308.475
73.607	16.766	1662.896	1308.160
74.622	16.706	1662.100	1306.949
75.636	16.741	1661.470	1306.610
76.651	16.738	1660.488	1305.700
77.666	16.780	1659.168	1304.869
78.680	16.700	1658.197	1303.375
79.695	16.767	1657.058	1302.880
80.709	16.615	1656.676	1301.296
81.724	16.658	1655.241	1300.387
82.739	16.632	1654.590	1299.562
83.753	16.623	1653.633	1298.626
84.768	16.678	1651.793	1297.484
85.782	16.673	1651.076	1296.765
86.797	16.696	1649.750	1295.788
87.812	16.626	1648.957	1294.515
88.826	16.651	1647.842	1293.715
89.841	16.647	1646.408	1292.447
90.855	16.631	1645.671	1291.628
91.870	16.673	1644.487	1290.905
92.884	16.707	1643.536	1290.307
93.899	16.725	1641.919	1289.058
94.914	16.659	1640.914	1287.650
95.928	16.705	1639.653	1286.899
96.943	16.713	1637.886	1285.458
97.957	16.688	1636.982	1284.446
98.972	16.701	1635.125	1282.972
99.987	16.673	1634.037	1281.797
101.001	16.747	1631.399	1280.174
102.016	16.748	1629.950	1278.927
103.030	16.651	1629.158	1277.459
104.045	16.661	1627.504	1276.131
105.060	16.721	1625.830	1275.156
106.074	16.759	1624.316	1274.142
107.089	16.721	1622.887	1272.618
108.103	16.753	1621.599	1271.738
109.118	16.737	1620.194	1270.406
110.133	16.767	1618.505	1269.193
111.147	16.793	1616.924	1268.031
112.162	16.842	1615.756	1267.372
113.176	16.822	1614.257	1265.936
114.191	16.766	1612.647	1264.146
115.206	16.783	1611.721	1263.430
116.220	16.748	1610.363	1261.997
117.235	16.768	1609.000	1260.962
118.249	16.752	1607.463	1259.531
119.264	16.689	1606.568	1258.248
120.279	16.747	1604.392	1256.862
121.293	16.703	1603.486	1255.714
122.308	16.706	1601.754	1254.268
123.322	16.779	1599.346	1252.811
124.337	16.731	1598.287	1251.520
125.352	16.766	1597.315	1250.905
126.366	16.746	1595.985	1249.606
127.381	16.779	1594.842	1248.845
128.395	16.788	1593.477	1247.732
129.410	16.826	1592.395	1247.052
130.424	16.794	1590.480	1245.210
131.439	16.885	1589.133	1244.710
132.454	16.716	1587.726	1242.261
133.468	16.797	1586.301	1241.630
134.483	16.811	1584.886	1240.513
135.497	16.912	1582.989	1239.655
136.512	16.801	1581.878	1237.869
137.527	16.838	1580.486	1236.937
138.541	16.917	1578.853	1236.127
139.556	16.870	1577.679	1234.758
140.570	16.805	1576.798	1233.483
141.585	16.788	1574.879	1231.752
142.600	16.829	1573.465	1230.835
143.614	16.816	1572.147	1229.601
144.629	16.844	1570.969	1228.770
145.643	16.810	1569.654	1227.387
146.658	16.833	1568.150	1226.270
147.673	16.779	1566.810	1224.722
148.687	16.769	1565.459	1223.484
149.702	16.714	1564.267	1222.052
150.716	16.689	1562.583	1220.443
151.731	16.809	1561.322	1220.216
152.746	16.771	1560.306	1219.042
153.760	16.815	1558.511	1217.848
154.775	16.776	1557.401	1216.591
155.789	16.769	1556.737	1215.914
156.804	16.792	1555.133	1214.720
157.819	16.787	1554.064	1213.745
158.833	16.735	1552.789	1212.263
159.848	16.853	1551.298	1211.836
160.862	16.809	1550.369	1210.692
161.877	16.851	1549.093	1209.888
162.892	16.797	1548.608	1209.015
163.906	16.898	1547.321	1208.625
164.921	16.876	1545.921	1207.266
165.935	16.840	1545.151	1206.302
166.950	16.893	1543.883	1205.584
167.964	16.848	1542.771	1204.286
168.979	16.885	1541.730	1203.635
169.994	16.927	1540.718	1203.031
171.008	16.970	1539.408	1202.207
172.023	16.896	1538.686	1201.015
173.037	16.868	1537.682	1199.927
174.052	16.957	1536.195	1199.291
175.067	17.007	1534.741	1198.398
176.081	16.870	1534.541	1197.169
177.096	16.852	1533.565	1196.179
178.110	16.844	1532.269	1195.006
179.125	16.935	1531.127	1194.652
180.140	16.943	1529.628	1193.429
181.154	16.897	1529.421	1192.839
182.169	16.917	1528.305	1192.002
183.183	16.851	1526.929	1190.365
184.198	16.932	1526.238	1190.283
185.213	16.944	1525.028	1189.318
186.227	16.886	1524.049	1188.045
187.242	16.934	1522.890	1187.372
188.256	16.972	1522.099	1186.920
189.271	17.061	1521.217	1186.747
190.286	17.000	1519.830	1185.138
191.300	17.001	1519.065	1184.437
192.315	16.992	1518.247	1183.635
193.329	16.899	1517.337	1182.175
194.344	16.937	1516.375	1181.586
195.359	17.058	1515.429	1181.586
196.373	17.010	1514.293	1180.260
197.388	17.093	1513.269	1179.930
198.402	16.888	1512.331	1177.674
199.417	16.952	1511.205	1177.134
200.432	16.964	1510.491	1176.558
201.446	17.020	1509.403	1175.997
202.461	17.006	1508.222	1174.872
203.475	16.961	1507.689	1174.047
204.490	16.920	1506.882	1173.031
205.504	17.007	1505.278	1172.274
206.519	16.985	1504.189	1171.176
207.534	17.001	1503.489	1170.633
208.548	16.996	1502.634	1169.833
209.563	17.032	1501.554	1169.133
210.577	17.044	1500.227	1168.082
211.592	17.043	1499.831	1167.661
212.607	16.931	1499.556	1166.574
213.621	17.020	1498.123	1165.968
214.636	17.061	1497.565	1165.709
215.650	17.103	1496.744	1165.259
216.665	17.107	1495.263	1164.033
217.680	17.075	1494.747	1163.306
218.694	17.028	1494.051	1162.338
219.709	17.075	1492.950	1161.701
220.723	17.030	1492.201	1160.710
221.738	17.034	1491.779	1160.308
222.753	17.074	1490.507	1159.486
223.767	17.016	1489.506	1158.211
224.782	17.003	1488.385	1157.148
225.796	17.037	1487.630	1156.691
226.811	17.186	1486.828	1156.980
227.826	17.072	1486.291	1155.678
228.840	17.046	1485.646	1154.901
229.855	17.232	1484.243	1154.973
230.869	17.027	1483.722	1153.073
231.884	17.212	1482.158	1153.006
232.899	17.094	1481.208	1151.366
233.913	17.087	1480.372	1150.569
234.928	17.082	1479.361	1149.648
235.942	17.270	1477.801	1149.605
236.957	17.170	1477.020	1148.217
237.972	17.236	1476.030	1147.792
238.986	17.219	1474.743	1146.577
240.001	17.150	1474.085	1145.501
241.015	17.173	1472.754	1144.521
242.030	17.260	1471.832	1144.287
243.045	17.338	1470.928	1144.008
244.059	17.219	1470.439	1142.723
245.074	17.251	1469.330	1141.977
246.088	17.297	1468.175	1141.289
247.103	17.281	1467.432	1140.500
248.117	17.182	1467.329	1139.658
249.132	17.177	1466.682	1139.021
250.147	17.318	1465.353	1138.833
251.161	17.270	1464.661	1137.870
252.176	17.398	1463.485	1137.716
253.190	17.357	1463.104	1137.043
254.205	17.439	1462.140	1136.738
255.220	17.400	1461.464	1135.852
256.234	17.389	1460.279	1134.756
257.249	17.400	1459.573	1134.181
258.263	17.336	1459.097	1133.287
259.278	17.371	1458.169	1132.695
260.293	17.243	1457.712	1131.389
261.307	17.424	1456.341	1131.427
262.322	17.365	1455.928	1130.618
263.336	17.399	1454.880	1129.931
264.351	17.470	1453.925	1129.557
265.366	17.279	1453.146	1127.588
266.380	17.448	1452.105	1127.796
267.395	17.354	1451.237	1126.405
268.409	17.375	1450.406	1125.794
269.424	17.485	1449.484	1125.706
270.439	17.448	1448.335	1124.471
271.453	17.413	1447.481	1123.480
272.468	17.513	1446.418	1123.214
273.482	17.524	1445.847	1122.746
274.497	17.453	1445.122	1121.613
275.512	17.340	1445.056	1120.717
276.526	17.464	1443.919	1120.554
277.541	17.475	1442.367	1119.324
278.555	17.506	1441.956	1119.109
279.570	17.471	1441.078	1118.099
280.585	17.541	1439.705	1117.393
281.599	17.587	1439.061	1117.096
282.614	17.510	1438.172	1115.800
283.628	17.535	1437.311	1115.196
284.643	17.618	1436.202	1114.780
285.657	17.535	1435.014	1113.222
286.672	17.517	1434.251	1112.414
287.687	17.484	1433.309	1111.365
288.701	17.447	1432.350	1110.284
289.716	17.493	1431.813	1110.069
290.730	17.628	1431.093	1110.291
291.745	17.594	1429.977	1109.106
292.760	17.615	1428.656	1108.121
293.774	17.623	1427.621	1107.276
294.789	17.546	1427.176	1106.328
295.803	17.634	1426.392	1106.192
296.818	17.591	1425.556	1105.167
297.833	17.623	1424.313	1104.316
298.847	17.624	1423.617	1103.686
299.862	17.703	1422.783	1103.451
300.876	17.740	1421.656	1102.721
301.891	17.676	1420.605	1101.396
302.906	17.638	1420.125	1100.678
303.920	17.716	1419.596	1100.675
304.935	17.736	1418.768	1100.065
305.949	17.703	1418.070	1099.216
306.964	17.643	1417.364	1098.179
307.979	17.764	1415.860	1097.699
308.993	17.796	1414.730	1096.929
310.008	17.804	1414.370	1096.603
311.022	17.745	1413.571	1095.510
312.037	17.698	1412.819	1094.531
313.052	17.660	1411.791	1093.389
314.066	17.735	1410.648	1092.888
315.081	17.772	1409.364	1092.039
316.095	17.825	1408.641	1091.715
317.110	17.790	1407.418	1090.451
318.125	17.796	1406.945	1090.027
319.139	17.848	1405.829	1089.399
320.154	17.826	1405.016	1088.530
321.168	17.823	1404.217	1087.795
322.183	17.843	1402.927	1086.830
323.197	17.913	1401.842	1086.336
324.212	17.843	1401.325	1085.396
325.227	17.851	1400.373	1084.610
326.241	17.880	1399.557	1084.067
327.256	17.840	1398.857	1083.177
328.270	17.899	1397.818	1082.647
329.285	18.001	1397.023	1082.584
330.300	17.882	1396.190	1081.091
331.314	17.935	1395.420	1080.733
332.329	17.973	1394.760	1080.364
333.343	17.925	1393.637	1079.099
334.358	18.020	1392.874	1079.013
335.373	17.952	1392.143	1077.918
336.387	17.980	1391.618	1077.595
337.402	18.040	1390.524	1077.029
338.416	18.051	1390.041	1076.629
339.431	17.975	1389.510	1075.644
340.446	18.027	1388.614	1075.181
341.460	17.978	1387.694	1074.068
342.475	18.049	1386.547	1073.532
343.489	18.058	1386.137	1073.176
344.504	18.027	1384.837	1071.878
345.519	18.082	1383.969	1071.460
346.533	18.157	1382.258	1070.509
347.548	18.088	1381.860	1069.672
348.562	18.108	1381.002	1069.040
349.577	18.061	1380.180	1068.018
350.592	18.045	1380.134	1067.784
351.606	18.127	1379.013	1067.335
352.621	18.048	1378.219	1066.132
353.635	18.105	1376.636	1065.168
354.650	18.118	1376.379	1064.957
355.665	18.113	1374.833	1063.633
356.679	18.113	1374.122	1062.991
357.694	18.097	1373.046	1061.968
358.708	18.226	1371.772	1061.687
359.723	18.232	1370.380	1060.551
360.738	18.232	1369.383	1059.687
361.752	18.080	1368.801	1058.200
362.767	18.157	1367.457	1057.545
363.781	18.181	1366.490	1056.850
364.796	18.221	1366.337	1056.887
365.810	18.245	1365.356	1056.184
366.825	18.270	1364.552	1055.619
367.840	18.250	1363.473	1054.571
368.854	18.303	1362.827	1054.306
369.869	18.376	1362.228	1054.195
370.883	18.290	1361.784	1053.233
371.898	18.248	1361.047	1052.311
372.913	18.340	1360.461	1052.328
373.927	18.412	1359.480	1051.920
374.942	18.375	1358.401	1050.766
375.956	18.310	1358.138	1050.068
376.971	18.371	1357.630	1049.956
377.986	18.340	1356.664	1048.929
379.000	18.296	1355.498	1047.666
380.015	18.387	1354.821	1047.603
381.029	18.521	1353.626	1047.408
382.044	18.422	1353.540	1046.645
383.059	18.476	1352.717	1046.242
384.073	18.460	1351.741	1045.299
385.088	18.467	1351.132	1044.777
386.102	18.510	1350.765	1044.665
387.117	18.480	1349.884	1043.704
388.132	18.512	1349.016	1043.138
389.146	18.526	1347.898	1042.266
390.161	18.489	1347.514	1041.652
391.175	18.567	1347.071	1041.691
392.190	18.555	1346.179	1040.834
393.205	18.472	1345.460	1039.684
394.219	18.602	1343.570	1038.921
395.234	18.516	1342.747	1037.671
396.248	18.523	1341.836	1036.916
397.263	18.647	1340.063	1036.203
398.278	18.644	1338.996	1035.267
399.292	18.604	1338.257	1034.364
400.307	18.664	1337.365	1033.947
401.321	18.656	1336.281	1032.969
402.336	18.625	1335.691	1032.237
403.350	18.567	1334.769	1031.084
404.365	18.651	1333.512	1030.522
405.380	18.678	1332.458	1029.777
406.394	18.668	1331.605	1028.967
407.409	18.685	1330.972	1028.492
408.423	18.666	1330.569	1027.977
409.438	18.747	1329.774	1027.757
410.453	18.650	1329.386	1026.787
411.467	18.639	1328.351	1025.825
412.482	18.752	1327.880	1026.051
413.496	18.787	1326.652	1025.217
414.511	18.802	1326.022	1024.732
415.526	18.733	1325.289	1023.660
416.540	18.851	1324.192	1023.426
417.555	18.842	1323.482	1022.736
418.569	18.819	1322.944	1022.089
419.584	18.712	1322.856	1021.295
420.599	18.775	1322.208	1021.076
421.613	134.332	1422.874	1779.254
422.628	130.994	1437.503	1779.403
