DTS Sentinel unit serial number:	SN413079Multiplexer serial number:	ORYXHardware model number:	OX4-SRSoftware version number:	ORYX F/W v4.00 Oryx Data Collector v3.7.2.0data status	okinstallation	princeton_trtdifferential loss correction	single-endedforward channel	channel 4reverse channel	N/Adate	2019/09/11time	23:39:10forward acquisition time	60.00reverse acquisition time	0.00gamma	496.2192k internal	0.2309k external	0.2309temperature offset calibration	1.0076default loss term (dB/km)	0.3790temperature slope calibration	1.0000multiplexer offset coefficient	1.0000multiplexer slope coefficient	1.0000fibre end	0.00T internal ref (°C)	34.12T ext. ref 1 (°C)	1.88T ext. ref 2 (°C)	28.53length (m)	temperature (°C)	Stokes	anti-Stokes-747.200	-200.000	-0.076	0.353
-746.185	-22.664	-0.207	0.127
-745.171	78.892	-0.217	0.236
-744.156	-110.973	0.384	0.080
-743.142	4.646	0.186	-0.139
-742.127	-200.000	0.005	0.066
-741.112	-200.000	-0.011	0.214
-740.098	-200.000	-0.025	0.552
-739.083	9.010	0.066	0.050
-738.069	800.000	-0.053	0.212
-737.054	800.000	-0.089	-0.350
-736.039	529.088	-0.040	-0.096
-735.025	61.838	0.122	0.123
-734.010	-98.984	-0.400	0.103
-732.996	-173.198	-0.204	0.006
-731.981	461.726	0.099	0.224
-730.966	119.169	-0.184	0.231
-729.952	110.330	-0.127	-0.155
-728.937	60.410	0.060	-0.060
-727.923	-200.000	-0.011	-0.248
-726.908	-15.489	-0.200	0.129
-725.894	-52.002	-0.147	-0.069
-724.879	163.860	-0.152	-0.218
-723.864	17.669	0.027	-0.021
-722.850	-200.000	-0.016	-0.239
-721.835	39.624	-0.024	0.022
-720.821	800.000	-0.039	-0.165
-719.806	259.517	0.110	0.194
-718.791	405.438	-0.061	0.131
-717.777	-0.228	0.204	-0.148
-716.762	800.000	0.067	-0.199
-715.748	51.406	-0.259	-0.249
-714.733	21.652	-0.088	-0.072
-713.718	77.781	-0.312	0.338
-712.704	9.816	-0.325	-0.250
-711.689	-19.467	0.208	0.131
-710.675	-200.000	0.012	-0.183
-709.660	469.415	-0.143	0.327
-708.645	800.000	-0.171	-0.539
-707.631	-200.000	0.019	0.254
-706.616	-163.385	-0.104	0.005
-705.602	253.763	-0.083	0.144
-704.587	73.198	-0.014	0.015
-703.572	5.220	-0.362	0.270
-702.558	324.363	-0.065	-0.127
-701.543	75.964	-0.226	-0.243
-700.529	-200.000	0.005	0.088
-699.514	257.537	0.151	-0.263
-698.499	-200.000	0.005	-0.344
-697.485	-105.519	0.368	-0.085
-696.470	207.107	0.014	0.022
-695.456	2.922	0.169	0.124
-694.441	49.247	0.258	-0.246
-693.426	747.643	-0.044	0.119
-692.412	75.372	-0.064	-0.069
-691.397	800.000	-0.076	-0.309
-690.383	-95.386	-0.106	0.029
-689.368	83.255	-0.140	0.155
-688.354	800.000	0.118	-0.396
-687.339	-200.000	0.077	-0.403
-686.324	158.800	-0.227	-0.320
-685.310	-94.383	0.136	-0.038
-684.295	800.000	-0.037	-0.104
-683.281	358.446	-0.090	0.181
-682.266	-154.360	-0.446	0.030
-681.251	800.000	-0.147	-0.464
-680.237	-200.000	0.033	-0.232
-679.222	39.093	-0.286	0.259
-678.208	-127.635	-0.295	0.043
-677.193	-121.516	0.370	0.062
-676.178	800.000	-0.107	-0.329
-675.164	-120.909	0.466	0.079
-674.149	-134.071	-0.104	0.013
-673.135	-97.481	-0.038	0.010
-672.120	-200.000	-0.023	-0.170
-671.105	316.230	-0.068	0.131
-670.091	-8.347	-0.185	-0.126
-669.076	-6.438	0.180	-0.125
-668.062	326.982	0.123	0.239
-667.047	-52.272	-0.217	0.102
-666.032	-24.773	-0.033	-0.020
-665.018	800.000	0.023	0.092
-664.003	48.055	0.202	0.191
-662.989	7.399	0.194	0.147
-661.974	292.396	-0.085	-0.157
-660.959	373.011	-0.120	-0.246
-659.945	800.000	-0.057	0.165
-658.930	-85.859	-0.139	0.044
-657.916	-200.000	-0.006	-0.051
-656.901	34.946	-0.112	0.099
-655.886	51.960	0.108	-0.104
-654.872	-34.047	-0.568	-0.316
-653.857	-23.801	0.529	0.321
-652.843	-200.000	-0.048	0.303
-651.828	-80.218	-0.221	-0.075
-650.814	65.421	0.051	-0.053
-649.799	-200.000	-0.061	-0.312
-648.784	800.000	0.047	0.163
-647.770	-84.516	-0.391	-0.125
-646.755	51.878	0.169	-0.163
-645.741	-200.000	0.006	0.123
-644.726	-23.383	-0.096	0.059
-643.711	355.611	0.103	-0.208
-642.697	-200.000	-0.003	-0.335
-641.682	-17.570	-0.222	0.141
-640.668	-200.000	0.025	0.313
-639.653	186.672	0.178	-0.269
-638.638	54.884	0.317	-0.310
-637.624	800.000	-0.069	0.208
-636.609	-143.502	0.172	-0.017
-635.595	16.183	0.238	-0.190
-634.580	800.000	0.101	-0.295
-633.565	57.355	0.149	0.147
-632.551	238.814	0.060	0.102
-631.536	800.000	0.055	-0.158
-630.522	9.998	0.223	-0.171
-629.507	-102.458	-0.060	0.014
-628.492	800.000	-0.129	-0.463
-627.478	800.000	0.057	-0.161
-626.463	-200.000	0.028	0.225
-625.449	-50.244	0.284	-0.136
-624.434	-26.251	-0.302	0.179
-623.419	3.625	-0.121	-0.089
-622.405	3.439	0.145	0.107
-621.390	-37.114	0.259	0.140
-620.376	-15.814	-0.218	0.140
-619.361	146.252	-0.176	0.239
-618.346	23.924	-0.229	0.191
-617.332	31.382	-0.114	-0.099
-616.317	182.759	0.218	0.324
-615.303	-200.000	-0.047	-0.387
-614.288	-200.000	0.028	0.439
-613.273	-19.734	0.150	0.094
-612.259	800.000	0.153	-0.443
-611.244	-152.802	-0.391	-0.028
-610.230	-85.980	0.157	0.049
-609.215	-153.378	0.073	0.005
-608.201	-9.885	0.177	-0.119
-607.186	-200.000	0.529	-0.002
-606.171	-200.000	-0.013	-0.171
-605.157	-15.945	-0.346	-0.223
-604.142	145.924	-0.077	0.104
-603.128	28.751	-0.168	0.143
-602.113	-200.000	-0.065	-0.385
-601.098	-35.266	-0.168	0.092
-600.084	-200.000	-0.010	-0.120
-599.069	557.126	-0.066	0.162
-598.055	-9.043	-0.119	0.080
-597.040	414.879	-0.038	-0.083
-596.025	9.074	-0.068	0.052
-595.011	96.792	-0.100	-0.116
-593.996	-200.000	-0.025	-0.195
-592.982	800.000	0.050	0.160
-591.967	-200.000	0.025	-0.341
-590.952	82.910	-0.205	-0.226
-589.938	117.888	0.110	-0.136
-588.923	118.345	-0.106	-0.132
-587.909	-182.723	-0.040	-0.001
-586.894	25.234	-0.254	-0.213
-585.879	-200.000	-0.045	-0.205
-584.865	-78.182	0.051	0.018
-583.850	-92.486	0.265	0.075
-582.836	-198.446	-0.133	-0.001
-581.821	205.713	-0.053	-0.083
-580.806	-200.000	0.010	0.222
-579.792	33.036	-0.228	-0.200
-578.777	446.676	-0.076	-0.169
-577.763	-143.362	0.288	-0.028
-576.748	-200.000	-0.046	-0.307
-575.733	-27.187	0.130	0.077
-574.719	69.742	-0.051	0.053
-573.704	12.345	-0.300	-0.233
-572.690	-61.233	-0.035	-0.015
-571.675	583.925	0.041	0.101
-570.661	-23.994	0.207	-0.125
-569.646	-200.000	0.022	-0.294
-568.631	83.268	-0.219	-0.241
-567.617	-77.292	0.188	0.066
-566.602	-115.383	-0.175	0.033
-565.588	7.973	0.161	-0.122
-564.573	678.930	0.023	0.061
-563.558	-78.624	-0.029	0.010
-562.544	82.609	-0.099	0.108
-561.529	133.184	-0.071	-0.092
-560.515	-158.234	-0.260	-0.015
-559.500	9.842	0.183	0.140
-558.485	-152.728	0.299	0.021
-557.471	800.000	-0.028	-0.108
-556.456	206.937	0.097	0.152
-555.442	-99.804	0.244	-0.062
-554.427	266.705	0.076	-0.134
-553.412	-126.362	0.143	-0.021
-552.398	-200.000	-0.015	0.174
-551.383	118.126	-0.281	0.349
-550.369	50.487	0.247	0.236
-549.354	800.000	0.049	0.156
-548.339	352.437	-0.127	0.253
-547.325	90.510	-0.295	-0.333
-546.310	-89.039	-0.220	0.065
-545.296	-164.207	-0.141	0.007
-544.281	238.271	-0.098	0.164
-543.266	798.285	0.025	0.069
-542.252	-200.000	-0.011	-0.237
-541.237	179.437	-0.131	-0.193
-540.223	-174.259	0.138	-0.004
-539.208	-66.836	-0.185	0.074
-538.193	452.919	0.117	0.261
-537.179	23.188	0.107	-0.089
-536.164	-140.666	0.349	0.036
-535.150	511.313	0.113	-0.265
-534.135	150.360	0.098	0.134
-533.121	-32.691	0.019	0.011
-532.106	-162.344	-0.416	0.021
-531.091	42.082	-0.267	0.244
-530.077	800.000	0.079	0.289
-529.062	-187.183	-0.454	0.006
-528.048	-22.008	-0.207	-0.126
-527.033	800.000	-0.033	-0.111
-526.018	-58.793	0.048	-0.021
-525.004	448.306	0.039	0.088
-523.989	-162.885	-0.282	-0.014
-522.975	678.419	-0.011	-0.029
-521.960	-2.476	-0.191	-0.135
-520.945	800.000	-0.021	-0.069
-519.931	-157.809	0.119	0.007
-518.916	-200.000	-0.042	-0.190
-517.902	-200.000	0.080	-0.443
-516.887	228.830	0.035	0.058
-515.872	-152.049	0.153	0.011
-514.858	-14.124	-0.404	0.263
-513.843	243.948	-0.069	0.117
-512.829	116.085	0.139	0.172
-511.814	-200.000	-0.018	-0.160
-510.799	-144.771	-0.180	0.017
-509.785	-148.007	-0.292	0.024
-508.770	-200.000	0.060	0.306
-507.756	172.040	-0.084	0.122
-506.741	-177.881	0.085	-0.002
-505.726	139.889	0.082	0.109
-504.712	119.042	-0.148	0.184
-503.697	-39.509	-0.231	-0.122
-502.683	57.969	0.107	-0.106
-501.668	800.000	-0.132	0.375
-500.653	-29.900	-0.233	0.133
-499.639	-141.744	0.101	0.010
-498.624	49.710	0.059	-0.056
-497.610	-200.000	-0.029	-0.229
-496.595	96.110	0.266	-0.306
-495.581	153.093	0.155	0.213
-494.566	-54.238	-0.359	0.164
-493.551	-151.068	0.145	-0.011
-492.537	-200.000	-0.045	-0.208
-491.522	-167.840	0.629	-0.025
-490.508	190.008	0.093	-0.141
-489.493	631.738	0.069	0.176
-488.478	-200.000	-0.024	0.501
-487.464	-102.422	-0.097	0.023
-486.449	-200.000	-0.037	0.193
-485.435	800.000	-0.012	-0.039
-484.420	-116.049	0.083	0.016
-483.405	-75.121	0.202	-0.073
-482.391	71.856	-0.266	-0.278
-481.376	-33.278	-0.194	0.108
-480.362	-124.526	0.354	0.055
-479.347	27.842	0.173	-0.146
-478.332	-33.053	0.284	0.159
-477.318	-87.446	0.217	0.066
-476.303	-40.122	0.214	0.112
-475.289	27.361	0.131	0.111
-474.274	10.155	0.227	0.174
-473.259	-50.208	-0.147	0.070
-472.245	267.803	0.017	-0.030
-471.230	-84.680	-0.273	-0.086
-470.216	-111.963	-0.129	0.026
-469.201	362.769	0.125	0.253
-468.186	-84.976	0.139	-0.044
-467.172	-200.000	0.003	-0.155
-466.157	774.124	-0.072	0.197
-465.143	-107.791	-0.068	-0.015
-464.128	-100.241	-0.152	-0.038
-463.113	800.000	0.133	-0.391
-462.099	774.794	-0.105	0.288
-461.084	501.772	0.065	-0.150
-460.070	-200.000	0.001	-0.025
-459.055	646.993	0.092	-0.236
-458.040	-149.375	0.264	0.021
-457.026	-115.722	-0.470	-0.089
-456.011	-200.000	-0.018	-0.145
-454.997	-200.000	0.067	0.319
-453.982	-200.000	-0.030	0.269
-452.968	-82.881	-0.475	0.154
-451.953	800.000	0.119	-0.346
-450.938	800.000	0.107	-0.339
-449.924	-200.000	0.010	0.129
-448.909	-78.378	0.193	-0.067
-447.895	348.283	-0.101	-0.200
-446.880	800.000	-0.076	0.308
-445.865	231.706	0.165	-0.272
-444.851	108.342	0.123	-0.147
-443.836	-200.000	-0.045	0.253
-442.822	628.487	0.127	-0.323
-441.807	31.840	0.066	0.057
-440.792	114.021	-0.162	-0.198
-439.778	121.563	-0.206	0.258
-438.763	800.000	-0.092	0.347
-437.749	-103.932	0.087	0.020
-436.734	-200.000	0.112	0.501
-435.719	-37.148	-0.228	0.122
-434.705	479.535	-0.119	-0.270
-433.690	-92.400	-0.139	-0.039
-432.676	44.667	-0.082	-0.076
-431.661	-200.000	-0.020	0.161
-430.646	-200.000	-0.200	0.001
-429.632	-5.171	-0.087	-0.060
-428.617	593.194	0.055	0.138
-427.603	-200.000	-0.036	0.371
-426.588	191.355	0.075	-0.114
-425.573	10.535	-0.022	-0.017
-424.559	331.365	-0.011	-0.020
-423.544	-200.000	0.006	0.199
-422.530	76.313	0.106	0.112
-421.515	-147.856	0.057	0.005
-420.500	753.283	0.191	-0.519
-419.486	41.618	-0.365	-0.332
-418.471	-200.000	0.008	0.111
-417.457	35.253	-0.240	-0.211
-416.442	354.913	0.085	-0.170
-415.428	129.874	-0.171	0.220
-414.413	-200.000	-0.064	0.315
-413.398	800.000	0.090	0.322
-412.384	800.000	-0.098	0.369
-411.369	-20.896	-0.383	0.235
-410.355	393.968	-0.079	0.164
-409.340	296.866	-0.116	-0.214
-408.325	271.363	-0.100	-0.177
-407.311	99.659	0.164	0.190
-406.296	-200.000	-0.032	0.202
-405.282	149.275	0.260	0.352
-404.267	613.350	0.108	-0.271
-403.252	53.416	0.235	0.226
-402.238	-16.356	-0.219	0.139
-401.223	800.000	-0.041	-0.136
-400.209	-63.604	0.038	-0.016
-399.194	89.835	-0.294	-0.330
-398.179	-131.752	0.273	-0.036
-397.165	66.708	-0.212	0.216
-396.150	-200.000	0.034	-0.264
-395.136	92.469	-0.194	0.219
-394.121	-99.655	-0.159	0.040
-393.106	-112.013	-0.089	-0.018
-392.092	28.647	0.224	0.190
-391.077	800.000	0.042	-0.147
-390.063	308.893	0.068	-0.128
-389.048	96.003	-0.034	-0.039
-388.033	800.000	0.008	0.031
-387.019	-200.000	0.038	0.197
-386.004	515.763	0.093	0.218
-384.990	97.066	-0.125	-0.144
-383.975	-1.428	-0.193	-0.136
-382.960	-124.307	-0.299	0.047
-381.946	119.189	0.303	0.376
-380.931	114.568	0.220	0.269
-379.917	121.713	0.102	0.128
-378.902	-80.958	0.216	0.072
-377.888	112.673	0.059	-0.071
-376.873	-200.000	0.002	0.090
-375.858	227.216	-0.131	0.214
-374.844	201.531	-0.176	-0.272
-373.829	-200.000	0.043	-0.214
-372.815	800.000	0.005	-0.020
-371.800	-200.000	0.021	0.127
-370.785	72.825	-0.147	-0.154
-369.771	-57.522	-0.170	-0.075
-368.756	246.473	-0.038	-0.064
-367.742	-122.676	-0.237	0.039
-366.727	-86.565	0.105	-0.032
-365.712	-200.000	-0.061	-0.270
-364.698	380.181	-0.093	0.191
-363.683	-42.018	0.185	-0.095
-362.669	196.285	-0.221	-0.336
-361.654	-141.753	-0.195	-0.020
-360.639	-28.748	-0.080	-0.046
-359.625	800.000	0.045	-0.159
-358.610	-81.331	0.251	-0.083
-357.596	-179.625	-0.110	-0.002
-356.581	253.893	0.036	-0.061
-355.566	754.860	0.042	0.114
-354.552	14.768	-0.213	0.167
-353.537	-110.395	0.153	-0.032
-352.523	45.385	0.104	-0.096
-351.508	660.912	0.145	-0.374
-350.493	2.730	-0.195	-0.142
-349.479	38.362	0.085	-0.075
-348.464	234.127	-0.182	0.300
-347.450	-71.349	0.173	-0.065
-346.435	-200.000	-0.032	0.168
-345.420	-200.000	0.031	-0.443
-344.406	-145.047	0.205	0.019
-343.391	-68.418	-0.065	0.025
-342.377	-54.282	-0.135	0.061
-341.362	341.554	0.061	0.119
-340.348	-63.637	0.307	0.126
-339.333	-64.056	0.297	0.121
-338.318	88.000	0.172	-0.191
-337.304	41.975	0.081	0.073
-336.289	-20.830	-0.221	0.135
-335.275	800.000	0.008	0.027
-334.260	251.273	0.180	-0.306
-333.245	-86.836	-0.244	0.074
-332.231	163.228	0.129	-0.182
-331.216	-200.000	-0.014	-0.096
-330.202	-190.002	0.065	-0.001
-329.187	129.020	-0.138	-0.177
-328.172	-200.000	0.055	-0.247
-327.158	161.523	-0.296	0.413
-326.143	-45.534	-0.345	-0.171
-325.129	110.301	-0.104	0.125
-324.114	-108.325	0.145	-0.031
-323.099	53.650	-0.200	-0.192
-322.085	194.054	-0.107	0.163
-321.070	-24.280	-0.021	0.013
-320.056	-200.000	-0.028	-0.188
-319.041	-17.991	0.058	-0.036
-318.026	800.000	-0.087	-0.242
-317.012	-200.000	0.048	-0.223
-315.997	-178.472	0.289	0.007
-314.983	-200.000	-0.010	-0.114
-313.968	1.395	0.057	0.041
-312.953	24.738	0.139	-0.115
-311.939	-95.353	0.159	-0.043
-310.924	-200.000	0.082	-0.378
-309.910	-37.559	-0.092	0.049
-308.895	88.930	0.217	0.241
-307.880	34.362	-0.103	-0.089
-306.866	-200.000	-0.022	-0.232
-305.851	-120.229	0.104	0.018
-304.837	-137.220	0.132	-0.015
-303.822	383.541	0.112	-0.231
-302.807	15.978	0.296	0.233
-301.793	-94.702	0.227	-0.061
-300.778	-87.306	-0.244	0.074
-299.764	-93.020	-0.042	0.012
-298.749	265.515	-0.121	-0.211
-297.735	56.897	-0.113	-0.110
-296.720	-200.000	0.067	0.354
-295.705	-71.725	-0.129	-0.048
-294.691	800.000	-0.104	0.439
-293.676	54.623	0.220	-0.212
-292.662	311.471	-0.042	-0.079
-291.647	80.508	-0.227	0.244
-290.632	146.699	-0.024	-0.032
-289.618	-200.000	-0.067	0.336
-288.603	-86.599	-0.098	0.030
-287.589	-123.345	0.498	-0.079
-286.574	64.151	0.193	0.194
-285.559	40.688	0.133	0.120
-284.545	-200.000	-0.035	-0.480
-283.530	1.534	0.181	0.130
-282.516	-62.517	0.105	0.044
-281.501	-47.730	-0.164	-0.080
-280.486	-200.000	-0.001	-0.046
-279.472	410.454	0.165	-0.350
-278.457	-67.125	0.119	0.047
-277.443	132.041	-0.280	0.360
-276.428	-200.000	-0.012	-0.054
-275.413	800.000	-0.166	0.460
-274.399	-119.988	0.438	0.075
-273.384	-59.016	-0.238	0.102
-272.370	-56.770	0.124	-0.055
-271.355	-200.000	0.009	0.334
-270.340	-147.713	-0.221	0.019
-269.326	44.795	-0.104	-0.095
-268.311	-200.000	0.044	0.309
-267.297	-140.592	0.265	0.027
-266.282	-200.000	-0.034	0.196
-265.267	-33.897	0.294	0.161
-264.253	800.000	-0.033	-0.118
-263.238	-133.405	-0.203	0.026
-262.224	-71.485	0.303	0.113
-261.209	188.154	0.168	-0.250
-260.195	47.691	-0.080	-0.075
-259.180	-23.489	0.405	-0.242
-258.165	-200.000	0.017	0.207
-257.151	-131.073	-0.290	-0.039
-256.136	-63.066	-0.235	-0.097
-255.122	203.292	-0.164	-0.253
-254.107	-52.978	0.415	-0.190
-253.092	-18.124	0.306	-0.191
-252.078	-66.824	0.129	-0.051
-251.063	-200.000	-0.002	0.441
-250.049	-53.466	-0.168	0.077
-249.034	-187.971	0.240	-0.003
-248.019	-47.650	-0.147	-0.071
-247.005	-200.000	0.047	0.222
-245.990	-200.000	0.010	-0.133
-244.976	800.000	0.051	0.146
-243.961	-95.056	-0.210	-0.057
-242.946	86.664	0.094	0.103
-241.932	-126.373	0.229	-0.034
-240.917	131.675	0.073	0.093
-239.903	19.792	-0.119	0.096
-238.888	102.839	0.243	0.283
-237.873	162.042	0.142	0.198
-236.859	-52.944	0.111	0.051
-235.844	-28.117	0.235	0.136
-234.830	-200.000	-0.043	-0.208
-233.815	-200.000	0.016	-0.124
-232.800	143.738	-0.025	0.033
-231.786	-161.895	-0.170	0.009
-230.771	88.544	-0.135	0.150
-229.757	-82.071	-0.375	0.122
-228.742	-52.732	0.066	0.030
-227.727	167.764	-0.094	0.134
-226.713	-59.168	-0.230	0.099
-225.698	800.000	-0.118	0.336
-224.684	-129.309	0.094	-0.013
-223.669	-132.260	-0.333	0.043
-222.655	-200.000	0.048	0.246
-221.640	-169.607	-0.089	0.003
-220.625	66.497	0.083	0.084
-219.611	148.040	-0.068	-0.091
-218.596	-100.203	0.117	0.029
-217.582	-97.477	0.138	-0.036
-216.567	-200.000	-0.031	-0.244
-215.552	207.684	-0.159	0.248
-214.538	660.415	0.060	-0.153
-213.523	-5.228	0.023	0.016
-212.509	-191.220	-0.147	0.001
-211.494	-138.711	0.172	-0.019
-210.479	57.249	-0.111	-0.108
-209.465	-187.606	0.204	-0.003
-208.450	-34.389	-0.172	-0.094
-207.436	-200.000	0.020	0.299
-206.421	490.758	-0.047	-0.107
-205.406	15.131	0.194	0.151
-204.392	800.000	-0.044	-0.128
-203.377	-63.437	0.343	0.140
-202.363	-83.980	0.174	-0.055
-201.348	46.891	0.094	-0.087
-200.333	149.610	0.106	0.143
-199.319	-92.392	0.419	-0.117
-198.304	41.173	0.200	0.180
-197.290	800.000	-0.045	-0.178
-196.275	-54.742	-0.187	-0.084
-195.260	-200.000	-0.024	0.113
-194.246	-89.711	-0.551	-0.161
-193.231	406.313	-0.075	-0.158
-192.217	-115.585	0.327	-0.061
-191.202	159.887	-0.023	0.031
-190.187	-113.784	-0.158	-0.031
-189.173	800.000	-0.037	-0.110
-188.158	-22.681	-0.065	0.039
-187.144	37.900	-0.035	0.031
-186.129	800.000	0.078	-0.217
-185.114	134.895	0.189	0.244
-184.100	-99.738	-0.207	0.051
-183.085	262.264	-0.039	0.067
-182.071	201.763	-0.065	-0.099
-181.056	-200.000	-0.023	-0.115
-180.042	207.212	-0.096	-0.149
-179.027	156.354	0.183	0.252
-178.012	-44.567	0.176	-0.088
-176.998	-88.520	-0.135	-0.040
-175.983	-29.350	0.202	0.115
-174.969	-39.586	0.130	0.068
-173.954	14.639	-0.189	0.147
-172.939	34.224	-0.104	-0.090
-171.925	-31.780	-0.118	-0.066
-170.910	-108.424	-0.228	0.049
-169.896	23.411	-0.181	-0.148
-168.881	-200.000	0.014	-0.117
-167.866	338.754	-0.023	0.044
-166.852	-95.001	-0.250	0.067
-165.837	-12.561	0.304	-0.197
-164.823	800.000	0.053	-0.208
-163.808	-58.116	-0.194	0.084
-162.793	232.036	0.219	-0.358
-161.779	-130.652	0.136	0.018
-160.764	800.000	-0.118	-0.323
-159.750	178.382	0.064	-0.093
-158.735	-200.000	0.013	0.099
-157.720	-115.736	0.259	-0.048
-156.706	-200.000	0.029	0.402
-155.691	49.664	-0.139	0.130
-154.677	800.000	0.013	0.046
-153.662	800.000	0.033	-0.139
-152.647	-200.000	-0.055	0.308
-151.633	-130.365	0.393	-0.053
-150.618	329.615	0.064	-0.122
-149.604	-86.652	0.088	0.027
-148.589	34.314	-0.080	-0.070
-147.574	800.000	-0.084	0.295
-146.560	-115.203	0.416	0.078
-145.545	-155.927	0.303	0.019
-144.531	33.713	-0.067	0.058
-143.516	24.174	0.212	-0.174
-142.502	567.880	0.120	0.289
-141.487	-71.650	-0.086	-0.032
-140.472	61.307	0.100	0.099
-139.458	105.170	0.115	-0.134
-138.443	-91.841	0.280	-0.079
-137.429	800.000	-0.060	-0.212
-136.414	-85.065	-0.279	-0.087
-135.399	-86.384	-0.180	0.055
-134.385	98.045	-0.179	0.205
-133.370	-6.764	0.299	0.202
-132.356	800.000	0.019	-0.074
-131.341	800.000	0.030	0.108
-130.326	-45.300	0.232	-0.114
-129.312	-200.000	0.032	0.162
-128.297	-200.000	0.003	-0.461
-127.283	-103.902	-0.301	-0.070
-126.268	-119.904	-0.250	-0.043
-125.253	-107.147	0.055	-0.012
-124.239	29.842	-0.138	0.116
-123.224	-200.000	-0.008	-0.096
-122.210	-110.980	0.118	0.024
-121.195	42.018	-0.100	0.090
-120.180	49.719	0.441	0.412
-119.166	-1.688	-0.129	0.090
-118.151	800.000	0.076	-0.210
-117.137	418.870	-0.078	0.166
-116.122	497.907	-0.086	0.195
-115.107	-172.931	-0.226	-0.007
-114.093	-107.107	0.093	-0.020
-113.078	800.000	0.041	0.131
-112.064	-80.246	-0.219	0.073
-111.049	205.843	0.189	-0.291
-110.034	-128.182	0.184	0.026
-109.020	-99.448	-0.166	-0.041
-108.005	-200.000	0.003	0.130
-106.991	-200.000	0.008	0.091
-105.976	365.615	0.115	0.230
-104.962	-75.321	0.170	-0.060
-103.947	-13.091	-0.181	0.117
-102.932	192.015	0.158	-0.236
-101.918	-26.815	0.112	-0.065
-100.903	-48.042	-0.153	0.073
-99.889	-200.000	-0.002	-0.029
-98.874	-133.541	0.319	0.040
-97.859	139.063	-0.100	0.130
-96.845	-108.028	-0.085	0.018
-95.830	90.861	-0.259	0.287
-94.816	100.054	-0.159	0.183
-93.801	23.886	0.103	0.084
-92.786	21.634	0.280	-0.226
-91.772	800.000	-0.052	-0.143
-90.757	183.776	0.122	-0.178
-89.743	-200.000	0.071	-0.353
-88.728	800.000	0.029	-0.114
-87.713	-200.000	-0.029	-0.158
-86.699	-70.811	-0.264	-0.099
-85.684	800.000	0.080	0.249
-84.670	-51.135	0.254	-0.118
-83.655	44.249	-0.027	-0.025
-82.640	308.992	0.152	-0.281
-81.626	-35.971	0.035	0.019
-80.611	258.590	0.133	0.227
-79.597	165.887	0.161	0.226
-78.582	-30.482	0.177	0.100
-77.567	-114.232	0.259	0.049
-76.553	76.713	0.093	-0.098
-75.538	-200.000	-0.016	-0.279
-74.524	800.000	0.155	0.438
-73.509	85.809	0.197	0.215
-72.494	-42.989	-0.279	-0.140
-71.480	-150.257	-0.062	-0.005
-70.465	353.503	-0.130	0.255
-69.451	-70.386	0.279	-0.105
-68.436	62.190	0.251	-0.248
-67.422	45.185	-0.115	0.105
-66.407	800.000	0.145	0.467
-65.392	-24.021	0.258	-0.153
-64.378	27.335	-0.374	0.311
-63.363	-86.611	0.267	-0.081
-62.349	-98.485	0.478	0.121
-61.334	107.403	-0.849	-0.999
-60.319	46.961	0.534	0.491
-59.305	-200.000	-0.076	-0.888
-58.290	267.308	0.673	1.165
-57.276	-200.000	0.313	1.840
-56.261	-200.000	97.454	586.823
-55.246	543.327	1392.019	3285.329
-54.232	151.653	2595.183	3497.220
-53.217	104.443	2312.568	2692.806
-52.203	40.653	2062.053	1838.118
-51.188	35.759	1976.379	1718.089
-50.173	34.275	1958.071	1688.963
-49.159	49.458	2009.648	1870.186
-48.144	51.879	2028.825	1909.716
-47.130	36.637	1986.701	1734.669
-46.115	34.142	1975.542	1702.576
-45.100	34.040	1972.623	1699.075
-44.086	33.995	1970.867	1697.098
-43.071	33.941	1967.751	1693.860
-42.057	33.911	1966.201	1692.192
-41.042	33.985	1963.907	1690.809
-40.027	34.010	1962.564	1689.808
-39.013	33.988	1960.204	1687.514
-37.998	34.114	1957.937	1686.612
-36.984	33.993	1956.568	1684.300
-35.969	33.996	1955.081	1682.973
-34.954	34.000	1953.431	1681.524
-33.940	34.114	1951.302	1680.634
-32.925	34.114	1949.654	1679.143
-31.911	34.067	1948.585	1677.742
-30.896	34.164	1946.371	1676.627
-29.881	34.157	1945.060	1675.371
-28.867	34.127	1943.385	1673.594
-27.852	34.148	1942.227	1672.715
-26.838	34.092	1940.221	1670.436
-25.823	34.220	1937.371	1669.036
-24.809	34.224	1935.906	1667.744
-23.794	34.160	1934.512	1665.913
-22.779	34.115	1932.713	1663.901
-21.765	34.125	1931.662	1663.020
-20.750	34.148	1929.884	1661.625
-19.736	34.144	1928.239	1660.107
-18.721	34.133	1926.936	1658.823
-17.706	34.137	1924.965	1657.099
-16.692	34.063	1923.558	1655.178
-15.677	34.151	1921.541	1654.138
-14.663	34.227	1920.114	1653.504
-13.648	34.214	1919.415	1652.728
-12.633	34.217	1918.003	1651.469
-11.619	34.175	1917.050	1650.220
-10.604	34.213	1915.279	1648.956
-9.590	34.178	1913.882	1647.386
-8.575	34.099	1912.580	1645.520
-7.560	34.216	1911.478	1645.518
-6.546	34.156	1910.015	1643.675
-5.531	34.117	1909.512	1642.837
-4.517	34.163	1908.076	1641.935
-3.502	34.124	1906.957	1640.567
-2.487	34.149	1905.922	1639.828
-1.473	34.148	1904.579	1638.604
-0.458	34.189	1899.794	1634.775
0.556	34.067	1880.243	1607.083
1.571	30.094	1861.423	1557.540
2.586	26.409	1884.445	1545.246
3.600	25.630	1920.884	1568.194
4.615	25.308	1917.122	1562.188
5.629	19.406	1814.918	1429.998
6.644	8.391	1690.732	1246.509
7.659	2.441	1651.711	1172.167
8.673	1.974	1647.602	1165.580
9.688	1.922	1646.040	1163.971
10.702	1.915	1644.855	1162.978
11.717	1.709	1641.497	1158.938
12.731	2.119	1640.935	1161.555
13.746	9.068	1657.464	1226.393
14.761	19.827	1681.530	1327.072
15.775	25.223	1691.155	1376.060
16.790	26.156	1691.971	1383.756
17.804	26.265	1691.903	1384.414
18.819	26.342	1690.778	1383.960
19.834	26.449	1690.431	1384.377
20.848	26.644	1689.711	1385.155
21.863	26.795	1688.924	1385.543
22.877	26.706	1688.181	1384.125
23.892	26.795	1686.903	1383.634
24.907	26.662	1686.521	1382.187
25.921	26.716	1685.188	1381.383
26.936	26.719	1684.073	1380.370
27.950	26.782	1683.287	1380.087
28.965	26.744	1682.599	1379.104
29.980	26.661	1681.886	1377.770
30.994	26.626	1680.690	1376.403
32.009	26.661	1679.192	1375.318
33.023	26.662	1678.428	1374.581
34.038	26.676	1677.306	1373.646
35.053	26.796	1675.662	1373.090
36.067	26.732	1674.906	1371.862
37.082	26.722	1674.079	1370.986
38.096	26.750	1673.400	1370.522
39.111	26.717	1672.371	1369.309
40.126	26.731	1671.484	1368.563
41.140	26.735	1670.942	1368.032
42.155	26.737	1669.610	1366.838
43.169	26.683	1668.706	1365.569
44.184	26.726	1667.963	1365.163
45.199	26.605	1667.040	1363.375
46.213	26.641	1665.523	1362.286
47.228	26.686	1664.775	1361.889
48.242	26.631	1663.401	1360.236
49.257	26.700	1662.107	1359.571
50.271	26.652	1661.362	1358.484
51.286	26.755	1659.715	1357.783
52.301	26.719	1658.751	1356.608
53.315	26.658	1657.186	1354.751
54.330	26.667	1656.064	1353.785
55.344	26.694	1654.391	1352.498
56.359	26.775	1652.915	1351.772
57.374	26.797	1652.241	1351.264
58.388	26.765	1651.124	1349.999
59.403	26.725	1650.346	1348.942
60.417	26.790	1648.864	1348.094
61.432	26.718	1647.859	1346.623
62.447	26.730	1646.799	1345.720
63.461	26.686	1645.933	1344.566
64.476	26.720	1644.591	1343.603
65.490	26.789	1643.832	1343.381
66.505	26.737	1642.935	1342.138
67.520	26.612	1642.033	1340.364
68.534	26.770	1640.840	1340.436
69.549	26.799	1639.422	1339.373
70.563	26.715	1638.902	1338.214
71.578	26.728	1637.764	1337.260
72.593	26.765	1637.003	1336.796
73.607	26.827	1635.457	1335.870
74.622	26.816	1634.357	1334.770
75.636	26.708	1633.846	1333.443
76.651	26.834	1632.832	1333.418
77.666	26.771	1631.515	1331.767
78.680	26.742	1631.190	1331.166
79.695	26.750	1630.723	1330.730
80.709	26.817	1629.467	1330.078
81.724	26.820	1628.904	1329.520
82.739	26.753	1627.945	1328.128
83.753	26.756	1626.840	1327.134
84.768	26.629	1626.088	1325.475
85.782	26.715	1625.046	1325.133
86.797	26.758	1624.169	1324.619
87.812	26.799	1622.988	1323.837
88.826	26.805	1622.227	1323.144
89.841	26.760	1621.169	1321.834
90.855	26.767	1620.259	1321.024
91.870	26.813	1619.137	1320.333
92.884	26.831	1618.048	1319.460
93.899	26.794	1617.371	1318.520
94.914	26.768	1616.307	1317.342
95.928	26.799	1615.223	1316.569
96.943	26.845	1613.699	1315.542
97.957	26.788	1612.877	1314.344
98.972	26.784	1611.398	1312.997
99.987	26.806	1609.959	1311.869
101.001	26.897	1608.252	1311.016
102.016	26.821	1607.101	1309.417
103.030	26.781	1606.023	1308.132
104.045	26.756	1604.976	1306.981
105.060	26.749	1603.989	1306.014
106.074	26.796	1601.852	1304.498
107.089	26.837	1600.831	1303.844
108.103	26.816	1599.865	1302.790
109.118	26.766	1599.000	1301.609
110.133	26.788	1598.091	1300.914
111.147	26.818	1596.717	1299.897
112.162	26.861	1595.514	1299.108
113.176	26.868	1594.071	1297.873
114.191	26.775	1593.311	1296.467
115.206	26.897	1592.111	1296.251
116.220	26.825	1590.989	1294.712
117.235	26.877	1589.656	1293.877
118.249	26.783	1589.197	1292.724
119.264	26.881	1587.591	1292.002
120.279	26.821	1586.406	1290.496
121.293	26.766	1585.331	1289.113
122.308	26.870	1584.293	1288.897
123.322	26.893	1582.941	1287.841
124.337	26.878	1581.796	1286.692
125.352	26.834	1580.513	1285.225
126.366	26.924	1579.697	1285.080
127.381	26.946	1578.891	1284.467
128.395	26.961	1577.954	1283.702
129.410	26.948	1576.854	1282.602
130.424	26.915	1575.711	1281.324
131.439	26.857	1574.916	1280.154
132.454	26.989	1573.128	1279.518
133.468	26.981	1571.799	1278.267
134.483	26.858	1571.041	1276.675
135.497	26.959	1569.569	1276.073
136.512	26.909	1568.559	1274.789
137.527	27.001	1567.220	1274.235
138.541	26.912	1566.423	1272.846
139.556	26.870	1565.659	1271.818
140.570	26.921	1563.998	1270.717
141.585	26.989	1563.017	1270.278
142.600	26.915	1561.946	1268.783
143.614	26.948	1560.616	1267.818
144.629	26.892	1560.224	1266.998
145.643	26.885	1558.984	1265.829
146.658	26.983	1557.458	1265.160
147.673	26.879	1555.973	1263.117
148.687	26.951	1554.804	1262.559
149.702	26.937	1553.920	1261.631
150.716	26.834	1552.479	1259.637
151.731	26.906	1551.137	1258.933
152.746	26.873	1550.498	1258.074
153.760	26.965	1548.935	1257.331
154.775	26.921	1548.278	1256.382
155.789	26.948	1547.525	1255.849
156.804	26.968	1546.267	1254.857
157.819	26.978	1544.761	1253.592
158.833	26.986	1544.358	1253.210
159.848	26.962	1543.073	1251.887
160.862	27.037	1541.960	1251.390
161.877	26.948	1541.296	1250.132
162.892	27.072	1539.978	1249.800
163.906	27.031	1538.975	1248.593
164.921	27.021	1538.253	1247.833
165.935	27.087	1537.376	1247.460
166.950	27.023	1536.701	1246.366
167.964	27.008	1535.727	1245.360
168.979	27.029	1534.476	1244.383
169.994	27.125	1533.375	1244.036
171.008	27.079	1532.876	1243.207
172.023	27.006	1532.230	1242.076
173.037	27.010	1531.134	1241.101
174.052	27.031	1529.517	1239.828
175.067	27.137	1528.723	1239.797
176.081	27.138	1527.868	1239.001
177.096	27.053	1527.174	1237.745
178.110	27.152	1525.871	1237.254
179.125	26.963	1525.347	1235.432
180.140	27.058	1524.329	1235.147
181.154	27.077	1523.515	1234.509
182.169	27.165	1521.930	1233.713
183.183	27.085	1521.541	1232.745
184.198	27.149	1520.682	1232.373
185.213	27.152	1519.394	1231.239
186.227	27.224	1518.829	1231.157
187.242	27.207	1517.914	1230.192
188.256	27.128	1517.325	1229.073
189.271	27.143	1516.485	1228.384
190.286	27.139	1515.840	1227.726
191.300	27.156	1514.947	1227.008
192.315	27.206	1513.250	1225.865
193.329	27.194	1512.927	1225.414
194.344	27.172	1511.774	1224.227
195.359	27.130	1511.513	1223.619
196.373	27.244	1510.290	1223.289
197.388	27.258	1509.354	1222.515
198.402	27.033	1508.819	1220.463
199.417	27.101	1507.421	1219.680
200.432	27.103	1506.471	1218.817
201.446	27.187	1505.943	1218.849
202.461	27.171	1504.859	1217.756
203.475	27.201	1504.023	1217.170
204.490	27.065	1503.332	1215.595
205.504	27.107	1502.516	1215.110
206.519	27.208	1501.436	1214.799
207.534	27.265	1500.779	1214.545
208.548	27.280	1499.385	1213.408
209.563	27.217	1498.927	1212.510
210.577	27.211	1498.592	1212.091
211.592	27.224	1497.782	1211.418
212.607	27.141	1496.813	1209.971
213.621	27.127	1496.674	1209.660
214.636	27.264	1495.681	1209.657
215.650	27.294	1494.477	1208.780
216.665	27.358	1494.044	1208.750
217.680	27.259	1493.096	1207.216
218.694	27.352	1491.960	1206.808
219.709	27.377	1491.128	1206.192
220.723	27.289	1490.484	1204.983
221.738	27.271	1489.648	1204.080
222.753	27.239	1489.099	1203.318
223.767	27.228	1487.832	1202.114
224.782	27.183	1486.924	1200.982
225.796	27.308	1486.004	1200.954
226.811	27.346	1485.761	1200.905
227.826	27.405	1484.711	1200.336
228.840	27.459	1483.798	1199.851
229.855	27.378	1483.824	1199.233
230.869	27.367	1482.673	1198.123
231.884	27.296	1481.828	1196.863
232.899	27.396	1480.471	1196.323
233.913	27.229	1479.846	1194.612
234.928	27.323	1478.404	1193.960
235.942	27.415	1477.343	1193.598
236.957	27.491	1476.658	1193.437
237.972	27.437	1475.619	1192.141
238.986	27.509	1474.175	1191.337
240.001	27.393	1473.583	1189.993
241.015	27.407	1472.647	1189.225
242.030	27.587	1471.195	1189.121
243.045	27.591	1470.229	1188.261
244.059	27.589	1469.548	1187.594
245.074	27.532	1469.292	1186.912
246.088	27.559	1468.085	1186.010
247.103	27.595	1467.635	1185.772
248.117	27.553	1467.191	1185.037
249.132	27.602	1465.963	1184.258
250.147	27.530	1465.549	1183.349
251.161	27.517	1465.179	1182.863
252.176	27.653	1463.945	1182.645
253.190	27.777	1463.351	1182.861
254.205	27.649	1462.625	1181.346
255.220	27.629	1461.625	1180.299
256.234	27.625	1460.877	1179.567
257.249	27.739	1459.777	1179.314
258.263	27.643	1459.655	1178.490
259.278	27.729	1458.225	1177.782
260.293	27.617	1457.967	1176.752
261.307	27.684	1457.083	1176.363
262.322	27.652	1456.865	1175.879
263.336	27.666	1455.860	1175.051
264.351	27.727	1454.605	1174.326
265.366	27.675	1453.928	1173.341
266.380	27.691	1452.924	1172.531
267.395	27.681	1452.366	1171.911
268.409	27.695	1451.395	1171.117
269.424	27.701	1450.369	1170.225
270.439	27.681	1449.524	1169.310
271.453	27.707	1448.593	1168.625
272.468	27.712	1447.674	1167.809
273.482	27.882	1446.975	1168.232
274.497	27.703	1446.390	1166.507
275.512	27.767	1445.528	1166.117
276.526	27.864	1444.965	1166.183
277.541	27.813	1444.021	1164.994
278.555	27.765	1443.346	1164.035
279.570	27.895	1442.405	1164.005
280.585	27.827	1441.827	1163.002
281.599	27.809	1441.168	1162.251
282.614	27.810	1439.959	1161.180
283.628	27.745	1439.214	1160.066
284.643	27.799	1438.339	1159.597
285.657	27.912	1436.966	1159.109
286.672	27.857	1436.580	1158.345
287.687	27.841	1435.792	1157.505
288.701	27.891	1434.822	1156.938
289.716	27.862	1434.612	1156.484
290.730	27.842	1433.493	1155.348
291.745	27.906	1432.572	1154.908
292.760	27.928	1431.562	1154.135
293.774	27.905	1430.609	1153.118
294.789	27.948	1429.662	1152.521
295.803	27.969	1429.145	1152.138
296.818	27.947	1428.630	1151.481
297.833	27.930	1427.642	1150.474
298.847	28.030	1426.804	1150.329
299.862	28.009	1426.071	1149.502
300.876	28.085	1424.791	1148.850
301.891	28.089	1423.813	1147.983
302.906	28.112	1423.474	1147.753
303.920	28.133	1423.222	1147.577
304.935	28.042	1422.820	1146.583
305.949	28.053	1421.698	1145.646
306.964	28.033	1420.771	1144.672
307.979	28.123	1419.547	1144.146
308.993	28.040	1419.012	1143.099
310.008	28.010	1418.785	1142.626
311.022	28.086	1417.186	1141.708
312.037	28.105	1416.085	1140.843
313.052	28.227	1415.210	1140.795
314.066	28.151	1414.370	1139.542
315.081	28.204	1413.399	1138.989
316.095	28.131	1412.560	1137.759
317.110	28.218	1411.517	1137.358
318.125	28.260	1410.731	1136.886
319.139	28.141	1410.017	1135.475
320.154	28.148	1409.245	1134.794
321.168	28.178	1408.383	1134.184
322.183	28.256	1407.760	1134.064
323.197	28.242	1406.960	1133.235
324.212	28.230	1405.898	1132.205
325.227	28.260	1405.043	1131.599
326.241	28.298	1404.423	1131.235
327.256	28.322	1403.418	1130.477
328.270	28.333	1402.863	1129.998
329.285	28.365	1401.706	1129.161
330.300	28.380	1400.743	1128.376
331.314	28.333	1400.648	1127.915
332.329	28.390	1399.742	1127.433
333.343	28.337	1399.057	1126.453
334.358	28.270	1398.583	1125.561
335.373	28.335	1398.287	1125.621
336.387	28.476	1396.807	1125.200
337.402	28.398	1396.303	1124.217
338.416	28.413	1395.869	1123.859
339.431	28.434	1395.166	1123.323
340.446	28.475	1394.238	1122.725
341.460	28.564	1392.949	1122.133
342.475	28.503	1392.493	1121.293
343.489	28.568	1391.883	1121.101
344.504	28.562	1390.906	1120.178
345.519	28.488	1389.841	1118.771
346.533	28.499	1389.072	1118.117
347.548	28.583	1387.930	1117.613
348.562	28.595	1387.351	1117.117
349.577	28.573	1387.115	1116.693
350.592	28.502	1386.132	1115.374
351.606	28.402	1385.533	1114.183
352.621	28.404	1384.297	1113.107
353.635	28.573	1382.903	1112.910
354.650	28.536	1382.469	1112.240
355.665	28.608	1381.923	1112.140
356.679	28.662	1380.259	1111.027
357.694	28.645	1379.592	1110.288
358.708	28.650	1378.882	1109.649
359.723	28.615	1377.806	1108.475
360.738	28.633	1376.131	1107.136
361.752	28.605	1375.257	1106.164
362.767	28.638	1374.127	1105.358
363.781	28.723	1373.176	1105.008
364.796	28.804	1372.600	1104.935
365.810	28.618	1372.166	1103.371
366.825	28.653	1371.525	1102.967
367.840	28.810	1370.218	1102.756
368.854	28.737	1369.708	1101.816
369.869	28.812	1369.481	1101.985
370.883	28.788	1368.923	1101.292
371.898	28.730	1368.245	1100.300
372.913	28.864	1367.141	1100.117
373.927	28.820	1366.498	1099.240
374.942	28.825	1365.718	1098.544
375.956	28.842	1365.024	1097.994
376.971	28.841	1364.655	1097.593
377.986	28.874	1363.722	1096.943
379.000	28.851	1362.689	1095.876
380.015	28.912	1362.012	1095.601
381.029	28.927	1361.589	1095.249
382.044	28.949	1361.213	1094.985
383.059	28.844	1360.409	1093.616
384.073	28.951	1359.571	1093.477
385.088	28.962	1358.788	1092.818
386.102	28.982	1358.294	1092.446
387.117	28.975	1357.658	1091.797
388.132	28.972	1357.502	1091.551
389.146	28.916	1356.510	1090.327
390.161	28.965	1355.281	1089.531
391.175	28.981	1355.084	1089.375
392.190	29.018	1354.309	1088.874
393.205	29.077	1353.495	1088.471
394.219	28.991	1352.803	1087.311
395.234	29.139	1351.265	1086.854
396.248	29.063	1350.850	1085.970
397.263	29.046	1350.146	1085.210
398.278	29.143	1348.369	1084.256
399.292	29.136	1347.367	1083.312
400.307	29.200	1346.981	1083.286
401.321	29.150	1345.842	1081.981
402.336	29.212	1344.678	1081.312
403.350	29.086	1344.113	1080.021
404.365	29.215	1342.682	1079.533
405.380	29.278	1341.948	1079.214
406.394	29.180	1341.692	1078.340
407.409	29.127	1340.986	1077.369
408.423	29.253	1340.086	1077.288
409.438	29.260	1339.747	1076.961
410.453	29.335	1338.728	1076.485
411.467	29.319	1338.245	1075.905
412.482	29.377	1337.676	1075.690
413.496	29.199	1337.183	1074.163
414.511	29.333	1336.143	1074.010
415.526	29.347	1335.501	1073.480
416.540	29.261	1334.850	1072.362
417.555	29.245	1334.193	1071.649
418.569	29.375	1333.902	1072.077
419.584	29.312	1333.113	1070.979
420.599	29.366	1332.613	1070.795
421.613	94.227	1350.170	1449.188
422.628	93.769	1352.691	1449.321
