DTS Sentinel unit serial number:	SN413079Multiplexer serial number:	ORYXHardware model number:	OX4-SRSoftware version number:	ORYX F/W v4.00 Oryx Data Collector v3.7.2.0data status	okinstallation	princeton_trtdifferential loss correction	single-endedforward channel	channel 4reverse channel	N/Adate	2019/09/11time	09:31:10forward acquisition time	60.00reverse acquisition time	0.00gamma	496.2192k internal	0.2298k external	0.2298temperature offset calibration	0.9975default loss term (dB/km)	0.3790temperature slope calibration	1.0000multiplexer offset coefficient	1.0000multiplexer slope coefficient	1.0000fibre end	0.00T internal ref (°C)	34.70T ext. ref 1 (°C)	0.12T ext. ref 2 (°C)	31.07length (m)	temperature (°C)	Stokes	anti-Stokes-747.200	78.684	0.192	0.209
-746.185	-107.773	-0.125	0.028
-745.171	246.977	-0.045	0.078
-744.156	215.946	-0.092	0.149
-743.142	-70.601	0.198	0.077
-742.127	-83.353	-0.115	0.038
-741.112	-200.000	-0.018	-0.104
-740.098	-200.000	-0.036	0.337
-739.083	31.742	0.229	0.202
-738.069	597.725	0.017	0.044
-737.054	260.836	0.075	0.132
-736.039	-152.320	0.104	-0.008
-735.025	-147.828	0.148	-0.013
-734.010	-94.648	-0.205	0.057
-732.996	502.998	0.035	-0.082
-731.981	-159.302	-0.126	0.007
-730.966	-18.651	-0.285	-0.181
-729.952	253.585	-0.039	0.068
-728.937	61.469	-0.179	0.182
-727.923	-140.331	-0.326	0.035
-726.908	-51.067	0.305	0.146
-725.894	-82.044	-0.155	-0.052
-724.879	800.000	-0.085	-0.372
-723.864	64.846	0.063	-0.064
-722.850	63.624	0.184	-0.188
-721.835	-41.875	0.252	-0.132
-720.821	28.697	-0.297	-0.256
-719.806	310.135	-0.051	0.098
-718.791	444.618	0.137	-0.306
-717.777	341.354	-0.205	-0.409
-716.762	-200.000	-0.033	-0.214
-715.748	-154.634	0.064	-0.004
-714.733	-5.315	0.151	-0.106
-713.718	-126.753	0.068	0.010
-712.704	202.528	-0.165	-0.260
-711.689	35.776	-0.133	0.119
-710.675	-74.957	-0.538	-0.197
-709.660	166.198	-0.193	-0.279
-708.645	-200.000	0.014	-0.165
-707.631	-8.219	-0.393	-0.270
-706.616	68.197	-0.202	-0.211
-705.602	639.784	0.199	0.516
-704.587	-200.000	-0.035	0.277
-703.572	27.602	0.236	0.203
-702.558	-98.044	-0.200	0.052
-701.543	184.516	0.165	0.249
-700.529	-200.000	-0.051	-0.311
-699.514	261.514	-0.071	0.126
-698.499	-200.000	-0.040	0.275
-697.485	-54.328	0.259	0.120
-696.470	34.002	0.053	0.047
-695.456	207.679	0.099	-0.157
-694.441	-96.450	-0.340	0.091
-693.426	170.074	0.186	-0.271
-692.412	683.958	-0.033	0.088
-691.397	-200.000	0.013	-0.423
-690.383	-97.678	-0.047	0.012
-689.368	-7.927	-0.252	-0.173
-688.354	-71.142	0.038	0.015
-687.339	-135.812	-0.143	-0.017
-686.324	410.943	-0.101	0.218
-685.310	800.000	-0.036	0.118
-684.295	800.000	0.033	-0.144
-683.281	-175.694	0.473	0.013
-682.266	-76.155	-0.383	0.138
-681.251	11.433	0.095	0.074
-680.237	787.259	-0.109	0.305
-679.222	152.785	-0.156	-0.218
-678.208	609.517	0.118	-0.301
-677.193	-200.000	-0.009	-0.080
-676.178	-53.961	-0.324	0.150
-675.164	-200.000	0.019	0.130
-674.149	-200.000	0.015	-0.098
-673.135	-1.809	0.218	0.156
-672.120	85.310	0.496	0.554
-671.105	-16.397	0.039	-0.025
-670.091	388.669	-0.143	0.301
-669.076	-141.652	0.261	-0.027
-668.062	-125.403	-0.315	-0.049
-667.047	-20.101	-0.194	-0.122
-666.032	-200.000	0.035	0.235
-665.018	189.683	-0.072	-0.111
-664.003	-117.643	-0.426	-0.078
-662.989	-200.000	-0.008	0.041
-661.974	-200.000	0.019	-0.437
-660.959	800.000	-0.009	-0.037
-659.945	-15.159	-0.232	0.151
-658.930	106.582	-0.103	-0.125
-657.916	-70.944	-0.193	0.074
-656.901	141.572	0.151	0.203
-655.886	-176.013	0.314	-0.008
-654.872	800.000	-0.083	-0.260
-653.857	-200.000	-0.038	-0.377
-652.843	-185.038	-0.061	-0.001
-651.828	-120.446	0.153	0.027
-650.814	-33.620	-0.264	0.148
-649.799	-34.079	-0.072	0.040
-648.784	-200.000	-0.001	0.016
-647.770	-49.615	0.122	0.059
-646.755	148.585	-0.193	-0.265
-645.741	-144.155	-0.170	-0.016
-644.726	141.137	0.135	-0.182
-643.711	-200.000	-0.043	-0.328
-642.697	548.476	0.050	-0.121
-641.682	45.198	0.244	0.229
-640.668	-200.000	-0.015	0.188
-639.653	-151.556	-0.079	0.006
-638.638	71.497	-0.325	0.343
-637.624	-200.000	-0.005	0.187
-636.609	-70.083	-0.119	-0.046
-635.595	-157.127	0.266	-0.016
-634.580	-53.356	0.488	0.227
-633.565	-200.000	-0.047	0.236
-632.551	-171.844	0.426	-0.014
-631.536	55.958	-0.129	0.128
-630.522	115.900	-0.162	0.202
-629.507	-17.363	0.102	0.065
-628.492	-40.065	0.191	0.101
-627.478	-26.939	-0.259	-0.154
-626.463	-15.694	0.261	-0.169
-625.449	-151.939	0.279	0.021
-624.434	-200.000	-0.127	-0.567
-623.419	-200.000	-0.023	0.112
-622.405	-109.800	-0.202	-0.043
-621.390	-16.635	0.159	-0.102
-620.376	-30.082	-0.238	-0.138
-619.361	-144.071	0.246	0.023
-618.346	-200.000	0.005	-0.334
-617.332	-200.000	0.029	0.196
-616.317	-75.208	-0.362	0.131
-615.303	-166.006	0.181	-0.008
-614.288	-102.921	-0.458	-0.111
-613.273	-57.263	-0.047	-0.021
-612.259	6.246	0.023	-0.017
-611.244	-200.000	-0.059	-0.299
-610.230	-200.000	0.048	-0.247
-609.215	-147.553	-0.083	-0.007
-608.201	-200.000	-0.022	0.132
-607.186	-80.128	0.369	-0.126
-606.171	-200.000	-0.047	-0.333
-605.157	-200.000	-0.015	-0.261
-604.142	-200.000	0.015	0.081
-603.128	-25.523	-0.186	0.112
-602.113	800.000	0.093	-0.295
-601.098	-200.000	-0.007	-0.179
-600.084	-200.000	0.024	-0.153
-599.069	-137.057	0.327	-0.038
-598.055	-200.000	-0.068	0.000
-597.040	-200.000	0.042	-0.391
-596.025	-200.000	-0.014	-0.068
-595.011	282.078	-0.117	-0.213
-593.996	-200.000	0.064	-0.309
-592.982	-168.825	0.240	0.009
-591.967	-70.743	-0.112	-0.043
-590.952	-200.000	0.033	0.174
-589.938	-57.175	0.261	0.117
-588.923	163.270	-0.133	0.190
-587.909	-63.010	-0.268	0.112
-586.894	-200.000	0.058	-0.272
-585.879	-77.694	-0.160	-0.056
-584.865	185.434	-0.241	-0.364
-583.850	124.895	-0.090	-0.115
-582.836	-66.411	-0.274	0.111
-581.821	-81.646	0.084	-0.028
-580.806	383.330	-0.098	-0.205
-579.792	48.475	-0.064	-0.061
-578.777	-195.201	0.116	0.001
-577.763	-200.000	-0.001	0.158
-576.748	10.631	-0.103	-0.079
-575.733	-32.404	-0.349	0.198
-574.719	664.988	-0.103	0.271
-573.704	22.482	-0.202	0.168
-572.690	-145.217	-0.115	-0.011
-571.675	-64.077	0.213	0.088
-570.661	-52.772	0.185	0.087
-569.646	113.340	0.103	0.127
-568.631	126.119	-0.046	0.059
-567.617	-70.471	0.139	0.053
-566.602	143.768	-0.101	0.136
-565.588	52.162	0.055	-0.053
-564.573	-29.375	0.115	0.067
-563.558	-34.371	0.304	0.169
-562.544	4.823	-0.136	0.101
-561.529	-200.000	0.007	-0.118
-560.515	-200.000	0.194	0.001
-559.500	112.134	-0.119	-0.146
-558.485	349.044	0.030	-0.060
-557.471	460.422	0.126	-0.285
-556.456	-200.000	0.035	0.272
-555.442	-130.442	-0.074	0.010
-554.427	-99.744	-0.112	0.028
-553.412	-53.362	0.123	0.057
-552.398	-45.131	0.211	0.106
-551.383	-103.544	-0.265	0.063
-550.369	365.156	0.088	0.179
-549.354	-76.239	-0.181	0.065
-548.339	-200.000	0.004	-0.232
-547.325	57.736	-0.058	0.058
-546.310	76.984	-0.131	-0.141
-545.296	-70.634	-0.125	0.048
-544.281	-48.378	0.186	-0.091
-543.266	-41.264	-0.312	0.163
-542.252	78.499	0.304	0.329
-541.237	-92.468	0.095	-0.027
-540.223	37.647	-0.170	-0.153
-539.208	184.155	-0.022	0.034
-538.193	135.805	0.089	0.117
-537.179	-10.792	0.130	0.087
-536.164	-43.540	-0.218	0.111
-535.150	-171.219	0.254	0.009
-534.135	-3.598	0.221	-0.156
-533.121	110.334	-0.099	0.120
-532.106	360.940	0.099	-0.201
-531.091	-106.306	-0.337	0.076
-530.077	-62.258	-0.048	0.020
-529.062	-30.331	0.261	0.150
-528.048	672.927	0.109	-0.286
-527.033	10.532	0.114	0.088
-526.018	-80.307	-0.164	0.055
-525.004	-31.418	0.145	0.083
-523.989	800.000	0.045	0.173
-522.975	-149.900	0.391	-0.031
-521.960	-90.628	0.257	0.075
-520.945	-200.000	-0.050	-0.441
-519.931	-37.114	0.427	-0.232
-518.916	58.227	0.138	-0.137
-517.902	66.231	0.065	-0.067
-516.887	800.000	0.064	-0.215
-515.872	800.000	-0.144	-0.406
-514.858	110.343	-0.142	0.172
-513.843	800.000	-0.099	-0.359
-512.829	800.000	-0.064	-0.264
-511.814	156.919	0.072	0.101
-510.799	-31.265	-0.263	-0.150
-509.785	501.260	-0.075	0.176
-508.770	16.285	-0.127	0.102
-507.756	9.668	0.223	0.171
-506.741	-147.266	-0.097	-0.008
-505.726	-127.945	0.512	0.074
-504.712	141.584	0.037	-0.049
-503.697	800.000	-0.075	-0.225
-502.683	-42.291	0.310	0.160
-501.668	800.000	-0.028	0.093
-500.653	407.401	0.024	0.052
-499.639	-45.224	-0.185	0.093
-498.624	78.119	-0.059	-0.064
-497.610	358.811	0.080	-0.162
-496.595	-100.219	0.251	-0.063
-495.581	-80.670	-0.066	-0.022
-494.566	158.233	0.085	-0.119
-493.551	-200.000	0.010	-0.378
-492.537	28.376	-0.295	-0.252
-491.522	71.966	-0.237	0.249
-490.508	-40.076	0.108	-0.057
-489.493	61.022	0.091	-0.092
-488.478	-3.285	-0.241	-0.170
-487.464	188.048	0.066	0.099
-486.449	-200.000	-0.057	-0.501
-485.435	-123.963	-0.363	-0.058
-484.420	-52.664	0.049	0.023
-483.405	-93.229	0.064	-0.018
-482.391	-73.932	-0.219	0.080
-481.376	-94.639	-0.260	0.071
-480.362	324.635	0.069	-0.134
-479.347	-200.000	-0.061	0.452
-478.332	517.875	0.079	-0.187
-477.318	75.791	-0.216	0.230
-476.303	-100.128	0.119	0.030
-475.289	145.838	0.113	0.152
-474.274	334.707	-0.009	0.017
-473.259	-102.136	-0.304	-0.074
-472.245	-74.143	-0.206	0.076
-471.230	-61.830	-0.169	0.072
-470.216	-200.000	-0.003	0.111
-469.201	-200.000	0.041	0.221
-468.186	-200.000	-0.010	-0.168
-467.172	-5.874	-0.146	0.101
-466.157	124.804	0.095	0.121
-465.143	-200.000	-0.036	-0.256
-464.128	124.852	0.073	0.093
-463.113	-200.000	0.061	0.278
-462.099	-41.816	0.318	-0.165
-461.084	429.881	0.134	0.293
-460.070	-195.578	-0.130	0.001
-459.055	-200.000	0.001	0.151
-458.040	-27.948	-0.247	-0.144
-457.026	-78.572	-0.025	-0.009
-456.011	-200.000	0.016	-0.189
-454.997	-200.000	-0.005	-0.370
-453.982	358.727	0.049	-0.099
-452.968	316.238	-0.055	0.105
-451.953	-141.256	-0.217	-0.022
-450.938	65.552	-0.114	0.117
-449.924	222.714	0.037	-0.060
-448.909	800.000	-0.062	0.175
-447.895	-74.572	0.123	-0.045
-446.880	800.000	0.036	-0.129
-445.865	-65.301	-0.322	-0.131
-444.851	502.716	-0.090	0.210
-443.836	-34.000	0.371	-0.206
-442.822	241.556	-0.048	-0.081
-441.807	800.000	0.017	0.068
-440.792	712.384	-0.061	-0.163
-439.778	-45.175	0.206	0.103
-438.763	157.301	-0.087	-0.121
-437.749	400.551	-0.095	-0.201
-436.734	221.318	0.103	0.168
-435.719	-107.857	-0.555	0.122
-434.705	114.382	0.121	0.149
-433.690	128.554	-0.131	0.168
-432.676	-96.031	-0.223	-0.060
-431.661	-91.275	-0.118	-0.034
-430.646	65.470	0.065	-0.066
-429.632	-200.000	-0.068	-0.318
-428.617	-4.172	-0.278	0.194
-427.603	-62.208	-0.206	-0.086
-426.588	-19.702	0.160	0.100
-425.573	632.133	-0.019	-0.049
-424.559	-68.364	0.223	-0.087
-423.544	340.602	-0.232	0.457
-422.530	800.000	0.078	0.271
-421.515	90.462	-0.141	-0.159
-420.500	186.971	-0.206	-0.309
-419.486	125.908	0.241	0.306
-418.471	742.185	-0.125	0.339
-417.457	-200.000	0.088	0.500
-416.442	-63.953	0.322	0.133
-415.428	75.971	0.122	0.130
-414.413	-159.354	0.016	-0.001
-413.398	-194.406	0.229	-0.002
-412.384	-200.000	-0.012	-0.093
-411.369	-200.000	-0.028	0.266
-410.355	162.585	-0.046	0.065
-409.340	344.657	0.030	0.059
-408.325	117.141	-0.055	0.068
-407.311	-200.000	0.079	-0.410
-406.296	-52.147	0.317	0.148
-405.282	-113.560	0.413	-0.081
-404.267	195.481	-0.045	-0.069
-403.252	-36.281	-0.207	-0.112
-402.238	-85.544	-0.189	0.059
-401.223	282.543	-0.151	-0.273
-400.209	57.178	0.068	-0.067
-399.194	191.573	-0.307	-0.466
-398.179	-200.000	0.008	0.365
-397.165	800.000	-0.139	0.428
-396.150	-200.000	-0.004	0.297
-395.136	104.414	0.148	0.176
-394.121	800.000	-0.030	-0.118
-393.106	-142.673	-0.218	0.021
-392.092	-200.000	0.011	-0.343
-391.077	173.817	0.156	-0.226
-390.063	-59.796	-0.110	-0.047
-389.048	-32.948	-0.277	0.155
-388.033	84.830	-0.165	-0.182
-387.019	-107.423	-0.125	0.028
-386.004	781.798	-0.135	-0.372
-384.990	-111.915	-0.263	-0.053
-383.975	-200.000	0.056	-0.352
-382.960	-111.250	0.142	-0.029
-381.946	75.180	0.208	-0.221
-380.931	-200.000	-0.023	0.168
-379.917	62.706	-0.113	-0.114
-378.902	60.657	-0.086	-0.085
-377.888	286.585	0.045	-0.082
-376.873	-90.513	0.268	-0.078
-375.858	34.544	-0.278	0.245
-374.844	127.823	0.148	0.190
-373.829	600.026	-0.220	-0.550
-372.815	-200.000	0.018	-0.231
-371.800	-97.967	-0.199	-0.052
-370.785	-148.884	0.338	-0.028
-369.771	-181.920	0.279	-0.005
-368.756	800.000	-0.090	-0.263
-367.742	-128.241	-0.108	0.016
-366.727	800.000	-0.012	0.052
-365.712	-31.515	-0.152	-0.086
-364.698	-135.055	0.087	-0.011
-363.683	-139.072	-0.414	0.045
-362.669	-200.000	0.037	0.166
-361.654	-200.000	0.002	-0.103
-360.639	-79.227	0.264	0.090
-359.625	69.802	0.112	0.117
-358.610	-145.433	0.284	-0.026
-357.596	-200.000	0.012	0.332
-356.581	-200.000	-0.019	0.221
-355.566	-80.429	0.215	0.072
-354.552	-200.000	-0.110	0.509
-353.537	68.265	-0.133	0.137
-352.523	-66.778	0.201	-0.080
-351.508	-14.433	-0.210	-0.136
-350.493	-200.000	-0.007	0.334
-349.479	800.000	-0.087	0.323
-348.464	-31.671	-0.330	0.186
-347.450	5.683	0.138	-0.103
-346.435	-200.000	0.004	-0.112
-345.420	18.039	0.200	0.160
-344.406	-71.298	-0.441	0.166
-343.391	68.763	-0.317	-0.327
-342.377	321.596	-0.191	-0.366
-341.362	-92.608	0.384	0.108
-340.348	24.016	-0.254	0.210
-339.333	80.105	-0.191	-0.206
-338.318	60.180	0.295	0.293
-337.304	188.780	-0.128	0.192
-336.289	-138.552	-0.192	-0.021
-335.275	575.875	0.147	0.360
-334.260	130.476	-0.166	0.214
-333.245	12.434	0.070	-0.054
-332.231	387.935	0.113	0.234
-331.216	386.626	-0.047	-0.098
-330.202	-200.000	-0.053	0.339
-329.187	-70.664	-0.220	0.083
-328.172	800.000	-0.035	0.098
-327.158	-105.781	-0.150	-0.034
-326.143	371.322	0.069	-0.140
-325.129	-200.000	0.015	0.220
-324.114	-170.972	0.110	0.004
-323.099	89.828	0.125	-0.140
-322.085	95.675	0.169	0.194
-321.070	507.254	0.084	0.196
-320.056	-74.149	-0.032	-0.012
-319.041	-105.932	0.264	-0.060
-318.026	-70.412	0.130	-0.050
-317.012	-200.000	0.015	0.369
-315.997	31.202	-0.238	-0.205
-314.983	342.612	-0.086	0.168
-313.968	-51.875	0.277	0.130
-312.953	75.906	-0.135	-0.143
-311.939	-103.453	-0.108	-0.025
-310.924	-200.000	-0.002	0.254
-309.910	-25.263	-0.285	0.169
-308.895	-200.000	0.014	-0.312
-307.880	-4.035	0.162	0.113
-306.866	-107.034	0.173	-0.038
-305.851	-58.810	0.114	-0.049
-304.837	-124.759	0.214	0.033
-303.822	-7.745	-0.182	-0.123
-302.807	-112.689	-0.570	-0.114
-301.793	545.714	0.079	0.190
-300.778	-73.541	0.355	0.130
-299.764	-118.061	0.111	0.020
-298.749	800.000	0.092	-0.375
-297.735	196.537	0.050	-0.076
-296.720	-96.015	0.188	0.050
-295.705	595.881	-0.118	0.293
-294.691	-200.000	-0.052	-0.289
-293.676	109.359	0.036	0.044
-292.662	-44.221	0.168	0.084
-291.647	-78.838	0.090	-0.031
-290.632	49.434	-0.391	-0.369
-289.618	22.036	-0.110	-0.090
-288.603	-200.000	-0.017	-0.278
-287.589	333.972	0.111	0.216
-286.574	-55.034	-0.060	0.027
-285.559	-147.286	0.048	-0.004
-284.545	-39.732	0.083	-0.043
-283.530	-9.954	0.149	-0.099
-282.516	-20.478	-0.370	-0.228
-281.501	-113.905	-0.134	0.026
-280.486	-2.265	-0.291	-0.205
-279.472	11.673	0.277	-0.213
-278.457	116.418	-0.062	-0.076
-277.443	670.606	-0.052	0.135
-276.428	-200.000	0.023	-0.241
-275.413	-200.000	-0.062	-0.308
-274.399	313.488	-0.022	0.042
-273.384	-95.340	0.116	-0.031
-272.370	-66.980	0.201	0.080
-271.355	-200.000	0.024	0.156
-270.340	-115.697	-0.147	-0.028
-269.326	-200.000	-0.085	-0.376
-268.311	-200.000	0.031	0.146
-267.297	-129.739	-0.117	0.016
-266.282	377.730	0.189	-0.388
-265.267	564.802	0.093	-0.226
-264.253	-86.792	-0.207	0.063
-263.238	-96.721	-0.318	-0.084
-262.224	54.712	-0.080	-0.077
-261.209	-17.354	-0.341	-0.215
-260.195	158.509	0.333	-0.463
-259.180	-41.237	0.093	0.048
-258.165	4.489	-0.366	0.269
-257.151	-153.974	0.181	0.012
-256.136	474.651	0.048	-0.108
-255.122	145.393	0.048	0.064
-254.107	800.000	-0.112	0.338
-253.092	-200.000	0.016	0.156
-252.078	62.818	0.301	-0.302
-251.063	35.173	0.141	-0.124
-250.049	-119.193	-0.174	-0.030
-249.034	213.304	0.223	-0.353
-248.019	800.000	-0.073	-0.262
-247.005	794.993	0.115	-0.317
-245.990	119.654	0.073	0.091
-244.976	57.813	0.156	-0.153
-243.961	73.047	0.160	-0.168
-242.946	-143.254	-0.053	-0.005
-241.932	-94.011	-0.215	-0.059
-240.917	-176.760	0.119	0.003
-239.903	20.871	-0.251	-0.203
-238.888	26.511	0.343	-0.287
-237.873	-38.951	-0.071	-0.038
-236.859	-65.944	-0.235	-0.094
-235.844	152.854	0.109	0.149
-234.830	64.763	-0.008	-0.008
-233.815	-200.000	-0.029	0.421
-232.800	-160.705	0.094	-0.005
-231.786	-161.469	0.230	0.012
-230.771	296.208	-0.053	-0.098
-229.757	17.642	-0.065	-0.051
-228.742	-200.000	0.047	-0.227
-227.727	800.000	-0.125	0.374
-226.713	-44.834	0.532	0.265
-225.698	-144.975	0.123	0.011
-224.684	28.319	-0.252	-0.213
-223.669	170.667	-0.224	0.321
-222.655	69.986	0.067	0.069
-221.640	699.897	0.213	-0.561
-220.625	163.291	0.066	0.093
-219.611	257.630	0.123	0.212
-218.596	-13.619	-0.302	0.195
-217.582	359.296	-0.080	0.160
-216.567	783.310	-0.045	0.124
-215.552	61.774	-0.261	0.260
-214.538	-155.013	0.333	0.022
-213.523	-200.000	-0.036	0.261
-212.509	-200.000	-0.043	-0.281
-211.494	-19.880	0.081	0.050
-210.479	208.382	0.158	-0.247
-209.465	-143.472	0.233	-0.022
-208.450	-13.620	-0.125	0.081
-207.436	-100.670	0.301	0.074
-206.421	-152.024	0.251	-0.018
-205.406	169.099	0.017	0.024
-204.392	-70.566	-0.354	-0.134
-203.377	-64.398	0.195	-0.079
-202.363	-57.368	-0.466	0.205
-201.348	1.715	0.311	0.224
-200.333	-200.000	0.010	0.174
-199.319	-110.103	-0.097	0.020
-198.304	30.760	-0.105	-0.090
-197.290	-54.320	0.131	0.059
-196.275	119.116	0.066	0.081
-195.260	-60.198	0.288	-0.123
-194.246	-5.601	0.240	0.165
-193.231	-92.796	-0.242	-0.068
-192.217	-63.812	0.197	0.080
-191.202	800.000	0.035	0.145
-190.187	-107.391	0.185	-0.041
-189.173	-70.183	-0.093	0.035
-188.158	-200.000	-0.033	0.318
-187.144	617.931	0.093	-0.233
-186.129	-200.000	0.006	0.123
-185.114	-200.000	0.024	0.174
-184.100	-200.000	0.056	0.332
-183.085	458.927	-0.100	-0.222
-182.071	198.192	-0.011	-0.017
-181.056	-29.758	0.108	-0.062
-180.042	800.000	-0.012	-0.032
-179.027	-52.395	0.210	-0.097
-178.012	235.765	0.178	0.294
-176.998	63.448	0.168	-0.169
-175.983	-61.431	0.114	0.048
-174.969	-55.428	-0.312	0.140
-173.954	-109.627	-0.245	0.052
-172.939	-200.000	0.007	-0.246
-171.925	-59.900	0.139	0.059
-170.910	69.037	0.075	-0.076
-169.896	800.000	0.049	0.172
-168.881	-200.000	0.061	0.424
-167.866	-200.000	0.084	0.367
-166.852	-200.000	0.042	0.204
-165.837	-200.000	-0.003	0.199
-164.823	-137.235	-0.313	0.036
-163.808	78.064	0.171	0.182
-162.793	-200.000	-0.023	0.119
-161.779	-144.419	-0.292	0.027
-160.764	-200.000	-0.002	-0.019
-159.750	800.000	0.027	-0.115
-158.735	-200.000	-0.032	0.176
-157.720	-49.868	0.189	-0.089
-156.706	60.361	0.165	-0.163
-155.691	-200.000	0.016	0.249
-154.677	66.762	0.039	-0.040
-153.662	87.992	-0.112	0.124
-152.647	-200.000	0.051	0.269
-151.633	11.274	0.281	0.215
-150.618	46.353	-0.164	0.152
-149.604	52.793	-0.107	-0.102
-148.589	-25.395	0.449	0.265
-147.574	-176.329	0.356	0.009
-146.560	-120.224	-0.183	-0.031
-145.545	-199.947	-0.282	0.001
-144.531	-85.087	0.197	0.062
-143.516	-33.669	0.174	0.096
-142.502	-60.011	0.226	0.096
-141.487	278.854	0.190	-0.337
-140.472	-95.813	0.151	0.040
-139.458	116.516	-0.143	0.175
-138.443	456.418	-0.069	0.152
-137.429	-200.000	-0.010	-0.119
-136.414	245.029	-0.200	0.335
-135.399	-78.536	0.286	0.098
-134.385	21.413	0.075	-0.061
-133.370	-38.143	0.165	0.087
-132.356	-112.508	0.165	-0.033
-131.341	-200.000	-0.066	0.471
-130.326	-19.718	0.373	0.230
-129.312	93.583	0.124	0.140
-128.297	-183.821	-0.044	0.001
-127.283	212.737	0.135	0.213
-126.268	-111.511	0.086	0.017
-125.253	800.000	0.054	-0.180
-124.239	61.623	0.072	0.071
-123.224	65.932	0.175	0.177
-122.210	800.000	0.050	0.150
-121.195	-121.106	-0.058	0.010
-120.180	325.120	0.093	0.178
-119.166	-137.549	0.201	-0.023
-118.151	-28.311	0.200	0.115
-117.137	392.166	-0.032	-0.067
-116.122	-50.928	-0.301	0.141
-115.107	-50.937	0.222	-0.104
-114.093	800.000	-0.063	-0.204
-113.078	218.836	0.118	-0.188
-112.064	-51.117	-0.508	-0.237
-111.049	99.462	0.098	0.113
-110.034	800.000	0.092	-0.255
-109.020	800.000	0.081	-0.346
-108.005	-66.237	-0.199	-0.079
-106.991	100.651	0.045	-0.052
-105.976	169.635	0.096	-0.136
-104.962	-200.000	0.018	0.124
-103.947	21.385	-0.140	-0.113
-102.932	161.154	0.197	0.274
-101.918	-175.325	-0.406	0.011
-100.903	-200.000	-0.016	-0.210
-99.889	-200.000	0.024	-0.251
-98.874	-54.017	-0.101	-0.046
-97.859	389.570	0.115	0.238
-96.845	-114.822	0.510	0.097
-95.830	-200.000	-0.037	0.298
-94.816	-200.000	-0.018	0.179
-93.801	-200.000	0.002	0.143
-92.786	-124.668	0.231	0.036
-91.772	-105.549	-0.190	0.043
-90.757	-200.000	-0.014	-0.243
-89.743	800.000	-0.001	-0.004
-88.728	5.567	0.228	-0.168
-87.713	167.198	0.145	0.204
-86.699	51.582	0.226	-0.214
-85.684	-200.000	-0.003	-0.209
-84.670	98.649	-0.070	0.080
-83.655	26.296	-0.116	0.096
-82.640	288.655	-0.089	0.160
-81.626	32.628	0.223	0.192
-80.611	-200.000	-0.033	-0.241
-79.597	-171.932	-0.197	0.006
-78.582	-71.440	0.378	-0.141
-77.567	136.945	-0.013	-0.017
-76.553	182.910	-0.129	0.189
-75.538	800.000	0.090	-0.253
-74.524	52.605	0.346	0.328
-73.509	-200.000	-0.003	0.052
-72.494	-69.307	-0.018	0.007
-71.480	-59.266	-0.176	-0.075
-70.465	-149.991	0.152	-0.012
-69.451	169.898	-0.309	0.439
-68.436	-113.577	-0.166	-0.032
-67.422	-200.000	0.010	-0.415
-66.407	-10.247	0.372	-0.246
-65.392	21.581	-0.114	0.092
-64.378	-200.000	0.086	-0.526
-63.363	-200.000	-0.019	-0.205
-62.349	-60.831	-0.106	0.045
-61.334	40.510	-0.863	-0.773
-60.319	152.376	0.479	0.650
-59.305	-200.000	-0.176	-0.814
-58.290	88.693	0.685	0.758
-57.276	499.649	0.619	1.419
-56.261	-200.000	93.665	522.140
-55.246	567.225	1372.976	3312.789
-54.232	182.091	2622.208	3839.126
-53.217	108.159	2362.047	2799.319
-52.203	41.108	2110.999	1895.168
-51.188	36.415	2022.642	1772.821
-50.173	34.796	2004.338	1741.967
-49.159	48.007	2055.034	1908.348
-48.144	50.786	2073.996	1951.583
-47.130	37.084	2031.821	1786.748
-46.115	34.743	2020.091	1754.888
-45.100	34.664	2017.273	1751.652
-44.086	34.648	2014.811	1749.295
-43.071	34.563	2012.645	1746.569
-42.057	34.515	2010.302	1744.029
-41.042	34.508	2008.836	1742.623
-40.027	34.550	2006.582	1740.978
-39.013	34.595	2004.546	1739.555
-37.998	34.619	2003.099	1738.448
-36.984	34.585	2000.687	1735.972
-35.969	34.693	1998.847	1735.291
-34.954	34.649	1996.762	1733.015
-33.940	34.647	1995.612	1731.932
-32.925	34.719	1994.263	1731.342
-31.911	34.712	1992.681	1729.833
-30.896	34.717	1990.082	1727.560
-29.881	34.683	1989.162	1726.384
-28.867	34.726	1987.218	1725.017
-27.852	34.816	1985.733	1724.470
-26.838	34.789	1983.109	1721.881
-25.823	34.810	1981.715	1720.791
-24.809	34.715	1980.501	1718.810
-23.794	34.761	1978.323	1717.270
-22.779	34.739	1976.376	1715.310
-21.765	34.692	1974.741	1713.401
-20.750	34.813	1972.991	1712.900
-19.736	34.766	1971.810	1711.386
-18.721	34.691	1970.920	1709.877
-17.706	34.716	1968.703	1708.106
-16.692	34.719	1966.962	1706.559
-15.677	34.727	1965.313	1705.132
-14.663	34.796	1963.415	1704.026
-13.648	34.732	1962.809	1702.866
-12.633	34.697	1961.664	1701.490
-11.619	34.746	1960.505	1700.859
-10.604	34.656	1959.131	1698.795
-9.590	34.688	1957.307	1697.428
-8.575	34.698	1955.363	1695.764
-7.560	34.680	1954.509	1694.803
-6.546	34.710	1953.044	1693.730
-5.531	34.645	1951.805	1692.012
-4.517	34.756	1949.895	1691.267
-3.502	34.720	1949.463	1690.513
-2.487	34.706	1948.157	1689.187
-1.473	34.712	1946.477	1687.714
-0.458	34.834	1942.253	1685.058
0.556	32.999	1922.859	1658.864
1.571	29.057	1903.413	1607.587
2.586	25.282	1926.384	1593.407
3.600	24.317	1963.503	1615.226
4.615	23.557	1958.893	1604.425
5.629	17.307	1853.292	1464.150
6.644	6.070	1727.360	1273.870
7.659	0.668	1686.929	1201.087
8.673	0.236	1683.515	1195.126
9.688	0.138	1681.831	1193.044
10.702	0.096	1680.029	1191.328
11.717	0.001	1676.522	1187.984
12.731	0.429	1676.148	1190.998
13.746	7.204	1693.560	1257.180
14.761	17.718	1717.674	1359.201
15.775	22.649	1726.227	1405.249
16.790	23.266	1727.199	1410.837
17.804	23.411	1726.248	1411.088
18.819	23.378	1725.648	1410.210
19.834	23.558	1724.652	1410.703
20.848	23.719	1724.597	1411.811
21.863	23.805	1723.042	1411.100
22.877	23.742	1722.635	1410.142
23.892	23.719	1721.567	1408.956
24.907	23.839	1720.355	1408.790
25.921	23.756	1719.474	1407.288
26.936	23.747	1718.703	1406.461
27.950	23.873	1717.136	1406.049
28.965	23.745	1717.071	1404.862
29.980	23.766	1716.143	1404.143
30.994	23.800	1714.414	1402.874
32.009	23.771	1713.618	1401.868
33.023	23.806	1712.222	1400.881
34.038	23.767	1711.411	1399.781
35.053	23.831	1710.255	1399.222
36.067	23.841	1709.006	1398.152
37.082	23.742	1708.486	1396.824
38.096	23.755	1707.288	1395.821
39.111	23.838	1706.278	1395.524
40.126	23.811	1705.721	1394.732
41.140	23.784	1705.093	1393.883
42.155	23.773	1704.091	1392.859
43.169	23.735	1703.075	1391.610
44.184	23.868	1701.670	1391.373
45.199	23.776	1700.912	1389.914
46.213	23.664	1699.506	1387.770
47.228	23.738	1698.184	1387.142
48.242	23.826	1696.576	1386.388
49.257	23.781	1695.776	1385.262
50.271	23.878	1694.370	1384.746
51.286	23.806	1693.496	1383.355
52.301	23.765	1692.023	1381.709
53.315	23.746	1690.513	1380.202
54.330	23.762	1689.197	1379.132
55.344	23.795	1687.607	1377.967
56.359	23.784	1686.396	1376.772
57.374	23.747	1685.513	1375.644
58.388	23.768	1684.673	1375.000
59.403	23.812	1683.258	1374.065
60.417	23.852	1681.826	1373.080
61.432	23.814	1680.974	1371.973
62.447	23.774	1680.148	1370.867
63.461	23.803	1678.965	1370.002
64.476	23.849	1677.989	1369.443
65.490	23.781	1677.169	1368.124
66.505	23.917	1675.588	1367.758
67.520	23.804	1675.132	1366.402
68.534	23.874	1674.024	1365.910
69.549	23.780	1673.443	1364.594
70.563	23.774	1671.892	1363.167
71.578	23.859	1670.655	1362.687
72.593	23.856	1669.348	1361.478
73.607	23.806	1668.686	1360.436
74.622	23.817	1667.702	1359.594
75.636	23.850	1666.560	1358.794
76.651	23.822	1665.608	1357.685
77.666	23.851	1664.959	1357.257
78.680	23.758	1664.083	1355.717
79.695	23.865	1662.862	1355.411
80.709	23.826	1662.299	1354.536
81.724	23.852	1661.580	1354.031
82.739	23.863	1661.071	1353.582
83.753	23.844	1659.772	1352.261
84.768	23.807	1658.512	1350.828
85.782	23.777	1657.524	1349.677
86.797	23.750	1656.981	1348.911
87.812	23.881	1655.607	1348.666
88.826	23.812	1655.212	1347.700
89.841	23.834	1653.404	1346.278
90.855	23.844	1652.777	1345.725
91.870	23.828	1652.006	1344.857
92.884	23.907	1650.693	1344.263
93.899	23.830	1649.688	1342.747
94.914	23.843	1648.458	1341.720
95.928	23.940	1646.919	1341.088
96.943	23.946	1645.757	1340.067
97.957	23.922	1644.489	1338.732
98.972	23.802	1643.387	1336.813
99.987	23.933	1641.766	1336.363
101.001	23.904	1640.327	1334.853
102.016	23.892	1638.718	1333.341
103.030	23.797	1637.501	1331.515
104.045	23.842	1636.069	1330.571
105.060	23.877	1634.984	1329.835
106.074	23.849	1634.193	1328.864
107.089	23.839	1632.461	1327.266
108.103	23.780	1632.118	1326.423
109.118	23.830	1630.932	1325.717
110.133	23.876	1629.544	1324.813
111.147	23.874	1627.871	1323.321
112.162	24.012	1626.626	1323.221
113.176	23.967	1625.225	1321.630
114.191	23.924	1624.224	1320.376
115.206	23.909	1622.810	1319.002
116.220	23.937	1621.936	1318.380
117.235	23.938	1620.465	1317.081
118.249	23.917	1619.195	1315.772
119.264	23.916	1617.886	1314.584
120.279	23.874	1616.938	1313.389
121.293	23.922	1615.608	1312.546
122.308	23.998	1614.445	1312.046
123.322	23.968	1613.494	1310.936
124.337	24.016	1611.918	1309.892
125.352	23.894	1611.621	1308.640
126.366	23.976	1610.276	1308.033
127.381	23.966	1608.993	1306.799
128.395	23.994	1608.459	1306.459
129.410	23.999	1607.187	1305.348
130.424	24.028	1605.725	1304.254
131.439	24.057	1604.682	1303.504
132.454	23.922	1603.662	1301.573
133.468	24.005	1602.304	1300.963
134.483	23.880	1601.241	1299.068
135.497	23.992	1599.709	1298.529
136.512	24.016	1598.544	1297.643
137.527	23.921	1597.753	1296.199
138.541	23.950	1596.818	1295.531
139.556	24.022	1595.306	1294.715
140.570	24.037	1593.654	1293.368
141.585	23.947	1592.679	1291.813
142.600	24.005	1591.384	1291.065
143.614	24.012	1590.085	1289.949
144.629	24.000	1588.880	1288.774
145.643	24.007	1587.774	1287.808
146.658	23.950	1586.886	1286.566
147.673	23.883	1585.450	1284.799
148.687	23.919	1584.504	1284.183
149.702	24.049	1582.664	1283.516
150.716	23.978	1581.356	1281.830
151.731	23.919	1580.569	1280.651
152.746	24.008	1579.039	1279.936
153.760	24.057	1577.759	1279.137
154.775	23.980	1577.350	1278.144
155.789	24.026	1576.271	1277.489
156.804	24.034	1575.151	1276.520
157.819	24.059	1574.078	1275.720
158.833	23.927	1573.356	1274.073
159.848	23.910	1572.495	1273.143
160.862	24.112	1570.999	1273.263
161.877	24.049	1569.821	1271.750
162.892	24.034	1569.038	1270.889
163.906	24.012	1568.417	1270.122
164.921	24.021	1567.233	1269.116
165.935	24.038	1566.250	1268.328
166.950	24.101	1565.655	1268.183
167.964	24.173	1564.065	1267.295
168.979	24.112	1563.459	1266.254
169.994	24.111	1562.545	1265.399
171.008	24.145	1561.689	1264.832
172.023	24.145	1560.460	1263.726
173.037	24.123	1559.327	1262.538
174.052	24.172	1558.385	1262.013
175.067	24.154	1557.216	1260.829
176.081	24.112	1556.625	1259.936
177.096	24.160	1555.340	1259.125
178.110	24.168	1554.405	1258.319
179.125	24.037	1553.639	1256.656
180.140	24.137	1552.141	1256.042
181.154	24.124	1551.929	1255.668
182.169	24.152	1550.769	1254.814
183.183	24.182	1549.557	1253.937
184.198	24.165	1548.689	1252.998
185.213	24.206	1547.712	1252.387
186.227	24.193	1547.061	1251.656
187.242	24.223	1545.989	1250.893
188.256	24.209	1545.335	1250.151
189.271	24.172	1544.589	1249.179
190.286	24.251	1543.671	1248.884
191.300	24.327	1542.413	1248.282
192.315	24.169	1541.950	1246.696
193.329	24.178	1541.042	1245.916
194.344	24.164	1540.104	1244.943
195.359	24.253	1539.094	1244.641
196.373	24.237	1538.128	1243.637
197.388	24.225	1537.487	1242.923
198.402	24.225	1536.299	1241.856
199.417	24.152	1535.292	1240.421
200.432	24.221	1534.281	1239.975
201.446	24.250	1533.853	1239.720
202.461	24.290	1532.523	1238.816
203.475	24.162	1532.190	1237.549
204.490	24.209	1531.530	1237.231
205.504	24.242	1530.143	1236.233
206.519	24.167	1529.507	1235.087
207.534	24.295	1528.718	1235.228
208.548	24.304	1527.579	1234.260
209.563	24.346	1526.775	1233.792
210.577	24.241	1525.938	1232.280
211.592	24.322	1524.871	1231.871
212.607	24.322	1524.662	1231.595
213.621	24.326	1524.160	1231.102
214.636	24.418	1523.052	1230.738
215.650	24.381	1521.928	1229.466
216.665	24.420	1520.885	1228.780
217.680	24.341	1520.704	1227.979
218.694	24.275	1519.649	1226.568
219.709	24.294	1519.024	1226.087
220.723	24.328	1518.359	1225.676
221.738	24.431	1516.620	1224.867
222.753	24.410	1515.897	1224.030
223.767	24.279	1515.139	1222.411
224.782	24.256	1514.768	1221.851
225.796	24.290	1513.776	1221.174
226.811	24.350	1512.850	1220.731
227.826	24.423	1512.070	1220.489
228.840	24.313	1511.662	1219.298
229.855	24.386	1511.030	1219.180
230.869	24.327	1510.108	1217.930
231.884	24.368	1508.934	1217.155
232.899	24.410	1507.360	1216.063
233.913	24.479	1506.183	1215.477
234.928	24.390	1505.488	1214.203
235.942	24.468	1504.597	1213.903
236.957	24.512	1503.323	1213.069
237.972	24.467	1502.629	1212.092
238.986	24.485	1501.718	1211.375
240.001	24.386	1500.746	1209.810
241.015	24.522	1499.409	1209.549
242.030	24.588	1498.560	1209.201
243.045	24.557	1497.873	1208.334
244.059	24.585	1496.888	1207.621
245.074	24.587	1496.015	1206.825
246.088	24.670	1495.250	1206.661
247.103	24.615	1494.593	1205.648
248.117	24.617	1494.050	1205.123
249.132	24.635	1492.797	1204.124
250.147	24.614	1492.397	1203.552
251.161	24.584	1492.042	1202.957
252.176	24.705	1491.102	1202.911
253.190	24.703	1490.584	1202.372
254.205	24.732	1489.294	1201.420
255.220	24.730	1488.519	1200.676
256.234	24.638	1487.936	1199.482
257.249	24.680	1486.883	1198.806
258.263	24.759	1486.037	1198.550
259.278	24.705	1485.158	1197.368
260.293	24.720	1484.356	1196.721
261.307	24.778	1483.464	1196.280
262.322	24.786	1483.161	1195.987
263.336	24.826	1482.147	1195.326
264.351	24.734	1481.604	1194.171
265.366	24.721	1480.743	1193.281
266.380	24.750	1479.709	1192.541
267.395	24.757	1478.529	1191.527
268.409	24.769	1477.745	1190.870
269.424	24.718	1477.247	1190.022
270.439	24.803	1475.959	1189.446
271.453	24.786	1475.232	1188.642
272.468	24.753	1474.279	1187.554
273.482	24.803	1473.911	1187.482
274.497	24.813	1472.991	1186.699
275.512	24.850	1471.965	1186.012
276.526	24.806	1471.814	1185.500
277.541	24.864	1470.813	1184.972
278.555	24.851	1469.739	1183.912
279.570	24.890	1468.584	1183.139
280.585	24.899	1467.787	1182.447
281.599	24.880	1467.235	1181.772
282.614	24.867	1466.402	1180.915
283.628	24.873	1465.715	1180.293
284.643	24.859	1464.456	1179.085
285.657	24.998	1463.390	1179.035
286.672	24.919	1462.582	1177.760
287.687	24.836	1461.908	1176.569
288.701	24.849	1460.919	1175.757
289.716	24.906	1460.350	1175.567
290.730	24.953	1459.788	1175.315
291.745	24.947	1458.586	1174.207
292.760	25.002	1457.717	1173.762
293.774	24.973	1456.560	1172.540
294.789	25.001	1456.023	1172.189
295.803	24.955	1455.545	1171.396
296.818	25.023	1454.558	1170.945
297.833	25.051	1453.663	1170.301
298.847	24.979	1453.030	1169.216
299.862	25.088	1451.820	1168.855
300.876	25.092	1450.692	1167.867
301.891	24.973	1450.152	1166.551
302.906	25.133	1449.027	1166.586
303.920	25.115	1448.878	1166.247
304.935	25.134	1447.836	1165.430
305.949	25.118	1447.497	1164.950
306.964	25.036	1446.814	1163.765
307.979	25.057	1445.918	1163.073
308.993	25.172	1444.776	1162.797
310.008	25.101	1444.072	1161.673
311.022	25.155	1442.737	1160.845
312.037	25.212	1441.751	1160.318
313.052	25.185	1440.917	1159.366
314.066	25.177	1439.872	1158.374
315.081	25.176	1439.087	1157.629
316.095	25.208	1438.510	1157.270
317.110	25.217	1437.458	1156.383
318.125	25.250	1436.570	1155.778
319.139	25.227	1435.550	1154.703
320.154	25.219	1434.970	1154.087
321.168	25.255	1434.017	1153.449
322.183	25.238	1433.341	1152.693
323.197	25.228	1432.014	1151.464
324.212	25.260	1431.063	1150.800
325.227	25.338	1430.502	1150.743
326.241	25.312	1429.526	1149.692
327.256	25.395	1428.683	1149.445
328.270	25.351	1428.124	1148.612
329.285	25.359	1427.413	1147.986
330.300	25.389	1426.311	1147.195
331.314	25.296	1425.706	1146.012
332.329	25.385	1425.022	1145.925
333.343	25.329	1424.621	1145.144
334.358	25.400	1423.521	1144.610
335.373	25.464	1422.880	1144.405
336.387	25.457	1421.997	1143.549
337.402	25.395	1421.530	1142.677
338.416	25.432	1420.913	1142.317
339.431	25.465	1420.337	1141.961
340.446	25.458	1419.672	1141.283
341.460	25.422	1418.797	1140.249
342.475	25.572	1417.755	1140.260
343.489	25.557	1416.778	1139.280
344.504	25.545	1415.978	1138.460
345.519	25.502	1414.965	1137.272
346.533	25.574	1413.825	1136.708
347.548	25.512	1413.162	1135.685
348.562	25.514	1412.439	1135.014
349.577	25.561	1411.445	1134.415
350.592	25.500	1410.935	1133.520
351.606	25.572	1409.884	1133.024
352.621	25.467	1409.128	1131.656
353.635	25.569	1407.779	1131.115
354.650	25.556	1407.248	1130.509
355.665	25.574	1406.830	1130.183
356.679	25.617	1405.341	1129.156
357.694	25.624	1404.744	1128.620
358.708	25.633	1403.710	1127.747
359.723	25.696	1402.231	1126.858
360.738	25.512	1401.176	1124.758
361.752	25.597	1400.011	1124.251
362.767	25.555	1398.744	1122.875
363.781	25.597	1398.110	1122.529
364.796	25.653	1397.471	1122.266
365.810	25.731	1396.573	1121.932
366.825	25.714	1396.026	1121.283
367.840	25.762	1395.163	1120.790
368.854	25.719	1394.853	1120.178
369.869	25.914	1393.722	1120.381
370.883	25.761	1393.191	1118.903
371.898	25.795	1392.643	1118.576
372.913	25.833	1391.844	1118.071
373.927	25.827	1390.830	1117.120
374.942	25.840	1390.080	1116.499
375.956	25.832	1389.564	1115.940
376.971	25.920	1388.664	1115.660
377.986	25.790	1388.365	1114.516
379.000	25.766	1387.542	1113.611
380.015	25.886	1386.163	1113.148
381.029	25.888	1385.937	1112.875
382.044	25.842	1385.537	1112.176
383.059	25.893	1384.320	1111.416
384.073	25.862	1383.995	1110.866
385.088	25.990	1383.142	1110.869
386.102	25.903	1382.816	1109.971
387.117	25.922	1381.924	1109.275
388.132	26.023	1380.955	1109.022
389.146	26.013	1380.163	1108.223
390.161	25.936	1379.580	1107.186
391.175	26.038	1378.900	1107.169
392.190	26.055	1378.531	1106.876
393.205	26.063	1377.460	1105.966
394.219	25.997	1376.918	1105.030
395.234	25.982	1375.585	1103.775
396.248	26.099	1374.347	1103.399
397.263	26.073	1373.464	1102.433
398.278	25.967	1372.694	1101.069
399.292	26.100	1371.196	1100.578
400.307	26.106	1370.923	1100.300
401.321	26.100	1369.886	1099.333
402.336	26.236	1368.530	1098.974
403.350	26.145	1367.738	1097.688
404.365	26.127	1366.890	1096.803
405.380	26.182	1366.134	1096.434
406.394	26.212	1365.194	1095.764
407.409	26.229	1364.304	1095.052
408.423	26.240	1364.053	1094.826
409.438	26.266	1363.436	1094.387
410.453	26.408	1361.846	1093.874
411.467	26.241	1361.686	1092.641
412.482	26.278	1361.053	1092.259
413.496	26.249	1360.624	1091.641
414.511	26.373	1359.616	1091.484
415.526	26.235	1359.204	1090.224
416.540	26.245	1358.211	1089.392
417.555	26.282	1357.740	1089.140
418.569	26.317	1357.066	1088.715
419.584	26.352	1356.342	1088.250
420.599	26.272	1356.170	1087.532
421.613	135.527	1434.905	1791.952
422.628	132.926	1446.336	1792.075
