DTS Sentinel unit serial number:	SN413079Multiplexer serial number:	ORYXHardware model number:	OX4-SRSoftware version number:	ORYX F/W v4.00 Oryx Data Collector v3.7.2.0data status	okinstallation	princeton_trtdifferential loss correction	single-endedforward channel	channel 4reverse channel	N/Adate	2019/09/11time	15:39:11forward acquisition time	60.00reverse acquisition time	0.00gamma	496.2192k internal	0.2278k external	0.2278temperature offset calibration	1.0015default loss term (dB/km)	0.3790temperature slope calibration	1.0000multiplexer offset coefficient	1.0000multiplexer slope coefficient	1.0000fibre end	0.00T internal ref (°C)	42.81T ext. ref 1 (°C)	1.00T ext. ref 2 (°C)	37.24length (m)	temperature (°C)	Stokes	anti-Stokes-747.200	141.235	-0.211	0.288
-746.185	-17.924	-0.256	0.165
-745.171	375.084	-0.096	0.201
-744.156	-56.382	-0.054	-0.025
-743.142	-91.540	0.452	-0.133
-742.127	117.282	-0.243	0.308
-741.112	-76.882	-0.168	-0.060
-740.098	90.248	-0.081	0.094
-739.083	-133.762	0.195	-0.025
-738.069	62.886	-0.260	0.268
-737.054	162.746	0.061	-0.089
-736.039	240.663	-0.112	-0.193
-735.025	-200.000	-0.040	0.363
-734.010	20.975	-0.046	-0.038
-732.996	800.000	0.111	-0.353
-731.981	-186.549	-0.318	0.005
-730.966	194.576	0.174	-0.272
-729.952	-200.000	0.066	0.000
-728.937	-200.000	0.022	-0.155
-727.923	-127.365	0.120	-0.018
-726.908	-20.732	-0.167	0.105
-725.894	37.947	0.228	0.209
-724.879	92.730	-0.341	-0.396
-723.864	-97.970	-0.086	-0.023
-722.850	-45.906	-0.202	0.103
-721.835	-177.869	0.286	-0.007
-720.821	798.666	-0.058	-0.166
-719.806	-152.801	-0.352	-0.026
-718.791	513.247	0.102	-0.245
-717.777	800.000	-0.073	-0.225
-716.762	-200.000	0.006	-0.074
-715.748	-19.470	0.531	0.339
-714.733	316.949	-0.027	-0.052
-713.718	-2.125	-0.268	0.194
-712.704	-137.596	-0.138	0.016
-711.689	-69.358	-0.275	0.109
-710.675	-67.690	-0.142	-0.057
-709.660	800.000	-0.021	-0.066
-708.645	-200.000	-0.005	0.076
-707.631	-200.000	0.041	0.263
-706.616	-200.000	-0.025	-0.205
-705.602	-200.000	-0.020	0.273
-704.587	-114.939	-0.346	0.068
-703.572	-200.000	0.008	-0.176
-702.558	-167.661	0.013	-0.001
-701.543	-71.562	0.105	-0.040
-700.529	-200.000	-0.250	0.000
-699.514	34.284	-0.219	-0.197
-698.499	-24.333	-0.373	-0.228
-697.485	624.529	0.048	0.125
-696.470	47.336	-0.179	-0.172
-695.456	73.288	-0.221	-0.238
-694.441	369.666	-0.113	0.235
-693.426	-200.000	-0.054	0.323
-692.412	-123.007	-0.206	0.034
-691.397	-200.000	0.028	-0.211
-690.383	53.733	-0.116	-0.114
-689.368	-70.362	-0.311	-0.121
-688.354	-113.145	0.236	0.048
-687.339	-200.000	0.013	0.093
-686.324	-26.662	-0.116	0.070
-685.310	243.202	-0.083	0.143
-684.295	-113.369	-0.461	0.093
-683.281	60.934	-0.039	0.040
-682.266	-118.684	0.399	-0.072
-681.251	-37.624	-0.293	-0.161
-680.237	-200.000	-0.025	0.269
-679.222	111.623	0.155	0.192
-678.208	-41.089	-0.293	0.155
-677.193	163.023	-0.124	0.179
-676.178	212.099	-0.086	-0.139
-675.164	93.551	-0.222	-0.258
-674.149	597.239	-0.100	-0.253
-673.135	126.466	0.092	0.119
-672.120	-144.107	0.264	0.025
-671.105	403.245	-0.039	0.083
-670.091	-39.189	0.039	0.021
-669.076	-200.000	-0.020	0.253
-668.062	103.115	-0.199	0.239
-667.047	40.224	-0.176	-0.162
-666.032	-42.734	0.301	-0.157
-665.018	336.391	-0.171	-0.340
-664.003	761.736	-0.078	0.217
-662.989	-175.973	-0.172	-0.005
-661.974	-99.214	0.200	-0.052
-660.959	-30.290	0.090	0.052
-659.945	65.711	0.065	0.067
-658.930	-23.649	-0.039	0.024
-657.916	109.071	-0.060	-0.074
-656.901	-144.264	0.086	0.008
-655.886	247.109	0.218	0.377
-654.872	140.827	0.050	-0.068
-653.857	-100.969	0.209	-0.053
-652.843	18.938	-0.092	0.075
-651.828	130.536	-0.059	0.078
-650.814	215.990	0.109	0.178
-649.799	-200.000	-0.009	0.081
-648.784	800.000	0.028	0.088
-647.770	-102.608	-0.154	-0.038
-646.755	-124.488	0.335	-0.053
-645.741	5.298	0.285	-0.216
-644.726	143.314	-0.071	0.097
-643.711	-200.000	0.015	-0.133
-642.697	81.601	0.093	0.103
-641.682	-40.821	0.127	0.067
-640.668	118.074	-0.195	0.246
-639.653	167.836	-0.148	-0.215
-638.638	-79.821	-0.203	-0.070
-637.624	-104.179	0.095	0.023
-636.609	223.521	0.064	0.106
-635.595	-148.989	-0.171	0.014
-634.580	683.102	0.144	-0.386
-633.565	201.135	0.072	-0.113
-632.551	253.005	-0.111	0.194
-631.536	-200.000	0.064	0.298
-630.522	371.151	0.049	-0.102
-629.507	-9.193	-0.123	0.084
-628.492	-200.000	0.005	0.435
-627.478	-160.030	-0.065	0.004
-626.463	58.075	0.325	-0.326
-625.449	461.104	0.182	0.416
-624.434	-178.840	0.194	0.005
-623.419	800.000	0.085	0.328
-622.405	800.000	-0.091	0.293
-621.390	-4.894	-0.227	0.160
-620.376	136.558	-0.191	0.255
-619.361	787.859	0.074	-0.207
-618.346	-200.000	-0.002	-0.164
-617.332	-87.320	-0.212	0.066
-616.317	111.134	-0.254	-0.313
-615.303	155.807	0.058	0.083
-614.288	-99.120	-0.368	-0.096
-613.273	-139.195	0.268	-0.030
-612.259	-12.672	-0.105	-0.070
-611.244	-85.913	-0.195	0.062
-610.230	-200.000	0.006	-0.163
-609.215	103.509	-0.132	-0.158
-608.201	-77.565	-0.233	-0.083
-607.186	129.931	-0.148	0.194
-606.171	-82.849	0.099	-0.033
-605.157	-68.150	-0.133	-0.053
-604.142	-59.948	0.035	0.015
-603.128	-130.861	-0.008	0.001
-602.113	58.920	-0.025	-0.026
-601.098	-151.078	0.342	0.026
-600.084	-200.000	-0.023	0.121
-599.069	-200.000	0.011	-0.091
-598.055	161.096	0.042	0.060
-597.040	111.186	0.124	-0.153
-596.025	-63.404	0.106	-0.045
-595.011	600.928	-0.062	0.158
-593.996	219.733	0.105	-0.172
-592.982	-113.361	0.220	-0.044
-591.967	-124.176	-0.060	-0.010
-590.952	-200.000	-0.029	-0.169
-589.938	-41.897	-0.185	0.097
-588.923	-65.324	-0.127	0.052
-587.909	256.355	0.208	-0.366
-586.894	347.035	-0.058	-0.117
-585.879	-200.000	-0.023	-0.178
-584.865	2.743	-0.232	0.172
-583.850	77.996	0.253	0.276
-582.836	528.973	0.135	0.325
-581.821	-95.523	-0.033	0.009
-580.806	-22.060	-0.194	-0.121
-579.792	4.951	0.095	-0.072
-578.777	-200.000	0.013	0.178
-577.763	-87.422	-0.405	0.125
-576.748	-15.784	-0.111	0.072
-575.733	-113.047	0.331	-0.067
-574.719	-94.215	-0.214	0.060
-573.704	399.008	0.090	0.192
-572.690	-70.271	-0.161	-0.063
-571.675	101.831	0.173	-0.207
-570.661	-68.064	-0.255	-0.102
-569.646	-57.750	-0.121	-0.054
-568.631	-200.000	-0.040	0.314
-567.617	145.601	-0.125	0.171
-566.602	-134.638	0.292	-0.036
-565.588	-200.000	-0.060	-0.309
-564.573	-200.000	0.009	-0.505
-563.558	800.000	0.071	-0.205
-562.544	-77.205	0.218	-0.078
-561.529	246.103	0.154	0.265
-560.515	-129.121	0.309	0.044
-559.500	-128.105	-0.213	-0.031
-558.485	166.486	0.091	0.131
-557.471	-158.737	0.287	-0.017
-556.456	722.754	0.062	-0.170
-555.442	114.455	0.091	-0.113
-554.427	-78.585	0.150	-0.052
-553.412	-18.355	-0.227	0.145
-552.398	628.154	-0.068	-0.176
-551.383	5.141	0.321	0.242
-550.369	-67.454	-0.166	0.067
-549.354	17.963	0.086	0.070
-548.339	-89.717	0.267	0.080
-547.325	244.913	-0.072	0.123
-546.310	-82.219	-0.260	0.087
-545.296	0.832	-0.244	0.178
-544.281	219.493	0.119	0.195
-543.266	245.404	0.037	-0.063
-542.252	-56.864	0.127	-0.057
-541.237	38.474	-0.211	-0.192
-540.223	-122.465	0.136	-0.023
-539.208	684.501	-0.033	0.087
-538.193	-200.000	0.007	-0.085
-537.179	-109.508	0.178	0.038
-536.164	128.883	-0.193	-0.251
-535.150	800.000	0.041	0.162
-534.135	800.000	0.046	-0.206
-533.121	-76.073	-0.175	-0.063
-532.106	-13.669	0.016	0.010
-531.091	271.920	0.203	0.366
-530.077	-107.284	-0.096	0.022
-529.062	-200.000	-0.019	0.243
-528.048	-19.719	0.163	-0.103
-527.033	-200.000	-0.018	0.159
-526.018	-20.664	0.156	0.098
-525.004	168.068	-0.143	-0.208
-523.989	-36.484	-0.204	0.112
-522.975	-22.657	0.214	-0.132
-521.960	244.253	-0.129	-0.221
-520.945	153.933	0.199	-0.279
-519.931	-19.637	0.305	-0.193
-518.916	36.951	-0.074	-0.067
-517.902	-200.000	-0.029	-0.493
-516.887	800.000	0.073	-0.293
-515.872	356.547	0.137	-0.279
-514.858	-102.092	0.040	-0.010
-513.843	226.952	-0.088	0.145
-512.829	-91.289	0.102	-0.030
-511.814	140.713	0.140	0.189
-510.799	-101.354	-0.183	0.045
-509.785	-200.000	0.001	0.379
-508.770	457.941	-0.143	0.324
-507.756	145.531	0.049	-0.066
-506.741	-91.374	0.151	0.044
-505.726	76.828	0.022	0.024
-504.712	-200.000	-0.023	0.376
-503.697	-166.177	-0.348	0.015
-502.683	-11.327	0.197	0.132
-501.668	26.376	-0.162	0.138
-500.653	-197.125	-0.171	-0.001
-499.639	-200.000	-0.009	0.225
-498.624	154.824	0.207	-0.291
-497.610	-25.392	0.280	0.169
-496.595	-62.522	-0.332	0.140
-495.581	-39.372	-0.227	-0.121
-494.566	256.254	0.079	0.138
-493.551	-16.037	-0.306	-0.199
-492.537	94.870	0.083	0.096
-491.522	800.000	-0.055	-0.223
-490.508	-77.019	0.298	0.106
-489.493	-181.633	-0.169	-0.003
-488.478	583.854	-0.027	-0.067
-487.464	85.650	0.148	0.166
-486.449	338.628	0.087	0.173
-485.435	800.000	0.075	0.219
-484.420	-200.000	-0.009	0.152
-483.405	-127.688	0.333	-0.049
-482.391	-151.086	-0.092	0.007
-481.376	141.714	0.150	0.203
-480.362	-182.727	0.173	-0.003
-479.347	-200.000	0.072	-0.396
-478.332	212.007	-0.227	-0.365
-477.318	14.730	-0.226	0.180
-476.303	-157.079	0.312	-0.019
-475.289	103.736	0.169	0.202
-474.274	416.401	0.145	0.315
-473.259	-52.204	-0.083	0.039
-472.245	-71.862	-0.114	-0.043
-471.230	-56.970	0.208	-0.093
-470.216	381.771	-0.214	0.448
-469.201	-176.275	-0.198	-0.005
-468.186	800.000	0.088	-0.263
-467.172	101.039	-0.267	0.317
-466.157	-166.412	0.102	0.004
-465.143	-64.719	-0.114	0.047
-464.128	-44.373	-0.122	0.062
-463.113	-200.000	0.049	0.248
-462.099	-200.000	0.056	0.268
-461.084	-200.000	-0.014	-0.270
-460.070	153.983	-0.239	-0.334
-459.055	800.000	-0.097	-0.291
-458.040	800.000	-0.068	0.204
-457.026	5.329	0.311	-0.233
-456.011	502.724	-0.069	-0.162
-454.997	-97.778	0.038	-0.010
-453.982	800.000	0.020	-0.065
-452.968	-200.000	-0.081	0.000
-451.953	-41.111	-0.048	-0.025
-450.938	-11.539	0.264	0.177
-449.924	9.803	-0.282	-0.218
-448.909	91.228	-0.140	0.160
-447.895	527.436	0.059	0.143
-446.880	-117.502	0.187	-0.034
-445.865	-73.599	-0.202	-0.075
-444.851	-200.000	0.030	-0.134
-443.836	169.787	0.155	0.226
-442.822	-29.117	0.410	0.239
-441.807	-106.744	-0.164	-0.037
-440.792	106.008	-0.254	0.306
-439.778	427.339	-0.038	0.083
-438.763	-69.556	-0.293	0.114
-437.749	-148.231	-0.245	0.021
-436.734	-197.762	-0.228	-0.001
-435.719	-200.000	0.006	0.036
-434.705	98.876	-0.126	-0.148
-433.690	-51.422	0.135	0.064
-432.676	-122.380	-0.091	-0.015
-431.661	-67.625	-0.280	0.111
-430.646	119.891	0.058	0.073
-429.632	29.314	-0.354	-0.306
-428.617	-142.570	-0.219	0.022
-427.603	-200.000	0.026	-0.178
-426.588	-65.834	0.086	-0.035
-425.573	259.617	0.055	-0.097
-424.559	-122.472	0.227	0.038
-423.544	-26.587	-0.217	0.129
-422.530	-177.705	-0.280	-0.007
-421.515	-95.264	-0.253	0.069
-420.500	-69.813	0.407	-0.158
-419.486	15.463	0.216	0.173
-418.471	800.000	-0.041	-0.157
-417.457	399.691	-0.204	0.434
-416.442	90.950	0.053	-0.061
-415.428	-120.287	0.197	-0.034
-414.413	24.057	0.212	0.178
-413.398	186.374	-0.139	-0.210
-412.384	292.045	-0.134	-0.247
-411.369	328.710	0.172	0.337
-410.355	-114.952	-0.074	-0.014
-409.340	800.000	0.036	0.101
-408.325	-89.476	-0.009	-0.003
-407.311	800.000	-0.035	-0.123
-406.296	-165.673	0.194	0.009
-405.282	-200.000	-0.055	-0.336
-404.267	208.955	-0.189	0.301
-403.252	8.035	-0.039	-0.030
-402.238	375.777	0.111	0.230
-401.223	203.226	0.044	0.069
-400.209	150.997	-0.276	-0.382
-399.194	-59.217	0.087	0.038
-398.179	-45.568	-0.102	-0.051
-397.165	97.308	0.117	-0.136
-396.150	10.360	0.093	0.072
-395.136	-81.692	0.107	-0.036
-394.121	-11.566	-0.178	-0.119
-393.106	-45.691	-0.440	-0.221
-392.092	-200.000	-0.001	0.105
-391.077	-120.457	0.063	0.011
-390.063	609.527	-0.104	0.263
-389.048	-200.000	-0.014	0.185
-388.033	800.000	0.017	0.062
-387.019	-80.061	-0.152	-0.052
-386.004	800.000	0.029	0.127
-384.990	739.053	-0.100	0.271
-383.975	-44.736	-0.144	-0.073
-382.960	483.705	-0.075	0.172
-381.946	-11.262	-0.177	0.119
-380.931	800.000	0.043	-0.190
-379.917	-200.000	-0.011	0.146
-378.902	80.377	0.234	-0.256
-377.888	-181.505	0.161	0.003
-376.873	512.070	-0.045	0.106
-375.858	-17.857	-0.351	-0.223
-374.844	-111.230	0.147	0.031
-373.829	800.000	0.055	0.174
-372.815	-200.000	-0.045	-0.362
-371.800	258.264	0.095	-0.165
-370.785	-3.006	0.127	0.090
-369.771	48.475	-0.118	0.112
-368.756	-200.000	-0.051	0.000
-367.742	18.221	-0.137	-0.111
-366.727	-200.000	-0.003	-0.079
-365.712	-33.186	0.151	0.085
-364.698	-200.000	-0.041	-0.283
-363.683	-200.000	-0.009	0.270
-362.669	-127.498	0.319	0.047
-361.654	-200.000	-0.003	0.351
-360.639	316.388	-0.032	-0.061
-359.625	800.000	0.047	0.134
-358.610	116.078	-0.244	0.303
-357.596	183.753	-0.163	-0.245
-356.581	-200.000	0.051	-0.303
-355.566	800.000	0.057	-0.167
-354.552	-92.541	0.292	-0.083
-353.537	16.134	0.227	-0.182
-352.523	156.022	-0.088	0.122
-351.508	-69.094	0.043	0.017
-350.493	-200.000	0.042	0.336
-349.479	-200.000	-0.031	-0.159
-348.464	-112.528	0.299	-0.060
-347.450	276.937	-0.167	0.301
-346.435	-124.768	0.241	-0.038
-345.420	-120.757	0.146	-0.025
-344.406	-30.737	-0.348	-0.200
-343.391	-35.428	-0.108	-0.060
-342.377	-46.860	0.044	-0.022
-341.362	76.225	0.189	0.203
-340.348	-92.630	-0.277	-0.079
-339.333	-158.457	-0.236	-0.014
-338.318	-173.251	0.237	0.007
-337.304	316.827	0.139	0.267
-336.289	800.000	0.056	0.203
-335.275	-200.000	0.003	0.192
-334.260	605.089	-0.047	0.120
-333.245	228.120	0.161	0.265
-332.231	144.753	-0.225	-0.304
-331.216	40.671	-0.122	-0.112
-330.202	2.642	0.053	0.039
-329.187	255.810	0.128	0.222
-328.172	-21.982	-0.266	0.164
-327.158	-65.971	-0.264	-0.107
-326.143	800.000	-0.043	0.156
-325.129	66.134	0.117	0.121
-324.114	86.006	0.222	-0.247
-323.099	-35.540	-0.205	-0.113
-322.085	199.935	-0.084	0.130
-321.070	211.767	0.066	-0.105
-320.056	-140.863	0.156	-0.016
-319.041	80.739	0.147	-0.161
-318.026	-145.399	-0.259	-0.024
-317.012	-20.179	0.290	0.181
-315.997	237.870	-0.089	0.150
-314.983	-128.366	-0.272	0.039
-313.968	502.701	0.054	0.127
-312.953	-53.294	0.125	0.058
-311.939	190.303	-0.114	0.174
-310.924	-50.123	-0.053	0.026
-309.910	202.461	-0.030	-0.046
-308.895	-200.000	-0.014	-0.215
-307.880	-200.000	0.024	-0.173
-306.866	-149.559	-0.088	0.007
-305.851	120.382	-0.070	0.088
-304.837	168.439	0.153	-0.221
-303.822	-147.475	0.269	0.023
-302.807	800.000	-0.032	-0.121
-301.793	-113.717	0.368	0.073
-300.778	95.314	0.117	0.135
-299.764	231.719	0.073	-0.122
-298.749	-116.640	0.070	0.013
-297.735	-174.081	0.218	0.006
-296.720	96.575	0.256	-0.296
-295.705	157.852	0.129	0.180
-294.691	-140.468	0.600	-0.063
-293.676	-200.000	0.027	-0.204
-292.662	-156.803	-0.111	0.007
-291.647	467.062	-0.104	-0.235
-290.632	467.283	0.121	0.275
-289.618	37.914	0.041	0.037
-288.603	-66.363	0.186	-0.075
-287.589	-200.000	0.055	-0.270
-286.574	692.293	-0.079	0.208
-285.559	549.575	0.029	-0.070
-284.545	747.882	0.095	-0.260
-283.530	-145.919	0.429	-0.038
-282.516	363.954	0.102	-0.207
-281.501	-17.278	-0.102	-0.065
-280.486	-109.638	-0.324	0.069
-279.472	-200.000	0.001	0.064
-278.457	-200.000	0.011	0.084
-277.443	102.267	0.084	0.099
-276.428	181.486	-0.144	-0.214
-275.413	-35.485	0.136	-0.075
-274.399	800.000	-0.075	0.272
-273.384	800.000	0.060	-0.208
-272.370	54.472	-0.173	-0.169
-271.355	-200.000	-0.000	-0.159
-270.340	461.445	0.033	0.074
-269.326	-37.434	-0.290	-0.156
-268.311	74.607	-0.091	-0.096
-267.297	-193.999	0.326	0.003
-266.282	100.952	-0.015	0.018
-265.267	-200.000	0.008	0.144
-264.253	-121.644	-0.076	0.013
-263.238	255.849	0.092	0.159
-262.224	-63.760	-0.318	0.132
-261.209	-81.191	-0.329	-0.110
-260.195	800.000	-0.053	0.177
-259.180	-53.483	0.148	0.068
-258.165	26.607	-0.228	-0.193
-257.151	-172.417	0.214	0.007
-256.136	189.280	0.137	-0.207
-255.122	10.497	0.167	0.129
-254.107	139.737	-0.037	-0.049
-253.092	-72.299	0.105	-0.039
-252.078	-104.425	-0.161	0.038
-251.063	800.000	-0.024	-0.097
-250.049	-23.883	0.027	0.016
-249.034	-143.226	0.222	-0.022
-248.019	736.647	0.014	0.037
-247.005	14.824	-0.147	0.116
-245.990	72.129	-0.163	0.172
-244.976	-74.410	0.097	-0.035
-243.961	-200.000	-0.006	0.178
-242.946	448.938	0.118	0.262
-241.932	-159.571	0.263	0.015
-240.917	91.313	-0.276	-0.313
-239.903	-200.000	-0.009	-0.191
-238.888	262.014	-0.184	0.321
-237.873	-51.544	0.393	-0.185
-236.859	92.046	-0.213	0.242
-235.844	800.000	-0.040	-0.154
-234.830	-107.159	-0.272	0.061
-233.815	-200.000	0.038	-0.177
-232.800	-88.109	-0.079	0.024
-231.786	-105.707	0.163	-0.037
-230.771	-200.000	0.040	-0.231
-229.757	150.995	-0.101	0.139
-228.742	62.636	0.232	-0.234
-227.727	-116.444	0.338	0.063
-226.713	-1.868	0.335	-0.238
-225.698	233.437	-0.151	-0.252
-224.684	352.015	-0.040	0.080
-223.669	12.761	0.202	0.158
-222.655	139.196	0.025	0.034
-221.640	-85.739	0.065	-0.020
-220.625	-69.352	-0.252	-0.098
-219.611	-200.000	-0.075	0.572
-218.596	800.000	0.071	-0.227
-217.582	800.000	-0.055	0.178
-216.567	179.090	0.090	-0.132
-215.552	800.000	0.070	-0.243
-214.538	529.368	-0.043	0.103
-213.523	-1.497	0.274	-0.195
-212.509	41.679	0.054	0.049
-211.494	-200.000	0.070	0.309
-210.479	133.105	0.302	0.394
-209.465	-200.000	-0.020	0.242
-208.450	-163.729	-0.324	-0.015
-207.436	402.853	0.084	0.178
-206.421	-14.613	-0.220	0.143
-205.406	-162.096	0.183	0.009
-204.392	-200.000	0.011	-0.064
-203.377	267.732	0.022	0.039
-202.363	751.234	0.071	0.192
-201.348	-140.056	-0.263	0.028
-200.333	12.824	0.147	-0.115
-199.319	-200.000	0.037	-0.228
-198.304	-16.039	0.038	0.025
-197.290	601.630	0.116	0.292
-196.275	14.213	-0.238	-0.187
-195.260	-200.000	-0.075	-0.427
-194.246	-200.000	-0.008	0.286
-193.231	-58.476	0.228	0.100
-192.217	800.000	0.080	-0.295
-191.202	-117.296	0.202	0.037
-190.187	-159.079	-0.254	0.014
-189.173	-163.316	-0.229	0.011
-188.158	-38.943	0.103	-0.054
-187.144	89.709	-0.135	-0.152
-186.129	-200.000	-0.008	-0.071
-185.114	11.285	0.361	-0.278
-184.100	-200.000	0.010	0.057
-183.085	10.207	-0.502	-0.384
-182.071	45.059	-0.132	-0.122
-181.056	-200.000	0.030	-0.370
-180.042	53.526	-0.184	-0.178
-179.027	46.454	0.096	0.090
-178.012	-139.601	0.231	-0.025
-176.998	67.503	-0.197	-0.203
-175.983	-33.217	-0.138	0.077
-174.969	-115.084	-0.235	0.045
-173.954	-90.692	0.108	0.031
-172.939	2.588	-0.227	0.165
-171.925	-200.000	0.010	0.161
-170.910	297.025	-0.171	-0.316
-169.896	39.424	-0.148	-0.133
-168.881	155.228	-0.142	-0.197
-167.866	78.048	-0.297	-0.319
-166.852	-183.602	0.330	0.006
-165.837	-200.000	-0.044	-0.348
-164.823	344.276	0.064	-0.126
-163.808	38.901	0.178	0.160
-162.793	800.000	0.064	-0.227
-161.779	-88.454	-0.255	0.077
-160.764	-49.999	-0.214	0.102
-159.750	-200.000	-0.033	0.146
-158.735	-200.000	-0.039	-0.389
-157.720	25.997	0.132	-0.111
-156.706	284.305	0.174	0.316
-155.691	115.903	0.051	-0.062
-154.677	12.146	-0.099	0.077
-153.662	37.929	0.346	0.309
-152.647	800.000	-0.063	-0.211
-151.633	39.441	-0.362	-0.326
-150.618	-200.000	0.011	-0.335
-149.604	25.461	0.047	0.040
-148.589	49.108	-0.144	-0.136
-147.574	-18.736	0.198	-0.124
-146.560	-28.800	-0.422	0.244
-145.545	480.978	-0.048	-0.109
-144.531	800.000	-0.050	0.217
-143.516	4.240	-0.214	-0.158
-142.502	285.115	0.175	0.317
-141.487	800.000	0.101	0.326
-140.472	116.364	0.015	-0.018
-139.458	209.530	0.173	-0.273
-138.443	9.768	0.124	-0.094
-137.429	-68.267	0.278	0.109
-136.414	-200.000	0.014	-0.087
-135.399	275.585	0.249	0.445
-134.385	-64.782	0.538	-0.219
-133.370	106.244	0.189	-0.225
-132.356	175.707	-0.252	0.367
-131.341	12.809	-0.295	0.229
-130.326	-49.707	-0.128	0.061
-129.312	13.589	-0.106	-0.083
-128.297	-35.191	0.192	-0.105
-127.283	-200.000	-0.040	0.556
-126.268	-90.270	0.511	0.149
-125.253	98.020	0.214	-0.247
-124.239	-93.474	0.082	-0.023
-123.224	800.000	-0.043	0.127
-122.210	-50.140	-0.312	0.149
-121.195	660.747	0.148	-0.384
-120.180	800.000	-0.040	-0.126
-119.166	-200.000	0.021	-0.285
-118.151	-124.911	0.239	0.037
-117.137	-200.000	0.012	-0.064
-116.122	-200.000	0.083	-0.457
-115.107	-86.516	-0.138	-0.042
-114.093	-95.177	0.273	-0.074
-113.078	64.169	0.105	0.106
-112.064	-83.670	-0.318	-0.102
-111.049	-200.000	0.007	-0.072
-110.034	-10.776	0.153	-0.102
-109.020	-132.990	-0.279	-0.036
-108.005	-29.085	0.082	-0.048
-106.991	96.558	-0.247	-0.285
-105.976	-200.000	0.039	0.201
-104.962	-3.165	-0.268	0.188
-103.947	-49.766	0.229	0.109
-102.932	800.000	-0.034	-0.135
-101.918	345.263	0.112	0.220
-100.903	25.601	0.116	0.097
-99.889	323.118	-0.149	-0.285
-98.874	60.509	0.083	0.083
-97.859	305.948	0.195	-0.363
-96.845	-200.000	-0.008	0.120
-95.830	-185.108	-0.241	0.004
-94.816	-124.692	0.378	0.059
-93.801	-200.000	0.006	-0.211
-92.786	236.722	0.114	-0.190
-91.772	247.035	-0.115	-0.194
-90.757	-200.000	-0.005	0.129
-89.743	-18.832	0.118	-0.074
-88.728	-110.713	-0.291	-0.060
-87.713	18.789	-0.255	-0.205
-86.699	-200.000	-0.000	0.171
-85.684	-136.391	-0.199	-0.023
-84.670	-101.189	0.088	0.022
-83.655	-72.930	0.133	0.049
-82.640	100.524	-0.092	-0.107
-81.626	-76.021	0.141	-0.050
-80.611	800.000	-0.038	0.115
-79.597	228.611	0.227	0.371
-78.582	-151.118	-0.308	-0.023
-77.567	95.723	0.080	0.092
-76.553	-200.000	0.042	-0.300
-75.538	30.478	-0.124	-0.107
-74.524	-200.000	-0.148	0.001
-73.509	281.017	0.048	0.087
-72.494	-19.909	0.274	0.170
-71.480	35.067	0.324	-0.285
-70.465	-23.374	-0.104	-0.062
-69.451	800.000	-0.050	0.187
-68.436	-200.000	-0.031	0.370
-67.422	0.760	-0.284	0.204
-66.407	151.920	-0.217	-0.296
-65.392	-133.391	0.108	-0.014
-64.378	-102.003	-0.204	0.049
-63.363	363.390	0.101	0.204
-62.349	38.938	0.044	0.040
-61.334	16.561	-0.802	-0.635
-60.319	-35.120	0.342	0.187
-59.305	-200.000	0.071	-0.941
-58.290	450.386	0.290	0.642
-57.276	800.000	0.553	1.539
-56.261	-200.000	74.736	541.143
-55.246	572.002	1298.915	3171.518
-54.232	144.395	2529.321	3384.842
-53.217	111.880	2370.255	2868.972
-52.203	50.146	2107.557	1994.421
-51.188	44.900	2015.344	1859.402
-50.173	43.044	1996.434	1825.091
-49.159	55.048	2033.029	1968.269
-48.144	60.308	2053.395	2035.890
-47.130	45.712	2018.221	1869.174
-46.115	42.929	2006.854	1833.282
-45.100	42.765	2004.397	1829.471
-44.086	42.720	2002.387	1827.158
-43.071	42.676	2000.257	1824.744
-42.057	42.636	1997.814	1822.072
-41.042	42.721	1995.513	1820.672
-40.027	42.774	1993.654	1819.383
-39.013	42.745	1991.993	1817.538
-37.998	42.687	1990.537	1815.609
-36.984	42.738	1988.628	1814.260
-35.969	42.845	1985.998	1812.748
-34.954	42.815	1984.711	1811.234
-33.940	42.853	1982.732	1809.700
-32.925	42.836	1981.326	1808.190
-31.911	42.829	1979.695	1806.567
-30.896	42.835	1978.241	1805.220
-29.881	42.833	1976.252	1803.318
-28.867	42.857	1974.776	1802.110
-27.852	42.920	1973.030	1801.015
-26.838	42.832	1971.141	1798.432
-25.823	42.868	1969.090	1796.808
-24.809	42.873	1967.003	1794.876
-23.794	42.889	1965.957	1793.993
-22.779	42.814	1964.221	1791.674
-21.765	42.828	1962.920	1790.539
-20.750	42.779	1961.375	1788.627
-19.736	42.811	1959.554	1787.177
-18.721	42.791	1958.643	1786.097
-17.706	42.809	1956.675	1784.392
-16.692	42.809	1954.543	1782.371
-15.677	42.861	1952.899	1781.265
-14.663	42.734	1951.998	1779.245
-13.648	42.896	1950.112	1778.892
-12.633	42.807	1949.168	1777.169
-11.619	42.801	1947.499	1775.529
-10.604	42.807	1945.905	1774.058
-9.590	42.843	1944.658	1773.168
-8.575	42.736	1943.285	1770.899
-7.560	42.847	1942.042	1770.674
-6.546	42.823	1940.215	1768.730
-5.531	42.823	1938.957	1767.511
-4.517	42.812	1937.814	1766.307
-3.502	42.916	1936.742	1766.169
-2.487	42.785	1935.714	1764.011
-1.473	42.783	1934.957	1763.237
-0.458	42.906	1930.702	1760.360
0.556	42.080	1911.803	1735.902
1.571	38.158	1892.047	1684.074
2.586	34.033	1913.669	1667.106
3.600	32.719	1951.029	1687.747
4.615	31.794	1948.472	1677.110
5.629	24.015	1842.026	1519.235
6.644	9.631	1707.027	1293.129
7.659	1.827	1660.511	1196.674
8.673	1.089	1656.499	1187.901
9.688	1.008	1655.139	1186.184
10.702	1.034	1653.095	1184.814
11.717	0.869	1650.416	1181.502
12.731	1.341	1649.905	1184.714
13.746	9.809	1670.625	1266.168
14.761	21.455	1697.390	1378.682
15.775	25.208	1702.446	1412.268
16.790	24.875	1700.625	1408.018
17.804	24.944	1699.574	1407.564
18.819	24.899	1699.205	1406.778
19.834	25.001	1698.568	1406.930
20.848	25.217	1697.170	1407.343
21.863	25.167	1696.793	1406.515
22.877	25.122	1696.125	1405.477
23.892	25.180	1694.896	1404.794
24.907	25.220	1694.309	1404.496
25.921	25.134	1693.269	1402.834
26.936	25.142	1692.341	1402.008
27.950	25.110	1691.496	1400.930
28.965	25.181	1690.487	1400.524
29.980	25.128	1690.004	1399.590
30.994	25.188	1688.329	1398.542
32.009	25.137	1687.164	1397.056
33.023	25.298	1686.090	1397.297
34.038	25.247	1685.215	1396.054
35.053	25.230	1683.940	1394.738
36.067	25.271	1682.818	1394.005
37.082	25.148	1682.134	1392.362
38.096	25.188	1681.507	1392.031
39.111	25.134	1680.526	1390.678
40.126	25.183	1679.619	1390.179
41.140	25.192	1678.677	1389.349
42.155	25.236	1677.657	1388.727
43.169	25.099	1676.742	1386.784
44.184	25.123	1675.483	1385.802
45.199	25.284	1674.069	1385.759
46.213	25.126	1673.474	1383.918
47.228	25.173	1672.567	1383.414
48.242	25.186	1670.741	1381.877
49.257	25.062	1669.829	1380.045
50.271	25.158	1668.614	1379.660
51.286	25.188	1667.414	1378.777
52.301	25.131	1666.321	1377.309
53.315	25.143	1664.705	1375.946
54.330	25.252	1663.314	1375.510
55.344	25.204	1661.997	1373.935
56.359	25.149	1660.798	1372.401
57.374	25.184	1659.775	1371.699
58.388	25.217	1658.437	1370.725
59.403	25.211	1657.561	1369.836
60.417	25.240	1656.541	1369.091
61.432	25.268	1655.275	1368.138
62.447	25.235	1654.451	1367.081
63.461	25.204	1653.549	1365.979
64.476	25.141	1652.838	1364.795
65.490	25.224	1651.571	1364.255
66.505	25.135	1650.516	1362.590
67.520	25.176	1649.468	1361.916
68.534	25.207	1648.303	1361.069
69.549	25.254	1646.964	1360.199
70.563	25.256	1646.015	1359.309
71.578	25.258	1645.107	1358.449
72.593	25.232	1644.052	1357.262
73.607	25.304	1643.294	1357.063
74.622	25.269	1642.201	1355.774
75.636	25.230	1641.962	1355.164
76.651	25.137	1641.443	1353.911
77.666	25.221	1640.422	1353.585
78.680	25.219	1639.277	1352.507
79.695	25.272	1638.062	1351.780
80.709	25.285	1637.067	1350.939
81.724	25.226	1636.458	1349.872
82.739	25.237	1635.744	1349.251
83.753	25.276	1634.311	1348.242
84.768	25.290	1633.165	1347.282
85.782	25.283	1632.884	1346.876
86.797	25.128	1632.366	1345.169
87.812	25.235	1631.121	1344.824
88.826	25.274	1629.992	1344.065
89.841	25.181	1629.294	1342.678
90.855	25.271	1628.166	1342.304
91.870	25.249	1627.296	1341.298
92.884	25.268	1625.633	1339.954
93.899	25.279	1625.091	1339.468
94.914	25.232	1623.716	1337.871
95.928	25.327	1622.346	1337.326
96.943	25.240	1621.452	1335.828
97.957	25.282	1619.971	1334.802
98.972	25.241	1618.828	1333.431
99.987	25.198	1617.663	1332.039
101.001	25.309	1616.164	1331.509
102.016	25.259	1614.350	1329.529
103.030	25.201	1613.458	1328.247
104.045	25.259	1612.217	1327.537
105.060	25.227	1610.927	1326.118
106.074	25.214	1609.851	1325.023
107.089	25.345	1608.551	1324.801
108.103	25.269	1607.710	1323.432
109.118	25.192	1606.697	1321.910
110.133	25.337	1605.013	1321.477
111.147	25.251	1604.194	1320.049
112.162	25.324	1602.610	1319.170
113.176	25.344	1601.231	1318.060
114.191	25.307	1600.294	1316.902
115.206	25.314	1598.934	1315.718
116.220	25.373	1598.078	1315.333
117.235	25.361	1596.958	1314.201
118.249	25.278	1595.907	1312.614
119.264	25.278	1595.102	1311.839
120.279	25.272	1593.911	1310.698
121.293	25.328	1592.806	1310.084
122.308	25.373	1591.227	1308.993
123.322	25.361	1589.951	1307.746
124.337	25.374	1588.804	1306.781
125.352	25.393	1587.895	1306.051
126.366	25.378	1587.037	1305.122
127.381	25.284	1586.484	1303.867
128.395	25.383	1585.252	1303.463
129.410	25.439	1583.735	1302.506
130.424	25.405	1582.835	1301.403
131.439	25.366	1581.714	1300.085
132.454	25.362	1580.631	1299.047
133.468	25.406	1579.390	1298.234
134.483	25.380	1578.216	1296.965
135.497	25.457	1576.421	1295.931
136.512	25.432	1575.500	1294.875
137.527	25.391	1574.419	1293.577
138.541	25.385	1573.831	1292.940
139.556	25.409	1572.343	1291.777
140.570	25.444	1570.637	1290.510
141.585	25.358	1569.820	1289.107
142.600	25.400	1568.598	1288.288
143.614	25.455	1567.566	1287.724
144.629	25.460	1566.511	1286.781
145.643	25.527	1564.787	1285.729
146.658	25.377	1563.725	1283.668
147.673	25.285	1562.750	1282.098
148.687	25.347	1561.623	1281.505
149.702	25.388	1560.629	1280.864
150.716	25.363	1559.312	1279.492
151.731	25.362	1558.379	1278.606
152.746	25.358	1557.863	1278.040
153.760	25.328	1556.374	1276.494
154.775	25.363	1555.433	1275.857
155.789	25.455	1553.984	1275.211
156.804	25.411	1553.246	1274.176
157.819	25.393	1552.339	1273.198
158.833	25.319	1550.963	1271.433
159.848	25.493	1549.523	1271.370
160.862	25.485	1549.116	1270.862
161.877	25.475	1547.883	1269.670
162.892	25.402	1546.909	1268.246
163.906	25.436	1546.054	1267.672
164.921	25.414	1545.214	1266.713
165.935	25.461	1544.451	1266.307
166.950	25.481	1543.303	1265.396
167.964	25.385	1542.356	1263.831
168.979	25.431	1541.479	1263.328
169.994	25.548	1540.374	1263.133
171.008	25.412	1539.590	1261.417
172.023	25.524	1538.345	1261.073
173.037	25.519	1537.508	1260.238
174.052	25.460	1536.731	1259.082
175.067	25.560	1535.459	1258.622
176.081	25.529	1534.670	1257.650
177.096	25.583	1533.347	1256.830
178.110	25.526	1532.926	1255.981
179.125	25.496	1531.877	1254.796
180.140	25.527	1530.901	1254.105
181.154	25.569	1529.499	1253.134
182.169	25.589	1528.833	1252.618
183.183	25.445	1528.159	1250.955
184.198	25.555	1526.792	1250.489
185.213	25.535	1526.170	1249.732
186.227	25.548	1525.359	1249.045
187.242	25.526	1525.094	1248.563
188.256	25.593	1523.856	1247.907
189.271	25.562	1523.256	1247.088
190.286	25.627	1522.048	1246.443
191.300	25.645	1520.884	1245.502
192.315	25.647	1520.112	1244.770
193.329	25.595	1518.878	1243.296
194.344	25.658	1518.241	1243.099
195.359	25.587	1517.547	1241.929
196.373	25.567	1517.086	1241.304
197.388	25.615	1516.111	1240.726
198.402	25.526	1514.694	1238.845
199.417	25.501	1514.163	1238.127
200.432	25.528	1513.198	1237.413
201.446	25.583	1512.730	1237.303
202.461	25.615	1511.694	1236.564
203.475	25.617	1510.570	1235.552
204.490	25.602	1510.000	1234.868
205.504	25.598	1509.059	1233.968
206.519	25.557	1508.417	1233.051
207.534	25.609	1507.663	1232.684
208.548	25.698	1506.614	1232.326
209.563	25.747	1505.618	1231.735
210.577	25.689	1504.514	1230.328
211.592	25.734	1503.654	1229.819
212.607	25.612	1503.545	1228.789
213.621	25.703	1502.684	1228.602
214.636	25.725	1501.872	1227.973
215.650	25.699	1501.010	1226.987
216.665	25.772	1500.198	1226.708
217.680	25.731	1499.267	1225.563
218.694	25.759	1498.465	1224.989
219.709	25.810	1497.181	1224.177
220.723	25.809	1496.512	1223.515
221.738	25.758	1496.332	1222.914
222.753	25.787	1495.136	1222.023
223.767	25.617	1494.219	1220.012
224.782	25.614	1493.516	1219.311
225.796	25.751	1492.537	1219.329
226.811	25.847	1491.876	1219.336
227.826	25.767	1491.363	1218.264
228.840	25.801	1490.342	1217.555
229.855	25.862	1489.830	1217.441
230.869	25.748	1488.982	1215.867
231.884	25.778	1487.499	1214.755
232.899	25.810	1486.645	1214.162
233.913	25.827	1485.907	1213.569
234.928	25.742	1484.688	1211.892
235.942	25.758	1484.066	1211.388
236.957	25.876	1482.842	1211.069
237.972	25.941	1481.660	1210.434
238.986	25.796	1481.065	1208.867
240.001	25.878	1479.485	1208.022
241.015	25.965	1478.279	1207.511
242.030	25.982	1478.003	1207.294
243.045	25.901	1477.463	1206.202
244.059	25.995	1476.247	1205.733
245.074	25.980	1475.516	1204.932
246.088	25.953	1474.927	1204.162
247.103	25.988	1473.922	1203.467
248.117	26.029	1473.121	1202.979
249.132	26.036	1472.375	1202.314
250.147	25.932	1471.951	1201.171
251.161	26.030	1470.911	1200.863
252.176	26.134	1470.328	1200.978
253.190	26.105	1469.442	1199.955
254.205	26.043	1468.506	1198.666
255.220	26.196	1467.583	1198.826
256.234	26.080	1466.817	1197.324
257.249	26.118	1466.345	1197.085
258.263	26.151	1465.324	1196.367
259.278	26.141	1464.999	1195.924
260.293	26.051	1463.795	1194.241
261.307	26.078	1463.243	1193.866
262.322	26.114	1462.319	1193.245
263.336	26.216	1461.297	1192.980
264.351	26.182	1460.584	1192.067
265.366	26.130	1459.955	1191.107
266.380	26.128	1458.884	1190.112
267.395	26.150	1458.054	1189.473
268.409	26.160	1457.494	1188.976
269.424	26.094	1456.470	1187.600
270.439	26.120	1455.515	1186.893
271.453	26.118	1454.657	1186.074
272.468	26.204	1453.687	1185.743
273.482	26.168	1453.386	1185.155
274.497	26.186	1452.489	1184.435
275.512	26.151	1451.611	1183.389
276.526	26.282	1450.790	1183.468
277.541	26.180	1450.062	1182.105
278.555	26.179	1449.139	1181.242
279.570	26.197	1448.751	1180.938
280.585	26.326	1447.287	1180.482
281.599	26.304	1446.460	1179.558
282.614	26.173	1445.783	1178.046
283.628	26.176	1445.164	1177.461
284.643	26.274	1443.797	1176.879
285.657	26.271	1443.326	1176.369
286.672	26.394	1442.067	1176.039
287.687	26.236	1441.689	1174.602
288.701	26.289	1440.489	1173.863
289.716	26.313	1439.937	1173.463
290.730	26.366	1439.255	1173.152
291.745	26.410	1437.937	1172.257
292.760	26.307	1437.190	1170.880
293.774	26.313	1436.558	1170.296
294.789	26.365	1435.688	1169.824
295.803	26.307	1435.062	1168.833
296.818	26.477	1434.070	1169.021
297.833	26.386	1433.263	1167.671
298.847	26.434	1432.583	1167.323
299.862	26.382	1431.924	1166.347
300.876	26.494	1430.652	1165.934
301.891	26.411	1430.288	1164.997
302.906	26.452	1429.615	1164.608
303.920	26.539	1428.922	1164.500
304.935	26.563	1428.061	1163.851
305.949	26.550	1427.338	1163.078
306.964	26.469	1426.733	1161.957
307.979	26.533	1425.294	1161.095
308.993	26.522	1424.723	1160.457
310.008	26.539	1424.055	1159.922
311.022	26.567	1422.732	1158.919
312.037	26.564	1421.623	1157.894
313.052	26.620	1420.887	1157.546
314.066	26.563	1419.938	1156.311
315.081	26.629	1419.022	1155.883
316.095	26.620	1418.542	1155.334
317.110	26.599	1417.297	1154.084
318.125	26.634	1416.563	1153.604
319.139	26.696	1415.724	1153.215
320.154	26.545	1415.282	1151.794
321.168	26.623	1414.213	1151.318
322.183	26.574	1413.226	1150.101
323.197	26.636	1412.241	1149.592
324.212	26.769	1411.488	1149.717
325.227	26.652	1411.146	1148.598
326.241	26.659	1410.066	1147.657
327.256	26.666	1409.156	1146.859
328.270	26.763	1408.304	1146.677
329.285	26.770	1407.844	1146.251
330.300	26.796	1406.923	1145.559
331.314	26.803	1406.215	1144.929
332.329	26.801	1405.025	1143.847
333.343	26.816	1404.130	1143.107
334.358	26.765	1403.741	1142.371
335.373	26.875	1403.350	1142.641
336.387	26.820	1402.498	1141.502
337.402	26.867	1401.620	1140.984
338.416	26.847	1400.724	1140.028
339.431	26.874	1401.066	1140.376
340.446	26.873	1400.327	1139.667
341.460	26.895	1399.341	1138.900
342.475	26.926	1398.029	1137.923
343.489	27.034	1397.158	1137.794
344.504	26.968	1396.414	1136.673
345.519	26.925	1395.299	1135.396
346.533	26.909	1394.660	1134.678
347.548	26.882	1393.409	1133.390
348.562	26.986	1392.636	1133.307
349.577	26.994	1392.120	1132.841
350.592	27.000	1391.344	1132.145
351.606	26.996	1390.777	1131.557
352.621	26.892	1389.646	1129.891
353.635	26.978	1388.626	1129.497
354.650	26.962	1387.973	1128.762
355.665	27.025	1387.004	1128.268
356.679	27.039	1385.984	1127.425
357.694	27.143	1384.791	1126.999
358.708	27.018	1384.126	1125.588
359.723	27.068	1382.795	1124.710
360.738	27.072	1381.795	1123.824
361.752	26.967	1380.994	1122.425
362.767	27.009	1379.861	1121.662
363.781	27.009	1379.155	1120.989
364.796	27.066	1378.447	1120.669
365.810	27.221	1377.554	1120.797
366.825	27.225	1376.825	1120.130
367.840	27.205	1376.054	1119.279
368.854	27.186	1375.745	1118.812
369.869	27.176	1375.153	1118.172
370.883	27.280	1374.367	1118.071
371.898	27.233	1373.709	1117.153
372.913	27.201	1373.076	1116.342
373.927	27.236	1371.964	1115.551
374.942	27.208	1371.763	1115.119
375.956	27.285	1370.631	1114.570
376.971	27.255	1369.963	1113.745
377.986	27.319	1369.207	1113.425
379.000	27.228	1368.624	1112.294
380.015	27.254	1367.756	1111.651
381.029	27.334	1366.557	1111.064
382.044	27.291	1365.989	1110.245
383.059	27.226	1365.824	1109.611
384.073	27.350	1364.988	1109.594
385.088	27.480	1364.095	1109.562
386.102	27.392	1363.608	1108.527
387.117	27.385	1363.001	1107.894
388.132	27.393	1362.275	1107.258
389.146	27.428	1361.418	1106.678
390.161	27.326	1361.199	1105.778
391.175	27.478	1360.199	1105.794
392.190	27.389	1359.501	1104.587
393.205	27.373	1358.910	1103.912
394.219	27.415	1358.141	1103.444
395.234	27.412	1356.852	1102.281
396.248	27.547	1355.882	1102.210
397.263	27.561	1354.767	1101.294
398.278	27.566	1353.742	1100.390
399.292	27.500	1352.822	1099.150
400.307	27.528	1352.014	1098.561
401.321	27.616	1351.226	1098.356
402.336	27.600	1350.308	1097.418
403.350	27.570	1349.027	1096.096
404.365	27.553	1348.282	1095.292
405.380	27.468	1347.753	1094.253
406.394	27.620	1347.129	1094.567
407.409	27.534	1345.997	1093.035
408.423	27.665	1345.673	1093.460
409.438	27.606	1345.259	1092.669
410.453	27.773	1343.719	1092.324
411.467	27.691	1343.381	1091.460
412.482	27.778	1342.757	1091.379
413.496	27.667	1342.456	1090.374
414.511	27.700	1341.288	1089.524
415.526	27.694	1341.122	1089.255
416.540	27.732	1340.351	1088.763
417.555	27.717	1339.331	1087.747
418.569	27.768	1338.533	1087.310
419.584	27.747	1338.230	1086.843
420.599	27.748	1337.967	1086.535
421.613	74.466	1318.952	1336.731
422.628	75.031	1316.167	1336.883
