DTS Sentinel unit serial number:	SN413079Multiplexer serial number:	ORYXHardware model number:	OX4-SRSoftware version number:	ORYX F/W v4.00 Oryx Data Collector v3.7.2.0data status	okinstallation	princeton_trtdifferential loss correction	single-endedforward channel	channel 4reverse channel	N/Adate	2019/09/11time	19:07:11forward acquisition time	60.00reverse acquisition time	0.00gamma	496.2192k internal	0.2287k external	0.2287temperature offset calibration	1.0036default loss term (dB/km)	0.3790temperature slope calibration	1.0000multiplexer offset coefficient	1.0000multiplexer slope coefficient	1.0000fibre end	0.00T internal ref (°C)	41.86T ext. ref 1 (°C)	1.28T ext. ref 2 (°C)	34.12length (m)	temperature (°C)	Stokes	anti-Stokes-747.200	61.464	-0.059	0.060
-746.185	-111.164	-0.167	0.035
-745.171	-20.814	0.341	0.214
-744.156	-2.670	-0.217	0.155
-743.142	217.396	-0.105	0.171
-742.127	-121.728	-0.169	0.029
-741.112	-6.103	0.143	-0.100
-740.098	-123.147	0.228	-0.037
-739.083	-103.456	-0.246	-0.059
-738.069	-200.000	-0.021	-0.170
-737.054	-200.000	-0.001	-0.178
-736.039	-88.824	0.186	-0.057
-735.025	7.051	-0.109	-0.084
-734.010	800.000	0.107	0.309
-732.996	349.042	-0.114	-0.231
-731.981	-200.000	0.013	-0.277
-730.966	156.148	-0.167	-0.236
-729.952	-200.000	0.050	-0.296
-728.937	421.193	-0.144	-0.316
-727.923	-79.767	0.049	-0.017
-726.908	800.000	-0.083	-0.243
-725.894	-200.000	0.057	-0.316
-724.879	-200.000	0.023	-0.222
-723.864	15.169	-0.071	-0.057
-722.850	-200.000	-0.057	-0.444
-721.835	-200.000	0.022	0.308
-720.821	-200.000	0.009	-0.052
-719.806	-83.050	0.246	-0.081
-718.791	800.000	0.007	0.030
-717.777	800.000	-0.052	-0.174
-716.762	223.037	-0.115	-0.190
-715.748	800.000	0.028	-0.081
-714.733	-56.369	-0.054	-0.025
-713.718	398.898	-0.095	0.204
-712.704	-200.000	-0.004	0.096
-711.689	-23.660	0.163	-0.100
-710.675	800.000	-0.019	-0.064
-709.660	-200.000	-0.006	0.279
-708.645	-30.935	0.293	0.169
-707.631	33.070	0.051	0.045
-706.616	9.265	-0.032	0.025
-705.602	-200.000	-0.010	0.106
-704.587	-112.427	0.087	-0.018
-703.572	-58.241	0.108	-0.048
-702.558	-46.971	0.450	0.225
-701.543	-48.922	-0.311	0.153
-700.529	-101.575	0.211	-0.052
-699.514	800.000	-0.046	-0.159
-698.499	100.660	0.124	0.148
-697.485	-3.406	0.250	-0.178
-696.470	-200.000	0.004	-0.056
-695.456	-148.329	-0.418	0.035
-694.441	-8.787	-0.208	0.143
-693.426	189.328	-0.126	0.193
-692.412	-200.000	-0.004	-0.199
-691.397	800.000	0.033	0.117
-690.383	-12.841	-0.255	-0.170
-689.368	58.791	-0.165	0.166
-688.354	-44.293	-0.236	-0.121
-687.339	-86.593	0.232	-0.073
-686.324	249.633	0.032	-0.056
-685.310	-119.025	-0.249	-0.045
-684.295	800.000	-0.022	-0.061
-683.281	-200.000	-0.001	-0.164
-682.266	62.871	-0.238	-0.244
-681.251	-40.861	-0.191	-0.101
-680.237	214.437	-0.032	0.051
-679.222	800.000	0.112	-0.402
-678.208	9.188	0.240	0.186
-677.193	-70.498	0.199	-0.077
-676.178	-14.508	-0.176	0.116
-675.164	-166.333	-0.436	-0.019
-674.149	529.136	-0.058	-0.139
-673.135	6.297	-0.080	-0.061
-672.120	219.288	0.200	0.327
-671.105	800.000	0.024	0.081
-670.091	33.164	0.069	-0.061
-669.076	188.938	-0.044	0.068
-668.062	-118.591	-0.127	0.023
-667.047	38.542	0.359	0.327
-666.032	39.759	0.153	0.141
-665.018	800.000	-0.130	-0.474
-664.003	458.250	-0.008	0.018
-662.989	-88.967	0.159	-0.048
-661.974	-200.000	0.027	-0.209
-660.959	800.000	0.051	-0.161
-659.945	-141.795	0.309	-0.032
-658.930	-144.901	0.226	-0.021
-657.916	126.065	-0.171	-0.221
-656.901	800.000	0.077	-0.340
-655.886	-102.926	0.359	0.087
-654.872	-200.000	-0.022	-0.269
-653.857	800.000	-0.083	-0.324
-652.843	147.800	0.149	-0.205
-651.828	-105.981	-0.407	-0.094
-650.814	-200.000	-0.022	0.170
-649.799	51.387	0.092	0.089
-648.784	-200.000	-0.061	0.285
-647.770	98.461	-0.318	0.375
-646.755	800.000	0.033	0.103
-645.741	800.000	0.060	-0.190
-644.726	-135.256	0.406	-0.050
-643.711	11.291	0.058	0.045
-642.697	-136.614	0.336	0.040
-641.682	-144.613	0.291	-0.027
-640.668	-121.491	0.122	0.021
-639.653	153.048	0.029	0.041
-638.638	2.976	-0.247	-0.183
-637.624	-134.798	-0.309	0.038
-636.609	-200.000	0.006	-0.133
-635.595	-200.000	-0.039	-0.345
-634.580	-200.000	-0.014	0.373
-633.565	59.158	0.059	-0.060
-632.551	-61.338	0.387	-0.167
-631.536	-84.733	0.315	-0.101
-630.522	352.485	-0.117	-0.238
-629.507	-82.246	-0.379	-0.126
-628.492	-200.000	-0.030	-0.168
-627.478	219.277	-0.110	-0.179
-626.463	800.000	0.074	-0.225
-625.449	800.000	-0.075	-0.250
-624.434	169.446	0.124	-0.180
-623.419	-200.000	-0.026	-0.353
-622.405	28.638	-0.052	0.045
-621.390	800.000	-0.093	-0.265
-620.376	800.000	-0.022	-0.070
-619.361	18.810	0.195	-0.160
-618.346	-65.560	0.096	0.039
-617.332	-177.250	-0.209	-0.005
-616.317	235.086	0.071	-0.120
-615.303	-101.824	0.324	-0.080
-614.288	-200.000	0.005	0.120
-613.273	110.591	0.015	-0.018
-612.259	-200.000	0.028	0.170
-611.244	202.472	-0.247	-0.388
-610.230	-152.477	0.153	0.011
-609.215	144.339	0.032	0.043
-608.201	-135.606	0.215	-0.026
-607.186	-200.000	-0.032	-0.257
-606.171	91.573	-0.249	-0.286
-605.157	-56.559	-0.276	-0.125
-604.142	800.000	-0.058	0.164
-603.128	-200.000	-0.006	0.173
-602.113	800.000	-0.066	-0.215
-601.098	-168.391	-0.171	0.007
-600.084	662.822	0.039	0.102
-599.069	-200.000	-0.005	0.058
-598.055	-90.410	-0.106	-0.031
-597.040	-22.508	-0.015	-0.009
-596.025	-200.000	-0.024	-0.198
-595.011	-128.138	-0.235	-0.034
-593.996	-43.014	0.087	0.045
-592.982	-200.000	-0.035	-0.444
-591.967	800.000	0.112	-0.327
-590.952	342.715	0.033	0.066
-589.938	-200.000	-0.004	0.100
-588.923	800.000	-0.008	-0.036
-587.909	3.869	-0.161	-0.120
-586.894	-82.805	-0.156	-0.051
-585.879	-111.458	-0.287	-0.060
-584.865	59.339	0.097	0.098
-583.850	-139.780	-0.309	0.033
-582.836	-200.000	0.053	0.423
-581.821	648.662	-0.098	-0.256
-580.806	-33.767	-0.142	0.080
-579.792	174.331	-0.125	0.185
-578.777	-200.000	0.028	0.188
-577.763	-45.856	0.194	-0.098
-576.748	800.000	0.101	-0.327
-575.733	73.398	0.098	0.104
-574.719	152.246	0.111	0.155
-573.704	560.105	-0.040	0.097
-572.690	650.990	0.094	0.245
-571.675	-157.798	-0.303	0.018
-570.661	-200.000	-0.012	-0.192
-569.646	-200.000	-0.016	0.106
-568.631	14.968	-0.214	0.171
-567.617	-55.135	-0.190	0.087
-566.602	800.000	-0.102	0.305
-565.588	319.591	-0.065	0.126
-564.573	-9.432	-0.155	-0.106
-563.558	-9.582	-0.164	0.112
-562.544	31.595	-0.329	-0.288
-561.529	-67.557	0.395	-0.158
-560.515	-175.234	-0.336	-0.009
-559.500	-62.387	-0.292	-0.124
-558.485	48.635	0.105	0.100
-557.471	-200.000	0.005	0.245
-556.456	17.390	0.059	0.048
-555.442	451.154	-0.090	-0.203
-554.427	-18.379	-0.145	-0.092
-553.412	-144.892	-0.233	0.022
-552.398	-111.984	-0.314	0.064
-551.383	-7.757	-0.149	0.103
-550.369	10.389	-0.276	-0.214
-549.354	56.669	-0.312	-0.309
-548.339	-97.257	0.068	0.018
-547.325	153.902	0.120	-0.167
-546.310	139.917	-0.207	-0.278
-545.296	800.000	0.080	-0.345
-544.281	-200.000	-0.017	-0.365
-543.266	736.383	-0.031	0.085
-542.252	-102.574	0.099	0.024
-541.237	-200.000	0.005	0.245
-540.223	800.000	0.049	0.156
-539.208	-114.954	-0.198	-0.038
-538.193	-200.000	-0.050	0.448
-537.179	197.696	-0.109	-0.170
-536.164	-153.547	-0.315	0.022
-535.150	48.729	0.156	-0.149
-534.135	0.227	-0.106	0.077
-533.121	536.057	-0.095	0.228
-532.106	-90.461	-0.339	-0.100
-531.091	26.649	-0.147	0.125
-530.077	-200.000	-0.014	-0.137
-529.062	4.800	0.323	-0.242
-528.048	-46.924	-0.049	-0.024
-527.033	800.000	-0.023	0.070
-526.018	-200.000	0.010	-0.294
-525.004	32.345	-0.232	0.203
-523.989	-18.204	0.237	0.151
-522.975	-129.421	0.360	0.051
-521.960	-56.951	-0.294	-0.132
-520.945	-200.000	0.031	-0.141
-519.931	-61.913	0.163	0.069
-518.916	351.285	-0.086	-0.173
-517.902	-28.327	0.249	-0.146
-516.887	-61.137	0.391	-0.168
-515.872	-150.601	0.159	0.012
-514.858	-200.000	-0.006	-0.376
-513.843	800.000	0.068	-0.266
-512.829	225.566	0.112	-0.184
-511.814	800.000	0.029	-0.122
-510.799	-200.000	-0.004	-0.274
-509.785	-150.046	-0.257	0.020
-508.770	-107.929	0.236	-0.052
-507.756	183.512	-0.018	0.027
-506.741	-200.000	0.002	-0.086
-505.726	74.218	0.226	-0.241
-504.712	137.729	-0.061	-0.081
-503.697	157.053	0.182	0.255
-502.683	168.847	-0.095	-0.137
-501.668	145.600	-0.083	0.113
-500.653	800.000	-0.084	0.341
-499.639	-40.893	0.322	0.169
-498.624	800.000	0.071	-0.215
-497.610	127.474	0.102	0.131
-496.595	119.280	0.230	0.289
-495.581	-200.000	-0.001	-0.007
-494.566	-200.000	0.019	-0.195
-493.551	167.502	-0.131	-0.189
-492.537	-110.359	0.049	-0.010
-491.522	136.134	-0.208	0.275
-490.508	800.000	-0.042	-0.184
-489.493	360.771	0.098	-0.199
-488.478	303.258	0.196	0.368
-487.464	800.000	0.031	0.093
-486.449	-22.951	0.138	-0.085
-485.435	-134.689	0.243	0.030
-484.420	330.575	0.077	-0.151
-483.405	-47.684	0.158	0.078
-482.391	10.865	0.198	-0.154
-481.376	-15.165	0.221	-0.144
-480.362	408.062	-0.052	-0.111
-479.347	-83.720	-0.234	0.076
-478.332	44.487	-0.184	0.171
-477.318	29.536	0.144	0.125
-476.303	800.000	0.093	-0.318
-475.289	-200.000	-0.041	-0.224
-474.274	327.210	0.118	0.229
-473.259	-200.000	-0.011	-0.093
-472.245	574.152	-0.027	-0.067
-471.230	108.423	0.039	0.047
-470.216	303.051	0.043	-0.081
-469.201	-89.959	0.085	0.025
-468.186	-200.000	-0.019	0.285
-467.172	216.465	-0.076	0.123
-466.157	-21.025	-0.504	0.313
-465.143	8.145	0.104	-0.080
-464.128	-69.117	0.141	-0.055
-463.113	-200.000	0.008	-0.262
-462.099	-20.903	-0.279	0.174
-461.084	38.428	0.158	0.143
-460.070	-21.463	0.074	0.046
-459.055	-188.599	0.086	0.001
-458.040	-167.869	0.139	0.006
-457.026	-19.953	-0.137	-0.086
-456.011	21.486	-0.165	0.136
-454.997	192.953	0.091	-0.139
-453.982	-114.842	0.297	-0.057
-452.968	129.633	0.168	-0.217
-451.953	800.000	-0.082	-0.241
-450.938	-200.000	-0.032	0.150
-449.924	-200.000	-0.006	0.108
-448.909	233.974	-0.114	0.190
-447.895	-112.715	0.210	0.042
-446.880	147.009	-0.014	0.019
-445.865	16.307	-0.115	-0.092
-444.851	662.617	0.029	-0.075
-443.836	685.931	-0.064	0.169
-442.822	-34.966	0.144	0.080
-441.807	-200.000	-0.022	-0.098
-440.792	30.407	-0.283	0.245
-439.778	-9.750	0.226	0.152
-438.763	67.593	0.218	0.226
-437.749	-107.726	-0.086	0.019
-436.734	-86.910	0.229	-0.071
-435.719	-21.378	-0.108	-0.067
-434.705	-163.728	0.474	0.023
-433.690	179.346	-0.063	-0.093
-432.676	-128.203	-0.221	-0.032
-431.661	1.982	0.217	0.159
-430.646	340.068	0.144	0.284
-429.632	-21.690	0.219	0.135
-428.617	-126.731	0.258	-0.039
-427.603	-91.950	0.221	-0.064
-426.588	462.558	0.045	0.103
-425.573	-38.987	-0.116	0.062
-424.559	221.892	-0.087	-0.142
-423.544	-200.000	0.031	0.151
-422.530	-200.000	0.023	-0.170
-421.515	800.000	-0.079	-0.316
-420.500	6.738	-0.165	0.124
-419.486	470.836	0.086	-0.196
-418.471	230.764	-0.159	0.264
-417.457	-144.739	-0.327	0.030
-416.442	207.489	-0.234	-0.370
-415.428	-57.764	0.217	-0.096
-414.413	-75.895	0.187	0.067
-413.398	467.667	-0.100	-0.228
-412.384	800.000	-0.023	-0.092
-411.369	-111.247	-0.487	0.101
-410.355	791.522	-0.031	-0.086
-409.340	130.821	-0.064	0.083
-408.325	-190.942	0.228	0.002
-407.311	26.652	-0.385	-0.327
-406.296	-200.000	-0.047	-0.396
-405.282	-200.000	-0.029	0.196
-404.267	62.380	-0.125	0.127
-403.252	251.611	0.100	0.173
-402.238	-84.502	0.313	0.100
-401.223	-76.485	0.108	-0.038
-400.209	-178.425	-0.105	-0.002
-399.194	0.470	-0.072	0.052
-398.179	246.660	-0.066	-0.112
-397.165	239.554	-0.044	0.074
-396.150	-31.557	0.211	-0.120
-395.136	-191.051	-0.120	-0.001
-394.121	-0.508	0.173	0.124
-393.106	232.496	-0.152	0.252
-392.092	-200.000	-0.028	0.227
-391.077	-128.734	0.139	0.020
-390.063	-139.973	-0.190	-0.020
-389.048	-200.000	0.021	0.103
-388.033	93.465	-0.205	0.234
-387.019	-13.610	0.372	0.244
-386.004	45.674	-0.117	-0.109
-384.990	755.200	0.039	0.107
-383.975	312.268	0.082	0.155
-382.960	800.000	0.021	0.076
-381.946	-86.323	0.130	-0.041
-380.931	-63.049	-0.093	-0.039
-379.917	-21.931	0.162	0.099
-378.902	83.900	0.281	-0.310
-377.888	225.772	-0.147	0.242
-376.873	216.878	0.123	-0.197
-375.858	-6.866	0.166	0.114
-374.844	284.449	-0.124	-0.225
-373.829	-112.481	-0.099	0.020
-372.815	50.264	-0.081	-0.078
-371.800	38.545	0.080	0.072
-370.785	87.771	-0.067	0.075
-369.771	22.346	0.159	0.131
-368.756	8.018	-0.051	-0.039
-367.742	-128.117	-0.175	0.025
-366.727	-69.939	0.191	-0.074
-365.712	24.397	0.035	-0.029
-364.698	-150.576	0.099	0.008
-363.683	392.152	-0.068	0.142
-362.669	605.370	-0.155	-0.391
-361.654	-85.466	0.118	-0.037
-360.639	-20.927	0.185	0.114
-359.625	122.640	0.078	-0.099
-358.610	-79.959	0.246	-0.083
-357.596	-200.000	0.044	0.284
-356.581	16.271	0.067	-0.053
-355.566	800.000	-0.029	-0.092
-354.552	-12.569	-0.092	-0.060
-353.537	-97.993	-0.057	0.015
-352.523	-34.095	0.093	-0.052
-351.508	-141.577	0.369	0.038
-350.493	-101.043	-0.206	-0.051
-349.479	116.426	0.125	-0.155
-348.464	-56.952	-0.219	-0.098
-347.450	354.413	-0.101	0.203
-346.435	-200.000	0.007	0.034
-345.420	-152.075	-0.345	-0.025
-344.406	92.171	-0.145	-0.165
-343.391	800.000	-0.147	-0.425
-342.377	661.960	0.110	0.287
-341.362	258.778	-0.339	0.591
-340.348	-64.894	-0.043	-0.018
-339.333	-200.000	0.048	0.340
-338.318	-38.269	-0.057	-0.030
-337.304	207.993	0.024	0.038
-336.289	-57.123	0.082	0.036
-335.275	-200.000	0.021	0.164
-334.260	-200.000	0.016	0.282
-333.245	4.532	0.183	0.136
-332.231	-198.010	0.135	-0.001
-331.216	-200.000	-0.004	0.091
-330.202	-147.973	0.172	0.014
-329.187	64.199	0.139	0.141
-328.172	-14.598	-0.245	-0.159
-327.158	25.656	-0.236	-0.198
-326.143	37.561	0.244	-0.218
-325.129	-19.532	0.091	0.057
-324.114	308.967	-0.207	-0.390
-323.099	-200.000	0.262	-0.000
-322.085	-14.331	-0.085	-0.055
-321.070	55.792	0.183	0.179
-320.056	-55.137	-0.219	0.099
-319.041	172.473	0.050	-0.072
-318.026	-200.000	0.022	-0.174
-317.012	-26.005	0.097	0.057
-315.997	-0.940	-0.339	-0.242
-314.983	800.000	-0.065	0.237
-313.968	-200.000	0.002	0.115
-312.953	106.054	-0.097	-0.115
-311.939	-7.766	0.239	0.163
-310.924	-112.909	0.214	-0.043
-309.910	-200.000	0.034	0.206
-308.895	-78.170	0.252	0.088
-307.880	-7.188	0.271	0.185
-306.866	-97.384	-0.191	-0.050
-305.851	43.104	0.362	-0.333
-304.837	-200.000	-0.002	-0.189
-303.822	800.000	0.178	0.535
-302.807	204.194	0.171	0.267
-301.793	-123.475	-0.171	0.027
-300.778	220.781	0.131	0.212
-299.764	98.529	-0.057	-0.066
-298.749	800.000	-0.128	-0.413
-297.735	-113.861	-0.239	-0.047
-296.720	44.239	-0.168	0.155
-295.705	-121.488	0.215	0.036
-294.691	189.945	-0.106	0.160
-293.676	800.000	0.098	0.365
-292.662	-28.259	0.159	0.093
-291.647	-109.912	0.379	-0.080
-290.632	-107.424	0.173	-0.038
-289.618	330.516	-0.122	-0.236
-288.603	-200.000	0.001	0.035
-287.589	-200.000	-0.112	0.505
-286.574	534.668	0.045	0.109
-285.559	11.754	0.026	0.020
-284.545	-133.528	-0.090	-0.011
-283.530	800.000	0.040	0.153
-282.516	-0.407	-0.409	0.292
-281.501	800.000	-0.097	0.271
-280.486	-131.290	0.258	0.034
-279.472	139.820	-0.120	-0.160
-278.457	-58.179	0.079	-0.035
-277.443	-200.000	-0.007	0.171
-276.428	-200.000	-0.031	0.215
-275.413	330.630	0.180	0.348
-274.399	-14.394	-0.255	-0.165
-273.384	800.000	-0.043	-0.138
-272.370	800.000	0.106	-0.340
-271.355	-200.000	0.038	0.264
-270.340	-200.000	-0.021	-0.149
-269.326	-200.000	0.039	0.238
-268.311	-83.846	-0.119	-0.038
-267.297	99.152	0.134	0.156
-266.282	-200.000	0.005	0.196
-265.267	45.277	0.483	-0.448
-264.253	611.119	-0.071	-0.178
-263.238	-114.497	-0.399	-0.077
-262.224	-50.990	-0.153	0.072
-261.209	-200.000	0.007	-0.121
-260.195	-200.000	-0.047	0.290
-259.180	-76.618	0.172	-0.061
-258.165	-144.028	-0.273	-0.026
-257.151	-200.000	0.039	0.285
-256.136	7.192	-0.044	0.033
-255.122	116.527	0.292	0.360
-254.107	297.923	0.052	0.096
-253.092	800.000	-0.091	0.254
-252.078	-103.174	0.208	-0.049
-251.063	765.425	0.122	-0.335
-250.049	-64.285	-0.214	0.088
-249.034	-27.091	-0.076	-0.045
-248.019	-21.730	-0.195	-0.119
-247.005	26.129	-0.322	0.271
-245.990	-71.708	0.176	0.066
-244.976	-1.239	-0.127	-0.091
-243.961	-61.307	0.212	-0.090
-242.946	-125.475	-0.550	-0.084
-241.932	-200.000	-0.017	-0.226
-240.917	-13.345	-0.258	-0.168
-239.903	-95.619	-0.172	-0.046
-238.888	-200.000	-0.004	-0.116
-237.873	-137.706	0.063	0.007
-236.859	-42.640	0.529	0.271
-235.844	187.904	0.077	0.116
-234.830	203.725	0.254	0.396
-233.815	-21.651	-0.244	0.149
-232.800	-150.802	0.329	0.025
-231.786	391.885	-0.147	-0.307
-230.771	613.036	0.120	-0.301
-229.757	-101.156	0.367	-0.090
-228.742	28.089	0.200	0.170
-227.727	-158.765	-0.164	-0.009
-226.713	-137.059	-0.257	-0.030
-225.698	-79.950	0.344	-0.116
-224.684	79.211	-0.149	0.160
-223.669	-46.067	0.339	0.168
-222.655	100.734	-0.122	-0.143
-221.640	-15.118	-0.202	-0.130
-220.625	-200.000	0.025	-0.571
-219.611	-200.000	0.008	0.084
-218.596	800.000	-0.057	0.164
-217.582	384.886	0.167	0.346
-216.567	-200.000	0.006	-0.413
-215.552	-73.240	-0.184	-0.068
-214.538	1.916	0.176	0.128
-213.523	4.730	0.174	-0.128
-212.509	44.674	-0.124	0.114
-211.494	63.377	0.202	-0.204
-210.479	-200.000	-0.014	0.097
-209.465	129.474	-0.043	0.055
-208.450	128.648	0.086	0.110
-207.436	-88.935	-0.068	0.020
-206.421	263.641	-0.237	-0.414
-205.406	370.012	-0.050	0.102
-204.392	5.180	0.078	0.058
-203.377	-67.335	-0.206	-0.081
-202.363	800.000	-0.075	0.214
-201.348	768.881	0.124	-0.340
-200.333	-200.000	0.010	0.181
-199.319	-140.595	-0.193	0.020
-198.304	-52.907	0.302	-0.140
-197.290	157.229	0.188	-0.261
-196.275	-104.455	-0.288	-0.067
-195.260	-137.772	-0.089	-0.010
-194.246	354.098	-0.094	0.187
-193.231	66.149	0.071	-0.073
-192.217	800.000	-0.044	0.189
-191.202	761.782	0.008	0.021
-190.187	-137.517	-0.336	-0.038
-189.173	42.924	0.170	0.155
-188.158	296.368	-0.016	0.029
-187.144	-1.243	0.206	-0.146
-186.129	-55.046	-0.139	0.063
-185.114	-171.872	-0.155	0.005
-184.100	-115.841	0.132	0.025
-183.085	-200.000	-0.006	-0.206
-182.071	31.666	0.154	-0.133
-181.056	-138.001	0.215	0.024
-180.042	-3.024	-0.094	-0.066
-179.027	314.264	0.097	-0.182
-178.012	27.664	0.213	0.180
-176.998	203.722	-0.008	0.012
-175.983	300.031	-0.162	0.300
-174.969	25.200	0.155	0.129
-173.954	-63.643	-0.218	-0.090
-172.939	140.555	0.069	0.092
-171.925	-152.934	-0.194	0.014
-170.910	74.269	0.141	0.148
-169.896	-172.474	-0.301	-0.010
-168.881	237.878	-0.179	0.298
-167.866	2.265	-0.088	0.064
-166.852	19.839	-0.184	-0.149
-165.837	56.070	-0.048	0.047
-164.823	780.335	0.135	0.369
-163.808	-120.901	0.142	-0.024
-162.793	174.232	-0.072	-0.104
-161.779	26.809	-0.026	-0.022
-160.764	800.000	-0.056	0.194
-159.750	800.000	0.117	0.365
-158.735	-200.000	0.039	-0.294
-157.720	800.000	0.049	0.171
-156.706	-144.803	-0.237	-0.022
-155.691	-167.118	0.064	-0.003
-154.677	-200.000	0.016	0.227
-153.662	-89.454	-0.313	0.092
-152.647	-200.000	0.018	-0.195
-151.633	9.768	0.147	0.111
-150.618	-53.780	0.180	0.082
-149.604	410.975	0.075	-0.160
-148.589	-39.278	-0.177	0.093
-147.574	-102.984	0.238	-0.057
-146.560	624.852	0.063	-0.158
-145.545	800.000	0.072	-0.274
-144.531	-100.342	-0.114	-0.028
-143.516	-84.734	-0.059	0.019
-142.502	-45.305	0.220	-0.110
-141.487	-118.450	-0.116	0.021
-140.472	-44.765	-0.227	0.113
-139.458	8.791	-0.363	0.274
-138.443	210.261	0.124	-0.194
-137.429	-71.577	-0.112	0.042
-136.414	15.779	-0.151	-0.119
-135.399	480.168	0.045	-0.103
-134.385	345.134	0.137	0.270
-133.370	-0.181	-0.107	0.076
-132.356	113.344	-0.139	-0.169
-131.341	15.247	0.175	-0.138
-130.326	71.667	-0.246	0.255
-129.312	736.245	0.110	0.295
-128.297	-200.000	-0.020	-0.199
-127.283	-200.000	-0.001	-0.118
-126.268	-134.750	0.270	0.033
-125.253	-39.311	0.140	-0.074
-124.239	800.000	0.052	0.186
-123.224	-12.899	0.286	0.186
-122.210	-63.119	0.030	-0.012
-121.195	191.736	-0.049	0.074
-120.180	62.325	-0.184	0.184
-119.166	-0.864	0.203	0.144
-118.151	272.720	0.111	-0.196
-117.137	-52.633	-0.178	-0.082
-116.122	-200.000	0.025	0.147
-115.107	-23.711	0.216	0.130
-114.093	261.887	0.110	-0.191
-113.078	-139.846	0.101	-0.011
-112.064	315.194	0.022	-0.041
-111.049	32.360	0.103	0.089
-110.034	-94.028	-0.152	0.042
-109.020	131.813	-0.118	-0.152
-108.005	-125.413	0.067	0.010
-106.991	88.960	-0.135	0.150
-105.976	167.092	-0.134	-0.190
-104.962	-149.322	0.392	0.031
-103.947	235.749	-0.177	0.292
-102.932	-67.671	0.064	0.025
-101.918	800.000	0.110	-0.333
-100.903	-113.098	-0.151	0.030
-99.889	-31.644	-0.484	0.272
-98.874	-200.000	-0.054	0.435
-97.859	-200.000	0.021	0.159
-96.845	-5.215	0.139	-0.096
-95.830	-39.863	0.281	0.147
-94.816	-28.842	-0.095	0.055
-93.801	152.108	0.194	0.265
-92.786	-60.305	0.269	-0.115
-91.772	-155.866	0.253	-0.016
-90.757	-89.123	-0.311	-0.092
-89.743	170.703	0.112	-0.160
-88.728	188.945	-0.077	0.116
-87.713	-200.000	0.034	-0.153
-86.699	488.809	0.186	-0.425
-85.684	-114.864	-0.350	-0.067
-84.670	-0.618	-0.208	-0.147
-83.655	-200.000	-0.083	0.368
-82.640	26.629	0.207	0.173
-81.626	-200.000	-0.081	0.447
-80.611	-200.000	0.016	-0.221
-79.597	-11.834	-0.084	0.055
-78.582	28.179	-0.190	-0.160
-77.567	649.132	-0.125	0.318
-76.553	394.441	0.132	0.275
-75.538	-200.000	0.028	-0.205
-74.524	633.618	-0.118	-0.299
-73.509	-18.328	0.237	0.148
-72.494	-200.000	0.012	0.159
-71.480	-105.026	-0.182	0.042
-70.465	97.201	-0.049	-0.056
-69.451	-200.000	-0.003	-0.044
-68.436	-200.000	0.039	0.210
-67.422	19.884	0.185	0.149
-66.407	-35.432	0.091	-0.049
-65.392	800.000	-0.052	0.174
-64.378	-200.000	0.004	0.185
-63.363	800.000	0.087	-0.299
-62.349	-2.067	-0.292	-0.205
-61.334	-14.590	-0.847	-0.544
-60.319	800.000	0.182	0.617
-59.305	742.309	-0.182	-0.488
-58.290	0.382	0.746	0.532
-57.276	434.732	0.754	1.637
-56.261	-200.000	76.567	523.569
-55.246	543.086	1315.783	3133.823
-54.232	146.203	2548.055	3413.546
-53.217	111.624	2359.094	2841.454
-52.203	49.129	2097.882	1967.663
-51.188	43.893	2004.750	1833.032
-50.173	41.999	1985.760	1798.600
-49.159	55.235	2023.259	1952.553
-48.144	60.110	2043.776	2016.358
-47.130	44.746	2008.501	1843.894
-46.115	41.917	1997.551	1808.245
-45.100	41.809	1994.660	1804.581
-44.086	41.782	1992.372	1802.202
-43.071	41.747	1989.778	1799.466
-42.057	41.709	1987.497	1796.990
-41.042	41.690	1986.283	1795.646
-40.027	41.818	1983.627	1794.330
-39.013	41.729	1981.909	1791.900
-37.998	41.740	1980.124	1790.315
-36.984	41.781	1978.323	1788.979
-35.969	41.859	1976.331	1787.806
-34.954	41.822	1975.088	1786.283
-33.940	41.825	1973.360	1784.679
-32.925	41.773	1972.039	1782.951
-31.911	41.935	1969.949	1782.429
-30.896	41.895	1968.035	1780.271
-29.881	41.953	1966.716	1779.520
-28.867	41.881	1965.439	1777.659
-27.852	41.865	1963.257	1775.473
-26.838	41.982	1961.192	1774.575
-25.823	41.972	1959.269	1772.675
-24.809	41.990	1957.691	1771.332
-23.794	41.877	1956.351	1769.049
-22.779	41.872	1954.820	1767.553
-21.765	41.884	1952.840	1765.798
-20.750	41.834	1951.427	1764.007
-19.736	41.833	1949.748	1762.408
-18.721	41.885	1947.839	1761.072
-17.706	41.823	1946.710	1759.442
-16.692	41.924	1944.094	1757.895
-15.677	41.899	1942.584	1756.240
-14.663	41.892	1941.609	1755.224
-13.648	41.887	1940.256	1753.885
-12.633	41.914	1939.169	1753.069
-11.619	41.822	1938.404	1751.505
-10.604	41.944	1936.113	1750.436
-9.590	41.831	1935.106	1748.463
-8.575	41.858	1933.840	1747.484
-7.560	41.811	1932.615	1745.899
-6.546	41.888	1930.961	1745.012
-5.531	41.801	1930.039	1743.348
-4.517	41.791	1929.115	1742.355
-3.502	41.820	1927.684	1741.244
-2.487	41.823	1926.454	1740.096
-1.473	41.800	1925.210	1738.700
-0.458	41.891	1920.370	1735.050
0.556	40.703	1899.204	1702.218
1.571	35.465	1876.852	1637.497
2.586	30.339	1895.951	1609.702
3.600	28.708	1931.814	1625.583
4.615	27.588	1928.578	1612.812
5.629	20.935	1824.935	1470.092
6.644	8.642	1697.608	1270.360
7.659	1.993	1653.059	1185.381
8.673	1.380	1649.070	1177.670
9.688	1.342	1647.489	1176.140
10.702	1.264	1645.714	1174.162
11.717	1.134	1642.755	1170.946
12.731	1.468	1642.322	1173.109
13.746	8.761	1659.966	1242.348
14.761	19.523	1685.030	1345.313
15.775	24.631	1693.350	1391.726
16.790	25.289	1693.283	1396.669
17.804	25.320	1693.052	1396.599
18.819	25.429	1691.836	1396.315
19.834	25.474	1691.566	1396.319
20.848	25.638	1690.757	1396.808
21.863	25.674	1690.156	1396.464
22.877	25.779	1688.855	1396.077
23.892	25.735	1688.320	1395.171
24.907	25.801	1687.107	1394.554
25.921	25.720	1686.303	1393.143
26.936	25.664	1685.114	1391.606
27.950	25.675	1684.747	1391.266
28.965	25.687	1683.890	1390.527
29.980	25.861	1681.849	1390.059
30.994	25.762	1681.328	1388.745
32.009	25.749	1679.817	1387.271
33.023	25.677	1679.503	1386.331
34.038	25.612	1678.211	1384.640
35.053	25.676	1677.195	1384.177
36.067	25.716	1675.954	1383.332
37.082	25.723	1674.780	1382.296
38.096	25.717	1674.029	1381.512
39.111	25.784	1673.605	1381.549
40.126	25.799	1672.486	1380.623
41.140	25.701	1672.105	1379.435
42.155	25.760	1671.098	1378.932
43.169	25.733	1670.054	1377.739
44.184	25.773	1668.615	1376.739
45.199	25.781	1667.639	1375.876
46.213	25.695	1666.647	1374.279
47.228	25.663	1665.308	1372.805
48.242	25.738	1664.152	1372.303
49.257	25.752	1663.066	1371.394
50.271	25.809	1661.499	1370.412
51.286	25.661	1660.964	1368.725
52.301	25.717	1659.299	1367.656
53.315	25.710	1658.126	1366.519
54.330	25.749	1656.611	1365.444
55.344	25.717	1655.228	1363.939
56.359	25.781	1653.771	1363.107
57.374	25.734	1652.824	1361.844
58.388	25.766	1652.222	1361.468
59.403	25.711	1650.817	1359.775
60.417	25.789	1649.474	1359.143
61.432	25.704	1648.791	1357.812
62.447	25.701	1647.651	1356.733
63.461	25.694	1646.491	1355.608
64.476	25.799	1645.274	1355.274
65.490	25.771	1644.358	1354.190
66.505	25.773	1643.271	1353.191
67.520	25.728	1642.248	1351.889
68.534	25.699	1641.618	1351.034
69.549	25.820	1640.177	1350.633
70.563	25.768	1639.010	1349.163
71.578	25.723	1638.495	1348.283
72.593	25.751	1637.067	1347.200
73.607	25.789	1636.663	1347.030
74.622	25.786	1635.530	1345.959
75.636	25.706	1634.672	1344.538
76.651	25.815	1633.404	1344.188
77.666	25.807	1633.000	1343.680
78.680	25.811	1631.944	1342.720
79.695	25.779	1631.139	1341.701
80.709	25.809	1630.174	1341.008
81.724	25.758	1629.315	1339.802
82.739	25.732	1628.644	1338.938
83.753	25.825	1627.221	1338.341
84.768	25.750	1626.305	1336.915
85.782	25.687	1626.174	1336.220
86.797	25.741	1624.734	1335.319
87.812	25.699	1624.182	1334.441
88.826	25.844	1622.695	1334.170
89.841	25.763	1622.320	1333.144
90.855	25.777	1620.708	1331.804
91.870	25.861	1619.828	1331.587
92.884	25.790	1618.810	1330.107
93.899	25.838	1617.928	1329.621
94.914	25.830	1616.805	1328.518
95.928	25.783	1615.696	1327.142
96.943	25.744	1614.102	1325.428
97.957	25.836	1612.668	1324.814
98.972	25.763	1611.728	1323.383
99.987	25.771	1610.602	1322.407
101.001	25.737	1609.364	1321.022
102.016	25.769	1607.549	1319.650
103.030	25.658	1606.630	1317.962
104.045	25.849	1604.799	1317.746
105.060	25.843	1603.618	1316.614
106.074	25.751	1602.699	1315.070
107.089	25.855	1601.155	1314.448
108.103	25.842	1600.563	1313.745
109.118	25.814	1599.301	1312.389
110.133	25.781	1598.447	1311.334
111.147	25.889	1596.628	1310.511
112.162	25.878	1595.954	1309.761
113.176	25.756	1594.894	1307.894
114.191	25.826	1593.557	1307.190
115.206	25.796	1592.461	1305.953
116.220	25.775	1591.799	1305.147
117.235	25.877	1590.395	1304.618
118.249	25.827	1589.445	1303.356
119.264	25.827	1587.843	1301.929
120.279	25.877	1586.896	1301.401
121.293	25.860	1586.017	1300.439
122.308	25.885	1584.841	1299.539
123.322	25.880	1583.193	1298.043
124.337	25.944	1582.295	1297.646
125.352	25.834	1581.386	1295.997
126.366	25.919	1580.698	1295.931
127.381	25.961	1579.473	1295.112
128.395	26.016	1578.312	1294.439
129.410	25.911	1577.597	1292.987
130.424	25.955	1576.445	1292.247
131.439	25.862	1575.539	1290.721
132.454	25.905	1574.111	1289.742
133.468	25.939	1572.394	1288.470
134.483	25.955	1571.440	1287.682
135.497	25.871	1570.483	1286.187
136.512	25.902	1569.439	1285.438
137.527	25.953	1567.664	1284.237
138.541	25.925	1566.726	1283.157
139.556	25.967	1565.885	1282.648
140.570	26.029	1564.562	1281.896
141.585	26.007	1563.192	1280.505
142.600	25.979	1562.266	1279.434
143.614	25.945	1561.011	1278.048
144.629	26.004	1559.394	1277.029
145.643	25.934	1558.649	1275.813
146.658	25.845	1557.881	1274.439
147.673	25.896	1556.086	1273.221
148.687	25.940	1555.133	1272.637
149.702	25.918	1554.140	1271.560
150.716	25.916	1552.633	1270.196
151.731	25.934	1551.689	1269.438
152.746	25.915	1550.915	1268.562
153.760	25.873	1549.831	1267.267
154.775	25.799	1548.546	1265.581
155.789	25.915	1547.477	1265.415
156.804	25.961	1546.356	1264.704
157.819	25.907	1545.501	1263.518
158.833	25.982	1544.220	1262.884
159.848	25.998	1543.278	1262.117
160.862	25.992	1542.523	1261.340
161.877	26.031	1541.081	1260.326
162.892	25.921	1541.219	1259.553
163.906	25.999	1539.649	1258.705
164.921	25.973	1538.522	1257.493
165.935	26.036	1537.753	1257.190
166.950	25.998	1536.903	1256.119
167.964	26.037	1535.402	1255.053
168.979	25.958	1534.865	1253.951
169.994	26.041	1534.114	1253.811
171.008	26.100	1533.098	1253.273
172.023	26.073	1532.350	1252.368
173.037	25.959	1531.320	1250.622
174.052	26.120	1529.970	1250.522
175.067	26.080	1529.488	1249.741
176.081	26.164	1528.225	1249.178
177.096	26.112	1527.159	1247.841
178.110	26.173	1526.008	1247.212
179.125	26.010	1525.520	1245.574
180.140	26.074	1524.488	1245.067
181.154	26.074	1524.108	1244.646
182.169	26.100	1522.561	1243.451
183.183	26.070	1522.254	1242.883
184.198	26.016	1520.966	1241.347
185.213	26.039	1520.030	1240.632
186.227	26.094	1519.091	1240.134
187.242	26.119	1518.264	1239.520
188.256	26.211	1517.007	1239.015
189.271	26.133	1516.689	1238.114
190.286	26.166	1515.872	1237.561
191.300	26.135	1514.724	1236.307
192.315	26.214	1513.815	1235.992
193.329	26.211	1512.670	1234.928
194.344	26.111	1512.077	1233.654
195.359	26.190	1511.472	1233.592
196.373	26.148	1510.802	1232.647
197.388	26.064	1509.696	1231.064
198.402	26.096	1508.728	1230.382
199.417	26.081	1507.779	1229.397
200.432	26.063	1507.075	1228.593
201.446	26.102	1506.724	1228.461
202.461	26.120	1506.132	1227.995
203.475	26.007	1504.549	1225.823
204.490	26.169	1503.413	1225.893
205.504	26.212	1502.842	1225.607
206.519	26.224	1501.716	1224.664
207.534	26.174	1501.196	1223.791
208.548	26.246	1500.462	1223.570
209.563	26.229	1499.131	1222.262
210.577	26.144	1498.536	1221.098
211.592	26.083	1497.822	1219.997
212.607	26.198	1497.041	1220.028
213.621	26.215	1496.573	1219.654
214.636	26.302	1495.900	1219.585
215.650	26.327	1494.438	1218.455
216.665	26.288	1494.169	1217.860
217.680	26.387	1493.137	1217.582
218.694	26.212	1492.118	1215.465
219.709	26.342	1491.543	1215.761
220.723	26.317	1490.667	1214.772
221.738	26.376	1489.660	1214.238
222.753	26.351	1488.592	1213.094
223.767	26.257	1488.306	1212.127
224.782	26.229	1487.029	1210.789
225.796	26.304	1486.702	1210.916
226.811	26.272	1485.982	1210.012
227.826	26.326	1485.068	1209.517
228.840	26.232	1484.993	1208.721
229.855	26.354	1483.878	1208.525
230.869	26.442	1482.566	1207.939
231.884	26.328	1481.916	1206.536
232.899	26.400	1480.728	1205.942
233.913	26.342	1479.893	1204.771
234.928	26.318	1479.156	1203.903
235.942	26.351	1477.566	1202.726
236.957	26.411	1476.836	1202.422
237.972	26.439	1476.073	1201.881
238.986	26.381	1474.877	1200.415
240.001	26.501	1473.819	1200.246
241.015	26.490	1472.599	1199.075
242.030	26.572	1471.660	1198.747
243.045	26.559	1470.999	1198.015
244.059	26.498	1470.158	1196.820
245.074	26.518	1469.300	1196.145
246.088	26.434	1469.149	1195.364
247.103	26.529	1467.754	1194.749
248.117	26.536	1466.878	1193.978
249.132	26.626	1466.125	1193.853
250.147	26.564	1465.719	1193.006
251.161	26.609	1464.801	1192.449
252.176	26.553	1464.204	1191.491
253.190	26.647	1463.504	1191.432
254.205	26.607	1462.929	1190.596
255.220	26.632	1461.649	1189.616
256.234	26.658	1460.631	1188.850
257.249	26.562	1460.304	1187.848
258.263	26.600	1459.695	1187.498
259.278	26.694	1458.522	1187.055
260.293	26.676	1457.692	1186.158
261.307	26.642	1457.175	1185.408
262.322	26.669	1456.599	1185.013
263.336	26.752	1455.596	1184.633
264.351	26.757	1454.534	1183.699
265.366	26.761	1453.432	1182.724
266.380	26.739	1452.742	1181.912
267.395	26.686	1452.010	1180.863
268.409	26.727	1451.327	1180.475
269.424	26.738	1450.604	1179.855
270.439	26.630	1449.763	1178.364
271.453	26.630	1448.644	1177.350
272.468	26.676	1447.918	1176.955
273.482	26.747	1447.280	1176.788
274.497	26.752	1446.516	1176.100
275.512	26.709	1445.920	1175.231
276.526	26.792	1445.030	1174.942
277.541	26.847	1443.726	1174.131
278.555	26.749	1443.290	1173.041
279.570	26.813	1442.289	1172.534
280.585	26.885	1441.505	1172.260
281.599	26.862	1440.600	1171.272
282.614	26.727	1439.898	1169.726
283.628	26.705	1439.087	1168.819
284.643	26.793	1438.095	1168.481
285.657	26.773	1437.538	1167.793
286.672	26.850	1436.708	1167.512
287.687	26.872	1435.057	1166.207
288.701	26.921	1434.467	1165.944
289.716	26.904	1433.874	1165.248
290.730	26.893	1433.123	1164.463
291.745	27.023	1432.113	1164.373
292.760	26.845	1431.420	1162.568
293.774	26.864	1430.832	1162.109
294.789	26.851	1429.925	1161.183
295.803	26.987	1429.185	1161.353
296.818	26.903	1428.779	1160.382
297.833	26.945	1427.444	1159.462
298.847	26.992	1426.804	1159.143
299.862	26.909	1426.310	1158.104
300.876	27.058	1424.915	1157.822
301.891	26.984	1423.841	1156.377
302.906	27.008	1423.693	1156.309
303.920	26.960	1422.949	1155.295
304.935	26.964	1422.419	1154.787
305.949	26.994	1421.431	1154.073
306.964	27.052	1420.425	1153.521
307.979	27.072	1419.456	1152.761
308.993	27.065	1418.778	1152.063
310.008	27.157	1417.790	1151.741
311.022	27.072	1416.899	1150.379
312.037	27.136	1415.621	1149.643
313.052	27.172	1414.896	1149.181
314.066	27.123	1414.214	1148.218
315.081	27.167	1413.533	1147.842
316.095	27.123	1412.681	1146.765
317.110	27.171	1411.737	1146.205
318.125	27.116	1410.826	1145.017
319.139	27.260	1410.001	1145.151
320.154	27.219	1409.336	1144.252
321.168	27.230	1407.979	1143.118
322.183	27.275	1406.983	1142.493
323.197	27.149	1406.550	1141.246
324.212	27.154	1405.638	1140.435
325.227	27.182	1404.738	1139.780
326.241	27.162	1404.343	1139.234
327.256	27.372	1403.169	1139.495
328.270	27.399	1402.279	1138.841
329.285	27.351	1401.612	1137.900
330.300	27.326	1400.752	1136.943
331.314	27.292	1400.315	1136.273
332.329	27.352	1399.524	1135.911
333.343	27.310	1398.613	1134.808
334.358	27.326	1398.418	1134.646
335.373	27.379	1397.380	1134.036
336.387	27.487	1396.614	1133.983
337.402	27.412	1395.602	1132.600
338.416	27.366	1395.740	1132.323
339.431	27.394	1394.864	1131.689
340.446	27.382	1394.486	1131.202
341.460	27.428	1393.616	1130.683
342.475	27.489	1392.368	1129.950
343.489	27.494	1391.461	1129.145
344.504	27.429	1390.814	1128.119
345.519	27.449	1389.840	1127.350
346.533	27.413	1388.800	1126.184
347.548	27.444	1387.864	1125.518
348.562	27.514	1387.236	1125.341
349.577	27.548	1385.999	1124.449
350.592	27.512	1385.781	1123.953
351.606	27.572	1384.893	1123.500
352.621	27.406	1384.121	1121.751
353.635	27.384	1383.117	1120.703
354.650	27.474	1382.539	1120.689
355.665	27.599	1381.079	1120.173
356.679	27.589	1380.475	1119.525
357.694	27.616	1379.652	1118.922
358.708	27.611	1378.405	1117.782
359.723	27.618	1377.333	1116.856
360.738	27.624	1376.124	1115.817
361.752	27.573	1374.999	1114.494
362.767	27.605	1374.413	1114.116
363.781	27.526	1373.734	1112.982
364.796	27.734	1372.450	1113.116
365.810	27.648	1372.126	1112.230
366.825	27.758	1371.214	1112.061
367.840	27.700	1370.430	1110.974
368.854	27.750	1369.930	1110.774
369.869	27.746	1369.468	1110.275
370.883	27.807	1368.827	1110.029
371.898	27.817	1367.989	1109.311
372.913	27.864	1367.211	1108.867
373.927	27.777	1366.495	1107.660
374.942	27.904	1365.460	1107.496
375.956	27.867	1364.969	1106.774
376.971	27.875	1364.309	1106.191
377.986	27.826	1363.580	1105.203
379.000	27.738	1363.152	1104.226
380.015	27.865	1362.175	1104.105
381.029	27.948	1361.270	1103.776
382.044	27.805	1361.273	1102.814
383.059	27.841	1360.306	1102.153
384.073	27.862	1359.538	1101.563
385.088	27.901	1358.925	1101.200
386.102	27.843	1358.517	1100.422
387.117	27.991	1357.880	1100.701
388.132	27.941	1357.226	1099.770
389.146	27.911	1355.951	1098.461
390.161	27.881	1355.515	1097.831
391.175	27.932	1354.896	1097.538
392.190	27.937	1354.098	1096.827
393.205	28.024	1352.998	1096.361
394.219	28.034	1352.296	1095.751
395.234	28.028	1351.116	1094.666
396.248	28.070	1350.125	1094.016
397.263	28.028	1349.257	1092.966
398.278	28.087	1348.162	1092.334
399.292	28.094	1347.351	1091.620
400.307	28.177	1346.561	1091.377
401.321	28.158	1345.292	1090.139
402.336	28.147	1344.464	1089.311
403.350	28.137	1343.599	1088.455
404.365	28.146	1342.986	1087.912
405.380	28.159	1341.973	1087.076
406.394	28.189	1341.164	1086.500
407.409	28.218	1340.870	1086.338
408.423	28.201	1340.119	1085.534
409.438	28.205	1339.238	1084.744
410.453	28.302	1338.396	1084.541
411.467	28.301	1337.789	1083.951
412.482	28.257	1337.243	1083.153
413.496	28.309	1336.584	1082.829
414.511	28.318	1335.947	1082.270
415.526	28.250	1335.250	1081.207
416.540	28.269	1334.382	1080.521
417.555	28.359	1333.752	1080.445
418.569	28.414	1333.203	1080.231
419.584	28.294	1332.782	1079.088
420.599	28.279	1332.519	1078.688
421.613	79.856	1326.264	1365.446
422.628	80.080	1325.333	1365.582
