DTS Sentinel unit serial number:	SN413079Multiplexer serial number:	ORYXHardware model number:	OX4-SRSoftware version number:	ORYX F/W v4.00 Oryx Data Collector v3.7.2.0data status	okinstallation	princeton_trtdifferential loss correction	single-endedforward channel	channel 4reverse channel	N/Adate	2019/09/11time	10:55:11forward acquisition time	60.00reverse acquisition time	0.00gamma	496.2192k internal	0.2293k external	0.2293temperature offset calibration	0.9968default loss term (dB/km)	0.3790temperature slope calibration	1.0000multiplexer offset coefficient	1.0000multiplexer slope coefficient	1.0000fibre end	0.00T internal ref (°C)	37.06T ext. ref 1 (°C)	0.17T ext. ref 2 (°C)	34.28length (m)	temperature (°C)	Stokes	anti-Stokes-747.200	-29.261	0.177	-0.104
-746.185	-72.732	0.086	0.032
-745.171	40.612	-0.179	0.165
-744.156	-59.868	-0.228	0.100
-743.142	7.948	-0.186	-0.142
-742.127	-44.089	-0.175	0.090
-741.112	209.262	-0.093	0.149
-740.098	143.156	0.047	0.064
-739.083	-39.860	0.258	0.138
-738.069	-200.000	-0.049	0.287
-737.054	-79.197	-0.310	0.108
-736.039	194.234	-0.120	-0.186
-735.025	350.486	0.148	0.300
-734.010	487.846	-0.074	0.172
-732.996	-173.916	-0.311	0.009
-731.981	121.192	0.227	-0.290
-730.966	800.000	0.066	0.201
-729.952	-80.280	-0.509	-0.174
-728.937	800.000	-0.039	0.122
-727.923	-76.920	0.105	-0.038
-726.908	5.365	-0.113	-0.085
-725.894	-111.966	0.250	-0.052
-724.879	90.695	-0.087	-0.100
-723.864	-200.000	-0.012	-0.190
-722.850	-107.589	0.002	-0.001
-721.835	-56.199	-0.203	-0.092
-720.821	-33.653	-0.156	-0.088
-719.806	67.935	0.179	-0.187
-718.791	-132.538	-0.286	-0.038
-717.777	-157.927	-0.270	0.016
-716.762	248.068	-0.052	0.090
-715.748	224.929	0.172	0.284
-714.733	-200.000	-0.007	0.300
-713.718	30.108	-0.113	-0.098
-712.704	106.766	0.243	-0.295
-711.689	10.292	-0.093	-0.072
-710.675	-200.000	0.015	-0.317
-709.660	114.713	-0.159	-0.198
-708.645	-200.000	0.012	-0.269
-707.631	-151.450	0.041	0.003
-706.616	-159.235	-0.108	-0.006
-705.602	-136.292	-0.039	0.005
-704.587	-102.481	0.083	0.020
-703.572	-73.240	0.148	-0.055
-702.558	-200.000	0.036	0.217
-701.543	23.514	0.179	0.151
-700.529	32.814	0.184	0.163
-699.514	-74.502	-0.108	0.040
-698.499	338.426	-0.140	0.278
-697.485	-20.876	-0.248	-0.155
-696.470	143.282	0.225	-0.306
-695.456	800.000	-0.054	0.190
-694.441	58.758	0.218	0.219
-693.426	-133.198	-0.095	0.012
-692.412	-200.000	-0.001	-0.118
-691.397	162.221	0.106	-0.152
-690.383	-125.957	0.136	0.021
-689.368	-93.471	0.329	-0.093
-688.354	800.000	0.052	0.172
-687.339	-200.000	-0.027	0.200
-686.324	157.615	0.152	-0.214
-685.310	-21.122	-0.422	-0.264
-684.295	800.000	-0.035	0.145
-683.281	-178.373	-0.063	-0.001
-682.266	-200.000	-0.053	0.237
-681.251	258.969	0.054	0.095
-680.237	-200.000	0.073	-0.461
-679.222	193.667	-0.115	-0.177
-678.208	-22.833	-0.225	-0.139
-677.193	-46.019	-0.329	-0.165
-676.178	-21.939	-0.114	0.070
-675.164	-133.971	-0.083	-0.011
-674.149	-54.189	-0.106	-0.049
-673.135	89.460	0.077	0.088
-672.120	-126.550	-0.245	-0.037
-671.105	-138.911	-0.309	0.034
-670.091	-200.000	0.007	0.160
-669.076	-73.365	0.186	-0.069
-668.062	-9.721	-0.191	-0.130
-667.047	-200.000	-0.001	-0.026
-666.032	-179.632	-0.216	0.005
-665.018	-200.000	0.032	-0.208
-664.003	234.855	-0.059	0.099
-662.989	498.386	-0.056	0.132
-661.974	-200.000	0.023	-0.200
-660.959	-115.630	-0.140	-0.027
-659.945	-6.949	0.134	0.093
-658.930	-100.895	0.099	0.025
-657.916	-25.856	0.222	0.134
-656.901	38.540	-0.228	-0.207
-655.886	-200.000	-0.021	-0.223
-654.872	-15.568	-0.165	-0.107
-653.857	800.000	0.129	0.426
-652.843	100.218	0.144	0.171
-651.828	264.729	0.029	-0.051
-650.814	-200.000	-0.044	0.279
-649.799	250.398	-0.118	0.205
-648.784	111.788	-0.160	-0.197
-647.770	800.000	-0.060	-0.240
-646.755	-200.000	0.020	0.281
-645.741	-200.000	0.085	0.467
-644.726	591.933	0.120	-0.302
-643.711	800.000	0.069	-0.296
-642.697	70.100	0.140	-0.147
-641.682	-14.818	0.374	-0.245
-640.668	752.598	-0.152	-0.419
-639.653	88.429	-0.147	-0.166
-638.638	-200.000	0.050	-0.271
-637.624	-200.000	0.022	0.137
-636.609	-191.822	0.075	-0.001
-635.595	594.639	-0.122	-0.308
-634.580	-107.779	0.340	-0.075
-633.565	310.753	0.067	-0.127
-632.551	131.046	-0.117	-0.153
-631.536	-200.000	0.005	0.033
-630.522	-200.000	0.033	-0.152
-629.507	-200.000	0.002	-0.316
-628.492	-200.000	-0.011	-0.195
-627.478	-200.000	-0.008	-0.122
-626.463	-107.676	0.160	-0.036
-625.449	288.403	-0.032	-0.060
-624.434	-130.824	-0.236	0.032
-623.419	-51.895	-0.258	0.122
-622.405	-200.000	-0.012	-0.131
-621.390	647.651	-0.120	0.313
-620.376	659.533	-0.086	0.224
-619.361	800.000	-0.117	-0.355
-618.346	-8.548	-0.293	-0.200
-617.332	-51.559	-0.170	-0.081
-616.317	-143.749	-0.385	0.037
-615.303	108.334	0.307	0.373
-614.288	26.371	-0.259	0.220
-613.273	320.647	-0.059	0.114
-612.259	-200.000	0.003	0.019
-611.244	-57.501	-0.350	0.156
-610.230	79.531	0.182	0.198
-609.215	71.448	0.157	0.166
-608.201	41.136	0.225	-0.207
-607.186	-103.894	-0.224	-0.053
-606.171	-200.000	-0.023	-0.389
-605.157	558.708	0.072	-0.177
-604.142	-34.337	-0.337	0.188
-603.128	800.000	0.050	-0.201
-602.113	-22.196	-0.088	-0.054
-601.098	-2.278	-0.102	-0.073
-600.084	69.830	-0.228	-0.239
-599.069	-200.000	0.028	0.133
-598.055	-52.233	-0.239	-0.113
-597.040	348.063	0.045	-0.091
-596.025	-42.589	-0.385	-0.199
-595.011	-200.000	0.066	-0.453
-593.996	48.337	-0.166	0.158
-592.982	-200.000	-0.005	0.276
-591.967	443.482	-0.129	0.287
-590.952	107.390	-0.285	-0.344
-589.938	131.921	0.026	0.034
-588.923	78.310	0.186	0.202
-587.909	301.854	-0.139	-0.260
-586.894	800.000	-0.073	0.229
-585.879	23.649	0.269	-0.225
-584.865	194.980	0.218	-0.337
-583.850	-200.000	0.004	0.122
-582.836	-200.000	0.014	-0.065
-581.821	226.471	-0.108	0.178
-580.806	-12.731	-0.227	0.150
-579.792	-44.165	-0.350	-0.178
-578.777	-96.276	0.123	-0.033
-577.763	644.106	-0.134	0.349
-576.748	-122.088	-0.252	-0.042
-575.733	-42.568	-0.068	-0.035
-574.719	181.031	-0.029	0.043
-573.704	164.269	-0.111	0.158
-572.690	-200.000	-0.020	0.157
-571.675	-145.154	-0.383	-0.035
-570.661	-33.199	0.071	0.040
-569.646	27.742	-0.139	-0.119
-568.631	69.590	0.175	-0.184
-567.617	-200.000	-0.043	0.296
-566.602	-12.549	0.018	0.012
-565.588	-200.000	-0.038	-0.225
-564.573	176.572	0.121	0.179
-563.558	-200.000	0.005	0.176
-562.544	800.000	0.055	0.224
-561.529	-171.215	0.312	-0.011
-560.515	552.454	0.039	-0.095
-559.500	58.492	0.147	0.147
-558.485	-105.092	0.336	0.078
-557.471	109.732	-0.079	-0.096
-556.456	-84.515	-0.356	-0.114
-555.442	-200.000	0.014	0.084
-554.427	-200.000	0.059	0.380
-553.412	-200.000	-0.008	0.153
-552.398	-200.000	0.001	-0.383
-551.383	156.611	0.161	-0.226
-550.369	-119.000	0.304	0.054
-549.354	619.286	0.114	-0.292
-548.339	-200.000	-0.009	-0.153
-547.325	-114.164	-0.264	0.052
-546.310	-20.072	-0.162	0.101
-545.296	-57.450	-0.161	-0.072
-544.281	-32.238	0.303	0.172
-543.266	-190.349	-0.267	0.003
-542.252	146.850	0.140	0.191
-541.237	-16.205	0.210	0.136
-540.223	25.767	0.123	-0.104
-539.208	70.117	0.093	-0.097
-538.193	200.754	-0.082	0.129
-537.179	800.000	0.077	0.215
-536.164	27.240	-0.262	-0.223
-535.150	-44.586	0.299	0.152
-534.135	25.594	0.063	-0.053
-533.121	91.819	-0.179	-0.205
-532.106	132.315	-0.045	0.059
-531.091	-10.621	-0.119	-0.080
-530.077	-200.000	-0.002	-0.245
-529.062	-200.000	-0.028	-0.195
-528.048	800.000	-0.049	-0.170
-527.033	-70.875	0.192	-0.073
-526.018	-123.887	0.414	-0.066
-525.004	146.510	-0.232	0.316
-523.989	247.289	0.140	0.240
-522.975	-74.013	-0.220	-0.081
-521.960	-138.053	-0.160	-0.018
-520.945	109.719	0.110	0.133
-519.931	377.798	0.027	-0.057
-518.916	-125.147	-0.482	-0.075
-517.902	-200.000	-0.018	-0.121
-516.887	800.000	0.015	0.047
-515.872	800.000	0.035	-0.112
-514.858	236.686	0.207	0.348
-513.843	61.415	0.150	-0.151
-512.829	-22.683	0.243	0.149
-511.814	-69.409	0.042	0.016
-510.799	-30.147	0.290	0.167
-509.785	-200.000	0.002	-0.087
-508.770	-180.850	0.151	0.003
-507.756	-138.871	-0.266	-0.029
-506.741	307.880	0.186	-0.352
-505.726	-179.779	-0.276	-0.006
-504.712	-200.000	-0.013	-0.307
-503.697	-106.650	0.194	0.044
-502.683	800.000	0.034	0.112
-501.668	-94.232	0.321	0.089
-500.653	800.000	-0.015	-0.051
-499.639	-200.000	-0.053	-0.262
-498.624	200.555	0.106	-0.166
-497.610	398.385	-0.053	-0.112
-496.595	-200.000	-0.071	-0.323
-495.581	159.003	-0.051	-0.071
-494.566	-200.000	0.051	-0.539
-493.551	-27.812	-0.093	-0.054
-492.537	-54.926	-0.228	0.104
-491.522	-108.540	0.091	0.020
-490.508	634.565	0.102	-0.261
-489.493	-93.671	0.245	-0.068
-488.478	-200.000	0.004	0.342
-487.464	123.059	-0.076	-0.097
-486.449	-200.000	-0.004	0.043
-485.435	800.000	-0.042	0.137
-484.420	-200.000	-0.027	0.240
-483.405	-27.899	-0.088	0.052
-482.391	-160.296	-0.282	0.015
-481.376	421.542	0.090	0.195
-480.362	172.585	-0.244	-0.355
-479.347	-125.583	-0.179	-0.028
-478.332	44.495	0.130	0.121
-477.318	-200.000	0.056	-0.284
-476.303	-200.000	0.020	-0.175
-475.289	-200.000	-0.004	0.135
-474.274	800.000	0.061	0.175
-473.259	-200.000	-0.002	-0.110
-472.245	394.741	0.082	0.172
-471.230	800.000	-0.047	0.189
-470.216	113.045	0.121	0.149
-469.201	123.412	-0.211	0.267
-468.186	194.304	-0.139	0.213
-467.172	-200.000	0.009	-0.068
-466.157	-99.371	0.063	0.016
-465.143	446.220	0.135	-0.301
-464.128	800.000	0.042	0.144
-463.113	118.205	-0.060	0.075
-462.099	-126.687	0.352	0.053
-461.084	-148.921	-0.337	-0.028
-460.070	97.148	-0.257	-0.298
-459.055	-200.000	-0.054	-0.313
-458.040	559.447	0.144	-0.352
-457.026	325.395	0.026	-0.050
-456.011	800.000	0.030	-0.128
-454.997	10.742	-0.146	0.113
-453.982	-123.158	-0.087	0.014
-452.968	800.000	-0.062	0.261
-451.953	190.466	0.224	0.341
-450.938	-200.000	0.004	0.028
-449.924	202.461	0.106	-0.166
-448.909	90.148	0.155	0.175
-447.895	124.880	0.034	0.043
-446.880	239.001	0.267	0.449
-445.865	-138.641	0.082	-0.009
-444.851	-58.810	-0.276	-0.121
-443.836	-86.128	0.132	-0.041
-442.822	-200.000	-0.017	-0.119
-441.807	-200.000	0.043	-0.405
-440.792	-110.052	0.159	-0.034
-439.778	67.675	-0.253	0.262
-438.763	800.000	0.017	-0.059
-437.749	-200.000	-0.005	0.229
-436.734	-44.964	0.195	-0.098
-435.719	421.222	-0.047	-0.103
-434.705	156.555	0.231	0.322
-433.690	285.786	0.105	0.191
-432.676	209.465	0.119	0.189
-431.661	-118.894	0.208	-0.037
-430.646	-158.166	0.141	0.008
-429.632	-77.882	-0.184	-0.064
-428.617	-200.000	-0.048	-0.270
-427.603	56.827	-0.091	-0.089
-426.588	800.000	0.086	-0.256
-425.573	-200.000	-0.065	0.362
-424.559	-200.000	-0.019	-0.500
-423.544	344.891	-0.084	-0.167
-422.530	-144.913	0.190	0.018
-421.515	-147.000	0.558	-0.048
-420.500	-86.267	-0.147	-0.046
-419.486	-92.958	-0.136	0.038
-418.471	-45.703	-0.377	0.188
-417.457	-78.596	0.405	0.140
-416.442	163.123	-0.210	0.298
-415.428	-112.239	-0.319	0.065
-414.413	218.865	-0.119	-0.192
-413.398	800.000	-0.064	0.230
-412.384	681.413	0.071	0.185
-411.369	-113.938	-0.483	0.095
-410.355	220.674	0.159	-0.257
-409.340	-81.288	0.309	0.103
-408.325	-155.469	-0.126	0.008
-407.311	29.552	0.165	0.142
-406.296	-200.000	0.000	0.003
-405.282	212.857	-0.043	0.068
-404.267	-132.828	-0.142	-0.018
-403.252	56.101	0.209	0.205
-402.238	46.675	-0.134	-0.126
-401.223	551.211	-0.049	-0.118
-400.209	113.043	-0.119	0.146
-399.194	-79.161	0.261	0.089
-398.179	147.020	0.077	-0.105
-397.165	-103.239	-0.146	-0.035
-396.150	-107.705	-0.234	0.051
-395.136	-111.843	-0.082	0.017
-394.121	-200.000	0.027	-0.155
-393.106	302.666	-0.181	0.338
-392.092	-60.668	-0.186	0.080
-391.077	132.389	-0.098	-0.127
-390.063	573.063	0.091	-0.223
-389.048	800.000	0.061	0.200
-388.033	153.783	-0.093	0.128
-387.019	-200.000	-0.021	0.105
-386.004	199.455	0.099	0.154
-384.990	351.081	0.133	0.265
-383.975	-73.977	0.181	0.066
-382.960	-93.931	0.311	0.086
-381.946	28.592	0.146	-0.124
-380.931	194.222	0.139	0.212
-379.917	524.066	0.119	0.282
-378.902	345.490	-0.123	-0.244
-377.888	98.253	-0.192	-0.223
-376.873	800.000	-0.015	-0.044
-375.858	-200.000	-0.056	0.381
-374.844	167.394	0.177	-0.254
-373.829	53.273	-0.210	0.203
-372.815	51.629	-0.193	-0.185
-371.800	-200.000	0.017	-0.217
-370.785	44.861	0.169	0.157
-369.771	258.713	-0.143	0.249
-368.756	368.815	-0.043	0.088
-367.742	2.653	-0.219	0.160
-366.727	800.000	0.025	-0.104
-365.712	176.496	-0.065	0.095
-364.698	308.121	-0.106	-0.200
-363.683	800.000	-0.026	-0.116
-362.669	155.588	-0.161	-0.223
-361.654	-72.465	-0.087	-0.032
-360.639	756.791	-0.084	-0.230
-359.625	-200.000	-0.025	-0.220
-358.610	453.118	-0.142	-0.316
-357.596	-134.663	0.195	0.024
-356.581	-167.193	0.084	-0.003
-355.566	354.004	0.187	-0.374
-354.552	686.862	-0.053	-0.138
-353.537	46.298	0.067	-0.063
-352.523	-169.018	-0.106	0.004
-351.508	-200.000	-0.002	-0.081
-350.493	-76.705	-0.114	-0.040
-349.479	13.023	-0.233	0.182
-348.464	-200.000	0.027	0.229
-347.450	-200.000	-0.076	0.471
-346.435	207.427	-0.037	0.058
-345.420	-200.000	-0.025	-0.273
-344.406	29.267	-0.324	-0.278
-343.391	163.963	0.111	0.157
-342.377	-200.000	-0.013	-0.294
-341.362	248.825	-0.028	0.048
-340.348	-74.447	0.465	-0.169
-339.333	-200.000	0.029	-0.302
-338.318	-52.593	-0.106	0.049
-337.304	74.416	0.122	0.129
-336.289	709.762	-0.067	0.180
-335.275	-132.156	0.109	-0.014
-334.260	98.733	-0.247	0.287
-333.245	57.899	-0.041	0.041
-332.231	-172.003	0.486	-0.016
-331.216	168.412	-0.166	0.238
-330.202	-107.794	-0.266	0.058
-329.187	5.183	0.078	0.058
-328.172	-105.485	0.240	0.055
-327.158	266.899	-0.154	0.271
-326.143	105.985	-0.069	-0.082
-325.129	195.765	0.063	0.096
-324.114	-105.107	0.037	-0.009
-323.099	119.120	0.073	0.090
-322.085	-81.596	0.224	0.074
-321.070	-61.166	0.360	0.153
-320.056	366.233	0.136	0.276
-319.041	106.754	0.090	-0.108
-318.026	800.000	0.033	-0.119
-317.012	-58.118	0.172	-0.075
-315.997	473.463	-0.084	-0.190
-314.983	-124.867	0.186	-0.029
-313.968	-72.717	0.032	-0.012
-312.953	106.558	-0.109	-0.130
-311.939	10.199	-0.230	0.176
-310.924	-13.373	0.108	-0.071
-309.910	-128.080	-0.189	0.027
-308.895	-94.407	-0.225	-0.062
-307.880	82.138	0.069	0.075
-306.866	275.139	0.173	-0.308
-305.851	-47.863	0.218	0.106
-304.837	50.141	-0.112	0.106
-303.822	75.258	-0.111	-0.118
-302.807	-81.097	0.163	-0.054
-301.793	17.753	-0.185	-0.148
-300.778	800.000	-0.034	-0.122
-299.764	800.000	-0.032	0.103
-298.749	124.472	-0.206	0.260
-297.735	117.916	0.255	-0.316
-296.720	-200.000	-0.034	0.294
-295.705	-0.487	-0.244	-0.174
-294.691	-200.000	0.010	0.317
-293.676	-59.895	-0.272	0.117
-292.662	-200.000	0.044	-0.259
-291.647	-137.473	0.193	0.022
-290.632	-135.969	-0.343	-0.041
-289.618	267.612	-0.244	0.429
-288.603	-200.000	-0.035	-0.224
-287.589	37.577	0.206	0.183
-286.574	-200.000	-0.047	0.223
-285.559	-200.000	0.074	0.370
-284.545	-200.000	-0.062	0.356
-283.530	-200.000	0.023	0.163
-282.516	-90.854	0.470	0.136
-281.501	-108.083	0.332	0.072
-280.486	-200.000	0.004	0.240
-279.472	-17.580	0.198	0.125
-278.457	-13.897	0.342	0.222
-277.443	-101.884	-0.361	0.088
-276.428	-136.728	0.058	-0.007
-275.413	-42.701	-0.070	-0.036
-274.399	-103.508	0.058	-0.014
-273.384	199.061	0.223	0.343
-272.370	-114.962	-0.125	-0.024
-271.355	-200.000	-0.029	-0.576
-270.340	-200.000	0.075	-0.433
-269.326	-37.795	0.148	0.079
-268.311	-200.000	0.005	-0.165
-267.297	-99.753	-0.392	0.099
-266.282	800.000	0.045	0.175
-265.267	-112.130	0.112	-0.023
-264.253	181.873	-0.046	0.069
-263.238	-111.599	-0.260	0.053
-262.224	108.191	0.066	-0.079
-261.209	260.666	0.009	-0.016
-260.195	219.690	-0.225	-0.362
-259.180	-11.126	0.350	0.232
-258.165	-200.000	-0.031	0.276
-257.151	800.000	-0.067	0.259
-256.136	-113.283	0.213	0.042
-255.122	460.680	-0.138	-0.308
-254.107	45.622	-0.105	-0.098
-253.092	82.450	0.176	0.191
-252.078	800.000	0.055	0.217
-251.063	-93.263	0.148	-0.041
-250.049	-200.000	0.058	-0.436
-249.034	-200.000	-0.033	-0.216
-248.019	440.932	0.016	-0.034
-247.005	-33.352	0.028	-0.016
-245.990	41.357	0.241	0.219
-244.976	144.661	-0.187	0.251
-243.961	-200.000	0.051	-0.227
-242.946	5.431	0.061	0.045
-241.932	30.125	0.252	0.216
-240.917	196.636	0.074	0.113
-239.903	-137.363	-0.285	0.032
-238.888	-78.283	0.156	-0.054
-237.873	-95.362	0.033	0.009
-236.859	-19.242	0.241	0.150
-235.844	-148.802	-0.011	0.001
-234.830	-44.130	-0.250	-0.126
-233.815	-200.000	0.016	0.243
-232.800	-47.702	0.170	0.083
-231.786	-200.000	0.072	-0.360
-230.771	-72.965	-0.253	0.093
-229.757	425.098	0.129	0.279
-228.742	-130.770	0.037	0.005
-227.727	-120.162	-0.295	-0.051
-226.713	-200.000	-0.016	-0.161
-225.698	-8.056	0.213	-0.144
-224.684	-138.901	0.124	-0.013
-223.669	-105.067	0.208	-0.048
-222.655	174.824	0.287	0.416
-221.640	800.000	0.074	0.271
-220.625	-142.173	0.325	-0.032
-219.611	24.782	0.089	-0.074
-218.596	150.097	0.057	-0.077
-217.582	777.801	-0.041	-0.111
-216.567	234.048	-0.232	0.382
-215.552	83.014	0.164	0.179
-214.538	46.545	-0.044	0.041
-213.523	43.109	0.171	-0.156
-212.509	-59.205	-0.104	0.045
-211.494	-200.000	0.024	0.297
-210.479	-39.643	0.042	0.022
-209.465	170.791	0.055	0.080
-208.450	-200.000	-0.099	-0.546
-207.436	-95.518	-0.238	0.064
-206.421	-46.205	0.444	0.219
-205.406	-167.857	-0.390	-0.015
-204.392	-163.328	-0.068	0.003
-203.377	27.505	-0.093	-0.078
-202.363	-200.000	-0.033	0.154
-201.348	-200.000	-0.049	-0.234
-200.333	-200.000	-0.009	-0.254
-199.319	800.000	0.026	-0.108
-198.304	-39.374	0.099	0.052
-197.290	-51.521	0.211	-0.099
-196.275	-72.021	0.218	-0.081
-195.260	-71.368	0.223	0.084
-194.246	-73.582	-0.160	-0.058
-193.231	-69.294	-0.187	0.072
-192.217	-131.055	0.344	-0.046
-191.202	-200.000	-0.010	0.223
-190.187	48.036	0.302	-0.283
-189.173	-154.655	-0.261	0.017
-188.158	800.000	-0.055	-0.229
-187.144	460.452	-0.106	0.236
-186.129	-101.233	0.106	0.026
-185.114	-200.000	-0.015	-0.133
-184.100	-200.000	-0.049	0.219
-183.085	85.705	0.167	-0.184
-182.071	-200.000	0.030	-0.303
-181.056	-123.386	0.207	-0.033
-180.042	800.000	0.036	0.156
-179.027	23.933	0.064	0.053
-178.012	12.792	-0.014	-0.011
-176.998	-70.263	-0.110	0.042
-175.983	108.727	-0.149	0.178
-174.969	12.806	-0.260	-0.201
-173.954	413.443	0.041	-0.088
-172.939	-82.641	-0.305	-0.099
-171.925	151.924	0.237	0.323
-170.910	183.877	-0.050	0.074
-169.896	10.668	0.096	-0.074
-168.881	-132.462	-0.055	-0.007
-167.866	205.965	-0.178	-0.277
-166.852	23.806	0.187	-0.154
-165.837	-132.444	0.137	0.018
-164.823	134.202	0.159	0.206
-163.808	-200.000	-0.013	-0.072
-162.793	-152.635	-0.211	-0.015
-161.779	59.597	-0.180	-0.177
-160.764	31.657	0.122	0.105
-159.750	-200.000	-0.012	0.166
-158.735	-200.000	-0.091	0.421
-157.720	413.244	0.075	-0.159
-156.706	125.880	0.115	-0.145
-155.691	744.905	0.066	0.179
-154.677	-99.465	-0.218	-0.055
-153.662	648.234	-0.016	-0.041
-152.647	-142.907	-0.259	-0.025
-151.633	83.950	-0.103	0.112
-150.618	122.259	-0.126	0.157
-149.604	-200.000	0.007	-0.385
-148.589	-200.000	0.040	0.231
-147.574	-92.132	0.209	0.059
-146.560	-200.000	-0.019	-0.083
-145.545	248.732	0.179	-0.303
-144.531	-200.000	0.088	0.397
-143.516	-200.000	0.001	-0.060
-142.502	101.195	0.130	-0.151
-141.487	800.000	-0.044	0.137
-140.472	104.487	0.048	-0.056
-139.458	-200.000	0.039	0.321
-138.443	206.823	0.187	-0.292
-137.429	-48.282	0.168	0.081
-136.414	-180.500	0.098	-0.002
-135.399	-61.257	-0.241	-0.102
-134.385	127.261	-0.140	0.178
-133.370	14.392	-0.150	0.117
-132.356	-130.761	-0.437	0.059
-131.341	-16.705	0.228	0.144
-130.326	-62.588	0.163	0.068
-129.312	-103.096	-0.240	-0.057
-128.297	800.000	0.071	0.204
-127.283	-22.692	-0.280	-0.169
-126.268	535.287	0.048	0.113
-125.253	-200.000	0.006	-0.227
-124.239	31.171	-0.311	-0.267
-123.224	800.000	-0.040	-0.148
-122.210	520.502	-0.052	0.121
-121.195	107.198	-0.093	0.110
-120.180	-94.556	-0.231	0.063
-119.166	183.568	0.321	0.474
-118.151	-27.979	0.178	0.103
-117.137	35.601	0.107	0.094
-116.122	201.937	0.205	-0.315
-115.107	208.114	0.148	-0.231
-114.093	-103.037	-0.172	0.041
-113.078	-19.960	-0.220	0.136
-112.064	-26.982	-0.353	0.206
-111.049	-108.625	-0.378	-0.081
-110.034	-71.128	0.327	0.122
-109.020	518.171	-0.061	-0.142
-108.005	-50.977	-0.207	0.097
-106.991	800.000	-0.079	0.227
-105.976	274.917	-0.087	-0.154
-104.962	220.521	0.139	0.222
-103.947	39.731	0.008	0.007
-102.932	-143.848	-0.222	0.021
-101.918	-163.230	0.184	0.009
-100.903	24.722	-0.100	-0.082
-99.889	-74.575	0.073	0.026
-98.874	366.890	0.178	-0.358
-97.859	800.000	-0.032	-0.118
-96.845	-141.092	0.097	-0.010
-95.830	172.921	-0.218	0.313
-94.816	-45.748	-0.177	0.087
-93.801	800.000	-0.103	0.393
-92.786	-133.723	0.354	0.044
-91.772	136.212	-0.287	0.373
-90.757	-200.000	0.011	-0.301
-89.743	800.000	0.112	-0.327
-88.728	800.000	-0.065	-0.205
-87.713	-28.631	0.255	0.146
-86.699	800.000	-0.045	-0.153
-85.684	23.075	0.303	0.248
-84.670	345.309	-0.183	0.358
-83.655	-32.977	0.154	-0.085
-82.640	-200.000	-0.005	-0.142
-81.626	562.822	-0.182	0.438
-80.611	330.952	0.080	0.153
-79.597	-22.011	-0.298	0.180
-78.582	800.000	0.097	-0.287
-77.567	-200.000	0.050	-0.344
-76.553	-200.000	-0.032	-0.214
-75.538	800.000	0.006	-0.022
-74.524	34.536	0.109	0.095
-73.509	-71.985	0.380	0.141
-72.494	-17.053	-0.158	-0.099
-71.480	444.537	-0.164	0.358
-70.465	-119.645	0.354	-0.061
-69.451	101.634	-0.136	0.158
-68.436	-71.800	0.115	0.043
-67.422	588.359	0.077	-0.188
-66.407	85.184	-0.109	0.119
-65.392	542.697	0.039	0.093
-64.378	551.693	-0.046	-0.111
-63.363	-143.843	-0.182	-0.017
-62.349	-154.148	-0.272	0.018
-61.334	64.735	-1.015	-1.020
-60.319	-89.075	-0.420	0.124
-59.305	-200.000	-0.013	-0.770
-58.290	200.929	0.437	0.670
-57.276	299.145	0.763	1.399
-56.261	-200.000	86.479	509.866
-55.246	547.385	1381.156	3291.641
-54.232	180.273	2623.666	3831.913
-53.217	109.769	2391.867	2855.728
-52.203	43.431	2130.856	1939.027
-51.188	38.868	2038.449	1812.833
-50.173	37.277	2018.522	1780.475
-49.159	50.236	2062.554	1939.587
-48.144	53.181	2082.714	1985.778
-47.130	39.621	2043.944	1824.409
-46.115	37.179	2032.680	1791.771
-45.100	37.056	2029.978	1788.182
-44.086	36.989	2027.735	1785.518
-43.071	36.991	2024.668	1782.763
-42.057	36.929	2023.108	1780.750
-41.042	36.983	2021.304	1779.588
-40.027	36.970	2019.093	1777.453
-39.013	37.010	2016.957	1775.869
-37.998	37.000	2014.972	1773.960
-36.984	36.998	2013.620	1772.682
-35.969	36.987	2011.988	1771.076
-34.954	37.062	2009.851	1769.806
-33.940	36.997	2008.956	1768.352
-32.925	37.063	2007.021	1767.183
-31.911	37.089	2005.483	1765.991
-30.896	37.139	2003.322	1764.475
-29.881	37.060	2002.207	1762.702
-28.867	37.108	2000.279	1761.371
-27.852	37.151	1997.832	1759.536
-26.838	37.099	1996.399	1757.735
-25.823	37.084	1995.021	1756.317
-24.809	37.100	1992.941	1754.565
-23.794	37.034	1991.129	1752.302
-22.779	37.100	1989.304	1751.219
-21.765	37.074	1988.149	1749.904
-20.750	37.000	1986.076	1747.335
-19.736	37.121	1984.588	1747.054
-18.721	37.060	1983.120	1745.138
-17.706	37.031	1981.506	1743.385
-16.692	37.077	1979.381	1741.867
-15.677	37.029	1978.528	1740.611
-14.663	37.150	1976.499	1739.844
-13.648	37.071	1975.516	1738.202
-12.633	37.058	1974.528	1737.149
-11.619	37.090	1972.650	1735.714
-10.604	37.037	1971.495	1734.152
-9.590	37.087	1970.012	1733.224
-8.575	37.068	1968.492	1731.651
-7.560	37.057	1967.403	1730.522
-6.546	37.178	1965.743	1730.076
-5.531	37.097	1965.105	1728.721
-4.517	37.130	1963.279	1727.338
-3.502	37.068	1962.545	1726.077
-2.487	37.035	1961.588	1724.874
-1.473	37.070	1959.827	1723.562
-0.458	37.233	1955.642	1721.264
0.556	35.503	1936.940	1697.489
1.571	31.901	1918.241	1649.350
2.586	28.278	1942.155	1637.429
3.600	27.276	1979.482	1659.614
4.615	26.369	1975.928	1648.224
5.629	19.347	1867.343	1496.776
6.644	6.957	1737.113	1291.619
7.659	0.820	1694.745	1210.978
8.673	0.287	1690.942	1203.901
9.688	0.168	1689.821	1202.039
10.702	0.161	1687.861	1200.483
11.717	0.065	1684.655	1197.334
12.731	0.337	1683.974	1198.911
13.746	7.614	1702.779	1270.555
14.761	18.464	1727.710	1376.660
15.775	23.021	1735.917	1419.767
16.790	23.405	1735.365	1422.277
17.804	23.493	1734.902	1422.472
18.819	23.487	1734.115	1421.654
19.834	23.673	1733.049	1422.143
20.848	23.826	1732.928	1423.149
21.863	23.931	1731.761	1422.898
22.877	23.782	1730.960	1420.929
23.892	23.880	1729.502	1420.386
24.907	23.917	1728.766	1419.948
25.921	23.966	1727.120	1418.862
26.936	23.851	1726.678	1417.458
27.950	23.914	1725.765	1417.083
28.965	23.856	1725.475	1416.264
29.980	23.911	1723.982	1415.350
30.994	23.937	1722.537	1414.241
32.009	23.864	1721.606	1412.775
33.023	23.845	1720.575	1411.653
34.038	23.874	1719.914	1411.214
35.053	23.921	1718.729	1410.492
36.067	23.874	1717.285	1408.805
37.082	23.917	1716.488	1408.373
38.096	23.850	1715.833	1407.176
39.111	23.891	1714.897	1406.610
40.126	23.881	1714.188	1405.823
41.140	23.948	1713.017	1405.269
42.155	23.896	1711.912	1403.826
43.169	23.977	1710.643	1403.299
44.184	23.982	1709.311	1402.121
45.199	23.945	1708.452	1401.007
46.213	23.837	1707.818	1399.512
47.228	23.852	1706.492	1398.414
48.242	23.917	1705.028	1397.604
49.257	23.859	1704.322	1396.445
50.271	23.914	1702.768	1395.481
51.286	23.880	1701.787	1394.289
52.301	23.933	1700.274	1393.342
53.315	23.862	1698.808	1391.458
54.330	23.883	1697.597	1390.508
55.344	23.839	1696.338	1389.013
56.359	23.959	1694.311	1388.165
57.374	23.824	1693.563	1386.380
58.388	23.829	1692.893	1385.746
59.403	23.898	1691.227	1384.797
60.417	23.885	1690.324	1383.828
61.432	23.873	1689.168	1382.666
62.447	23.876	1688.131	1381.726
63.461	23.890	1686.927	1380.724
64.476	23.915	1686.163	1380.172
65.490	23.899	1685.036	1379.003
66.505	23.951	1683.915	1378.361
67.520	23.950	1683.019	1377.502
68.534	23.951	1682.202	1376.720
69.549	23.960	1680.675	1375.413
70.563	23.905	1679.722	1374.088
71.578	23.972	1678.650	1373.613
72.593	23.954	1677.863	1372.701
73.607	23.908	1676.821	1371.379
74.622	23.935	1675.859	1370.673
75.636	23.875	1675.209	1369.558
76.651	23.923	1674.178	1368.968
77.666	23.917	1672.951	1367.796
78.680	23.982	1672.282	1367.627
79.695	23.882	1672.127	1366.608
80.709	23.970	1670.428	1365.774
81.724	24.020	1669.655	1365.408
82.739	24.018	1668.980	1364.717
83.753	23.864	1668.425	1362.960
84.768	23.886	1667.071	1361.908
85.782	23.962	1666.216	1361.668
86.797	23.967	1665.225	1360.777
87.812	23.905	1664.296	1359.422
88.826	23.986	1662.921	1358.801
89.841	23.946	1661.863	1357.506
90.855	23.916	1661.280	1356.684
91.870	23.927	1659.792	1355.433
92.884	23.934	1658.897	1354.638
93.899	23.960	1657.819	1353.833
94.914	23.876	1656.892	1352.318
95.928	23.984	1655.404	1351.804
96.943	23.933	1654.188	1350.304
97.957	24.002	1653.046	1349.778
98.972	23.932	1651.938	1348.223
99.987	23.914	1650.385	1346.700
101.001	23.879	1649.124	1345.283
102.016	23.978	1647.217	1344.359
103.030	23.888	1646.558	1343.019
104.045	23.911	1644.932	1341.751
105.060	23.934	1643.565	1340.692
106.074	24.000	1642.251	1339.998
107.089	23.973	1641.102	1338.736
108.103	24.008	1640.052	1338.021
109.118	24.013	1638.865	1336.978
110.133	24.062	1637.362	1335.999
111.147	24.019	1636.341	1334.727
112.162	24.037	1635.430	1333.995
113.176	24.051	1633.806	1332.660
114.191	24.042	1632.708	1331.578
115.206	24.050	1631.563	1330.587
116.220	24.038	1631.126	1330.023
117.235	23.964	1629.541	1328.060
118.249	23.910	1628.337	1326.563
119.264	24.046	1626.996	1326.365
120.279	24.014	1625.355	1324.669
121.293	24.032	1624.563	1324.039
122.308	24.077	1623.277	1323.213
123.322	24.101	1621.879	1322.130
124.337	24.046	1621.332	1321.164
125.352	24.026	1620.093	1319.887
126.366	24.107	1618.326	1318.928
127.381	24.095	1618.069	1318.518
128.395	24.030	1617.565	1317.504
129.410	24.037	1616.443	1316.525
130.424	24.134	1614.663	1315.682
131.439	24.088	1613.824	1314.538
132.454	24.071	1612.175	1312.957
133.468	24.019	1611.145	1311.612
134.483	24.049	1609.675	1310.524
135.497	24.076	1608.487	1309.643
136.512	24.121	1606.984	1308.629
137.527	24.005	1606.032	1306.885
138.541	24.137	1604.825	1306.757
139.556	24.141	1603.614	1305.684
140.570	24.080	1602.665	1304.350
141.585	24.086	1601.386	1303.238
142.600	24.021	1600.258	1301.732
143.614	24.118	1598.943	1301.252
144.629	24.094	1597.738	1299.981
145.643	24.123	1596.417	1299.005
146.658	24.148	1595.052	1297.964
147.673	24.073	1593.883	1296.349
148.687	24.042	1592.900	1295.210
149.702	24.014	1591.932	1294.107
150.716	24.058	1590.084	1292.809
151.731	24.075	1589.464	1292.308
152.746	24.095	1588.064	1291.205
153.760	24.038	1587.180	1289.959
154.775	23.996	1586.220	1288.760
155.789	24.090	1585.121	1288.432
156.804	24.163	1583.736	1287.717
157.819	24.150	1582.234	1286.291
158.833	24.091	1581.410	1285.079
159.848	24.053	1580.842	1284.230
160.862	24.139	1580.031	1284.077
161.877	24.140	1578.643	1282.842
162.892	24.171	1578.042	1282.465
163.906	24.123	1576.893	1281.077
164.921	24.204	1575.692	1280.564
165.935	24.151	1575.005	1279.513
166.950	24.179	1574.132	1278.894
167.964	24.107	1573.008	1277.353
168.979	24.123	1572.341	1276.808
169.994	24.295	1570.848	1276.720
171.008	24.165	1569.973	1274.961
172.023	24.169	1569.626	1274.598
173.037	24.238	1568.009	1273.664
174.052	24.141	1567.204	1272.204
175.067	24.179	1566.278	1271.612
176.081	24.237	1565.023	1270.891
177.096	24.170	1563.582	1269.132
178.110	24.289	1562.185	1268.737
179.125	24.223	1562.024	1268.021
180.140	24.213	1560.977	1266.990
181.154	24.257	1560.399	1266.717
182.169	24.174	1559.345	1265.165
183.183	24.086	1558.746	1263.940
184.198	24.191	1557.515	1263.577
185.213	24.321	1556.322	1263.418
186.227	24.278	1555.436	1262.280
187.242	24.335	1554.702	1261.976
188.256	24.265	1554.285	1261.034
189.271	24.337	1552.976	1260.367
190.286	24.390	1552.075	1259.897
191.300	24.248	1551.172	1258.049
192.315	24.286	1550.583	1257.734
193.329	24.353	1549.167	1256.945
194.344	24.188	1548.416	1255.059
195.359	24.232	1547.921	1254.860
196.373	24.349	1546.920	1254.759
197.388	24.302	1546.396	1253.892
198.402	24.253	1545.159	1252.431
199.417	24.263	1543.967	1251.430
200.432	24.256	1543.384	1250.795
201.446	24.229	1542.681	1249.922
202.461	24.254	1541.933	1249.385
203.475	24.301	1540.472	1248.420
204.490	24.287	1539.703	1247.584
205.504	24.256	1539.365	1246.985
206.519	24.287	1537.726	1245.762
207.534	24.327	1537.131	1245.452
208.548	24.358	1536.372	1244.943
209.563	24.385	1535.374	1244.209
210.577	24.278	1534.638	1242.759
211.592	24.352	1533.573	1242.305
212.607	24.305	1533.066	1241.452
213.621	24.356	1532.225	1241.017
214.636	24.488	1531.521	1241.255
215.650	24.469	1530.293	1240.017
216.665	24.420	1529.595	1239.005
217.680	24.405	1529.071	1238.368
218.694	24.387	1528.366	1237.561
219.709	24.447	1527.326	1237.025
220.723	24.407	1526.989	1236.361
221.738	24.412	1525.954	1235.449
222.753	24.448	1524.653	1234.540
223.767	24.375	1523.758	1233.198
224.782	24.361	1522.850	1232.258
225.796	24.411	1522.116	1231.902
226.811	24.462	1521.394	1231.562
227.826	24.470	1521.016	1231.197
228.840	24.474	1520.243	1230.496
229.855	24.533	1519.200	1229.946
230.869	24.439	1518.360	1228.507
231.884	24.443	1517.792	1227.967
232.899	24.496	1516.268	1226.994
233.913	24.476	1514.996	1225.719
234.928	24.533	1513.626	1224.888
235.942	24.528	1512.660	1223.967
236.957	24.670	1511.313	1223.742
237.972	24.615	1510.549	1222.640
238.986	24.544	1509.992	1221.592
240.001	24.583	1508.851	1220.831
241.015	24.528	1508.012	1219.663
242.030	24.621	1507.142	1219.491
243.045	24.744	1505.842	1219.168
244.059	24.651	1505.190	1217.900
245.074	24.661	1504.711	1217.468
246.088	24.610	1504.064	1216.490
247.103	24.709	1502.862	1216.085
248.117	24.749	1501.905	1215.476
249.132	24.666	1501.215	1214.245
250.147	24.706	1500.318	1213.682
251.161	24.684	1500.078	1213.234
252.176	24.767	1499.123	1212.918
253.190	24.774	1498.576	1212.414
254.205	24.726	1497.679	1211.258
255.220	24.847	1496.478	1210.998
256.234	24.890	1495.759	1210.597
257.249	24.769	1495.199	1209.222
258.263	24.798	1494.525	1208.760
259.278	24.719	1494.116	1207.794
260.293	24.863	1492.419	1207.287
261.307	24.813	1491.930	1206.446
262.322	24.846	1491.184	1205.957
263.336	24.866	1490.569	1205.489
264.351	24.757	1489.884	1204.095
265.366	24.923	1488.612	1204.078
266.380	24.818	1487.653	1202.489
267.395	24.853	1486.709	1201.856
268.409	24.876	1486.124	1201.431
269.424	24.843	1485.016	1200.205
270.439	24.816	1484.502	1199.501
271.453	24.779	1483.641	1198.453
272.468	24.811	1482.822	1197.899
273.482	24.936	1481.856	1197.850
274.497	24.854	1480.957	1196.472
275.512	24.865	1480.108	1195.748
276.526	24.879	1479.339	1195.115
277.541	24.989	1478.072	1194.722
278.555	24.907	1477.810	1193.857
279.570	24.990	1476.786	1193.477
280.585	24.972	1475.958	1192.586
281.599	24.960	1475.418	1191.958
282.614	24.957	1474.404	1191.016
283.628	24.925	1473.471	1189.944
284.643	24.971	1472.501	1189.363
285.657	24.939	1471.525	1188.253
286.672	24.935	1471.214	1187.874
287.687	24.931	1469.994	1186.758
288.701	24.930	1468.759	1185.646
289.716	25.005	1468.508	1185.833
290.730	25.019	1467.671	1185.150
291.745	24.984	1466.600	1183.948
292.760	24.961	1466.153	1183.327
293.774	24.992	1465.121	1182.593
294.789	25.005	1463.748	1181.469
295.803	25.061	1463.707	1181.703
296.818	25.126	1462.801	1181.294
297.833	25.101	1461.411	1179.903
298.847	25.129	1460.530	1179.271
299.862	25.121	1459.723	1178.458
300.876	25.180	1458.883	1178.069
301.891	25.064	1458.590	1176.964
302.906	25.189	1457.398	1176.716
303.920	25.235	1456.701	1176.354
304.935	25.185	1456.054	1175.400
305.949	25.257	1455.079	1174.980
306.964	25.084	1454.671	1173.411
307.979	25.170	1453.894	1173.245
308.993	25.251	1452.565	1172.601
310.008	25.302	1451.922	1172.305
311.022	25.207	1450.830	1170.700
312.037	25.226	1449.517	1169.667
313.052	25.299	1448.674	1169.357
314.066	25.273	1448.042	1168.576
315.081	25.220	1447.222	1167.463
316.095	25.288	1446.236	1167.007
317.110	25.268	1445.550	1166.218
318.125	25.318	1444.627	1165.694
319.139	25.278	1444.323	1165.085
320.154	25.187	1443.438	1163.683
321.168	25.264	1442.430	1163.267
322.183	25.288	1441.186	1162.314
323.197	25.299	1440.338	1161.598
324.212	25.319	1439.320	1160.806
325.227	25.280	1438.566	1159.838
326.241	25.370	1437.378	1159.365
327.256	25.377	1436.799	1158.834
328.270	25.406	1436.265	1158.491
329.285	25.375	1435.350	1157.450
330.300	25.407	1434.381	1156.771
331.314	25.459	1433.791	1156.529
332.329	25.469	1432.877	1155.754
333.343	25.430	1432.494	1155.093
334.358	25.525	1431.327	1154.660
335.373	25.534	1430.744	1154.143
336.387	25.560	1429.964	1153.577
337.402	25.586	1429.435	1153.217
338.416	25.451	1429.107	1151.984
339.431	25.623	1428.367	1152.391
340.446	25.544	1428.021	1151.504
341.460	25.554	1426.772	1150.459
342.475	25.566	1426.006	1149.814
343.489	25.670	1424.865	1149.455
344.504	25.634	1423.900	1148.350
345.519	25.543	1423.369	1147.234
346.533	25.636	1421.770	1146.439
347.548	25.651	1421.175	1145.954
348.562	25.788	1420.301	1146.019
349.577	25.675	1420.029	1144.981
350.592	25.622	1419.518	1144.127
351.606	25.632	1418.161	1142.999
352.621	25.577	1416.559	1141.255
353.635	25.604	1415.804	1140.716
354.650	25.633	1415.738	1140.747
355.665	25.632	1414.704	1139.809
356.679	25.683	1413.753	1139.265
357.694	25.720	1412.433	1138.334
358.708	25.709	1411.518	1137.424
359.723	25.821	1410.339	1137.084
360.738	25.828	1409.179	1136.087
361.752	25.630	1408.376	1134.090
362.767	25.720	1407.066	1133.507
363.781	25.666	1406.440	1132.559
364.796	25.735	1405.485	1132.124
365.810	25.806	1405.011	1132.090
366.825	25.901	1404.064	1131.821
367.840	25.881	1403.050	1130.780
368.854	25.809	1402.867	1130.082
369.869	25.844	1402.576	1129.966
370.883	25.883	1401.526	1129.264
371.898	25.942	1400.577	1128.772
372.913	25.903	1399.949	1127.917
373.927	25.987	1398.762	1127.386
374.942	25.868	1398.607	1126.420
375.956	25.973	1397.720	1126.263
376.971	25.940	1397.187	1125.523
377.986	25.850	1396.455	1124.272
379.000	25.977	1395.007	1123.804
380.015	26.014	1394.510	1123.530
381.029	25.930	1394.169	1122.633
382.044	25.959	1393.353	1122.057
383.059	25.908	1392.692	1121.108
384.073	25.921	1392.250	1120.739
385.088	26.166	1391.198	1121.314
386.102	26.121	1390.655	1120.496
387.117	26.118	1389.683	1119.592
388.132	26.137	1389.207	1119.232
389.146	25.982	1388.854	1117.888
390.161	26.034	1388.263	1117.633
391.175	26.144	1387.394	1117.517
392.190	26.165	1386.447	1116.786
393.205	26.135	1385.723	1115.915
394.219	26.130	1384.964	1115.177
395.234	26.071	1383.866	1113.832
396.248	26.078	1382.694	1112.827
397.263	26.258	1381.600	1112.962
398.278	26.248	1380.267	1111.727
399.292	26.247	1379.566	1111.058
400.307	26.179	1378.813	1109.936
401.321	26.202	1377.940	1109.276
402.336	26.239	1376.855	1108.532
403.350	26.224	1376.007	1107.658
404.365	26.195	1374.853	1106.453
405.380	26.207	1374.115	1105.834
406.394	26.256	1373.143	1105.251
407.409	26.334	1372.370	1105.013
408.423	26.342	1371.787	1104.493
409.438	26.352	1371.358	1104.112
410.453	26.379	1370.705	1103.651
411.467	26.353	1369.702	1102.589
412.482	26.444	1369.015	1102.491
413.496	26.423	1368.544	1101.886
414.511	26.476	1367.814	1101.526
415.526	26.421	1367.029	1100.459
416.540	26.419	1366.232	1099.709
417.555	26.472	1365.713	1099.518
418.569	26.403	1365.234	1098.613
419.584	26.448	1364.558	1098.243
420.599	26.430	1364.084	1097.655
421.613	133.490	1433.998	1784.549
422.628	131.200	1444.156	1784.653
