DTS Sentinel unit serial number:	SN413079Multiplexer serial number:	ORYXHardware model number:	OX4-SRSoftware version number:	ORYX F/W v4.00 Oryx Data Collector v3.7.2.0data status	okinstallation	princeton_trtdifferential loss correction	single-endedforward channel	channel 4reverse channel	N/Adate	2019/09/10time	17:03:11forward acquisition time	60.00reverse acquisition time	0.00gamma	496.2192k internal	0.2296k external	0.2296temperature offset calibration	0.9939default loss term (dB/km)	0.3790temperature slope calibration	1.0000multiplexer offset coefficient	1.0000multiplexer slope coefficient	1.0000fibre end	0.00T internal ref (°C)	37.62T ext. ref 1 (°C)	-0.33T ext. ref 2 (°C)	31.95length (m)	temperature (°C)	Stokes	anti-Stokes-747.200	118.589	0.106	-0.134
-746.185	800.000	0.021	0.083
-745.171	-5.014	-0.350	-0.246
-744.156	-187.409	-0.233	0.003
-743.142	214.840	0.079	0.128
-742.127	9.926	0.169	-0.131
-741.112	-124.976	0.092	0.014
-740.098	800.000	0.051	0.224
-739.083	-170.937	-0.167	-0.006
-738.069	88.349	0.087	-0.099
-737.054	-107.998	-0.198	0.044
-736.039	-39.210	-0.163	-0.088
-735.025	-69.404	-0.313	-0.123
-734.010	254.117	0.059	-0.104
-732.996	335.314	0.121	-0.240
-731.981	-132.742	0.015	-0.002
-730.966	658.584	-0.213	-0.561
-729.952	-49.606	-0.226	-0.110
-728.937	-112.908	-0.385	0.078
-727.923	-64.297	-0.224	0.093
-726.908	-71.384	-0.155	0.059
-725.894	-200.000	-0.017	0.222
-724.879	-159.150	-0.262	0.015
-723.864	800.000	0.016	-0.059
-722.850	-193.617	0.175	-0.002
-721.835	343.548	0.064	0.129
-720.821	-18.632	0.097	-0.062
-719.806	-128.053	-0.340	-0.050
-718.791	139.899	0.101	-0.136
-717.777	-123.307	-0.409	-0.067
-716.762	593.428	0.030	0.075
-715.748	-113.121	-0.148	0.030
-714.733	20.459	-0.064	0.053
-713.718	-120.002	0.253	-0.044
-712.704	-55.158	-0.176	-0.081
-711.689	-200.000	-0.028	-0.399
-710.675	-200.000	-0.025	-0.233
-709.660	-65.227	0.092	0.038
-708.645	-24.485	0.123	-0.075
-707.631	-7.366	-0.258	-0.178
-706.616	777.080	-0.130	0.361
-705.602	173.636	0.160	0.235
-704.587	-200.000	0.023	-0.151
-703.572	-104.986	-0.071	-0.017
-702.558	125.336	0.185	-0.239
-701.543	211.235	0.048	-0.077
-700.529	422.315	0.196	0.429
-699.514	-169.399	0.303	0.011
-698.499	-114.365	-0.199	-0.039
-697.485	65.411	-0.187	0.193
-696.470	220.203	-0.116	0.190
-695.456	43.357	0.158	-0.147
-694.441	-13.334	0.169	0.112
-693.426	29.724	-0.365	-0.317
-692.412	800.000	-0.165	-0.472
-691.397	-34.945	-0.140	-0.078
-690.383	137.161	0.056	-0.074
-689.368	40.968	0.115	0.106
-688.354	-101.248	0.109	0.027
-687.339	361.746	0.097	-0.198
-686.324	59.909	-0.124	0.125
-685.310	11.327	-0.056	-0.044
-684.295	-78.635	-0.187	0.065
-683.281	-200.000	0.019	-0.143
-682.266	55.358	-0.418	-0.412
-681.251	32.450	-0.275	-0.242
-680.237	42.984	-0.148	-0.138
-679.222	576.655	0.034	0.085
-678.208	259.347	-0.052	-0.092
-677.193	-14.958	0.233	-0.152
-676.178	253.002	-0.148	-0.258
-675.164	21.034	0.178	-0.147
-674.149	-200.000	0.000	-0.057
-673.135	-46.733	0.153	-0.076
-672.120	-200.000	0.009	0.091
-671.105	-200.000	-0.028	0.125
-670.091	-200.000	-0.047	0.211
-669.076	-200.000	0.033	0.170
-668.062	263.346	-0.034	-0.060
-667.047	229.910	0.129	0.215
-666.032	179.394	0.187	-0.279
-665.018	183.315	0.236	0.356
-664.003	311.562	-0.035	-0.067
-662.989	186.495	-0.152	-0.231
-661.974	-21.569	0.234	0.145
-660.959	800.000	-0.040	-0.119
-659.945	-200.000	0.017	-0.088
-658.930	800.000	-0.088	0.274
-657.916	215.277	-0.157	0.254
-656.901	-200.000	0.038	-0.319
-655.886	343.012	-0.186	0.371
-654.872	684.048	-0.170	-0.451
-653.857	-37.736	-0.165	-0.089
-652.843	-28.029	0.110	0.065
-651.828	-200.000	0.015	-0.070
-650.814	-162.622	0.150	0.007
-649.799	-73.090	0.348	-0.130
-648.784	110.846	-0.135	-0.166
-647.770	-200.000	0.044	-0.301
-646.755	-84.072	-0.166	-0.054
-645.741	-51.798	0.171	0.081
-644.726	72.305	-0.246	-0.261
-643.711	800.000	0.021	0.091
-642.697	15.628	0.189	-0.151
-641.682	37.727	0.174	0.157
-640.668	-200.000	-0.046	-0.341
-639.653	-106.534	0.047	-0.011
-638.638	595.103	0.126	0.317
-637.624	-171.724	-0.210	-0.007
-636.609	-129.090	0.256	0.036
-635.595	800.000	0.039	-0.174
-634.580	-109.167	-0.230	-0.050
-633.565	-200.000	-0.063	-0.344
-632.551	-83.567	0.146	0.048
-631.536	149.168	-0.198	-0.273
-630.522	451.267	-0.091	0.206
-629.507	-97.245	-0.445	0.118
-628.492	-75.416	-0.420	-0.152
-627.478	-79.731	0.063	0.021
-626.463	-163.582	0.282	-0.014
-625.449	36.055	-0.205	-0.184
-624.434	517.493	-0.107	0.254
-623.419	-188.241	-0.364	0.005
-622.405	481.181	-0.070	-0.163
-621.390	-200.000	0.002	-0.088
-620.376	449.784	-0.169	0.379
-619.361	-82.001	0.200	0.067
-618.346	-77.129	-0.127	-0.045
-617.332	-36.716	-0.302	-0.165
-616.317	-159.253	-0.185	-0.011
-615.303	83.718	-0.036	-0.040
-614.288	219.457	-0.019	-0.031
-613.273	800.000	0.065	0.241
-612.259	-200.000	-0.019	-0.380
-611.244	421.592	-0.096	-0.210
-610.230	-200.000	-0.012	0.234
-609.215	-200.000	0.017	0.397
-608.201	-10.031	0.118	0.080
-607.186	-97.973	-0.339	0.089
-606.171	-118.134	-0.143	-0.026
-605.157	-88.059	0.348	0.106
-604.142	-200.000	-0.022	0.355
-603.128	-41.609	-0.510	-0.267
-602.113	-162.336	0.092	-0.005
-601.098	109.501	-0.232	0.282
-600.084	242.823	0.064	-0.110
-599.069	-144.415	0.306	0.029
-598.055	327.383	0.074	0.144
-597.040	251.089	-0.283	-0.490
-596.025	67.133	-0.019	0.020
-595.011	-200.000	-0.023	0.139
-593.996	66.998	0.196	-0.203
-592.982	-200.000	0.019	0.435
-591.967	-25.958	-0.047	0.028
-590.952	434.688	-0.087	-0.191
-589.938	-81.150	0.149	-0.050
-588.923	-10.042	-0.085	0.057
-587.909	-22.102	-0.104	-0.064
-586.894	-97.317	0.429	0.114
-585.879	65.008	-0.117	-0.120
-584.865	-99.931	-0.435	0.110
-583.850	-29.249	-0.361	-0.210
-582.836	191.141	-0.160	0.245
-581.821	352.035	0.105	0.211
-580.806	-84.610	0.094	0.030
-579.792	-200.000	-0.027	-0.169
-578.777	298.692	0.081	0.151
-577.763	45.676	0.153	-0.143
-576.748	-52.973	-0.299	0.140
-575.733	800.000	-0.069	-0.256
-574.719	-48.201	0.132	0.065
-573.704	66.536	0.214	-0.220
-572.690	800.000	0.061	-0.232
-571.675	1.289	0.231	0.168
-570.661	-84.469	-0.294	0.094
-569.646	-69.117	-0.212	0.083
-568.631	-85.393	0.138	0.044
-567.617	101.482	-0.177	-0.209
-566.602	-128.704	-0.175	-0.025
-565.588	596.740	0.085	-0.214
-564.573	377.376	-0.131	0.271
-563.558	40.310	-0.253	0.231
-562.544	705.800	-0.053	-0.143
-561.529	-32.083	0.106	0.060
-560.515	273.759	0.061	0.110
-559.500	68.316	0.081	0.084
-558.485	-65.732	0.112	0.045
-557.471	510.187	-0.129	0.303
-556.456	-80.033	0.089	-0.030
-555.442	800.000	-0.071	0.231
-554.427	-200.000	0.012	0.103
-553.412	-157.994	-0.425	-0.025
-552.398	337.733	0.033	-0.066
-551.383	-191.554	0.344	0.003
-550.369	-79.732	-0.220	-0.075
-549.354	800.000	-0.022	-0.088
-548.339	35.211	0.098	0.087
-547.325	-79.896	-0.240	0.082
-546.310	-200.000	-0.002	-0.096
-545.296	223.189	0.227	0.372
-544.281	800.000	0.032	-0.098
-543.266	-114.957	0.397	-0.077
-542.252	118.106	-0.168	-0.209
-541.237	-131.453	-0.247	-0.033
-540.223	-10.455	-0.301	0.202
-539.208	483.041	0.178	-0.410
-538.193	800.000	0.085	0.351
-537.179	494.472	-0.105	0.245
-536.164	-200.000	0.001	0.013
-535.150	-159.605	0.281	-0.016
-534.135	-95.400	-0.025	0.007
-533.121	-200.000	0.002	-0.031
-532.106	-38.590	0.283	-0.152
-531.091	-137.989	0.393	0.044
-530.077	-200.000	-0.019	-0.109
-529.062	273.104	-0.140	0.251
-528.048	-200.000	-0.027	0.181
-527.033	111.985	-0.061	0.075
-526.018	-104.439	-0.182	-0.043
-525.004	-46.183	-0.178	-0.089
-523.989	173.626	0.073	0.107
-522.975	-12.033	-0.175	0.116
-521.960	20.057	0.198	-0.162
-520.945	-51.902	0.204	-0.096
-519.931	-200.000	-0.003	-0.515
-518.916	88.135	0.223	0.251
-517.902	800.000	0.110	-0.312
-516.887	-18.989	0.334	-0.210
-515.872	-30.176	-0.139	0.080
-514.858	-83.180	0.067	0.022
-513.843	800.000	-0.069	0.231
-512.829	-81.349	0.310	-0.103
-511.814	209.928	-0.172	0.274
-510.799	396.671	-0.083	0.176
-509.785	800.000	-0.078	-0.266
-508.770	-200.000	-0.028	-0.465
-507.756	-200.000	0.034	-0.215
-506.741	-156.931	0.276	0.017
-505.726	-83.180	-0.138	0.045
-504.712	318.998	0.113	0.216
-503.697	98.802	-0.215	0.252
-502.683	-200.000	-0.019	-0.262
-501.668	-200.000	0.007	-0.201
-500.653	-168.963	-0.338	-0.013
-499.639	-78.069	-0.089	0.031
-498.624	-200.000	-0.001	0.073
-497.610	-74.357	-0.345	0.126
-496.595	210.843	0.237	0.378
-495.581	9.629	0.101	0.077
-494.566	673.753	-0.057	-0.150
-493.551	80.310	0.198	-0.215
-492.537	-121.237	0.223	0.038
-491.522	-200.000	0.028	0.144
-490.508	-23.947	-0.246	-0.149
-489.493	197.868	0.236	0.365
-488.478	-38.435	-0.179	0.096
-487.464	-200.000	0.038	-0.200
-486.449	123.300	0.062	0.078
-485.435	328.652	0.037	-0.072
-484.420	-100.507	0.295	0.074
-483.405	-50.173	0.251	-0.120
-482.391	-70.560	-0.047	-0.018
-481.376	125.509	-0.149	0.190
-480.362	148.834	0.086	0.118
-479.347	158.448	-0.137	-0.192
-478.332	-200.000	-0.117	-0.000
-477.318	32.382	0.267	-0.233
-476.303	800.000	0.102	0.325
-475.289	-80.332	-0.119	-0.040
-474.274	-116.031	0.149	-0.028
-473.259	-200.000	0.053	-0.254
-472.245	-45.203	0.403	0.202
-471.230	21.672	-0.123	0.101
-470.216	-114.455	-0.167	0.033
-469.201	-200.000	0.018	-0.146
-468.186	207.204	-0.180	0.284
-467.172	-200.000	-0.068	0.478
-466.157	104.800	0.347	-0.413
-465.143	-96.120	-0.129	-0.035
-464.128	-100.156	0.213	-0.054
-463.113	800.000	0.122	0.414
-462.099	-117.556	0.256	0.047
-461.084	0.431	-0.164	0.118
-460.070	409.462	-0.012	-0.026
-459.055	-49.913	0.118	-0.057
-458.040	49.782	0.202	-0.192
-457.026	800.000	-0.015	-0.055
-456.011	-1.708	-0.286	-0.204
-454.997	12.274	0.136	-0.106
-453.982	-106.728	-0.165	0.037
-452.968	800.000	-0.064	-0.204
-451.953	-124.505	-0.207	0.033
-450.938	-200.000	0.035	-0.225
-449.924	-22.141	-0.379	-0.232
-448.909	-10.570	-0.078	0.052
-447.895	-200.000	0.005	-0.256
-446.880	-65.690	-0.424	0.172
-445.865	177.088	0.180	-0.264
-444.851	58.110	-0.234	-0.232
-443.836	440.341	-0.172	-0.379
-442.822	-39.912	-0.359	-0.189
-441.807	353.818	-0.124	0.249
-440.792	24.489	0.073	0.061
-439.778	13.760	-0.201	-0.158
-438.763	88.193	0.084	0.094
-437.749	241.761	-0.050	-0.085
-436.734	-200.000	0.025	0.255
-435.719	9.801	0.176	0.135
-434.705	-46.921	0.221	-0.109
-433.690	85.819	-0.107	0.119
-432.676	-24.517	0.094	-0.057
-431.661	44.616	0.442	-0.411
-430.646	-92.554	-0.426	0.121
-429.632	-139.578	0.225	0.024
-428.617	279.182	-0.061	0.110
-427.603	390.063	0.181	0.379
-426.588	-200.000	0.028	0.486
-425.573	-200.000	-0.007	-0.118
-424.559	-200.000	0.025	0.441
-423.544	-75.152	-0.271	-0.098
-422.530	135.157	-0.059	0.078
-421.515	82.055	-0.330	-0.361
-420.500	56.380	0.240	-0.235
-419.486	-193.200	-0.391	0.003
-418.471	397.381	0.091	-0.191
-417.457	800.000	-0.112	0.322
-416.442	-200.000	-0.008	-0.038
-415.428	-133.155	0.189	0.024
-414.413	236.261	0.127	-0.212
-413.398	-200.000	0.040	0.198
-412.384	-200.000	0.043	0.217
-411.369	-43.889	-0.257	-0.130
-410.355	135.181	0.140	-0.184
-409.340	-200.000	-0.010	-0.054
-408.325	-79.226	-0.217	0.074
-407.311	43.875	-0.127	-0.118
-406.296	140.968	0.058	-0.078
-405.282	155.885	0.116	-0.161
-404.267	277.865	-0.010	-0.019
-403.252	-100.846	-0.188	0.047
-402.238	-200.000	0.038	-0.230
-401.223	-15.313	-0.150	0.097
-400.209	-108.594	-0.271	-0.059
-399.194	79.079	0.207	-0.223
-398.179	-28.437	0.210	-0.122
-397.165	-200.000	0.014	0.062
-396.150	708.823	0.116	0.308
-395.136	297.509	-0.152	0.282
-394.121	-115.729	0.212	0.040
-393.106	331.973	-0.194	-0.377
-392.092	95.312	0.095	-0.109
-391.077	631.817	-0.096	0.246
-390.063	23.701	0.270	0.224
-389.048	-200.000	0.055	0.438
-388.033	-200.000	0.008	0.244
-387.019	-160.903	-0.063	-0.003
-386.004	-98.719	0.411	-0.106
-384.990	-117.974	-0.216	-0.039
-383.975	28.571	0.205	0.174
-382.960	-101.682	0.187	-0.046
-381.946	-9.357	-0.207	-0.139
-380.931	-200.000	-0.033	0.240
-379.917	228.745	-0.045	0.073
-378.902	258.330	-0.095	0.166
-377.888	297.213	-0.110	0.204
-376.873	-134.483	-0.265	-0.033
-375.858	-87.533	-0.282	0.086
-374.844	-200.000	0.007	0.151
-373.829	675.554	-0.060	-0.157
-372.815	67.523	-0.112	-0.115
-371.800	-154.756	-0.277	0.018
-370.785	-200.000	0.006	-0.175
-369.771	226.191	0.182	0.298
-368.756	-150.330	0.207	0.016
-367.742	120.312	0.133	0.166
-366.727	444.222	0.072	-0.160
-365.712	-4.356	-0.120	-0.084
-364.698	-200.000	-0.034	0.314
-363.683	-24.884	-0.135	-0.081
-362.669	241.887	0.293	-0.494
-361.654	-200.000	-0.077	0.396
-360.639	800.000	-0.022	-0.088
-359.625	-163.478	0.116	-0.006
-358.610	-117.068	-0.131	-0.024
-357.596	-200.000	-0.002	-0.408
-356.581	328.927	-0.153	-0.295
-355.566	340.513	0.075	0.147
-354.552	800.000	0.100	-0.292
-353.537	113.528	0.164	-0.200
-352.523	2.450	0.099	0.072
-351.508	9.459	0.185	0.141
-350.493	-8.948	0.310	0.209
-349.479	-18.149	-0.411	-0.259
-348.464	490.833	-0.021	0.049
-347.450	-93.938	0.163	-0.045
-346.435	-200.000	0.018	-0.399
-345.420	-168.887	-0.167	0.006
-344.406	602.155	0.076	0.191
-343.391	456.039	-0.088	0.197
-342.377	368.461	-0.067	-0.137
-341.362	639.895	0.049	-0.125
-340.348	337.048	0.084	-0.163
-339.333	105.307	0.249	-0.296
-338.318	24.972	0.234	0.195
-337.304	136.292	0.171	-0.225
-336.289	1.034	-0.197	0.142
-335.275	208.097	-0.033	0.052
-334.260	-45.958	0.211	-0.105
-333.245	800.000	-0.039	0.112
-332.231	-61.491	0.238	0.101
-331.216	-200.000	0.040	-0.305
-330.202	-25.689	0.102	0.060
-329.187	372.158	0.029	0.059
-328.172	337.572	0.121	-0.236
-327.158	13.109	0.386	-0.301
-326.143	440.684	-0.173	0.381
-325.129	241.168	-0.046	0.077
-324.114	-59.741	0.119	0.051
-323.099	186.576	-0.064	-0.095
-322.085	-200.000	-0.010	0.231
-321.070	157.138	-0.274	0.381
-320.056	665.929	-0.093	0.242
-319.041	-65.922	0.347	-0.139
-318.026	-96.350	-0.259	0.069
-317.012	-118.867	0.034	-0.006
-315.997	169.783	-0.263	0.378
-314.983	-200.000	-0.017	0.340
-313.968	-189.710	-0.367	-0.004
-312.953	800.000	-0.042	0.157
-311.939	27.594	-0.076	-0.065
-310.924	-4.751	-0.128	0.089
-309.910	-17.040	-0.144	-0.091
-308.895	-200.000	0.039	-0.193
-307.880	800.000	0.078	0.277
-306.866	15.374	-0.221	-0.174
-305.851	800.000	0.064	0.217
-304.837	64.946	0.279	-0.283
-303.822	77.508	0.065	-0.070
-302.807	-200.000	0.024	-0.122
-301.793	-98.829	0.209	-0.053
-300.778	-200.000	-0.011	0.209
-299.764	-200.000	-0.035	-0.171
-298.749	-114.422	0.197	0.038
-297.735	186.167	-0.145	-0.217
-296.720	-193.989	0.243	0.002
-295.705	398.223	-0.133	0.279
-294.691	284.111	-0.041	-0.075
-293.676	-136.844	-0.189	0.022
-292.662	677.679	0.063	-0.163
-291.647	389.744	-0.111	-0.230
-290.632	80.776	0.074	-0.080
-289.618	800.000	-0.149	-0.425
-288.603	-126.871	-0.293	-0.043
-287.589	-200.000	-0.059	0.320
-286.574	-26.591	0.186	0.109
-285.559	-120.610	0.182	-0.031
-284.545	800.000	0.019	0.062
-283.530	65.259	-0.174	0.177
-282.516	-200.000	0.030	0.161
-281.501	-200.000	0.035	-0.259
-280.486	56.427	0.290	0.283
-279.472	263.462	-0.127	-0.221
-278.457	-6.928	0.181	-0.123
-277.443	41.830	0.259	-0.236
-276.428	137.248	-0.113	-0.149
-275.413	-97.732	0.099	0.026
-274.399	127.472	0.234	0.298
-273.384	210.084	-0.191	0.301
-272.370	800.000	0.078	-0.319
-271.355	8.017	0.380	0.286
-270.340	-200.000	-0.009	0.352
-269.326	800.000	0.120	0.464
-268.311	297.855	0.135	-0.250
-267.297	47.076	-0.216	0.202
-266.282	-200.000	0.406	-0.002
-265.267	-200.000	-0.023	0.224
-264.253	-25.826	0.188	0.111
-263.238	314.068	0.184	0.348
-262.224	-200.000	0.019	0.112
-261.209	-187.872	-0.131	0.002
-260.195	253.259	0.093	-0.159
-259.180	-200.000	-0.016	0.131
-258.165	66.797	0.154	0.157
-257.151	-113.283	-0.048	-0.010
-256.136	82.249	0.032	-0.035
-255.122	221.362	0.123	-0.198
-254.107	-28.748	0.111	0.064
-253.092	-200.000	0.010	-0.323
-252.078	-48.772	-0.048	-0.023
-251.063	34.224	-0.187	0.163
-250.049	-83.976	-0.346	-0.110
-249.034	143.721	-0.156	-0.208
-248.019	-83.844	0.212	0.068
-247.005	23.251	0.193	-0.159
-245.990	-54.311	0.198	-0.090
-244.976	-182.955	0.161	-0.003
-243.961	72.150	0.092	-0.096
-242.946	77.884	0.168	-0.180
-241.932	16.125	-0.064	0.050
-240.917	-57.216	0.482	0.212
-239.903	-168.789	-0.265	0.010
-238.888	9.843	-0.288	-0.219
-237.873	312.574	0.265	0.499
-236.859	-25.279	0.154	0.091
-235.844	-200.000	0.021	-0.125
-234.830	-191.966	-0.373	-0.004
-233.815	-78.560	0.273	0.094
-232.800	-200.000	-0.017	0.090
-231.786	-31.671	-0.158	0.089
-230.771	166.418	0.218	0.309
-229.757	-29.201	0.108	-0.062
-228.742	78.535	-0.165	0.177
-227.727	-84.391	0.259	-0.082
-226.713	-142.929	-0.236	0.023
-225.698	201.114	0.052	0.080
-224.684	-158.366	-0.029	-0.002
-223.669	230.020	0.090	0.148
-222.655	-200.000	0.030	0.332
-221.640	246.174	-0.109	-0.184
-220.625	-53.040	0.120	0.055
-219.611	800.000	-0.071	0.309
-218.596	253.677	0.056	-0.095
-217.582	6.626	0.225	-0.168
-216.567	-167.184	-0.217	0.009
-215.552	21.378	-0.025	0.020
-214.538	-6.101	-0.155	-0.106
-213.523	118.695	0.129	-0.159
-212.509	-200.000	-0.025	0.134
-211.494	-21.261	-0.240	-0.147
-210.479	-76.610	0.287	0.101
-209.465	218.335	0.071	0.114
-208.450	81.871	0.220	0.239
-207.436	800.000	-0.075	-0.209
-206.421	28.663	-0.168	0.142
-205.406	76.139	-0.224	-0.238
-204.392	47.265	0.332	-0.309
-203.377	114.582	0.097	-0.119
-202.363	482.420	-0.088	0.200
-201.348	-64.691	0.208	0.084
-200.333	-2.630	-0.228	-0.159
-199.319	15.017	-0.032	0.025
-198.304	-127.949	-0.043	0.006
-197.290	67.312	-0.112	-0.114
-196.275	83.487	-0.146	0.159
-195.260	-70.031	-0.079	-0.030
-194.246	-55.268	-0.173	-0.078
-193.231	-200.000	-0.012	-0.076
-192.217	148.924	0.030	0.040
-191.202	-46.584	-0.234	0.115
-190.187	200.709	0.092	0.142
-189.173	-161.540	0.214	-0.011
-188.158	66.538	-0.225	-0.229
-187.144	-42.787	-0.211	0.107
-186.129	-200.000	0.029	-0.129
-185.114	294.341	-0.044	0.080
-184.100	-188.664	0.199	0.002
-183.085	-92.533	-0.193	0.054
-182.071	-200.000	0.044	-0.290
-181.056	-200.000	-0.343	0.000
-180.042	6.698	0.120	-0.089
-179.027	-30.736	-0.123	-0.070
-178.012	52.152	0.105	-0.100
-176.998	-10.122	0.133	0.088
-175.983	525.787	-0.071	0.167
-174.969	-123.093	-0.414	0.066
-173.954	800.000	0.029	-0.095
-172.939	-27.411	-0.032	0.018
-171.925	-52.896	0.236	0.109
-170.910	-200.000	0.032	-0.187
-169.896	463.575	0.154	-0.345
-168.881	298.804	0.016	-0.029
-167.866	-12.728	-0.117	0.076
-166.852	-99.217	0.341	-0.086
-165.837	246.928	0.151	0.254
-164.823	133.841	-0.209	-0.271
-163.808	-169.968	0.289	0.010
-162.793	-200.000	-0.015	0.077
-161.779	229.361	0.064	-0.104
-160.764	3.063	0.146	-0.106
-159.750	-8.275	-0.259	-0.174
-158.735	800.000	0.089	-0.266
-157.720	-200.000	-0.006	-0.112
-156.706	-115.711	0.196	0.037
-155.691	224.097	0.099	-0.159
-154.677	-49.908	0.187	0.089
-153.662	-25.782	-0.190	-0.112
-152.647	-47.026	-0.210	0.103
-151.633	251.880	0.174	-0.297
-150.618	-71.581	0.260	-0.097
-149.604	800.000	-0.113	0.447
-148.589	-200.000	-0.047	0.381
-147.574	-32.781	-0.036	0.020
-146.560	282.549	0.052	0.092
-145.545	129.704	0.136	-0.174
-144.531	-200.000	-0.054	0.269
-143.516	-200.000	0.034	0.597
-142.502	800.000	-0.092	0.282
-141.487	2.351	-0.167	0.121
-140.472	-21.909	0.173	0.105
-139.458	800.000	0.058	0.172
-138.443	198.610	-0.049	0.074
-137.429	800.000	0.072	-0.228
-136.414	231.587	-0.063	0.103
-135.399	-200.000	0.010	0.114
-134.385	24.730	-0.273	-0.226
-133.370	288.107	0.024	-0.044
-132.356	164.999	-0.281	-0.396
-131.341	800.000	0.019	0.069
-130.326	-120.130	0.012	0.002
-129.312	771.268	0.074	0.201
-128.297	44.233	0.069	0.063
-127.283	16.188	0.271	-0.213
-126.268	231.231	-0.061	0.099
-125.253	-200.000	0.010	0.145
-124.239	800.000	-0.044	-0.133
-123.224	-178.859	-0.174	0.004
-122.210	668.945	-0.034	-0.087
-121.195	-150.776	-0.177	-0.013
-120.180	-68.400	-0.202	0.078
-119.166	-124.800	0.182	0.028
-118.151	-166.897	-0.193	-0.008
-117.137	-6.123	0.217	0.148
-116.122	-126.932	0.461	0.068
-115.107	-200.000	-0.028	0.309
-114.093	-113.411	0.465	-0.091
-113.078	46.539	-0.102	-0.094
-112.064	-98.876	0.308	-0.078
-111.049	800.000	-0.045	0.167
-110.034	-200.000	-0.001	0.169
-109.020	-134.234	0.109	-0.013
-108.005	-93.700	0.112	0.031
-106.991	73.859	0.067	0.070
-105.976	-200.000	-0.012	0.068
-104.962	197.682	0.212	0.323
-103.947	-152.614	0.187	0.013
-102.932	-18.113	-0.179	0.112
-101.918	350.827	0.084	-0.165
-100.903	261.073	-0.063	-0.109
-99.889	-43.677	-0.366	0.184
-98.874	84.562	0.110	0.120
-97.859	-148.942	-0.110	0.009
-96.845	330.469	-0.056	0.107
-95.830	169.870	0.027	0.038
-94.816	-200.000	-0.046	0.217
-93.801	-87.079	-0.057	-0.017
-92.786	800.000	0.061	-0.192
-91.772	800.000	-0.137	0.483
-90.757	-200.000	-0.019	-0.270
-89.743	800.000	0.085	0.311
-88.728	203.944	0.106	0.164
-87.713	301.823	0.158	0.290
-86.699	45.024	0.229	-0.210
-85.684	-200.000	-0.021	-0.112
-84.670	-14.818	0.172	-0.110
-83.655	-46.094	-0.112	-0.055
-82.640	-200.000	0.003	-0.115
-81.626	-86.842	-0.454	-0.138
-80.611	332.570	0.165	-0.318
-79.597	-114.400	0.129	-0.025
-78.582	204.826	-0.008	-0.013
-77.567	269.783	-0.167	0.291
-76.553	553.474	-0.097	-0.233
-75.538	-200.000	-0.014	0.150
-74.524	800.000	-0.060	-0.191
-73.509	-18.343	-0.274	0.170
-72.494	-200.000	-0.010	-0.070
-71.480	1.740	0.262	-0.188
-70.465	136.227	0.062	0.080
-69.451	-200.000	0.000	0.086
-68.436	-6.727	0.123	-0.084
-67.422	62.638	0.103	0.103
-66.407	-200.000	0.003	-0.108
-65.392	-114.832	0.209	-0.040
-64.378	45.782	-0.025	0.023
-63.363	800.000	0.017	0.051
-62.349	-83.122	0.206	-0.066
-61.334	12.760	-0.834	-0.641
-60.319	13.301	0.366	0.282
-59.305	439.139	-0.285	-0.618
-58.290	44.302	0.701	0.640
-57.276	708.265	0.634	1.668
-56.261	-200.000	85.866	504.865
-55.246	546.822	1376.106	3275.011
-54.232	178.627	2633.791	3827.612
-53.217	110.309	2405.883	2874.872
-52.203	44.017	2145.319	1955.921
-51.188	39.396	2052.454	1828.394
-50.173	37.843	2032.455	1796.211
-49.159	50.629	2076.221	1954.153
-48.144	53.794	2096.249	2002.413
-47.130	40.098	2057.601	1839.225
-46.115	37.709	2045.813	1806.488
-45.100	37.658	2043.330	1803.749
-44.086	37.606	2040.881	1801.037
-43.071	37.471	2038.568	1797.677
-42.057	37.464	2036.865	1796.037
-41.042	37.493	2034.957	1794.556
-40.027	37.497	2032.853	1792.657
-39.013	37.533	2030.720	1791.036
-37.998	37.533	2028.624	1789.123
-36.984	37.483	2026.799	1786.978
-35.969	37.499	2024.940	1785.422
-34.954	37.542	2023.065	1784.092
-33.940	37.631	2022.064	1783.949
-32.925	37.640	2019.973	1782.114
-31.911	37.721	2017.969	1781.018
-30.896	37.646	2016.310	1778.796
-29.881	37.744	2015.137	1778.585
-28.867	37.729	2013.122	1776.600
-27.852	37.719	2011.484	1774.999
-26.838	37.716	2009.441	1773.093
-25.823	37.629	2008.010	1770.971
-24.809	37.705	2006.017	1769.830
-23.794	37.666	2004.130	1767.746
-22.779	37.636	2001.960	1765.484
-21.765	37.659	2000.309	1764.170
-20.750	37.602	1999.190	1762.595
-19.736	37.624	1997.628	1761.346
-18.721	37.602	1995.817	1759.483
-17.706	37.597	1994.716	1758.394
-16.692	37.635	1992.750	1756.940
-15.677	37.634	1991.032	1755.345
-14.663	37.689	1989.167	1754.122
-13.648	37.665	1987.950	1752.768
-12.633	37.639	1986.720	1751.377
-11.619	37.668	1985.577	1750.561
-10.604	37.649	1983.779	1748.736
-9.590	37.608	1982.812	1747.446
-8.575	37.628	1980.945	1745.908
-7.560	37.619	1980.223	1745.128
-6.546	37.617	1978.484	1743.508
-5.531	37.604	1977.294	1742.272
-4.517	37.634	1976.184	1741.495
-3.502	37.569	1975.159	1739.937
-2.487	37.656	1973.264	1738.976
-1.473	37.609	1972.513	1737.825
-0.458	37.753	1967.702	1734.803
0.556	35.200	1948.273	1708.153
1.571	31.154	1928.232	1654.644
2.586	26.733	1950.140	1633.545
3.600	25.308	1987.309	1651.435
4.615	24.531	1983.573	1641.045
5.629	18.660	1878.586	1502.798
6.644	6.978	1748.925	1303.184
7.659	0.436	1704.846	1217.547
8.673	-0.220	1700.844	1209.292
9.688	-0.226	1698.555	1207.509
10.702	-0.389	1697.786	1205.552
11.717	-0.494	1694.319	1202.133
12.731	-0.134	1693.966	1204.665
13.746	6.648	1710.782	1271.312
14.761	15.179	1730.162	1354.858
15.775	16.530	1730.509	1365.934
16.790	15.524	1726.962	1354.900
17.804	15.459	1725.666	1353.237
18.819	15.497	1724.815	1352.760
19.834	15.634	1723.926	1353.044
20.848	15.720	1723.339	1353.155
21.863	15.787	1722.222	1352.694
22.877	15.752	1721.593	1351.802
23.892	15.682	1720.523	1350.277
24.907	15.686	1719.803	1349.626
25.921	15.685	1718.486	1348.465
26.936	15.637	1717.852	1347.467
27.950	15.681	1716.644	1346.750
28.965	15.675	1716.354	1346.352
29.980	15.695	1714.873	1345.232
30.994	15.805	1713.017	1344.536
32.009	15.686	1711.816	1342.523
33.023	15.677	1710.714	1341.475
34.038	15.668	1710.156	1340.847
35.053	15.689	1708.963	1339.957
36.067	15.685	1707.068	1338.321
37.082	15.732	1705.789	1337.572
38.096	15.723	1704.937	1336.714
39.111	15.737	1703.915	1335.904
40.126	15.654	1703.613	1334.893
41.140	15.688	1702.353	1334.059
42.155	15.719	1701.063	1333.175
43.169	15.763	1699.882	1332.476
44.184	15.759	1698.712	1331.410
45.199	15.697	1697.767	1330.064
46.213	15.647	1696.564	1328.609
47.228	15.703	1694.959	1327.672
48.242	15.639	1693.669	1326.043
49.257	15.697	1692.878	1325.761
50.271	15.660	1691.447	1324.232
51.286	15.689	1689.798	1323.053
52.301	15.691	1688.912	1322.256
53.315	15.678	1686.957	1320.510
54.330	15.694	1685.647	1319.493
55.344	15.643	1684.459	1318.050
56.359	15.594	1682.876	1316.310
57.374	15.617	1681.755	1315.496
58.388	15.747	1680.275	1315.236
59.403	15.672	1678.739	1313.334
60.417	15.675	1677.142	1311.988
61.432	15.687	1675.925	1311.018
62.447	15.585	1675.207	1309.544
63.461	15.646	1674.202	1309.114
64.476	15.687	1673.139	1308.491
65.490	15.601	1671.303	1306.265
66.505	15.751	1670.213	1306.469
67.520	15.676	1669.382	1305.114
68.534	15.735	1668.353	1304.659
69.549	15.651	1666.797	1302.675
70.563	15.665	1665.376	1301.559
71.578	15.756	1664.244	1301.262
72.593	15.752	1663.131	1300.239
73.607	15.662	1662.286	1298.770
74.622	15.665	1661.300	1297.909
75.636	15.721	1660.146	1297.325
76.651	15.685	1658.852	1295.923
77.666	15.693	1658.136	1295.313
78.680	15.638	1657.230	1294.062
79.695	15.684	1655.753	1293.147
80.709	15.664	1655.061	1292.338
81.724	15.624	1654.083	1291.152
82.739	15.697	1652.443	1290.322
83.753	15.717	1651.280	1289.456
84.768	15.678	1650.110	1288.125
85.782	15.713	1649.611	1287.888
86.797	15.654	1648.445	1286.417
87.812	15.726	1647.239	1285.911
88.826	15.711	1646.061	1284.766
89.841	15.676	1644.719	1283.337
90.855	15.661	1643.861	1282.435
91.870	15.686	1642.696	1281.603
92.884	15.666	1641.478	1280.386
93.899	15.737	1639.994	1279.659
94.914	15.723	1638.308	1278.121
95.928	15.729	1637.369	1277.326
96.943	15.739	1635.607	1275.914
97.957	15.723	1634.337	1274.683
98.972	15.698	1632.713	1273.115
99.987	15.673	1631.714	1272.036
101.001	15.665	1629.823	1270.393
102.016	15.690	1627.983	1269.032
103.030	15.662	1626.410	1267.480
104.045	15.689	1624.896	1266.394
105.060	15.713	1623.237	1265.170
106.074	15.686	1621.851	1263.774
107.089	15.686	1620.071	1262.275
108.103	15.639	1619.230	1261.156
109.118	15.667	1617.515	1259.922
110.133	15.739	1615.462	1258.748
111.147	15.661	1614.790	1257.532
112.162	15.774	1613.117	1256.959
113.176	15.729	1612.041	1255.672
114.191	15.819	1609.952	1254.608
115.206	15.839	1608.511	1253.523
116.220	15.808	1607.122	1252.100
117.235	15.736	1606.222	1250.747
118.249	15.741	1604.651	1249.454
119.264	15.688	1603.257	1247.865
120.279	15.621	1602.000	1246.280
121.293	15.785	1599.943	1245.782
122.308	15.746	1599.239	1244.837
123.322	15.723	1596.713	1242.588
124.337	15.789	1595.303	1241.868
125.352	15.751	1594.217	1240.636
126.366	15.736	1592.629	1239.177
127.381	15.795	1591.342	1238.498
128.395	15.765	1590.560	1237.564
129.410	15.791	1588.464	1236.012
130.424	15.804	1587.161	1234.985
131.439	15.735	1585.851	1233.353
132.454	15.831	1584.241	1232.689
133.468	15.786	1582.403	1230.826
134.483	15.755	1580.908	1229.328
135.497	15.772	1579.279	1228.072
136.512	15.809	1578.223	1227.411
137.527	15.751	1576.423	1225.481
138.541	15.817	1575.123	1224.845
139.556	15.811	1573.933	1223.771
140.570	15.788	1572.678	1222.514
141.585	15.757	1571.207	1221.036
142.600	15.827	1569.602	1220.194
143.614	15.727	1568.322	1218.361
144.629	15.800	1566.592	1217.443
145.643	15.767	1565.469	1216.220
146.658	15.724	1563.643	1214.387
147.673	15.717	1562.381	1213.247
148.687	15.690	1560.871	1211.770
149.702	15.796	1559.823	1211.613
150.716	15.690	1558.657	1209.839
151.731	15.760	1557.059	1208.998
152.746	15.754	1555.897	1207.942
153.760	15.788	1553.824	1206.472
154.775	15.864	1552.966	1206.243
155.789	15.756	1551.925	1204.553
156.804	15.802	1550.348	1203.550
157.819	15.759	1549.331	1202.348
158.833	15.729	1548.254	1201.193
159.848	15.730	1546.998	1200.120
160.862	15.750	1545.798	1199.223
161.877	15.881	1544.697	1199.194
162.892	15.813	1543.527	1197.697
163.906	15.868	1542.098	1196.878
164.921	15.825	1541.194	1195.759
165.935	15.864	1540.898	1195.700
166.950	15.870	1539.337	1194.430
167.964	15.796	1538.093	1192.835
168.979	15.849	1536.606	1191.952
169.994	15.846	1535.715	1191.129
171.008	15.890	1535.059	1190.829
172.023	15.948	1533.892	1190.225
173.037	15.797	1533.026	1188.385
174.052	15.754	1531.676	1186.930
175.067	15.892	1530.441	1186.844
176.081	15.892	1529.087	1185.688
177.096	15.860	1528.568	1184.950
178.110	15.868	1527.249	1183.879
179.125	15.897	1526.036	1183.040
180.140	15.840	1525.328	1181.988
181.154	15.824	1524.503	1181.129
182.169	15.910	1523.049	1180.503
183.183	15.854	1522.313	1179.435
184.198	15.892	1520.808	1178.433
185.213	15.905	1519.627	1177.504
186.227	16.015	1518.672	1177.429
187.242	15.941	1517.691	1176.044
188.256	15.872	1516.975	1174.906
189.271	15.913	1516.167	1174.463
190.286	15.913	1515.115	1173.545
191.300	15.908	1514.308	1172.778
192.315	15.959	1512.930	1171.964
193.329	15.878	1512.224	1170.747
194.344	15.886	1511.324	1170.002
195.359	15.955	1510.059	1169.401
196.373	15.966	1509.377	1168.841
197.388	15.983	1508.143	1167.906
198.402	15.883	1507.040	1166.254
199.417	15.941	1505.982	1165.733
200.432	15.828	1504.636	1163.807
201.446	15.984	1503.841	1164.167
202.461	15.973	1503.096	1163.409
203.475	15.877	1501.846	1161.675
204.490	15.924	1500.474	1160.836
205.504	15.928	1500.004	1160.401
206.519	15.967	1498.726	1159.578
207.534	15.996	1497.920	1159.050
208.548	16.048	1496.803	1158.438
209.563	16.032	1495.911	1157.537
210.577	16.104	1494.591	1156.907
211.592	16.003	1493.794	1155.496
212.607	16.064	1492.805	1155.044
213.621	15.982	1492.676	1154.281
214.636	15.998	1491.863	1153.662
215.650	16.008	1490.394	1152.493
216.665	16.059	1489.692	1152.194
217.680	16.020	1489.071	1151.347
218.694	15.984	1488.073	1150.230
219.709	16.038	1487.583	1150.114
220.723	16.057	1486.252	1149.116
221.738	16.092	1485.532	1148.696
222.753	16.001	1484.824	1147.428
223.767	15.979	1483.787	1146.372
224.782	16.043	1482.550	1145.748
225.796	16.013	1482.176	1145.159
226.811	16.034	1481.481	1144.661
227.826	15.986	1480.371	1143.375
228.840	16.105	1479.210	1143.184
229.855	16.050	1478.983	1142.537
230.869	16.051	1477.905	1141.609
231.884	16.133	1476.616	1141.067
232.899	16.113	1475.715	1140.135
233.913	16.044	1475.054	1139.059
234.928	16.024	1473.175	1137.371
235.942	16.100	1472.345	1137.139
236.957	16.111	1470.548	1135.727
237.972	16.072	1470.386	1135.239
238.986	16.188	1469.312	1135.092
240.001	16.176	1467.811	1133.749
241.015	16.062	1467.620	1132.733
242.030	16.152	1466.080	1132.049
243.045	16.169	1465.296	1131.460
244.059	16.102	1464.672	1130.428
245.074	16.197	1463.388	1129.970
246.088	16.313	1462.528	1129.987
247.103	16.158	1462.240	1128.625
248.117	16.212	1461.188	1128.071
249.132	16.248	1460.217	1127.468
250.147	16.184	1459.926	1126.713
251.161	16.244	1458.975	1126.279
252.176	16.217	1458.434	1125.584
253.190	16.286	1457.659	1125.346
254.205	16.322	1456.403	1124.518
255.220	16.220	1456.231	1123.607
256.234	16.303	1454.646	1122.834
257.249	16.298	1454.072	1122.260
258.263	16.308	1453.527	1121.803
259.278	16.192	1452.754	1120.338
260.293	16.210	1451.809	1119.630
261.307	16.295	1451.035	1119.500
262.322	16.348	1449.746	1118.757
263.336	16.387	1449.001	1118.343
264.351	16.422	1448.231	1117.875
265.366	16.339	1447.389	1116.581
266.380	16.354	1446.317	1115.752
267.395	16.427	1444.852	1115.007
268.409	16.362	1444.362	1114.103
269.424	16.355	1443.547	1113.327
270.439	16.326	1442.461	1112.197
271.453	16.242	1441.625	1110.903
272.468	16.405	1440.750	1111.206
273.482	16.336	1440.207	1110.232
274.497	16.395	1439.244	1109.779
275.512	16.385	1438.534	1109.069
276.526	16.385	1437.812	1108.414
277.541	16.455	1436.836	1108.019
278.555	16.428	1435.980	1107.085
279.570	16.403	1435.047	1106.108
280.585	16.458	1433.948	1105.518
281.599	16.355	1433.627	1104.500
282.614	16.368	1432.560	1103.670
283.628	16.448	1431.339	1103.151
284.643	16.496	1430.298	1102.563
285.657	16.367	1429.410	1100.945
286.672	16.400	1428.732	1100.536
287.687	16.418	1427.547	1099.644
288.701	16.433	1426.563	1098.884
289.716	16.522	1425.980	1098.918
290.730	16.489	1425.388	1098.150
291.745	16.427	1424.131	1096.684
292.760	16.533	1422.939	1096.353
293.774	16.533	1421.920	1095.473
294.789	16.501	1421.276	1094.671
295.803	16.540	1420.324	1094.095
296.818	16.515	1419.523	1093.220
297.833	16.531	1418.221	1092.220
298.847	16.460	1417.474	1091.093
299.862	16.585	1416.284	1090.886
300.876	16.558	1415.810	1090.249
301.891	16.568	1414.745	1089.402
302.906	16.586	1413.769	1088.664
303.920	16.538	1413.506	1088.061
304.935	16.603	1412.566	1087.660
305.949	16.632	1411.862	1087.207
306.964	16.720	1410.573	1086.682
307.979	16.580	1409.868	1085.144
308.993	16.673	1408.917	1084.914
310.008	16.601	1408.175	1083.785
311.022	16.582	1407.327	1082.910
312.037	16.709	1405.589	1082.290
313.052	16.754	1404.870	1081.931
314.066	16.686	1404.192	1080.879
315.081	16.696	1403.554	1080.355
316.095	16.743	1402.571	1079.803
317.110	16.691	1401.732	1078.731
318.125	16.660	1400.714	1077.653
319.139	16.767	1399.597	1077.380
320.154	16.758	1398.639	1076.492
321.168	16.716	1397.970	1075.610
322.183	16.775	1396.463	1074.733
323.197	16.777	1395.591	1073.978
324.212	16.742	1394.946	1073.167
325.227	16.664	1394.875	1072.519
326.241	16.775	1393.199	1071.843
327.256	16.802	1392.605	1071.459
328.270	16.874	1391.772	1071.181
329.285	16.884	1390.346	1070.049
330.300	16.809	1389.780	1069.047
331.314	16.749	1389.253	1068.164
332.329	16.838	1388.175	1067.807
333.343	16.911	1387.400	1067.571
334.358	16.845	1386.968	1066.734
335.373	16.839	1386.000	1065.857
336.387	16.814	1384.762	1064.652
337.402	16.901	1384.138	1064.625
338.416	16.857	1383.982	1064.135
339.431	16.941	1383.082	1063.872
340.446	16.979	1382.333	1063.445
341.460	16.944	1381.432	1062.437
342.475	16.968	1380.145	1061.505
343.489	17.016	1379.328	1061.081
344.504	16.987	1378.543	1060.200
345.519	16.878	1377.482	1058.608
346.533	16.920	1376.762	1058.224
347.548	16.989	1375.553	1057.635
348.562	16.972	1374.750	1056.815
349.577	16.921	1374.050	1055.868
350.592	16.951	1373.847	1055.805
351.606	16.977	1372.737	1055.018
352.621	16.876	1371.624	1053.442
353.635	16.959	1370.401	1052.926
354.650	17.101	1369.443	1052.975
355.665	17.047	1368.646	1051.938
356.679	17.134	1367.201	1051.269
357.694	17.096	1366.288	1050.245
358.708	17.087	1365.408	1049.414
359.723	17.092	1364.349	1048.541
360.738	17.035	1363.304	1047.295
361.752	17.064	1362.146	1046.491
362.767	17.065	1361.292	1045.744
363.781	17.043	1360.347	1044.793
364.796	17.161	1359.607	1044.857
365.810	17.098	1359.150	1044.030
366.825	17.153	1358.373	1043.673
367.840	17.109	1357.555	1042.684
368.854	17.089	1356.845	1041.925
369.869	17.170	1356.435	1042.014
370.883	17.166	1355.468	1041.154
371.898	17.188	1354.863	1040.730
372.913	17.206	1354.017	1040.100
373.927	17.210	1353.188	1039.399
374.942	17.139	1352.620	1038.437
375.956	17.241	1351.650	1038.221
376.971	17.284	1350.771	1037.719
377.986	17.176	1350.275	1036.582
379.000	17.139	1349.250	1035.480
380.015	17.248	1348.345	1035.357
381.029	17.228	1347.611	1034.579
382.044	17.229	1347.141	1034.137
383.059	17.308	1346.321	1033.895
384.073	17.168	1346.022	1032.723
385.088	17.348	1345.025	1032.958
386.102	17.275	1344.525	1032.041
387.117	17.287	1343.572	1031.290
388.132	17.403	1342.746	1031.267
389.146	17.297	1341.814	1029.822
390.161	17.343	1341.102	1029.461
391.175	17.389	1340.456	1029.154
392.190	17.429	1339.280	1028.400
393.205	17.376	1338.756	1027.587
394.219	17.408	1337.586	1026.792
395.234	17.385	1336.165	1025.467
396.248	17.330	1335.298	1024.384
397.263	17.426	1333.985	1023.861
398.278	17.501	1332.688	1023.227
399.292	17.521	1331.782	1022.562
400.307	17.522	1330.592	1021.563
401.321	17.536	1329.721	1020.889
402.336	17.470	1329.297	1020.079
403.350	17.543	1328.014	1019.438
404.365	17.490	1326.927	1018.198
405.380	17.566	1326.096	1017.920
406.394	17.459	1325.339	1016.616
407.409	17.437	1324.758	1015.943
408.423	17.554	1324.173	1016.106
409.438	17.574	1323.448	1015.576
410.453	17.597	1322.231	1014.692
411.467	17.596	1321.552	1014.076
412.482	17.570	1321.240	1013.594
413.496	17.568	1320.333	1012.796
414.511	17.669	1319.352	1012.554
415.526	17.634	1318.576	1011.658
416.540	17.579	1318.335	1011.056
417.555	17.701	1317.226	1010.839
418.569	17.587	1317.012	1009.914
419.584	17.664	1316.235	1009.680
420.599	17.691	1315.446	1009.146
421.613	134.812	1421.978	1780.166
422.628	131.257	1437.496	1780.297
