DTS Sentinel unit serial number:	SN413079Multiplexer serial number:	ORYXHardware model number:	OX4-SRSoftware version number:	ORYX F/W v4.00 Oryx Data Collector v3.7.2.0data status	okinstallation	princeton_trtdifferential loss correction	single-endedforward channel	channel 4reverse channel	N/Adate	2019/09/11time	22:03:11forward acquisition time	60.00reverse acquisition time	0.00gamma	496.2192k internal	0.2306k external	0.2306temperature offset calibration	1.0076default loss term (dB/km)	0.3790temperature slope calibration	1.0000multiplexer offset coefficient	1.0000multiplexer slope coefficient	1.0000fibre end	0.00T internal ref (°C)	35.50T ext. ref 1 (°C)	1.76T ext. ref 2 (°C)	29.60length (m)	temperature (°C)	Stokes	anti-Stokes-747.200	-150.158	0.206	-0.016
-746.185	-200.000	-0.036	0.221
-745.171	-4.619	0.042	-0.030
-744.156	-200.000	-0.008	0.124
-743.142	-8.153	-0.224	-0.154
-742.127	-24.806	-0.053	0.032
-741.112	46.050	-0.210	0.198
-740.098	800.000	-0.019	-0.061
-739.083	186.855	0.060	-0.091
-738.069	-39.213	0.055	-0.029
-737.054	-200.000	0.029	-0.220
-736.039	-48.653	-0.299	-0.146
-735.025	-48.262	0.046	-0.023
-734.010	-200.000	-0.055	0.263
-732.996	595.601	-0.195	-0.491
-731.981	4.533	-0.357	-0.266
-730.966	-200.000	-0.004	0.139
-729.952	-188.596	0.209	-0.003
-728.937	316.696	0.050	-0.097
-727.923	96.296	-0.026	-0.031
-726.908	-47.772	-0.114	0.056
-725.894	800.000	-0.075	-0.286
-724.879	-2.691	-0.434	0.309
-723.864	800.000	-0.051	-0.200
-722.850	-200.000	0.000	-0.071
-721.835	-99.532	0.045	-0.011
-720.821	504.353	-0.233	0.547
-719.806	-141.996	-0.369	-0.037
-718.791	-83.995	-0.067	0.022
-717.777	-111.768	-0.220	-0.045
-716.762	209.583	-0.148	-0.236
-715.748	800.000	0.065	-0.280
-714.733	-174.417	0.064	-0.002
-713.718	446.524	0.030	0.068
-712.704	-200.000	0.025	0.380
-711.689	79.286	0.076	-0.083
-710.675	800.000	0.039	-0.113
-709.660	-125.520	-0.061	0.009
-708.645	-200.000	-0.043	0.245
-707.631	-200.000	0.024	-0.363
-706.616	175.895	0.104	0.153
-705.602	39.655	0.116	-0.105
-704.587	-104.830	0.267	-0.062
-703.572	800.000	0.052	0.204
-702.558	35.203	-0.083	-0.074
-701.543	-200.000	0.021	-0.242
-700.529	38.057	-0.114	0.103
-699.514	541.719	-0.094	0.228
-698.499	-116.631	0.115	-0.021
-697.485	-200.000	0.000	-0.217
-696.470	800.000	0.063	0.203
-695.456	-200.000	0.016	-0.098
-694.441	666.256	0.191	-0.502
-693.426	-81.134	0.315	-0.106
-692.412	205.568	-0.051	-0.080
-691.397	-200.000	-0.030	0.133
-690.383	385.610	-0.129	-0.270
-689.368	-26.935	0.156	0.093
-688.354	-200.000	-0.018	0.212
-687.339	-16.416	0.245	-0.158
-686.324	268.725	-0.064	0.114
-685.310	-38.852	0.173	0.092
-684.295	-200.000	-0.029	-0.182
-683.281	800.000	0.171	0.536
-682.266	478.126	0.116	-0.267
-681.251	-5.393	0.160	-0.111
-680.237	7.299	-0.115	-0.087
-679.222	-26.050	-0.191	0.114
-678.208	-80.891	0.286	-0.096
-677.193	800.000	0.069	-0.243
-676.178	131.539	0.086	0.112
-675.164	-25.918	-0.186	-0.111
-674.149	-200.000	0.050	-0.336
-673.135	69.497	-0.239	-0.249
-672.120	-80.669	0.246	0.083
-671.105	112.143	-0.137	0.168
-670.091	237.026	-0.054	-0.091
-669.076	-15.753	0.343	0.221
-668.062	275.739	0.105	-0.189
-667.047	-160.656	0.293	-0.016
-666.032	406.538	0.100	-0.214
-665.018	800.000	-0.020	-0.061
-664.003	30.948	-0.057	-0.049
-662.989	-200.000	-0.017	-0.322
-661.974	59.755	0.240	-0.240
-660.959	-114.976	0.373	-0.072
-659.945	-200.000	0.046	-0.243
-658.930	129.767	-0.138	0.179
-657.916	320.146	-0.087	0.168
-656.901	469.848	0.073	-0.167
-655.886	-107.587	0.138	0.031
-654.872	18.187	0.360	0.291
-653.857	800.000	-0.031	-0.107
-652.843	37.631	0.140	0.126
-651.828	10.475	-0.095	0.074
-650.814	374.392	0.081	0.168
-649.799	-35.720	0.168	-0.093
-648.784	454.996	-0.091	-0.205
-647.770	-15.667	0.143	-0.092
-646.755	-148.396	-0.345	0.029
-645.741	713.935	0.061	-0.164
-644.726	-73.429	-0.185	0.069
-643.711	-107.820	0.130	-0.029
-642.697	-161.790	0.100	-0.005
-641.682	353.622	-0.087	0.175
-640.668	-15.025	-0.222	0.144
-639.653	-36.836	0.141	0.077
-638.638	55.007	-0.115	0.113
-637.624	-200.000	-0.024	-0.170
-636.609	161.891	0.249	-0.353
-635.595	57.139	-0.076	-0.075
-634.580	383.094	0.057	-0.120
-633.565	30.804	0.214	-0.186
-632.551	437.024	-0.237	0.523
-631.536	-200.000	0.039	-0.371
-630.522	-119.781	-0.154	-0.027
-629.507	800.000	0.027	-0.119
-628.492	33.022	0.191	0.168
-627.478	-72.047	-0.102	-0.038
-626.463	-101.338	-0.280	-0.069
-625.449	-88.906	-0.279	0.084
-624.434	437.313	0.154	0.341
-623.419	6.182	0.151	0.114
-622.405	-200.000	-0.044	-0.206
-621.390	11.641	-0.317	-0.246
-620.376	-200.000	0.051	0.272
-619.361	35.586	-0.182	-0.162
-618.346	202.774	-0.204	-0.320
-617.332	-66.295	0.126	0.051
-616.317	-66.563	0.378	-0.152
-615.303	-69.528	-0.186	0.072
-614.288	1.045	-0.224	-0.163
-613.273	-21.564	0.377	-0.233
-612.259	-200.000	-0.071	-0.401
-611.244	67.864	0.078	-0.081
-610.230	800.000	0.049	-0.162
-609.215	-200.000	-0.015	0.100
-608.201	361.209	0.119	-0.241
-607.186	-200.000	-0.008	-0.263
-606.171	-110.702	0.117	0.024
-605.157	-200.000	0.007	0.228
-604.142	55.415	0.131	-0.128
-603.128	-51.488	-0.248	-0.117
-602.113	399.486	0.035	0.074
-601.098	-140.476	0.054	-0.006
-600.084	-78.998	-0.156	0.054
-599.069	54.317	-0.177	-0.173
-598.055	-24.406	0.265	0.160
-597.040	-200.000	-0.040	0.209
-596.025	-200.000	-0.061	0.272
-595.011	-200.000	0.048	0.333
-593.996	95.938	-0.117	-0.136
-592.982	129.836	0.126	-0.162
-591.967	398.790	-0.085	0.181
-590.952	-200.000	0.002	-0.032
-589.938	-61.120	-0.065	-0.028
-588.923	740.770	-0.072	0.196
-587.909	362.214	0.082	0.167
-586.894	-123.770	0.256	-0.041
-585.879	-23.968	-0.224	0.135
-584.865	248.979	0.127	0.217
-583.850	18.339	-0.116	-0.094
-582.836	320.211	0.067	0.128
-581.821	131.534	0.073	-0.094
-580.806	-114.994	-0.070	-0.013
-579.792	303.480	-0.125	-0.235
-578.777	7.108	0.242	-0.182
-577.763	-200.000	0.021	-0.099
-576.748	-172.169	-0.254	-0.008
-575.733	60.532	0.241	-0.241
-574.719	521.946	-0.081	-0.191
-573.704	-200.000	-0.014	0.284
-572.690	-165.695	0.270	-0.012
-571.675	-69.488	-0.190	0.073
-570.661	-48.264	-0.197	-0.096
-569.646	-200.000	-0.004	-0.158
-568.631	-113.967	-0.031	0.006
-567.617	37.419	0.117	-0.105
-566.602	800.000	-0.016	0.054
-565.588	597.945	-0.119	-0.298
-564.573	-200.000	-0.020	0.110
-563.558	800.000	-0.133	-0.536
-562.544	800.000	0.185	-0.586
-561.529	-162.133	0.140	-0.007
-560.515	-200.000	0.001	-0.075
-559.500	-167.939	0.170	0.007
-558.485	-82.549	0.251	0.082
-557.471	800.000	-0.038	-0.160
-556.456	800.000	0.018	-0.059
-555.442	185.290	-0.106	-0.159
-554.427	-74.040	-0.093	0.034
-553.412	-6.326	0.303	-0.209
-552.398	151.436	0.154	0.212
-551.383	-200.000	-0.077	0.388
-550.369	-65.056	-0.117	-0.048
-549.354	177.368	0.098	-0.144
-548.339	-59.983	-0.176	0.076
-547.325	-66.430	0.217	-0.087
-546.310	-104.689	-0.451	0.105
-545.296	39.968	0.101	-0.092
-544.281	800.000	-0.050	0.203
-543.266	-166.842	0.144	0.006
-542.252	513.105	0.109	-0.257
-541.237	-25.294	0.119	0.071
-540.223	-200.000	0.014	0.076
-539.208	464.249	0.084	0.190
-538.193	203.079	-0.043	-0.068
-537.179	229.580	0.081	0.133
-536.164	296.871	-0.167	0.309
-535.150	800.000	0.069	0.228
-534.135	16.201	-0.206	-0.164
-533.121	14.064	-0.208	-0.164
-532.106	-77.316	-0.377	-0.132
-531.091	9.568	0.188	-0.144
-530.077	-200.000	0.032	0.312
-529.062	-200.000	0.040	0.231
-528.048	-200.000	0.031	0.168
-527.033	380.687	0.107	0.222
-526.018	73.250	-0.129	-0.136
-525.004	-200.000	0.030	0.139
-523.989	800.000	0.124	-0.409
-522.975	278.735	0.063	0.114
-521.960	-200.000	-0.011	-0.059
-520.945	496.944	0.115	0.266
-519.931	-200.000	0.025	0.130
-518.916	-142.736	-0.433	0.043
-517.902	800.000	0.054	-0.171
-516.887	55.819	-0.180	-0.176
-515.872	-88.993	0.144	-0.043
-514.858	800.000	0.053	0.192
-513.843	154.402	0.177	0.245
-512.829	32.728	-0.106	-0.092
-511.814	51.709	-0.239	-0.229
-510.799	-200.000	-0.003	-0.136
-509.785	-48.193	0.164	0.080
-508.770	501.967	0.061	0.143
-507.756	44.610	-0.142	0.132
-506.741	-185.227	-0.206	-0.003
-505.726	-200.000	-0.012	-0.078
-504.712	-160.522	0.188	0.010
-503.697	-45.473	-0.194	-0.097
-502.683	-122.144	-0.099	0.016
-501.668	-72.084	-0.296	0.111
-500.653	-87.294	0.283	0.086
-499.639	-14.692	-0.065	0.042
-498.624	-55.044	0.096	0.043
-497.610	800.000	-0.032	0.124
-496.595	800.000	0.026	-0.089
-495.581	-6.722	-0.227	0.155
-494.566	800.000	0.016	-0.047
-493.551	-96.239	-0.108	-0.029
-492.537	-119.557	0.040	0.007
-491.522	-110.042	0.153	-0.032
-490.508	-148.039	0.140	-0.012
-489.493	293.516	-0.064	-0.118
-488.478	-128.101	0.373	0.054
-487.464	-54.256	0.136	-0.062
-486.449	-126.879	0.321	-0.048
-485.435	425.416	0.099	0.215
-484.420	-118.384	-0.177	-0.032
-483.405	136.555	-0.070	0.092
-482.391	423.565	0.053	0.115
-481.376	-112.496	-0.396	-0.080
-480.362	37.106	-0.113	0.101
-479.347	440.418	-0.074	0.162
-478.332	-200.000	-0.033	0.206
-477.318	258.192	0.259	-0.449
-476.303	-119.748	-0.201	0.035
-475.289	-65.611	-0.077	-0.031
-474.274	601.668	0.042	-0.104
-473.259	-200.000	-0.035	0.222
-472.245	131.099	0.075	-0.097
-471.230	-200.000	-0.023	0.170
-470.216	34.204	0.098	-0.086
-469.201	-4.720	-0.199	0.138
-468.186	213.830	0.103	-0.165
-467.172	-200.000	-0.050	-0.277
-466.157	-200.000	0.023	-0.427
-465.143	16.310	-0.134	-0.106
-464.128	-133.994	-0.125	-0.016
-463.113	78.370	0.169	0.182
-462.099	800.000	-0.070	-0.198
-461.084	-200.000	0.027	0.132
-460.070	-200.000	0.016	0.150
-459.055	24.015	-0.198	-0.165
-458.040	72.021	0.247	0.259
-457.026	-200.000	-0.075	0.437
-456.011	-52.716	0.298	0.138
-454.997	113.790	0.327	0.400
-453.982	341.678	-0.130	0.256
-452.968	151.246	0.226	0.310
-451.953	63.516	-0.324	0.327
-450.938	176.274	-0.128	0.187
-449.924	730.537	-0.098	-0.263
-448.909	131.269	-0.044	-0.057
-447.895	218.108	-0.059	-0.094
-446.880	239.161	0.236	-0.394
-445.865	-22.711	0.310	0.188
-444.851	-133.543	-0.343	-0.043
-443.836	206.042	-0.152	-0.238
-442.822	800.000	0.024	0.070
-441.807	29.821	0.073	0.063
-440.792	-1.349	0.124	-0.088
-439.778	-200.000	0.012	-0.174
-438.763	800.000	0.052	-0.152
-437.749	77.994	0.075	-0.081
-436.734	84.508	-0.143	0.158
-435.719	-27.229	0.193	-0.113
-434.705	40.303	0.066	-0.060
-433.690	241.881	-0.060	-0.101
-432.676	86.769	0.098	-0.109
-431.661	270.345	-0.077	-0.135
-430.646	-30.755	0.026	0.015
-429.632	-200.000	0.007	-0.291
-428.617	-175.147	-0.306	0.009
-427.603	-161.437	0.052	0.003
-426.588	800.000	0.081	0.344
-425.573	-187.340	-0.496	0.007
-424.559	-160.743	-0.129	0.007
-423.544	-200.000	-0.050	0.318
-422.530	-86.169	0.320	-0.099
-421.515	-171.474	-0.170	0.006
-420.500	-31.251	0.282	0.160
-419.486	-200.000	0.003	0.029
-418.471	67.350	0.066	0.068
-417.457	-53.597	0.199	0.091
-416.442	668.803	-0.035	-0.091
-415.428	-151.427	0.202	-0.015
-414.413	800.000	-0.043	0.154
-413.398	800.000	-0.027	0.089
-412.384	800.000	-0.077	0.257
-411.369	273.641	-0.078	0.139
-410.355	-76.026	0.333	-0.118
-409.340	548.354	0.055	-0.132
-408.325	9.908	0.167	-0.127
-407.311	-29.882	-0.238	-0.136
-406.296	-25.176	0.222	-0.132
-405.282	800.000	-0.125	-0.451
-404.267	313.575	0.005	-0.010
-403.252	800.000	-0.136	0.509
-402.238	-200.000	0.026	0.228
-401.223	-175.488	0.167	-0.005
-400.209	302.246	-0.169	0.314
-399.194	-200.000	0.002	0.101
-398.179	-68.834	-0.125	0.048
-397.165	168.313	-0.119	-0.169
-396.150	-200.000	0.018	0.124
-395.136	-75.284	-0.138	0.049
-394.121	-78.017	0.230	-0.079
-393.106	49.170	-0.186	-0.175
-392.092	429.067	0.193	-0.419
-391.077	-25.571	0.051	-0.030
-390.063	-166.286	0.103	0.004
-389.048	800.000	0.100	-0.349
-388.033	-200.000	0.035	0.258
-387.019	-108.329	0.164	0.036
-386.004	-200.000	0.046	0.272
-384.990	-117.382	-0.115	0.021
-383.975	386.051	0.070	-0.144
-382.960	-130.506	-0.017	0.002
-381.946	-200.000	-0.010	0.238
-380.931	121.853	-0.050	0.062
-379.917	-52.588	-0.371	-0.172
-378.902	-200.000	0.012	0.079
-377.888	208.011	-0.062	-0.098
-376.873	-59.562	0.211	-0.091
-375.858	-51.893	-0.206	0.096
-374.844	339.279	0.074	0.145
-373.829	-126.844	-0.019	0.003
-372.815	800.000	-0.081	-0.322
-371.800	108.829	-0.079	-0.095
-370.785	-83.117	-0.110	-0.036
-369.771	673.293	-0.088	-0.230
-368.756	-190.295	0.171	-0.002
-367.742	-93.914	0.168	-0.046
-366.727	-104.673	-0.184	-0.042
-365.712	-200.000	0.026	0.174
-364.698	21.525	0.132	0.107
-363.683	197.812	0.162	-0.249
-362.669	225.873	0.149	0.243
-361.654	-25.514	0.105	0.062
-360.639	221.897	0.088	-0.141
-359.625	-16.618	-0.198	0.126
-358.610	800.000	0.045	0.181
-357.596	-103.342	0.056	-0.013
-356.581	-84.142	-0.109	-0.035
-355.566	-96.861	0.220	-0.058
-354.552	-92.061	0.217	-0.062
-353.537	-175.523	-0.051	0.001
-352.523	-63.803	0.484	-0.199
-351.508	-200.000	-0.022	0.247
-350.493	800.000	0.001	0.002
-349.479	66.523	-0.216	-0.220
-348.464	-153.959	-0.321	-0.022
-347.450	-200.000	0.011	-0.207
-346.435	800.000	-0.055	-0.153
-345.420	172.934	0.154	-0.222
-344.406	301.467	-0.304	0.563
-343.391	61.346	-0.113	0.112
-342.377	-200.000	-0.018	0.279
-341.362	-200.000	-0.023	-0.137
-340.348	137.159	0.244	0.319
-339.333	-200.000	0.015	0.418
-338.318	-200.000	-0.006	-0.129
-337.304	-67.314	-0.220	-0.086
-336.289	-26.332	0.121	-0.071
-335.275	-105.374	0.264	-0.060
-334.260	-200.000	0.030	-0.235
-333.245	346.188	0.118	-0.232
-332.231	27.247	-0.206	-0.173
-331.216	-200.000	0.034	0.169
-330.202	-120.119	-0.344	0.059
-329.187	-119.012	-0.370	-0.065
-328.172	-200.000	0.005	-0.204
-327.158	-110.513	-0.214	0.044
-326.143	55.702	0.191	0.185
-325.129	-131.694	0.225	0.030
-324.114	-61.020	0.073	0.031
-323.099	49.683	-0.216	-0.203
-322.085	168.330	0.108	-0.154
-321.070	-118.437	0.156	0.028
-320.056	-72.053	-0.213	-0.079
-319.041	776.543	0.067	0.184
-318.026	-39.972	0.210	-0.110
-317.012	43.952	-0.095	0.087
-315.997	299.989	-0.176	-0.325
-314.983	-36.682	0.055	-0.030
-313.968	116.260	0.134	0.164
-312.953	-131.000	-0.257	0.034
-311.939	160.291	0.073	-0.102
-310.924	-200.000	-0.037	0.243
-309.910	-200.000	0.040	0.216
-308.895	-200.000	-0.024	0.168
-307.880	-27.893	-0.094	0.055
-306.866	-126.198	0.314	0.047
-305.851	62.810	-0.126	0.126
-304.837	608.321	-0.052	0.130
-303.822	800.000	-0.056	-0.222
-302.807	17.341	0.188	-0.149
-301.793	53.497	-0.077	-0.074
-300.778	-200.000	-0.011	-0.242
-299.764	76.430	-0.127	-0.134
-298.749	460.211	-0.124	0.277
-297.735	188.011	0.159	0.237
-296.720	13.519	0.031	-0.024
-295.705	800.000	-0.018	0.066
-294.691	-200.000	0.007	-0.048
-293.676	800.000	0.104	0.306
-292.662	774.332	0.111	0.303
-291.647	-150.297	0.099	0.008
-290.632	84.052	0.213	-0.232
-289.618	-192.909	-0.252	0.002
-288.603	800.000	-0.101	0.287
-287.589	-114.226	0.128	0.025
-286.574	-47.630	-0.081	-0.039
-285.559	-91.235	0.286	-0.082
-284.545	-126.969	0.214	0.032
-283.530	109.303	-0.125	-0.149
-282.516	-200.000	-0.041	0.276
-281.501	-63.063	0.247	-0.102
-280.486	800.000	-0.075	0.294
-279.472	28.864	-0.251	0.213
-278.457	-24.049	-0.162	0.097
-277.443	198.220	0.046	0.071
-276.428	495.058	-0.135	0.309
-275.413	121.585	-0.157	-0.195
-274.399	61.288	0.338	0.335
-273.384	341.798	0.066	0.129
-272.370	800.000	0.110	-0.318
-271.355	60.676	0.064	-0.063
-270.340	-106.402	0.128	-0.029
-269.326	94.890	-0.088	0.099
-268.311	570.907	-0.089	0.216
-267.297	800.000	0.044	0.184
-266.282	72.867	0.084	0.087
-265.267	-11.596	0.072	0.048
-264.253	-15.395	-0.408	-0.260
-263.238	-100.687	0.315	0.078
-262.224	-121.582	0.170	-0.028
-261.209	-174.153	-0.109	0.003
-260.195	-200.000	-0.020	-0.156
-259.180	7.664	0.195	-0.145
-258.165	169.418	-0.104	-0.149
-257.151	547.782	-0.026	-0.063
-256.136	15.219	-0.356	0.278
-255.122	81.642	-0.123	0.133
-254.107	-200.000	0.002	0.055
-253.092	572.246	0.024	0.058
-252.078	373.397	0.054	0.110
-251.063	-200.000	-0.001	0.111
-250.049	-200.000	0.066	-0.358
-249.034	-200.000	0.018	-0.190
-248.019	22.050	0.180	-0.147
-247.005	-44.126	-0.308	-0.154
-245.990	800.000	-0.061	0.180
-244.976	96.868	-0.037	0.042
-243.961	800.000	0.046	0.131
-242.946	-6.019	0.211	-0.144
-241.932	-63.310	-0.330	-0.136
-240.917	130.251	-0.182	0.233
-239.903	-16.522	0.311	0.197
-238.888	167.972	0.102	0.145
-237.873	-169.941	-0.015	-0.001
-236.859	-14.455	0.062	0.040
-235.844	-31.904	0.444	-0.248
-234.830	-21.118	-0.285	0.174
-233.815	-51.115	-0.127	-0.059
-232.800	800.000	0.030	0.110
-231.786	-35.528	0.188	-0.102
-230.771	122.156	0.215	-0.267
-229.757	136.984	0.163	-0.212
-228.742	196.662	-0.211	0.320
-227.727	515.736	-0.083	0.193
-226.713	144.723	-0.227	0.302
-225.698	96.496	-0.181	-0.206
-224.684	35.313	0.035	0.031
-223.669	-13.087	0.137	-0.089
-222.655	517.693	0.030	-0.070
-221.640	-5.306	0.188	-0.129
-220.625	-163.673	-0.400	-0.019
-219.611	-113.897	-0.179	-0.035
-218.596	225.647	0.099	-0.160
-217.582	-41.973	0.320	-0.163
-216.567	-50.601	-0.067	0.031
-215.552	133.659	-0.083	0.107
-214.538	800.000	0.037	-0.159
-213.523	800.000	-0.019	-0.067
-212.509	-146.067	0.434	0.038
-211.494	1.491	0.148	-0.106
-210.479	800.000	-0.101	-0.316
-209.465	40.156	0.206	0.185
-208.450	331.942	0.173	-0.333
-207.436	-200.000	0.009	-0.158
-206.421	-200.000	-0.051	0.321
-205.406	-58.526	-0.025	-0.011
-204.392	88.256	-0.306	-0.338
-203.377	800.000	-0.089	-0.386
-202.363	-200.000	0.000	0.115
-201.348	-64.573	0.133	0.054
-200.333	152.118	0.145	-0.198
-199.319	-50.160	0.086	-0.040
-198.304	-157.932	0.163	-0.010
-197.290	-200.000	-0.001	-0.045
-196.275	-71.250	-0.403	-0.151
-195.260	-99.251	0.382	-0.096
-194.246	2.456	0.018	0.013
-193.231	800.000	-0.073	-0.230
-192.217	-200.000	-0.041	0.322
-191.202	277.279	-0.243	-0.431
-190.187	-31.021	0.252	0.142
-189.173	-4.183	0.358	0.247
-188.158	-50.681	-0.421	0.198
-187.144	-19.909	-0.123	-0.076
-186.129	-200.000	-0.015	0.079
-185.114	-135.581	-0.265	-0.031
-184.100	800.000	-0.072	0.251
-183.085	800.000	-0.054	-0.215
-182.071	9.278	0.094	-0.071
-181.056	800.000	-0.036	-0.099
-180.042	66.438	0.198	0.200
-179.027	-76.626	-0.170	-0.059
-178.012	-61.206	-0.477	-0.200
-176.998	-93.702	0.363	0.100
-175.983	1.842	0.326	0.234
-174.969	98.562	-0.089	-0.102
-173.954	-83.849	-0.097	0.031
-172.939	-39.258	0.326	0.170
-171.925	-200.000	-0.018	0.096
-170.910	-163.259	-0.157	0.007
-169.896	-90.735	-0.144	-0.041
-168.881	-91.318	-0.088	-0.025
-167.866	-139.061	0.286	0.031
-166.852	-200.000	-0.019	0.171
-165.837	598.376	-0.140	0.345
-164.823	47.100	-0.122	0.113
-163.808	-123.348	-0.220	-0.035
-162.793	-83.806	-0.351	0.111
-161.779	-200.000	0.006	-0.317
-160.764	25.633	-0.174	0.144
-159.750	-200.000	-0.011	0.083
-158.735	-45.604	0.226	-0.111
-157.720	220.596	-0.211	0.337
-156.706	-200.000	0.015	-0.193
-155.691	-14.651	-0.091	0.058
-154.677	142.857	-0.276	0.365
-153.662	464.980	0.228	-0.508
-152.647	800.000	-0.016	-0.060
-151.633	-29.828	0.349	0.198
-150.618	-33.903	0.332	-0.182
-149.604	-11.262	0.064	0.042
-148.589	-81.082	-0.228	0.075
-147.574	-88.822	0.275	-0.081
-146.560	-151.880	0.186	0.014
-145.545	55.150	-0.036	0.035
-144.531	800.000	-0.047	0.145
-143.516	122.997	0.108	-0.135
-142.502	-46.366	-0.255	-0.124
-141.487	-200.000	-0.030	0.253
-140.472	312.409	-0.059	0.110
-139.458	-98.642	-0.267	-0.068
-138.443	-80.325	-0.261	-0.087
-137.429	-188.774	-0.082	-0.001
-136.414	108.460	0.144	-0.171
-135.399	-75.133	0.262	0.093
-134.385	329.078	0.218	-0.416
-133.370	-60.168	-0.137	0.058
-132.356	107.586	0.080	0.094
-131.341	170.837	-0.097	0.138
-130.326	-163.110	0.097	0.005
-129.312	689.912	0.070	-0.182
-128.297	217.693	-0.076	0.120
-127.283	486.888	0.099	0.223
-126.268	-3.836	-0.128	0.088
-125.253	160.748	-0.107	-0.149
-124.239	-0.250	-0.042	-0.030
-123.224	0.107	-0.087	-0.062
-122.210	3.718	0.153	-0.111
-121.195	800.000	0.057	-0.223
-120.180	-72.539	0.495	-0.182
-119.166	-67.109	0.133	0.052
-118.151	208.629	0.274	0.426
-117.137	44.763	-0.259	-0.236
-116.122	-144.499	-0.103	-0.009
-115.107	-200.000	0.000	-0.047
-114.093	-188.350	0.447	-0.006
-113.078	-200.000	0.017	0.087
-112.064	-98.640	0.364	-0.092
-111.049	-200.000	-0.019	-0.290
-110.034	800.000	-0.058	0.221
-109.020	-200.000	-0.001	-0.057
-108.005	45.174	0.135	-0.124
-106.991	244.205	-0.183	0.304
-105.976	800.000	0.057	0.158
-104.962	-10.871	-0.155	0.102
-103.947	-200.000	0.005	0.137
-102.932	-70.724	-0.057	-0.021
-101.918	-131.463	-0.154	-0.020
-100.903	133.372	-0.108	-0.138
-99.889	800.000	0.116	-0.400
-98.874	-90.920	0.435	0.124
-97.859	104.839	0.264	-0.309
-96.845	-132.416	0.163	0.021
-95.830	-122.364	-0.196	0.032
-94.816	6.260	0.196	-0.144
-93.801	-130.631	-0.238	0.032
-92.786	800.000	0.049	0.140
-91.772	-106.347	0.198	-0.044
-90.757	6.162	0.304	-0.224
-89.743	22.730	-0.041	0.033
-88.728	85.525	0.034	0.037
-87.713	341.726	0.113	-0.219
-86.699	-147.835	-0.189	-0.016
-85.684	800.000	-0.085	0.270
-84.670	-200.000	-0.010	-0.227
-83.655	-200.000	0.066	0.467
-82.640	-3.073	-0.178	-0.123
-81.626	751.130	0.097	0.259
-80.611	17.082	-0.057	0.044
-79.597	-115.278	0.397	0.074
-78.582	309.055	0.103	-0.190
-77.567	-22.757	0.239	-0.143
-76.553	186.424	-0.100	-0.147
-75.538	800.000	-0.001	0.004
-74.524	62.247	0.133	0.131
-73.509	-200.000	-0.020	-0.149
-72.494	-63.172	0.408	-0.167
-71.480	-128.871	-0.182	0.025
-70.465	199.063	0.136	0.207
-69.451	-61.604	0.141	0.059
-68.436	-200.000	0.007	0.223
-67.422	-86.263	0.262	0.080
-66.407	-200.000	-0.003	-0.081
-65.392	-87.047	-0.237	-0.072
-64.378	-200.000	0.005	0.235
-63.363	-24.121	-0.213	-0.126
-62.349	800.000	-0.073	0.219
-61.334	60.116	-0.607	-0.594
-60.319	24.731	0.676	0.554
-59.305	-200.000	-0.255	-1.163
-58.290	212.157	0.611	0.953
-57.276	736.659	0.543	1.442
-56.261	-200.000	94.812	577.578
-55.246	561.722	1370.752	3282.793
-54.232	151.280	2587.250	3487.247
-53.217	107.608	2315.287	2728.943
-52.203	42.425	2065.501	1859.900
-51.188	37.257	1978.545	1735.501
-50.173	35.693	1960.037	1705.333
-49.159	50.456	2011.894	1883.502
-48.144	53.694	2031.638	1931.023
-47.130	37.923	1988.298	1749.752
-46.115	35.490	1976.643	1717.691
-45.100	35.413	1974.200	1714.815
-44.086	35.430	1971.468	1712.522
-43.071	35.302	1969.136	1709.293
-42.057	35.317	1966.396	1706.980
-41.042	35.371	1964.988	1706.168
-40.027	35.430	1962.923	1704.827
-39.013	35.349	1960.916	1702.303
-37.998	35.448	1958.839	1701.308
-36.984	35.506	1957.179	1700.316
-35.969	35.417	1955.739	1698.208
-34.954	35.511	1953.377	1696.918
-33.940	35.503	1951.946	1695.533
-32.925	35.493	1951.181	1694.714
-31.911	35.477	1949.090	1692.693
-30.896	35.441	1947.833	1691.218
-29.881	35.513	1946.671	1690.777
-28.867	35.599	1944.226	1689.345
-27.852	35.610	1942.926	1688.240
-26.838	35.619	1940.539	1686.179
-25.823	35.540	1938.860	1683.962
-24.809	35.541	1937.458	1682.687
-23.794	35.580	1935.776	1681.495
-22.779	35.507	1933.504	1678.820
-21.765	35.539	1931.750	1677.510
-20.750	35.457	1930.800	1675.904
-19.736	35.454	1929.669	1674.830
-18.721	35.506	1927.879	1673.658
-17.706	35.521	1926.450	1672.487
-16.692	35.451	1924.181	1669.842
-15.677	35.516	1922.747	1669.093
-14.663	35.540	1921.400	1668.069
-13.648	35.552	1920.265	1667.123
-12.633	35.526	1918.990	1665.718
-11.619	35.492	1917.898	1664.416
-10.604	35.497	1916.449	1663.133
-9.590	35.497	1915.215	1661.993
-8.575	35.531	1913.697	1660.910
-7.560	35.511	1912.112	1659.293
-6.546	35.437	1910.987	1657.612
-5.531	35.571	1909.361	1657.294
-4.517	35.553	1908.235	1656.094
-3.502	35.542	1906.964	1654.825
-2.487	35.481	1905.994	1653.396
-1.473	35.510	1905.752	1653.373
-0.458	35.423	1901.249	1648.653
0.556	35.452	1881.663	1621.984
1.571	31.339	1862.810	1571.092
2.586	27.596	1885.128	1557.853
3.600	26.507	1921.631	1578.390
4.615	26.149	1917.310	1571.581
5.629	20.109	1815.661	1438.179
6.644	8.505	1691.407	1249.427
7.659	2.427	1650.563	1172.687
8.673	1.881	1646.572	1165.573
9.688	1.821	1645.630	1164.342
10.702	1.813	1643.709	1162.821
11.717	1.545	1640.667	1158.519
12.731	2.086	1639.831	1161.944
13.746	9.168	1656.798	1228.175
14.761	19.991	1681.120	1329.638
15.775	25.202	1690.245	1376.849
16.790	26.110	1690.563	1383.956
17.804	26.179	1690.651	1384.434
18.819	26.135	1690.039	1383.472
19.834	26.295	1689.653	1384.254
20.848	26.433	1689.168	1384.797
21.863	26.627	1687.814	1385.050
22.877	26.587	1687.174	1384.096
23.892	26.604	1685.635	1382.841
24.907	26.523	1685.005	1381.579
25.921	26.623	1684.031	1381.419
26.936	26.510	1683.419	1379.936
27.950	26.641	1681.552	1379.284
28.965	26.698	1680.631	1378.839
29.980	26.672	1680.240	1378.197
30.994	26.631	1678.918	1376.680
32.009	26.604	1677.893	1375.508
33.023	26.588	1676.555	1374.171
34.038	26.671	1675.593	1373.893
35.053	26.574	1674.862	1372.436
36.067	26.593	1673.995	1371.748
37.082	26.679	1672.885	1371.366
38.096	26.628	1672.161	1370.269
39.111	26.639	1671.190	1369.433
40.126	26.537	1671.095	1368.462
41.140	26.607	1669.694	1367.719
42.155	26.607	1668.336	1366.490
43.169	26.622	1667.327	1365.656
44.184	26.557	1666.713	1364.543
45.199	26.504	1665.726	1363.210
46.213	26.543	1664.323	1362.241
47.228	26.556	1663.194	1361.290
48.242	26.568	1662.221	1360.464
49.257	26.594	1661.270	1359.763
50.271	26.683	1659.395	1358.772
51.286	26.552	1658.768	1357.157
52.301	26.556	1657.293	1355.857
53.315	26.647	1655.776	1355.182
54.330	26.513	1654.515	1353.025
55.344	26.455	1653.520	1351.661
56.359	26.520	1651.962	1350.753
57.374	26.593	1650.813	1350.235
58.388	26.577	1649.756	1349.137
59.403	26.574	1648.894	1348.288
60.417	26.694	1647.558	1347.966
61.432	26.663	1646.373	1346.650
62.447	26.577	1645.601	1345.263
63.461	26.635	1644.521	1344.688
64.476	26.611	1643.523	1343.579
65.490	26.560	1642.982	1342.636
66.505	26.630	1641.475	1341.803
67.520	26.530	1641.272	1340.779
68.534	26.579	1640.238	1340.176
69.549	26.648	1638.785	1339.382
70.563	26.494	1637.717	1337.256
71.578	26.651	1636.683	1337.451
72.593	26.552	1636.031	1336.071
73.607	26.650	1635.002	1335.833
74.622	26.651	1633.484	1334.479
75.636	26.615	1632.944	1333.657
76.651	26.654	1632.027	1333.075
77.666	26.594	1631.516	1332.098
78.680	26.617	1630.536	1331.350
79.695	26.617	1629.288	1330.212
80.709	26.589	1628.490	1329.242
81.724	26.615	1627.804	1328.753
82.739	26.627	1627.177	1328.213
83.753	26.634	1625.437	1326.723
84.768	26.593	1624.916	1325.881
85.782	26.606	1623.922	1325.048
86.797	26.528	1623.620	1324.113
87.812	26.573	1622.377	1323.315
88.826	26.600	1621.108	1322.357
89.841	26.685	1620.260	1322.167
90.855	26.619	1619.345	1320.827
91.870	26.602	1618.190	1319.644
92.884	26.590	1617.754	1319.079
93.899	26.610	1617.023	1318.513
94.914	26.695	1615.264	1317.583
95.928	26.748	1613.753	1316.616
96.943	26.625	1613.382	1315.306
97.957	26.643	1612.176	1314.336
98.972	26.662	1610.193	1312.739
99.987	26.684	1608.810	1311.657
101.001	26.605	1607.661	1310.033
102.016	26.671	1606.012	1309.048
103.030	26.546	1605.069	1307.263
104.045	26.612	1603.929	1306.698
105.060	26.585	1602.790	1305.453
106.074	26.675	1601.224	1304.714
107.089	26.594	1600.509	1303.433
108.103	26.672	1599.221	1302.830
109.118	26.696	1598.005	1301.893
110.133	26.639	1596.866	1300.441
111.147	26.742	1595.862	1300.253
112.162	26.602	1595.170	1298.569
113.176	26.716	1593.551	1297.950
114.191	26.681	1592.626	1296.830
115.206	26.735	1591.298	1296.022
116.220	26.725	1590.244	1294.977
117.235	26.665	1589.313	1293.676
118.249	26.679	1588.081	1292.659
119.264	26.774	1586.716	1292.113
120.279	26.762	1585.628	1291.027
121.293	26.814	1584.109	1290.041
122.308	26.747	1583.550	1289.000
123.322	26.782	1582.523	1288.297
124.337	26.778	1581.128	1287.018
125.352	26.784	1580.404	1286.360
126.366	26.765	1579.012	1284.980
127.381	26.791	1578.389	1284.540
128.395	26.813	1577.434	1283.806
129.410	26.801	1576.128	1282.542
130.424	26.778	1575.163	1281.484
131.439	26.747	1573.759	1280.008
132.454	26.745	1572.988	1279.252
133.468	26.718	1571.560	1277.786
134.483	26.738	1570.163	1276.678
135.497	26.717	1568.849	1275.348
136.512	26.809	1567.861	1275.079
137.527	26.751	1567.063	1273.913
138.541	26.791	1565.937	1273.164
139.556	26.801	1564.435	1271.903
140.570	26.830	1563.088	1270.895
141.585	26.690	1562.508	1269.332
142.600	26.745	1561.534	1268.811
143.614	26.818	1559.736	1267.753
144.629	26.684	1559.412	1266.440
145.643	26.869	1557.824	1266.331
146.658	26.772	1556.739	1264.655
147.673	26.696	1555.051	1262.648
148.687	26.761	1554.319	1262.391
149.702	26.798	1553.167	1261.603
150.716	26.718	1551.601	1259.662
151.731	26.708	1550.814	1258.841
152.746	26.796	1549.926	1258.618
153.760	26.831	1548.429	1257.535
154.775	26.796	1547.364	1256.320
155.789	26.793	1546.684	1255.637
156.804	26.768	1545.651	1254.512
157.819	26.916	1543.980	1254.066
158.833	26.868	1543.308	1253.080
159.848	26.865	1542.810	1252.542
160.862	26.864	1541.609	1251.453
161.877	26.765	1540.942	1250.116
162.892	26.753	1539.636	1248.862
163.906	26.833	1538.872	1248.682
164.921	26.854	1537.500	1247.606
165.935	26.911	1536.696	1247.232
166.950	26.978	1535.626	1246.714
167.964	26.947	1534.970	1245.857
168.979	26.899	1533.998	1244.632
169.994	26.892	1533.168	1243.799
171.008	26.930	1532.109	1243.091
172.023	26.926	1531.498	1242.456
173.037	26.939	1530.082	1241.285
174.052	26.941	1529.209	1240.486
175.067	26.952	1528.018	1239.481
176.081	26.988	1527.479	1239.180
177.096	27.017	1526.230	1238.259
178.110	27.007	1525.079	1237.146
179.125	26.957	1524.314	1236.076
180.140	26.979	1523.019	1235.066
181.154	27.010	1522.309	1234.591
182.169	26.940	1521.567	1233.406
183.183	26.920	1520.896	1232.611
184.198	26.910	1519.868	1231.605
185.213	26.964	1518.967	1231.132
186.227	26.979	1518.175	1230.481
187.242	26.995	1517.323	1229.793
188.256	26.991	1516.513	1229.000
189.271	27.063	1515.329	1228.419
190.286	27.021	1514.770	1227.572
191.300	27.076	1513.815	1227.060
192.315	27.096	1512.507	1226.026
193.329	26.915	1512.036	1224.316
194.344	26.975	1511.102	1223.855
195.359	27.088	1510.364	1223.909
196.373	27.067	1509.455	1222.925
197.388	27.117	1508.511	1222.386
198.402	26.959	1507.990	1220.797
199.417	26.985	1506.925	1219.996
200.432	26.960	1506.071	1219.030
201.446	26.897	1505.813	1218.292
202.461	27.028	1504.535	1218.031
203.475	26.965	1503.940	1217.019
204.490	26.959	1503.075	1216.166
205.504	26.974	1502.045	1215.328
206.519	26.909	1501.461	1214.314
207.534	26.990	1500.240	1213.763
208.548	27.104	1499.339	1213.683
209.563	27.084	1499.101	1213.249
210.577	26.998	1498.263	1211.892
211.592	27.093	1497.188	1211.550
212.607	27.039	1496.624	1210.627
213.621	27.022	1496.091	1209.975
214.636	27.156	1494.893	1209.787
215.650	27.189	1493.956	1209.142
216.665	27.150	1493.233	1208.195
217.680	27.148	1492.221	1207.256
218.694	27.047	1492.151	1206.422
219.709	27.249	1490.944	1206.675
220.723	27.175	1489.812	1205.165
221.738	27.254	1488.918	1204.854
222.753	27.240	1487.771	1203.728
223.767	26.966	1487.773	1201.813
224.782	26.970	1486.708	1200.871
225.796	27.147	1485.567	1201.011
226.811	27.247	1484.782	1200.933
227.826	27.163	1484.416	1199.974
228.840	27.226	1483.717	1199.721
229.855	27.227	1482.713	1198.807
230.869	27.151	1481.942	1197.581
231.884	27.172	1481.153	1196.974
232.899	27.157	1480.055	1195.880
233.913	27.171	1479.227	1195.197
234.928	27.180	1477.968	1194.132
235.942	27.149	1476.974	1193.022
236.957	27.251	1475.668	1192.528
237.972	27.389	1474.764	1192.598
238.986	27.148	1474.244	1190.495
240.001	27.227	1473.205	1190.066
241.015	27.267	1471.855	1189.131
242.030	27.299	1470.944	1188.502
243.045	27.340	1470.437	1188.252
244.059	27.396	1469.572	1187.816
245.074	27.389	1468.859	1187.084
246.088	27.340	1468.011	1185.976
247.103	27.383	1467.022	1185.352
248.117	27.440	1466.377	1185.096
249.132	27.464	1465.734	1184.629
250.147	27.394	1464.722	1183.253
251.161	27.540	1464.178	1183.660
252.176	27.513	1463.874	1183.135
253.190	27.495	1462.892	1182.119
254.205	27.427	1461.868	1180.742
255.220	27.467	1461.142	1180.315
256.234	27.405	1460.488	1179.277
257.249	27.548	1459.243	1179.091
258.263	27.539	1458.971	1178.708
259.278	27.582	1457.969	1178.076
260.293	27.565	1457.198	1177.238
261.307	27.629	1456.327	1176.846
262.322	27.517	1456.060	1175.798
263.336	27.533	1455.566	1175.400
264.351	27.512	1454.344	1174.171
265.366	27.596	1453.021	1173.545
266.380	27.556	1452.461	1172.729
267.395	27.587	1451.142	1171.761
268.409	27.587	1450.680	1171.281
269.424	27.635	1449.858	1170.826
270.439	27.492	1449.247	1169.311
271.453	27.600	1447.839	1168.765
272.468	27.631	1447.055	1168.226
273.482	27.598	1446.606	1167.547
274.497	27.613	1446.021	1167.071
275.512	27.647	1444.829	1166.223
276.526	27.673	1444.346	1165.896
277.541	27.720	1443.468	1165.381
278.555	27.681	1442.789	1164.480
279.570	27.703	1441.848	1163.762
280.585	27.747	1440.865	1163.145
281.599	27.624	1440.342	1161.834
282.614	27.723	1439.379	1161.586
283.628	27.615	1438.817	1160.345
284.643	27.683	1437.631	1159.718
285.657	27.789	1436.378	1159.275
286.672	27.692	1435.729	1158.031
287.687	27.647	1435.462	1157.428
288.701	27.661	1434.202	1156.402
289.716	27.759	1432.981	1155.932
290.730	27.762	1432.988	1155.856
291.745	27.701	1432.205	1154.737
292.760	27.776	1430.691	1153.890
293.774	27.930	1429.935	1154.150
294.789	27.794	1429.306	1152.683
295.803	27.714	1428.654	1151.545
296.818	27.815	1427.432	1151.100
297.833	27.788	1427.166	1150.610
298.847	27.842	1425.932	1149.857
299.862	27.896	1425.195	1149.495
300.876	27.918	1424.067	1148.625
301.891	27.855	1423.549	1147.711
302.906	27.859	1423.070	1147.245
303.920	27.929	1422.452	1147.086
304.935	27.903	1421.604	1146.141
305.949	27.959	1420.758	1145.708
306.964	27.870	1420.335	1144.708
307.979	27.965	1418.846	1143.998
308.993	27.931	1418.356	1143.288
310.008	27.923	1417.827	1142.712
311.022	27.963	1416.261	1141.600
312.037	28.004	1415.119	1140.836
313.052	28.053	1414.595	1140.618
314.066	28.084	1413.770	1140.042
315.081	28.013	1412.821	1138.731
316.095	27.925	1412.438	1137.778
317.110	28.095	1411.235	1137.762
318.125	27.938	1410.660	1136.221
319.139	28.091	1409.567	1136.194
320.154	28.137	1408.884	1135.826
321.168	28.072	1407.968	1134.589
322.183	28.076	1406.953	1133.690
323.197	28.100	1406.109	1133.060
324.212	28.039	1405.184	1131.838
325.227	28.070	1404.642	1131.494
326.241	28.178	1403.745	1131.336
327.256	28.142	1402.843	1130.290
328.270	28.152	1402.286	1129.798
329.285	28.126	1401.863	1129.202
330.300	28.099	1400.940	1128.188
331.314	28.145	1400.033	1127.643
332.329	28.147	1399.575	1127.185
333.343	28.231	1398.173	1126.475
334.358	28.220	1397.489	1125.758
335.373	28.249	1397.022	1125.462
336.387	28.344	1396.019	1125.136
337.402	28.285	1395.373	1124.155
338.416	28.284	1394.521	1123.362
339.431	28.302	1394.500	1123.352
340.446	28.238	1394.074	1122.521
341.460	28.263	1392.978	1121.694
342.475	28.381	1392.147	1121.647
343.489	28.315	1391.320	1120.477
344.504	28.261	1390.630	1119.491
345.519	28.247	1389.316	1118.248
346.533	28.340	1388.342	1117.933
347.548	28.392	1387.447	1117.430
348.562	28.385	1386.648	1116.644
349.577	28.463	1385.997	1116.497
350.592	28.388	1385.409	1115.469
351.606	28.351	1384.855	1114.697
352.621	28.413	1383.205	1113.647
353.635	28.305	1382.406	1112.250
354.650	28.376	1381.871	1112.155
355.665	28.324	1381.656	1111.564
356.679	28.291	1380.436	1110.283
357.694	28.425	1379.151	1109.966
358.708	28.509	1378.060	1109.497
359.723	28.530	1376.630	1108.376
360.738	28.615	1375.544	1107.916
361.752	28.462	1374.570	1106.113
362.767	28.432	1373.378	1104.871
363.781	28.495	1372.619	1104.545
364.796	28.569	1372.258	1104.601
365.810	28.633	1371.059	1103.922
366.825	28.549	1370.935	1103.218
367.840	28.651	1369.853	1102.862
368.854	28.608	1369.298	1102.062
369.869	28.681	1368.579	1101.826
370.883	28.695	1368.053	1101.388
371.898	28.540	1367.810	1100.166
372.913	28.709	1366.716	1100.199
373.927	28.670	1365.896	1099.206
374.942	28.654	1365.256	1098.501
375.956	28.738	1364.846	1098.575
376.971	28.706	1364.148	1097.725
377.986	28.695	1363.132	1096.744
379.000	28.695	1362.080	1095.804
380.015	28.656	1361.437	1094.956
381.029	28.705	1361.357	1095.085
382.044	28.866	1360.008	1094.860
383.059	28.944	1359.042	1094.454
384.073	28.876	1359.055	1093.959
385.088	28.823	1358.742	1093.300
386.102	28.721	1358.265	1092.209
387.117	28.810	1357.363	1091.916
388.132	28.803	1356.706	1091.249
389.146	28.731	1355.755	1089.960
390.161	28.807	1354.864	1089.598
391.175	28.877	1354.591	1089.697
392.190	28.816	1353.660	1088.492
393.205	28.864	1353.473	1088.531
394.219	28.849	1352.236	1087.349
395.234	28.904	1350.770	1086.397
396.248	28.857	1350.074	1085.465
397.263	29.031	1348.663	1085.263
398.278	29.095	1347.485	1084.594
399.292	29.008	1346.846	1083.472
400.307	29.058	1345.947	1082.949
401.321	28.975	1345.376	1081.905
402.336	28.966	1344.118	1080.747
403.350	28.935	1343.278	1079.789
404.365	28.918	1342.521	1078.988
405.380	28.970	1341.324	1078.236
406.394	29.022	1340.562	1077.830
407.409	29.060	1340.091	1077.582
408.423	29.064	1339.182	1076.778
409.438	29.123	1338.463	1076.448
410.453	29.116	1338.252	1076.144
411.467	29.156	1337.298	1075.511
412.482	29.186	1336.796	1075.189
413.496	29.120	1336.193	1074.225
414.511	29.186	1334.789	1073.386
415.526	29.182	1334.682	1073.178
416.540	29.175	1333.995	1072.490
417.555	29.157	1333.041	1071.526
418.569	29.141	1332.461	1070.869
419.584	29.123	1332.519	1070.717
420.599	29.134	1331.956	1070.239
421.613	92.647	1347.081	1439.226
422.628	92.261	1349.242	1439.346
