DTS Sentinel unit serial number:	SN413079Multiplexer serial number:	ORYXHardware model number:	OX4-SRSoftware version number:	ORYX F/W v4.00 Oryx Data Collector v3.7.2.0data status	okinstallation	princeton_trtdifferential loss correction	single-endedforward channel	channel 4reverse channel	N/Adate	2019/09/12time	04:51:11forward acquisition time	60.00reverse acquisition time	0.00gamma	496.2192k internal	0.2310k external	0.2310temperature offset calibration	1.0090default loss term (dB/km)	0.3790temperature slope calibration	1.0000multiplexer offset coefficient	1.0000multiplexer slope coefficient	1.0000fibre end	0.00T internal ref (°C)	31.66T ext. ref 1 (°C)	1.97T ext. ref 2 (°C)	27.21length (m)	temperature (°C)	Stokes	anti-Stokes-747.200	381.137	0.056	-0.117
-746.185	327.305	0.132	-0.258
-745.171	360.690	0.069	-0.141
-744.156	-200.000	0.094	0.543
-743.142	88.957	-0.169	0.191
-742.127	573.509	0.044	0.109
-741.112	-200.000	0.028	-0.286
-740.098	-96.276	0.206	0.055
-739.083	-78.524	0.248	-0.086
-738.069	98.283	0.060	0.070
-737.054	-66.574	0.262	0.106
-736.039	182.384	-0.198	-0.296
-735.025	-200.000	0.001	-0.085
-734.010	-60.339	-0.364	-0.157
-732.996	-200.000	-0.023	-0.278
-731.981	-41.521	-0.406	0.212
-730.966	-39.897	0.379	-0.201
-729.952	-200.000	0.000	-0.192
-728.937	51.479	-0.162	-0.156
-727.923	123.491	-0.168	-0.214
-726.908	61.893	-0.278	-0.281
-725.894	-190.257	-0.406	-0.005
-724.879	-5.778	0.233	0.162
-723.864	479.555	-0.026	-0.060
-722.850	800.000	-0.048	0.201
-721.835	-56.442	0.234	0.106
-720.821	-134.145	-0.349	0.044
-719.806	-197.251	0.332	0.002
-718.791	800.000	0.038	-0.115
-717.777	-24.163	-0.082	-0.050
-716.762	-200.000	-0.020	-0.332
-715.748	518.285	0.105	-0.249
-714.733	-43.415	-0.027	-0.014
-713.718	-20.532	-0.104	-0.065
-712.704	800.000	-0.004	-0.014
-711.689	34.376	-0.124	0.110
-710.675	378.158	0.126	0.262
-709.660	-94.981	0.275	-0.076
-708.645	147.937	0.147	0.202
-707.631	-200.000	-0.013	-0.082
-706.616	728.557	0.065	-0.175
-705.602	800.000	0.125	-0.435
-704.587	-78.433	0.479	-0.167
-703.572	728.555	-0.005	-0.013
-702.558	-104.779	-0.196	0.046
-701.543	-120.773	-0.292	0.050
-700.529	-120.390	0.471	-0.081
-699.514	-53.581	-0.190	-0.088
-698.499	87.176	-0.132	-0.148
-697.485	-200.000	0.002	0.084
-696.470	-45.202	-0.290	-0.146
-695.456	-139.555	0.265	0.029
-694.441	37.793	0.129	0.116
-693.426	-200.000	-0.009	-0.269
-692.412	118.612	0.369	-0.461
-691.397	437.917	-0.078	0.172
-690.383	-200.000	-0.044	-0.000
-689.368	-29.386	-0.082	0.048
-688.354	16.722	-0.090	0.072
-687.339	-128.184	-0.093	-0.013
-686.324	-200.000	-0.015	-0.345
-685.310	-45.701	0.086	0.043
-684.295	800.000	-0.060	-0.239
-683.281	-200.000	0.018	-0.095
-682.266	-48.485	0.202	0.099
-681.251	572.624	0.030	-0.075
-680.237	47.889	0.103	0.098
-679.222	-104.648	-0.378	0.088
-678.208	530.580	0.103	-0.247
-677.193	-16.965	0.041	-0.026
-676.178	164.670	-0.153	0.218
-675.164	133.847	-0.045	-0.059
-674.149	-200.000	-0.062	-0.293
-673.135	-91.654	0.296	-0.085
-672.120	-7.887	-0.075	0.051
-671.105	-100.808	-0.326	-0.081
-670.091	421.282	0.054	0.117
-669.076	-47.358	0.356	-0.175
-668.062	-64.297	-0.156	0.064
-667.047	-152.535	0.042	0.003
-666.032	-14.101	-0.224	-0.146
-665.018	30.817	-0.197	-0.171
-664.003	578.736	0.057	-0.142
-662.989	800.000	0.057	0.160
-661.974	800.000	0.055	-0.197
-660.959	800.000	-0.058	-0.246
-659.945	-51.489	-0.075	-0.035
-658.930	800.000	0.090	-0.373
-657.916	-171.560	0.209	-0.007
-656.901	587.886	0.029	0.072
-655.886	4.276	-0.230	-0.171
-654.872	144.896	-0.129	-0.174
-653.857	-200.000	-0.016	-0.082
-652.843	-73.035	0.196	-0.073
-651.828	800.000	-0.087	0.247
-650.814	-38.763	0.161	0.086
-649.799	128.913	0.117	0.151
-648.784	-77.242	-0.124	-0.044
-647.770	-105.251	0.214	0.050
-646.755	-17.699	-0.026	0.017
-645.741	530.437	0.088	-0.211
-644.726	-200.000	-0.008	-0.277
-643.711	-176.142	0.063	-0.002
-642.697	-113.831	-0.384	0.076
-641.682	27.582	-0.014	-0.012
-640.668	34.007	0.167	0.147
-639.653	-200.000	-0.079	-0.363
-638.638	59.563	0.244	0.243
-637.624	-155.636	0.032	-0.002
-636.609	-42.050	-0.115	0.059
-635.595	237.788	-0.187	0.313
-634.580	-114.856	0.204	0.039
-633.565	231.582	-0.222	0.369
-632.551	118.153	-0.133	0.166
-631.536	-79.668	0.307	0.105
-630.522	86.292	-0.195	-0.217
-629.507	-174.827	-0.236	-0.007
-628.492	482.948	0.177	-0.407
-627.478	-41.534	0.094	0.049
-626.463	383.912	-0.035	0.074
-625.449	-169.828	0.356	-0.013
-624.434	800.000	-0.098	-0.306
-623.419	18.950	-0.426	-0.345
-622.405	-200.000	0.056	-0.250
-621.390	-183.053	0.175	-0.003
-620.376	-142.068	0.094	-0.009
-619.361	105.675	-0.063	-0.075
-618.346	29.244	0.167	-0.144
-617.332	-71.708	0.164	-0.062
-616.317	-111.210	-0.143	0.030
-615.303	800.000	0.131	0.410
-614.288	-200.000	-0.005	-0.140
-613.273	-200.000	0.005	-0.286
-612.259	-200.000	0.012	0.231
-611.244	-72.787	0.159	-0.059
-610.230	120.388	-0.027	0.034
-609.215	200.591	-0.143	-0.223
-608.201	800.000	-0.120	-0.344
-607.186	-200.000	0.008	-0.147
-606.171	800.000	0.061	-0.199
-605.157	13.181	-0.324	0.254
-604.142	-158.048	-0.299	-0.018
-603.128	12.079	-0.035	0.027
-602.113	-44.886	0.028	0.014
-601.098	94.384	-0.059	0.068
-600.084	-152.946	-0.057	0.004
-599.069	18.260	-0.229	-0.184
-598.055	800.000	0.033	-0.128
-597.040	81.235	0.101	-0.111
-596.025	142.111	-0.180	0.241
-595.011	-38.482	-0.313	0.167
-593.996	651.721	0.040	-0.104
-592.982	391.829	-0.128	-0.268
-591.967	-200.000	-0.010	0.330
-590.952	-22.092	-0.203	-0.124
-589.938	-85.335	0.199	-0.063
-588.923	800.000	0.038	0.141
-587.909	-200.000	-0.003	0.246
-586.894	181.716	0.161	0.239
-585.879	-4.229	0.083	0.058
-584.865	-31.443	0.447	-0.254
-583.850	800.000	0.164	0.496
-582.836	204.155	0.107	0.168
-581.821	-96.178	-0.233	0.062
-580.806	800.000	0.089	-0.304
-579.792	227.182	0.107	0.176
-578.777	-200.000	-0.022	-0.631
-577.763	107.618	0.217	0.260
-576.748	-200.000	-0.016	-0.335
-575.733	800.000	-0.068	-0.208
-574.719	-47.709	-0.149	0.073
-573.704	306.363	0.149	-0.279
-572.690	-200.000	0.037	0.193
-571.675	-76.760	0.160	0.057
-570.661	-49.326	-0.074	0.036
-569.646	-193.193	0.326	-0.003
-568.631	414.527	-0.096	0.206
-567.617	224.431	-0.141	-0.231
-566.602	-89.525	0.206	-0.061
-565.588	5.349	-0.110	0.081
-564.573	-157.183	0.054	-0.003
-563.558	158.709	0.139	-0.195
-562.544	-87.901	-0.188	0.057
-561.529	238.931	-0.071	-0.119
-560.515	50.228	-0.182	0.173
-559.500	-105.907	-0.147	0.033
-558.485	20.169	-0.252	-0.205
-557.471	-109.000	-0.237	0.051
-556.456	-0.322	-0.324	0.232
-555.442	163.062	-0.275	-0.390
-554.427	800.000	-0.022	0.082
-553.412	-53.814	0.404	-0.186
-552.398	315.331	0.063	0.121
-551.383	-163.322	-0.085	-0.004
-550.369	800.000	-0.057	0.186
-549.354	-32.929	-0.067	-0.037
-548.339	50.017	-0.254	-0.241
-547.325	-80.405	-0.418	0.141
-546.310	800.000	-0.032	-0.112
-545.296	207.831	0.094	-0.148
-544.281	-128.915	-0.360	-0.051
-543.266	712.428	-0.024	-0.063
-542.252	243.970	0.064	-0.109
-541.237	-60.909	-0.075	0.032
-540.223	-200.000	0.083	-0.392
-539.208	-200.000	-0.002	-0.009
-538.193	-3.532	-0.076	0.053
-537.179	-33.491	-0.188	-0.104
-536.164	56.539	0.247	0.242
-535.150	-200.000	0.224	0.001
-534.135	-151.042	0.258	0.020
-533.121	-100.026	-0.190	0.048
-532.106	-200.000	-0.031	0.281
-531.091	-43.321	-0.191	0.097
-530.077	155.885	0.209	-0.290
-529.062	-42.379	0.065	0.034
-528.048	-93.189	-0.296	-0.083
-527.033	38.080	0.261	0.234
-526.018	-200.000	0.024	-0.240
-525.004	-63.534	0.076	-0.031
-523.989	-151.110	-0.045	0.003
-522.975	-121.221	-0.472	-0.079
-521.960	-5.218	0.420	0.291
-520.945	-200.000	-0.036	0.195
-519.931	-200.000	0.003	0.371
-518.916	-200.000	0.028	0.207
-517.902	-82.543	-0.303	0.099
-516.887	-200.000	-0.197	0.001
-515.872	4.581	-0.139	0.103
-514.858	-88.434	0.404	0.121
-513.843	-200.000	0.019	0.200
-512.829	38.607	-0.122	-0.109
-511.814	-52.384	-0.221	0.103
-510.799	21.438	0.191	-0.156
-509.785	403.661	-0.058	0.122
-508.770	-200.000	0.039	-0.300
-507.756	-200.000	-0.020	-0.229
-506.741	-62.971	-0.560	-0.233
-505.726	-98.726	0.356	0.091
-504.712	-160.973	0.148	-0.008
-503.697	156.552	-0.084	-0.117
-502.683	-140.700	0.156	0.016
-501.668	-116.676	0.347	-0.064
-500.653	-115.212	0.285	-0.054
-499.639	-200.000	0.020	0.198
-498.624	396.142	-0.023	-0.049
-497.610	-200.000	0.015	0.401
-496.595	412.577	-0.102	0.218
-495.581	-200.000	0.034	0.308
-494.566	-200.000	-0.045	-0.296
-493.551	-73.043	-0.151	0.056
-492.537	-148.832	0.349	-0.028
-491.522	204.134	-0.099	-0.155
-490.508	800.000	-0.065	-0.245
-489.493	-200.000	-0.036	-0.181
-488.478	-16.649	0.215	-0.137
-487.464	800.000	-0.045	-0.167
-486.449	-65.259	-0.402	0.163
-485.435	574.146	0.124	0.305
-484.420	139.811	0.066	-0.088
-483.405	800.000	0.049	0.185
-482.391	794.581	0.074	0.205
-481.376	99.192	0.296	0.344
-480.362	800.000	0.023	0.083
-479.347	78.960	-0.190	-0.204
-478.332	74.151	-0.226	-0.238
-477.318	-157.143	0.170	-0.010
-476.303	800.000	-0.040	-0.113
-475.289	-87.022	0.034	0.010
-474.274	-87.223	0.412	0.126
-473.259	6.465	-0.107	-0.080
-472.245	800.000	0.079	0.293
-471.230	-200.000	0.055	-0.621
-470.216	-114.866	0.367	-0.070
-469.201	800.000	-0.073	-0.249
-468.186	-200.000	-0.027	0.489
-467.172	679.916	-0.012	-0.032
-466.157	-98.096	0.215	-0.056
-465.143	198.432	-0.100	0.153
-464.128	-200.000	-0.006	0.107
-463.113	-200.000	0.006	0.286
-462.099	154.166	-0.109	-0.150
-461.084	-79.516	0.108	0.037
-460.070	-3.420	-0.215	0.150
-459.055	-70.936	0.061	0.023
-458.040	-129.733	0.100	-0.014
-457.026	800.000	0.065	0.243
-456.011	-200.000	-0.028	0.159
-454.997	-82.834	0.141	-0.046
-453.982	11.065	0.127	0.098
-452.968	-132.347	0.287	-0.037
-451.953	-200.000	-0.046	0.257
-450.938	800.000	0.059	-0.204
-449.924	-76.124	0.060	0.021
-448.909	-54.806	-0.045	0.020
-447.895	-200.000	0.074	0.381
-446.880	800.000	-0.047	-0.173
-445.865	327.026	0.109	-0.209
-444.851	-200.000	-0.006	0.122
-443.836	-31.341	0.231	0.130
-442.822	800.000	-0.037	0.133
-441.807	5.551	-0.123	0.091
-440.792	184.277	0.059	0.087
-439.778	-74.341	-0.189	-0.068
-438.763	-142.521	-0.102	0.010
-437.749	-5.036	-0.386	0.267
-436.734	-49.078	0.021	-0.010
-435.719	246.481	-0.042	-0.070
-434.705	61.265	0.248	-0.247
-433.690	800.000	-0.111	-0.406
-432.676	-28.176	0.153	0.089
-431.661	41.726	-0.137	-0.125
-430.646	-52.354	0.077	0.036
-429.632	104.132	0.310	0.366
-428.617	39.656	0.256	-0.230
-427.603	-200.000	-0.041	-0.192
-426.588	66.760	-0.024	-0.024
-425.573	-150.931	-0.553	-0.042
-424.559	-81.477	0.395	0.130
-423.544	-200.000	-0.052	-0.238
-422.530	60.504	-0.311	0.309
-421.515	-10.476	0.284	-0.189
-420.500	615.974	-0.054	0.137
-419.486	752.929	-0.037	-0.101
-418.471	-200.000	-0.046	0.231
-417.457	33.175	0.243	-0.212
-416.442	-82.619	-0.336	-0.109
-415.428	40.507	0.152	0.137
-414.413	117.339	0.135	0.167
-413.398	204.918	-0.226	0.351
-412.384	800.000	0.053	0.207
-411.369	-12.310	-0.118	0.077
-410.355	104.404	0.206	0.243
-409.340	-101.037	0.215	-0.053
-408.325	-109.159	0.349	-0.074
-407.311	800.000	0.005	0.015
-406.296	13.748	-0.218	-0.170
-405.282	254.497	0.263	0.451
-404.267	15.369	-0.256	-0.201
-403.252	-127.167	0.218	0.032
-402.238	21.350	0.173	-0.140
-401.223	265.307	0.193	0.338
-400.209	-200.000	-0.026	0.185
-399.194	-200.000	0.026	0.195
-398.179	365.392	-0.095	0.193
-397.165	293.427	0.035	0.064
-396.150	371.829	-0.150	-0.304
-395.136	329.418	-0.110	-0.212
-394.121	85.504	-0.162	0.178
-393.106	800.000	-0.070	0.215
-392.092	-168.879	-0.304	-0.011
-391.077	51.025	0.083	0.079
-390.063	-77.435	-0.085	-0.030
-389.048	-200.000	-0.013	-0.514
-388.033	-156.665	0.124	0.008
-387.019	185.035	0.145	-0.215
-386.004	299.163	-0.169	-0.311
-384.990	-115.590	-0.184	0.035
-383.975	642.059	-0.131	-0.333
-382.960	-127.391	0.313	-0.046
-381.946	-114.656	0.352	-0.068
-380.931	-164.959	0.168	-0.008
-379.917	-113.318	-0.183	0.036
-378.902	-200.000	0.023	-0.259
-377.888	-43.091	0.161	-0.082
-376.873	-95.224	-0.217	-0.059
-375.858	107.389	0.240	-0.286
-374.844	58.073	0.200	0.196
-373.829	210.444	0.067	0.105
-372.815	52.094	0.125	-0.120
-371.800	-182.431	0.239	0.004
-370.785	-137.929	0.178	0.020
-369.771	-200.000	-0.032	0.288
-368.756	239.904	-0.172	0.287
-367.742	-54.589	0.287	0.130
-366.727	85.596	0.159	0.175
-365.712	10.695	-0.045	-0.034
-364.698	-76.611	0.213	0.075
-363.683	106.383	0.032	0.037
-362.669	-64.723	-0.238	-0.096
-361.654	-102.906	0.305	0.072
-360.639	-200.000	-0.032	-0.262
-359.625	-200.000	-0.165	0.000
-358.610	-37.310	0.242	0.130
-357.596	95.044	0.159	0.181
-356.581	-200.000	-0.049	-0.312
-355.566	-53.488	-0.324	0.149
-354.552	446.657	-0.027	-0.060
-353.537	-50.286	-0.390	-0.185
-352.523	800.000	-0.031	0.093
-351.508	466.640	-0.033	0.074
-350.493	130.846	-0.093	-0.119
-349.479	-200.000	-0.003	-0.131
-348.464	-200.000	-0.012	-0.071
-347.450	-19.602	0.194	0.120
-346.435	800.000	0.065	-0.219
-345.420	-65.844	-0.017	0.007
-344.406	800.000	0.053	-0.154
-343.391	49.226	0.055	0.052
-342.377	33.179	-0.157	0.137
-341.362	-141.389	0.070	0.007
-340.348	7.440	0.180	0.135
-339.333	-200.000	0.050	-0.331
-338.318	-138.482	-0.190	-0.021
-337.304	598.010	-0.051	0.126
-336.289	485.620	0.067	-0.152
-335.275	-200.000	0.013	0.194
-334.260	-25.071	0.199	-0.118
-333.245	800.000	-0.133	0.397
-332.231	-60.219	-0.036	0.015
-331.216	-25.531	0.213	0.126
-330.202	-57.504	0.022	-0.010
-329.187	-200.000	0.021	-0.213
-328.172	657.904	-0.088	-0.227
-327.158	-200.000	-0.041	0.233
-326.143	786.610	0.041	-0.113
-325.129	588.886	0.104	-0.255
-324.114	799.954	-0.121	-0.335
-323.099	-200.000	-0.026	0.311
-322.085	101.563	0.115	-0.134
-321.070	694.462	-0.148	0.388
-320.056	-200.000	0.010	-0.067
-319.041	-200.000	-0.025	0.294
-318.026	230.330	-0.096	-0.158
-317.012	-200.000	0.001	-0.009
-315.997	-121.455	0.098	0.016
-314.983	800.000	0.093	0.363
-313.968	415.145	0.006	0.013
-312.953	-170.633	-0.331	-0.011
-311.939	624.898	0.051	-0.127
-310.924	-200.000	0.004	0.188
-309.910	-5.247	-0.238	0.163
-308.895	-200.000	-0.017	-0.091
-307.880	-200.000	-0.021	0.140
-306.866	8.134	-0.063	0.047
-305.851	-58.548	0.308	0.133
-304.837	19.851	-0.220	0.177
-303.822	-13.364	0.092	-0.060
-302.807	-200.000	0.020	-0.303
-301.793	159.290	-0.202	-0.281
-300.778	138.018	0.141	0.185
-299.764	221.802	-0.099	0.158
-298.749	-200.000	-0.009	-0.228
-297.735	800.000	0.060	-0.237
-296.720	800.000	0.056	-0.197
-295.705	125.678	0.094	0.118
-294.691	-200.000	-0.015	0.180
-293.676	302.298	-0.186	-0.344
-292.662	332.370	-0.147	-0.283
-291.647	-83.260	-0.244	0.078
-290.632	-64.130	-0.043	-0.018
-289.618	-77.623	0.173	0.060
-288.603	120.917	0.147	0.183
-287.589	800.000	-0.056	-0.169
-286.574	-9.389	-0.215	-0.143
-285.559	-121.651	-0.366	0.060
-284.545	176.395	0.094	-0.136
-283.530	-161.683	-0.316	0.016
-282.516	-98.442	-0.183	0.047
-281.501	-24.379	-0.192	-0.114
-280.486	87.944	0.181	-0.200
-279.472	-138.489	0.328	-0.036
-278.457	-200.000	-0.038	-0.175
-277.443	-33.873	0.258	-0.142
-276.428	123.609	0.047	-0.059
-275.413	76.687	-0.038	0.041
-274.399	-0.569	-0.163	-0.115
-273.384	-125.631	0.072	0.011
-272.370	-136.059	0.182	0.021
-271.355	-131.843	0.038	-0.005
-270.340	800.000	0.082	0.248
-269.326	721.290	-0.050	0.132
-268.311	124.203	0.258	-0.323
-267.297	-16.358	-0.607	0.384
-266.282	-200.000	0.000	-0.293
-265.267	222.441	0.162	-0.261
-264.253	800.000	-0.061	0.170
-263.238	460.365	-0.084	-0.186
-262.224	698.588	0.100	0.262
-261.209	800.000	0.072	0.221
-260.195	-12.502	-0.344	-0.224
-259.180	122.932	-0.150	0.188
-258.165	-24.409	-0.027	-0.016
-257.151	-200.000	0.029	-0.193
-256.136	35.625	0.175	0.153
-255.122	800.000	0.101	-0.299
-254.107	-83.346	-0.315	-0.101
-253.092	153.496	-0.045	0.062
-252.078	800.000	0.060	-0.184
-251.063	-74.141	-0.070	0.025
-250.049	-160.164	-0.209	-0.011
-249.034	800.000	0.059	0.165
-248.019	482.769	0.077	0.174
-247.005	-15.061	0.259	-0.166
-245.990	-39.489	0.359	0.187
-244.976	-200.000	-0.065	0.337
-243.961	-200.000	0.007	-0.301
-242.946	-200.000	0.026	-0.233
-241.932	-168.886	-0.336	0.013
-240.917	-200.000	-0.004	0.156
-239.903	770.789	0.031	-0.084
-238.888	-57.425	0.157	0.069
-237.873	-35.852	-0.383	0.206
-236.859	59.851	0.414	-0.407
-235.844	-200.000	0.046	0.339
-234.830	-47.526	0.085	0.041
-233.815	-172.358	-0.506	-0.016
-232.800	-37.088	0.241	-0.129
-231.786	-200.000	-0.004	0.119
-230.771	269.484	-0.110	-0.192
-229.757	346.598	-0.090	0.176
-228.742	-39.269	0.194	0.101
-227.727	76.201	-0.114	-0.120
-226.713	-40.790	-0.326	-0.168
-225.698	21.924	0.191	-0.155
-224.684	-49.035	0.395	-0.188
-223.669	-45.107	-0.093	0.046
-222.655	-76.479	-0.082	-0.029
-221.640	-48.781	-0.203	-0.097
-220.625	-137.292	-0.100	-0.011
-219.611	800.000	0.143	-0.408
-218.596	800.000	0.041	0.123
-217.582	5.457	0.049	-0.036
-216.567	171.527	-0.129	0.184
-215.552	-142.450	0.383	0.037
-214.538	-200.000	-0.038	0.269
-213.523	-120.260	-0.109	0.019
-212.509	-105.502	-0.346	-0.078
-211.494	-89.691	-0.046	0.013
-210.479	-122.361	0.374	-0.061
-209.465	164.280	0.195	-0.274
-208.450	223.188	-0.148	0.237
-207.436	-189.815	0.286	0.003
-206.421	800.000	-0.070	0.235
-205.406	158.302	0.071	-0.098
-204.392	-90.662	-0.164	-0.047
-203.377	672.731	0.087	0.224
-202.363	-200.000	0.035	0.255
-201.348	-25.893	0.299	-0.175
-200.333	-184.649	0.376	-0.006
-199.319	114.497	-0.086	0.104
-198.304	-200.000	-0.018	-0.125
-197.290	43.779	-0.079	-0.072
-196.275	800.000	-0.055	0.152
-195.260	-71.414	-0.031	0.012
-194.246	274.152	-0.079	0.138
-193.231	62.033	0.247	-0.245
-192.217	-200.000	-0.053	-0.296
-191.202	-125.832	-0.313	-0.047
-190.187	-72.933	-0.103	-0.037
-189.173	-61.348	-0.333	-0.139
-188.158	-20.180	-0.385	0.236
-187.144	-200.000	-0.026	-0.284
-186.129	148.012	0.203	0.271
-185.114	5.673	0.310	-0.228
-184.100	-155.780	-0.258	-0.016
-183.085	103.386	0.144	-0.168
-182.071	73.702	-0.334	0.348
-181.056	-34.134	0.165	-0.090
-180.042	-128.600	0.257	-0.036
-179.027	-6.107	0.107	-0.073
-178.012	197.539	0.067	0.101
-176.998	-59.561	-0.253	-0.108
-175.983	-200.000	-0.034	0.159
-174.969	-141.626	0.157	0.016
-173.954	-77.329	0.335	-0.116
-172.939	503.820	0.107	0.245
-171.925	-200.000	0.004	-0.255
-170.910	-91.183	-0.168	-0.048
-169.896	345.450	-0.123	0.240
-168.881	-79.140	-0.147	0.050
-167.866	44.507	-0.193	-0.176
-166.852	800.000	0.098	0.374
-165.837	211.161	0.114	0.178
-164.823	317.671	-0.054	-0.102
-163.808	384.253	-0.133	0.272
-162.793	334.659	0.068	0.131
-161.779	800.000	-0.046	0.145
-160.764	-200.000	0.003	0.036
-159.750	-200.000	0.008	0.219
-158.735	-160.656	0.186	-0.010
-157.720	-1.679	-0.321	0.224
-156.706	11.352	0.147	-0.112
-155.691	-101.040	0.072	0.018
-154.677	-123.908	-0.355	-0.056
-153.662	-138.637	-0.183	0.020
-152.647	308.572	-0.074	-0.138
-151.633	171.836	0.103	0.146
-150.618	19.133	-0.151	-0.120
-149.604	-200.000	-0.021	-0.257
-148.589	185.601	0.123	0.181
-147.574	534.939	0.171	0.402
-146.560	-147.288	-0.151	0.013
-145.545	-84.421	0.143	0.045
-144.531	-39.997	-0.087	0.045
-143.516	190.502	-0.109	0.162
-142.502	-75.159	0.265	0.094
-141.487	352.787	0.039	-0.076
-140.472	224.684	0.112	0.179
-139.458	-93.924	0.145	0.040
-138.443	113.227	-0.203	0.244
-137.429	-82.577	0.464	0.149
-136.414	-190.268	-0.350	0.004
-135.399	377.904	-0.056	0.113
-134.385	800.000	0.070	0.234
-133.370	-102.229	0.280	-0.067
-132.356	-168.106	0.214	0.008
-131.341	590.514	0.052	-0.126
-130.326	-200.000	-0.005	0.232
-129.312	-138.735	-0.205	0.022
-128.297	13.623	0.187	0.144
-127.283	-125.096	0.085	-0.013
-126.268	29.731	0.307	-0.259
-125.253	-20.133	-0.071	0.043
-124.239	-89.118	-0.144	0.042
-123.224	512.014	-0.158	-0.366
-122.210	1.854	-0.304	0.218
-121.195	-52.026	0.255	0.117
-120.180	147.540	-0.161	-0.215
-119.166	800.000	0.073	0.251
-118.151	-113.214	0.178	0.035
-117.137	371.826	-0.107	-0.215
-116.122	800.000	-0.105	-0.342
-115.107	-12.461	0.212	-0.137
-114.093	-200.000	-0.027	-0.165
-113.078	-54.916	0.291	-0.130
-112.064	17.498	-0.126	-0.099
-111.049	56.758	-0.270	0.260
-110.034	36.222	-0.159	-0.138
-109.020	-14.942	0.109	0.069
-108.005	-83.740	0.243	0.077
-106.991	383.823	-0.178	-0.363
-105.976	-83.163	-0.504	-0.161
-104.962	766.967	0.173	0.466
-103.947	800.000	-0.161	-0.501
-102.932	800.000	-0.039	-0.143
-101.918	7.224	-0.079	-0.059
-100.903	89.992	-0.044	0.049
-99.889	324.412	-0.114	-0.216
-98.874	224.939	0.139	-0.223
-97.859	187.451	-0.020	0.030
-96.845	-49.084	-0.162	-0.077
-95.830	34.542	-0.013	0.012
-94.816	-79.155	0.225	0.076
-93.801	-19.831	0.154	0.094
-92.786	-72.914	-0.066	0.024
-91.772	-147.979	-0.109	0.009
-90.757	104.406	-0.081	0.094
-89.743	800.000	0.023	0.096
-88.728	-144.685	-0.170	-0.016
-87.713	-20.804	0.112	-0.068
-86.699	746.308	0.111	-0.297
-85.684	-200.000	0.045	-0.248
-84.670	58.661	-0.292	-0.284
-83.655	800.000	0.054	-0.206
-82.640	53.983	0.049	0.047
-81.626	178.113	0.164	0.237
-80.611	-200.000	0.015	0.287
-79.597	-53.787	-0.235	0.106
-78.582	800.000	-0.055	0.206
-77.567	-3.881	-0.183	-0.125
-76.553	-200.000	0.014	0.153
-75.538	370.005	-0.082	-0.165
-74.524	254.877	-0.085	0.144
-73.509	329.477	0.075	-0.142
-72.494	38.242	0.255	0.225
-71.480	191.940	-0.141	0.211
-70.465	17.859	-0.080	0.063
-69.451	-200.000	0.010	-0.259
-68.436	527.634	-0.054	0.126
-67.422	3.632	0.096	-0.069
-66.407	800.000	0.068	0.198
-65.392	6.343	-0.140	0.103
-64.378	52.034	0.062	0.058
-63.363	-10.014	-0.126	0.083
-62.349	800.000	0.104	0.336
-61.334	78.680	-0.976	-1.032
-60.319	418.394	0.275	0.582
-59.305	-200.000	0.003	-1.122
-58.290	566.218	0.478	1.145
-57.276	533.014	0.665	1.556
-56.261	-200.000	96.557	596.597
-55.246	549.215	1369.728	3245.556
-54.232	158.646	2556.213	3509.135
-53.217	102.481	2296.790	2655.107
-52.203	38.199	2059.149	1812.093
-51.188	33.359	1973.766	1693.720
-50.173	31.816	1955.437	1664.237
-49.159	46.777	2005.219	1841.453
-48.144	48.001	2023.943	1869.597
-47.130	34.048	1985.544	1709.746
-46.115	31.705	1974.599	1679.282
-45.100	31.552	1972.161	1675.767
-44.086	31.529	1970.130	1673.775
-43.071	31.489	1967.219	1670.872
-42.057	31.375	1965.332	1668.191
-41.042	31.475	1963.215	1667.219
-40.027	31.486	1960.860	1665.246
-39.013	31.479	1959.653	1664.098
-37.998	31.587	1957.158	1662.869
-36.984	31.604	1955.463	1661.517
-35.969	31.589	1953.530	1659.672
-34.954	31.615	1951.904	1658.459
-33.940	31.631	1950.515	1657.353
-32.925	31.664	1948.801	1656.121
-31.911	31.633	1947.656	1654.813
-30.896	31.619	1945.336	1652.652
-29.881	31.680	1943.964	1651.957
-28.867	31.722	1942.357	1650.894
-27.852	31.674	1941.140	1649.377
-26.838	31.690	1938.586	1647.278
-25.823	31.727	1936.632	1645.877
-24.809	31.653	1935.537	1644.233
-23.794	31.676	1933.437	1642.588
-22.779	31.644	1931.815	1640.865
-21.765	31.735	1929.702	1639.798
-20.750	31.643	1928.500	1637.906
-19.736	31.637	1927.324	1636.792
-18.721	31.677	1925.424	1635.460
-17.706	31.665	1923.937	1634.031
-16.692	31.666	1922.231	1632.525
-15.677	31.693	1921.127	1631.756
-14.663	31.779	1919.037	1630.664
-13.648	31.701	1917.685	1628.770
-12.633	31.647	1917.085	1627.732
-11.619	31.695	1915.980	1627.141
-10.604	31.754	1914.199	1626.076
-9.590	31.638	1913.433	1624.353
-8.575	31.647	1911.668	1622.869
-7.560	31.691	1910.129	1621.880
-6.546	31.688	1909.103	1620.918
-5.531	31.711	1907.813	1619.960
-4.517	31.669	1906.363	1618.299
-3.502	31.715	1905.156	1617.610
-2.487	31.675	1904.200	1616.391
-1.473	31.668	1903.258	1615.462
-0.458	31.784	1898.073	1612.000
0.556	31.950	1879.437	1585.785
1.571	28.192	1861.898	1539.304
2.586	24.700	1885.350	1528.755
3.600	23.913	1921.445	1551.025
4.615	23.346	1916.027	1541.584
5.629	17.312	1812.718	1408.498
6.644	7.095	1691.481	1234.830
7.659	2.403	1654.823	1172.087
8.673	2.047	1651.403	1166.833
9.688	2.030	1650.107	1165.684
10.702	1.964	1648.718	1164.100
11.717	1.830	1645.393	1160.629
12.731	2.222	1644.530	1162.903
13.746	8.913	1660.754	1225.552
14.761	19.630	1684.479	1325.628
15.775	25.428	1695.211	1378.588
16.790	26.632	1696.366	1388.639
17.804	26.763	1696.561	1389.685
18.819	26.854	1695.196	1389.138
19.834	26.932	1694.977	1389.437
20.848	27.147	1694.152	1390.282
21.863	27.159	1693.585	1389.782
22.877	27.238	1692.677	1389.517
23.892	27.252	1691.744	1388.732
24.907	27.236	1690.781	1387.701
25.921	27.192	1690.209	1386.774
26.936	27.210	1688.805	1385.635
27.950	27.144	1688.031	1384.377
28.965	27.167	1687.559	1384.039
29.980	27.227	1686.593	1383.585
30.994	27.240	1685.178	1382.397
32.009	27.210	1683.821	1380.934
33.023	27.300	1683.040	1380.855
34.038	27.200	1682.429	1379.474
35.053	27.301	1680.732	1378.728
36.067	27.265	1679.475	1377.299
37.082	27.284	1679.149	1377.055
38.096	27.237	1678.122	1375.731
39.111	27.138	1677.455	1374.316
40.126	27.247	1676.422	1374.173
41.140	27.254	1675.748	1373.552
42.155	27.184	1674.753	1372.088
43.169	27.154	1673.713	1370.888
44.184	27.243	1672.460	1370.412
45.199	27.265	1671.306	1369.505
46.213	27.277	1669.675	1368.137
47.228	27.237	1669.152	1367.294
48.242	27.170	1668.039	1365.755
49.257	27.285	1666.741	1365.436
50.271	27.242	1665.319	1363.825
51.286	27.257	1664.550	1363.188
52.301	27.235	1662.852	1361.512
53.315	27.273	1661.561	1360.620
54.330	27.238	1660.585	1359.437
55.344	27.279	1658.606	1358.005
56.359	27.209	1657.820	1356.715
57.374	27.201	1656.749	1355.661
58.388	27.157	1656.407	1354.932
59.403	27.152	1654.691	1353.369
60.417	27.173	1653.986	1352.834
61.432	27.153	1652.796	1351.593
62.447	27.277	1651.181	1351.073
63.461	27.202	1650.734	1350.026
64.476	27.298	1649.295	1349.448
65.490	27.206	1648.717	1348.171
66.505	27.165	1647.383	1346.653
67.520	27.239	1646.500	1346.366
68.534	27.148	1646.160	1345.289
69.549	27.276	1644.184	1344.503
70.563	27.293	1643.305	1343.795
71.578	27.329	1641.834	1342.739
72.593	27.275	1641.082	1341.607
73.607	27.198	1640.447	1340.399
74.622	27.191	1639.809	1339.705
75.636	27.242	1639.064	1339.357
76.651	27.229	1637.892	1338.185
77.666	27.277	1636.687	1337.431
78.680	27.199	1636.371	1336.483
79.695	27.222	1635.418	1335.757
80.709	27.248	1634.209	1334.841
81.724	27.205	1633.615	1333.924
82.739	27.316	1633.001	1334.121
83.753	27.237	1632.000	1332.604
84.768	27.157	1631.020	1331.097
85.782	27.141	1630.571	1330.496
86.797	27.222	1628.903	1329.610
87.812	27.299	1627.943	1329.274
88.826	27.289	1626.895	1328.223
89.841	27.285	1626.316	1327.605
90.855	27.304	1624.928	1326.496
91.870	27.247	1624.433	1325.560
92.884	27.341	1622.992	1324.951
93.899	27.307	1621.908	1323.697
94.914	27.266	1621.072	1322.599
95.928	27.254	1620.284	1321.752
96.943	27.329	1618.016	1320.329
97.957	27.319	1617.110	1319.403
98.972	27.357	1615.896	1318.574
99.987	27.267	1614.863	1316.961
101.001	27.258	1613.274	1315.480
102.016	27.358	1611.358	1314.528
103.030	27.356	1610.020	1313.303
104.045	27.289	1608.980	1311.857
105.060	27.216	1608.126	1310.514
106.074	27.286	1606.687	1309.730
107.089	27.338	1605.641	1309.141
108.103	27.289	1604.765	1307.957
109.118	27.309	1603.742	1307.150
110.133	27.294	1602.582	1305.982
111.147	27.302	1601.254	1304.839
112.162	27.301	1600.048	1303.738
113.176	27.368	1598.756	1303.051
114.191	27.274	1597.733	1301.427
115.206	27.303	1596.866	1300.810
116.220	27.306	1595.800	1299.848
117.235	27.316	1594.702	1298.912
118.249	27.384	1593.275	1298.120
119.264	27.327	1592.224	1296.741
120.279	27.337	1590.836	1295.567
121.293	27.377	1589.777	1294.876
122.308	27.372	1588.710	1293.859
123.322	27.403	1587.435	1292.922
124.337	27.379	1586.011	1291.478
125.352	27.405	1584.961	1290.696
126.366	27.362	1584.584	1289.970
127.381	27.409	1583.300	1289.138
128.395	27.378	1582.290	1287.984
129.410	27.423	1581.284	1287.374
130.424	27.427	1580.098	1286.317
131.439	27.457	1578.854	1285.407
132.454	27.398	1577.757	1283.983
133.468	27.387	1576.543	1282.805
134.483	27.424	1575.381	1282.002
135.497	27.413	1574.118	1280.788
136.512	27.403	1573.196	1279.856
137.527	27.416	1571.724	1278.630
138.541	27.454	1570.469	1277.763
139.556	27.431	1569.697	1276.861
140.570	27.435	1568.300	1275.640
141.585	27.365	1567.115	1274.073
142.600	27.383	1565.967	1273.156
143.614	27.311	1565.343	1272.035
144.629	27.320	1564.070	1270.948
145.643	27.337	1563.196	1270.243
146.658	27.405	1561.380	1269.128
147.673	27.399	1560.122	1267.953
148.687	27.383	1558.842	1266.689
149.702	27.340	1558.270	1265.812
150.716	27.455	1556.341	1264.933
151.731	27.455	1555.352	1264.016
152.746	27.373	1554.524	1262.661
153.760	27.368	1553.746	1261.886
154.775	27.438	1552.428	1261.190
155.789	27.579	1551.267	1261.106
156.804	27.477	1550.081	1259.331
157.819	27.498	1549.231	1258.674
158.833	27.445	1548.104	1257.276
159.848	27.483	1547.366	1256.830
160.862	27.431	1546.493	1255.654
161.877	27.475	1545.391	1254.950
162.892	27.531	1544.376	1254.401
163.906	27.480	1543.450	1253.186
164.921	27.577	1542.337	1252.836
165.935	27.571	1541.770	1252.227
166.950	27.583	1540.530	1251.189
167.964	27.523	1539.693	1249.984
168.979	27.482	1539.215	1249.209
169.994	27.576	1537.801	1248.592
171.008	27.622	1536.976	1248.128
172.023	27.600	1535.641	1246.784
173.037	27.573	1534.642	1245.677
174.052	27.551	1533.590	1244.562
175.067	27.501	1533.443	1243.988
176.081	27.527	1532.506	1243.297
177.096	27.542	1531.158	1242.197
178.110	27.551	1530.064	1241.259
179.125	27.553	1528.931	1240.246
180.140	27.620	1527.962	1239.802
181.154	27.611	1527.370	1239.151
182.169	27.626	1526.630	1238.542
183.183	27.630	1525.157	1237.268
184.198	27.556	1524.360	1236.009
185.213	27.480	1524.279	1235.322
186.227	27.654	1522.408	1234.871
187.242	27.585	1522.443	1234.328
188.256	27.648	1521.198	1233.635
189.271	27.607	1520.347	1232.553
190.286	27.639	1519.182	1231.716
191.300	27.694	1518.851	1231.711
192.315	27.683	1517.741	1230.631
193.329	27.556	1517.230	1229.247
194.344	27.686	1515.798	1228.854
195.359	27.751	1515.014	1228.551
196.373	27.694	1514.447	1227.600
197.388	27.708	1513.316	1226.664
198.402	27.540	1512.887	1225.080
199.417	27.526	1511.554	1223.798
200.432	27.568	1510.533	1223.147
201.446	27.542	1510.511	1222.847
202.461	27.700	1508.991	1222.564
203.475	27.651	1508.042	1221.361
204.490	27.628	1507.435	1220.610
205.504	27.604	1506.770	1219.798
206.519	27.647	1505.658	1219.078
207.534	27.712	1504.341	1218.336
208.548	27.693	1503.865	1217.721
209.563	27.739	1503.094	1217.293
210.577	27.741	1502.156	1216.442
211.592	27.599	1501.821	1215.114
212.607	27.643	1500.993	1214.628
213.621	27.758	1500.170	1214.619
214.636	27.756	1499.625	1214.058
215.650	27.824	1498.330	1213.353
216.665	27.747	1497.760	1212.278
217.680	27.745	1496.818	1211.394
218.694	27.758	1496.147	1210.830
219.709	27.706	1495.269	1209.666
220.723	27.794	1494.164	1209.249
221.738	27.798	1493.480	1208.612
222.753	27.818	1492.808	1208.098
223.767	27.741	1491.787	1206.655
224.782	27.701	1491.103	1205.728
225.796	27.844	1490.145	1205.794
226.811	27.902	1489.172	1205.282
227.826	27.927	1488.266	1204.607
228.840	27.876	1488.189	1204.098
229.855	27.774	1487.811	1203.018
230.869	27.783	1486.552	1201.950
231.884	27.820	1485.356	1201.122
232.899	27.873	1484.304	1200.512
233.913	27.792	1483.744	1199.419
234.928	27.804	1482.300	1198.229
235.942	27.832	1481.505	1197.660
236.957	27.931	1480.439	1197.340
237.972	27.930	1479.282	1196.293
238.986	27.902	1478.155	1195.092
240.001	27.878	1477.649	1194.423
241.015	27.982	1476.441	1194.016
242.030	27.994	1475.606	1193.317
243.045	28.107	1474.598	1193.134
244.059	27.928	1474.122	1191.476
245.074	28.079	1472.785	1191.274
246.088	28.012	1472.426	1190.442
247.103	28.079	1471.504	1190.028
248.117	28.031	1470.865	1189.093
249.132	28.073	1469.740	1188.348
250.147	28.034	1469.353	1187.676
251.161	28.055	1468.857	1187.306
252.176	28.144	1467.605	1186.768
253.190	28.131	1467.428	1186.439
254.205	28.173	1466.094	1185.528
255.220	28.148	1465.296	1184.613
256.234	28.121	1464.860	1183.982
257.249	28.089	1464.021	1182.993
258.263	28.042	1463.447	1182.122
259.278	28.121	1462.374	1181.655
260.293	28.203	1461.399	1181.294
261.307	28.147	1460.765	1180.319
262.322	28.277	1460.114	1180.525
263.336	28.155	1459.992	1179.535
264.351	28.145	1458.775	1178.385
265.366	28.232	1457.592	1177.881
266.380	28.169	1456.769	1176.709
267.395	28.311	1455.658	1176.617
268.409	28.222	1454.943	1175.362
269.424	28.255	1454.417	1175.046
270.439	28.232	1453.206	1173.817
271.453	28.214	1452.719	1173.204
272.468	28.313	1451.840	1173.028
273.482	28.257	1451.133	1171.995
274.497	28.234	1450.343	1171.102
275.512	28.233	1449.341	1170.182
276.526	28.227	1449.022	1169.781
277.541	28.239	1448.178	1169.078
278.555	28.283	1447.557	1168.750
279.570	28.288	1446.605	1167.913
280.585	28.230	1445.517	1166.564
281.599	28.384	1444.622	1166.718
282.614	28.349	1443.565	1165.534
283.628	28.284	1442.786	1164.389
284.643	28.308	1442.047	1163.843
285.657	28.389	1440.867	1163.303
286.672	28.314	1440.215	1162.201
287.687	28.406	1439.461	1162.072
288.701	28.356	1438.369	1160.772
289.716	28.297	1438.133	1160.102
290.730	28.326	1437.321	1159.529
291.745	28.359	1436.171	1158.705
292.760	28.391	1435.058	1157.905
293.774	28.419	1434.190	1157.285
294.789	28.396	1433.693	1156.635
295.803	28.313	1433.584	1155.919
296.818	28.413	1432.269	1155.388
297.833	28.469	1431.159	1154.744
298.847	28.452	1430.356	1153.883
299.862	28.447	1430.028	1153.488
300.876	28.460	1428.975	1152.617
301.891	28.442	1427.853	1151.499
302.906	28.545	1427.348	1151.634
303.920	28.584	1426.708	1151.258
304.935	28.553	1426.146	1150.509
305.949	28.576	1425.243	1149.825
306.964	28.588	1424.070	1148.853
307.979	28.552	1423.100	1147.746
308.993	28.650	1422.326	1147.631
310.008	28.713	1421.421	1147.189
311.022	28.647	1420.880	1146.240
312.037	28.539	1419.937	1144.704
313.052	28.554	1419.010	1143.950
314.066	28.608	1418.067	1143.424
315.081	28.583	1417.689	1142.862
316.095	28.678	1415.971	1141.967
317.110	28.696	1415.049	1141.238
318.125	28.652	1414.712	1140.590
319.139	28.639	1413.778	1139.652
320.154	28.607	1413.244	1138.924
321.168	28.661	1412.514	1138.573
322.183	28.631	1411.600	1137.550
323.197	28.682	1410.779	1137.100
324.212	28.689	1409.502	1136.015
325.227	28.608	1409.044	1135.046
326.241	28.697	1407.975	1134.636
327.256	28.710	1407.667	1134.361
328.270	28.751	1406.755	1133.780
329.285	28.772	1405.882	1133.109
330.300	28.784	1404.958	1132.334
331.314	28.787	1404.342	1131.759
332.329	28.773	1403.482	1130.877
333.343	28.802	1402.559	1130.214
334.358	28.805	1402.211	1129.849
335.373	28.886	1401.232	1129.462
336.387	28.898	1400.442	1128.798
337.402	28.927	1399.917	1128.451
338.416	28.950	1399.005	1127.756
339.431	28.914	1398.942	1127.384
340.446	28.934	1398.432	1127.000
341.460	29.047	1397.191	1126.593
342.475	28.919	1396.593	1125.223
343.489	28.895	1396.018	1124.519
344.504	28.934	1394.644	1123.549
345.519	28.987	1394.083	1123.319
346.533	28.976	1392.989	1122.272
347.548	29.032	1391.790	1121.551
348.562	29.000	1391.081	1120.681
349.577	28.992	1390.491	1120.059
350.592	28.981	1389.643	1119.211
351.606	29.000	1388.891	1118.623
352.621	28.990	1387.469	1117.316
353.635	29.005	1386.637	1116.638
354.650	29.006	1386.189	1116.183
355.665	28.929	1385.611	1115.155
356.679	29.110	1384.267	1115.071
357.694	29.117	1383.148	1114.111
358.708	29.154	1382.238	1113.502
359.723	29.171	1380.829	1112.372
360.738	29.249	1379.764	1111.890
361.752	29.208	1378.787	1110.757
362.767	29.136	1377.673	1109.326
363.781	29.102	1377.245	1108.681
364.796	29.151	1376.712	1108.447
365.810	29.149	1375.953	1107.725
366.825	29.254	1375.193	1107.644
367.840	29.198	1374.337	1106.522
368.854	29.306	1373.460	1106.367
369.869	29.323	1373.197	1106.160
370.883	29.318	1372.472	1105.445
371.898	29.289	1371.919	1104.732
372.913	29.393	1370.965	1104.486
373.927	29.297	1370.097	1103.115
374.942	29.325	1369.439	1102.654
375.956	29.327	1368.711	1101.985
376.971	29.274	1368.221	1101.172
377.986	29.328	1367.272	1100.634
379.000	29.285	1367.056	1100.107
380.015	29.243	1366.373	1099.208
381.029	29.298	1365.393	1098.655
382.044	29.392	1364.826	1098.659
383.059	29.400	1364.012	1097.953
384.073	29.455	1363.347	1097.646
385.088	29.475	1362.611	1097.079
386.102	29.382	1362.363	1096.229
387.117	29.457	1361.598	1095.960
388.132	29.421	1360.976	1095.147
389.146	29.456	1360.004	1094.478
390.161	29.492	1359.358	1094.073
391.175	29.493	1358.672	1093.431
392.190	29.513	1357.757	1092.719
393.205	29.550	1357.232	1092.415
394.219	29.539	1356.503	1091.667
395.234	29.583	1355.588	1091.097
396.248	29.656	1354.138	1090.260
397.263	29.573	1353.277	1088.982
398.278	29.630	1352.173	1088.336
399.292	29.538	1351.497	1087.152
400.307	29.671	1350.694	1087.193
401.321	29.665	1349.666	1086.233
402.336	29.633	1348.607	1085.095
403.350	29.596	1347.950	1084.257
404.365	29.550	1346.734	1082.909
405.380	29.695	1346.032	1083.104
406.394	29.605	1345.396	1081.966
407.409	29.639	1344.933	1081.695
408.423	29.694	1344.231	1081.356
409.438	29.665	1343.594	1080.579
410.453	29.823	1342.308	1080.376
411.467	29.746	1342.088	1079.653
412.482	29.809	1341.290	1079.281
413.496	29.761	1340.691	1078.423
414.511	29.804	1339.875	1077.921
415.526	29.799	1339.314	1077.348
416.540	29.748	1338.771	1076.519
417.555	29.852	1337.947	1076.367
418.569	29.787	1337.401	1075.451
419.584	29.807	1336.991	1075.142
420.599	29.843	1336.386	1074.772
421.613	95.847	1355.550	1461.124
422.628	95.339	1358.296	1461.242
