DTS Sentinel unit serial number:	SN413079Multiplexer serial number:	ORYXHardware model number:	OX4-SRSoftware version number:	ORYX F/W v4.00 Oryx Data Collector v3.7.2.0data status	okinstallation	princeton_trtdifferential loss correction	single-endedforward channel	channel 4reverse channel	N/Adate	2019/09/10time	16:27:11forward acquisition time	60.00reverse acquisition time	0.00gamma	496.2192k internal	0.2295k external	0.2295temperature offset calibration	0.9941default loss term (dB/km)	0.3790temperature slope calibration	1.0000multiplexer offset coefficient	1.0000multiplexer slope coefficient	1.0000fibre end	0.00T internal ref (°C)	38.12T ext. ref 1 (°C)	-0.28T ext. ref 2 (°C)	30.71length (m)	temperature (°C)	Stokes	anti-Stokes-747.200	649.100	0.137	0.358
-746.185	469.272	-0.092	0.212
-745.171	261.058	-0.085	0.151
-744.156	-200.000	0.043	0.249
-743.142	-94.063	0.367	0.103
-742.127	800.000	-0.113	0.503
-741.112	37.945	0.022	-0.020
-740.098	-200.000	-0.022	0.158
-739.083	-96.079	-0.288	0.078
-738.069	-87.411	-0.174	-0.054
-737.054	-92.516	0.194	0.056
-736.039	27.359	-0.330	-0.283
-735.025	-45.358	0.277	0.141
-734.010	800.000	0.110	-0.429
-732.996	-116.450	-0.301	-0.057
-731.981	-20.922	-0.416	0.261
-730.966	-106.769	0.206	-0.047
-729.952	45.271	-0.077	-0.073
-728.937	-199.146	-0.392	0.002
-727.923	-178.806	-0.202	0.005
-726.908	333.610	-0.104	0.205
-725.894	187.206	-0.270	-0.411
-724.879	302.985	0.118	-0.223
-723.864	522.226	0.083	0.198
-722.850	25.666	0.195	-0.166
-721.835	108.062	-0.062	-0.076
-720.821	-130.186	-0.339	0.047
-719.806	729.473	0.055	0.150
-718.791	-106.211	0.261	0.060
-717.777	599.148	-0.011	0.029
-716.762	-200.000	0.060	0.358
-715.748	334.738	-0.079	0.157
-714.733	-199.486	0.209	0.001
-713.718	-200.000	-0.215	-0.000
-712.704	-200.000	0.013	0.142
-711.689	104.327	-0.166	-0.200
-710.675	-200.000	0.023	-0.377
-709.660	-200.000	-0.022	-0.159
-708.645	7.293	0.106	0.081
-707.631	-200.000	0.010	-0.346
-706.616	-101.178	0.112	0.028
-705.602	-49.947	0.199	0.096
-704.587	-101.506	0.237	-0.059
-703.572	458.689	-0.065	0.149
-702.558	-200.000	0.006	0.086
-701.543	748.247	0.022	0.060
-700.529	-170.865	0.303	0.011
-699.514	-6.274	0.199	-0.139
-698.499	185.520	-0.159	-0.241
-697.485	474.454	-0.161	-0.370
-696.470	-200.000	-0.027	0.220
-695.456	-117.422	-0.228	0.042
-694.441	-44.991	-0.213	-0.108
-693.426	-128.571	0.226	-0.033
-692.412	800.000	0.026	0.080
-691.397	-66.351	-0.062	-0.025
-690.383	-121.627	0.292	-0.049
-689.368	-98.575	-0.182	0.047
-688.354	-68.121	0.393	-0.156
-687.339	155.186	0.067	0.094
-686.324	173.285	0.102	0.150
-685.310	51.846	-0.269	-0.261
-684.295	-65.539	0.207	0.085
-683.281	129.692	-0.313	0.408
-682.266	-182.657	0.148	0.003
-681.251	-200.000	-0.036	-0.270
-680.237	-110.290	-0.368	-0.078
-679.222	-136.126	0.323	0.039
-678.208	338.234	-0.018	0.035
-677.193	299.472	0.091	0.171
-676.178	148.897	0.086	0.119
-675.164	-14.397	0.326	-0.214
-674.149	800.000	-0.084	0.257
-673.135	-74.570	0.268	0.099
-672.120	190.304	0.173	0.265
-671.105	21.984	-0.256	-0.213
-670.091	45.866	0.315	0.297
-669.076	-81.491	0.131	0.044
-668.062	-126.159	-0.257	0.039
-667.047	17.157	-0.048	-0.039
-666.032	800.000	-0.073	0.294
-665.018	-100.560	-0.233	-0.059
-664.003	-171.578	0.204	0.007
-662.989	-135.264	-0.108	0.013
-661.974	-3.657	0.203	-0.144
-660.959	83.575	0.350	0.389
-659.945	-200.000	-0.028	-0.221
-658.930	800.000	0.114	-0.407
-657.916	212.717	0.130	0.210
-656.901	-75.590	-0.063	-0.023
-655.886	-132.137	-0.530	0.070
-654.872	68.419	0.097	0.102
-653.857	-62.774	0.081	0.034
-652.843	78.431	-0.100	0.109
-651.828	800.000	-0.110	0.486
-650.814	-200.000	0.030	-0.366
-649.799	-200.000	0.038	0.254
-648.784	85.952	0.280	-0.313
-647.770	-36.854	-0.300	-0.164
-646.755	-95.917	-0.332	-0.090
-645.741	-86.293	0.128	0.040
-644.726	361.908	0.077	0.158
-643.711	30.083	-0.079	-0.068
-642.697	800.000	-0.021	0.083
-641.682	-153.347	-0.221	-0.016
-640.668	288.154	-0.042	0.078
-639.653	-163.153	-0.346	0.017
-638.638	-200.000	-0.019	0.213
-637.624	72.747	-0.148	0.157
-636.609	-78.061	-0.231	-0.081
-635.595	394.303	0.245	-0.520
-634.580	800.000	0.141	0.428
-633.565	-113.392	-0.062	-0.012
-632.551	-50.934	-0.412	-0.197
-631.536	800.000	-0.066	0.207
-630.522	-41.421	0.321	0.168
-629.507	-5.983	-0.147	-0.102
-628.492	279.005	-0.152	0.275
-627.478	800.000	-0.045	-0.144
-626.463	46.291	-0.067	0.063
-625.449	-80.607	0.178	-0.060
-624.434	106.851	-0.155	-0.188
-623.419	-179.899	0.044	0.001
-622.405	43.692	0.082	0.076
-621.390	-172.281	-0.271	0.009
-620.376	-102.631	0.309	0.075
-619.361	-200.000	-0.019	0.123
-618.346	218.907	-0.153	-0.250
-617.332	153.806	0.205	0.286
-616.317	145.869	0.104	-0.141
-615.303	218.433	-0.097	-0.158
-614.288	159.198	0.060	-0.085
-613.273	143.799	0.147	-0.199
-612.259	589.612	-0.074	0.185
-611.244	-84.268	0.103	0.033
-610.230	-157.405	0.142	0.009
-609.215	-200.000	0.041	-0.227
-608.201	-20.349	-0.195	0.122
-607.186	279.886	0.145	0.263
-606.171	151.060	0.024	0.033
-605.157	59.963	0.190	0.191
-604.142	550.717	0.022	0.055
-603.128	-150.967	-0.304	0.023
-602.113	-200.000	0.274	0.000
-601.098	369.925	0.180	-0.371
-600.084	800.000	0.048	-0.162
-599.069	800.000	0.027	0.087
-598.055	4.470	0.020	0.015
-597.040	92.177	-0.068	0.078
-596.025	-81.665	0.236	0.079
-595.011	-177.701	-0.383	0.009
-593.996	44.450	0.367	-0.342
-592.982	291.539	0.133	-0.246
-591.967	-47.569	-0.215	0.106
-590.952	-41.951	0.163	-0.085
-589.938	72.361	0.141	0.149
-588.923	12.670	0.244	0.192
-587.909	-89.178	-0.048	-0.014
-586.894	-97.158	0.199	0.053
-585.879	371.671	-0.071	-0.147
-584.865	-166.651	0.389	-0.016
-583.850	41.326	0.247	-0.227
-582.836	98.476	-0.094	0.110
-581.821	-200.000	0.136	-0.711
-580.806	-16.910	0.251	0.161
-579.792	-200.000	0.003	-0.288
-578.777	-20.786	0.147	0.092
-577.763	-86.783	-0.146	-0.045
-576.748	-200.000	0.081	0.485
-575.733	-200.000	-0.010	0.176
-574.719	-113.186	-0.175	0.035
-573.704	122.995	-0.237	0.302
-572.690	800.000	0.016	0.072
-571.675	-97.564	0.424	-0.112
-570.661	179.312	0.076	0.113
-569.646	-61.111	0.225	-0.096
-568.631	-200.000	-0.034	-0.507
-567.617	-200.000	0.040	-0.222
-566.602	-200.000	0.033	0.165
-565.588	800.000	-0.054	-0.202
-564.573	-144.544	-0.080	-0.007
-563.558	778.501	-0.026	-0.072
-562.544	85.790	-0.138	0.154
-561.529	333.395	-0.108	-0.211
-560.515	102.405	0.063	0.074
-559.500	-19.912	0.236	0.148
-558.485	-200.000	-0.003	0.146
-557.471	93.714	-0.266	0.306
-556.456	349.572	-0.039	0.078
-555.442	194.218	-0.113	-0.174
-554.427	800.000	0.036	-0.115
-553.412	800.000	-0.063	-0.271
-552.398	-96.039	-0.289	-0.078
-551.383	-92.275	-0.322	-0.092
-550.369	369.574	-0.025	-0.052
-549.354	154.608	-0.093	-0.129
-548.339	-5.236	0.318	0.222
-547.325	163.124	-0.268	0.382
-546.310	-61.035	0.125	-0.054
-545.296	-70.015	0.084	0.033
-544.281	-72.688	-0.385	-0.144
-543.266	-200.000	-0.004	-0.132
-542.252	56.496	-0.149	0.147
-541.237	-200.000	0.006	-0.188
-540.223	800.000	-0.053	-0.222
-539.208	-169.870	0.133	0.005
-538.193	375.425	0.136	-0.281
-537.179	-34.706	-0.106	0.059
-536.164	-139.190	0.128	0.014
-535.150	-71.361	-0.252	0.096
-534.135	55.161	-0.050	0.049
-533.121	785.459	0.070	0.194
-532.106	-104.412	-0.271	0.064
-531.091	800.000	0.022	-0.093
-530.077	15.221	-0.144	0.115
-529.062	800.000	0.063	-0.222
-528.048	800.000	-0.006	0.017
-527.033	-200.000	0.023	0.168
-526.018	106.540	-0.206	0.248
-525.004	-165.215	0.155	0.007
-523.989	-200.000	-0.062	-0.287
-522.975	193.328	-0.192	0.294
-521.960	287.302	-0.165	0.302
-520.945	-200.000	-0.077	-0.391
-519.931	78.284	0.039	-0.042
-518.916	44.638	-0.092	0.086
-517.902	103.216	-0.293	0.348
-516.887	444.207	0.031	0.070
-515.872	444.788	-0.186	0.414
-514.858	-61.579	0.067	0.028
-513.843	338.378	0.091	0.179
-512.829	-10.983	0.039	0.026
-511.814	119.064	0.055	0.069
-510.799	-118.460	-0.250	0.045
-509.785	800.000	0.034	0.113
-508.770	-108.414	-0.368	-0.080
-507.756	-66.995	-0.119	-0.048
-506.741	-37.308	0.398	0.216
-505.726	-64.231	0.200	0.083
-504.712	65.221	0.109	-0.111
-503.697	-200.000	-0.068	-0.359
-502.683	-200.000	0.036	0.000
-501.668	-200.000	0.018	-0.199
-500.653	60.916	0.129	0.129
-499.639	36.711	0.082	0.073
-498.624	341.748	-0.057	0.112
-497.610	624.032	-0.105	0.268
-496.595	231.963	-0.108	-0.179
-495.581	-104.781	0.023	-0.005
-494.566	126.479	-0.156	-0.200
-493.551	-200.000	-0.009	0.043
-492.537	800.000	-0.085	-0.299
-491.522	-8.795	0.118	0.080
-490.508	-133.930	0.079	-0.010
-489.493	800.000	-0.108	-0.385
-488.478	176.497	0.127	-0.186
-487.464	-151.536	-0.264	-0.020
-486.449	-200.000	0.048	0.315
-485.435	-27.725	-0.051	0.030
-484.420	-200.000	-0.046	0.229
-483.405	-99.761	-0.245	0.062
-482.391	537.331	-0.118	0.284
-481.376	-200.000	-0.018	-0.171
-480.362	-150.375	0.225	-0.018
-479.347	-4.408	0.222	0.155
-478.332	-126.166	0.376	0.057
-477.318	165.296	0.079	0.113
-476.303	-200.000	-0.007	-0.088
-475.289	58.127	-0.194	-0.193
-474.274	-155.672	0.123	0.008
-473.259	-144.159	0.071	0.007
-472.245	-200.000	0.040	0.257
-471.230	-200.000	0.062	0.316
-470.216	-122.404	-0.358	0.059
-469.201	-71.189	0.291	0.111
-468.186	297.912	-0.158	0.294
-467.172	94.878	-0.036	-0.041
-466.157	145.368	0.203	0.275
-465.143	40.008	-0.160	0.145
-464.128	188.351	0.045	0.068
-463.113	800.000	-0.049	-0.163
-462.099	98.467	-0.107	-0.124
-461.084	-200.000	0.020	0.168
-460.070	800.000	0.149	-0.430
-459.055	258.131	-0.145	-0.253
-458.040	142.981	0.159	0.214
-457.026	800.000	-0.108	-0.307
-456.011	-89.777	0.155	-0.046
-454.997	-109.273	-0.211	-0.045
-453.982	-105.190	0.306	-0.071
-452.968	-72.168	0.290	-0.109
-451.953	800.000	0.066	-0.199
-450.938	95.044	0.095	0.109
-449.924	185.355	0.065	-0.097
-448.909	-103.589	0.195	0.046
-447.895	52.562	-0.396	0.383
-446.880	214.680	0.114	-0.183
-445.865	87.180	0.353	-0.394
-444.851	-200.000	0.012	0.197
-443.836	-49.007	0.339	-0.164
-442.822	-129.691	-0.501	-0.070
-441.807	-56.329	0.169	-0.076
-440.792	800.000	0.039	0.125
-439.778	56.507	-0.148	0.146
-438.763	-200.000	-0.047	0.290
-437.749	522.747	0.044	0.104
-436.734	-39.233	0.270	-0.143
-435.719	-200.000	0.016	-0.209
-434.705	-69.389	-0.473	0.183
-433.690	200.071	0.205	-0.318
-432.676	-200.000	0.008	-0.120
-431.661	-30.953	0.076	0.043
-430.646	-46.522	-0.245	-0.121
-429.632	-108.703	-0.137	-0.030
-428.617	-200.000	0.041	-0.222
-427.603	473.673	0.071	0.163
-426.588	244.384	-0.062	-0.105
-425.573	-38.028	0.182	0.098
-424.559	160.080	-0.154	0.216
-423.544	15.630	-0.110	0.087
-422.530	-200.000	-0.044	-0.227
-421.515	-120.060	0.066	-0.011
-420.500	800.000	-0.036	-0.151
-419.486	-100.958	0.169	0.042
-418.471	386.619	-0.105	-0.219
-417.457	800.000	0.008	-0.024
-416.442	-25.735	-0.324	0.193
-415.428	-127.350	-0.250	0.037
-414.413	256.610	0.135	-0.234
-413.398	-111.745	0.291	0.059
-412.384	7.913	0.230	-0.174
-411.369	22.898	-0.067	-0.055
-410.355	107.849	-0.404	-0.485
-409.340	-32.662	0.163	0.092
-408.325	-139.501	-0.152	-0.016
-407.311	272.396	-0.140	-0.250
-406.296	84.185	-0.200	0.221
-405.282	800.000	-0.077	-0.250
-404.267	-200.000	0.011	-0.233
-403.252	-84.983	-0.144	-0.045
-402.238	62.126	0.284	0.286
-401.223	15.713	-0.200	0.159
-400.209	240.422	0.103	0.173
-399.194	-162.389	-0.223	-0.011
-398.179	-200.000	0.042	-0.324
-397.165	424.845	-0.184	0.400
-396.150	-200.000	0.035	0.401
-395.136	212.569	-0.066	-0.105
-394.121	-69.051	-0.126	-0.049
-393.106	-53.544	0.045	0.021
-392.092	-76.930	-0.248	-0.087
-391.077	-72.594	0.286	0.106
-390.063	-200.000	0.025	-0.220
-389.048	47.625	0.308	-0.289
-388.033	-200.000	0.044	-0.361
-387.019	28.789	-0.344	0.293
-386.004	14.160	0.115	0.090
-384.990	245.290	-0.151	-0.256
-383.975	7.952	-0.204	0.155
-382.960	-68.728	-0.346	0.135
-381.946	120.768	-0.277	0.347
-380.931	528.384	-0.118	0.281
-379.917	295.891	0.061	-0.112
-378.902	-48.264	-0.196	0.095
-377.888	199.738	0.065	-0.101
-376.873	101.467	0.180	0.211
-375.858	-200.000	-0.001	0.160
-374.844	-18.375	0.133	0.083
-373.829	-134.462	0.240	-0.030
-372.815	242.821	-0.080	-0.135
-371.800	31.723	0.147	-0.128
-370.785	-200.000	-0.050	0.276
-369.771	65.207	0.287	0.292
-368.756	-147.943	0.630	-0.053
-367.742	-200.000	-0.041	-0.189
-366.727	800.000	-0.127	-0.378
-365.712	407.586	-0.040	-0.086
-364.698	-152.076	0.048	0.004
-363.683	800.000	-0.008	-0.032
-362.669	-98.201	-0.114	-0.029
-361.654	-200.000	-0.025	-0.113
-360.639	592.281	0.041	-0.102
-359.625	-19.112	0.080	-0.050
-358.610	-200.000	-0.004	-0.224
-357.596	-193.646	0.181	0.002
-356.581	381.728	0.070	0.145
-355.566	800.000	-0.059	-0.165
-354.552	292.830	-0.138	-0.254
-353.537	-200.000	0.014	-0.135
-352.523	-97.988	-0.089	-0.023
-351.508	687.274	-0.049	-0.128
-350.493	800.000	-0.039	0.124
-349.479	125.787	-0.207	0.263
-348.464	-200.000	0.074	-0.424
-347.450	32.965	0.262	-0.228
-346.435	-67.099	-0.120	0.048
-345.420	-86.078	-0.192	-0.060
-344.406	65.993	0.146	-0.149
-343.391	585.699	0.096	0.238
-342.377	-115.401	0.123	-0.023
-341.362	135.671	-0.085	0.111
-340.348	-200.000	0.009	0.396
-339.333	62.903	0.245	0.247
-338.318	10.081	-0.217	-0.166
-337.304	122.630	-0.232	-0.292
-336.289	-141.422	-0.251	-0.026
-335.275	800.000	0.070	0.304
-334.260	-30.375	-0.334	-0.191
-333.245	-75.128	-0.175	-0.063
-332.231	-57.217	0.095	0.042
-331.216	272.560	0.012	0.021
-330.202	-160.557	-0.110	0.006
-329.187	800.000	-0.048	0.136
-328.172	497.524	-0.037	-0.086
-327.158	669.985	0.014	-0.037
-326.143	-66.513	0.072	0.029
-325.129	-200.000	0.007	0.064
-324.114	169.970	0.112	-0.161
-323.099	543.906	-0.024	-0.059
-322.085	170.310	-0.164	-0.237
-321.070	41.838	-0.246	-0.225
-320.056	-156.499	-0.203	0.013
-319.041	-105.107	0.011	-0.002
-318.026	776.900	-0.068	0.188
-317.012	120.066	-0.076	0.095
-315.997	800.000	0.053	0.200
-314.983	270.685	-0.095	-0.168
-313.968	20.770	0.135	-0.110
-312.953	-200.000	-0.052	-0.385
-311.939	-85.996	-0.265	-0.082
-310.924	-85.994	-0.176	-0.055
-309.910	201.565	0.085	0.131
-308.895	-49.757	-0.253	-0.121
-307.880	800.000	0.014	-0.041
-306.866	-200.000	-0.001	0.371
-305.851	422.544	-0.177	0.382
-304.837	800.000	-0.051	0.163
-303.822	-200.000	0.027	0.182
-302.807	-115.519	0.106	-0.020
-301.793	476.982	0.122	-0.277
-300.778	358.977	0.072	-0.144
-299.764	175.185	0.186	0.271
-298.749	-128.439	0.333	0.048
-297.735	-90.651	0.189	-0.055
-296.720	-15.481	0.010	-0.006
-295.705	46.119	0.185	0.172
-294.691	-37.271	-0.206	0.111
-293.676	-154.844	-0.051	0.003
-292.662	20.124	0.344	0.279
-291.647	-10.034	-0.207	0.138
-290.632	800.000	0.078	-0.245
-289.618	-107.756	0.336	0.074
-288.603	-17.421	0.126	-0.080
-287.589	70.764	-0.069	0.072
-286.574	80.006	-0.193	-0.208
-285.559	-200.000	-0.007	-0.074
-284.545	314.415	0.210	0.398
-283.530	-1.920	-0.191	-0.135
-282.516	-58.188	-0.072	-0.032
-281.501	-99.629	-0.197	0.050
-280.486	-143.506	0.273	-0.026
-279.472	-195.477	-0.195	0.001
-278.457	-47.330	0.253	-0.124
-277.443	800.000	-0.048	0.185
-276.428	416.984	0.054	0.115
-275.413	-200.000	-0.049	0.307
-274.399	165.750	-0.071	0.100
-273.384	800.000	0.077	0.274
-272.370	-9.412	0.339	-0.227
-271.355	-184.145	0.211	0.004
-270.340	576.380	-0.031	-0.075
-269.326	34.645	-0.178	0.156
-268.311	-94.193	0.606	0.166
-267.297	147.193	-0.131	-0.177
-266.282	-101.027	0.347	0.085
-265.267	345.873	-0.063	0.124
-264.253	800.000	0.065	0.198
-263.238	-29.871	-0.393	-0.225
-262.224	-78.151	-0.204	0.070
-261.209	123.185	0.143	0.179
-260.195	-73.278	0.320	0.117
-259.180	-159.453	0.323	0.018
-258.165	525.476	0.057	-0.134
-257.151	154.735	-0.237	0.327
-256.136	-200.000	-0.021	0.178
-255.122	800.000	0.146	-0.578
-254.107	-115.818	0.268	-0.050
-253.092	800.000	-0.058	-0.188
-252.078	-52.459	-0.183	-0.085
-251.063	259.958	-0.037	-0.063
-250.049	-139.380	-0.242	-0.026
-249.034	136.117	0.076	0.100
-248.019	-74.424	-0.133	-0.048
-247.005	-6.176	-0.059	0.040
-245.990	-35.270	0.147	-0.080
-244.976	-43.299	-0.210	-0.107
-243.961	-50.430	0.296	-0.140
-242.946	-200.000	0.021	0.337
-241.932	403.757	-0.120	0.253
-240.917	703.076	0.049	0.131
-239.903	18.652	0.223	0.178
-238.888	18.975	-0.145	-0.116
-237.873	-107.741	0.111	-0.024
-236.859	-200.000	0.026	-0.192
-235.844	-74.408	0.192	0.069
-234.830	-76.254	-0.416	-0.147
-233.815	-68.260	0.187	-0.073
-232.800	310.958	0.086	0.161
-231.786	800.000	0.015	0.055
-230.771	-200.000	-0.002	-0.225
-229.757	800.000	0.028	0.095
-228.742	155.611	0.017	0.024
-227.727	455.781	0.098	-0.218
-226.713	7.914	-0.154	-0.115
-225.698	-117.839	-0.310	0.056
-224.684	568.894	0.121	0.294
-223.669	-82.570	0.019	0.006
-222.655	122.313	-0.145	0.181
-221.640	190.296	-0.199	-0.299
-220.625	27.653	0.328	-0.277
-219.611	-132.003	-0.054	-0.007
-218.596	-106.877	0.105	-0.023
-217.582	272.151	0.196	0.346
-216.567	308.435	-0.088	-0.164
-215.552	14.374	0.197	-0.154
-214.538	-12.106	0.226	0.148
-213.523	135.565	-0.169	0.221
-212.509	-200.000	0.007	-0.254
-211.494	-5.347	0.208	-0.143
-210.479	8.258	-0.158	-0.119
-209.465	-200.000	0.025	-0.139
-208.450	-38.278	0.195	-0.103
-207.436	-200.000	-0.011	-0.189
-206.421	-81.444	-0.202	-0.066
-205.406	-63.950	0.203	-0.083
-204.392	455.459	0.022	0.048
-203.377	68.810	-0.152	0.156
-202.363	152.832	-0.064	0.088
-201.348	653.714	0.099	-0.254
-200.333	117.836	-0.297	0.367
-199.319	534.279	-0.058	0.138
-198.304	-200.000	-0.014	-0.322
-197.290	-200.000	-0.008	-0.065
-196.275	800.000	0.097	0.332
-195.260	10.881	0.214	-0.164
-194.246	-200.000	-0.006	-0.125
-193.231	-41.923	-0.069	-0.036
-192.217	-87.139	0.072	0.022
-191.202	199.282	-0.079	-0.121
-190.187	143.785	0.130	-0.173
-189.173	135.861	0.074	0.097
-188.158	-200.000	-0.015	0.148
-187.144	174.134	-0.043	0.062
-186.129	-119.585	-0.277	-0.048
-185.114	-200.000	-0.037	0.165
-184.100	800.000	0.067	0.209
-183.085	-163.913	-0.215	-0.010
-182.071	48.914	0.273	0.257
-181.056	250.210	0.052	-0.088
-180.042	-200.000	-0.036	-0.171
-179.027	-74.602	0.118	-0.043
-178.012	-57.830	0.102	-0.045
-176.998	-57.591	-0.336	-0.147
-175.983	73.053	0.129	0.134
-174.969	-148.408	0.424	0.035
-173.954	-128.338	0.073	0.010
-172.939	10.982	0.233	0.178
-171.925	306.114	0.091	-0.169
-170.910	-60.495	0.125	-0.053
-169.896	-81.288	-0.019	-0.006
-168.881	56.330	-0.117	0.114
-167.866	-200.000	0.003	-0.110
-166.852	-200.000	-0.011	-0.243
-165.837	247.740	0.144	0.243
-164.823	11.103	-0.256	0.196
-163.808	102.178	-0.224	0.261
-162.793	-85.917	-0.149	0.046
-161.779	-113.084	-0.126	-0.025
-160.764	800.000	-0.043	0.130
-159.750	-99.148	0.138	-0.035
-158.735	516.103	0.069	-0.160
-157.720	-200.000	0.154	-0.000
-156.706	214.446	-0.056	-0.089
-155.691	-87.644	0.233	0.070
-154.677	174.858	0.124	0.180
-153.662	-200.000	-0.016	-0.094
-152.647	-59.964	-0.160	-0.068
-151.633	-45.906	-0.123	-0.061
-150.618	154.948	0.202	-0.278
-149.604	-22.206	-0.029	-0.018
-148.589	-200.000	-0.044	-0.275
-147.574	-107.502	0.310	-0.068
-146.560	121.139	-0.048	0.059
-145.545	64.617	-0.095	0.096
-144.531	-98.710	-0.081	0.021
-143.516	800.000	-0.025	-0.106
-142.502	-200.000	-0.007	0.452
-141.487	57.518	0.085	0.083
-140.472	406.889	-0.102	-0.216
-139.458	793.213	-0.044	-0.120
-138.443	285.170	-0.109	0.196
-137.429	-92.181	-0.019	0.005
-136.414	420.838	0.087	0.186
-135.399	-1.206	-0.020	-0.014
-134.385	72.616	-0.199	-0.207
-133.370	-111.550	-0.340	-0.069
-132.356	123.842	0.108	-0.136
-131.341	325.068	0.074	-0.142
-130.326	-95.159	0.552	-0.148
-129.312	-28.649	0.168	0.096
-128.297	109.675	0.058	-0.069
-127.283	301.738	0.071	0.131
-126.268	123.370	0.039	-0.049
-125.253	260.695	0.108	-0.186
-124.239	-62.148	-0.115	0.048
-123.224	405.906	0.140	0.294
-122.210	-135.183	0.222	-0.027
-121.195	597.688	-0.054	0.133
-120.180	190.311	-0.208	0.311
-119.166	162.190	0.161	-0.225
-118.151	1.232	0.125	-0.090
-117.137	-200.000	0.015	0.192
-116.122	-22.118	0.038	0.023
-115.107	148.660	0.096	0.130
-114.093	332.023	0.050	0.096
-113.078	39.154	0.118	0.106
-112.064	188.468	-0.074	-0.111
-111.049	-200.000	-0.001	-0.143
-110.034	-40.338	0.125	-0.065
-109.020	-124.988	-0.196	0.030
-108.005	342.842	-0.149	0.291
-106.991	-127.181	-0.173	-0.025
-105.976	464.906	-0.054	0.121
-104.962	71.476	-0.175	0.181
-103.947	479.597	0.056	0.126
-102.932	-200.000	0.002	-0.103
-101.918	36.993	-0.116	0.103
-100.903	-97.568	-0.257	-0.067
-99.889	21.710	-0.098	0.080
-98.874	-200.000	-0.063	-0.482
-97.859	-8.109	0.267	0.179
-96.845	800.000	0.025	-0.104
-95.830	-67.581	0.358	-0.140
-94.816	-76.518	-0.327	0.114
-93.801	78.444	-0.113	0.120
-92.786	-110.441	0.146	-0.030
-91.772	-14.467	0.349	-0.223
-90.757	189.156	-0.294	-0.439
-89.743	-25.527	-0.195	0.115
-88.728	-72.904	-0.181	-0.066
-87.713	565.646	0.027	0.064
-86.699	-141.864	0.218	-0.022
-85.684	-107.394	0.185	0.040
-84.670	75.135	-0.130	-0.137
-83.655	800.000	-0.063	-0.202
-82.640	-200.000	-0.065	0.325
-81.626	9.595	-0.273	-0.206
-80.611	-200.000	0.011	-0.189
-79.597	-112.622	0.259	0.051
-78.582	77.783	0.324	0.344
-77.567	-200.000	0.045	-0.373
-76.553	441.662	-0.043	-0.093
-75.538	-83.269	0.111	0.036
-74.524	-46.126	0.288	-0.141
-73.509	196.011	-0.129	-0.195
-72.494	114.031	-0.234	0.284
-71.480	-166.595	0.342	0.014
-70.465	-200.000	0.021	-0.145
-69.451	-74.404	0.237	0.085
-68.436	-200.000	-0.021	0.142
-67.422	-200.000	0.015	-0.147
-66.407	-200.000	-0.039	0.228
-65.392	293.031	-0.105	0.191
-64.378	-120.017	-0.190	-0.033
-63.363	118.494	0.155	-0.191
-62.349	-16.729	-0.358	0.226
-61.334	81.252	-0.751	-0.807
-60.319	212.727	0.273	0.429
-59.305	800.000	0.179	-0.629
-58.290	97.817	0.617	0.707
-57.276	669.147	0.665	1.712
-56.261	-200.000	84.580	501.872
-55.246	541.996	1384.207	3283.459
-54.232	176.213	2646.021	3823.874
-53.217	110.883	2421.149	2899.550
-52.203	44.558	2158.124	1973.423
-51.188	39.843	2064.090	1843.467
-50.173	38.252	2043.812	1810.557
-49.159	50.824	2086.369	1966.085
-48.144	54.147	2106.153	2015.747
-47.130	40.542	2069.185	1854.265
-46.115	38.208	2057.723	1822.183
-45.100	38.094	2054.670	1818.346
-44.086	38.118	2052.381	1816.471
-43.071	38.095	2049.875	1813.968
-42.057	38.049	2048.104	1811.899
-41.042	38.009	2046.406	1809.961
-40.027	38.077	2043.942	1808.339
-39.013	38.063	2042.145	1806.550
-37.998	38.076	2039.762	1804.488
-36.984	38.015	2038.273	1802.532
-35.969	38.100	2036.416	1801.604
-34.954	38.021	2034.889	1799.448
-33.940	38.098	2033.034	1798.451
-32.925	38.152	2031.494	1797.511
-31.911	38.160	2029.582	1795.826
-30.896	38.132	2027.740	1793.870
-29.881	38.156	2026.419	1792.846
-28.867	38.213	2024.162	1791.301
-27.852	38.112	2023.046	1789.316
-26.838	38.108	2021.553	1787.892
-25.823	38.160	2019.278	1786.280
-24.809	38.150	2017.225	1784.299
-23.794	38.120	2015.385	1782.326
-22.779	38.193	2012.568	1780.436
-21.765	38.114	2011.833	1778.992
-20.750	38.106	2010.231	1777.432
-19.736	38.084	2008.585	1775.710
-18.721	38.199	2006.822	1775.121
-17.706	38.146	2005.623	1773.511
-16.692	38.114	2003.031	1770.861
-15.677	38.214	2001.339	1770.194
-14.663	38.199	2000.492	1769.241
-13.648	38.223	1999.002	1768.074
-12.633	38.148	1997.670	1766.145
-11.619	38.144	1996.562	1765.064
-10.604	38.114	1995.079	1763.405
-9.590	38.116	1993.953	1762.357
-8.575	38.077	1992.656	1760.792
-7.560	38.101	1990.746	1759.249
-6.546	38.209	1989.264	1758.847
-5.531	38.175	1988.279	1757.596
-4.517	38.069	1987.506	1755.887
-3.502	38.142	1985.895	1755.054
-2.487	38.138	1984.450	1753.674
-1.473	38.094	1982.985	1751.914
-0.458	38.173	1978.808	1748.862
0.556	35.535	1958.426	1720.138
1.571	31.004	1936.447	1660.442
2.586	26.451	1958.626	1638.186
3.600	25.200	1996.473	1658.141
4.615	24.744	1994.146	1651.850
5.629	20.191	1891.441	1526.645
6.644	8.771	1760.052	1326.402
7.659	0.832	1712.059	1225.969
8.673	-0.172	1707.510	1214.484
9.688	-0.189	1705.498	1212.808
10.702	-0.298	1704.524	1211.126
11.717	-0.470	1701.959	1207.811
12.731	0.193	1701.712	1212.876
13.746	7.714	1720.168	1286.987
14.761	15.453	1736.551	1362.159
15.775	15.134	1732.388	1356.190
16.790	13.295	1727.775	1337.590
17.804	13.196	1726.716	1335.851
18.819	13.155	1725.435	1334.414
19.834	13.273	1725.127	1335.009
20.848	13.350	1724.733	1335.208
21.863	13.340	1723.327	1333.925
22.877	13.337	1722.456	1333.108
23.892	13.318	1721.355	1331.981
24.907	13.352	1720.451	1331.436
25.921	13.336	1719.186	1330.215
26.936	13.270	1718.418	1328.972
27.950	13.380	1717.410	1328.957
28.965	13.361	1716.970	1328.347
29.980	13.331	1715.342	1326.729
30.994	13.341	1713.986	1325.645
32.009	13.343	1712.609	1324.478
33.023	13.368	1711.429	1323.644
34.038	13.403	1710.126	1322.805
35.053	13.330	1709.185	1321.376
36.067	13.318	1707.957	1320.212
37.082	13.309	1706.332	1318.766
38.096	13.392	1704.990	1318.272
39.111	13.345	1704.269	1317.230
40.126	13.273	1703.067	1315.606
41.140	13.328	1702.271	1315.314
42.155	13.376	1701.245	1314.784
43.169	13.349	1699.658	1313.231
44.184	13.353	1698.652	1312.367
45.199	13.332	1697.425	1311.136
46.213	13.344	1696.262	1310.215
47.228	13.294	1694.793	1308.571
48.242	13.409	1693.314	1308.224
49.257	13.438	1692.347	1307.591
50.271	13.296	1690.927	1305.258
51.286	13.392	1689.310	1304.650
52.301	13.319	1688.141	1303.052
53.315	13.367	1686.314	1301.908
54.330	13.391	1684.985	1300.952
55.344	13.399	1683.360	1299.647
56.359	13.364	1682.088	1298.273
57.374	13.412	1680.861	1297.587
58.388	13.429	1678.914	1296.109
59.403	13.342	1678.060	1294.654
60.417	13.439	1675.948	1293.662
61.432	13.373	1674.980	1292.287
62.447	13.451	1673.682	1291.783
63.461	13.409	1673.045	1290.845
64.476	13.305	1672.259	1289.313
65.490	13.362	1670.643	1288.398
66.505	13.424	1668.798	1287.343
67.520	13.440	1668.099	1286.820
68.534	13.417	1666.812	1285.534
69.549	13.396	1665.749	1284.437
70.563	13.445	1663.828	1283.216
71.578	13.463	1662.502	1282.225
72.593	13.402	1661.879	1281.156
73.607	13.480	1660.749	1280.773
74.622	13.421	1659.320	1279.104
75.636	13.448	1658.691	1278.714
76.651	13.472	1657.542	1277.901
77.666	13.354	1656.519	1276.092
78.680	13.440	1655.804	1276.089
79.695	13.483	1654.311	1275.152
80.709	13.390	1653.001	1273.315
81.724	13.426	1652.246	1272.903
82.739	13.450	1650.807	1271.862
83.753	13.471	1649.411	1270.838
84.768	13.417	1648.459	1269.577
85.782	13.427	1647.098	1268.495
86.797	13.465	1646.041	1267.857
87.812	13.493	1644.746	1266.966
88.826	13.485	1643.479	1265.809
89.841	13.450	1642.078	1264.354
90.855	13.515	1640.842	1263.791
91.870	13.452	1640.023	1262.561
92.884	13.446	1639.029	1261.643
93.899	13.548	1637.383	1261.039
94.914	13.492	1635.906	1259.361
95.928	13.500	1633.978	1257.831
96.943	13.446	1632.476	1256.154
97.957	13.489	1631.402	1255.541
98.972	13.486	1629.442	1253.899
99.987	13.552	1627.545	1252.824
101.001	13.438	1625.921	1250.603
102.016	13.422	1624.473	1249.260
103.030	13.465	1622.656	1248.079
104.045	13.437	1621.052	1246.522
105.060	13.498	1619.073	1245.348
106.074	13.512	1617.628	1244.234
107.089	13.479	1615.924	1242.562
108.103	13.455	1614.646	1241.290
109.118	13.443	1613.003	1239.824
110.133	13.573	1610.977	1239.131
111.147	13.599	1609.430	1238.028
112.162	13.617	1608.122	1237.045
113.176	13.556	1606.385	1235.143
114.191	13.603	1605.175	1234.460
115.206	13.574	1603.479	1232.827
116.220	13.600	1602.154	1231.891
117.235	13.499	1600.477	1229.743
118.249	13.527	1599.035	1228.733
119.264	13.579	1597.373	1227.735
120.279	13.512	1595.966	1226.048
121.293	13.615	1594.148	1225.303
122.308	13.633	1591.878	1223.584
123.322	13.575	1589.910	1221.536
124.337	13.525	1588.525	1219.993
125.352	13.579	1587.049	1219.152
126.366	13.610	1585.416	1218.016
127.381	13.605	1584.335	1217.040
128.395	13.604	1583.155	1216.020
129.410	13.639	1580.913	1214.449
130.424	13.632	1579.789	1213.423
131.439	13.520	1578.200	1211.282
132.454	13.650	1576.723	1210.987
133.468	13.624	1575.020	1209.383
134.483	13.532	1573.558	1207.482
135.497	13.617	1571.984	1206.790
136.512	13.625	1570.530	1205.621
137.527	13.591	1568.857	1203.988
138.541	13.651	1567.693	1203.418
139.556	13.613	1566.133	1201.838
140.570	13.689	1564.274	1200.859
141.585	13.605	1563.402	1199.477
142.600	13.698	1561.022	1198.218
143.614	13.622	1559.503	1196.393
144.629	13.672	1558.183	1195.638
145.643	13.622	1556.766	1194.084
146.658	13.594	1555.143	1192.531
147.673	13.605	1553.548	1191.284
148.687	13.563	1552.496	1190.066
149.702	13.607	1551.207	1189.293
150.716	13.639	1549.003	1187.728
151.731	13.658	1547.832	1186.856
152.746	13.534	1547.028	1185.246
153.760	13.665	1544.857	1184.420
154.775	13.621	1543.995	1183.334
155.789	13.690	1542.402	1182.507
156.804	13.639	1541.513	1181.351
157.819	13.606	1539.918	1179.791
158.833	13.619	1538.705	1178.853
159.848	13.733	1536.925	1178.191
160.862	13.700	1535.487	1176.751
161.877	13.577	1534.421	1174.958
162.892	13.697	1533.132	1174.721
163.906	13.712	1531.959	1173.820
164.921	13.662	1530.376	1172.148
165.935	13.680	1529.414	1171.440
166.950	13.684	1528.321	1170.527
167.964	13.684	1527.271	1169.617
168.979	13.659	1526.179	1168.500
169.994	13.610	1525.372	1167.434
171.008	13.613	1524.315	1166.543
172.023	13.623	1522.978	1165.485
173.037	13.717	1521.628	1165.015
174.052	13.723	1520.535	1164.115
175.067	13.604	1519.405	1162.309
176.081	13.649	1518.228	1161.626
177.096	13.755	1516.966	1161.296
178.110	13.719	1515.805	1160.052
179.125	13.704	1514.462	1158.821
180.140	13.766	1513.644	1158.526
181.154	13.688	1513.054	1157.425
182.169	13.782	1511.787	1157.007
183.183	13.758	1510.495	1155.750
184.198	13.706	1509.546	1154.561
185.213	13.688	1508.658	1153.653
186.227	13.745	1507.420	1153.003
187.242	13.870	1505.862	1152.573
188.256	13.665	1505.554	1150.817
189.271	13.721	1504.179	1150.046
190.286	13.779	1503.448	1149.794
191.300	13.793	1502.121	1148.773
192.315	13.755	1501.011	1147.555
193.329	13.897	1499.985	1147.650
194.344	13.810	1498.734	1145.997
195.359	13.828	1498.163	1145.579
196.373	13.738	1497.254	1144.163
197.388	13.779	1495.749	1143.196
198.402	13.826	1494.354	1142.348
199.417	13.765	1493.880	1141.465
200.432	13.765	1492.619	1140.404
201.446	13.784	1491.897	1139.880
202.461	13.716	1490.882	1138.535
203.475	13.754	1489.631	1137.744
204.490	13.785	1488.655	1137.109
205.504	13.750	1487.382	1135.796
206.519	13.798	1486.668	1135.479
207.534	13.777	1485.503	1134.344
208.548	13.791	1484.233	1133.368
209.563	13.765	1483.660	1132.651
210.577	13.819	1482.515	1132.050
211.592	13.807	1481.666	1131.217
212.607	13.824	1480.823	1130.592
213.621	13.797	1479.907	1129.611
214.636	13.785	1479.212	1128.893
215.650	13.761	1478.585	1128.152
216.665	13.756	1478.005	1127.576
217.680	13.808	1476.679	1126.820
218.694	13.800	1475.812	1126.004
219.709	13.825	1475.030	1125.479
220.723	13.842	1474.006	1124.709
221.738	13.838	1472.939	1123.772
222.753	13.777	1472.028	1122.566
223.767	13.690	1471.526	1121.492
224.782	13.743	1470.257	1120.786
225.796	13.759	1469.124	1119.932
226.811	13.796	1468.092	1119.290
227.826	13.761	1467.672	1118.637
228.840	13.751	1467.164	1118.087
229.855	13.762	1466.113	1117.258
230.869	13.860	1464.641	1116.700
231.884	13.892	1463.211	1115.721
232.899	13.856	1462.539	1114.872
233.913	13.816	1461.491	1113.704
234.928	13.826	1460.245	1112.725
235.942	13.817	1459.061	1111.664
236.957	13.843	1457.880	1110.838
237.972	13.860	1456.868	1110.084
238.986	13.874	1455.658	1109.159
240.001	13.881	1454.573	1108.277
241.015	13.905	1453.885	1107.818
242.030	13.863	1453.063	1106.814
243.045	13.927	1451.581	1106.013
244.059	13.872	1451.236	1105.285
245.074	13.693	1450.600	1103.511
246.088	13.937	1448.946	1103.777
247.103	13.886	1448.545	1103.032
248.117	13.870	1447.582	1102.100
249.132	13.875	1446.923	1101.528
250.147	13.833	1446.061	1100.497
251.161	13.861	1445.704	1100.314
252.176	13.905	1444.633	1099.692
253.190	13.932	1444.130	1099.392
254.205	13.892	1442.848	1098.058
255.220	14.007	1441.521	1097.709
256.234	13.868	1441.240	1096.479
257.249	13.924	1440.361	1096.080
258.263	13.938	1439.318	1095.287
259.278	13.873	1438.044	1093.792
260.293	13.929	1437.163	1093.393
261.307	13.940	1436.903	1093.171
262.322	13.945	1435.841	1092.295
263.336	13.934	1434.840	1091.367
264.351	14.013	1433.371	1090.674
265.366	13.982	1432.669	1089.838
266.380	13.847	1432.173	1088.477
267.395	13.959	1431.144	1088.335
268.409	13.910	1429.908	1086.978
269.424	13.960	1429.144	1086.630
270.439	13.871	1428.336	1085.338
271.453	13.981	1427.266	1085.147
272.468	13.865	1426.747	1083.897
273.482	13.899	1425.990	1083.446
274.497	13.930	1425.187	1082.940
275.512	13.953	1424.040	1082.128
276.526	13.936	1423.051	1081.167
277.541	13.942	1422.145	1080.421
278.555	13.984	1421.409	1080.043
279.570	13.968	1420.481	1079.137
280.585	13.941	1419.515	1078.130
281.599	13.957	1418.589	1077.436
282.614	13.904	1417.856	1076.439
283.628	13.837	1416.545	1074.917
284.643	13.969	1415.530	1074.903
285.657	13.916	1414.425	1073.631
286.672	13.895	1413.759	1072.894
287.687	13.987	1412.541	1072.466
288.701	13.934	1411.546	1071.273
289.716	13.894	1411.156	1070.627
290.730	13.866	1410.631	1069.950
291.745	13.882	1409.211	1068.886
292.760	13.977	1407.915	1068.418
293.774	13.935	1407.123	1067.452
294.789	13.988	1405.829	1066.716
295.803	13.920	1405.067	1065.610
296.818	13.961	1404.296	1065.188
297.833	13.863	1403.543	1063.897
298.847	13.899	1402.568	1063.296
299.862	14.056	1401.300	1063.244
300.876	13.952	1400.611	1061.962
301.891	13.907	1399.648	1060.853
302.906	13.946	1398.226	1059.927
303.920	13.961	1397.792	1059.601
304.935	13.901	1397.465	1058.875
305.949	14.008	1396.088	1058.423
306.964	13.996	1395.030	1057.451
307.979	13.927	1394.473	1056.493
308.993	13.857	1393.495	1055.215
310.008	14.021	1392.340	1055.287
311.022	13.910	1391.371	1053.759
312.037	13.932	1390.215	1052.926
313.052	13.964	1389.441	1052.449
314.066	13.988	1388.542	1051.826
315.081	14.038	1387.217	1051.050
316.095	13.962	1386.398	1049.852
317.110	14.013	1385.114	1049.112
318.125	13.959	1384.964	1048.564
319.139	13.965	1383.529	1047.421
320.154	13.948	1382.544	1046.480
321.168	13.943	1381.827	1045.811
322.183	13.999	1380.140	1044.791
323.197	13.925	1379.627	1043.849
324.212	13.984	1378.845	1043.535
325.227	13.986	1378.457	1043.158
326.241	13.953	1377.253	1041.948
327.256	13.964	1376.241	1041.159
328.270	13.952	1375.199	1040.206
329.285	13.889	1374.713	1039.354
330.300	13.960	1373.681	1038.920
331.314	13.930	1372.936	1038.080
332.329	14.062	1371.883	1038.018
333.343	13.991	1370.933	1036.764
334.358	14.013	1369.687	1035.866
335.373	13.930	1369.253	1034.929
336.387	13.987	1367.922	1034.187
337.402	13.946	1367.494	1033.514
338.416	13.975	1366.871	1033.136
339.431	13.919	1366.225	1032.209
340.446	13.986	1365.649	1032.097
341.460	14.049	1364.305	1031.378
342.475	13.952	1363.246	1029.889
343.489	13.966	1362.482	1029.307
344.504	13.904	1361.762	1028.289
345.519	13.969	1360.391	1027.559
346.533	13.842	1359.309	1025.868
347.548	13.976	1358.427	1025.939
348.562	13.948	1357.471	1024.956
349.577	14.016	1356.548	1024.585
350.592	13.950	1356.040	1023.707
351.606	14.030	1354.920	1023.264
352.621	13.950	1354.014	1021.991
353.635	13.923	1353.160	1021.093
354.650	13.889	1352.267	1020.119
355.665	14.064	1350.672	1019.900
356.679	14.023	1349.553	1018.711
357.694	13.934	1348.677	1017.416
358.708	13.891	1347.741	1016.357
359.723	13.924	1346.971	1015.888
360.738	14.007	1345.637	1015.301
361.752	13.928	1344.771	1014.076
362.767	14.061	1343.324	1013.708
363.781	14.014	1342.322	1012.571
364.796	13.997	1341.450	1011.719
365.810	13.866	1341.322	1010.738
366.825	13.961	1340.102	1010.307
367.840	13.933	1339.504	1009.596
368.854	13.875	1338.499	1008.397
369.869	13.912	1338.014	1008.166
370.883	13.891	1337.012	1007.198
371.898	13.917	1336.774	1007.086
372.913	13.922	1335.582	1006.130
373.927	14.013	1334.451	1005.740
374.942	13.939	1333.681	1004.624
375.956	13.886	1333.348	1003.963
376.971	13.891	1332.545	1003.296
377.986	14.026	1331.178	1002.995
379.000	13.970	1330.166	1001.809
380.015	13.985	1329.478	1001.289
381.029	13.817	1329.126	999.925
382.044	13.865	1328.408	999.585
383.059	13.840	1327.720	998.825
384.073	13.957	1326.277	998.356
385.088	13.931	1326.304	998.133
386.102	13.869	1325.019	996.703
387.117	13.933	1324.092	996.303
388.132	13.971	1323.380	995.909
389.146	13.909	1322.479	994.768
390.161	13.887	1321.687	993.952
391.175	13.793	1321.200	992.939
392.190	13.837	1320.277	992.421
393.205	13.907	1319.022	991.805
394.219	13.844	1318.223	990.742
395.234	13.935	1316.700	990.052
396.248	13.925	1315.413	988.939
397.263	13.915	1313.902	987.656
398.278	13.838	1312.788	986.270
399.292	13.906	1311.635	985.722
400.307	13.780	1311.143	984.515
401.321	13.869	1309.978	984.083
402.336	13.831	1308.721	982.828
403.350	13.891	1307.742	982.359
404.365	13.912	1306.582	981.523
405.380	13.815	1305.942	980.385
406.394	13.774	1305.307	979.579
407.409	13.815	1304.363	979.028
408.423	13.934	1303.293	978.839
409.438	13.765	1303.156	977.650
410.453	13.783	1301.955	976.770
411.467	13.801	1301.337	976.326
412.482	13.777	1300.291	975.313
413.496	13.860	1299.630	975.217
414.511	13.781	1299.132	974.296
415.526	13.778	1297.975	973.322
416.540	13.871	1297.253	973.240
417.555	13.873	1296.351	972.491
418.569	13.779	1295.586	971.281
419.584	13.783	1295.354	971.043
420.599	13.826	1294.495	970.564
421.613	135.097	1417.601	1776.285
422.628	130.973	1435.514	1776.400
