DTS Sentinel unit serial number:	SN413079Multiplexer serial number:	ORYXHardware model number:	OX4-SRSoftware version number:	ORYX F/W v4.00 Oryx Data Collector v3.7.2.0data status	okinstallation	princeton_trtdifferential loss correction	single-endedforward channel	channel 4reverse channel	N/Adate	2019/09/11time	18:19:11forward acquisition time	60.00reverse acquisition time	0.00gamma	496.2192k internal	0.2275k external	0.2275temperature offset calibration	1.0024default loss term (dB/km)	0.3790temperature slope calibration	1.0000multiplexer offset coefficient	1.0000multiplexer slope coefficient	1.0000fibre end	0.00T internal ref (°C)	44.00T ext. ref 1 (°C)	1.17T ext. ref 2 (°C)	38.94length (m)	temperature (°C)	Stokes	anti-Stokes-747.200	-200.000	0.025	0.128
-746.185	32.964	0.179	0.160
-745.171	-15.641	-0.184	0.121
-744.156	-54.157	0.249	-0.117
-743.142	155.581	0.185	-0.263
-742.127	-33.708	0.274	0.156
-741.112	137.599	-0.138	-0.186
-740.098	-46.447	-0.191	0.096
-739.083	800.000	-0.125	-0.413
-738.069	-46.415	-0.066	-0.034
-737.054	28.876	-0.138	-0.121
-736.039	768.247	0.048	-0.135
-735.025	800.000	0.038	0.128
-734.010	-112.266	-0.220	-0.045
-732.996	-200.000	-0.063	0.309
-731.981	321.232	0.124	-0.243
-730.966	-135.538	-0.168	-0.021
-729.952	-31.349	-0.114	0.066
-728.937	-119.002	-0.589	-0.106
-727.923	-200.000	0.039	-0.538
-726.908	602.855	-0.111	-0.285
-725.894	800.000	-0.081	0.318
-724.879	118.517	0.265	0.336
-723.864	75.564	-0.160	0.174
-722.850	22.414	-0.075	-0.063
-721.835	401.930	-0.172	-0.372
-720.821	-136.085	-0.195	0.024
-719.806	489.719	0.117	-0.276
-718.791	-76.993	-0.195	0.070
-717.777	25.272	0.195	-0.167
-716.762	-32.928	0.313	0.179
-715.748	14.410	0.180	0.144
-714.733	47.414	0.112	0.107
-713.718	-123.216	0.239	0.039
-712.704	-82.308	-0.273	0.092
-711.689	800.000	-0.098	-0.304
-710.675	-180.240	-0.364	-0.008
-709.660	502.550	0.007	-0.016
-708.645	-21.279	0.109	0.069
-707.631	-90.675	-0.225	-0.067
-706.616	800.000	-0.079	-0.231
-705.602	493.115	0.140	-0.331
-704.587	545.121	-0.065	-0.160
-703.572	-200.000	-0.013	-0.354
-702.558	-109.808	-0.084	0.018
-701.543	-138.134	0.224	-0.026
-700.529	184.840	0.219	0.335
-699.514	-73.490	0.314	-0.118
-698.499	-200.000	0.028	0.328
-697.485	-63.902	0.235	-0.099
-696.470	-200.000	-0.026	0.140
-695.456	-47.008	0.061	-0.031
-694.441	800.000	0.050	0.146
-693.426	800.000	0.078	-0.250
-692.412	337.700	0.084	-0.168
-691.397	239.733	0.021	-0.036
-690.383	12.833	-0.332	-0.264
-689.368	-27.676	-0.342	-0.204
-688.354	73.433	-0.212	-0.229
-687.339	-185.176	0.140	0.002
-686.324	-79.467	0.393	-0.137
-685.310	4.545	0.189	-0.143
-684.295	167.195	-0.065	-0.095
-683.281	-200.000	-0.013	-0.134
-682.266	169.881	0.062	0.092
-681.251	-188.010	0.447	-0.006
-680.237	-27.477	0.194	-0.116
-679.222	-169.282	0.231	0.009
-678.208	34.120	-0.160	-0.143
-677.193	800.000	-0.053	-0.235
-676.178	-2.920	-0.148	-0.106
-675.164	179.645	-0.090	0.135
-674.149	-50.567	0.163	0.079
-673.135	-140.967	-0.020	0.002
-672.120	-88.535	-0.195	-0.060
-671.105	-120.723	-0.246	-0.043
-670.091	293.057	-0.010	-0.019
-669.076	800.000	-0.070	-0.296
-668.062	-161.987	-0.432	-0.022
-667.047	-120.759	-0.308	0.053
-666.032	-200.000	0.409	-0.001
-665.018	-190.253	-0.235	-0.003
-664.003	-200.000	-0.002	-0.249
-662.989	211.733	0.142	-0.230
-661.974	12.583	0.227	-0.180
-660.959	98.112	0.086	0.102
-659.945	71.188	-0.061	-0.065
-658.930	263.421	0.079	-0.142
-657.916	-75.916	0.164	-0.060
-656.901	-13.325	-0.069	-0.046
-655.886	274.826	-0.267	0.486
-654.872	450.196	0.045	0.103
-653.857	-64.021	0.094	0.039
-652.843	-200.000	-0.061	-0.354
-651.828	-28.254	-0.179	-0.106
-650.814	-200.000	0.025	0.255
-649.799	50.228	-0.110	0.107
-648.784	-166.930	-0.180	0.008
-647.770	114.071	0.311	-0.389
-646.755	-200.000	-0.055	0.281
-645.741	-5.338	-0.026	-0.018
-644.726	800.000	-0.009	0.030
-643.711	-200.000	-0.038	0.217
-642.697	800.000	-0.090	0.400
-641.682	77.712	0.307	0.336
-640.668	179.134	-0.170	-0.256
-639.653	800.000	0.056	0.222
-638.638	236.862	-0.112	0.190
-637.624	176.654	-0.259	-0.386
-636.609	800.000	-0.038	-0.130
-635.595	-200.000	-0.019	-0.097
-634.580	-148.588	-0.220	0.018
-633.565	800.000	-0.052	-0.159
-632.551	193.455	-0.069	-0.107
-631.536	-200.000	-0.014	-0.185
-630.522	-200.000	-0.003	-0.126
-629.507	-18.357	-0.320	-0.205
-628.492	9.047	-0.228	-0.177
-627.478	140.872	-0.020	0.027
-626.463	-28.654	0.174	0.103
-625.449	-80.466	-0.349	0.119
-624.434	-79.180	0.119	-0.042
-623.419	-104.938	0.162	-0.038
-622.405	-200.000	0.024	-0.308
-621.390	399.386	0.113	0.243
-620.376	-35.125	0.082	-0.046
-619.361	-76.590	0.100	-0.036
-618.346	228.058	-0.159	-0.265
-617.332	793.651	-0.037	-0.105
-616.317	18.016	0.050	0.041
-615.303	70.553	-0.107	0.113
-614.288	-100.732	0.246	-0.062
-613.273	-150.301	0.386	0.031
-612.259	-200.000	-0.008	-0.202
-611.244	-140.865	0.315	-0.033
-610.230	71.734	-0.167	-0.178
-609.215	-200.000	-0.028	0.133
-608.201	-85.208	-0.487	0.156
-607.186	-200.000	-0.001	0.020
-606.171	-200.000	0.029	0.206
-605.157	17.101	0.201	-0.163
-604.142	357.035	0.084	-0.172
-603.128	527.151	0.094	-0.227
-602.113	85.204	0.252	0.283
-601.098	119.382	0.148	0.188
-600.084	76.257	0.298	-0.323
-599.069	348.709	-0.131	0.266
-598.055	122.379	0.136	-0.174
-597.040	412.954	0.176	-0.383
-596.025	-200.000	-0.037	0.241
-595.011	423.954	0.090	0.199
-593.996	-200.000	-0.008	-0.037
-592.982	-57.740	0.185	-0.083
-591.967	199.890	-0.244	-0.384
-590.952	159.744	-0.256	-0.365
-589.938	800.000	-0.109	-0.313
-588.923	46.628	0.044	0.042
-587.909	229.779	0.006	-0.010
-586.894	800.000	0.073	0.241
-585.879	94.728	0.061	0.071
-584.865	100.608	0.132	-0.157
-583.850	-1.298	0.196	0.142
-582.836	-200.000	0.003	-0.041
-581.821	-200.000	-0.003	0.086
-580.806	237.514	-0.019	-0.031
-579.792	-200.000	0.067	-0.332
-578.777	258.849	-0.040	0.071
-577.763	-2.972	-0.248	-0.178
-576.748	-94.630	-0.268	0.075
-575.733	8.973	-0.124	0.096
-574.719	-200.000	-0.033	-0.327
-573.704	114.338	-0.110	-0.138
-572.690	-139.917	-0.175	-0.019
-571.675	44.449	-0.166	-0.156
-570.661	-76.366	0.029	-0.011
-569.646	35.469	0.201	0.180
-568.631	-195.972	-0.306	0.002
-567.617	-114.028	-0.419	0.083
-566.602	-180.370	-0.098	-0.002
-565.588	-200.000	0.007	-0.267
-564.573	57.952	0.176	-0.177
-563.558	1.594	0.059	-0.044
-562.544	113.740	-0.031	-0.038
-561.529	-43.530	0.080	-0.041
-560.515	232.562	0.132	0.222
-559.500	-34.242	-0.092	0.052
-558.485	170.992	-0.136	-0.199
-557.471	280.201	0.112	-0.205
-556.456	-200.000	0.011	0.052
-555.442	-33.706	-0.122	-0.069
-554.427	-200.000	-0.000	-0.091
-553.412	800.000	-0.026	0.098
-552.398	641.324	-0.134	-0.350
-551.383	1.398	0.166	-0.122
-550.369	-85.594	0.037	0.012
-549.354	-77.440	-0.180	0.064
-548.339	-135.950	0.031	-0.004
-547.325	800.000	-0.086	-0.281
-546.310	800.000	-0.054	0.243
-545.296	-200.000	0.008	0.234
-544.281	11.580	-0.489	-0.384
-543.266	-83.686	-0.248	-0.081
-542.252	270.780	0.089	0.161
-541.237	-175.693	-0.253	-0.007
-540.223	800.000	0.050	-0.154
-539.208	-157.327	-0.365	0.023
-538.193	800.000	-0.046	-0.142
-537.179	155.778	0.274	0.386
-536.164	-142.860	-0.275	-0.027
-535.150	-177.354	-0.188	-0.005
-534.135	-200.000	-0.071	0.430
-533.121	261.454	0.195	0.345
-532.106	-186.179	-0.039	0.001
-531.091	800.000	-0.043	-0.128
-530.077	-78.260	-0.310	0.109
-529.062	352.114	0.088	0.178
-528.048	-200.000	0.012	-0.059
-527.033	800.000	0.081	0.303
-526.018	-200.000	0.022	0.146
-525.004	-75.621	-0.062	-0.023
-523.989	474.783	-0.022	-0.051
-522.975	-200.000	0.001	0.069
-521.960	-8.550	-0.230	0.158
-520.945	-200.000	0.038	0.361
-519.931	-200.000	-0.051	-0.297
-518.916	337.639	-0.102	-0.202
-517.902	-200.000	0.020	0.246
-516.887	8.587	0.219	0.168
-515.872	-88.925	0.149	-0.045
-514.858	800.000	0.039	-0.114
-513.843	254.592	-0.157	-0.274
-512.829	45.713	-0.177	-0.167
-511.814	-172.758	-0.204	0.007
-510.799	-167.302	-0.119	-0.005
-509.785	44.804	-0.113	-0.107
-508.770	39.518	0.096	0.088
-507.756	-34.672	-0.076	0.042
-506.741	-49.813	-0.112	0.054
-505.726	-115.384	0.097	-0.019
-504.712	116.643	-0.092	0.115
-503.697	-200.000	0.015	0.148
-502.683	14.043	0.214	-0.170
-501.668	143.874	-0.102	0.139
-500.653	211.609	-0.083	0.134
-499.639	4.198	0.124	-0.092
-498.624	-200.000	-0.056	0.360
-497.610	190.565	0.187	-0.286
-496.595	-97.000	-0.174	0.046
-495.581	-200.000	0.005	-0.162
-494.566	-200.000	-0.167	0.001
-493.551	800.000	-0.073	0.250
-492.537	665.946	-0.051	0.134
-491.522	-74.942	0.176	-0.064
-490.508	125.548	0.097	-0.125
-489.493	-51.865	-0.295	0.140
-488.478	-14.154	0.178	0.117
-487.464	800.000	0.053	0.201
-486.449	62.013	0.078	0.079
-485.435	-80.793	-0.251	0.085
-484.420	-117.904	-0.334	-0.061
-483.405	800.000	0.163	-0.505
-482.391	93.580	-0.231	0.267
-481.376	-200.000	-0.008	0.114
-480.362	206.039	-0.103	0.163
-479.347	-200.000	0.018	0.211
-478.332	-200.000	-0.011	-0.051
-477.318	-174.072	0.259	-0.008
-476.303	-176.296	0.106	0.003
-475.289	-1.011	0.060	-0.043
-474.274	-200.000	0.019	-0.171
-473.259	-200.000	0.004	-0.369
-472.245	100.356	-0.115	-0.136
-471.230	119.418	0.170	-0.215
-470.216	109.763	-0.094	0.115
-469.201	-26.988	0.084	0.050
-468.186	-78.394	0.239	0.084
-467.172	-200.000	0.065	-0.353
-466.157	19.648	0.115	-0.094
-465.143	-0.924	0.199	0.144
-464.128	589.920	-0.089	0.224
-463.113	-27.397	-0.023	-0.013
-462.099	-183.138	-0.140	0.003
-461.084	92.929	-0.146	0.169
-460.070	-147.418	0.246	-0.021
-459.055	-29.013	-0.118	-0.069
-458.040	-86.907	-0.190	0.059
-457.026	383.105	-0.058	-0.123
-456.011	-40.975	-0.287	-0.151
-454.997	63.025	-0.150	-0.153
-453.982	296.343	0.038	-0.071
-452.968	-200.000	0.017	-0.196
-451.953	84.720	0.098	-0.110
-450.938	-31.297	-0.399	0.229
-449.924	109.817	-0.264	-0.323
-448.909	-200.000	0.040	-0.205
-447.895	384.500	0.029	0.061
-446.880	-91.953	-0.144	-0.042
-445.865	-61.769	-0.136	0.058
-444.851	722.447	-0.035	0.096
-443.836	350.308	-0.107	0.215
-442.822	86.638	-0.074	-0.084
-441.807	-200.000	0.050	0.284
-440.792	233.343	-0.093	-0.156
-439.778	800.000	0.061	-0.262
-438.763	-200.000	0.014	-0.118
-437.749	389.439	0.151	0.320
-436.734	-93.464	-0.183	0.052
-435.719	46.775	0.257	0.243
-434.705	-104.671	0.193	0.045
-433.690	-131.977	0.321	-0.043
-432.676	170.071	0.109	-0.159
-431.661	90.168	0.145	-0.166
-430.646	-127.159	-0.467	0.070
-429.632	-116.119	-0.092	0.017
-428.617	-94.157	-0.102	-0.028
-427.603	-159.845	0.448	-0.025
-426.588	255.391	-0.105	-0.182
-425.573	-3.914	-0.267	-0.189
-424.559	49.386	0.160	0.153
-423.544	-200.000	0.054	-0.247
-422.530	100.937	0.238	-0.282
-421.515	192.261	-0.187	-0.287
-420.500	197.015	-0.183	0.284
-419.486	-114.753	-0.399	0.078
-418.471	-86.116	0.186	-0.058
-417.457	-189.040	-0.230	-0.003
-416.442	-56.467	0.392	0.177
-415.428	800.000	-0.053	-0.213
-414.413	98.112	-0.087	-0.102
-413.398	355.168	0.164	-0.332
-412.384	102.555	-0.115	-0.137
-411.369	-200.000	0.046	-0.252
-410.355	-200.000	0.029	0.142
-409.340	-200.000	0.006	0.077
-408.325	-60.914	-0.127	0.055
-407.311	-200.000	-0.013	-0.178
-406.296	-13.427	-0.241	0.159
-405.282	-17.932	0.188	-0.120
-404.267	-26.868	0.234	-0.139
-403.252	-165.611	-0.114	-0.005
-402.238	-90.634	0.346	-0.102
-401.223	526.046	-0.079	0.190
-400.209	227.561	0.040	-0.066
-399.194	-29.784	-0.131	0.076
-398.179	-160.130	0.100	-0.006
-397.165	-111.388	-0.072	0.015
-396.150	-161.339	-0.113	-0.006
-395.136	109.960	-0.172	0.210
-394.121	19.162	0.179	0.146
-393.106	-200.000	-0.015	0.143
-392.092	175.516	0.072	0.106
-391.077	196.843	0.014	-0.022
-390.063	1.988	0.337	-0.247
-389.048	-90.048	0.286	-0.085
-388.033	-140.086	0.190	-0.020
-387.019	-200.000	-0.035	-0.316
-386.004	-50.716	0.248	0.119
-384.990	-123.844	0.098	0.016
-383.975	194.291	-0.193	-0.297
-382.960	429.415	0.107	-0.236
-381.946	800.000	-0.082	0.292
-380.931	-116.571	0.259	-0.049
-379.917	383.933	-0.167	0.351
-378.902	683.217	0.049	-0.130
-377.888	478.781	0.131	0.302
-376.873	-200.000	0.028	0.174
-375.858	-200.000	0.045	0.230
-374.844	-101.946	-0.366	0.090
-373.829	159.234	0.127	0.179
-372.815	-20.774	0.178	-0.111
-371.800	35.383	0.178	-0.159
-370.785	-72.441	0.223	-0.084
-369.771	313.249	0.077	-0.146
-368.756	-200.000	0.012	0.265
-367.742	-126.036	-0.168	-0.026
-366.727	-19.691	0.083	-0.052
-365.712	-200.000	0.009	0.174
-364.698	211.850	0.120	0.193
-363.683	800.000	0.050	-0.167
-362.669	-10.508	-0.121	-0.082
-361.654	-31.249	0.144	0.083
-360.639	323.908	0.045	0.087
-359.625	113.461	-0.103	-0.127
-358.610	-200.000	-0.014	-0.222
-357.596	-100.210	-0.214	-0.054
-356.581	-200.000	-0.016	0.153
-355.566	-46.719	0.083	-0.041
-354.552	-131.130	-0.425	-0.057
-353.537	800.000	-0.040	0.166
-352.523	-36.692	0.241	0.131
-351.508	-110.884	-0.291	-0.061
-350.493	100.932	0.039	-0.046
-349.479	5.885	-0.237	-0.178
-348.464	-200.000	0.014	0.183
-347.450	224.182	-0.148	-0.243
-346.435	-67.052	0.133	-0.053
-345.420	70.252	-0.244	0.256
-344.406	-140.369	-0.137	-0.015
-343.391	-21.596	0.322	0.199
-342.377	-75.458	-0.378	0.137
-341.362	168.151	-0.179	0.259
-340.348	-141.182	0.380	-0.039
-339.333	379.410	-0.048	-0.099
-338.318	-162.061	0.288	0.015
-337.304	221.033	-0.108	0.175
-336.289	-20.044	0.240	0.150
-335.275	-34.017	-0.314	-0.175
-334.260	-200.000	0.004	-0.326
-333.245	9.812	0.119	-0.092
-332.231	-24.152	-0.077	0.047
-331.216	-91.744	-0.055	-0.016
-330.202	-7.967	-0.220	0.151
-329.187	7.963	0.153	-0.116
-328.172	15.452	0.126	0.100
-327.158	-45.029	0.197	-0.099
-326.143	67.824	0.237	0.245
-325.129	-14.077	0.163	0.107
-324.114	150.962	-0.116	0.160
-323.099	-102.786	0.065	-0.016
-322.085	-42.523	-0.325	0.168
-321.070	-200.000	0.023	-0.359
-320.056	194.126	0.151	0.232
-319.041	-9.232	0.142	0.096
-318.026	93.176	0.167	-0.192
-317.012	-121.409	-0.234	-0.039
-315.997	79.691	0.256	0.279
-314.983	23.259	0.312	-0.260
-313.968	243.920	-0.073	-0.124
-312.953	34.010	-0.160	0.141
-311.939	-128.298	0.215	0.031
-310.924	96.371	-0.056	0.065
-309.910	317.670	0.046	0.088
-308.895	133.345	-0.118	0.155
-307.880	800.000	0.051	-0.198
-306.866	-40.915	-0.065	-0.034
-305.851	800.000	0.028	-0.115
-304.837	107.061	0.200	0.240
-303.822	-200.000	0.024	-0.315
-302.807	119.970	0.134	0.168
-301.793	-67.145	0.147	0.059
-300.778	800.000	-0.108	-0.323
-299.764	162.413	-0.296	0.421
-298.749	-200.000	-0.025	-0.326
-297.735	380.970	-0.113	0.235
-296.720	403.454	-0.071	0.151
-295.705	190.001	0.056	-0.085
-294.691	20.125	0.124	-0.102
-293.676	-200.000	-0.003	0.266
-292.662	767.783	0.085	0.234
-291.647	800.000	0.015	0.045
-290.632	302.152	0.098	0.184
-289.618	-93.648	-0.394	-0.110
-288.603	-86.437	-0.145	0.045
-287.589	35.307	0.018	0.016
-286.574	377.263	-0.146	0.301
-285.559	-60.895	0.255	-0.109
-284.545	-200.000	0.004	0.113
-283.530	-200.000	0.027	0.159
-282.516	-123.409	-0.313	-0.050
-281.501	-12.733	-0.182	0.120
-280.486	-200.000	-0.014	0.201
-279.472	-148.998	0.218	0.018
-278.457	-200.000	-0.046	-0.260
-277.443	118.838	-0.144	0.180
-276.428	10.193	0.084	0.065
-275.413	-72.673	-0.056	-0.021
-274.399	-200.000	0.000	-0.296
-273.384	-200.000	0.002	-0.156
-272.370	47.501	-0.174	-0.164
-271.355	-200.000	0.040	-0.375
-270.340	4.765	0.120	0.089
-269.326	-200.000	0.006	0.218
-268.311	-40.021	-0.336	0.177
-267.297	-200.000	-0.023	0.291
-266.282	273.764	0.182	0.325
-265.267	159.487	0.074	0.104
-264.253	-200.000	-0.001	0.125
-263.238	-113.082	-0.107	0.021
-262.224	51.420	0.188	0.181
-261.209	800.000	-0.066	0.225
-260.195	280.136	0.130	0.234
-259.180	24.724	0.323	0.271
-258.165	-200.000	0.018	-0.142
-257.151	103.615	-0.147	-0.174
-256.136	134.029	0.041	0.054
-255.122	800.000	-0.031	0.100
-254.107	767.893	-0.098	-0.269
-253.092	572.564	0.040	0.098
-252.078	-128.188	0.559	-0.081
-251.063	-113.212	0.524	-0.104
-250.049	-22.637	0.182	0.111
-249.034	-72.465	-0.266	0.099
-248.019	176.267	-0.063	-0.093
-247.005	-53.460	0.071	0.033
-245.990	-33.747	-0.029	-0.016
-244.976	-11.637	0.256	-0.170
-243.961	-30.672	-0.175	-0.100
-242.946	107.014	0.096	0.115
-241.932	-83.562	-0.304	0.098
-240.917	-200.000	-0.001	-0.057
-239.903	5.029	0.115	0.086
-238.888	-200.000	0.076	-0.372
-237.873	-200.000	-0.009	-0.218
-236.859	-200.000	0.008	0.383
-235.844	800.000	0.045	0.135
-234.830	52.682	0.282	-0.272
-233.815	292.730	-0.163	0.300
-232.800	-9.872	-0.488	-0.328
-231.786	-70.772	0.049	-0.019
-230.771	-51.786	-0.205	0.097
-229.757	78.971	0.058	-0.062
-228.742	-32.285	-0.108	-0.061
-227.727	-10.764	-0.185	-0.124
-226.713	-200.000	0.022	-0.240
-225.698	44.586	0.217	0.202
-224.684	44.194	0.107	0.099
-223.669	-67.910	0.223	0.088
-222.655	229.870	0.094	-0.155
-221.640	-92.058	0.248	0.071
-220.625	239.010	0.089	-0.149
-219.611	-97.459	0.310	-0.081
-218.596	443.610	0.030	-0.066
-217.582	-131.743	-0.121	0.016
-216.567	-123.190	0.168	-0.027
-215.552	231.082	0.244	0.404
-214.538	-200.000	0.063	0.291
-213.523	-200.000	-0.003	0.058
-212.509	309.995	-0.093	-0.177
-211.494	-200.000	0.009	0.152
-210.479	-157.348	0.338	-0.021
-209.465	119.904	0.125	0.156
-208.450	-26.102	-0.176	0.104
-207.436	11.236	0.068	-0.053
-206.421	178.155	0.076	0.112
-205.406	50.079	0.152	0.145
-204.392	-200.000	-0.034	-0.240
-203.377	642.067	0.058	-0.149
-202.363	-28.036	0.173	0.101
-201.348	7.211	-0.330	0.248
-200.333	-7.741	0.133	-0.091
-199.319	-139.077	0.333	0.036
-198.304	-119.372	0.211	0.037
-197.290	-47.258	0.270	0.133
-196.275	-28.797	0.254	-0.147
-195.260	800.000	-0.091	-0.328
-194.246	20.141	-0.048	0.039
-193.231	140.614	0.096	0.128
-192.217	-96.710	0.055	-0.015
-191.202	-108.541	-0.136	0.030
-190.187	390.835	0.050	0.104
-189.173	670.611	-0.201	0.526
-188.158	180.210	-0.266	0.393
-187.144	-36.947	0.332	-0.179
-186.129	-200.000	0.032	-0.413
-185.114	193.176	0.162	0.248
-184.100	-50.793	0.174	0.082
-183.085	229.998	0.220	0.363
-182.071	-34.486	-0.307	-0.169
-181.056	60.143	0.114	-0.114
-180.042	-200.000	-0.007	0.324
-179.027	-73.386	-0.105	0.039
-178.012	318.506	0.067	0.128
-176.998	-100.985	-0.286	0.071
-175.983	19.758	-0.123	-0.100
-174.969	-142.255	-0.216	0.021
-173.954	800.000	-0.073	-0.243
-172.939	739.583	-0.101	-0.275
-171.925	-96.058	-0.318	-0.085
-170.910	155.816	0.177	0.246
-169.896	-70.454	-0.103	-0.039
-168.881	-136.440	-0.190	-0.022
-167.866	-20.904	0.317	-0.196
-166.852	-60.601	-0.313	0.134
-165.837	254.661	-0.025	0.042
-164.823	800.000	-0.075	-0.257
-163.808	-177.361	0.305	0.008
-162.793	-34.263	0.334	-0.185
-161.779	800.000	0.072	0.282
-160.764	-200.000	-0.012	-0.246
-159.750	-46.664	-0.255	-0.126
-158.735	-46.552	-0.061	-0.030
-157.720	89.533	0.117	-0.132
-156.706	-193.969	-0.409	-0.003
-155.691	-200.000	0.035	-0.160
-154.677	315.666	-0.065	-0.124
-153.662	-93.243	0.445	-0.124
-152.647	-26.340	0.268	-0.159
-151.633	-200.000	0.012	0.311
-150.618	9.672	0.065	0.050
-149.604	39.808	-0.279	-0.252
-148.589	-97.204	-0.247	0.065
-147.574	185.082	-0.220	-0.329
-146.560	-103.533	-0.097	-0.023
-145.545	800.000	0.012	-0.040
-144.531	106.685	-0.106	0.127
-143.516	114.140	0.084	0.103
-142.502	76.641	0.282	-0.302
-141.487	-118.165	0.482	-0.087
-140.472	-78.239	-0.191	0.066
-139.458	-200.000	0.077	0.403
-138.443	-65.195	-0.404	0.164
-137.429	124.793	0.267	-0.339
-136.414	-124.989	0.366	0.057
-135.399	800.000	-0.093	0.259
-134.385	-55.764	0.336	0.151
-133.370	453.185	0.139	0.310
-132.356	-111.485	-0.227	-0.047
-131.341	-200.000	-0.001	-0.027
-130.326	35.565	0.030	-0.026
-129.312	296.796	-0.120	-0.221
-128.297	-200.000	-0.032	0.202
-127.283	-15.408	-0.328	0.211
-126.268	3.962	-0.360	-0.265
-125.253	402.722	-0.127	-0.268
-124.239	-200.000	0.021	-0.254
-123.224	-7.155	0.253	-0.173
-122.210	800.000	-0.062	0.190
-121.195	-18.594	-0.330	0.207
-120.180	-34.075	0.118	-0.065
-119.166	-63.604	-0.053	-0.022
-118.151	-174.552	0.165	0.005
-117.137	-10.105	-0.038	-0.026
-116.122	125.038	-0.036	-0.045
-115.107	19.925	0.290	-0.235
-114.093	299.353	0.103	-0.191
-113.078	-119.734	0.344	0.060
-112.064	-200.000	-0.082	-0.372
-111.049	-148.460	-0.112	0.009
-110.034	800.000	-0.096	-0.284
-109.020	344.043	-0.095	-0.186
-108.005	154.253	0.165	0.227
-106.991	8.706	0.201	-0.153
-105.976	800.000	-0.019	0.059
-104.962	-7.644	-0.252	-0.171
-103.947	178.043	0.093	-0.137
-102.932	-41.824	0.146	-0.075
-101.918	347.974	0.085	-0.168
-100.903	280.936	0.012	-0.021
-99.889	-54.294	0.102	-0.047
-98.874	800.000	0.047	0.141
-97.859	-122.293	0.240	0.039
-96.845	-81.867	-0.192	-0.063
-95.830	800.000	-0.128	-0.363
-94.816	708.437	-0.096	0.255
-93.801	800.000	0.058	-0.171
-92.786	90.198	-0.175	-0.197
-91.772	-83.300	0.195	-0.063
-90.757	268.004	0.291	0.513
-89.743	-154.120	-0.198	-0.014
-88.728	6.483	0.058	0.043
-87.713	-42.861	-0.235	-0.120
-86.699	29.764	0.035	0.030
-85.684	-92.459	-0.149	-0.042
-84.670	-1.280	0.169	-0.120
-83.655	-144.661	0.072	0.007
-82.640	-14.784	-0.132	-0.085
-81.626	368.038	0.090	0.183
-80.611	206.406	-0.140	0.219
-79.597	-200.000	-0.394	-0.002
-78.582	308.931	0.175	-0.329
-77.567	-32.611	-0.287	0.161
-76.553	-178.889	0.150	0.003
-75.538	-200.000	0.040	-0.182
-74.524	127.022	-0.130	0.166
-73.509	95.425	0.154	-0.177
-72.494	33.229	0.221	0.193
-71.480	800.000	-0.052	0.194
-70.465	-144.046	-0.271	-0.026
-69.451	-136.543	-0.288	0.034
-68.436	-41.262	-0.229	0.119
-67.422	196.924	0.092	-0.141
-66.407	-144.152	-0.227	-0.021
-65.392	144.522	-0.107	-0.144
-64.378	40.849	-0.198	-0.179
-63.363	81.575	0.215	0.233
-62.349	428.697	0.102	0.221
-61.334	238.732	-0.421	-0.702
-60.319	-200.000	0.056	0.316
-59.305	-200.000	0.110	-0.567
-58.290	175.302	0.547	0.796
-57.276	800.000	0.515	1.505
-56.261	-200.000	71.045	529.031
-55.246	603.311	1267.785	3165.482
-54.232	144.691	2495.635	3347.193
-53.217	112.638	2367.132	2876.421
-52.203	51.618	2104.247	2007.953
-51.188	46.253	2009.838	1869.195
-50.173	44.241	1991.348	1833.776
-49.159	55.844	2026.190	1971.552
-48.144	61.857	2046.872	2046.251
-47.130	46.956	2012.048	1877.352
-46.115	44.095	2001.498	1841.505
-45.100	44.053	1998.019	1837.852
-44.086	43.927	1996.421	1835.170
-43.071	43.845	1994.203	1832.312
-42.057	43.725	1992.450	1829.545
-41.042	43.908	1989.921	1828.799
-40.027	43.950	1987.339	1826.736
-39.013	43.889	1986.066	1824.941
-37.998	43.916	1984.092	1823.304
-36.984	43.925	1982.628	1821.961
-35.969	43.970	1980.692	1820.520
-34.954	44.037	1978.372	1818.910
-33.940	44.021	1977.877	1818.245
-32.925	44.056	1976.013	1816.773
-31.911	44.084	1974.014	1815.111
-30.896	44.027	1972.499	1813.134
-29.881	43.998	1971.058	1811.480
-28.867	44.057	1969.202	1810.229
-27.852	44.027	1967.311	1808.147
-26.838	43.986	1965.505	1806.052
-25.823	44.101	1963.592	1805.247
-24.809	44.001	1962.131	1802.942
-23.794	44.042	1960.453	1801.692
-22.779	44.042	1958.151	1799.510
-21.765	44.008	1956.659	1797.760
-20.750	44.141	1954.820	1797.180
-19.736	44.001	1953.838	1794.963
-18.721	43.959	1952.234	1793.052
-17.706	43.977	1950.846	1791.867
-16.692	43.990	1948.970	1790.188
-15.677	44.027	1946.942	1788.573
-14.663	43.973	1945.794	1786.972
-13.648	43.946	1944.541	1785.517
-12.633	44.006	1943.205	1784.747
-11.619	44.001	1942.244	1783.752
-10.604	43.984	1940.441	1781.877
-9.590	43.976	1938.809	1780.234
-8.575	43.990	1937.400	1778.995
-7.560	44.074	1936.135	1778.495
-6.546	44.018	1934.933	1776.832
-5.531	44.019	1933.675	1775.610
-4.517	44.008	1932.575	1774.436
-3.502	44.055	1931.476	1773.766
-2.487	44.055	1929.767	1772.131
-1.473	44.077	1928.919	1771.475
-0.458	44.161	1924.777	1768.333
0.556	43.339	1905.402	1741.884
1.571	38.845	1884.367	1684.032
2.586	33.933	1903.700	1658.431
3.600	32.169	1939.552	1673.812
4.615	31.028	1936.615	1660.973
5.629	23.349	1831.335	1505.569
6.644	9.508	1698.790	1286.598
7.659	1.991	1652.572	1192.870
8.673	1.293	1648.074	1184.079
9.688	1.209	1646.404	1182.118
10.702	1.192	1644.888	1180.794
11.717	1.006	1642.210	1177.324
12.731	1.354	1641.460	1179.384
13.746	8.753	1661.125	1251.397
14.761	19.949	1685.560	1357.995
15.775	24.636	1692.555	1400.334
16.790	25.081	1692.354	1403.533
17.804	25.085	1691.907	1403.064
18.819	25.090	1691.306	1402.482
19.834	25.290	1690.256	1403.048
20.848	25.347	1690.042	1403.191
21.863	25.342	1689.420	1402.518
22.877	25.396	1688.381	1401.952
23.892	25.461	1686.795	1401.017
24.907	25.365	1686.539	1399.932
25.921	25.465	1685.391	1399.632
26.936	25.451	1684.307	1398.497
27.950	25.425	1683.298	1397.339
28.965	25.456	1682.830	1397.066
29.980	25.381	1682.068	1395.728
30.994	25.387	1680.547	1394.387
32.009	25.424	1679.299	1393.515
33.023	25.437	1677.974	1392.394
34.038	25.502	1677.143	1392.080
35.053	25.487	1676.488	1391.301
36.067	25.465	1675.705	1390.356
37.082	25.411	1674.441	1388.771
38.096	25.439	1673.313	1387.923
39.111	25.469	1672.319	1387.212
40.126	25.532	1671.753	1387.104
41.140	25.533	1671.004	1386.371
42.155	25.483	1669.404	1384.529
43.169	25.437	1668.835	1383.581
44.184	25.425	1667.856	1382.557
45.199	25.435	1666.780	1381.618
46.213	25.457	1665.684	1380.758
47.228	25.523	1664.259	1379.959
48.242	25.506	1662.697	1378.412
49.257	25.510	1661.966	1377.717
50.271	25.513	1660.594	1376.480
51.286	25.435	1659.933	1375.212
52.301	25.512	1658.411	1374.419
53.315	25.486	1657.217	1373.111
54.330	25.430	1655.724	1371.326
55.344	25.464	1654.421	1370.384
56.359	25.481	1653.264	1369.434
57.374	25.473	1652.180	1368.353
58.388	25.483	1651.167	1367.466
59.403	25.488	1650.157	1366.552
60.417	25.455	1648.971	1365.199
61.432	25.441	1648.221	1364.344
62.447	25.461	1646.776	1363.183
63.461	25.474	1645.860	1362.406
64.476	25.513	1644.755	1361.663
65.490	25.456	1643.967	1360.461
66.505	25.394	1643.124	1359.170
67.520	25.496	1641.908	1358.813
68.534	25.530	1641.124	1358.307
69.549	25.471	1639.943	1356.761
70.563	25.476	1638.774	1355.714
71.578	25.521	1637.774	1355.104
72.593	25.589	1636.476	1354.418
73.607	25.475	1636.318	1353.311
74.622	25.561	1634.965	1352.722
75.636	25.573	1634.204	1352.057
76.651	25.566	1633.364	1351.191
77.666	25.559	1632.524	1350.324
78.680	25.498	1631.747	1349.109
79.695	25.500	1630.903	1348.305
80.709	25.561	1630.059	1347.942
81.724	25.545	1629.278	1347.057
82.739	25.537	1628.541	1346.269
83.753	25.484	1627.593	1344.974
84.768	25.563	1626.066	1344.183
85.782	25.536	1625.527	1343.417
86.797	25.500	1624.780	1342.412
87.812	25.582	1623.446	1341.800
88.826	25.539	1622.876	1340.889
89.841	25.612	1621.727	1340.367
90.855	25.511	1621.066	1338.946
91.870	25.489	1620.255	1337.998
92.884	25.533	1619.018	1337.187
93.899	25.571	1617.758	1336.306
94.914	25.678	1616.012	1335.544
95.928	25.531	1615.227	1333.683
96.943	25.631	1614.050	1333.337
97.957	25.632	1612.621	1332.043
98.972	25.563	1611.712	1330.665
99.987	25.541	1610.354	1329.266
101.001	25.578	1608.796	1328.132
102.016	25.562	1607.135	1326.525
103.030	25.527	1605.948	1325.169
104.045	25.601	1604.569	1324.465
105.060	25.546	1603.714	1323.237
106.074	25.526	1601.852	1321.434
107.089	25.551	1601.451	1321.173
108.103	25.603	1599.792	1320.065
109.118	25.617	1598.960	1319.367
110.133	25.534	1598.032	1317.875
111.147	25.556	1596.665	1316.788
112.162	25.678	1595.489	1316.596
113.176	25.572	1594.405	1314.815
114.191	25.661	1593.408	1314.525
115.206	25.599	1592.470	1313.182
116.220	25.625	1591.110	1312.132
117.235	25.491	1590.276	1310.354
118.249	25.564	1589.325	1309.987
119.264	25.555	1587.984	1308.698
120.279	25.538	1587.143	1307.767
121.293	25.518	1586.165	1306.695
122.308	25.596	1584.706	1305.947
123.322	25.680	1583.486	1305.433
124.337	25.588	1582.469	1303.816
125.352	25.675	1580.954	1303.082
126.366	25.650	1580.595	1302.489
127.381	25.583	1579.723	1301.172
128.395	25.753	1578.315	1301.126
129.410	25.682	1577.141	1299.528
130.424	25.710	1575.410	1298.188
131.439	25.674	1574.859	1297.358
132.454	25.674	1573.402	1296.047
133.468	25.729	1572.371	1295.474
134.483	25.680	1570.970	1293.856
135.497	25.632	1570.022	1292.615
136.512	25.640	1569.030	1291.740
137.527	25.786	1567.410	1291.342
138.541	25.653	1566.504	1289.525
139.556	25.732	1565.667	1289.294
140.570	25.694	1564.263	1287.749
141.585	25.800	1562.835	1287.215
142.600	25.713	1561.647	1285.499
143.614	25.777	1560.769	1285.120
144.629	25.741	1559.582	1283.772
145.643	25.734	1558.129	1282.415
146.658	25.655	1557.396	1281.138
147.673	25.609	1555.869	1279.441
148.687	25.670	1554.522	1278.652
149.702	25.657	1553.723	1277.790
150.716	25.703	1552.132	1276.698
151.731	25.664	1551.239	1275.568
152.746	25.608	1550.402	1274.371
153.760	25.693	1548.792	1273.539
154.775	25.651	1548.271	1272.699
155.789	25.750	1547.106	1272.330
156.804	25.701	1545.711	1270.720
157.819	25.755	1544.419	1269.933
158.833	25.635	1543.896	1268.540
159.848	25.697	1542.941	1268.081
160.862	25.748	1541.767	1267.366
161.877	25.761	1541.062	1266.761
162.892	25.657	1540.454	1265.418
163.906	25.642	1539.753	1264.626
164.921	25.751	1538.580	1264.314
165.935	25.780	1537.527	1263.540
166.950	25.787	1536.702	1262.805
167.964	25.846	1535.641	1262.229
168.979	25.725	1534.893	1260.659
169.994	25.694	1533.940	1259.544
171.008	25.723	1533.047	1258.904
172.023	25.813	1531.774	1258.378
173.037	25.771	1530.903	1257.257
174.052	25.804	1529.895	1256.546
175.067	25.815	1528.569	1255.424
176.081	25.837	1527.601	1254.669
177.096	25.732	1527.090	1253.408
178.110	25.760	1526.167	1252.738
179.125	25.728	1524.898	1251.359
180.140	25.826	1523.947	1251.154
181.154	25.839	1523.361	1250.647
182.169	25.822	1522.330	1249.574
183.183	25.852	1520.792	1248.406
184.198	25.908	1519.961	1248.002
185.213	25.786	1519.314	1246.517
186.227	25.848	1518.117	1245.856
187.242	25.918	1517.722	1245.907
188.256	25.846	1516.818	1244.556
189.271	25.887	1516.469	1244.441
190.286	25.884	1515.033	1243.129
191.300	25.889	1514.173	1242.347
192.315	25.900	1513.309	1241.608
193.329	25.827	1512.460	1240.298
194.344	25.889	1511.630	1239.937
195.359	25.877	1511.002	1239.230
196.373	25.972	1509.850	1238.829
197.388	25.834	1509.293	1237.308
198.402	25.823	1507.970	1236.044
199.417	25.772	1507.158	1234.914
200.432	25.890	1505.873	1234.567
201.446	25.856	1505.981	1234.311
202.461	25.796	1504.802	1232.824
203.475	25.814	1504.078	1232.241
204.490	25.887	1502.967	1231.724
205.504	25.795	1502.389	1230.514
206.519	25.825	1501.400	1229.800
207.534	25.893	1500.606	1229.501
208.548	25.944	1499.773	1229.060
209.563	25.829	1499.118	1227.627
210.577	25.936	1497.881	1227.235
211.592	26.006	1496.962	1226.852
212.607	25.991	1496.392	1226.178
213.621	25.965	1495.727	1225.346
214.636	26.149	1494.834	1225.752
215.650	25.957	1494.492	1224.061
216.665	25.981	1493.385	1223.209
217.680	26.045	1492.212	1222.575
218.694	26.070	1491.638	1222.168
219.709	26.019	1491.236	1221.380
220.723	26.031	1490.136	1220.457
221.738	25.999	1489.463	1219.576
222.753	26.005	1488.744	1218.924
223.767	25.946	1487.863	1217.697
224.782	25.946	1486.579	1216.537
225.796	26.047	1486.067	1216.692
226.811	26.028	1485.077	1215.647
227.826	26.002	1484.934	1215.241
228.840	26.063	1484.008	1214.791
229.855	26.094	1482.717	1213.832
230.869	26.074	1482.049	1213.046
231.884	26.093	1480.787	1212.036
232.899	26.097	1479.552	1210.941
233.913	26.054	1479.311	1210.351
234.928	26.040	1477.920	1209.007
235.942	26.153	1476.900	1208.824
236.957	26.129	1476.059	1207.868
237.972	26.122	1475.207	1207.021
238.986	26.148	1474.267	1206.314
240.001	26.083	1473.617	1205.242
241.015	26.113	1472.632	1204.533
242.030	26.092	1471.727	1203.544
243.045	26.206	1470.284	1203.015
244.059	26.217	1469.748	1202.546
245.074	26.277	1468.463	1201.785
246.088	26.345	1467.406	1201.267
247.103	26.289	1466.982	1200.440
248.117	26.342	1466.513	1200.304
249.132	26.254	1466.121	1199.290
250.147	26.236	1465.437	1198.511
251.161	26.471	1464.108	1198.874
252.176	26.348	1463.729	1197.641
253.190	26.372	1462.814	1196.942
254.205	26.360	1462.263	1196.307
255.220	26.365	1461.478	1195.591
256.234	26.376	1460.571	1194.819
257.249	26.349	1459.847	1193.942
258.263	26.445	1458.800	1193.614
259.278	26.366	1457.914	1192.263
260.293	26.362	1457.335	1191.656
261.307	26.518	1456.087	1191.557
262.322	26.545	1455.458	1191.116
263.336	26.476	1455.021	1190.201
264.351	26.383	1454.068	1188.704
265.366	26.393	1453.273	1188.010
266.380	26.462	1452.262	1187.536
267.395	26.431	1450.998	1186.191
268.409	26.501	1450.565	1186.194
269.424	26.423	1449.691	1184.860
270.439	26.410	1448.753	1183.905
271.453	26.468	1448.365	1183.866
272.468	26.534	1447.051	1183.116
273.482	26.468	1446.616	1182.223
274.497	26.492	1445.634	1181.476
275.512	26.419	1445.187	1180.527
276.526	26.505	1444.017	1180.028
277.541	26.491	1443.463	1179.383
278.555	26.455	1442.692	1178.414
279.570	26.518	1441.623	1177.841
280.585	26.552	1440.988	1177.443
281.599	26.493	1440.334	1176.421
282.614	26.450	1439.476	1175.338
283.628	26.573	1438.015	1174.834
284.643	26.546	1437.492	1174.130
285.657	26.600	1436.691	1173.720
286.672	26.422	1436.063	1171.950
287.687	26.597	1434.990	1172.108
288.701	26.563	1433.747	1170.770
289.716	26.604	1433.396	1170.645
290.730	26.645	1432.561	1170.120
291.745	26.682	1431.775	1169.616
292.760	26.651	1430.752	1168.476
293.774	26.600	1430.184	1167.579
294.789	26.703	1429.086	1167.242
295.803	26.644	1428.857	1166.570
296.818	26.841	1427.438	1166.580
297.833	26.713	1426.403	1164.805
298.847	26.676	1426.272	1164.359
299.862	26.723	1425.320	1163.778
300.876	26.653	1424.804	1162.804
301.891	26.692	1423.590	1161.962
302.906	26.810	1422.797	1161.970
303.920	26.703	1422.520	1160.957
304.935	26.793	1421.485	1160.585
305.949	26.857	1420.905	1160.414
306.964	26.805	1420.004	1159.243
307.979	26.760	1419.305	1158.283
308.993	26.833	1417.999	1157.582
310.008	26.831	1417.320	1156.913
311.022	26.913	1416.238	1156.450
312.037	26.953	1415.055	1155.635
313.052	26.838	1414.823	1154.610
314.066	26.844	1414.023	1153.895
315.081	26.854	1412.826	1152.877
316.095	26.920	1411.528	1152.140
317.110	26.903	1411.071	1151.553
318.125	26.937	1410.318	1151.052
319.139	26.939	1409.329	1150.161
320.154	26.917	1408.522	1149.258
321.168	27.073	1407.364	1149.199
322.183	26.926	1406.509	1147.471
323.197	26.925	1406.026	1146.970
324.212	26.920	1405.217	1146.177
325.227	26.836	1404.798	1145.204
326.241	26.950	1403.743	1144.958
327.256	27.003	1402.790	1144.412
328.270	27.042	1402.038	1143.946
329.285	27.015	1401.499	1143.232
330.300	27.105	1400.028	1142.499
331.314	27.009	1399.542	1141.399
332.329	26.936	1399.086	1140.465
333.343	27.058	1398.217	1140.425
334.358	27.083	1397.710	1140.065
335.373	27.145	1396.843	1139.648
336.387	27.119	1396.481	1139.087
337.402	27.115	1395.643	1138.277
338.416	27.155	1394.916	1137.833
339.431	27.116	1394.349	1137.024
340.446	27.255	1393.581	1137.172
341.460	27.155	1392.919	1135.907
342.475	27.152	1391.969	1135.012
343.489	27.198	1391.374	1134.713
344.504	27.180	1390.317	1133.639
345.519	27.187	1389.200	1132.670
346.533	27.277	1388.139	1132.266
347.548	27.287	1387.203	1131.465
348.562	27.353	1386.394	1131.114
349.577	27.305	1385.536	1130.018
350.592	27.246	1385.362	1129.406
351.606	27.177	1384.647	1128.295
352.621	27.202	1383.574	1127.476
353.635	27.191	1382.631	1126.542
354.650	27.384	1381.568	1126.770
355.665	27.194	1381.106	1125.117
356.679	27.322	1380.032	1124.936
357.694	27.287	1378.962	1123.748
358.708	27.445	1377.741	1123.627
359.723	27.432	1376.446	1122.393
360.738	27.377	1375.523	1121.200
361.752	27.357	1374.427	1120.085
362.767	27.259	1373.827	1118.892
363.781	27.348	1372.830	1118.528
364.796	27.466	1371.692	1118.230
365.810	27.513	1371.197	1118.012
366.825	27.345	1370.818	1116.576
367.840	27.484	1369.967	1116.633
368.854	27.521	1369.347	1116.258
369.869	27.520	1368.668	1115.598
370.883	27.561	1368.076	1115.268
371.898	27.404	1367.820	1114.000
372.913	27.530	1366.702	1113.764
373.927	27.509	1366.130	1113.066
374.942	27.612	1364.937	1112.626
375.956	27.560	1364.390	1111.766
376.971	27.629	1363.592	1111.437
377.986	27.524	1363.081	1110.284
379.000	27.611	1362.103	1109.917
380.015	27.711	1361.672	1110.078
381.029	27.703	1360.795	1109.213
382.044	27.569	1360.355	1107.946
383.059	27.426	1359.760	1106.495
384.073	27.619	1358.904	1106.870
385.088	27.641	1358.519	1106.589
386.102	27.629	1358.040	1106.031
387.117	27.664	1357.242	1105.493
388.132	27.720	1356.480	1105.115
389.146	27.683	1355.553	1104.041
390.161	27.733	1354.749	1103.588
391.175	27.765	1353.937	1103.022
392.190	27.625	1353.902	1102.050
393.205	27.770	1352.741	1101.883
394.219	27.787	1352.246	1101.487
395.234	27.806	1350.831	1100.351
396.248	27.723	1350.147	1099.198
397.263	27.720	1349.145	1098.265
398.278	27.856	1347.297	1097.479
399.292	27.856	1346.819	1096.994
400.307	27.883	1346.186	1096.546
401.321	27.800	1344.983	1094.971
402.336	27.832	1344.192	1094.421
403.350	27.816	1343.269	1093.478
404.365	27.827	1342.606	1092.904
405.380	27.950	1341.125	1092.336
406.394	27.874	1340.933	1091.632
407.409	27.958	1339.657	1090.995
408.423	27.940	1339.433	1090.611
409.438	27.957	1338.658	1089.987
410.453	27.966	1338.114	1089.497
411.467	27.993	1337.395	1088.981
412.482	28.022	1336.899	1088.651
413.496	28.069	1335.967	1088.074
414.511	27.993	1335.504	1087.147
415.526	27.960	1334.743	1086.239
416.540	28.030	1333.887	1085.858
417.555	28.053	1333.178	1085.326
418.569	28.034	1332.967	1084.944
419.584	28.025	1332.360	1084.299
420.599	28.040	1331.579	1083.659
421.613	69.655	1307.054	1299.095
422.628	70.347	1303.503	1299.229
