DTS Sentinel unit serial number:	SN413079Multiplexer serial number:	ORYXHardware model number:	OX4-SRSoftware version number:	ORYX F/W v4.00 Oryx Data Collector v3.7.2.0data status	okinstallation	princeton_trtdifferential loss correction	single-endedforward channel	channel 4reverse channel	N/Adate	2019/09/11time	13:59:11forward acquisition time	60.00reverse acquisition time	0.00gamma	496.2192k internal	0.2283k external	0.2283temperature offset calibration	1.0001default loss term (dB/km)	0.3790temperature slope calibration	1.0000multiplexer offset coefficient	1.0000multiplexer slope coefficient	1.0000fibre end	0.00T internal ref (°C)	41.87T ext. ref 1 (°C)	0.86T ext. ref 2 (°C)	37.42length (m)	temperature (°C)	Stokes	anti-Stokes-747.200	125.119	-0.245	-0.317
-746.185	618.467	-0.074	0.192
-745.171	-191.448	-0.239	-0.002
-744.156	-73.223	-0.220	-0.083
-743.142	800.000	0.085	0.283
-742.127	-200.000	-0.032	0.426
-741.112	-96.526	-0.055	0.015
-740.098	15.257	-0.368	-0.297
-739.083	187.830	0.177	0.272
-738.069	197.564	-0.069	0.108
-737.054	-200.000	0.013	0.236
-736.039	800.000	0.037	0.119
-735.025	266.966	0.223	0.401
-734.010	-114.916	-0.223	-0.044
-732.996	-35.298	-0.279	-0.156
-731.981	451.153	-0.102	0.231
-730.966	-68.451	-0.085	0.034
-729.952	-88.812	-0.016	0.005
-728.937	-200.000	0.005	0.161
-727.923	-55.783	-0.264	-0.121
-726.908	-200.000	0.022	-0.267
-725.894	70.638	0.170	-0.180
-724.879	-200.000	-0.041	-0.279
-723.864	-200.000	0.009	-0.465
-722.850	192.321	0.092	0.142
-721.835	151.849	0.117	0.164
-720.821	-200.000	0.021	-0.142
-719.806	-200.000	-0.015	0.268
-718.791	17.289	0.202	0.164
-717.777	-18.137	0.125	0.081
-716.762	-180.836	0.159	0.003
-715.748	141.992	0.169	-0.229
-714.733	295.145	-0.033	-0.062
-713.718	-200.000	-0.043	0.322
-712.704	-29.428	0.157	-0.092
-711.689	252.374	-0.092	0.160
-710.675	-36.878	-0.212	-0.117
-709.660	800.000	0.149	0.470
-708.645	-34.644	-0.248	-0.139
-707.631	-94.447	0.266	0.075
-706.616	-144.861	-0.448	-0.042
-705.602	-154.264	0.370	0.026
-704.587	-131.385	-0.267	-0.036
-703.572	189.849	-0.127	-0.195
-702.558	0.108	0.047	-0.035
-701.543	-200.000	-0.032	-0.202
-700.529	-200.000	0.034	-0.270
-699.514	800.000	-0.054	0.159
-698.499	387.574	0.114	-0.243
-697.485	-112.177	-0.200	0.041
-696.470	197.934	-0.155	-0.242
-695.456	800.000	-0.079	-0.256
-694.441	-82.680	0.281	0.093
-693.426	-200.000	0.014	-0.265
-692.412	102.306	-0.029	0.035
-691.397	407.651	-0.219	-0.475
-690.383	3.913	0.338	-0.253
-689.368	800.000	-0.084	-0.334
-688.354	-24.111	-0.256	-0.157
-687.339	-60.912	0.023	0.010
-686.324	-105.980	-0.165	-0.038
-685.310	-23.800	0.319	0.196
-684.295	-109.623	0.202	-0.044
-683.281	117.017	0.049	-0.062
-682.266	63.375	0.171	-0.176
-681.251	-15.342	-0.283	0.186
-680.237	36.278	-0.287	0.259
-679.222	119.591	0.119	0.151
-678.208	67.472	0.237	0.248
-677.193	-159.291	-0.172	0.010
-676.178	-85.667	0.191	-0.061
-675.164	-109.849	0.470	-0.101
-674.149	3.865	0.233	-0.175
-673.135	718.451	-0.047	-0.128
-672.120	82.201	-0.098	-0.109
-671.105	-83.189	-0.266	-0.088
-670.091	-76.783	-0.173	0.062
-669.076	-200.000	0.039	0.278
-668.062	-187.342	0.304	0.004
-667.047	231.232	-0.094	-0.158
-666.032	-200.000	0.032	-0.177
-665.018	180.987	-0.193	0.291
-664.003	-124.742	-0.087	-0.014
-662.989	116.565	-0.171	0.215
-661.974	-95.200	0.041	-0.011
-660.959	-152.228	-0.071	0.005
-659.945	53.999	0.203	0.200
-658.930	-43.924	0.154	0.079
-657.916	-10.187	0.266	-0.181
-656.901	-0.749	-0.225	0.163
-655.886	437.145	-0.044	-0.097
-654.872	29.049	-0.162	0.141
-653.857	265.645	-0.020	0.035
-652.843	124.436	0.106	0.137
-651.828	-200.000	0.017	0.198
-650.814	-73.817	0.079	0.029
-649.799	-200.000	-0.002	0.088
-648.784	5.768	0.286	0.217
-647.770	-134.158	0.061	0.008
-646.755	-38.406	-0.165	0.089
-645.741	23.458	0.200	-0.169
-644.726	83.876	0.161	-0.180
-643.711	800.000	0.049	-0.142
-642.697	-10.494	0.087	0.059
-641.682	234.873	0.182	0.307
-640.668	-104.375	-0.105	0.025
-639.653	16.735	0.141	-0.114
-638.638	32.976	-0.086	0.076
-637.624	-33.305	-0.214	0.121
-636.609	378.164	-0.203	0.424
-635.595	-200.000	-0.012	-0.147
-634.580	20.613	0.092	-0.076
-633.565	-108.819	-0.293	-0.064
-632.551	-200.000	0.035	-0.195
-631.536	27.806	-0.196	0.169
-630.522	800.000	-0.083	-0.243
-629.507	-81.472	-0.106	-0.036
-628.492	409.260	0.129	0.280
-627.478	800.000	-0.042	0.125
-626.463	145.105	-0.175	-0.240
-625.449	97.554	-0.087	-0.102
-624.434	-42.398	-0.373	0.195
-623.419	-200.000	0.053	-0.393
-622.405	-46.830	0.260	-0.130
-621.390	153.778	-0.121	-0.170
-620.376	800.000	-0.022	0.073
-619.361	136.014	-0.016	-0.022
-618.346	-200.000	-0.003	-0.020
-617.332	-200.000	0.044	0.277
-616.317	245.253	0.289	-0.497
-615.303	-22.693	0.210	-0.130
-614.288	-51.808	-0.202	-0.096
-613.273	133.335	0.130	0.171
-612.259	85.678	-0.054	0.061
-611.244	-165.397	0.337	-0.015
-610.230	-91.199	0.273	0.080
-609.215	-200.000	-0.045	-0.370
-608.201	-200.000	-0.004	0.033
-607.186	-200.000	0.029	-0.214
-606.171	-130.005	0.274	-0.038
-605.157	-171.687	0.164	0.006
-604.142	248.863	-0.106	-0.183
-603.128	37.791	0.291	0.264
-602.113	-94.685	-0.095	0.026
-601.098	-16.379	0.122	0.079
-600.084	-94.728	-0.321	0.089
-599.069	-74.202	0.236	0.087
-598.055	-104.650	0.201	0.047
-597.040	503.985	-0.082	0.193
-596.025	108.725	0.066	-0.080
-595.011	-126.127	-0.162	-0.025
-593.996	-59.211	-0.171	0.075
-592.982	-15.728	0.117	0.076
-591.967	4.214	-0.168	-0.125
-590.952	-173.453	-0.123	-0.004
-589.938	233.924	0.114	-0.193
-588.923	-200.000	-0.051	-0.296
-587.909	-102.345	0.122	0.030
-586.894	0.085	-0.235	-0.171
-585.879	214.314	0.096	0.155
-584.865	-84.630	0.332	0.107
-583.850	-138.257	0.214	-0.024
-582.836	800.000	0.059	0.195
-581.821	-54.422	-0.108	0.050
-580.806	170.859	0.265	0.388
-579.792	800.000	-0.177	0.513
-578.777	68.386	0.128	0.134
-577.763	761.396	-0.227	-0.630
-576.748	296.972	0.134	-0.252
-575.733	-200.000	-0.024	0.219
-574.719	-200.000	0.036	0.219
-573.704	-200.000	0.170	-0.000
-572.690	-33.933	0.161	-0.090
-571.675	190.023	-0.228	0.349
-570.661	-200.000	0.027	0.194
-569.646	52.882	-0.204	-0.199
-568.631	800.000	0.036	0.152
-567.617	-78.227	-0.161	0.057
-566.602	-136.733	-0.348	0.041
-565.588	-200.000	-0.019	0.276
-564.573	-200.000	-0.027	-0.142
-563.558	800.000	0.020	0.086
-562.544	-132.383	0.071	-0.009
-561.529	-70.412	-0.408	0.158
-560.515	800.000	0.054	0.228
-559.500	38.633	-0.118	-0.108
-558.485	-165.993	-0.280	0.012
-557.471	40.105	0.134	0.123
-556.456	-3.164	0.225	-0.160
-555.442	-151.263	0.273	0.021
-554.427	183.098	0.080	-0.121
-553.412	-127.630	0.097	-0.014
-552.398	-124.985	-0.241	-0.038
-551.383	90.130	-0.309	0.353
-550.369	-200.000	-0.005	0.285
-549.354	48.153	-0.009	-0.008
-548.339	800.000	0.109	0.420
-547.325	709.116	0.040	0.108
-546.310	-115.432	-0.404	-0.078
-545.296	245.223	-0.006	0.010
-544.281	20.495	0.210	0.173
-543.266	53.718	-0.209	0.204
-542.252	9.317	0.249	0.192
-541.237	-143.447	-0.416	0.041
-540.223	800.000	0.039	0.129
-539.208	141.455	-0.303	0.409
-538.193	-200.000	0.008	0.172
-537.179	-200.000	-0.014	-0.282
-536.164	421.879	-0.076	-0.166
-535.150	-95.592	-0.086	0.023
-534.135	-116.038	-0.100	-0.019
-533.121	511.983	0.200	-0.474
-532.106	5.861	0.094	0.071
-531.091	-171.492	0.348	-0.012
-530.077	-79.442	0.179	-0.062
-529.062	-200.000	-0.016	-0.177
-528.048	-106.952	-0.455	-0.103
-527.033	6.698	0.234	-0.177
-526.018	112.026	0.119	0.146
-525.004	91.090	0.200	-0.229
-523.989	176.227	0.131	0.194
-522.975	800.000	0.069	0.284
-521.960	10.562	0.068	0.053
-520.945	-134.745	-0.234	0.029
-519.931	-35.935	-0.095	-0.052
-518.916	74.047	-0.209	-0.223
-517.902	-92.201	-0.224	-0.064
-516.887	-92.464	0.039	-0.011
-515.872	101.383	0.082	-0.097
-514.858	4.806	-0.442	0.331
-513.843	-200.000	0.320	0.001
-512.829	512.512	-0.167	-0.395
-511.814	158.840	0.119	-0.169
-510.799	-200.000	-0.022	0.255
-509.785	-200.000	-0.012	0.279
-508.770	-101.093	-0.299	-0.075
-507.756	8.894	-0.170	0.130
-506.741	47.854	-0.086	0.082
-505.726	800.000	-0.061	-0.226
-504.712	694.799	0.019	0.051
-503.697	193.599	0.078	-0.121
-502.683	-13.145	0.172	0.114
-501.668	-85.735	0.091	0.029
-500.653	580.947	0.102	0.253
-499.639	-200.000	0.018	0.282
-498.624	-128.535	-0.270	-0.039
-497.610	-77.625	0.150	-0.053
-496.595	67.271	0.080	-0.083
-495.581	-82.923	0.132	0.043
-494.566	-200.000	-0.031	-0.203
-493.551	-71.413	0.076	0.029
-492.537	-100.977	0.193	-0.048
-491.522	-161.596	0.223	0.012
-490.508	-200.000	-0.026	-0.261
-489.493	92.601	0.138	0.159
-488.478	800.000	0.038	0.132
-487.464	-200.000	0.030	0.370
-486.449	-175.740	0.101	0.003
-485.435	-27.482	-0.345	0.204
-484.420	13.300	0.196	0.154
-483.405	800.000	-0.048	0.160
-482.391	-70.763	0.075	0.029
-481.376	-100.177	0.173	0.044
-480.362	-110.496	-0.130	-0.027
-479.347	218.079	0.110	-0.179
-478.332	-200.000	0.024	0.191
-477.318	-62.175	0.122	-0.052
-476.303	-38.303	-0.207	-0.111
-475.289	331.923	-0.086	-0.170
-474.274	194.840	-0.161	0.248
-473.259	-200.000	-0.081	-0.452
-472.245	-29.220	0.161	-0.094
-471.230	15.868	-0.157	0.126
-470.216	144.849	-0.156	-0.212
-469.201	-106.902	-0.134	0.030
-468.186	73.842	0.271	-0.289
-467.172	800.000	-0.034	0.102
-466.157	-78.122	-0.181	-0.063
-465.143	46.032	-0.134	0.127
-464.128	-21.019	0.199	-0.124
-463.113	-21.017	-0.339	-0.211
-462.099	-200.000	0.027	0.207
-461.084	-65.317	0.161	-0.066
-460.070	330.648	0.022	-0.043
-459.055	-200.000	0.014	-0.074
-458.040	386.390	0.083	0.174
-457.026	-128.988	0.445	0.063
-456.011	-200.000	0.054	-0.425
-454.997	-82.841	-0.145	0.047
-453.982	-200.000	-0.036	-0.192
-452.968	109.480	-0.077	-0.094
-451.953	800.000	0.070	-0.264
-450.938	-96.671	-0.184	-0.049
-449.924	800.000	-0.049	-0.192
-448.909	165.578	-0.093	-0.134
-447.895	19.163	-0.126	-0.103
-446.880	-129.190	0.076	0.011
-445.865	-164.156	-0.245	0.012
-444.851	72.925	0.364	-0.386
-443.836	800.000	0.097	-0.272
-442.822	-126.299	-0.243	-0.037
-441.807	-135.501	0.095	-0.011
-440.792	-200.000	-0.025	0.150
-439.778	8.061	0.164	-0.125
-438.763	-58.169	-0.075	-0.033
-437.749	673.414	-0.102	0.269
-436.734	-73.226	-0.181	0.067
-435.719	-173.017	0.414	0.013
-434.705	32.491	-0.199	0.174
-433.690	104.502	-0.120	0.144
-432.676	-200.000	0.006	0.151
-431.661	621.022	0.071	-0.182
-430.646	-103.395	0.051	0.012
-429.632	202.796	0.134	-0.211
-428.617	-121.532	0.191	0.032
-427.603	259.664	0.186	0.326
-426.588	154.344	0.253	-0.352
-425.573	249.664	0.128	0.220
-424.559	-70.276	0.318	0.123
-423.544	-200.000	-0.044	0.285
-422.530	52.979	0.171	-0.166
-421.515	54.063	-0.164	-0.160
-420.500	-28.918	-0.068	0.039
-419.486	274.635	-0.065	0.116
-418.471	-200.000	0.020	-0.139
-417.457	800.000	0.031	0.114
-416.442	-200.000	-0.002	-0.110
-415.428	114.159	-0.232	-0.287
-414.413	173.668	-0.242	-0.354
-413.398	153.589	-0.150	-0.209
-412.384	-200.000	0.009	-0.080
-411.369	186.473	-0.139	0.210
-410.355	-107.291	-0.020	0.004
-409.340	-98.896	0.157	0.040
-408.325	-200.000	-0.004	0.164
-407.311	-186.102	0.335	0.005
-406.296	352.712	-0.049	0.098
-405.282	-200.000	0.041	-0.197
-404.267	-200.000	-0.569	-0.001
-403.252	-27.512	-0.224	-0.132
-402.238	691.873	-0.069	-0.182
-401.223	-99.230	0.400	-0.103
-400.209	-91.303	-0.310	-0.090
-399.194	3.415	-0.110	-0.081
-398.179	800.000	-0.043	-0.161
-397.165	-200.000	-0.003	0.246
-396.150	-10.765	-0.074	-0.050
-395.136	-161.589	0.344	0.018
-394.121	130.902	-0.248	0.322
-393.106	121.738	-0.115	-0.146
-392.092	800.000	-0.073	-0.210
-391.077	16.381	0.309	0.247
-390.063	-32.442	0.294	-0.166
-389.048	-131.778	-0.244	-0.032
-388.033	-153.935	-0.390	-0.027
-387.019	-59.764	0.092	0.040
-386.004	-200.000	0.021	-0.106
-384.990	59.263	-0.122	-0.122
-383.975	195.511	-0.164	-0.253
-382.960	190.595	0.086	0.132
-381.946	800.000	0.073	-0.205
-380.931	-200.000	-0.018	0.195
-379.917	27.980	-0.137	0.117
-378.902	5.482	-0.049	-0.037
-377.888	-200.000	0.036	-0.160
-376.873	192.021	-0.201	-0.307
-375.858	-1.385	-0.124	-0.089
-374.844	-30.098	-0.199	0.114
-373.829	107.614	-0.254	-0.307
-372.815	-200.000	-0.048	-0.245
-371.800	56.912	-0.249	-0.246
-370.785	-125.560	0.031	0.005
-369.771	209.111	-0.036	-0.057
-368.756	-200.000	-0.053	-0.313
-367.742	127.973	0.283	0.364
-366.727	-200.000	-0.044	0.275
-365.712	267.790	0.070	0.124
-364.698	-200.000	0.047	0.245
-363.683	-200.000	-0.013	0.430
-362.669	-98.544	-0.184	0.048
-361.654	-37.926	-0.217	-0.117
-360.639	-45.163	-0.109	-0.055
-359.625	-148.436	-0.157	-0.013
-358.610	-200.000	0.023	0.139
-357.596	112.253	0.216	-0.265
-356.581	-34.449	-0.089	0.050
-355.566	-121.924	-0.047	0.008
-354.552	-64.422	-0.074	-0.030
-353.537	212.520	-0.132	0.210
-352.523	-78.242	0.179	0.062
-351.508	800.000	0.035	-0.115
-350.493	-200.000	-0.015	-0.260
-349.479	800.000	-0.063	-0.256
-348.464	-200.000	0.029	0.304
-347.450	-43.518	0.428	0.218
-346.435	150.363	-0.125	0.172
-345.420	-21.774	-0.100	-0.061
-344.406	-169.428	-0.310	0.012
-343.391	13.813	-0.136	0.107
-342.377	800.000	0.017	-0.069
-341.362	-27.140	-0.404	0.238
-340.348	800.000	-0.057	-0.211
-339.333	325.497	0.089	0.172
-338.318	-80.392	0.212	0.072
-337.304	-12.471	0.236	0.156
-336.289	-200.000	0.033	0.194
-335.275	-200.000	0.004	-0.102
-334.260	104.857	0.086	-0.103
-333.245	800.000	0.043	0.139
-332.231	70.857	0.062	0.065
-331.216	-8.258	-0.242	-0.165
-330.202	290.833	0.101	-0.186
-329.187	-200.000	0.020	0.432
-328.172	70.932	-0.076	-0.080
-327.158	69.546	-0.099	0.103
-326.143	800.000	0.019	0.079
-325.129	507.646	-0.085	0.199
-324.114	-88.503	0.196	0.059
-323.099	196.749	0.060	-0.092
-322.085	-136.867	-0.420	-0.049
-321.070	143.952	0.083	-0.112
-320.056	-90.349	0.276	0.081
-319.041	-165.355	-0.313	-0.014
-318.026	-62.502	-0.185	-0.078
-317.012	-200.000	-0.011	-0.068
-315.997	167.379	0.159	0.229
-314.983	800.000	-0.119	-0.351
-313.968	243.243	-0.056	-0.094
-312.953	-145.442	0.154	0.014
-311.939	-200.000	-0.008	0.137
-310.924	27.384	0.081	0.068
-309.910	206.674	0.158	-0.248
-308.895	-200.000	0.045	-0.206
-307.880	406.391	0.100	0.214
-306.866	1.923	-0.183	-0.134
-305.851	800.000	0.103	0.288
-304.837	-51.221	-0.205	0.097
-303.822	-132.240	0.328	0.043
-302.807	480.216	-0.130	0.299
-301.793	-65.115	0.428	-0.174
-300.778	490.833	-0.076	-0.176
-299.764	-200.000	-0.083	-0.427
-298.749	-200.000	-0.007	0.120
-297.735	56.225	0.266	0.261
-296.720	1.495	0.152	0.110
-295.705	1.420	0.176	0.127
-294.691	-133.050	-0.384	-0.049
-293.676	800.000	0.076	-0.313
-292.662	800.000	0.010	0.036
-291.647	-110.875	0.189	-0.039
-290.632	-96.433	-0.060	0.016
-289.618	265.010	-0.114	0.200
-288.603	140.837	-0.163	0.217
-287.589	-164.884	0.211	-0.010
-286.574	127.737	0.069	-0.088
-285.559	-200.000	0.000	-0.048
-284.545	244.653	-0.183	0.311
-283.530	200.709	-0.120	-0.187
-282.516	800.000	-0.094	-0.306
-281.501	375.636	-0.062	0.128
-280.486	-37.879	0.291	0.156
-279.472	-66.019	-0.163	-0.066
-278.457	-200.000	-0.009	0.093
-277.443	-14.192	0.310	-0.202
-276.428	-69.277	-0.140	-0.054
-275.413	-162.847	-0.125	-0.006
-274.399	163.567	0.051	-0.073
-273.384	133.339	0.145	0.189
-272.370	52.179	-0.087	0.084
-271.355	800.000	-0.026	0.098
-270.340	-30.336	-0.149	0.085
-269.326	-47.339	-0.397	-0.195
-268.311	-157.042	0.191	0.012
-267.297	332.588	0.167	-0.325
-266.282	-17.015	0.330	-0.210
-265.267	205.245	0.051	0.080
-264.253	-38.957	0.246	-0.131
-263.238	-200.000	-0.022	0.220
-262.224	218.194	0.137	0.221
-261.209	344.359	0.077	-0.153
-260.195	249.534	-0.217	-0.371
-259.180	-200.000	-0.006	-0.162
-258.165	-49.000	-0.468	-0.226
-257.151	-200.000	-0.021	-0.306
-256.136	800.000	-0.063	0.205
-255.122	-200.000	0.009	-0.151
-254.107	-106.719	0.364	-0.082
-253.092	-31.190	0.173	-0.098
-252.078	302.862	0.038	-0.072
-251.063	-200.000	-0.082	0.370
-250.049	272.539	0.083	0.148
-249.034	-71.556	0.284	0.107
-248.019	438.610	-0.159	-0.350
-247.005	118.927	-0.435	-0.542
-245.990	-107.820	0.087	-0.019
-244.976	800.000	0.044	0.167
-243.961	-81.682	-0.112	0.037
-242.946	66.467	0.102	0.105
-241.932	-27.440	-0.339	0.198
-240.917	-77.269	-0.249	0.087
-239.903	32.259	0.159	0.138
-238.888	800.000	0.032	0.120
-237.873	64.342	0.046	-0.046
-236.859	451.872	0.063	-0.141
-235.844	-30.298	-0.209	-0.120
-234.830	-77.995	-0.198	0.069
-233.815	-200.000	-0.023	-0.107
-232.800	-60.339	0.274	0.118
-231.786	192.256	-0.068	0.104
-230.771	-200.000	0.029	0.304
-229.757	412.944	-0.130	0.278
-228.742	-200.000	-0.039	0.231
-227.727	-200.000	0.003	0.140
-226.713	-140.097	-0.265	-0.028
-225.698	800.000	-0.067	-0.245
-224.684	-200.000	0.009	0.290
-223.669	354.547	0.218	0.436
-222.655	115.019	-0.226	-0.278
-221.640	-57.983	-0.280	0.123
-220.625	36.138	0.071	-0.063
-219.611	-47.648	0.160	-0.078
-218.596	-15.470	0.126	-0.081
-217.582	-72.809	-0.055	0.020
-216.567	36.263	-0.275	0.244
-215.552	291.204	0.095	-0.174
-214.538	-148.757	-0.246	-0.020
-213.523	-24.480	-0.073	-0.044
-212.509	800.000	0.087	0.283
-211.494	53.633	0.107	-0.103
-210.479	-200.000	-0.012	0.123
-209.465	290.588	-0.065	0.119
-208.450	-7.055	-0.049	0.034
-207.436	800.000	-0.055	0.180
-206.421	-117.556	-0.182	0.033
-205.406	-200.000	0.009	0.066
-204.392	-29.895	-0.230	0.132
-203.377	-60.733	0.435	-0.185
-202.363	-137.968	0.072	-0.008
-201.348	800.000	-0.020	0.083
-200.333	56.491	-0.120	0.118
-199.319	249.849	0.156	-0.265
-198.304	-61.618	0.373	-0.158
-197.290	-143.676	0.079	-0.008
-196.275	29.978	-0.068	0.059
-195.260	161.724	0.090	0.127
-194.246	-117.468	0.223	0.041
-193.231	-8.549	0.463	0.313
-192.217	-73.459	0.343	-0.126
-191.202	-119.365	0.439	-0.077
-190.187	-169.094	-0.403	0.015
-189.173	-31.926	0.175	-0.099
-188.158	287.120	-0.019	-0.034
-187.144	800.000	0.129	0.422
-186.129	11.155	-0.104	0.080
-185.114	800.000	0.079	-0.284
-184.100	-80.179	0.384	0.129
-183.085	-200.000	0.008	0.120
-182.071	-170.834	0.152	-0.005
-181.056	239.405	-0.063	-0.105
-180.042	243.498	0.080	-0.135
-179.027	-5.793	0.443	-0.305
-178.012	-53.953	-0.183	0.084
-176.998	12.147	0.178	-0.138
-175.983	-200.000	-0.048	-0.320
-174.969	800.000	-0.086	-0.251
-173.954	-200.000	-0.018	0.087
-172.939	-73.192	0.146	-0.054
-171.925	-200.000	0.039	0.273
-170.910	-62.476	0.193	-0.081
-169.896	225.973	0.154	0.250
-168.881	-130.329	0.168	-0.023
-167.866	-93.221	0.333	-0.093
-166.852	-87.028	-0.234	0.072
-165.837	-109.775	-0.167	-0.035
-164.823	-26.493	-0.306	0.180
-163.808	-28.651	0.285	-0.165
-162.793	-200.000	0.014	0.064
-161.779	49.080	0.143	-0.135
-160.764	-110.499	-0.049	-0.010
-159.750	-103.434	-0.398	-0.094
-158.735	-3.698	-0.143	-0.100
-157.720	-141.290	0.271	0.028
-156.706	-11.127	-0.153	-0.102
-155.691	-33.885	0.278	-0.154
-154.677	227.798	-0.170	-0.278
-153.662	-183.054	-0.503	0.009
-152.647	-136.936	0.173	0.020
-151.633	278.224	0.089	-0.160
-150.618	588.168	-0.015	0.038
-149.604	96.360	-0.254	0.292
-148.589	-80.808	-0.240	-0.080
-147.574	-200.000	0.001	0.074
-146.560	46.090	0.235	0.219
-145.545	77.457	-0.146	-0.156
-144.531	-89.376	-0.222	-0.066
-143.516	-42.053	0.158	0.081
-142.502	15.072	0.175	-0.138
-141.487	35.826	-0.195	-0.172
-140.472	-200.000	-0.016	-0.157
-139.458	-131.982	0.258	0.034
-138.443	-154.324	0.343	0.023
-137.429	44.647	0.233	0.215
-136.414	361.535	-0.256	0.515
-135.399	43.094	-0.144	-0.131
-134.385	165.268	-0.090	0.128
-133.370	-68.930	-0.063	0.024
-132.356	800.000	0.088	-0.364
-131.341	56.760	-0.145	0.142
-130.326	-32.207	0.157	0.088
-129.312	-200.000	0.018	0.117
-128.297	-200.000	0.063	0.472
-127.283	-74.965	0.272	0.098
-126.268	57.149	-0.210	0.206
-125.253	-23.525	0.263	-0.158
-124.239	-18.130	0.175	0.110
-123.224	14.057	-0.109	-0.085
-122.210	-139.933	-0.350	0.037
-121.195	16.058	0.086	0.068
-120.180	-174.789	0.239	-0.007
-119.166	-27.690	-0.183	-0.107
-118.151	-48.276	-0.083	0.040
-117.137	12.371	-0.183	-0.141
-116.122	800.000	0.086	-0.314
-115.107	124.874	-0.100	0.126
-114.093	120.896	-0.106	-0.132
-113.078	800.000	-0.092	0.316
-112.064	-94.165	0.123	-0.034
-111.049	10.413	-0.238	0.182
-110.034	102.954	-0.229	-0.269
-109.020	244.694	-0.186	0.313
-108.005	-23.767	0.173	0.104
-106.991	290.106	0.118	-0.215
-105.976	-200.000	0.073	0.367
-104.962	-20.792	-0.059	0.037
-103.947	800.000	-0.115	0.385
-102.932	134.115	0.211	0.274
-101.918	244.110	0.088	0.148
-100.903	-34.356	0.512	-0.281
-99.889	-99.572	0.181	-0.045
-98.874	-200.000	0.020	-0.117
-97.859	-132.285	0.230	0.030
-96.845	43.389	0.092	-0.084
-95.830	10.953	-0.147	-0.112
-94.816	-200.000	-0.019	0.266
-93.801	-88.053	0.135	0.041
-92.786	800.000	0.014	0.053
-91.772	-18.634	0.284	0.178
-90.757	-200.000	-0.043	-0.301
-89.743	-200.000	-0.002	-0.063
-88.728	116.991	-0.076	0.093
-87.713	-86.488	0.199	0.061
-86.699	-167.432	0.238	-0.010
-85.684	800.000	-0.094	-0.398
-84.670	-83.922	0.198	-0.063
-83.655	-56.012	-0.073	-0.032
-82.640	49.746	-0.033	0.031
-81.626	800.000	-0.044	0.170
-80.611	-52.448	-0.279	-0.129
-79.597	-62.290	0.096	0.040
-78.582	239.056	0.096	-0.160
-77.567	-200.000	0.051	-0.252
-76.553	-126.060	0.211	0.032
-75.538	88.257	0.134	-0.149
-74.524	-69.408	-0.305	-0.117
-73.509	119.099	0.106	0.131
-72.494	-118.808	0.308	0.054
-71.480	-200.000	0.030	-0.186
-70.465	-100.208	0.081	0.020
-69.451	36.912	-0.104	0.092
-68.436	-133.099	0.240	0.030
-67.422	-138.829	-0.391	0.043
-66.407	137.402	-0.170	-0.222
-65.392	371.112	0.169	0.343
-64.378	-200.000	0.069	-0.311
-63.363	73.928	0.126	0.132
-62.349	-200.000	-0.055	0.338
-61.334	-13.498	-0.856	-0.555
-60.319	-200.000	-0.082	-0.491
-59.305	-200.000	-0.074	-0.761
-58.290	72.967	0.475	0.496
-57.276	531.948	0.764	1.808
-56.261	-200.000	75.707	524.964
-55.246	541.362	1308.466	3118.650
-54.232	144.233	2552.468	3407.254
-53.217	109.758	2376.940	2850.738
-52.203	48.895	2116.428	1986.826
-51.188	43.848	2023.627	1853.599
-50.173	42.095	2005.242	1820.765
-49.159	54.416	2042.987	1968.112
-48.144	59.200	2064.111	2032.220
-47.130	44.663	2028.200	1864.967
-46.115	41.955	2016.637	1829.545
-45.100	41.826	2014.255	1826.132
-44.086	41.789	2011.708	1823.410
-43.071	41.664	2009.557	1820.255
-42.057	41.680	2007.418	1818.388
-41.042	41.781	2005.389	1817.395
-40.027	41.794	2003.406	1815.649
-39.013	41.832	2000.879	1813.627
-37.998	41.737	1999.480	1811.423
-36.984	41.788	1997.522	1810.043
-35.969	41.822	1995.498	1808.442
-34.954	41.898	1993.819	1807.538
-33.940	41.867	1992.376	1805.882
-32.925	41.875	1990.759	1804.410
-31.911	41.894	1989.365	1803.248
-30.896	41.890	1987.210	1801.194
-29.881	41.841	1986.238	1799.793
-28.867	41.964	1984.044	1798.843
-27.852	41.854	1982.702	1796.561
-26.838	41.986	1980.163	1795.381
-25.823	41.820	1978.923	1792.694
-24.809	41.911	1976.914	1791.617
-23.794	41.963	1974.871	1790.156
-22.779	41.919	1973.515	1788.465
-21.765	41.923	1971.574	1786.672
-20.750	41.893	1970.450	1785.320
-19.736	41.890	1968.705	1783.638
-18.721	41.895	1967.196	1782.240
-17.706	41.869	1966.025	1780.884
-16.692	41.858	1963.577	1778.491
-15.677	41.840	1962.214	1777.029
-14.663	41.867	1960.705	1775.829
-13.648	41.928	1959.532	1775.245
-12.633	41.964	1958.120	1774.213
-11.619	41.868	1956.904	1772.187
-10.604	41.897	1955.391	1771.002
-9.590	41.901	1954.505	1770.163
-8.575	41.858	1952.947	1768.300
-7.560	41.869	1951.228	1766.775
-6.546	41.907	1949.926	1765.865
-5.531	41.930	1948.851	1765.020
-4.517	41.950	1947.829	1764.203
-3.502	41.980	1946.238	1762.954
-2.487	41.897	1944.981	1761.014
-1.473	41.840	1944.364	1759.888
-0.458	41.981	1940.065	1757.159
0.556	40.879	1921.060	1732.773
1.571	37.011	1900.852	1680.942
2.586	32.907	1922.629	1663.967
3.600	31.622	1960.616	1685.135
4.615	30.517	1958.247	1673.010
5.629	22.862	1850.152	1515.119
6.644	8.895	1715.954	1293.163
7.659	1.552	1670.556	1201.011
8.673	0.931	1666.229	1192.904
9.688	0.844	1665.047	1191.265
10.702	0.881	1663.268	1190.176
11.717	0.774	1660.040	1186.920
12.731	1.069	1659.561	1188.789
13.746	8.934	1679.386	1265.131
14.761	20.059	1704.809	1372.810
15.775	24.232	1711.648	1411.312
16.790	24.429	1710.520	1411.817
17.804	24.507	1710.366	1412.181
18.819	24.524	1709.035	1411.091
19.834	24.561	1708.581	1410.887
20.848	24.798	1708.054	1412.197
21.863	24.806	1706.840	1411.130
22.877	24.848	1705.452	1410.192
23.892	24.741	1705.287	1409.087
24.907	24.815	1704.073	1408.540
25.921	24.791	1703.069	1407.396
26.936	24.791	1702.001	1406.385
27.950	24.837	1700.984	1405.786
28.965	24.842	1700.346	1405.172
29.980	24.778	1699.728	1404.037
30.994	24.837	1697.903	1402.862
32.009	24.817	1696.873	1401.737
33.023	24.919	1695.858	1401.572
34.038	24.807	1695.198	1400.025
35.053	24.875	1693.849	1399.320
36.067	24.858	1692.569	1398.004
37.082	24.753	1692.119	1396.687
38.096	24.752	1690.963	1395.600
39.111	24.796	1690.642	1395.554
40.126	24.811	1689.600	1394.689
41.140	24.791	1688.453	1393.464
42.155	24.725	1687.411	1391.970
43.169	24.786	1686.510	1391.575
44.184	24.770	1685.254	1390.290
45.199	24.793	1684.402	1389.648
46.213	24.812	1683.027	1388.534
47.228	24.695	1682.380	1386.970
48.242	24.852	1680.490	1386.509
49.257	24.849	1679.443	1385.497
50.271	24.901	1678.325	1384.855
51.286	24.860	1677.269	1383.540
52.301	24.891	1675.716	1382.381
53.315	24.850	1674.496	1380.935
54.330	24.766	1673.579	1379.411
55.344	24.882	1671.264	1378.272
56.359	24.860	1670.395	1377.263
57.374	24.890	1669.586	1376.706
58.388	24.806	1668.519	1375.058
59.403	24.820	1667.491	1374.195
60.417	24.869	1666.139	1373.340
61.432	24.918	1665.029	1372.673
62.447	24.839	1664.341	1371.379
63.461	24.844	1663.260	1370.412
64.476	24.923	1661.755	1369.650
65.490	24.816	1661.057	1368.134
66.505	24.896	1659.897	1367.669
67.520	24.843	1659.037	1366.438
68.534	24.910	1658.050	1366.012
69.549	24.920	1656.923	1365.044
70.563	24.873	1656.142	1363.916
71.578	24.886	1654.949	1362.917
72.593	24.939	1653.618	1362.101
73.607	24.963	1652.838	1361.523
74.622	24.797	1652.706	1360.031
75.636	24.847	1651.098	1358.966
76.651	24.898	1650.498	1358.739
77.666	24.812	1649.834	1357.416
78.680	24.875	1648.982	1357.077
79.695	24.959	1647.585	1356.439
80.709	24.878	1646.504	1354.819
81.724	24.875	1645.589	1353.925
82.739	24.840	1645.182	1353.205
83.753	24.852	1644.257	1352.418
84.768	24.902	1642.881	1351.539
85.782	24.901	1642.042	1350.725
86.797	24.910	1641.091	1349.888
87.812	24.867	1640.306	1348.803
88.826	24.911	1639.417	1348.279
89.841	24.942	1637.829	1347.087
90.855	24.887	1637.442	1346.238
91.870	24.851	1636.290	1344.899
92.884	24.918	1634.960	1344.193
93.899	24.981	1634.180	1343.905
94.914	24.978	1633.177	1342.938
95.928	24.966	1631.677	1341.494
96.943	25.038	1630.004	1340.539
97.957	24.923	1629.433	1339.096
98.972	24.888	1628.082	1337.601
99.987	24.903	1626.903	1336.629
101.001	25.074	1624.692	1335.967
102.016	24.895	1623.562	1333.586
103.030	24.902	1622.439	1332.598
104.045	24.894	1621.213	1331.410
105.060	24.872	1619.919	1330.070
106.074	24.886	1618.928	1329.243
107.089	24.951	1617.857	1328.729
108.103	24.923	1616.510	1327.296
109.118	25.003	1615.249	1326.734
110.133	24.969	1613.797	1325.173
111.147	24.896	1613.222	1324.042
112.162	24.905	1612.344	1323.277
113.176	24.995	1610.171	1322.038
114.191	25.082	1608.938	1321.548
115.206	25.004	1608.208	1320.258
116.220	24.926	1607.127	1318.680
117.235	24.950	1605.832	1317.680
118.249	25.005	1604.813	1317.128
119.264	24.922	1603.664	1315.461
120.279	24.931	1602.384	1314.359
121.293	24.941	1601.361	1313.475
122.308	24.952	1600.431	1312.676
123.322	25.029	1599.238	1312.147
124.337	24.974	1597.827	1310.475
125.352	25.082	1596.740	1310.257
126.366	24.985	1595.834	1308.689
127.381	25.183	1594.560	1308.973
128.395	25.140	1593.921	1308.017
129.410	25.067	1592.637	1306.313
130.424	24.947	1592.281	1305.031
131.439	25.026	1590.796	1304.275
132.454	25.003	1589.739	1303.127
133.468	25.003	1588.386	1301.899
134.483	25.024	1586.620	1300.489
135.497	25.028	1585.575	1299.546
136.512	25.023	1585.001	1298.926
137.527	25.031	1583.650	1297.765
138.541	24.999	1582.828	1296.741
139.556	25.063	1581.541	1296.037
140.570	25.053	1580.122	1294.685
141.585	25.062	1578.549	1293.345
142.600	25.083	1577.046	1292.157
143.614	25.096	1576.096	1291.352
144.629	25.011	1575.305	1289.978
145.643	25.077	1573.988	1289.260
146.658	24.999	1573.113	1287.872
147.673	25.027	1571.199	1286.395
148.687	24.984	1570.599	1285.479
149.702	25.004	1569.808	1284.857
150.716	25.051	1567.531	1283.221
151.731	24.943	1566.970	1281.874
152.746	24.985	1566.144	1281.388
153.760	25.031	1564.528	1280.275
154.775	25.037	1563.653	1279.492
155.789	25.096	1562.507	1278.862
156.804	25.014	1561.811	1277.593
157.819	25.092	1559.937	1276.507
158.833	25.022	1559.247	1275.324
159.848	25.068	1558.695	1275.089
160.862	25.167	1557.457	1274.669
161.877	25.132	1556.436	1273.474
162.892	25.099	1555.741	1272.558
163.906	25.110	1554.918	1271.847
164.921	25.171	1553.483	1270.992
165.935	25.173	1552.565	1270.148
166.950	25.199	1551.735	1269.540
167.964	25.062	1550.888	1267.765
168.979	25.105	1549.855	1267.108
169.994	25.051	1549.192	1266.077
171.008	25.171	1548.157	1265.963
172.023	25.186	1547.191	1265.166
173.037	25.200	1546.061	1264.232
174.052	25.203	1545.030	1263.298
175.067	25.246	1543.970	1262.623
176.081	25.181	1543.273	1261.481
177.096	25.109	1542.215	1260.003
178.110	25.162	1540.819	1259.121
179.125	25.194	1539.557	1258.199
180.140	25.211	1538.960	1257.721
181.154	25.207	1538.409	1257.132
182.169	25.237	1537.439	1256.438
183.183	25.201	1535.781	1254.722
184.198	25.154	1535.449	1254.013
185.213	25.259	1534.533	1253.886
186.227	25.268	1533.092	1252.657
187.242	25.257	1532.823	1252.249
188.256	25.259	1531.974	1251.462
189.271	25.209	1531.136	1250.318
190.286	25.305	1530.214	1250.124
191.300	25.191	1529.746	1248.838
192.315	25.253	1528.347	1248.016
193.329	25.197	1527.620	1246.921
194.344	25.191	1526.855	1246.143
195.359	25.246	1526.153	1245.844
196.373	25.238	1525.093	1244.811
197.388	25.342	1523.664	1244.254
198.402	25.269	1522.678	1242.832
199.417	25.198	1522.534	1242.112
200.432	25.119	1521.584	1240.687
201.446	25.264	1521.083	1241.166
202.461	25.308	1519.990	1240.470
203.475	25.235	1518.711	1238.812
204.490	25.236	1517.867	1238.024
205.504	25.249	1517.149	1237.418
206.519	25.209	1516.546	1236.542
207.534	25.321	1515.616	1236.441
208.548	25.311	1514.979	1235.743
209.563	25.197	1513.924	1233.991
210.577	25.297	1512.846	1233.688
211.592	25.263	1512.456	1233.032
212.607	25.323	1511.855	1232.842
213.621	25.255	1511.129	1231.672
214.636	25.380	1510.042	1231.535
215.650	25.284	1509.576	1230.388
216.665	25.429	1507.857	1229.877
217.680	25.480	1507.272	1229.636
218.694	25.342	1506.989	1228.353
219.709	25.292	1506.390	1227.417
220.723	25.459	1505.033	1227.341
221.738	25.356	1504.415	1226.021
222.753	25.510	1503.042	1225.849
223.767	25.307	1502.418	1223.843
224.782	25.300	1501.934	1223.297
225.796	25.416	1501.277	1223.443
226.811	25.488	1500.129	1222.890
227.826	25.424	1499.459	1221.800
228.840	25.452	1498.673	1221.241
229.855	25.447	1497.931	1220.492
230.869	25.383	1497.259	1219.405
231.884	25.402	1496.078	1218.462
232.899	25.432	1495.139	1217.797
233.913	25.393	1494.052	1216.536
234.928	25.434	1492.943	1215.803
235.942	25.528	1491.998	1215.559
236.957	25.536	1490.943	1214.649
237.972	25.525	1490.241	1213.896
238.986	25.490	1489.131	1212.644
240.001	25.504	1487.923	1211.649
241.015	25.580	1487.217	1211.482
242.030	25.686	1486.066	1211.148
243.045	25.725	1484.866	1210.326
244.059	25.638	1484.107	1209.018
245.074	25.570	1483.669	1208.094
246.088	25.678	1482.688	1207.917
247.103	25.666	1482.482	1207.560
248.117	25.673	1481.327	1206.562
249.132	25.635	1480.487	1205.515
250.147	25.796	1479.765	1205.899
251.161	25.565	1479.405	1203.950
252.176	25.770	1478.403	1204.400
253.190	25.812	1477.665	1203.975
254.205	25.677	1476.897	1202.337
255.220	25.796	1475.806	1202.139
256.234	25.690	1474.779	1200.487
257.249	25.693	1474.716	1200.353
258.263	25.764	1473.819	1199.988
259.278	25.807	1472.264	1198.901
260.293	25.752	1472.013	1198.222
261.307	25.764	1471.251	1197.581
262.322	25.781	1470.599	1197.055
263.336	25.870	1469.921	1196.987
264.351	25.779	1468.918	1195.463
265.366	25.847	1468.019	1195.078
266.380	25.781	1467.397	1194.024
267.395	25.796	1466.361	1193.174
268.409	25.783	1465.363	1192.171
269.424	25.844	1464.226	1191.544
270.439	25.804	1463.456	1190.550
271.453	25.905	1462.515	1190.348
272.468	25.842	1461.970	1189.379
273.482	25.848	1461.397	1188.851
274.497	25.847	1460.515	1188.019
275.512	25.876	1459.403	1187.200
276.526	25.925	1458.944	1187.044
277.541	25.940	1457.797	1186.103
278.555	25.877	1457.399	1185.265
279.570	26.039	1456.201	1185.250
280.585	25.995	1455.712	1184.459
281.599	25.881	1455.095	1183.103
282.614	25.951	1453.930	1182.505
283.628	25.979	1452.383	1181.327
284.643	25.954	1452.070	1180.802
285.657	25.991	1451.073	1180.134
286.672	25.939	1450.445	1179.180
287.687	25.945	1449.753	1178.547
288.701	25.978	1448.628	1177.744
289.716	25.967	1447.884	1176.965
290.730	25.983	1447.553	1176.699
291.745	25.925	1446.458	1175.324
292.760	25.994	1445.183	1174.631
293.774	25.967	1444.781	1174.028
294.789	26.040	1443.929	1173.708
295.803	25.954	1443.110	1172.374
296.818	26.064	1442.650	1172.614
297.833	26.013	1441.135	1170.946
298.847	26.058	1440.637	1170.733
299.862	26.067	1439.789	1169.994
300.876	26.111	1439.111	1169.629
301.891	26.093	1438.047	1168.541
302.906	26.142	1437.012	1167.916
303.920	26.177	1436.899	1167.949
304.935	26.105	1436.219	1166.828
305.949	26.144	1435.328	1166.250
306.964	26.217	1434.230	1165.728
307.979	26.173	1433.581	1164.809
308.993	26.201	1432.587	1164.084
310.008	26.312	1431.438	1163.762
311.022	26.146	1430.618	1161.920
312.037	26.279	1429.882	1162.076
313.052	26.271	1429.134	1161.316
314.066	26.178	1428.414	1160.032
315.081	26.235	1427.364	1159.442
316.095	26.185	1426.546	1158.352
317.110	26.285	1425.217	1157.812
318.125	26.218	1424.636	1156.805
319.139	26.343	1423.588	1156.651
320.154	26.272	1423.309	1155.870
321.168	26.221	1422.536	1154.816
322.183	26.335	1420.887	1154.105
323.197	26.238	1420.324	1152.922
324.212	26.347	1419.445	1152.801
325.227	26.202	1418.901	1151.337
326.241	26.343	1418.043	1151.437
327.256	26.363	1416.813	1150.461
328.270	26.419	1416.242	1150.252
329.285	26.465	1415.599	1149.919
330.300	26.408	1414.746	1148.762
331.314	26.393	1413.793	1147.794
332.329	26.410	1412.945	1147.111
333.343	26.459	1411.823	1146.411
334.358	26.463	1411.386	1145.979
335.373	26.453	1411.046	1145.536
336.387	26.473	1410.129	1144.818
337.402	26.534	1409.080	1144.253
338.416	26.495	1409.030	1143.863
339.431	26.499	1408.277	1143.174
340.446	26.537	1407.814	1142.936
341.460	26.491	1407.020	1141.904
342.475	26.662	1405.997	1142.051
343.489	26.674	1404.880	1141.114
344.504	26.619	1403.999	1139.954
345.519	26.555	1403.030	1138.664
346.533	26.543	1402.484	1138.042
347.548	26.630	1401.612	1137.781
348.562	26.660	1400.410	1136.895
349.577	26.618	1399.754	1135.995
350.592	26.582	1399.248	1135.258
351.606	26.613	1398.380	1134.648
352.621	26.633	1397.243	1133.753
353.635	26.581	1396.293	1132.554
354.650	26.622	1395.674	1132.212
355.665	26.695	1394.823	1131.876
356.679	26.642	1393.895	1130.690
357.694	26.676	1392.848	1129.954
358.708	26.715	1391.667	1129.141
359.723	26.693	1390.626	1128.061
360.738	26.706	1389.551	1127.168
361.752	26.720	1388.394	1126.214
362.767	26.610	1387.557	1124.753
363.781	26.786	1386.327	1124.747
364.796	26.649	1386.244	1123.735
365.810	26.784	1385.421	1123.802
366.825	26.850	1384.569	1123.419
367.840	26.770	1384.021	1122.383
368.854	26.852	1382.797	1121.798
369.869	26.834	1382.599	1121.423
370.883	26.823	1381.907	1120.696
371.898	26.870	1380.965	1120.126
372.913	26.914	1380.616	1120.013
373.927	26.869	1379.702	1118.898
374.942	26.914	1378.743	1118.294
375.956	26.883	1378.093	1117.480
376.971	26.939	1377.440	1117.197
377.986	26.989	1376.384	1116.550
379.000	26.864	1375.847	1115.244
380.015	26.977	1375.116	1115.250
381.029	26.951	1374.902	1114.818
382.044	26.939	1374.016	1113.927
383.059	26.963	1373.356	1113.439
384.073	26.972	1372.797	1112.940
385.088	26.997	1372.346	1112.629
386.102	26.971	1371.719	1111.868
387.117	27.036	1371.065	1111.633
388.132	27.098	1369.778	1110.872
389.146	27.025	1369.095	1109.771
390.161	27.081	1368.572	1109.594
391.175	27.060	1367.977	1108.882
392.190	27.054	1367.547	1108.401
393.205	27.076	1366.626	1107.692
394.219	27.196	1365.258	1107.218
395.234	27.115	1364.353	1105.888
396.248	27.079	1363.789	1105.113
397.263	27.190	1362.271	1104.461
398.278	27.169	1361.396	1103.526
399.292	27.112	1360.744	1102.555
400.307	27.194	1359.288	1101.776
401.321	27.183	1358.721	1101.153
402.336	27.224	1357.838	1100.587
403.350	27.206	1356.600	1099.380
404.365	27.168	1355.927	1098.507
405.380	27.214	1355.028	1097.958
406.394	27.274	1354.255	1097.597
407.409	27.229	1353.579	1096.678
408.423	27.268	1353.168	1096.485
409.438	27.314	1352.410	1096.053
410.453	27.366	1351.229	1095.309
411.467	27.380	1350.713	1094.878
412.482	27.333	1350.405	1094.250
413.496	27.420	1349.393	1093.853
414.511	27.375	1348.849	1093.047
415.526	27.413	1348.134	1092.596
416.540	27.409	1347.359	1091.850
417.555	27.383	1346.958	1091.274
418.569	27.389	1346.298	1090.679
419.584	27.416	1345.263	1089.904
420.599	27.358	1345.575	1089.711
421.613	77.613	1324.836	1359.171
422.628	78.227	1321.783	1359.277
