DTS Sentinel unit serial number:	SN413079Multiplexer serial number:	ORYXHardware model number:	OX4-SRSoftware version number:	ORYX F/W v4.00 Oryx Data Collector v3.7.2.0data status	okinstallation	princeton_trtdifferential loss correction	single-endedforward channel	channel 4reverse channel	N/Adate	2019/09/11time	14:59:11forward acquisition time	60.00reverse acquisition time	0.00gamma	496.2192k internal	0.2278k external	0.2278temperature offset calibration	1.0008default loss term (dB/km)	0.3790temperature slope calibration	1.0000multiplexer offset coefficient	1.0000multiplexer slope coefficient	1.0000fibre end	0.00T internal ref (°C)	42.81T ext. ref 1 (°C)	0.93T ext. ref 2 (°C)	37.76length (m)	temperature (°C)	Stokes	anti-Stokes-747.200	66.952	0.177	-0.185
-746.185	800.000	-0.090	0.259
-745.171	362.342	0.166	-0.342
-744.156	109.780	0.332	0.410
-743.142	312.954	0.114	-0.221
-742.127	306.894	0.082	-0.158
-741.112	-200.000	0.021	-0.149
-740.098	334.355	-0.226	0.451
-739.083	392.319	-0.140	0.299
-738.069	800.000	0.109	0.390
-737.054	-9.590	0.265	0.182
-736.039	-64.958	0.211	0.088
-735.025	-200.000	0.006	-0.045
-734.010	123.246	-0.119	-0.153
-732.996	1.701	0.095	-0.071
-731.981	233.343	-0.085	0.144
-730.966	-80.444	0.157	-0.054
-729.952	32.040	0.198	-0.176
-728.937	67.687	0.251	-0.264
-727.923	107.042	0.101	-0.123
-726.908	800.000	-0.094	-0.383
-725.894	57.563	0.216	-0.217
-724.879	-80.282	-0.253	0.087
-723.864	-113.107	-0.162	0.033
-722.850	800.000	0.137	-0.432
-721.835	23.529	0.106	-0.090
-720.821	154.469	0.079	0.111
-719.806	-38.464	-0.283	0.154
-718.791	-62.378	-0.343	-0.147
-717.777	800.000	-0.097	-0.284
-716.762	-47.576	-0.351	-0.175
-715.748	-66.315	0.224	0.092
-714.733	-153.623	-0.176	-0.012
-713.718	190.528	0.174	-0.269
-712.704	117.158	0.224	0.283
-711.689	-200.000	0.065	-0.302
-710.675	-200.000	0.066	-0.370
-709.660	1.119	-0.151	-0.111
-708.645	-129.996	-0.233	-0.033
-707.631	486.864	0.086	0.202
-706.616	-86.829	-0.341	0.107
-705.602	-113.418	0.219	-0.044
-704.587	63.933	-0.070	-0.072
-703.572	-200.000	0.006	-0.223
-702.558	312.584	-0.033	0.063
-701.543	-144.440	0.215	-0.021
-700.529	-151.737	0.336	0.025
-699.514	800.000	-0.030	-0.100
-698.499	-136.739	-0.143	-0.017
-697.485	32.418	-0.200	0.178
-696.470	274.447	0.091	0.166
-695.456	595.921	-0.105	-0.267
-694.441	338.206	-0.167	-0.333
-693.426	342.354	-0.031	-0.063
-692.412	-106.440	0.085	0.019
-691.397	-99.257	0.329	0.085
-690.383	-90.714	-0.181	0.054
-689.368	-6.819	-0.188	-0.131
-688.354	-200.000	0.001	-0.184
-687.339	-107.564	-0.162	0.037
-686.324	-200.000	0.002	-0.035
-685.310	222.226	-0.075	-0.124
-684.295	-26.835	-0.336	0.202
-683.281	-154.322	0.179	-0.012
-682.266	84.309	-0.107	-0.120
-681.251	-94.613	0.255	0.071
-680.237	-79.172	-0.124	-0.043
-679.222	-200.000	-0.024	-0.515
-678.208	-112.254	0.167	-0.034
-677.193	-53.380	-0.210	0.099
-676.178	800.000	-0.187	-0.560
-675.164	180.649	-0.219	-0.331
-674.149	-32.183	-0.259	0.149
-673.135	-194.272	-0.115	-0.001
-672.120	758.833	-0.141	0.391
-671.105	-112.090	0.154	-0.032
-670.091	140.896	-0.117	0.159
-669.076	13.132	0.154	-0.123
-668.062	-200.000	0.029	-0.307
-667.047	-140.440	-0.168	0.018
-666.032	-181.166	0.046	-0.001
-665.018	-65.962	0.054	-0.022
-664.003	184.823	-0.211	0.322
-662.989	141.321	-0.232	0.315
-661.974	-37.427	-0.077	-0.042
-660.959	105.413	-0.137	-0.166
-659.945	5.089	-0.158	0.119
-658.930	-62.196	-0.205	0.088
-657.916	-34.264	-0.379	-0.214
-656.901	-126.665	0.263	-0.040
-655.886	800.000	-0.013	-0.046
-654.872	-103.585	-0.288	0.069
-653.857	-106.963	-0.214	0.049
-652.843	706.111	0.105	-0.285
-651.828	38.879	0.094	0.086
-650.814	10.451	-0.254	0.198
-649.799	-98.258	-0.437	0.115
-648.784	-108.016	0.274	0.061
-647.770	148.046	0.035	-0.048
-646.755	-121.231	-0.128	0.022
-645.741	-98.713	-0.373	0.098
-644.726	157.544	-0.238	0.338
-643.711	633.966	0.082	0.214
-642.697	121.841	-0.098	-0.125
-641.682	-200.000	0.034	-0.288
-640.668	800.000	0.044	0.169
-639.653	312.643	-0.138	-0.267
-638.638	-15.380	0.153	0.100
-637.624	90.771	0.202	0.232
-636.609	800.000	-0.149	0.454
-635.595	-200.000	0.013	0.160
-634.580	-79.794	-0.268	-0.092
-633.565	276.423	-0.047	0.086
-632.551	-200.000	0.003	0.015
-631.536	-27.062	0.186	0.111
-630.522	-23.469	-0.132	0.082
-629.507	800.000	0.061	0.243
-628.492	-63.520	-0.304	-0.128
-627.478	800.000	-0.135	-0.394
-626.463	142.124	0.129	-0.175
-625.449	-52.263	0.074	-0.035
-624.434	60.424	-0.434	-0.440
-623.419	-79.590	-0.201	-0.070
-622.405	273.366	0.104	0.189
-621.390	37.142	0.289	-0.262
-620.376	-48.680	-0.225	-0.111
-619.361	-150.704	0.209	-0.016
-618.346	-110.706	-0.227	0.048
-617.332	-200.000	-0.014	-0.384
-616.317	321.482	0.042	-0.082
-615.303	-11.125	-0.260	-0.176
-614.288	207.798	-0.125	-0.201
-613.273	-104.073	0.296	-0.071
-612.259	-8.941	-0.284	0.195
-611.244	-47.808	-0.168	0.083
-610.230	-200.000	-0.020	0.151
-609.215	558.817	0.134	0.331
-608.201	-75.063	0.260	0.095
-607.186	186.638	-0.122	0.186
-606.171	-137.686	0.317	0.037
-605.157	-33.615	-0.210	0.119
-604.142	118.059	-0.139	0.176
-603.128	-73.123	-0.108	-0.041
-602.113	-62.630	0.181	-0.077
-601.098	77.232	0.265	0.289
-600.084	-200.000	0.007	-0.068
-599.069	-108.520	0.264	0.058
-598.055	-200.000	0.020	0.109
-597.040	43.447	-0.171	0.160
-596.025	-200.000	-0.019	-0.368
-595.011	-189.890	0.055	-0.001
-593.996	-135.501	-0.453	0.055
-592.982	11.448	-0.051	0.040
-591.967	-34.799	-0.147	0.082
-590.952	-200.000	-0.070	0.371
-589.938	-200.000	0.008	0.072
-588.923	-29.154	-0.283	0.166
-587.909	221.934	0.163	0.269
-586.894	-20.785	0.257	-0.161
-585.879	-2.258	-0.184	-0.132
-584.865	-81.319	0.087	0.029
-583.850	790.538	0.115	-0.324
-582.836	-49.987	0.202	-0.098
-581.821	-155.005	-0.138	-0.009
-580.806	800.000	-0.042	0.152
-579.792	-54.132	0.113	0.052
-578.777	361.052	0.169	0.346
-577.763	601.186	-0.054	-0.138
-576.748	-42.014	-0.307	-0.161
-575.733	-200.000	-0.009	-0.167
-574.719	-117.469	0.213	0.039
-573.704	-63.243	-0.247	0.104
-572.690	800.000	0.017	-0.070
-571.675	-117.993	-0.116	0.021
-570.661	-200.000	0.028	-0.187
-569.646	-33.007	0.184	-0.104
-568.631	-200.000	0.004	-0.049
-567.617	267.447	-0.167	-0.300
-566.602	-200.000	-0.008	0.122
-565.588	137.528	0.051	-0.069
-564.573	-78.931	-0.194	-0.068
-563.558	-200.000	0.018	0.105
-562.544	97.357	0.150	-0.176
-561.529	-67.430	-0.304	0.122
-560.515	-57.810	-0.066	0.030
-559.500	45.018	-0.244	-0.229
-558.485	-0.007	0.110	0.080
-557.471	800.000	0.078	0.341
-556.456	-200.000	0.014	-0.083
-555.442	-58.005	0.054	0.024
-554.427	94.205	-0.134	-0.155
-553.412	151.347	0.148	-0.206
-552.398	-200.000	-0.028	-0.206
-551.383	304.310	0.092	-0.175
-550.369	252.399	-0.128	-0.223
-549.354	56.178	-0.052	-0.051
-548.339	-57.006	0.258	0.116
-547.325	-52.004	0.301	0.143
-546.310	-77.751	-0.043	-0.015
-545.296	348.665	-0.032	0.064
-544.281	-60.838	-0.114	0.049
-543.266	49.671	0.129	-0.124
-542.252	-76.762	-0.351	-0.126
-541.237	-90.481	0.164	0.049
-540.223	80.063	0.186	-0.204
-539.208	-11.356	0.121	0.081
-538.193	704.477	0.107	0.289
-537.179	-24.267	0.251	-0.153
-536.164	-78.778	-0.181	-0.063
-535.150	-88.287	-0.257	-0.079
-534.135	800.000	0.063	-0.275
-533.121	-51.657	0.197	-0.094
-532.106	-200.000	0.048	-0.272
-531.091	74.463	-0.178	0.191
-530.077	85.185	-0.246	-0.275
-529.062	-200.000	0.015	-0.094
-528.048	72.775	-0.264	-0.281
-527.033	-200.000	-0.053	-0.333
-526.018	24.883	0.251	-0.213
-525.004	-58.822	-0.069	-0.030
-523.989	571.644	-0.159	-0.395
-522.975	-105.997	0.492	-0.113
-521.960	-150.332	-0.228	-0.018
-520.945	-77.810	-0.266	0.094
-519.931	-147.894	0.084	-0.007
-518.916	-91.988	0.235	0.068
-517.902	800.000	-0.022	0.067
-516.887	-159.771	0.143	-0.008
-515.872	738.236	-0.152	-0.417
-514.858	-200.000	-0.017	-0.077
-513.843	385.525	0.048	0.102
-512.829	-67.136	0.179	-0.072
-511.814	-2.648	0.092	0.066
-510.799	800.000	-0.016	0.047
-509.785	800.000	-0.073	-0.232
-508.770	800.000	-0.157	-0.443
-507.756	16.763	-0.094	0.076
-506.741	-200.000	0.023	-0.452
-505.726	-15.724	0.123	-0.080
-504.712	-132.033	0.502	0.067
-503.697	56.793	-0.118	-0.118
-502.683	-172.752	0.086	-0.003
-501.668	800.000	0.165	-0.708
-500.653	102.357	0.102	0.122
-499.639	-1.795	-0.151	0.108
-498.624	112.071	0.119	0.147
-497.610	396.416	-0.084	-0.178
-496.595	-200.000	0.044	-0.205
-495.581	-200.000	-0.009	-0.373
-494.566	-200.000	0.017	0.257
-493.551	315.219	-0.093	-0.179
-492.537	-200.000	0.000	0.302
-491.522	-51.535	0.223	-0.106
-490.508	-33.144	0.214	-0.121
-489.493	800.000	0.090	0.279
-488.478	-7.446	-0.203	-0.140
-487.464	-200.000	-0.002	0.242
-486.449	-123.115	-0.297	-0.049
-485.435	-163.546	0.048	0.002
-484.420	-147.162	0.261	-0.023
-483.405	-72.312	-0.145	0.055
-482.391	240.212	-0.230	-0.390
-481.376	-37.105	-0.039	0.021
-480.362	248.383	0.060	0.103
-479.347	-200.000	0.035	0.182
-478.332	-18.904	0.044	-0.028
-477.318	230.045	-0.076	-0.127
-476.303	668.068	-0.100	-0.263
-475.289	-155.915	0.014	-0.001
-474.274	288.081	-0.139	-0.256
-473.259	-200.000	-0.022	-0.128
-472.245	-83.854	-0.089	-0.029
-471.230	-15.344	-0.035	-0.023
-470.216	98.614	-0.108	-0.127
-469.201	800.000	-0.067	0.258
-468.186	-200.000	-0.022	0.135
-467.172	348.796	-0.141	0.284
-466.157	-91.024	-0.153	0.045
-465.143	800.000	0.042	0.124
-464.128	-93.492	0.198	0.056
-463.113	800.000	-0.051	0.155
-462.099	-200.000	-0.029	-0.148
-461.084	610.453	0.034	-0.086
-460.070	-131.155	0.051	-0.007
-459.055	-200.000	-0.003	-0.075
-458.040	495.005	0.116	-0.271
-457.026	-101.510	-0.111	0.027
-456.011	-118.824	-0.101	0.018
-454.997	-94.232	-0.300	0.084
-453.982	-44.665	0.329	0.167
-452.968	-83.845	0.397	0.129
-451.953	-200.000	0.036	0.206
-450.938	241.511	0.259	-0.440
-449.924	-200.000	0.010	0.065
-448.909	-200.000	-0.071	-0.330
-447.895	-118.840	-0.250	0.045
-446.880	152.813	0.097	0.135
-445.865	-200.000	0.002	-0.137
-444.851	115.898	-0.101	0.126
-443.836	-60.651	-0.244	0.105
-442.822	524.786	-0.122	-0.292
-441.807	-155.899	0.333	0.022
-440.792	-57.253	-0.190	0.085
-439.778	20.199	0.097	-0.079
-438.763	-133.874	-0.395	-0.050
-437.749	-76.787	0.126	0.045
-436.734	-195.037	0.375	0.003
-435.719	-30.531	-0.161	0.093
-434.705	-200.000	-0.030	0.309
-433.690	56.438	0.090	-0.089
-432.676	-42.142	-0.256	-0.133
-431.661	660.539	0.031	0.081
-430.646	-125.097	0.262	-0.041
-429.632	488.959	-0.061	0.141
-428.617	-200.000	-0.010	-0.344
-427.603	-37.060	0.134	0.073
-426.588	-173.919	-0.243	-0.007
-425.573	-200.000	0.013	0.285
-424.559	-96.340	0.344	0.093
-423.544	-200.000	0.000	0.057
-422.530	129.033	0.079	-0.103
-421.515	800.000	-0.147	0.416
-420.500	-83.498	0.214	-0.070
-419.486	86.456	0.251	-0.282
-418.471	-116.439	-0.270	0.051
-417.457	16.558	0.195	0.157
-416.442	-200.000	-0.029	-0.178
-415.428	409.036	-0.024	0.051
-414.413	800.000	-0.051	0.144
-413.398	-200.000	0.033	-0.250
-412.384	-113.681	-0.068	-0.014
-411.369	-200.000	0.008	0.141
-410.355	800.000	0.129	0.449
-409.340	-132.099	0.192	-0.025
-408.325	-165.453	-0.182	0.008
-407.311	-82.693	0.199	0.066
-406.296	800.000	-0.093	0.271
-405.282	-47.418	0.456	0.225
-404.267	672.260	-0.056	0.148
-403.252	182.049	0.072	0.107
-402.238	4.720	0.198	0.148
-401.223	-144.307	0.070	-0.007
-400.209	-49.449	-0.151	-0.073
-399.194	31.764	-0.355	-0.311
-398.179	112.348	-0.061	-0.075
-397.165	-158.151	0.178	-0.011
-396.150	68.449	0.164	0.171
-395.136	99.371	0.125	-0.147
-394.121	-112.872	0.237	0.048
-393.106	-125.961	0.104	-0.016
-392.092	-66.282	-0.142	-0.057
-391.077	197.208	-0.065	-0.101
-390.063	-93.663	0.426	-0.119
-389.048	-120.402	-0.272	-0.047
-388.033	151.163	0.118	-0.163
-387.019	-200.000	-0.012	-0.301
-386.004	231.688	0.150	-0.250
-384.990	-200.000	0.037	0.182
-383.975	-73.256	-0.444	0.165
-382.960	468.044	0.097	0.220
-381.946	800.000	0.059	0.260
-380.931	223.202	0.126	0.207
-379.917	800.000	-0.042	0.151
-378.902	-153.792	-0.407	0.028
-377.888	186.992	-0.057	0.086
-376.873	-137.675	0.299	-0.034
-375.858	-75.313	-0.083	-0.030
-374.844	-7.005	-0.122	-0.084
-373.829	800.000	0.043	-0.173
-372.815	-122.369	0.156	-0.026
-371.800	-50.799	-0.160	-0.076
-370.785	-114.913	-0.087	-0.017
-369.771	-133.036	-0.309	0.040
-368.756	107.782	0.183	-0.222
-367.742	513.702	0.101	0.239
-366.727	62.597	0.088	0.090
-365.712	264.413	0.116	-0.205
-364.698	800.000	-0.048	-0.151
-363.683	-151.555	-0.267	0.020
-362.669	-200.000	0.053	0.284
-361.654	156.423	-0.146	-0.205
-360.639	-148.469	0.161	-0.013
-359.625	105.877	0.181	-0.218
-358.610	-63.658	-0.329	-0.137
-357.596	-62.335	0.092	0.039
-356.581	52.391	0.183	0.177
-355.566	-200.000	-0.076	0.342
-354.552	-200.000	-0.019	0.148
-353.537	-200.000	-0.022	0.274
-352.523	-200.000	-0.006	0.079
-351.508	-200.000	0.046	0.259
-350.493	-65.643	0.061	0.025
-349.479	122.124	-0.157	0.199
-348.464	182.487	-0.132	0.197
-347.450	-117.142	-0.112	0.021
-346.435	-132.167	0.177	-0.023
-345.420	-48.971	0.160	-0.078
-344.406	-3.184	0.177	0.125
-343.391	-200.000	0.118	-0.000
-342.377	-154.275	-0.304	-0.021
-341.362	159.987	-0.106	-0.149
-340.348	133.145	-0.110	0.144
-339.333	-11.262	0.194	-0.129
-338.318	77.178	0.259	0.279
-337.304	-9.919	-0.175	-0.118
-336.289	800.000	-0.045	0.146
-335.275	112.918	0.088	0.108
-334.260	800.000	-0.050	-0.162
-333.245	327.261	0.161	0.313
-332.231	-107.642	-0.261	0.058
-331.216	-138.397	0.193	-0.022
-330.202	-43.373	-0.228	-0.117
-329.187	-112.196	0.069	-0.014
-328.172	482.134	0.087	-0.199
-327.158	800.000	-0.012	0.044
-326.143	-40.109	0.138	-0.073
-325.129	800.000	-0.063	0.264
-324.114	-55.611	0.086	0.039
-323.099	203.343	0.271	0.424
-322.085	-41.560	0.035	-0.018
-321.070	-58.003	-0.224	0.099
-320.056	800.000	-0.091	-0.263
-319.041	-123.010	-0.467	-0.076
-318.026	183.587	-0.191	-0.286
-317.012	637.262	0.088	0.227
-315.997	239.528	0.020	0.034
-314.983	0.974	-0.224	0.163
-313.968	231.548	-0.259	-0.429
-312.953	-200.000	-0.002	0.299
-311.939	40.210	-0.180	0.164
-310.924	595.788	0.041	-0.103
-309.910	43.130	-0.237	0.219
-308.895	-200.000	0.040	0.188
-307.880	-200.000	-0.034	0.459
-306.866	800.000	0.092	-0.299
-305.851	64.524	0.372	-0.379
-304.837	-79.568	0.212	-0.073
-303.822	-200.000	-0.010	-0.087
-302.807	-200.000	-0.021	0.532
-301.793	123.461	-0.092	0.116
-300.778	63.095	0.043	0.044
-299.764	59.173	0.059	0.059
-298.749	-107.575	0.204	0.045
-297.735	-66.173	0.198	-0.080
-296.720	316.562	0.061	0.117
-295.705	-95.028	-0.320	0.087
-294.691	-65.339	0.207	-0.084
-293.676	-200.000	-0.020	0.096
-292.662	-200.000	0.070	-0.416
-291.647	-126.021	0.095	-0.014
-290.632	503.332	-0.177	-0.414
-289.618	800.000	-0.039	0.118
-288.603	800.000	0.074	-0.287
-287.589	800.000	0.070	-0.307
-286.574	44.425	-0.175	0.163
-285.559	-112.852	-0.289	0.058
-284.545	-31.142	0.022	-0.013
-283.530	62.096	0.295	0.297
-282.516	123.630	0.165	-0.210
-281.501	-38.863	-0.264	-0.141
-280.486	-5.135	0.067	-0.047
-279.472	248.836	0.070	0.120
-278.457	-60.181	-0.440	-0.190
-277.443	-22.091	0.126	-0.077
-276.428	149.745	-0.133	0.182
-275.413	800.000	0.035	-0.152
-274.399	-13.837	-0.198	-0.130
-273.384	183.129	0.133	-0.198
-272.370	800.000	0.027	0.112
-271.355	-200.000	0.032	0.414
-270.340	140.193	0.240	0.320
-269.326	16.473	-0.204	-0.163
-268.311	-200.000	-0.003	0.133
-267.297	-200.000	-0.004	-0.228
-266.282	142.598	0.129	0.173
-265.267	-200.000	-0.007	0.245
-264.253	-200.000	-0.042	-0.262
-263.238	-200.000	0.037	0.187
-262.224	647.009	-0.078	-0.202
-261.209	240.615	0.120	-0.203
-260.195	107.416	0.119	0.144
-259.180	-107.078	-0.616	-0.137
-258.165	656.487	0.088	0.230
-257.151	-157.298	-0.314	0.019
-256.136	138.370	0.187	0.248
-255.122	-104.460	0.200	-0.047
-254.107	-200.000	0.007	0.099
-253.092	116.794	0.135	-0.167
-252.078	10.414	-0.064	0.049
-251.063	-33.941	-0.366	-0.204
-250.049	-8.759	-0.267	0.181
-249.034	491.419	0.156	0.362
-248.019	-6.820	0.373	-0.256
-247.005	-7.344	0.242	-0.165
-245.990	-59.816	-0.305	0.132
-244.976	-200.000	-0.005	0.111
-243.961	-200.000	-0.053	0.272
-242.946	293.101	0.203	-0.375
-241.932	-119.151	-0.126	0.022
-240.917	-66.807	-0.206	0.082
-239.903	-111.788	0.094	0.019
-238.888	154.781	-0.045	0.062
-237.873	17.219	0.194	-0.155
-236.859	242.880	0.175	-0.296
-235.844	-8.541	-0.213	0.145
-234.830	-12.226	-0.205	0.135
-233.815	1.123	-0.197	0.143
-232.800	-39.447	-0.119	-0.063
-231.786	-101.554	-0.114	-0.028
-230.771	-200.000	-0.005	-0.113
-229.757	308.335	0.195	0.367
-228.742	-178.556	0.181	0.004
-227.727	-200.000	-0.018	-0.193
-226.713	388.104	-0.056	0.117
-225.698	-200.000	0.058	0.413
-224.684	121.978	-0.064	-0.081
-223.669	-200.000	-0.018	-0.238
-222.655	97.846	-0.234	-0.272
-221.640	-76.322	0.292	-0.104
-220.625	11.810	0.304	0.235
-219.611	-22.689	0.109	-0.067
-218.596	-105.029	-0.236	0.055
-217.582	384.337	-0.134	0.278
-216.567	173.198	-0.093	0.135
-215.552	-93.449	-0.091	0.025
-214.538	-200.000	0.008	0.149
-213.523	79.890	0.079	-0.085
-212.509	-123.145	0.204	0.033
-211.494	271.462	-0.066	-0.117
-210.479	-200.000	-0.047	-0.210
-209.465	-41.128	0.065	-0.034
-208.450	513.950	0.050	-0.118
-207.436	-105.324	-0.206	0.047
-206.421	-116.642	-0.361	-0.067
-205.406	-187.145	0.168	0.002
-204.392	-106.698	0.112	-0.025
-203.377	295.340	-0.064	-0.118
-202.363	800.000	0.059	0.190
-201.348	56.164	0.028	0.027
-200.333	113.489	0.086	0.105
-199.319	35.269	0.396	0.350
-198.304	60.187	-0.025	0.025
-197.290	-162.969	0.416	-0.020
-196.275	-97.839	0.217	-0.057
-195.260	15.745	-0.227	-0.180
-194.246	68.331	-0.210	0.216
-193.231	95.211	-0.085	-0.097
-192.217	-200.000	-0.011	-0.097
-191.202	800.000	-0.116	-0.327
-190.187	-18.563	-0.481	0.303
-189.173	-110.460	0.201	-0.042
-188.158	283.335	0.143	0.259
-187.144	-102.033	-0.191	-0.046
-186.129	-183.292	-0.021	-0.000
-185.114	-200.000	0.002	-0.279
-184.100	-56.364	-0.311	-0.139
-183.085	-200.000	0.007	0.121
-182.071	800.000	-0.056	0.223
-181.056	70.439	-0.122	0.127
-180.042	20.546	0.371	0.302
-179.027	8.814	0.346	-0.263
-178.012	5.948	0.054	-0.041
-176.998	-200.000	0.011	0.295
-175.983	-154.212	0.297	0.020
-174.969	-16.902	0.242	-0.154
-173.954	-200.000	-0.001	0.274
-172.939	-68.542	0.233	-0.091
-171.925	589.717	0.104	-0.259
-170.910	235.863	-0.080	-0.133
-169.896	-200.000	-0.006	0.060
-168.881	-200.000	-0.017	-0.156
-167.866	25.700	0.164	-0.137
-166.852	51.768	0.254	0.243
-165.837	-34.888	0.115	-0.063
-164.823	-22.954	0.052	0.032
-163.808	-200.000	0.012	-0.149
-162.793	-86.629	0.200	0.062
-161.779	83.070	0.285	0.312
-160.764	-124.561	0.186	0.029
-159.750	-170.314	0.161	-0.006
-158.735	4.358	-0.131	-0.096
-157.720	56.286	-0.233	-0.228
-156.706	132.299	-0.087	-0.112
-155.691	800.000	0.110	0.326
-154.677	-156.947	0.160	0.010
-153.662	68.577	-0.140	0.144
-152.647	-65.549	-0.251	0.101
-151.633	597.898	-0.057	0.141
-150.618	-200.000	-0.069	0.306
-149.604	-72.384	0.151	0.056
-148.589	-200.000	0.055	0.304
-147.574	-161.279	0.137	-0.007
-146.560	-80.270	0.131	0.044
-145.545	-200.000	-0.013	-0.144
-144.531	-29.394	0.084	-0.048
-143.516	-22.589	0.334	-0.203
-142.502	23.241	-0.155	-0.128
-141.487	12.562	-0.139	0.108
-140.472	80.540	-0.087	-0.094
-139.458	62.513	0.074	-0.075
-138.443	327.643	0.064	0.124
-137.429	-74.209	-0.252	0.092
-136.414	-30.801	0.040	-0.023
-135.399	-135.852	0.107	-0.013
-134.385	800.000	-0.016	-0.065
-133.370	-117.301	-0.263	0.048
-132.356	-200.000	0.008	0.036
-131.341	81.491	0.225	0.244
-130.326	272.285	0.023	-0.042
-129.312	800.000	0.046	-0.201
-128.297	-84.608	0.216	0.068
-127.283	-200.000	-0.031	0.307
-126.268	800.000	-0.033	-0.116
-125.253	-200.000	0.028	-0.231
-124.239	-60.527	-0.209	-0.089
-123.224	-12.730	-0.081	-0.053
-122.210	-7.152	0.168	-0.114
-121.195	247.987	-0.289	-0.491
-120.180	-200.000	-0.038	-0.242
-119.166	-37.677	0.245	-0.131
-118.151	-95.865	0.214	-0.057
-117.137	-200.000	-0.018	-0.286
-116.122	-32.973	0.186	-0.104
-115.107	800.000	-0.058	-0.247
-114.093	-13.255	-0.309	0.201
-113.078	-108.624	0.285	-0.062
-112.064	86.831	0.140	0.155
-111.049	203.033	0.106	-0.165
-110.034	-9.998	-0.157	-0.105
-109.020	-3.251	-0.077	0.054
-108.005	-200.000	-0.026	-0.172
-106.991	219.051	-0.062	-0.099
-105.976	-177.031	0.166	-0.004
-104.962	-137.070	0.269	-0.031
-103.947	47.419	0.179	-0.168
-102.932	-58.850	0.190	0.082
-101.918	197.410	-0.221	0.339
-100.903	592.692	-0.076	-0.187
-99.889	-89.036	-0.052	-0.016
-98.874	46.041	-0.250	0.232
-97.859	-40.520	-0.282	-0.147
-96.845	78.724	0.081	0.087
-95.830	-167.429	-0.211	-0.008
-94.816	2.493	-0.142	0.104
-93.801	-143.669	0.636	-0.061
-92.786	129.065	0.234	-0.300
-91.772	-114.933	-0.156	-0.030
-90.757	-166.903	0.253	-0.010
-89.743	800.000	0.078	-0.250
-88.728	780.557	-0.007	-0.019
-87.713	-122.854	0.076	0.012
-86.699	260.294	-0.028	-0.049
-85.684	186.543	0.099	0.148
-84.670	-200.000	-0.018	0.221
-83.655	-94.896	0.135	-0.037
-82.640	-39.400	0.073	-0.038
-81.626	-200.000	0.003	-0.131
-80.611	-76.159	0.172	0.061
-79.597	311.377	0.151	0.283
-78.582	-200.000	0.003	-0.144
-77.567	40.580	-0.167	-0.151
-76.553	800.000	0.092	-0.278
-75.538	691.003	-0.013	-0.034
-74.524	51.445	0.257	0.245
-73.509	800.000	0.101	-0.330
-72.494	123.828	-0.043	0.054
-71.480	-200.000	0.001	0.459
-70.465	-69.214	0.186	-0.072
-69.451	-120.085	-0.443	-0.076
-68.436	-200.000	0.020	-0.401
-67.422	-200.000	0.012	-0.272
-66.407	-56.431	0.184	-0.082
-65.392	-0.761	0.206	-0.147
-64.378	615.802	-0.024	-0.060
-63.363	-33.515	0.396	0.220
-62.349	-200.000	-0.005	0.360
-61.334	22.767	-0.982	-0.807
-60.319	160.860	-0.120	0.168
-59.305	-200.000	-0.060	-0.751
-58.290	47.564	0.809	0.756
-57.276	410.744	0.701	1.491
-56.261	-200.000	74.080	530.161
-55.246	563.997	1299.680	3156.262
-54.232	143.398	2531.222	3378.453
-53.217	111.681	2374.133	2872.342
-52.203	50.154	2111.612	1998.733
-51.188	44.913	2018.923	1863.208
-50.173	43.140	1999.530	1829.163
-49.159	55.246	2036.505	1973.833
-48.144	60.595	2056.418	2041.912
-47.130	45.748	2021.684	1873.092
-46.115	42.896	2010.780	1836.939
-45.100	42.776	2008.318	1833.519
-44.086	42.725	2006.231	1831.083
-43.071	42.651	2003.596	1827.927
-42.057	42.681	2001.487	1826.206
-41.042	42.659	1999.353	1823.985
-40.027	42.756	1997.367	1822.985
-39.013	42.756	1994.990	1820.740
-37.998	42.754	1993.570	1819.358
-36.984	42.780	1991.744	1817.847
-35.969	42.757	1989.898	1815.887
-34.954	42.821	1988.200	1814.837
-33.940	42.798	1987.320	1813.759
-32.925	42.847	1984.993	1812.000
-31.911	42.796	1983.640	1810.234
-30.896	42.774	1982.118	1808.581
-29.881	42.876	1979.745	1807.258
-28.867	42.853	1978.176	1805.552
-27.852	42.786	1977.200	1803.983
-26.838	42.888	1974.584	1802.437
-25.823	42.868	1972.841	1800.599
-24.809	42.881	1971.091	1799.042
-23.794	42.878	1969.499	1797.492
-22.779	42.898	1967.591	1795.858
-21.765	42.841	1966.064	1793.890
-20.750	42.789	1964.771	1792.171
-19.736	42.844	1962.995	1790.969
-18.721	42.868	1961.912	1790.125
-17.706	42.762	1960.544	1787.869
-16.692	42.772	1958.273	1785.808
-15.677	42.820	1956.678	1784.715
-14.663	42.787	1955.154	1782.960
-13.648	42.848	1954.217	1782.569
-12.633	42.807	1952.565	1780.630
-11.619	42.860	1951.137	1779.726
-10.604	42.858	1949.487	1778.132
-9.590	42.799	1948.322	1776.484
-8.575	42.786	1947.280	1775.343
-7.560	42.863	1945.350	1774.197
-6.546	42.803	1943.989	1772.351
-5.531	42.759	1943.052	1771.042
-4.517	42.799	1942.010	1770.375
-3.502	42.861	1940.454	1769.428
-2.487	42.813	1939.186	1767.782
-1.473	42.795	1938.879	1767.273
-0.458	42.977	1934.355	1764.677
0.556	42.153	1915.883	1741.847
1.571	38.260	1895.817	1689.872
2.586	33.958	1917.176	1671.038
3.600	32.566	1954.261	1690.726
4.615	31.583	1952.608	1680.325
5.629	24.024	1844.974	1523.146
6.644	9.551	1710.522	1296.329
7.659	1.830	1663.029	1199.623
8.673	1.070	1658.834	1190.524
9.688	0.951	1657.251	1188.344
10.702	0.947	1655.668	1187.074
11.717	0.752	1653.347	1183.783
12.731	1.288	1652.518	1187.272
13.746	9.790	1673.674	1269.500
14.761	21.268	1700.544	1381.036
15.775	24.989	1705.292	1414.212
16.790	24.706	1703.243	1410.155
17.804	24.691	1702.474	1409.270
18.819	24.756	1701.796	1409.103
19.834	24.823	1701.148	1408.964
20.848	24.957	1700.764	1409.579
21.863	24.979	1699.829	1408.852
22.877	24.981	1698.682	1407.794
23.892	25.013	1697.470	1406.917
24.907	25.028	1696.769	1406.324
25.921	25.053	1695.942	1405.710
26.936	25.073	1694.629	1404.659
27.950	25.001	1693.888	1403.352
28.965	25.031	1693.355	1403.025
29.980	24.940	1692.851	1401.766
30.994	25.104	1690.627	1401.084
32.009	25.098	1689.461	1399.948
33.023	25.073	1688.782	1399.065
34.038	25.024	1687.762	1397.717
35.053	25.014	1686.715	1396.649
36.067	25.018	1685.961	1395.932
37.082	25.101	1684.605	1395.328
38.096	25.039	1683.835	1394.088
39.111	25.022	1683.261	1393.354
40.126	25.115	1682.016	1392.925
41.140	25.034	1681.521	1391.760
42.155	24.969	1680.238	1390.070
43.169	25.069	1678.756	1389.497
44.184	25.083	1677.732	1388.636
45.199	25.141	1676.509	1387.949
46.213	24.962	1675.990	1386.012
47.228	25.027	1674.748	1385.369
48.242	25.073	1672.960	1384.123
49.257	24.928	1672.482	1382.484
50.271	25.075	1671.103	1382.355
51.286	24.995	1670.387	1381.023
52.301	25.055	1668.864	1380.104
53.315	24.935	1667.850	1378.218
54.330	24.990	1666.177	1377.136
55.344	25.033	1664.856	1376.257
56.359	25.128	1662.984	1375.311
57.374	25.088	1662.393	1374.395
58.388	25.055	1661.123	1372.970
59.403	25.010	1660.646	1372.110
60.417	25.009	1659.264	1370.843
61.432	25.130	1657.810	1370.446
62.447	25.121	1656.634	1369.278
63.461	25.082	1655.977	1368.318
64.476	25.068	1655.255	1367.494
65.490	25.047	1654.256	1366.390
66.505	24.998	1653.155	1364.983
67.520	25.078	1651.871	1364.413
68.534	25.030	1650.971	1363.186
69.549	25.101	1649.826	1362.659
70.563	25.131	1648.430	1361.615
71.578	25.140	1647.338	1360.656
72.593	25.122	1647.021	1360.141
73.607	25.086	1646.374	1359.207
74.622	25.128	1645.098	1358.354
75.636	25.018	1644.476	1356.886
76.651	25.075	1643.416	1356.328
77.666	25.081	1642.142	1355.202
78.680	25.125	1641.151	1354.592
79.695	25.043	1640.673	1353.462
80.709	25.052	1640.172	1352.992
81.724	25.064	1638.999	1351.996
82.739	25.013	1638.282	1350.900
83.753	25.142	1637.464	1351.080
84.768	25.161	1636.233	1350.088
85.782	25.164	1635.228	1349.163
86.797	25.053	1634.529	1347.634
87.812	25.093	1633.521	1346.981
88.826	25.079	1632.332	1345.777
89.841	25.068	1631.340	1344.759
90.855	25.201	1630.109	1344.617
91.870	25.037	1629.716	1342.947
92.884	25.072	1628.426	1342.032
93.899	25.051	1627.730	1341.176
94.914	25.122	1626.034	1340.196
95.928	25.155	1624.912	1339.395
96.943	25.075	1623.808	1337.768
97.957	25.153	1622.602	1337.240
98.972	25.125	1621.395	1335.920
99.987	25.158	1620.109	1334.986
101.001	25.146	1618.582	1333.523
102.016	25.064	1617.438	1331.855
103.030	25.061	1615.882	1330.432
104.045	25.121	1614.368	1329.509
105.060	25.095	1613.297	1328.316
106.074	25.088	1612.105	1327.166
107.089	25.118	1610.804	1326.198
108.103	25.157	1609.658	1325.431
109.118	25.129	1608.836	1324.428
110.133	25.150	1607.731	1323.555
111.147	25.041	1606.757	1321.833
112.162	25.075	1605.447	1320.885
113.176	25.186	1604.313	1320.653
114.191	25.134	1603.183	1319.229
115.206	25.166	1601.502	1317.958
116.220	25.175	1600.904	1317.419
117.235	25.151	1599.472	1315.946
118.249	25.174	1598.452	1315.165
119.264	25.121	1597.489	1313.865
120.279	25.159	1596.284	1313.036
121.293	25.113	1595.043	1311.563
122.308	25.244	1593.814	1311.393
123.322	25.230	1592.541	1310.131
124.337	25.279	1591.318	1309.363
125.352	25.270	1590.567	1308.564
126.366	25.187	1589.909	1307.303
127.381	25.350	1588.286	1307.040
128.395	25.246	1588.362	1306.231
129.410	25.249	1587.092	1305.087
130.424	25.255	1585.387	1303.614
131.439	25.249	1584.208	1302.490
132.454	25.279	1583.394	1301.922
133.468	25.281	1582.255	1300.884
134.483	25.255	1580.609	1299.225
135.497	25.261	1579.579	1298.307
136.512	25.305	1578.059	1297.260
137.527	25.268	1577.212	1296.184
138.541	25.323	1576.264	1295.685
139.556	25.303	1575.008	1294.397
140.570	25.281	1573.935	1293.243
141.585	25.324	1572.436	1292.204
142.600	25.318	1571.443	1291.228
143.614	25.353	1570.182	1290.335
144.629	25.316	1569.236	1289.174
145.643	25.299	1567.947	1287.879
146.658	25.350	1566.493	1286.936
147.673	25.303	1564.953	1285.221
148.687	25.151	1564.646	1283.766
149.702	25.298	1563.321	1283.621
150.716	25.221	1561.837	1281.737
151.731	25.131	1561.141	1280.409
152.746	25.260	1559.890	1280.188
153.760	25.320	1558.503	1279.362
154.775	25.271	1557.597	1278.158
155.789	25.272	1556.876	1277.462
156.804	25.323	1555.304	1276.422
157.819	25.346	1553.912	1275.329
158.833	25.292	1553.125	1274.185
159.848	25.261	1552.380	1273.243
160.862	25.254	1551.841	1272.638
161.877	25.300	1550.429	1271.696
162.892	25.301	1549.535	1270.854
163.906	25.174	1548.813	1269.255
164.921	25.317	1547.323	1268.928
165.935	25.367	1546.128	1268.192
166.950	25.459	1545.348	1268.091
167.964	25.300	1544.911	1266.497
168.979	25.276	1543.981	1265.452
169.994	25.426	1542.837	1265.462
171.008	25.386	1541.922	1264.318
172.023	25.391	1541.160	1263.615
173.037	25.425	1539.711	1262.551
174.052	25.408	1538.920	1261.674
175.067	25.407	1537.978	1260.784
176.081	25.411	1537.352	1260.184
177.096	25.350	1536.090	1258.612
178.110	25.446	1534.729	1258.057
179.125	25.321	1534.155	1256.601
180.140	25.370	1533.359	1256.179
181.154	25.402	1532.434	1255.537
182.169	25.539	1531.137	1255.315
183.183	25.450	1530.553	1254.104
184.198	25.406	1529.629	1252.932
185.213	25.481	1528.764	1252.636
186.227	25.443	1527.776	1251.449
187.242	25.398	1527.541	1250.832
188.256	25.450	1526.043	1249.861
189.271	25.550	1525.289	1249.825
190.286	25.504	1524.200	1248.502
191.300	25.468	1523.991	1247.973
192.315	25.465	1522.640	1246.730
193.329	25.428	1521.810	1245.686
194.344	25.323	1521.119	1244.286
195.359	25.445	1520.043	1244.136
196.373	25.567	1519.017	1244.030
197.388	25.553	1518.280	1243.221
198.402	25.484	1517.222	1241.767
199.417	25.418	1516.551	1240.652
200.432	25.442	1515.921	1240.194
201.446	25.328	1515.747	1239.152
202.461	25.414	1514.320	1238.470
203.475	25.444	1513.092	1237.565
204.490	25.512	1512.161	1237.159
205.504	25.471	1511.596	1236.310
206.519	25.568	1510.234	1235.752
207.534	25.526	1509.685	1234.907
208.548	25.580	1508.747	1234.397
209.563	25.484	1508.487	1233.421
210.577	25.525	1507.301	1232.619
211.592	25.489	1506.742	1231.803
212.607	25.658	1505.462	1231.810
213.621	25.644	1504.588	1230.889
214.636	25.617	1504.182	1230.265
215.650	25.685	1503.253	1229.857
216.665	25.627	1502.713	1228.909
217.680	25.565	1501.986	1227.787
218.694	25.617	1500.941	1227.177
219.709	25.603	1500.474	1226.595
220.723	25.562	1499.447	1225.362
221.738	25.575	1498.593	1224.646
222.753	25.612	1497.683	1224.046
223.767	25.524	1496.804	1222.620
224.782	25.542	1495.692	1221.724
225.796	25.486	1495.377	1220.984
226.811	25.710	1494.326	1221.535
227.826	25.635	1493.524	1220.259
228.840	25.693	1492.981	1220.101
229.855	25.757	1491.578	1219.283
230.869	25.606	1491.314	1217.937
231.884	25.709	1489.982	1217.439
232.899	25.712	1489.047	1216.590
233.913	25.687	1488.240	1215.649
234.928	25.615	1487.227	1214.227
235.942	25.708	1486.203	1213.912
236.957	25.666	1485.617	1213.045
237.972	25.686	1484.228	1211.935
238.986	25.758	1482.752	1211.107
240.001	25.702	1482.471	1210.396
241.015	25.769	1481.222	1209.721
242.030	25.814	1480.194	1209.077
243.045	25.808	1479.443	1208.315
244.059	25.912	1478.131	1207.832
245.074	25.852	1477.704	1206.974
246.088	25.895	1476.748	1206.379
247.103	26.015	1475.818	1206.311
248.117	25.889	1475.484	1205.089
249.132	25.911	1474.404	1204.247
250.147	25.920	1473.981	1203.859
251.161	25.897	1473.694	1203.358
252.176	26.028	1472.618	1203.252
253.190	25.997	1471.654	1202.149
254.205	25.964	1471.009	1201.293
255.220	26.001	1469.935	1200.559
256.234	25.997	1469.536	1200.100
257.249	25.939	1468.568	1198.815
258.263	25.972	1467.829	1198.329
259.278	25.912	1467.185	1197.296
260.293	25.994	1466.004	1196.775
261.307	26.074	1465.293	1196.614
262.322	25.953	1465.191	1195.625
263.336	26.030	1464.214	1195.232
264.351	26.140	1463.145	1194.982
265.366	26.078	1461.885	1193.435
266.380	26.049	1461.279	1192.643
267.395	25.948	1460.371	1191.128
268.409	26.040	1459.666	1191.060
269.424	26.028	1458.643	1190.038
270.439	26.091	1457.803	1189.660
271.453	26.018	1457.163	1188.552
272.468	26.012	1456.200	1187.626
273.482	26.167	1455.317	1187.816
274.497	26.055	1454.529	1186.336
275.512	26.033	1453.925	1185.589
276.526	26.085	1453.227	1185.260
277.541	26.161	1452.282	1184.882
278.555	26.196	1451.394	1184.285
279.570	26.217	1450.517	1183.603
280.585	26.163	1449.897	1182.633
281.599	26.128	1449.284	1181.801
282.614	26.155	1448.347	1181.113
283.628	26.126	1447.134	1179.824
284.643	26.107	1446.252	1178.879
285.657	26.179	1445.363	1178.519
286.672	26.050	1444.567	1176.928
287.687	26.127	1443.679	1176.598
288.701	26.102	1443.194	1175.938
289.716	26.137	1442.219	1175.267
290.730	26.242	1441.677	1175.401
291.745	26.302	1440.410	1174.659
292.760	26.217	1439.809	1173.511
293.774	26.353	1438.492	1173.219
294.789	26.283	1438.007	1172.261
295.803	26.231	1437.422	1171.342
296.818	26.381	1436.138	1171.166
297.833	26.205	1435.622	1169.502
298.847	26.264	1435.047	1169.315
299.862	26.354	1433.802	1168.776
300.876	26.316	1433.392	1168.091
301.891	26.285	1432.101	1166.740
302.906	26.303	1431.740	1166.454
303.920	26.343	1430.963	1165.978
304.935	26.378	1430.128	1165.419
305.949	26.313	1429.840	1164.666
306.964	26.348	1428.908	1164.028
307.979	26.381	1427.963	1163.366
308.993	26.345	1427.260	1162.461
310.008	26.513	1426.239	1162.605
311.022	26.439	1425.323	1161.282
312.037	26.421	1423.968	1159.960
313.052	26.450	1423.027	1159.274
314.066	26.469	1422.531	1158.887
315.081	26.419	1421.778	1157.855
316.095	26.429	1420.693	1156.931
317.110	26.434	1419.638	1156.003
318.125	26.432	1418.783	1155.192
319.139	26.403	1418.531	1154.699
320.154	26.512	1417.378	1154.353
321.168	26.495	1416.393	1153.340
322.183	26.493	1415.121	1152.191
323.197	26.533	1414.491	1151.831
324.212	26.521	1413.762	1151.056
325.227	26.416	1413.333	1149.938
326.241	26.568	1412.150	1149.841
327.256	26.591	1411.618	1149.449
328.270	26.629	1410.429	1148.621
329.285	26.626	1409.745	1147.942
330.300	26.647	1408.823	1147.222
331.314	26.657	1408.020	1146.532
332.329	26.578	1407.492	1145.500
333.343	26.570	1406.911	1144.874
334.358	26.649	1406.228	1144.720
335.373	26.635	1405.696	1144.095
336.387	26.727	1404.938	1143.956
337.402	26.733	1404.477	1143.516
338.416	26.772	1403.392	1142.778
339.431	26.854	1402.749	1142.670
340.446	26.777	1402.330	1141.743
341.460	26.714	1401.717	1140.750
342.475	26.720	1400.678	1139.843
343.489	26.719	1399.970	1139.156
344.504	26.842	1398.620	1138.730
345.519	26.745	1397.742	1137.307
346.533	26.766	1396.720	1136.507
347.548	26.785	1395.788	1135.767
348.562	26.845	1395.101	1135.484
349.577	26.815	1394.557	1134.750
350.592	26.864	1393.564	1134.149
351.606	26.885	1393.001	1133.721
352.621	26.871	1391.778	1132.539
353.635	26.739	1391.207	1131.150
354.650	26.883	1390.070	1131.024
355.665	26.902	1389.310	1130.420
356.679	26.929	1388.255	1129.634
357.694	26.837	1387.522	1128.360
358.708	26.934	1386.363	1127.921
359.723	26.975	1385.360	1127.265
360.738	26.857	1383.690	1125.074
361.752	26.863	1382.987	1124.438
362.767	26.924	1381.786	1123.742
363.781	26.955	1380.977	1123.174
364.796	27.030	1380.924	1123.497
365.810	26.936	1379.837	1121.929
366.825	27.059	1379.042	1121.947
367.840	27.044	1377.912	1120.836
368.854	27.113	1377.051	1120.461
369.869	27.087	1377.214	1120.333
370.883	27.133	1376.372	1119.836
371.898	27.153	1375.691	1119.301
372.913	27.094	1375.396	1118.599
373.927	27.096	1374.104	1117.464
374.942	27.116	1373.398	1116.911
375.956	27.056	1372.959	1116.089
376.971	27.138	1372.029	1115.738
377.986	27.052	1371.167	1114.408
379.000	27.114	1370.409	1114.077
380.015	27.218	1369.593	1113.949
381.029	27.107	1369.336	1112.962
382.044	27.221	1368.292	1112.713
383.059	27.256	1367.551	1112.225
384.073	27.134	1367.437	1111.288
385.088	27.212	1366.735	1111.100
386.102	27.312	1365.746	1110.806
387.117	27.204	1365.236	1109.634
388.132	27.317	1364.189	1109.374
389.146	27.181	1363.521	1107.904
390.161	27.241	1363.035	1107.772
391.175	27.366	1362.327	1107.861
392.190	27.399	1362.063	1107.748
393.205	27.261	1361.204	1106.115
394.219	27.330	1360.282	1105.690
395.234	27.352	1358.931	1104.624
396.248	27.429	1357.882	1104.144
397.263	27.343	1356.963	1102.778
398.278	27.379	1355.692	1101.864
399.292	27.445	1354.722	1101.379
400.307	27.514	1353.922	1101.044
401.321	27.424	1353.131	1099.759
402.336	27.537	1352.142	1099.545
403.350	27.446	1351.280	1098.195
404.365	27.432	1350.625	1097.479
405.380	27.381	1349.808	1096.416
406.394	27.486	1349.027	1096.314
407.409	27.416	1348.357	1095.250
408.423	27.522	1347.763	1095.307
409.438	27.550	1346.654	1094.479
410.453	27.624	1345.804	1094.137
411.467	27.604	1344.972	1093.243
412.482	27.522	1345.075	1092.738
413.496	27.441	1344.372	1091.587
414.511	27.564	1343.352	1091.395
415.526	27.671	1342.935	1091.599
416.540	27.615	1341.900	1090.330
417.555	27.584	1341.019	1089.331
418.569	27.680	1340.444	1089.342
419.584	27.567	1340.538	1088.643
420.599	27.636	1339.980	1088.506
421.613	73.508	1316.646	1330.368
422.628	74.179	1313.252	1330.496
