DTS Sentinel unit serial number:	SN413079Multiplexer serial number:	ORYXHardware model number:	OX4-SRSoftware version number:	ORYX F/W v4.00 Oryx Data Collector v3.7.2.0data status	okinstallation	princeton_trtdifferential loss correction	single-endedforward channel	channel 4reverse channel	N/Adate	2019/09/11time	21:31:11forward acquisition time	60.00reverse acquisition time	0.00gamma	496.2192k internal	0.2305k external	0.2305temperature offset calibration	1.0063default loss term (dB/km)	0.3790temperature slope calibration	1.0000multiplexer offset coefficient	1.0000multiplexer slope coefficient	1.0000fibre end	0.00T internal ref (°C)	36.00T ext. ref 1 (°C)	1.57T ext. ref 2 (°C)	29.79length (m)	temperature (°C)	Stokes	anti-Stokes-747.200	479.026	0.054	0.124
-746.185	6.608	-0.068	0.051
-745.171	-158.681	-0.277	-0.016
-744.156	220.030	-0.254	0.415
-743.142	800.000	-0.142	0.448
-742.127	-147.795	-0.379	-0.032
-741.112	-200.000	0.073	-0.355
-740.098	58.116	-0.142	0.142
-739.083	-64.460	0.364	-0.150
-738.069	219.209	-0.050	-0.082
-737.054	-136.736	-0.345	0.040
-736.039	-118.696	0.167	-0.030
-735.025	-200.000	-0.087	0.495
-734.010	-200.000	0.012	0.206
-732.996	-78.740	-0.230	0.080
-731.981	-76.580	-0.054	-0.019
-730.966	38.908	0.111	-0.101
-729.952	24.918	-0.164	-0.139
-728.937	-138.934	-0.076	-0.008
-727.923	-174.830	0.141	0.004
-726.908	-190.344	0.196	0.002
-725.894	114.161	-0.073	-0.090
-724.879	-34.744	-0.199	-0.111
-723.864	-123.529	0.291	0.047
-722.850	-21.412	0.258	-0.160
-721.835	-8.401	-0.120	-0.082
-720.821	314.470	-0.122	0.234
-719.806	-122.676	0.075	0.012
-718.791	182.822	-0.018	0.026
-717.777	-7.905	-0.318	-0.218
-716.762	-200.000	-0.004	0.067
-715.748	800.000	-0.128	-0.442
-714.733	-200.000	-0.031	-0.316
-713.718	-0.044	0.093	-0.067
-712.704	29.299	-0.079	0.068
-711.689	-33.318	-0.575	0.323
-710.675	-200.000	-0.039	-0.326
-709.660	800.000	0.103	-0.427
-708.645	800.000	0.028	-0.094
-707.631	34.963	-0.071	-0.063
-706.616	-86.886	0.217	0.067
-705.602	-38.805	-0.292	-0.156
-704.587	612.250	0.017	0.043
-703.572	119.931	0.190	-0.240
-702.558	-108.427	0.368	0.081
-701.543	-0.649	-0.213	0.153
-700.529	390.542	-0.055	0.115
-699.514	800.000	-0.080	0.244
-698.499	-72.878	-0.185	0.069
-697.485	-62.957	0.096	0.041
-696.470	494.736	-0.057	0.132
-695.456	11.233	-0.297	-0.231
-694.441	-102.331	0.402	-0.098
-693.426	743.502	-0.093	-0.255
-692.412	300.616	-0.093	-0.173
-691.397	-200.000	-0.015	0.153
-690.383	-173.654	0.125	0.004
-689.368	800.000	0.072	-0.241
-688.354	-51.065	-0.241	-0.115
-687.339	-48.377	-0.094	0.046
-686.324	-82.567	-0.101	0.033
-685.310	35.818	-0.198	0.177
-684.295	213.708	0.075	0.120
-683.281	270.193	-0.261	-0.466
-682.266	-105.413	-0.228	0.053
-681.251	-8.002	0.090	-0.061
-680.237	800.000	-0.035	0.107
-679.222	800.000	-0.080	0.283
-678.208	-200.000	-0.019	0.207
-677.193	-68.379	-0.292	0.115
-676.178	-200.000	-0.012	0.310
-675.164	-200.000	0.044	-0.236
-674.149	-38.101	-0.121	0.065
-673.135	-200.000	0.008	0.041
-672.120	-76.017	-0.108	-0.039
-671.105	-59.705	0.200	-0.087
-670.091	-12.923	-0.046	0.030
-669.076	-200.000	-0.012	-0.251
-668.062	-155.846	-0.060	-0.004
-667.047	678.036	-0.160	0.422
-666.032	77.543	0.127	-0.137
-665.018	-200.000	-0.015	0.158
-664.003	67.184	-0.292	-0.302
-662.989	-40.803	0.225	0.118
-661.974	-101.820	0.171	0.042
-660.959	-200.000	0.023	-0.159
-659.945	-29.758	0.104	0.060
-658.930	-123.634	-0.201	-0.032
-657.916	192.143	0.282	-0.432
-656.901	25.427	-0.258	-0.218
-655.886	172.767	0.104	0.151
-654.872	-11.859	-0.225	-0.150
-653.857	-97.053	-0.114	0.030
-652.843	57.485	0.208	-0.206
-651.828	-54.513	0.080	0.037
-650.814	-141.186	0.205	-0.021
-649.799	59.736	0.158	-0.158
-648.784	-200.000	-0.003	-0.312
-647.770	111.611	0.095	-0.117
-646.755	-53.833	0.182	-0.084
-645.741	800.000	0.016	0.055
-644.726	800.000	-0.071	-0.248
-643.711	-42.207	0.176	-0.091
-642.697	800.000	0.076	0.266
-641.682	800.000	-0.036	-0.101
-640.668	-200.000	-0.005	-0.163
-639.653	7.070	-0.169	-0.128
-638.638	800.000	0.063	-0.186
-637.624	-73.927	0.451	-0.166
-636.609	553.479	-0.021	-0.051
-635.595	-77.708	-0.168	0.059
-634.580	602.946	0.087	-0.218
-633.565	800.000	-0.056	-0.226
-632.551	-81.317	-0.443	0.148
-631.536	267.426	-0.109	0.194
-630.522	214.740	-0.045	0.072
-629.507	381.014	-0.040	-0.083
-628.492	800.000	0.039	-0.157
-627.478	-69.751	-0.177	0.069
-626.463	-200.000	0.032	0.221
-625.449	-200.000	0.014	-0.061
-624.434	-200.000	0.057	0.289
-623.419	-200.000	-0.011	-0.089
-622.405	757.841	-0.138	-0.378
-621.390	-120.758	-0.263	-0.045
-620.376	-164.608	0.259	0.012
-619.361	113.403	0.014	0.018
-618.346	-64.470	0.097	0.040
-617.332	-200.000	-0.000	0.065
-616.317	800.000	0.173	-0.541
-615.303	162.601	0.146	-0.208
-614.288	-95.848	-0.492	-0.133
-613.273	184.447	-0.125	0.188
-612.259	-200.000	0.029	0.133
-611.244	97.433	0.135	-0.156
-610.230	-33.581	0.219	-0.123
-609.215	-200.000	0.013	-0.066
-608.201	97.931	-0.019	-0.022
-607.186	44.548	0.193	0.180
-606.171	-200.000	0.020	0.296
-605.157	248.904	-0.124	-0.212
-604.142	-200.000	0.053	-0.298
-603.128	-123.733	-0.103	0.017
-602.113	73.719	0.186	-0.197
-601.098	800.000	0.023	0.079
-600.084	-200.000	-0.011	0.231
-599.069	-200.000	-0.029	0.176
-598.055	-32.351	-0.187	-0.105
-597.040	42.519	-0.086	-0.079
-596.025	-200.000	0.040	0.216
-595.011	347.009	-0.101	-0.201
-593.996	175.052	0.104	-0.153
-592.982	-140.519	0.044	-0.005
-591.967	195.832	0.243	-0.374
-590.952	-200.000	-0.004	-0.332
-589.938	81.682	-0.095	0.105
-588.923	-77.150	-0.368	-0.130
-587.909	112.380	-0.126	-0.154
-586.894	-200.000	0.045	-0.312
-585.879	-98.926	0.179	-0.046
-584.865	-108.609	-0.159	0.034
-583.850	-3.269	0.326	-0.230
-582.836	800.000	0.093	0.316
-581.821	449.662	0.169	0.377
-580.806	88.437	-0.214	0.241
-579.792	49.936	-0.185	-0.176
-578.777	249.366	0.094	0.161
-577.763	34.407	0.326	-0.288
-576.748	250.982	-0.053	0.091
-575.733	-64.664	-0.101	-0.041
-574.719	-122.522	-0.060	-0.010
-573.704	-27.996	-0.057	-0.033
-572.690	-75.262	-0.218	0.079
-571.675	135.535	0.160	0.210
-570.661	-99.039	0.187	0.048
-569.646	-200.000	-0.024	-0.444
-568.631	800.000	-0.059	-0.192
-567.617	-39.768	-0.331	0.175
-566.602	-88.387	0.188	-0.057
-565.588	-117.035	-0.226	0.042
-564.573	-98.478	0.093	0.024
-563.558	-152.715	0.111	-0.008
-562.544	800.000	0.049	0.185
-561.529	-3.063	-0.243	0.172
-560.515	-200.000	-0.005	-0.060
-559.500	67.795	-0.009	0.010
-558.485	-26.971	-0.337	0.199
-557.471	21.343	-0.223	0.183
-556.456	-200.000	-0.035	-0.256
-555.442	531.609	0.130	0.311
-554.427	250.558	0.148	0.254
-553.412	-200.000	-0.003	0.277
-552.398	86.726	0.094	-0.105
-551.383	800.000	-0.123	-0.378
-550.369	-34.972	0.154	-0.085
-549.354	-200.000	0.021	-0.193
-548.339	63.134	0.365	0.369
-547.325	-144.122	-0.306	0.029
-546.310	-69.813	-0.232	0.090
-545.296	159.234	0.049	0.068
-544.281	-35.155	-0.098	0.054
-543.266	800.000	-0.050	-0.169
-542.252	-200.000	-0.012	-0.089
-541.237	-200.000	-0.019	0.117
-540.223	-200.000	0.045	0.300
-539.208	-104.684	0.180	0.042
-538.193	-135.827	0.174	0.021
-537.179	672.352	-0.042	-0.109
-536.164	-16.636	-0.195	0.125
-535.150	215.370	-0.060	0.096
-534.135	-200.000	0.007	-0.034
-533.121	-200.000	-0.024	0.549
-532.106	34.626	-0.040	-0.036
-531.091	-48.952	-0.247	-0.119
-530.077	-168.293	0.425	0.017
-529.062	532.398	-0.095	-0.228
-528.048	-17.761	-0.128	-0.081
-527.033	-200.000	0.062	0.314
-526.018	800.000	0.061	-0.193
-525.004	-65.937	0.092	-0.037
-523.989	625.964	0.101	0.257
-522.975	800.000	0.139	0.449
-521.960	-39.534	0.245	-0.129
-520.945	23.873	-0.212	0.176
-519.931	-64.743	0.134	-0.055
-518.916	-200.000	0.037	-0.436
-517.902	88.411	-0.182	-0.204
-516.887	800.000	0.068	-0.203
-515.872	-146.939	-0.026	-0.002
-514.858	-200.000	-0.038	0.354
-513.843	182.068	-0.145	-0.215
-512.829	218.846	0.064	-0.103
-511.814	-71.796	0.146	0.055
-510.799	-1.715	0.035	0.025
-509.785	-200.000	0.005	-0.132
-508.770	-76.380	0.147	0.052
-507.756	134.222	0.027	-0.035
-506.741	-200.000	0.068	-0.342
-505.726	-122.681	0.216	0.035
-504.712	-200.000	-0.002	-0.110
-503.697	-200.000	-0.015	-0.151
-502.683	800.000	0.089	0.254
-501.668	800.000	0.049	0.181
-500.653	93.501	0.379	0.433
-499.639	43.977	0.103	0.095
-498.624	800.000	-0.115	-0.442
-497.610	465.575	-0.128	-0.289
-496.595	-63.961	-0.247	-0.102
-495.581	6.123	0.114	0.085
-494.566	-52.204	0.114	0.053
-493.551	163.943	-0.244	0.347
-492.537	-165.680	-0.084	-0.004
-491.522	-176.257	0.032	0.001
-490.508	223.472	0.017	0.027
-489.493	2.100	-0.095	-0.069
-488.478	86.119	0.086	0.096
-487.464	-170.958	-0.213	-0.007
-486.449	-200.000	-0.066	0.511
-485.435	-44.122	0.181	-0.092
-484.420	-31.414	-0.063	-0.036
-483.405	-99.823	0.149	0.037
-482.391	-96.694	0.077	0.020
-481.376	-112.951	0.001	0.000
-480.362	282.186	0.082	-0.147
-479.347	-20.130	0.229	0.142
-478.332	-200.000	-0.024	0.153
-477.318	-59.293	-0.339	-0.147
-476.303	-21.474	-0.067	-0.041
-475.289	800.000	0.056	0.215
-474.274	73.550	0.160	-0.169
-473.259	-200.000	0.064	0.297
-472.245	-90.469	0.160	-0.047
-471.230	800.000	0.030	-0.088
-470.216	580.976	-0.036	0.089
-469.201	-31.093	-0.083	-0.047
-468.186	-9.968	0.391	0.262
-467.172	-75.625	0.114	-0.041
-466.157	377.812	0.179	-0.368
-465.143	-59.246	-0.215	-0.093
-464.128	212.013	-0.052	-0.083
-463.113	-26.282	0.181	-0.107
-462.099	-200.000	0.002	-0.236
-461.084	-160.428	0.161	0.009
-460.070	-131.887	0.262	-0.034
-459.055	-183.165	0.403	-0.007
-458.040	800.000	0.050	-0.165
-457.026	-200.000	0.038	0.191
-456.011	-33.059	-0.283	0.158
-454.997	-200.000	0.010	0.113
-453.982	154.675	-0.340	0.471
-452.968	-192.994	0.054	-0.000
-451.953	-157.541	-0.343	-0.021
-450.938	-112.068	-0.474	0.096
-449.924	-200.000	-0.073	-0.372
-448.909	-25.507	0.106	-0.063
-447.895	227.671	-0.071	-0.116
-446.880	263.469	0.026	0.045
-445.865	800.000	-0.031	-0.132
-444.851	56.329	0.263	0.257
-443.836	-143.020	-0.232	0.023
-442.822	-78.602	0.123	-0.042
-441.807	122.390	0.177	-0.223
-440.792	31.295	0.212	0.183
-439.778	28.782	0.114	-0.097
-438.763	-200.000	-0.042	0.304
-437.749	61.991	-0.187	0.188
-436.734	-39.767	-0.087	0.046
-435.719	-130.030	-0.376	0.052
-434.705	800.000	-0.042	-0.157
-433.690	328.943	0.100	-0.194
-432.676	131.621	-0.115	-0.148
-431.661	276.409	-0.093	-0.167
-430.646	716.513	-0.119	-0.317
-429.632	-200.000	0.028	-0.277
-428.617	-200.000	-0.023	-0.317
-427.603	469.995	0.076	0.172
-426.588	484.989	-0.040	-0.092
-425.573	-111.417	0.287	0.059
-424.559	-0.123	-0.132	0.095
-423.544	7.899	-0.303	-0.228
-422.530	60.667	0.230	-0.229
-421.515	-81.835	0.163	0.054
-420.500	38.973	0.284	0.255
-419.486	800.000	0.023	-0.092
-418.471	-200.000	0.009	-0.150
-417.457	-15.427	-0.113	0.073
-416.442	-99.787	0.134	-0.034
-415.428	-161.705	0.187	-0.010
-414.413	-118.366	0.119	0.021
-413.398	-115.741	-0.075	-0.014
-412.384	-105.463	0.430	0.098
-411.369	479.959	-0.021	-0.048
-410.355	-200.000	-0.001	0.139
-409.340	711.011	-0.072	0.192
-408.325	-200.000	0.048	0.289
-407.311	-122.095	-0.209	-0.034
-406.296	-163.428	0.089	0.004
-405.282	260.104	-0.146	0.253
-404.267	-156.494	-0.215	0.013
-403.252	800.000	0.027	-0.112
-402.238	102.296	-0.177	-0.207
-401.223	146.276	0.157	-0.211
-400.209	-200.000	-0.023	0.158
-399.194	-59.005	0.164	0.071
-398.179	250.110	-0.088	-0.149
-397.165	-200.000	0.023	-0.101
-396.150	523.297	-0.052	0.122
-395.136	-84.779	0.221	0.070
-394.121	-13.715	0.247	-0.161
-393.106	-160.128	0.176	-0.010
-392.092	-124.175	-0.192	-0.030
-391.077	-200.000	-0.003	0.139
-390.063	-200.000	-0.056	0.247
-389.048	653.095	-0.197	-0.507
-388.033	-200.000	0.032	0.162
-387.019	-144.921	-0.072	-0.007
-386.004	41.379	0.277	0.251
-384.990	-200.000	-0.003	-0.028
-383.975	22.672	0.172	0.141
-382.960	20.870	-0.186	0.151
-381.946	-17.310	-0.202	-0.127
-380.931	43.183	-0.051	0.047
-379.917	44.322	-0.279	0.257
-378.902	800.000	-0.024	-0.071
-377.888	230.916	0.077	0.127
-376.873	-18.178	-0.088	-0.055
-375.858	-46.182	-0.153	-0.075
-374.844	172.443	0.067	-0.096
-373.829	-200.000	-0.031	-0.243
-372.815	101.013	-0.076	-0.089
-371.800	240.234	0.223	-0.372
-370.785	26.247	-0.066	-0.056
-369.771	312.495	0.067	0.126
-368.756	-88.812	0.309	0.092
-367.742	800.000	0.081	0.282
-366.727	800.000	-0.030	0.115
-365.712	217.750	-0.120	-0.192
-364.698	800.000	-0.027	-0.087
-363.683	-7.078	0.326	-0.222
-362.669	-131.728	-0.254	-0.033
-361.654	-162.679	0.221	-0.011
-360.639	-32.586	0.180	0.101
-359.625	17.371	-0.176	0.140
-358.610	-107.587	0.205	-0.045
-357.596	800.000	-0.023	0.068
-356.581	-31.702	-0.197	0.111
-355.566	-18.541	-0.174	-0.109
-354.552	97.979	-0.042	-0.048
-353.537	-185.442	-0.191	0.003
-352.523	-12.438	0.344	0.226
-351.508	19.670	-0.008	-0.006
-350.493	77.764	-0.050	0.054
-349.479	-200.000	0.023	-0.265
-348.464	63.859	0.094	0.095
-347.450	-183.175	-0.262	-0.005
-346.435	-127.514	-0.305	-0.044
-345.420	39.659	0.107	0.096
-344.406	53.924	-0.120	0.115
-343.391	-170.919	0.124	0.004
-342.377	50.832	0.109	0.103
-341.362	-109.584	0.205	0.043
-340.348	800.000	-0.063	0.179
-339.333	87.339	0.166	-0.183
-338.318	-65.942	-0.230	-0.092
-337.304	37.191	-0.242	-0.214
-336.289	31.948	-0.147	0.127
-335.275	-109.576	-0.050	-0.011
-334.260	129.636	0.126	0.161
-333.245	383.441	0.120	0.248
-332.231	366.654	0.158	0.319
-331.216	-134.517	-0.276	0.034
-330.202	-62.628	-0.220	0.091
-329.187	352.317	0.182	-0.361
-328.172	43.490	-0.070	0.064
-327.158	406.811	-0.065	-0.138
-326.143	-45.926	-0.083	0.041
-325.129	-77.306	-0.342	-0.119
-324.114	482.404	-0.126	0.287
-323.099	23.426	-0.096	-0.079
-322.085	381.193	0.128	-0.262
-321.070	-0.087	-0.275	0.196
-320.056	800.000	-0.024	0.087
-319.041	-200.000	-0.003	-0.150
-318.026	24.096	-0.043	0.035
-317.012	49.852	-0.084	0.079
-315.997	111.075	0.380	-0.458
-314.983	172.876	-0.197	-0.284
-313.968	-98.298	0.265	-0.068
-312.953	-39.350	-0.210	0.110
-311.939	800.000	-0.038	0.116
-310.924	581.171	-0.031	0.076
-309.910	117.891	-0.259	0.319
-308.895	-124.954	0.351	-0.054
-307.880	-59.789	0.139	-0.060
-306.866	-40.478	-0.406	-0.211
-305.851	800.000	0.043	0.140
-304.837	-11.506	0.114	-0.075
-303.822	-71.400	-0.580	-0.217
-302.807	101.518	0.200	0.233
-301.793	-200.000	0.001	-0.157
-300.778	-31.769	0.035	0.020
-299.764	-150.226	0.079	0.006
-298.749	-163.414	-0.338	0.016
-297.735	-145.816	0.212	0.019
-296.720	-72.621	-0.217	0.080
-295.705	800.000	-0.099	-0.296
-294.691	-136.388	-0.212	0.025
-293.676	-178.467	0.100	-0.002
-292.662	32.841	-0.209	-0.181
-291.647	-94.108	0.353	-0.097
-290.632	800.000	0.119	-0.350
-289.618	-58.531	0.117	-0.051
-288.603	-124.152	-0.153	-0.024
-287.589	59.202	0.217	-0.213
-286.574	800.000	-0.074	-0.269
-285.559	363.221	-0.138	0.278
-284.545	-135.076	-0.186	-0.022
-283.530	-50.076	0.143	0.068
-282.516	-37.834	0.117	0.062
-281.501	196.575	-0.058	0.089
-280.486	-135.461	0.169	0.020
-279.472	-101.230	-0.332	-0.081
-278.457	48.082	-0.275	0.257
-277.443	334.985	0.068	0.132
-276.428	-200.000	-0.007	0.115
-275.413	800.000	-0.012	-0.052
-274.399	121.470	-0.115	0.143
-273.384	614.642	-0.029	0.073
-272.370	104.445	-0.048	-0.056
-271.355	-175.043	0.249	-0.007
-270.340	31.749	-0.137	-0.117
-269.326	-200.000	-0.023	-0.104
-268.311	151.995	0.185	-0.252
-267.297	-200.000	-0.024	-0.129
-266.282	5.192	0.255	0.188
-265.267	-200.000	-0.022	0.233
-264.253	44.036	0.247	0.226
-263.238	239.373	-0.162	0.270
-262.224	-13.183	0.039	0.025
-261.209	-92.297	-0.268	0.075
-260.195	83.715	-0.166	-0.180
-259.180	-44.919	-0.174	-0.086
-258.165	-46.824	0.059	0.029
-257.151	1.182	0.034	-0.024
-256.136	145.332	0.162	0.216
-255.122	174.364	-0.095	0.137
-254.107	34.997	-0.165	0.144
-253.092	-44.188	0.334	0.167
-252.078	-200.000	-0.004	0.096
-251.063	-126.206	0.536	-0.080
-250.049	-37.013	-0.313	-0.167
-249.034	-200.000	0.042	0.353
-248.019	-200.000	-0.004	-0.330
-247.005	53.026	-0.131	-0.125
-245.990	10.919	-0.104	-0.079
-244.976	-200.000	0.039	0.615
-243.961	-36.433	-0.255	-0.137
-242.946	146.166	0.187	0.250
-241.932	800.000	0.052	0.202
-240.917	800.000	-0.053	0.149
-239.903	-139.278	0.314	0.034
-238.888	800.000	-0.037	0.119
-237.873	-200.000	-0.020	-0.160
-236.859	-200.000	0.007	-0.199
-235.844	-53.324	-0.305	0.139
-234.830	645.345	-0.132	0.336
-233.815	800.000	0.079	-0.265
-232.800	-14.290	-0.390	0.251
-231.786	-12.328	-0.026	0.017
-230.771	-124.139	0.227	0.035
-229.757	133.072	-0.121	0.156
-228.742	-137.481	0.212	0.024
-227.727	290.232	-0.143	-0.260
-226.713	-72.304	0.168	-0.062
-225.698	-69.538	0.259	0.099
-224.684	54.200	0.132	-0.127
-223.669	18.123	0.133	-0.106
-222.655	-158.133	-0.053	-0.003
-221.640	-90.337	0.396	0.115
-220.625	-166.884	0.183	-0.008
-219.611	-53.708	0.193	0.088
-218.596	-80.856	0.337	0.111
-217.582	130.756	0.273	0.350
-216.567	-115.054	0.087	-0.016
-215.552	193.042	-0.078	0.118
-214.538	-49.156	-0.393	-0.187
-213.523	-52.448	-0.200	0.092
-212.509	800.000	-0.034	0.094
-211.494	17.326	0.230	-0.182
-210.479	-63.216	0.126	-0.052
-209.465	-106.675	0.282	0.063
-208.450	-28.117	-0.177	0.102
-207.436	28.564	0.226	0.190
-206.421	-37.251	0.031	0.017
-205.406	-38.426	-0.188	0.099
-204.392	-157.781	-0.144	0.008
-203.377	-200.000	0.063	0.316
-202.363	800.000	-0.095	-0.317
-201.348	709.926	-0.038	0.101
-200.333	-200.000	0.012	-0.328
-199.319	50.369	-0.164	0.155
-198.304	-43.820	-0.261	0.131
-197.290	26.141	0.161	-0.134
-196.275	1.935	-0.162	0.116
-195.260	12.111	0.088	0.068
-194.246	-200.000	0.022	-0.171
-193.231	157.101	-0.100	-0.138
-192.217	77.792	0.094	-0.100
-191.202	-38.047	-0.181	-0.096
-190.187	-200.000	0.018	0.147
-189.173	-47.123	0.027	0.013
-188.158	29.391	-0.216	-0.182
-187.144	-48.662	0.179	0.086
-186.129	-123.610	-0.180	-0.028
-185.114	-200.000	0.017	0.107
-184.100	79.027	0.096	-0.103
-183.085	800.000	0.069	-0.240
-182.071	-200.000	0.029	0.387
-181.056	747.998	-0.049	0.133
-180.042	-16.309	-0.173	0.109
-179.027	-200.000	0.039	0.302
-178.012	800.000	-0.026	0.097
-176.998	-13.613	0.204	0.131
-175.983	-200.000	-0.013	0.083
-174.969	281.493	0.032	0.056
-173.954	-96.285	-0.429	-0.113
-172.939	200.099	-0.231	-0.354
-171.925	333.401	0.059	0.114
-170.910	-154.503	-0.181	-0.012
-169.896	-40.572	0.099	0.051
-168.881	412.099	0.058	0.123
-167.866	-14.653	0.186	-0.119
-166.852	-42.856	0.079	0.040
-165.837	577.955	0.043	-0.104
-164.823	308.240	-0.037	-0.068
-163.808	800.000	0.120	-0.371
-162.793	-181.353	-0.350	-0.007
-161.779	-25.139	0.325	-0.192
-160.764	512.113	-0.160	0.371
-159.750	-170.563	0.410	-0.014
-158.735	-200.000	0.027	0.195
-157.720	-200.000	0.029	0.169
-156.706	800.000	0.045	-0.169
-155.691	24.918	-0.144	0.118
-154.677	-200.000	0.028	-0.244
-153.662	8.313	-0.320	-0.239
-152.647	-200.000	-0.032	-0.152
-151.633	443.907	0.069	0.150
-150.618	-200.000	0.004	0.311
-149.604	75.379	0.252	0.264
-148.589	-10.223	-0.087	0.057
-147.574	292.198	0.092	-0.167
-146.560	-26.515	0.087	-0.051
-145.545	169.832	0.013	-0.018
-144.531	800.000	0.129	-0.455
-143.516	-200.000	0.028	0.217
-142.502	-132.951	0.445	-0.056
-141.487	-146.781	-0.159	0.014
-140.472	303.181	-0.049	0.090
-139.458	644.213	-0.061	-0.154
-138.443	183.745	-0.158	0.232
-137.429	308.968	-0.067	0.125
-136.414	770.018	0.099	0.269
-135.399	177.195	0.119	0.173
-134.385	-49.676	-0.263	0.124
-133.370	148.238	0.125	0.168
-132.356	18.384	0.159	0.127
-131.341	-127.474	0.308	-0.044
-130.326	-101.011	0.235	0.057
-129.312	-36.242	-0.268	-0.144
-128.297	-9.111	-0.151	-0.100
-127.283	-200.000	0.014	0.076
-126.268	99.976	-0.086	-0.099
-125.253	35.751	-0.350	-0.306
-124.239	800.000	-0.085	-0.274
-123.224	-50.565	-0.119	-0.056
-122.210	-123.370	-0.186	-0.029
-121.195	-169.717	-0.414	0.015
-120.180	119.490	0.143	0.175
-119.166	-81.923	-0.112	-0.036
-118.151	-49.030	-0.244	0.116
-117.137	-200.000	-0.006	0.036
-116.122	-66.438	0.209	0.082
-115.107	-13.772	0.056	-0.036
-114.093	187.329	-0.148	-0.219
-113.078	299.009	-0.162	0.296
-112.064	-200.000	0.030	-0.165
-111.049	-32.223	0.039	0.022
-110.034	-47.711	0.121	0.058
-109.020	-70.138	-0.181	0.068
-108.005	109.767	-0.157	0.187
-106.991	145.501	0.092	0.122
-105.976	-105.481	0.152	0.034
-104.962	132.678	0.061	-0.078
-103.947	-200.000	0.014	0.142
-102.932	216.041	0.116	0.183
-101.918	161.452	0.144	0.199
-100.903	191.614	-0.185	-0.277
-99.889	-97.679	-0.372	-0.096
-98.874	512.144	0.113	-0.262
-97.859	307.411	-0.166	-0.307
-96.845	-60.102	0.321	-0.136
-95.830	-81.410	-0.230	0.075
-94.816	-49.767	0.102	0.048
-93.801	-16.852	0.371	-0.232
-92.786	-91.558	0.084	-0.024
-91.772	-23.249	-0.091	-0.054
-90.757	42.706	-0.047	-0.042
-89.743	594.027	0.092	0.225
-88.728	-200.000	0.017	0.231
-87.713	-0.759	-0.393	-0.276
-86.699	-33.363	-0.365	-0.200
-85.684	354.693	0.093	-0.184
-84.670	-200.000	-0.008	-0.276
-83.655	-200.000	0.024	-0.273
-82.640	-200.000	0.012	-0.146
-81.626	9.393	0.140	-0.105
-80.611	800.000	0.026	-0.105
-79.597	-27.152	-0.213	0.123
-78.582	11.105	0.258	-0.195
-77.567	235.014	-0.013	0.021
-76.553	-92.683	0.141	-0.039
-75.538	67.063	-0.084	-0.085
-74.524	-168.636	-0.068	0.003
-73.509	47.197	-0.166	-0.153
-72.494	216.909	-0.068	-0.107
-71.480	-134.304	-0.146	-0.018
-70.465	-100.032	-0.123	-0.030
-69.451	-89.942	0.291	-0.084
-68.436	306.845	0.093	0.171
-67.422	-33.060	0.257	0.142
-66.407	-97.897	-0.263	0.067
-65.392	67.823	-0.160	0.162
-64.378	568.918	-0.066	0.158
-63.363	-124.192	0.489	0.076
-62.349	-13.005	-0.223	-0.143
-61.334	115.360	-0.829	-1.004
-60.319	179.463	0.458	0.664
-59.305	800.000	-0.307	-1.143
-58.290	216.191	0.664	1.046
-57.276	628.413	0.602	1.507
-56.261	-200.000	93.044	560.588
-55.246	546.859	1366.505	3238.740
-54.232	151.431	2582.833	3484.021
-53.217	107.627	2319.576	2735.181
-52.203	42.885	2069.229	1868.218
-51.188	37.867	1981.696	1744.357
-50.173	36.236	1962.736	1713.129
-49.159	50.771	2013.747	1888.742
-48.144	53.823	2033.137	1934.319
-47.130	38.491	1990.657	1757.572
-46.115	36.056	1978.636	1725.128
-45.100	35.990	1975.964	1722.137
-44.086	35.937	1973.660	1719.588
-43.071	35.871	1971.108	1716.707
-42.057	35.906	1968.789	1714.928
-41.042	35.962	1967.004	1713.804
-40.027	35.897	1965.375	1711.744
-39.013	35.946	1963.173	1710.188
-37.998	35.897	1961.678	1708.389
-36.984	35.957	1959.935	1707.327
-35.969	35.866	1958.569	1705.264
-34.954	35.941	1956.320	1703.908
-33.940	35.938	1954.697	1702.402
-32.925	35.982	1953.512	1701.684
-31.911	36.025	1951.789	1700.501
-30.896	36.013	1949.977	1698.750
-29.881	36.037	1948.449	1697.562
-28.867	36.116	1946.125	1696.163
-27.852	36.090	1945.089	1694.967
-26.838	36.150	1942.543	1693.206
-25.823	36.105	1941.669	1691.981
-24.809	36.025	1939.611	1689.417
-23.794	36.019	1938.189	1688.062
-22.779	36.034	1935.932	1686.162
-21.765	35.957	1934.446	1684.121
-20.750	36.016	1932.958	1683.275
-19.736	36.057	1931.283	1682.113
-18.721	36.056	1929.911	1680.839
-17.706	35.991	1928.619	1679.079
-16.692	36.017	1927.193	1677.996
-15.677	35.982	1925.283	1675.960
-14.663	35.990	1923.821	1674.698
-13.648	36.102	1922.127	1674.128
-12.633	36.054	1921.122	1672.770
-11.619	36.007	1919.777	1671.124
-10.604	35.965	1918.789	1669.834
-9.590	35.980	1917.084	1668.409
-8.575	35.969	1915.856	1667.179
-7.560	35.925	1914.624	1665.661
-6.546	36.026	1912.707	1664.801
-5.531	36.019	1911.425	1663.564
-4.517	36.000	1910.810	1662.798
-3.502	36.009	1909.748	1661.885
-2.487	35.996	1908.372	1660.509
-1.473	36.049	1907.254	1659.926
-0.458	36.054	1902.574	1655.828
0.556	35.701	1883.179	1628.217
1.571	31.465	1864.208	1576.060
2.586	27.341	1886.000	1559.094
3.600	26.149	1922.344	1578.586
4.615	25.640	1918.330	1570.707
5.629	19.616	1816.984	1437.616
6.644	8.295	1692.384	1250.673
7.659	2.179	1651.511	1173.490
8.673	1.675	1647.755	1166.852
9.688	1.580	1646.558	1165.177
10.702	1.550	1644.751	1163.560
11.717	1.475	1641.653	1160.694
12.731	1.841	1641.088	1162.990
13.746	8.972	1658.553	1230.108
14.761	19.724	1682.899	1331.302
15.775	24.998	1691.663	1378.825
16.790	25.779	1692.379	1385.295
17.804	25.916	1691.890	1385.827
18.819	25.897	1691.361	1385.128
19.834	26.029	1690.411	1385.238
20.848	26.301	1689.808	1386.714
21.863	26.289	1688.972	1385.812
22.877	26.350	1687.807	1385.195
23.892	26.276	1687.221	1384.026
24.907	26.321	1686.543	1383.691
25.921	26.302	1685.069	1382.219
26.936	26.282	1684.506	1381.480
27.950	26.360	1683.486	1381.119
28.965	26.326	1682.532	1379.951
29.980	26.382	1681.031	1379.026
30.994	26.283	1680.410	1377.636
32.009	26.370	1678.709	1376.783
33.023	26.329	1678.127	1375.874
34.038	26.326	1677.309	1375.059
35.053	26.315	1676.385	1374.094
36.067	26.440	1675.106	1373.875
37.082	26.316	1674.446	1372.276
38.096	26.365	1673.352	1371.624
39.111	26.343	1672.762	1370.855
40.126	26.329	1672.041	1370.036
41.140	26.338	1670.951	1369.086
42.155	26.356	1669.934	1368.273
43.169	26.322	1668.604	1366.802
44.184	26.308	1667.960	1366.046
45.199	26.283	1667.194	1365.109
46.213	26.334	1665.610	1364.080
47.228	26.316	1664.183	1362.657
48.242	26.327	1663.246	1361.848
49.257	26.299	1662.488	1360.897
50.271	26.323	1660.957	1359.705
51.286	26.240	1659.915	1358.104
52.301	26.240	1658.667	1356.964
53.315	26.360	1656.979	1356.366
54.330	26.361	1655.736	1355.231
55.344	26.235	1654.451	1353.120
56.359	26.304	1653.102	1352.414
57.374	26.345	1652.149	1351.822
58.388	26.333	1650.906	1350.592
59.403	26.279	1649.889	1349.238
60.417	26.315	1648.922	1348.599
61.432	26.322	1647.760	1347.580
62.447	26.311	1646.811	1346.607
63.461	26.278	1645.808	1345.418
64.476	26.367	1644.653	1345.014
65.490	26.328	1643.894	1343.983
66.505	26.350	1642.797	1343.137
67.520	26.343	1642.081	1342.382
68.534	26.397	1640.742	1341.568
69.549	26.359	1639.413	1340.080
70.563	26.331	1638.147	1338.721
71.578	26.279	1637.456	1337.650
72.593	26.333	1636.646	1337.270
73.607	26.456	1635.261	1336.927
74.622	26.347	1634.561	1335.435
75.636	26.331	1634.049	1334.776
76.651	26.351	1632.871	1333.846
77.666	26.386	1631.859	1333.160
78.680	26.442	1630.772	1332.566
79.695	26.326	1630.415	1331.304
80.709	26.349	1629.490	1330.593
81.724	26.315	1628.758	1329.633
82.739	26.422	1627.299	1329.108
83.753	26.297	1626.773	1327.645
84.768	26.422	1625.438	1327.352
85.782	26.376	1624.743	1326.329
86.797	26.309	1624.293	1325.354
87.812	26.351	1623.142	1324.609
88.826	26.367	1622.260	1323.890
89.841	26.334	1621.392	1322.817
90.855	26.327	1620.399	1321.840
91.870	26.394	1618.901	1320.992
92.884	26.329	1618.469	1320.045
93.899	26.439	1617.186	1319.687
94.914	26.433	1615.714	1318.327
95.928	26.378	1614.976	1317.203
96.943	26.366	1613.379	1315.698
97.957	26.406	1612.339	1315.025
98.972	26.350	1611.231	1313.603
99.987	26.376	1610.154	1312.793
101.001	26.453	1608.249	1311.686
102.016	26.407	1606.513	1309.817
103.030	26.361	1605.475	1308.521
104.045	26.380	1604.655	1307.873
105.060	26.307	1603.497	1306.289
106.074	26.349	1602.312	1305.512
107.089	26.390	1600.578	1304.279
108.103	26.342	1599.624	1303.042
109.118	26.481	1598.501	1303.013
110.133	26.437	1597.107	1301.439
111.147	26.406	1596.123	1300.306
112.162	26.454	1595.010	1299.627
113.176	26.381	1594.093	1298.237
114.191	26.422	1592.389	1297.028
115.206	26.406	1592.056	1296.532
116.220	26.402	1590.633	1295.229
117.235	26.490	1589.047	1294.450
118.249	26.383	1588.331	1292.991
119.264	26.383	1587.086	1291.860
120.279	26.459	1585.618	1291.092
121.293	26.424	1585.014	1290.239
122.308	26.510	1583.959	1289.876
123.322	26.399	1582.984	1288.183
124.337	26.448	1581.530	1287.228
125.352	26.527	1580.211	1286.603
126.366	26.458	1579.324	1285.279
127.381	26.536	1578.515	1285.063
128.395	26.530	1577.728	1284.262
129.410	26.563	1577.070	1283.852
130.424	26.476	1576.209	1282.417
131.439	26.581	1574.327	1281.513
132.454	26.512	1573.663	1280.377
133.468	26.414	1572.125	1278.319
134.483	26.468	1571.039	1277.702
135.497	26.556	1569.484	1276.945
136.512	26.484	1568.588	1275.599
137.527	26.515	1567.583	1274.887
138.541	26.550	1566.539	1274.168
139.556	26.669	1564.540	1273.263
140.570	26.513	1563.898	1271.537
141.585	26.576	1562.266	1270.536
142.600	26.534	1560.898	1269.019
143.614	26.466	1560.558	1268.153
144.629	26.514	1559.451	1267.475
145.643	26.606	1557.664	1266.554
146.658	26.526	1556.700	1265.104
147.673	26.427	1555.518	1263.334
148.687	26.400	1554.918	1262.553
149.702	26.447	1553.395	1261.527
150.716	26.520	1552.015	1260.807
151.731	26.541	1550.935	1259.965
152.746	26.490	1550.247	1258.940
153.760	26.492	1548.976	1257.811
154.775	26.550	1548.191	1257.459
155.789	26.551	1547.159	1256.521
156.804	26.561	1545.859	1255.422
157.819	26.495	1545.084	1254.223
158.833	26.511	1544.295	1253.584
159.848	26.560	1542.991	1252.751
160.862	26.622	1542.104	1252.353
161.877	26.627	1541.060	1251.425
162.892	26.558	1540.328	1250.246
163.906	26.670	1539.518	1250.247
164.921	26.635	1538.366	1248.965
165.935	26.668	1537.747	1248.579
166.950	26.682	1536.685	1247.699
167.964	26.692	1535.276	1246.513
168.979	26.618	1534.434	1245.215
169.994	26.623	1533.696	1244.541
171.008	26.694	1532.732	1244.131
172.023	26.677	1531.684	1243.057
173.037	26.646	1530.817	1242.027
174.052	26.723	1529.870	1241.677
175.067	26.721	1528.419	1240.379
176.081	26.739	1527.262	1239.449
177.096	26.686	1526.877	1238.667
178.110	26.661	1525.835	1237.540
179.125	26.681	1524.511	1236.493
180.140	26.661	1524.121	1235.935
181.154	26.772	1523.461	1236.042
182.169	26.734	1522.138	1234.604
183.183	26.614	1521.574	1233.217
184.198	26.675	1520.362	1232.545
185.213	26.765	1519.307	1232.194
186.227	26.757	1518.655	1231.500
187.242	26.847	1517.939	1231.417
188.256	26.748	1517.436	1230.233
189.271	26.798	1516.395	1229.617
190.286	26.862	1515.123	1228.910
191.300	26.761	1514.503	1227.614
192.315	26.782	1513.553	1226.876
193.329	26.777	1512.344	1225.758
194.344	26.738	1511.668	1224.835
195.359	26.821	1511.370	1225.048
196.373	26.900	1510.244	1224.557
197.388	26.882	1509.000	1223.319
198.402	26.743	1508.094	1221.543
199.417	26.871	1507.143	1221.525
200.432	26.714	1506.852	1220.121
201.446	26.718	1505.898	1219.273
202.461	26.677	1505.747	1218.762
203.475	26.743	1504.212	1217.858
204.490	26.798	1503.390	1217.450
205.504	26.757	1502.532	1216.376
206.519	26.715	1501.690	1215.304
207.534	26.781	1501.017	1215.096
208.548	26.743	1500.025	1213.932
209.563	26.759	1499.160	1213.230
210.577	26.851	1498.103	1212.881
211.592	26.873	1497.320	1212.288
212.607	26.704	1497.265	1211.007
213.621	26.938	1495.686	1211.182
214.636	26.961	1494.903	1210.599
215.650	26.990	1494.467	1210.331
216.665	26.904	1493.883	1209.180
217.680	26.835	1492.935	1207.842
218.694	26.808	1492.703	1207.369
219.709	26.860	1491.579	1206.699
220.723	26.891	1490.316	1205.775
221.738	26.802	1490.471	1205.206
222.753	26.791	1489.236	1204.025
223.767	26.850	1487.993	1203.304
224.782	26.816	1487.125	1202.271
225.796	26.827	1486.191	1201.481
226.811	26.872	1485.805	1201.362
227.826	26.906	1485.149	1200.952
228.840	27.031	1483.819	1200.594
229.855	26.883	1483.687	1199.401
230.869	26.832	1482.995	1198.399
231.884	26.876	1481.639	1197.492
232.899	26.994	1480.670	1197.375
233.913	26.923	1479.322	1195.712
234.928	26.950	1478.243	1194.916
235.942	26.878	1477.980	1194.121
236.957	26.962	1476.414	1193.303
237.972	26.999	1475.608	1192.792
238.986	27.051	1474.290	1191.962
240.001	26.966	1473.181	1190.402
241.015	27.051	1472.779	1190.525
242.030	27.097	1471.956	1190.061
243.045	27.207	1470.635	1189.602
244.059	27.176	1469.732	1188.565
245.074	27.218	1468.867	1188.033
246.088	27.102	1468.564	1186.931
247.103	27.138	1468.008	1186.611
248.117	27.153	1466.844	1185.659
249.132	27.113	1466.151	1184.732
250.147	27.170	1465.465	1184.447
251.161	27.194	1464.773	1183.938
252.176	27.262	1464.041	1183.689
253.190	27.176	1463.418	1182.519
254.205	27.189	1462.867	1182.056
255.220	27.269	1461.353	1181.242
256.234	27.175	1460.773	1180.060
257.249	27.266	1459.578	1179.584
258.263	27.260	1459.109	1179.057
259.278	27.256	1458.445	1178.391
260.293	27.246	1457.549	1177.501
261.307	27.219	1457.243	1176.976
262.322	27.214	1456.360	1176.125
263.336	27.188	1455.543	1175.191
264.351	27.256	1454.677	1174.829
265.366	27.239	1453.845	1173.943
266.380	27.247	1453.074	1173.268
267.395	27.289	1451.562	1172.213
268.409	27.284	1450.958	1171.591
269.424	27.396	1449.327	1170.892
270.439	27.180	1449.502	1169.540
271.453	27.301	1448.395	1169.320
272.468	27.314	1447.469	1168.550
273.482	27.324	1447.313	1168.384
274.497	27.298	1446.255	1167.259
275.512	27.219	1445.894	1166.360
276.526	27.414	1444.977	1166.764
277.541	27.334	1444.141	1165.477
278.555	27.340	1443.226	1164.671
279.570	27.489	1442.183	1164.683
280.585	27.478	1441.415	1163.885
281.599	27.430	1440.546	1162.779
282.614	27.358	1439.952	1161.736
283.628	27.391	1438.775	1160.895
284.643	27.428	1437.798	1160.235
285.657	27.439	1436.733	1159.345
286.672	27.399	1436.330	1158.666
287.687	27.395	1435.681	1158.011
288.701	27.348	1434.603	1156.743
289.716	27.411	1433.833	1156.420
290.730	27.532	1433.103	1156.496
291.745	27.523	1432.122	1155.542
292.760	27.556	1431.206	1154.908
293.774	27.590	1430.453	1154.414
294.789	27.516	1429.721	1153.255
295.803	27.493	1429.457	1152.792
296.818	27.615	1427.996	1152.288
297.833	27.564	1426.738	1150.848
298.847	27.506	1426.448	1150.148
299.862	27.564	1425.455	1149.607
300.876	27.599	1424.901	1149.278
301.891	27.586	1423.889	1148.278
302.906	27.550	1423.421	1147.573
303.920	27.583	1422.861	1147.228
304.935	27.645	1422.016	1146.836
305.949	27.644	1421.821	1146.569
306.964	27.622	1420.575	1145.326
307.979	27.706	1419.599	1144.967
308.993	27.642	1419.032	1144.009
310.008	27.759	1418.094	1143.879
311.022	27.675	1416.874	1142.268
312.037	27.721	1415.672	1141.486
313.052	27.670	1415.445	1140.884
314.066	27.797	1414.005	1140.417
315.081	27.709	1413.175	1139.098
316.095	27.745	1412.217	1138.451
317.110	27.774	1411.463	1137.922
318.125	27.686	1410.981	1136.882
319.139	27.767	1409.899	1136.415
320.154	27.806	1409.092	1135.909
321.168	27.804	1408.164	1135.044
322.183	27.827	1407.151	1134.270
323.197	27.821	1406.142	1133.323
324.212	27.778	1405.662	1132.566
325.227	27.810	1405.039	1132.167
326.241	27.811	1404.267	1131.444
327.256	27.854	1403.256	1130.797
328.270	27.902	1402.530	1130.408
329.285	27.866	1401.836	1129.527
330.300	27.886	1400.813	1128.728
331.314	27.861	1400.474	1128.198
332.329	27.880	1399.722	1127.612
333.343	27.873	1398.950	1126.846
334.358	27.927	1398.119	1126.410
335.373	27.981	1397.445	1126.102
336.387	28.007	1396.506	1125.406
337.402	28.064	1395.845	1125.121
338.416	27.990	1395.385	1124.199
339.431	28.020	1395.087	1124.046
340.446	28.009	1394.168	1123.135
341.460	27.947	1393.697	1122.276
342.475	28.059	1392.292	1121.732
343.489	28.118	1391.342	1121.231
344.504	28.063	1390.508	1120.121
345.519	27.964	1390.110	1119.095
346.533	28.048	1388.844	1118.491
347.548	28.121	1387.819	1118.013
348.562	28.146	1387.290	1117.640
349.577	28.158	1386.361	1116.863
350.592	28.207	1385.678	1116.513
351.606	28.234	1384.810	1115.884
352.621	28.090	1383.783	1114.079
353.635	28.025	1382.948	1112.912
354.650	28.057	1382.086	1112.313
355.665	28.217	1381.012	1112.326
356.679	28.174	1380.379	1111.458
357.694	28.139	1379.563	1110.485
358.708	28.276	1378.054	1110.004
359.723	28.183	1377.055	1108.540
360.738	28.222	1376.511	1108.240
361.752	28.134	1375.301	1106.632
362.767	28.236	1373.883	1106.011
363.781	28.185	1373.290	1105.130
364.796	28.205	1372.792	1104.752
365.810	28.345	1371.723	1104.634
366.825	28.431	1371.102	1104.559
367.840	28.365	1370.054	1103.220
368.854	28.225	1370.087	1102.305
369.869	28.375	1369.467	1102.610
370.883	28.341	1368.723	1101.711
371.898	28.266	1368.434	1100.927
372.913	28.376	1367.403	1100.662
373.927	28.419	1366.459	1100.065
374.942	28.342	1365.642	1098.846
375.956	28.346	1364.952	1098.218
376.971	28.470	1364.257	1098.305
377.986	28.442	1363.299	1097.268
379.000	28.394	1362.716	1096.413
380.015	28.357	1362.184	1095.670
381.029	28.420	1361.407	1095.324
382.044	28.477	1360.864	1095.127
383.059	28.430	1360.053	1094.098
384.073	28.445	1359.480	1093.629
385.088	28.556	1359.098	1093.891
386.102	28.573	1358.275	1093.229
387.117	28.529	1357.910	1092.581
388.132	28.588	1357.049	1092.143
389.146	28.546	1355.891	1090.863
390.161	28.602	1355.012	1090.393
391.175	28.695	1354.575	1090.495
392.190	28.522	1354.038	1088.942
393.205	28.624	1353.312	1088.867
394.219	28.670	1352.422	1088.325
395.234	28.664	1351.350	1087.330
396.248	28.692	1350.363	1086.606
397.263	28.780	1349.092	1086.008
398.278	28.661	1348.177	1084.472
399.292	28.593	1347.647	1083.546
400.307	28.752	1346.409	1083.396
401.321	28.733	1345.558	1082.502
402.336	28.700	1344.848	1081.643
403.350	28.687	1343.805	1080.630
404.365	28.742	1343.287	1080.440
405.380	28.720	1341.983	1079.165
406.394	28.821	1341.282	1079.098
407.409	28.773	1340.447	1078.054
408.423	28.790	1340.162	1077.828
409.438	28.930	1339.610	1078.109
410.453	28.860	1338.583	1076.779
411.467	28.832	1337.988	1076.038
412.482	28.889	1337.401	1075.804
413.496	28.870	1336.900	1075.197
414.511	28.890	1335.686	1074.239
415.526	28.791	1335.375	1073.317
416.540	28.920	1334.361	1073.163
417.555	28.875	1333.743	1072.305
418.569	28.992	1333.262	1072.504
419.584	28.965	1332.831	1071.905
420.599	28.756	1332.833	1070.594
421.613	91.888	1345.529	1436.004
422.628	91.575	1347.314	1436.106
