DTS Sentinel unit serial number:	SN413079Multiplexer serial number:	ORYXHardware model number:	OX4-SRSoftware version number:	ORYX F/W v4.00 Oryx Data Collector v3.7.2.0data status	okinstallation	princeton_trtdifferential loss correction	single-endedforward channel	channel 4reverse channel	N/Adate	2019/09/11time	10:47:11forward acquisition time	60.00reverse acquisition time	0.00gamma	496.2192k internal	0.2294k external	0.2294temperature offset calibration	0.9971default loss term (dB/km)	0.3790temperature slope calibration	1.0000multiplexer offset coefficient	1.0000multiplexer slope coefficient	1.0000fibre end	0.00T internal ref (°C)	36.86T ext. ref 1 (°C)	0.17T ext. ref 2 (°C)	33.64length (m)	temperature (°C)	Stokes	anti-Stokes-747.200	690.612	-0.066	-0.178
-746.185	48.803	0.066	0.063
-745.171	-181.525	-0.244	-0.005
-744.156	-89.038	-0.074	0.022
-743.142	-111.237	-0.306	-0.064
-742.127	-81.668	0.213	0.071
-741.112	-158.288	0.284	0.017
-740.098	-200.000	0.049	0.276
-739.083	-91.360	0.308	-0.090
-738.069	20.845	-0.222	-0.184
-737.054	-200.000	0.002	0.274
-736.039	42.105	-0.248	0.231
-735.025	527.696	0.192	0.462
-734.010	-200.000	0.016	-0.190
-732.996	75.863	-0.033	-0.035
-731.981	21.585	-0.084	-0.070
-730.966	-86.303	-0.147	-0.046
-729.952	-92.450	-0.193	0.055
-728.937	-84.158	-0.434	-0.141
-727.923	-153.420	0.308	0.022
-726.908	-24.261	-0.174	-0.106
-725.894	-125.965	-0.431	0.066
-724.879	-105.563	-0.146	-0.034
-723.864	-53.181	0.115	-0.054
-722.850	5.376	-0.163	-0.123
-721.835	198.926	0.025	-0.040
-720.821	-200.000	-0.488	-0.002
-719.806	-176.453	0.093	0.002
-718.791	-120.545	0.200	-0.035
-717.777	-71.995	0.394	0.150
-716.762	-200.000	-0.040	0.238
-715.748	-5.466	-0.148	-0.103
-714.733	-64.023	0.146	-0.061
-713.718	355.710	0.109	0.221
-712.704	11.792	-0.025	0.019
-711.689	-6.501	0.223	0.155
-710.675	515.413	-0.132	0.316
-709.660	-94.444	-0.255	0.071
-708.645	-105.679	-0.096	-0.022
-707.631	109.604	0.060	0.074
-706.616	2.301	-0.092	0.068
-705.602	112.495	-0.218	-0.269
-704.587	227.128	-0.162	0.270
-703.572	173.113	-0.201	0.296
-702.558	800.000	0.086	0.244
-701.543	-200.000	0.010	-0.049
-700.529	250.056	0.109	0.189
-699.514	800.000	-0.045	-0.198
-698.499	-85.950	0.171	-0.054
-697.485	147.130	-0.128	0.176
-696.470	-3.196	-0.134	-0.096
-695.456	193.809	0.173	0.268
-694.441	-200.000	0.018	-0.250
-693.426	-200.000	0.029	-0.158
-692.412	506.236	0.140	0.331
-691.397	735.137	0.060	-0.165
-690.383	-200.000	0.002	0.118
-689.368	-200.000	-0.015	-0.094
-688.354	-52.750	-0.390	-0.184
-687.339	800.000	0.033	-0.123
-686.324	609.646	0.154	-0.392
-685.310	479.995	-0.103	0.238
-684.295	800.000	0.081	0.271
-683.281	6.290	-0.421	0.319
-682.266	-118.075	0.176	0.032
-681.251	-200.000	0.003	0.104
-680.237	137.299	0.178	-0.238
-679.222	-94.086	-0.183	0.051
-678.208	301.706	-0.051	0.097
-677.193	-105.382	-0.098	0.023
-676.178	288.694	0.069	0.128
-675.164	-200.000	0.030	-0.139
-674.149	-200.000	-0.028	0.204
-673.135	-60.716	0.218	0.094
-672.120	5.116	-0.088	0.066
-671.105	160.229	0.224	0.319
-670.091	-96.175	0.545	-0.148
-669.076	-3.419	-0.314	-0.223
-668.062	67.787	0.170	-0.178
-667.047	438.626	0.111	0.247
-666.032	-92.977	0.074	-0.021
-665.018	-200.000	0.004	0.292
-664.003	14.426	0.205	0.163
-662.989	724.406	0.075	0.203
-661.974	-14.744	0.152	-0.100
-660.959	-38.075	0.091	-0.049
-659.945	50.046	0.121	0.116
-658.930	-156.073	-0.291	0.019
-657.916	-62.456	0.128	0.054
-656.901	-92.764	0.199	0.057
-655.886	-77.910	-0.228	-0.080
-654.872	42.669	-0.208	-0.193
-653.857	106.246	0.255	0.307
-652.843	-157.330	0.259	-0.016
-651.828	-200.000	0.039	0.226
-650.814	22.907	-0.124	0.104
-649.799	-181.400	-0.332	-0.007
-648.784	-82.599	-0.117	-0.038
-647.770	-98.602	-0.381	0.099
-646.755	-153.176	0.277	-0.020
-645.741	117.041	0.114	-0.142
-644.726	-94.345	0.186	0.052
-643.711	-184.714	-0.320	0.005
-642.697	592.436	-0.121	0.306
-641.682	114.826	0.127	-0.157
-640.668	147.650	-0.166	-0.228
-639.653	-200.000	0.019	-0.179
-638.638	33.767	0.108	-0.096
-637.624	-184.446	0.270	0.004
-636.609	94.584	0.140	-0.162
-635.595	-200.000	0.002	-0.210
-634.580	179.568	0.150	-0.224
-633.565	-77.003	-0.364	-0.129
-632.551	128.463	-0.081	-0.106
-631.536	-114.495	0.232	-0.045
-630.522	52.962	-0.103	0.101
-629.507	-198.938	0.138	0.001
-628.492	-200.000	0.007	0.105
-627.478	5.178	-0.079	-0.059
-626.463	800.000	0.056	0.168
-625.449	10.199	-0.103	-0.080
-624.434	-200.000	0.020	-0.271
-623.419	122.513	-0.164	-0.209
-622.405	-200.000	0.022	0.284
-621.390	173.799	0.143	0.211
-620.376	80.975	-0.350	0.384
-619.361	-177.612	-0.265	0.007
-618.346	118.923	-0.069	0.087
-617.332	-110.680	-0.444	-0.093
-616.317	148.049	0.079	-0.109
-615.303	800.000	-0.026	0.108
-614.288	800.000	-0.086	0.270
-613.273	178.001	-0.069	0.102
-612.259	-200.000	0.004	0.068
-611.244	-36.400	0.353	-0.194
-610.230	-200.000	-0.005	-0.380
-609.215	535.068	-0.057	0.138
-608.201	41.806	0.137	0.127
-607.186	76.885	0.215	0.232
-606.171	39.509	0.244	-0.222
-605.157	-200.000	0.010	0.115
-604.142	-118.970	0.169	-0.030
-603.128	154.573	0.096	0.134
-602.113	-119.493	-0.178	-0.031
-601.098	125.562	0.101	-0.129
-600.084	-141.443	0.382	-0.039
-599.069	534.185	0.115	-0.276
-598.055	165.342	0.094	-0.135
-597.040	-200.000	-0.056	0.380
-596.025	800.000	0.064	0.277
-595.011	-98.465	-0.112	0.029
-593.996	-175.056	0.023	-0.001
-592.982	-200.000	0.008	-0.067
-591.967	-106.441	-0.102	-0.023
-590.952	99.959	0.137	-0.162
-589.938	-123.411	-0.203	-0.033
-588.923	18.313	-0.039	-0.031
-587.909	-56.329	0.199	-0.090
-586.894	800.000	0.022	-0.082
-585.879	-113.199	-0.412	-0.082
-584.865	-157.685	0.015	0.001
-583.850	46.918	-0.367	-0.347
-582.836	800.000	0.005	-0.022
-581.821	-20.623	-0.066	0.041
-580.806	130.785	-0.207	-0.270
-579.792	-35.759	-0.035	0.019
-578.777	-79.608	0.178	0.061
-577.763	660.599	-0.080	0.210
-576.748	89.188	0.117	-0.132
-575.733	-105.448	-0.124	-0.029
-574.719	-200.000	0.022	-0.174
-573.704	-200.000	-0.005	0.262
-572.690	625.195	0.038	-0.098
-571.675	222.627	-0.111	-0.181
-570.661	800.000	0.062	-0.263
-569.646	-41.422	0.263	-0.137
-568.631	162.474	0.268	0.382
-567.617	-80.323	-0.499	0.169
-566.602	687.377	-0.042	0.113
-565.588	-52.389	-0.225	-0.106
-564.573	-200.000	0.004	-0.262
-563.558	-100.086	-0.138	-0.035
-562.544	204.579	0.082	0.130
-561.529	800.000	-0.038	0.166
-560.515	122.097	-0.099	-0.125
-559.500	225.628	0.158	-0.260
-558.485	166.969	-0.266	0.383
-557.471	-200.000	0.072	0.358
-556.456	435.943	0.174	0.385
-555.442	-173.385	-0.113	-0.003
-554.427	-152.982	0.226	0.016
-553.412	-102.145	-0.149	-0.036
-552.398	-130.332	-0.307	-0.042
-551.383	-104.377	-0.132	-0.031
-550.369	26.434	0.129	-0.109
-549.354	800.000	0.062	0.207
-548.339	206.274	-0.020	0.032
-547.325	-114.814	-0.368	0.071
-546.310	-200.000	0.336	-0.000
-545.296	-41.898	0.175	0.091
-544.281	60.656	0.229	-0.231
-543.266	474.709	-0.118	0.270
-542.252	-60.392	0.160	0.069
-541.237	179.508	0.117	-0.174
-540.223	-200.000	-0.090	0.459
-539.208	-51.088	-0.136	0.065
-538.193	-34.904	0.328	0.182
-537.179	-44.032	0.140	-0.071
-536.164	-70.118	0.215	-0.083
-535.150	-184.594	0.358	0.006
-534.135	642.583	-0.049	-0.128
-533.121	800.000	0.077	-0.247
-532.106	-112.985	-0.246	0.049
-531.091	-84.033	-0.181	-0.058
-530.077	-104.479	0.355	0.083
-529.062	522.157	-0.105	-0.250
-528.048	-129.505	-0.028	-0.004
-527.033	142.385	-0.132	0.178
-526.018	155.409	-0.196	-0.274
-525.004	-200.000	0.018	0.255
-523.989	105.746	0.153	0.183
-522.975	-200.000	-0.056	0.424
-521.960	-144.059	-0.163	-0.016
-520.945	800.000	-0.087	0.245
-519.931	-109.926	-0.055	0.012
-518.916	-159.787	-0.352	-0.020
-517.902	592.855	0.096	0.239
-516.887	-44.072	0.330	0.168
-515.872	-200.000	-0.031	-0.167
-514.858	-113.152	-0.105	0.021
-513.843	-173.303	0.091	-0.003
-512.829	-117.773	0.259	0.047
-511.814	768.083	-0.083	-0.228
-510.799	800.000	0.061	0.215
-509.785	-12.181	-0.121	0.080
-508.770	-78.552	0.335	-0.116
-507.756	292.390	-0.156	-0.288
-506.741	47.723	-0.090	0.085
-505.726	618.261	0.032	0.080
-504.712	-34.129	-0.265	-0.148
-503.697	-105.714	-0.321	-0.074
-502.683	-200.000	-0.003	-0.039
-501.668	-155.499	-0.236	0.015
-500.653	-136.197	0.186	-0.022
-499.639	-200.000	-0.039	0.485
-498.624	-101.399	0.158	0.039
-497.610	-200.000	0.018	-0.138
-496.595	182.031	-0.109	-0.163
-495.581	-200.000	0.022	0.374
-494.566	141.194	-0.147	0.197
-493.551	-53.654	-0.487	-0.225
-492.537	68.388	-0.195	-0.202
-491.522	-200.000	0.045	0.298
-490.508	73.619	-0.141	0.150
-489.493	800.000	-0.110	0.326
-488.478	-60.070	0.147	-0.064
-487.464	-200.000	0.001	-0.064
-486.449	-18.125	0.239	0.152
-485.435	-200.000	0.003	-0.121
-484.420	454.009	0.146	-0.327
-483.405	-200.000	-0.032	-0.199
-482.391	414.111	0.025	0.055
-481.376	-67.894	0.157	0.062
-480.362	-136.694	0.362	-0.042
-479.347	-166.453	0.377	-0.016
-478.332	115.666	0.091	-0.113
-477.318	70.702	0.178	0.187
-476.303	201.276	-0.298	-0.465
-475.289	382.215	-0.114	0.237
-474.274	125.933	-0.077	-0.099
-473.259	-200.000	0.041	-0.440
-472.245	800.000	-0.056	-0.218
-471.230	-200.000	-0.003	0.115
-470.216	-91.047	0.339	0.099
-469.201	-161.787	-0.253	-0.013
-468.186	18.271	-0.289	-0.233
-467.172	800.000	-0.060	0.182
-466.157	-105.564	-0.100	0.023
-465.143	288.589	-0.049	-0.089
-464.128	132.121	0.188	-0.246
-463.113	72.176	0.195	0.205
-462.099	-200.000	0.047	-0.272
-461.084	-200.000	-0.017	-0.537
-460.070	55.936	0.198	-0.194
-459.055	-200.000	-0.121	0.000
-458.040	800.000	0.023	0.074
-457.026	403.902	0.126	0.269
-456.011	74.263	-0.152	-0.162
-454.997	-101.191	-0.073	0.018
-453.982	223.519	-0.134	-0.219
-452.968	-102.537	0.274	-0.066
-451.953	-200.000	-0.011	-0.220
-450.938	-98.772	0.277	-0.071
-449.924	-200.000	0.017	-0.187
-448.909	800.000	0.116	0.335
-447.895	-166.645	0.097	-0.004
-446.880	-200.000	0.013	0.198
-445.865	-126.531	-0.135	0.020
-444.851	-54.936	-0.046	0.021
-443.836	-51.658	-0.256	-0.121
-442.822	-19.486	-0.129	-0.081
-441.807	-26.960	0.182	0.108
-440.792	-200.000	0.013	-0.074
-439.778	-43.764	-0.272	-0.139
-438.763	-81.479	-0.099	-0.033
-437.749	42.928	-0.183	-0.169
-436.734	-129.809	-0.082	-0.011
-435.719	-90.953	-0.445	-0.129
-434.705	281.604	-0.109	0.198
-433.690	-200.000	-0.019	-0.113
-432.676	-171.362	0.184	-0.006
-431.661	521.661	-0.046	0.109
-430.646	102.031	0.226	0.266
-429.632	-200.000	0.014	-0.153
-428.617	-200.000	-0.044	0.211
-427.603	-13.268	-0.265	-0.174
-426.588	85.736	0.181	-0.201
-425.573	-129.494	0.191	0.027
-424.559	-114.551	0.151	-0.029
-423.544	-117.035	0.179	0.033
-422.530	-67.927	-0.273	0.108
-421.515	-200.000	-0.008	0.162
-420.500	800.000	-0.046	-0.163
-419.486	-70.941	0.316	0.120
-418.471	69.237	0.092	0.096
-417.457	-95.621	-0.171	-0.046
-416.442	-200.000	-0.058	-0.324
-415.428	45.222	0.122	0.114
-414.413	800.000	-0.035	-0.153
-413.398	-200.000	-0.039	0.178
-412.384	-53.007	-0.036	-0.017
-411.369	170.727	0.037	-0.053
-410.355	800.000	-0.040	-0.112
-409.340	265.508	0.114	0.200
-408.325	800.000	-0.077	-0.306
-407.311	-200.000	-0.026	0.130
-406.296	7.223	-0.186	-0.140
-405.282	800.000	-0.113	0.389
-404.267	-95.356	0.241	0.065
-403.252	-4.893	0.132	0.091
-402.238	800.000	-0.169	-0.479
-401.223	26.896	-0.168	-0.142
-400.209	65.768	-0.025	-0.026
-399.194	-124.724	0.172	0.027
-398.179	-118.802	-0.275	0.049
-397.165	-137.812	0.321	-0.036
-396.150	57.847	0.178	-0.176
-395.136	420.840	0.161	0.348
-394.121	334.166	-0.200	0.391
-393.106	-200.000	0.083	-0.381
-392.092	0.572	0.145	-0.105
-391.077	-70.694	-0.190	0.072
-390.063	-125.727	0.145	-0.022
-389.048	14.375	-0.162	-0.128
-388.033	131.879	0.112	0.145
-387.019	-37.503	-0.188	0.101
-386.004	800.000	0.056	0.248
-384.990	146.080	0.129	-0.175
-383.975	308.281	-0.108	0.203
-382.960	18.013	-0.188	-0.151
-381.946	289.202	0.114	-0.209
-380.931	800.000	0.023	-0.064
-379.917	800.000	0.034	0.133
-378.902	264.306	-0.091	-0.160
-377.888	39.477	0.189	-0.171
-376.873	-2.496	0.197	0.139
-375.858	596.204	-0.122	-0.305
-374.844	45.810	0.166	0.155
-373.829	800.000	0.050	0.180
-372.815	-200.000	0.063	0.345
-371.800	-150.777	0.079	-0.006
-370.785	39.150	-0.060	-0.055
-369.771	39.121	0.072	0.065
-368.756	-200.000	-0.000	-0.079
-367.742	800.000	-0.041	0.130
-366.727	-152.639	0.343	-0.025
-365.712	-103.577	-0.330	-0.078
-364.698	-35.167	-0.271	0.149
-363.683	-130.109	-0.343	-0.047
-362.669	-67.992	-0.126	0.049
-361.654	47.917	0.059	-0.055
-360.639	-23.087	0.174	-0.106
-359.625	-188.296	-0.375	0.005
-358.610	-164.973	-0.081	-0.004
-357.596	-111.294	0.123	-0.025
-356.581	-200.000	-0.021	0.422
-355.566	-101.943	-0.191	-0.047
-354.552	-200.000	-0.046	0.265
-353.537	483.559	-0.207	0.473
-352.523	-76.212	0.275	-0.098
-351.508	-121.806	0.201	-0.034
-350.493	9.241	-0.056	-0.043
-349.479	800.000	0.025	-0.087
-348.464	-200.000	-0.006	0.359
-347.450	-31.628	-0.162	0.092
-346.435	381.096	0.154	-0.319
-345.420	800.000	-0.089	-0.290
-344.406	-168.889	0.100	-0.004
-343.391	-37.784	-0.148	0.079
-342.377	58.894	-0.175	0.174
-341.362	-200.000	0.021	-0.305
-340.348	800.000	0.083	-0.312
-339.333	49.601	-0.155	-0.147
-338.318	-82.368	0.117	-0.038
-337.304	-26.578	0.396	-0.233
-336.289	520.022	0.097	0.228
-335.275	93.987	-0.064	-0.073
-334.260	-169.651	0.165	0.006
-333.245	-78.635	-0.109	-0.038
-332.231	216.493	-0.073	0.117
-331.216	-23.238	0.388	0.235
-330.202	57.812	0.010	-0.010
-329.187	-200.000	-0.038	0.236
-328.172	-200.000	0.012	-0.058
-327.158	-116.625	0.060	-0.011
-326.143	-84.555	0.226	0.072
-325.129	-199.589	-0.091	0.000
-324.114	14.824	0.046	0.036
-323.099	176.685	-0.071	0.104
-322.085	178.595	-0.051	-0.074
-321.070	-200.000	0.045	0.290
-320.056	-44.750	0.247	0.124
-319.041	-171.641	-0.251	0.008
-318.026	-200.000	0.051	-0.240
-317.012	23.594	0.218	0.180
-315.997	-200.000	-0.016	-0.091
-314.983	-105.263	-0.140	-0.032
-313.968	149.725	0.163	-0.223
-312.953	-19.475	-0.102	-0.063
-311.939	119.834	-0.150	-0.187
-310.924	-200.000	-0.002	0.016
-309.910	-56.853	-0.163	0.072
-308.895	-51.908	0.144	0.067
-307.880	-200.000	0.002	-0.052
-306.866	800.000	0.047	-0.150
-305.851	800.000	0.095	0.266
-304.837	800.000	-0.053	-0.158
-303.822	49.406	-0.049	0.047
-302.807	-200.000	-0.019	0.298
-301.793	32.182	-0.055	0.047
-300.778	538.831	-0.054	-0.130
-299.764	44.982	0.152	0.140
-298.749	-76.788	-0.004	0.002
-297.735	-54.674	0.136	0.062
-296.720	-89.883	0.208	-0.061
-295.705	580.392	0.107	0.264
-294.691	285.130	0.035	-0.064
-293.676	583.864	0.133	0.328
-292.662	107.301	-0.137	-0.164
-291.647	-111.450	0.464	-0.095
-290.632	-200.000	-0.015	0.141
-289.618	169.296	-0.177	0.253
-288.603	-64.927	0.057	-0.023
-287.589	-37.761	0.439	0.235
-286.574	-23.943	-0.229	0.138
-285.559	-144.869	-0.267	-0.025
-284.545	-200.000	-0.046	-0.208
-283.530	-180.573	0.047	0.001
-282.516	-73.886	0.244	-0.089
-281.501	141.982	-0.145	0.194
-280.486	59.594	0.257	-0.255
-279.472	3.533	0.285	0.209
-278.457	-74.381	0.064	0.023
-277.443	-125.095	-0.286	-0.044
-276.428	-16.319	0.112	0.072
-275.413	-82.740	-0.121	0.039
-274.399	-200.000	0.019	-0.320
-273.384	-81.187	0.118	0.039
-272.370	-146.962	-0.265	-0.023
-271.355	-200.000	-0.028	-0.295
-270.340	-131.965	-0.240	-0.031
-269.326	-111.426	0.271	-0.055
-268.311	225.450	-0.194	-0.316
-267.297	-200.000	0.020	-0.108
-266.282	-61.572	0.151	-0.063
-265.267	-100.412	-0.211	0.052
-264.253	-200.000	0.007	0.148
-263.238	-136.809	-0.231	0.027
-262.224	800.000	0.028	0.096
-261.209	-195.390	-0.168	-0.001
-260.195	800.000	-0.051	0.190
-259.180	-152.336	-0.052	-0.004
-258.165	-200.000	-0.009	0.225
-257.151	197.018	0.147	-0.225
-256.136	140.540	0.088	-0.117
-255.122	-111.191	-0.472	0.097
-254.107	-129.729	-0.056	-0.008
-253.092	42.902	-0.117	-0.107
-252.078	800.000	0.064	-0.185
-251.063	93.572	-0.103	-0.118
-250.049	-77.873	-0.159	0.055
-249.034	83.614	0.141	0.154
-248.019	30.294	0.076	-0.065
-247.005	44.120	0.139	-0.128
-245.990	57.154	-0.260	0.254
-244.976	-200.000	0.001	0.089
-243.961	-0.417	0.166	0.118
-242.946	-69.278	0.200	-0.077
-241.932	212.845	-0.116	-0.184
-240.917	-113.427	0.200	0.039
-239.903	-79.814	0.042	0.014
-238.888	-95.049	-0.410	-0.111
-237.873	106.577	0.088	0.104
-236.859	-106.561	-0.122	0.027
-235.844	122.625	-0.186	0.233
-234.830	-17.358	0.151	-0.095
-233.815	-20.551	-0.048	0.030
-232.800	-97.858	-0.319	0.083
-231.786	-14.121	-0.215	-0.139
-230.771	-10.616	-0.272	0.181
-229.757	118.757	-0.130	0.161
-228.742	-200.000	-0.025	0.182
-227.727	-200.000	-0.001	0.049
-226.713	-200.000	-0.001	-0.045
-225.698	645.750	0.130	0.333
-224.684	147.679	-0.101	-0.137
-223.669	-155.447	-0.140	0.009
-222.655	89.762	0.072	-0.081
-221.640	145.656	0.159	0.213
-220.625	155.799	0.120	0.166
-219.611	367.222	0.082	-0.165
-218.596	800.000	0.034	-0.097
-217.582	-200.000	0.023	-0.165
-216.567	-200.000	0.047	-0.291
-215.552	-200.000	-0.003	-0.089
-214.538	109.528	-0.260	0.312
-213.523	-200.000	0.012	0.642
-212.509	-47.147	0.107	-0.052
-211.494	91.923	-0.046	-0.052
-210.479	153.391	0.045	0.062
-209.465	-61.721	0.283	-0.119
-208.450	692.624	-0.039	-0.103
-207.436	83.745	0.344	-0.376
-206.421	-118.917	0.200	-0.035
-205.406	800.000	0.052	0.172
-204.392	800.000	0.051	-0.147
-203.377	-148.880	-0.196	-0.016
-202.363	-200.000	-0.041	-0.180
-201.348	-200.000	-0.118	-0.001
-200.333	-51.577	-0.141	0.066
-199.319	-113.839	-0.247	-0.048
-198.304	-148.344	-0.161	-0.013
-197.290	-139.666	0.381	-0.041
-196.275	-200.000	-0.006	-0.171
-195.260	0.417	-0.384	0.274
-194.246	448.919	0.140	0.309
-193.231	-108.009	0.242	-0.052
-192.217	35.280	0.198	-0.174
-191.202	108.589	-0.120	-0.143
-190.187	-109.708	-0.157	0.033
-189.173	63.582	-0.198	0.199
-188.158	-37.547	-0.065	-0.034
-187.144	800.000	0.097	-0.423
-186.129	411.085	0.076	-0.162
-185.114	-134.458	-0.166	-0.020
-184.100	3.794	0.250	-0.183
-183.085	800.000	0.024	0.095
-182.071	153.044	0.263	0.359
-181.056	317.183	0.145	0.274
-180.042	46.288	-0.139	0.129
-179.027	-67.736	0.181	-0.071
-178.012	-152.604	0.161	-0.011
-176.998	-62.069	-0.079	0.033
-175.983	-81.454	-0.120	0.040
-174.969	33.468	-0.243	-0.211
-173.954	780.394	0.092	0.251
-172.939	402.302	0.219	0.461
-171.925	1.152	0.108	0.077
-170.910	-200.000	0.006	-0.102
-169.896	-41.386	-0.095	-0.049
-168.881	-17.184	-0.029	-0.019
-167.866	505.559	0.085	-0.197
-166.852	51.203	-0.211	0.200
-165.837	-159.487	0.233	-0.013
-164.823	-61.393	0.224	0.094
-163.808	-179.947	-0.143	0.003
-162.793	16.495	0.292	-0.231
-161.779	800.000	-0.038	0.133
-160.764	197.425	0.040	0.062
-159.750	-41.507	-0.179	-0.092
-158.735	-120.510	0.353	0.060
-157.720	-14.261	0.193	0.124
-156.706	28.477	0.259	0.219
-155.691	-68.309	0.162	-0.063
-154.677	800.000	-0.067	-0.269
-153.662	-58.544	-0.326	-0.142
-152.647	686.843	0.190	-0.495
-151.633	568.412	-0.115	-0.280
-150.618	328.663	0.057	0.110
-149.604	-91.010	-0.331	0.095
-148.589	-200.000	0.005	-0.284
-147.574	353.057	-0.188	0.372
-146.560	-200.000	0.007	0.206
-145.545	-152.176	-0.390	-0.028
-144.531	-120.974	0.139	0.023
-143.516	-200.000	-0.019	-0.209
-142.502	800.000	0.087	0.323
-141.487	-200.000	0.020	0.214
-140.472	-59.660	-0.244	-0.105
-139.458	800.000	0.028	-0.116
-138.443	-200.000	0.030	0.261
-137.429	-85.618	0.111	-0.034
-136.414	-183.279	-0.103	0.002
-135.399	-14.565	0.148	0.095
-134.385	-55.695	0.075	0.033
-133.370	71.861	0.016	0.016
-132.356	800.000	0.087	0.253
-131.341	18.101	0.088	-0.070
-130.326	800.000	-0.013	-0.037
-129.312	-3.967	0.124	0.086
-128.297	-64.016	0.124	-0.051
-127.283	-0.868	-0.090	0.064
-126.268	-200.000	-0.010	0.152
-125.253	-56.409	0.080	0.036
-124.239	-200.000	-0.033	-0.150
-123.224	21.401	-0.032	-0.026
-122.210	37.724	0.096	-0.085
-121.195	-41.284	0.165	-0.085
-120.180	-97.140	0.343	0.089
-119.166	-76.620	0.039	0.014
-118.151	-200.000	0.006	-0.041
-117.137	-109.854	0.049	-0.010
-116.122	-88.811	0.245	0.073
-115.107	3.132	-0.317	0.230
-114.093	-188.830	0.210	0.003
-113.078	225.823	-0.044	0.071
-112.064	182.859	-0.151	0.222
-111.049	-5.388	-0.147	-0.101
-110.034	-108.091	-0.215	0.046
-109.020	236.770	-0.060	0.100
-108.005	-33.754	0.301	-0.166
-106.991	-200.000	-0.005	0.080
-105.976	246.580	0.116	-0.195
-104.962	-200.000	-0.026	0.348
-103.947	-138.476	-0.172	0.019
-102.932	800.000	-0.037	-0.104
-101.918	-95.868	-0.356	0.095
-100.903	-133.812	0.065	-0.008
-99.889	-200.000	-0.065	-0.354
-98.874	800.000	-0.077	0.219
-97.859	325.583	0.055	0.104
-96.845	-200.000	-0.007	0.074
-95.830	-128.226	0.207	0.029
-94.816	-29.343	-0.070	0.040
-93.801	-105.547	0.075	-0.017
-92.786	563.980	0.036	-0.086
-91.772	-143.303	0.219	0.021
-90.757	-116.197	-0.289	0.053
-89.743	572.138	0.092	-0.224
-88.728	-52.355	0.107	-0.050
-87.713	-200.000	-0.060	0.370
-86.699	-130.049	-0.223	-0.030
-85.684	-65.503	0.270	-0.108
-84.670	-200.000	0.064	-0.310
-83.655	248.988	0.100	0.170
-82.640	1.555	0.311	0.223
-81.626	616.955	0.099	0.248
-80.611	-32.206	-0.384	0.214
-79.597	-200.000	-0.004	0.177
-78.582	324.404	-0.070	0.133
-77.567	-182.912	0.093	0.002
-76.553	466.194	-0.094	-0.211
-75.538	87.154	-0.261	0.287
-74.524	-200.000	0.025	-0.165
-73.509	18.810	0.292	-0.233
-72.494	-200.000	0.014	-0.251
-71.480	-106.890	0.278	0.061
-70.465	11.014	-0.128	-0.097
-69.451	-180.419	0.113	-0.002
-68.436	155.527	-0.078	-0.107
-67.422	-200.000	-0.004	0.022
-66.407	261.269	0.113	-0.196
-65.392	88.928	-0.136	0.150
-64.378	640.147	0.117	0.296
-63.363	739.544	-0.109	-0.290
-62.349	-106.488	0.446	0.099
-61.334	-31.591	-0.781	-0.437
-60.319	37.463	0.274	0.242
-59.305	800.000	-0.286	-0.851
-58.290	800.000	0.215	0.641
-57.276	800.000	0.365	1.534
-56.261	-200.000	87.021	505.331
-55.246	539.765	1381.019	3272.195
-54.232	180.736	2622.425	3833.777
-53.217	108.934	2388.399	2843.072
-52.203	43.183	2128.595	1934.292
-51.188	38.613	2037.060	1808.965
-50.173	36.972	2017.218	1776.250
-49.159	50.048	2062.088	1937.111
-48.144	53.144	2081.894	1984.343
-47.130	39.397	2042.669	1820.912
-46.115	36.974	2031.398	1788.469
-45.100	36.969	2028.364	1785.674
-44.086	36.819	2026.617	1782.691
-43.071	36.748	2023.514	1779.238
-42.057	36.603	2022.377	1776.834
-41.042	36.785	2019.827	1776.190
-40.027	36.689	2018.451	1774.033
-39.013	36.899	2015.245	1773.062
-37.998	36.798	2013.658	1770.676
-36.984	36.827	2012.647	1769.980
-35.969	36.795	2010.722	1767.926
-34.954	36.826	2008.841	1766.480
-33.940	36.800	2007.582	1765.073
-32.925	36.790	2005.858	1763.392
-31.911	36.887	2003.873	1762.464
-30.896	36.921	2002.242	1761.270
-29.881	36.845	2000.772	1759.215
-28.867	36.883	1999.135	1758.045
-27.852	36.893	1997.156	1756.331
-26.838	36.897	1994.999	1754.396
-25.823	36.898	1993.275	1752.821
-24.809	36.828	1991.838	1750.854
-23.794	36.873	1990.006	1749.581
-22.779	36.890	1988.156	1748.040
-21.765	36.855	1986.551	1746.243
-20.750	36.850	1985.124	1744.878
-19.736	36.915	1983.433	1743.901
-18.721	36.919	1981.893	1742.520
-17.706	36.921	1980.008	1740.808
-16.692	36.832	1978.626	1738.729
-15.677	36.850	1976.770	1737.184
-14.663	36.889	1975.274	1736.151
-13.648	36.898	1974.377	1735.375
-12.633	36.952	1972.421	1734.075
-11.619	36.841	1971.441	1732.144
-10.604	36.836	1970.355	1731.083
-9.590	36.751	1968.902	1728.976
-8.575	36.928	1966.843	1728.679
-7.560	36.912	1965.840	1727.588
-6.546	36.866	1964.804	1726.196
-5.531	36.906	1963.305	1725.170
-4.517	36.977	1961.987	1724.569
-3.502	36.922	1960.739	1722.918
-2.487	36.825	1959.842	1721.195
-1.473	36.869	1958.667	1720.489
-0.458	36.976	1954.711	1717.898
0.556	35.262	1935.381	1693.218
1.571	31.484	1916.277	1643.231
2.586	27.750	1939.538	1629.753
3.600	26.705	1976.909	1651.494
4.615	25.944	1973.044	1641.187
5.629	19.002	1865.288	1491.455
6.644	6.814	1735.673	1288.779
7.659	0.805	1693.390	1209.337
8.673	0.222	1689.868	1202.056
9.688	0.269	1687.854	1200.897
10.702	0.178	1686.969	1199.437
11.717	0.001	1683.553	1195.492
12.731	0.387	1682.821	1197.931
13.746	7.607	1700.901	1268.513
14.761	18.415	1726.065	1374.322
15.775	23.084	1734.073	1418.111
16.790	23.382	1734.220	1420.492
17.804	23.488	1733.173	1420.359
18.819	23.558	1732.165	1419.973
19.834	23.672	1731.810	1420.468
20.848	23.843	1731.216	1421.224
21.863	23.803	1730.343	1420.057
22.877	23.827	1729.618	1419.526
23.892	23.908	1728.089	1418.795
24.907	23.833	1727.483	1417.577
25.921	23.969	1726.023	1417.337
26.936	23.917	1725.000	1415.951
27.950	23.914	1724.286	1415.217
28.965	23.926	1723.631	1414.653
29.980	23.938	1722.457	1413.654
30.994	23.774	1721.669	1411.586
32.009	23.927	1719.724	1411.082
33.023	23.876	1718.984	1409.941
34.038	23.888	1718.322	1409.372
35.053	23.847	1717.008	1407.843
36.067	23.857	1716.145	1407.085
37.082	23.988	1714.909	1406.990
38.096	23.850	1714.290	1405.267
39.111	23.941	1713.086	1404.874
40.126	23.921	1712.712	1404.282
41.140	23.860	1711.690	1402.839
42.155	23.877	1710.682	1402.024
43.169	23.943	1709.090	1401.113
44.184	23.858	1708.434	1399.780
45.199	23.888	1707.284	1398.948
46.213	23.839	1705.978	1397.371
47.228	23.883	1704.775	1396.609
48.242	23.874	1703.852	1395.663
49.257	23.903	1702.256	1394.455
50.271	23.829	1701.760	1393.347
51.286	23.839	1700.483	1392.256
52.301	23.831	1699.377	1391.161
53.315	23.813	1697.641	1389.479
54.330	23.869	1695.797	1388.288
55.344	23.903	1694.221	1387.135
56.359	23.870	1693.551	1386.206
57.374	23.912	1692.308	1385.396
58.388	23.939	1690.997	1384.407
59.403	23.965	1690.022	1383.691
60.417	23.972	1688.677	1382.520
61.432	23.896	1688.032	1381.281
62.447	23.917	1686.744	1380.270
63.461	23.937	1685.561	1379.333
64.476	23.968	1684.600	1378.663
65.490	23.895	1683.697	1377.237
66.505	24.016	1682.418	1377.005
67.520	23.976	1681.360	1375.707
68.534	23.980	1680.357	1374.800
69.549	24.012	1679.673	1374.364
70.563	23.905	1678.483	1372.439
71.578	23.936	1677.064	1371.397
72.593	23.986	1676.090	1370.865
73.607	23.964	1675.490	1370.089
74.622	23.886	1674.400	1368.472
75.636	23.970	1673.373	1368.159
76.651	23.900	1672.610	1366.876
77.666	23.898	1671.821	1366.091
78.680	23.935	1670.676	1365.322
79.695	23.869	1670.132	1364.250
80.709	23.886	1669.174	1363.481
81.724	23.938	1668.242	1362.990
82.739	23.982	1667.503	1362.606
83.753	23.979	1666.326	1361.505
84.768	23.997	1665.034	1360.464
85.782	23.935	1664.571	1359.494
86.797	24.003	1662.774	1358.425
87.812	23.918	1662.914	1357.764
88.826	23.957	1661.436	1356.737
89.841	23.853	1660.979	1355.453
90.855	23.936	1659.946	1355.117
91.870	23.954	1658.418	1353.889
92.884	23.929	1657.707	1353.003
93.899	23.839	1656.732	1351.401
94.914	23.919	1655.700	1351.048
95.928	23.976	1654.257	1350.184
96.943	23.903	1652.652	1348.196
97.957	23.974	1651.441	1347.632
98.972	23.987	1649.771	1346.249
99.987	24.048	1648.251	1345.350
101.001	23.937	1647.384	1343.684
102.016	23.936	1646.076	1342.487
103.030	23.896	1644.600	1340.867
104.045	23.919	1643.622	1340.121
105.060	23.985	1641.857	1339.059
106.074	23.952	1640.830	1337.859
107.089	23.985	1639.174	1336.635
108.103	23.894	1638.411	1335.212
109.118	24.066	1636.866	1335.129
110.133	23.913	1636.564	1333.613
111.147	23.965	1634.871	1332.509
112.162	24.086	1633.433	1332.120
113.176	24.053	1632.223	1330.771
114.191	24.053	1631.654	1330.191
115.206	24.017	1630.527	1328.880
116.220	23.972	1629.338	1327.458
117.235	24.039	1627.865	1326.640
118.249	23.985	1627.387	1325.735
119.264	24.025	1625.716	1324.549
120.279	24.036	1624.128	1323.222
121.293	23.974	1623.561	1322.184
122.308	24.101	1621.932	1321.680
123.322	24.053	1620.671	1320.178
124.337	24.004	1619.654	1318.875
125.352	24.092	1618.406	1318.389
126.366	24.104	1617.047	1317.255
127.381	24.139	1616.268	1316.763
128.395	24.095	1615.298	1315.534
129.410	24.050	1614.494	1314.427
130.424	24.117	1613.140	1313.702
131.439	24.077	1611.991	1312.362
132.454	24.057	1610.543	1310.913
133.468	24.016	1609.185	1309.395
134.483	24.053	1608.181	1308.730
135.497	24.034	1606.836	1307.386
136.512	24.071	1605.299	1306.284
137.527	24.119	1604.517	1305.887
138.541	24.110	1603.175	1304.613
139.556	24.118	1602.146	1303.723
140.570	24.113	1600.863	1302.524
141.585	24.051	1599.772	1301.064
142.600	24.083	1598.450	1300.108
143.614	24.053	1597.340	1298.873
144.629	24.109	1596.114	1298.170
145.643	24.044	1595.208	1296.846
146.658	24.152	1593.466	1296.104
147.673	23.977	1592.136	1293.628
148.687	24.035	1591.017	1293.026
149.702	24.081	1590.081	1292.486
150.716	24.048	1588.550	1290.891
151.731	23.972	1587.648	1289.495
152.746	24.085	1586.395	1289.178
153.760	24.098	1584.768	1287.836
154.775	24.090	1584.192	1287.199
155.789	24.148	1583.335	1286.809
156.804	24.083	1582.086	1285.204
157.819	24.186	1580.688	1284.700
158.833	24.097	1579.971	1283.361
159.848	24.121	1579.093	1282.712
160.862	24.109	1577.677	1281.361
161.877	24.128	1576.799	1280.672
162.892	24.193	1576.039	1280.405
163.906	24.178	1574.697	1279.097
164.921	24.195	1573.936	1278.483
165.935	24.159	1573.275	1277.579
166.950	24.153	1572.480	1276.775
167.964	24.228	1571.370	1276.295
168.979	24.257	1569.939	1275.227
169.994	24.223	1569.476	1274.500
171.008	24.280	1568.589	1274.070
172.023	24.181	1567.973	1272.749
173.037	24.182	1566.550	1271.495
174.052	24.228	1565.094	1270.526
175.067	24.156	1564.697	1269.576
176.081	24.177	1563.363	1268.535
177.096	24.223	1562.717	1268.226
178.110	24.183	1561.368	1266.736
179.125	24.287	1559.977	1266.230
180.140	24.260	1559.388	1265.449
181.154	24.280	1558.978	1265.143
182.169	24.372	1557.590	1264.562
183.183	24.332	1556.711	1263.449
184.198	24.264	1556.150	1262.403
185.213	24.210	1555.054	1261.021
186.227	24.288	1554.043	1260.640
187.242	24.272	1553.343	1259.850
188.256	24.275	1552.382	1258.979
189.271	24.232	1552.035	1258.282
190.286	24.359	1550.450	1257.776
191.300	24.315	1549.765	1256.799
192.315	24.308	1549.008	1256.032
193.329	24.302	1547.649	1254.771
194.344	24.442	1546.848	1254.996
195.359	24.341	1546.269	1253.705
196.373	24.335	1545.644	1253.044
197.388	24.350	1544.470	1252.088
198.402	24.350	1543.120	1250.887
199.417	24.251	1542.397	1249.495
200.432	24.337	1541.296	1249.095
201.446	24.226	1541.554	1248.414
202.461	24.263	1540.208	1247.472
203.475	24.292	1539.214	1246.758
204.490	24.378	1537.936	1246.217
205.504	24.301	1537.515	1245.229
206.519	24.329	1536.552	1244.528
207.534	24.310	1535.565	1243.490
208.548	24.383	1534.465	1242.997
209.563	24.373	1533.772	1242.259
210.577	24.367	1532.770	1241.290
211.592	24.322	1531.875	1240.148
212.607	24.330	1531.404	1239.707
213.621	24.344	1530.940	1239.320
214.636	24.374	1530.145	1238.774
215.650	24.350	1529.254	1237.782
216.665	24.495	1528.040	1237.690
217.680	24.414	1527.396	1236.503
218.694	24.382	1526.798	1235.684
219.709	24.464	1525.804	1235.336
220.723	24.405	1525.065	1234.225
221.738	24.487	1523.823	1233.679
222.753	24.408	1523.270	1232.570
223.767	24.261	1522.690	1230.978
224.782	24.388	1521.307	1230.627
225.796	24.461	1520.596	1230.450
226.811	24.484	1520.034	1230.044
227.826	24.423	1519.224	1228.858
228.840	24.472	1518.742	1228.695
229.855	24.516	1517.796	1228.127
230.869	24.467	1516.750	1226.836
231.884	24.515	1515.672	1226.181
232.899	24.500	1514.776	1225.243
233.913	24.503	1513.602	1224.209
234.928	24.471	1512.370	1222.887
235.942	24.496	1511.395	1222.158
236.957	24.564	1510.516	1221.806
237.972	24.516	1509.718	1220.727
238.986	24.548	1508.431	1219.794
240.001	24.576	1507.225	1218.905
241.015	24.585	1506.688	1218.419
242.030	24.659	1505.561	1217.907
243.045	24.613	1504.543	1216.658
244.059	24.750	1503.616	1216.736
245.074	24.760	1502.378	1215.698
246.088	24.666	1502.423	1214.987
247.103	24.709	1501.372	1214.317
248.117	24.735	1500.301	1213.523
249.132	24.732	1499.554	1212.792
250.147	24.712	1499.045	1212.139
251.161	24.712	1498.793	1211.823
252.176	24.811	1497.931	1211.690
253.190	24.748	1496.778	1210.226
254.205	24.779	1495.879	1209.599
255.220	24.805	1495.379	1209.265
256.234	24.697	1494.278	1207.541
257.249	24.791	1493.502	1207.437
258.263	24.804	1492.943	1206.965
259.278	24.799	1492.038	1206.096
260.293	24.801	1491.518	1205.579
261.307	24.811	1490.310	1204.565
262.322	24.759	1489.833	1203.721
263.336	24.923	1488.906	1203.970
264.351	24.793	1488.262	1202.467
265.366	24.842	1487.076	1201.732
266.380	24.813	1486.138	1200.673
267.395	24.835	1485.401	1200.124
268.409	24.855	1484.659	1199.549
269.424	24.948	1483.377	1199.030
270.439	24.868	1482.652	1197.803
271.453	24.845	1481.804	1196.859
272.468	24.801	1480.845	1195.684
273.482	24.888	1479.945	1195.431
274.497	24.912	1479.460	1195.093
275.512	24.909	1478.544	1194.228
276.526	24.954	1477.855	1193.868
277.541	24.974	1476.809	1193.052
278.555	24.880	1476.466	1192.043
279.570	24.944	1475.666	1191.717
280.585	25.045	1474.599	1191.420
281.599	24.966	1474.090	1190.381
282.614	24.892	1472.726	1188.683
283.628	24.916	1471.630	1187.848
284.643	24.855	1471.162	1186.964
285.657	24.934	1470.065	1186.497
286.672	24.906	1469.595	1185.822
287.687	24.909	1468.520	1184.873
288.701	25.025	1467.457	1184.677
289.716	24.965	1467.015	1183.818
290.730	24.964	1466.556	1183.338
291.745	25.031	1465.130	1182.523
292.760	25.084	1464.052	1181.898
293.774	25.024	1463.566	1181.008
294.789	25.085	1462.436	1180.391
295.803	25.039	1461.835	1179.500
296.818	25.162	1460.996	1179.525
297.833	25.116	1459.679	1178.057
298.847	25.088	1459.384	1177.529
299.862	25.143	1458.497	1177.072
300.876	25.147	1457.551	1176.235
301.891	25.109	1456.609	1175.121
302.906	25.135	1456.060	1174.742
303.920	25.151	1455.820	1174.545
304.935	25.205	1454.689	1173.884
305.949	25.215	1453.781	1173.111
306.964	25.224	1453.223	1172.623
307.979	25.176	1452.334	1171.484
308.993	25.198	1451.162	1170.578
310.008	25.315	1450.360	1170.590
311.022	25.269	1449.227	1169.275
312.037	25.233	1448.357	1168.234
313.052	25.205	1447.436	1167.207
314.066	25.290	1446.622	1167.002
315.081	25.314	1445.658	1166.277
316.095	25.263	1444.769	1165.122
317.110	25.195	1444.095	1164.034
318.125	25.308	1442.784	1163.607
319.139	25.355	1442.120	1163.271
320.154	25.200	1441.300	1161.507
321.168	25.338	1440.566	1161.705
322.183	25.341	1439.698	1160.919
323.197	25.352	1438.804	1160.171
324.212	25.371	1437.706	1159.306
325.227	25.357	1436.633	1158.242
326.241	25.397	1435.918	1157.821
327.256	25.331	1435.780	1157.183
328.270	25.436	1434.705	1156.890
329.285	25.475	1433.562	1156.117
330.300	25.443	1432.792	1155.189
331.314	25.545	1432.153	1155.230
332.329	25.425	1431.048	1153.462
333.343	25.488	1430.622	1153.420
334.358	25.486	1430.015	1152.817
335.373	25.520	1429.124	1152.217
336.387	25.565	1428.333	1151.762
337.402	25.431	1428.125	1150.637
338.416	25.445	1427.702	1150.285
339.431	25.510	1426.708	1149.797
340.446	25.573	1426.074	1149.584
341.460	25.666	1425.030	1149.238
342.475	25.713	1423.771	1148.420
343.489	25.662	1423.187	1147.524
344.504	25.707	1422.103	1146.836
345.519	25.625	1421.685	1145.872
346.533	25.627	1420.602	1144.910
347.548	25.645	1419.731	1144.221
348.562	25.604	1419.136	1143.382
349.577	25.720	1417.996	1143.096
350.592	25.727	1417.313	1142.490
351.606	25.596	1416.646	1141.021
352.621	25.616	1415.717	1140.297
353.635	25.582	1414.769	1139.220
354.650	25.688	1413.944	1139.126
355.665	25.638	1412.942	1137.903
356.679	25.719	1412.099	1137.631
357.694	25.740	1410.873	1136.676
358.708	25.780	1409.723	1135.904
359.723	25.783	1408.651	1134.957
360.738	25.720	1407.326	1133.392
361.752	25.661	1406.570	1132.310
362.767	25.603	1405.317	1130.839
363.781	25.744	1404.450	1130.924
364.796	25.739	1404.297	1130.673
365.810	25.795	1403.469	1130.255
366.825	25.844	1402.664	1129.814
367.840	25.837	1401.828	1128.998
368.854	25.866	1401.045	1128.446
369.869	25.867	1400.831	1128.183
370.883	25.860	1400.217	1127.548
371.898	25.946	1399.110	1127.092
372.913	25.952	1398.573	1126.595
373.927	25.944	1397.547	1125.620
374.942	25.929	1396.718	1124.759
375.956	25.904	1396.192	1124.082
376.971	26.008	1395.256	1123.878
377.986	26.075	1394.227	1123.362
379.000	25.849	1393.948	1121.630
380.015	25.928	1393.122	1121.362
381.029	25.915	1392.501	1120.678
382.044	25.999	1391.802	1120.540
383.059	26.028	1390.882	1119.878
384.073	26.036	1390.045	1119.158
385.088	25.915	1390.168	1118.409
386.102	26.015	1389.340	1118.263
387.117	26.098	1388.521	1118.020
388.132	26.075	1387.699	1117.113
389.146	26.010	1387.105	1116.137
390.161	26.041	1386.093	1115.416
391.175	26.222	1385.417	1115.891
392.190	26.143	1384.735	1114.755
393.205	26.163	1383.559	1113.832
394.219	26.141	1383.203	1113.313
395.234	26.153	1382.055	1112.364
396.248	26.116	1381.196	1111.346
397.263	26.154	1379.957	1110.481
398.278	26.188	1378.715	1109.592
399.292	26.213	1377.753	1108.877
400.307	26.224	1377.280	1108.466
401.321	26.248	1376.100	1107.562
402.336	26.264	1375.012	1106.689
403.350	26.236	1374.116	1105.700
404.365	26.225	1373.224	1104.814
405.380	26.233	1372.549	1104.222
406.394	26.352	1371.521	1104.023
407.409	26.283	1371.034	1103.113
408.423	26.228	1370.470	1102.228
409.438	26.350	1369.554	1102.134
410.453	26.378	1368.798	1101.601
411.467	26.374	1368.312	1101.088
412.482	26.447	1367.529	1100.804
413.496	26.364	1367.190	1099.930
414.511	26.307	1366.418	1098.863
415.526	26.438	1365.437	1098.776
416.540	26.435	1364.539	1097.937
417.555	26.540	1363.666	1097.771
418.569	26.434	1363.457	1096.864
419.584	26.364	1363.130	1096.078
420.599	26.467	1362.473	1096.078
421.613	133.932	1434.428	1786.625
422.628	131.570	1444.878	1786.729
