DTS Sentinel unit serial number:	SN413079Multiplexer serial number:	ORYXHardware model number:	OX4-SRSoftware version number:	ORYX F/W v4.00 Oryx Data Collector v3.7.2.0data status	okinstallation	princeton_trtdifferential loss correction	single-endedforward channel	channel 3reverse channel	N/Adate	2019/09/11time	09:18:11forward acquisition time	60.00reverse acquisition time	0.00gamma	496.2192k internal	0.2307k external	0.2307temperature offset calibration	0.9940default loss term (dB/km)	0.3790temperature slope calibration	1.0000multiplexer offset coefficient	1.0000multiplexer slope coefficient	1.0000fibre end	0.00T internal ref (°C)	34.44T ext. ref 1 (°C)	0.08T ext. ref 2 (°C)	31.30length (m)	temperature (°C)	Stokes	anti-Stokes-747.200	162.755	-0.119	0.170
-746.185	-200.000	0.008	0.390
-745.171	-200.000	0.024	-0.302
-744.156	-61.993	-0.526	0.224
-743.142	-167.630	-0.151	-0.006
-742.127	-200.000	-0.003	0.302
-741.112	-151.532	-0.444	0.033
-740.098	58.902	-0.061	-0.061
-739.083	-178.816	-0.206	-0.005
-738.069	688.308	0.079	0.210
-737.054	-109.381	-0.312	0.067
-736.039	-51.607	0.183	-0.087
-735.025	11.739	0.110	-0.086
-734.010	331.611	-0.068	0.133
-732.996	-13.703	-0.230	0.151
-731.981	10.360	-0.297	0.230
-730.966	88.945	0.233	-0.264
-729.952	-81.943	0.190	0.063
-728.937	800.000	0.097	-0.370
-727.923	-55.341	-0.076	0.035
-726.908	164.834	0.103	-0.148
-725.894	-137.316	-0.328	0.038
-724.879	800.000	-0.045	0.190
-723.864	783.633	-0.067	-0.186
-722.850	636.408	-0.130	-0.336
-721.835	-200.000	-0.020	0.215
-720.821	-19.913	0.083	-0.052
-719.806	800.000	0.062	-0.250
-718.791	295.630	-0.180	-0.334
-717.777	202.171	-0.107	0.168
-716.762	800.000	-0.057	0.198
-715.748	692.676	0.089	-0.237
-714.733	7.843	-0.256	-0.195
-713.718	-23.492	0.225	-0.137
-712.704	305.048	-0.091	-0.173
-711.689	1.480	-0.421	0.307
-710.675	800.000	-0.048	-0.200
-709.660	-28.664	-0.109	-0.064
-708.645	-128.069	-0.135	0.020
-707.631	-200.000	-0.014	-0.090
-706.616	-200.000	-0.004	-0.028
-705.602	-90.009	0.382	-0.113
-704.587	124.914	0.094	-0.120
-703.572	167.116	-0.086	-0.125
-702.558	-200.000	0.008	-0.185
-701.543	15.203	0.176	-0.140
-700.529	22.610	-0.270	-0.225
-699.514	-134.933	-0.155	-0.019
-698.499	-152.479	0.285	0.021
-697.485	724.126	0.079	-0.213
-696.470	-200.000	0.072	-0.332
-695.456	-126.982	-0.212	-0.032
-694.441	800.000	-0.098	0.288
-693.426	32.179	-0.194	0.170
-692.412	637.113	-0.171	-0.442
-691.397	-129.777	-0.160	0.022
-690.383	-200.000	0.070	-0.385
-689.368	-2.324	0.264	-0.188
-688.354	5.314	-0.103	-0.077
-687.339	-28.065	-0.176	-0.103
-686.324	800.000	0.030	0.102
-685.310	168.836	0.085	0.122
-684.295	-144.283	-0.369	-0.035
-683.281	-24.475	-0.166	0.100
-682.266	800.000	0.065	0.190
-681.251	-75.110	-0.199	0.072
-680.237	800.000	-0.033	0.142
-679.222	73.954	-0.123	0.131
-678.208	534.484	0.194	-0.467
-677.193	-137.306	-0.275	0.032
-676.178	56.891	-0.137	0.136
-675.164	-142.377	0.353	-0.035
-674.149	31.514	0.102	0.089
-673.135	173.387	0.085	0.124
-672.120	210.409	-0.087	-0.139
-671.105	-49.766	0.087	-0.042
-670.091	-141.992	-0.179	0.018
-669.076	-104.270	0.148	0.035
-668.062	297.566	-0.026	-0.048
-667.047	188.616	0.147	0.223
-666.032	-1.572	-0.154	-0.110
-665.018	-59.198	0.278	0.122
-664.003	143.917	0.118	0.159
-662.989	64.030	-0.145	0.147
-661.974	10.205	0.129	0.100
-660.959	-181.318	0.342	0.007
-659.945	-173.273	0.197	-0.006
-658.930	-200.000	-0.102	0.664
-657.916	-200.000	0.040	0.221
-656.901	800.000	0.060	-0.253
-655.886	-11.352	-0.110	-0.073
-654.872	-200.000	0.016	-0.263
-653.857	800.000	-0.102	-0.387
-652.843	152.067	-0.315	-0.436
-651.828	448.146	-0.214	0.477
-650.814	-41.162	0.311	-0.163
-649.799	-200.000	-0.033	-0.337
-648.784	42.645	0.071	0.065
-647.770	800.000	-0.047	0.166
-646.755	-100.899	-0.602	-0.150
-645.741	-55.164	0.154	-0.070
-644.726	82.730	-0.164	0.180
-643.711	367.649	-0.052	0.106
-642.697	-192.196	0.140	0.001
-641.682	-200.000	-0.021	-0.253
-640.668	-161.656	0.269	-0.014
-639.653	-200.000	0.011	0.149
-638.638	-98.216	-0.235	0.061
-637.624	100.920	0.203	0.239
-636.609	-85.849	-0.064	-0.020
-635.595	-200.000	0.000	-0.224
-634.580	-137.367	-0.153	-0.018
-633.565	43.611	0.063	-0.058
-632.551	-44.199	0.247	0.125
-631.536	283.543	0.048	0.087
-630.522	31.843	0.169	0.147
-629.507	-200.000	-0.037	-0.317
-628.492	285.525	-0.120	0.218
-627.478	-85.362	-0.326	-0.103
-626.463	800.000	0.053	0.195
-625.449	-62.476	-0.162	0.068
-624.434	-101.214	0.107	-0.027
-623.419	-200.000	-0.018	0.258
-622.405	-38.901	0.235	-0.125
-621.390	-83.819	0.276	-0.089
-620.376	-200.000	0.025	-0.139
-619.361	-21.480	-0.527	-0.325
-618.346	55.947	-0.171	-0.168
-617.332	208.900	0.155	0.245
-616.317	239.082	0.078	0.131
-615.303	-154.869	-0.107	-0.007
-614.288	-95.615	0.217	0.059
-613.273	91.996	0.113	-0.129
-612.259	-89.867	0.031	0.009
-611.244	166.962	-0.124	-0.178
-610.230	-200.000	-0.010	-0.085
-609.215	-114.298	-0.117	-0.023
-608.201	-139.048	-0.210	-0.023
-607.186	800.000	0.097	-0.290
-606.171	-169.151	-0.304	-0.011
-605.157	105.825	0.158	-0.189
-604.142	-200.000	0.009	0.122
-603.128	-200.000	-0.018	0.166
-602.113	-12.653	0.266	-0.175
-601.098	-40.532	0.262	-0.138
-600.084	-200.000	-0.009	-0.380
-599.069	-3.334	0.097	0.068
-598.055	-41.489	-0.199	0.103
-597.040	800.000	0.023	-0.073
-596.025	-200.000	0.048	0.213
-595.011	43.834	-0.056	0.052
-593.996	114.632	0.264	-0.326
-592.982	-200.000	0.014	0.078
-591.967	-200.000	0.030	0.152
-590.952	-54.054	-0.137	0.063
-589.938	100.488	-0.157	0.184
-588.923	800.000	0.011	-0.036
-587.909	162.277	0.150	0.213
-586.894	122.788	-0.059	0.075
-585.879	65.747	0.093	0.095
-584.865	97.957	0.187	0.217
-583.850	-200.000	-0.032	-0.324
-582.836	677.008	0.145	-0.382
-581.821	-43.528	0.442	0.226
-580.806	800.000	0.074	0.236
-579.792	-200.000	0.045	0.435
-578.777	800.000	0.032	0.118
-577.763	52.095	0.303	0.291
-576.748	3.972	-0.402	0.297
-575.733	119.914	-0.178	-0.223
-574.719	299.611	-0.089	-0.165
-573.704	192.282	-0.042	-0.064
-572.690	-43.734	0.340	-0.173
-571.675	74.615	-0.109	0.116
-570.661	147.809	0.208	-0.283
-569.646	-127.558	-0.207	-0.030
-568.631	95.549	-0.159	-0.184
-567.617	-80.697	-0.053	-0.018
-566.602	-123.933	-0.102	0.016
-565.588	-142.875	0.415	0.041
-564.573	-167.934	0.229	-0.009
-563.558	86.072	-0.181	0.201
-562.544	800.000	-0.083	0.246
-561.529	-8.115	0.374	0.255
-560.515	39.664	-0.159	-0.144
-559.500	800.000	0.110	-0.372
-558.485	393.545	-0.094	-0.197
-557.471	-0.652	-0.125	-0.090
-556.456	-66.914	-0.231	0.092
-555.442	-134.318	-0.202	-0.025
-554.427	-200.000	-0.104	0.550
-553.412	87.251	0.066	-0.074
-552.398	-200.000	0.009	-0.195
-551.383	276.927	0.043	-0.076
-550.369	-172.591	-0.098	-0.003
-549.354	137.219	-0.183	-0.242
-548.339	540.864	0.074	-0.179
-547.325	800.000	0.103	-0.331
-546.310	468.249	0.101	-0.228
-545.296	-200.000	0.048	-0.270
-544.281	117.708	0.082	-0.102
-543.266	-200.000	-0.045	-0.355
-542.252	12.982	-0.138	0.108
-541.237	-185.383	-0.517	-0.008
-540.223	800.000	0.016	0.048
-539.208	13.807	0.105	0.082
-538.193	51.496	0.090	0.086
-537.179	-31.212	0.089	-0.050
-536.164	134.028	-0.203	-0.265
-535.150	-37.175	-0.024	-0.013
-534.135	-87.851	-0.393	-0.119
-533.121	534.551	-0.051	-0.123
-532.106	-34.167	-0.061	-0.034
-531.091	38.419	-0.185	0.166
-530.077	83.993	-0.002	-0.002
-529.062	-200.000	0.085	-0.393
-528.048	223.996	0.102	-0.165
-527.033	-200.000	-0.187	-0.001
-526.018	-87.981	0.334	-0.101
-525.004	800.000	0.031	-0.096
-523.989	-111.065	0.231	-0.048
-522.975	-140.793	-0.149	0.015
-521.960	-200.000	0.020	0.219
-520.945	-200.000	0.393	-0.000
-519.931	217.681	-0.167	0.269
-518.916	-200.000	0.016	0.131
-517.902	21.778	0.218	0.179
-516.887	106.340	-0.140	-0.167
-515.872	-67.304	-0.047	-0.019
-514.858	-200.000	0.046	-0.310
-513.843	-36.169	0.114	0.062
-512.829	406.692	-0.116	0.247
-511.814	-87.776	0.443	0.135
-510.799	-181.687	0.039	0.001
-509.785	214.630	0.105	-0.167
-508.770	169.889	0.075	0.107
-507.756	-64.907	-0.141	-0.057
-506.741	30.733	-0.078	0.067
-505.726	203.667	-0.137	0.213
-504.712	78.148	-0.176	0.190
-503.697	-39.458	-0.302	-0.160
-502.683	72.448	0.139	0.146
-501.668	-200.000	-0.004	0.190
-500.653	800.000	-0.060	-0.263
-499.639	-37.384	0.219	-0.118
-498.624	-146.836	-0.215	-0.019
-497.610	595.824	-0.148	-0.368
-496.595	20.928	-0.203	-0.166
-495.581	-200.000	0.033	0.581
-494.566	534.049	0.022	0.052
-493.551	31.145	-0.311	0.269
-492.537	231.986	-0.148	-0.244
-491.522	46.691	0.046	-0.043
-490.508	800.000	0.096	0.323
-489.493	-118.953	0.072	-0.013
-488.478	-1.090	-0.263	0.188
-487.464	-7.560	-0.231	0.158
-486.449	-125.601	-0.061	0.009
-485.435	18.632	0.144	-0.116
-484.420	-51.892	-0.236	0.111
-483.405	-22.207	0.126	0.077
-482.391	-49.376	-0.262	0.126
-481.376	-69.862	0.233	0.090
-480.362	-110.908	0.195	-0.040
-479.347	-200.000	0.018	-0.097
-478.332	-148.717	-0.204	0.017
-477.318	-50.642	0.032	-0.015
-476.303	-89.398	0.184	0.054
-475.289	72.184	-0.127	-0.134
-474.274	205.420	0.129	-0.202
-473.259	101.546	-0.169	0.199
-472.245	5.276	0.256	-0.190
-471.230	118.653	-0.208	-0.259
-470.216	-76.745	0.068	0.024
-469.201	-144.029	-0.094	0.009
-468.186	-11.795	0.189	0.125
-467.172	-107.521	0.179	0.040
-466.157	676.993	-0.063	-0.165
-465.143	-200.000	-0.016	-0.157
-464.128	-45.961	0.138	-0.068
-463.113	546.853	0.098	0.236
-462.099	-200.000	-0.024	-0.147
-461.084	550.725	0.093	0.225
-460.070	-104.038	-0.112	-0.026
-459.055	18.004	-0.430	0.345
-458.040	411.108	-0.090	0.192
-457.026	-200.000	0.034	-0.332
-456.011	101.297	-0.096	0.112
-454.997	800.000	0.030	-0.132
-453.982	-91.290	0.245	-0.070
-452.968	153.435	0.219	0.302
-451.953	132.621	0.049	-0.064
-450.938	-42.111	0.150	0.077
-449.924	173.264	-0.233	0.338
-448.909	-200.000	0.055	0.311
-447.895	-200.000	-0.003	0.138
-446.880	-200.000	-0.006	0.147
-445.865	-144.266	0.101	-0.009
-444.851	-200.000	-0.070	-0.375
-443.836	-200.000	-0.053	-0.321
-442.822	420.693	-0.192	0.414
-441.807	654.222	-0.055	0.141
-440.792	-132.642	0.349	-0.045
-439.778	304.199	0.047	-0.088
-438.763	-65.803	0.257	0.103
-437.749	-4.150	0.166	0.116
-436.734	-62.795	-0.114	0.048
-435.719	-34.317	0.258	-0.142
-434.705	-108.575	-0.172	0.037
-433.690	-67.928	-0.102	0.040
-432.676	176.108	0.176	-0.257
-431.661	40.192	-0.131	-0.118
-430.646	-58.146	0.174	-0.076
-429.632	800.000	-0.098	0.328
-428.617	-200.000	-0.060	0.472
-427.603	-200.000	-0.016	0.249
-426.588	-73.910	-0.104	0.038
-425.573	-115.567	0.200	0.038
-424.559	135.231	-0.124	0.162
-423.544	105.560	0.213	-0.253
-422.530	645.936	-0.120	-0.308
-421.515	485.929	-0.051	-0.118
-420.500	-23.003	-0.042	-0.025
-419.486	-47.482	0.330	-0.161
-418.471	110.453	-0.098	0.119
-417.457	16.225	-0.072	0.057
-416.442	179.381	0.164	0.240
-415.428	800.000	0.081	-0.283
-414.413	-73.386	-0.143	-0.053
-413.398	-142.491	-0.377	0.037
-412.384	-82.719	0.262	-0.085
-411.369	-150.753	-0.183	0.014
-410.355	-200.000	0.030	-0.167
-409.340	463.759	0.032	-0.071
-408.325	103.690	-0.132	-0.156
-407.311	-136.922	-0.356	-0.041
-406.296	328.896	-0.110	-0.212
-405.282	-62.707	-0.123	-0.051
-404.267	508.206	0.067	-0.156
-403.252	-99.850	0.218	-0.055
-402.238	800.000	0.076	-0.238
-401.223	187.096	0.072	-0.108
-400.209	54.922	0.157	-0.152
-399.194	-200.000	-0.070	-0.371
-398.179	800.000	-0.072	0.233
-397.165	24.038	0.303	0.250
-396.150	17.224	0.134	0.107
-395.136	-92.681	-0.205	0.057
-394.121	-160.386	-0.099	-0.005
-393.106	65.434	0.060	0.061
-392.092	150.349	-0.138	-0.188
-391.077	270.594	0.020	-0.036
-390.063	800.000	-0.034	-0.137
-389.048	40.696	0.112	-0.101
-388.033	-105.771	-0.251	-0.057
-387.019	-20.107	0.203	0.126
-386.004	-24.739	-0.127	-0.076
-384.990	-84.552	-0.362	-0.115
-383.975	146.759	-0.063	-0.085
-382.960	404.055	-0.164	0.346
-381.946	778.458	-0.061	0.166
-380.931	91.319	-0.193	-0.218
-379.917	731.379	-0.103	-0.275
-378.902	-92.517	0.162	0.046
-377.888	-200.000	-0.061	0.295
-376.873	-200.000	0.033	0.175
-375.858	-200.000	0.014	0.079
-374.844	686.586	0.113	-0.296
-373.829	-100.862	0.042	-0.010
-372.815	-200.000	-0.037	-0.183
-371.800	308.810	-0.167	0.312
-370.785	-200.000	-0.042	0.411
-369.771	90.869	0.153	-0.172
-368.756	241.422	0.124	0.208
-367.742	-200.000	-0.182	-0.001
-366.727	-200.000	-0.011	-0.065
-365.712	-155.679	0.254	-0.016
-364.698	-58.982	0.281	-0.121
-363.683	-200.000	-0.041	0.342
-362.669	800.000	0.038	0.146
-361.654	-157.892	0.216	0.013
-360.639	-76.667	0.079	-0.028
-359.625	68.645	0.283	-0.291
-358.610	-19.519	0.113	-0.070
-357.596	800.000	0.080	-0.269
-356.581	-124.971	-0.201	-0.031
-355.566	-13.044	-0.119	-0.077
-354.552	-169.691	-0.263	0.010
-353.537	-88.628	0.162	0.048
-352.523	-200.000	0.011	-0.171
-351.508	-61.547	-0.108	0.046
-350.493	67.518	-0.047	0.048
-349.479	658.187	-0.023	0.059
-348.464	-200.000	-0.011	0.285
-347.450	800.000	0.072	0.245
-346.435	409.627	0.025	-0.052
-345.420	-20.436	-0.376	-0.232
-344.406	14.152	0.242	-0.188
-343.391	-119.454	0.401	-0.070
-342.377	-111.742	-0.027	-0.005
-341.362	666.992	0.068	-0.177
-340.348	19.757	-0.116	0.093
-339.333	-8.379	-0.139	-0.093
-338.318	800.000	-0.059	-0.194
-337.304	-6.454	-0.165	-0.113
-336.289	167.770	0.055	0.078
-335.275	51.153	0.138	-0.131
-334.260	-200.000	-0.017	0.295
-333.245	195.365	-0.237	-0.360
-332.231	598.944	0.038	-0.093
-331.216	135.433	-0.132	-0.172
-330.202	-191.396	-0.177	0.002
-329.187	-200.000	0.007	-0.034
-328.172	-57.720	0.214	0.094
-327.158	-101.730	0.119	0.029
-326.143	-200.000	-0.031	0.185
-325.129	800.000	0.135	0.478
-324.114	-91.501	0.081	0.023
-323.099	-136.671	0.228	-0.026
-322.085	-59.272	-0.253	-0.109
-321.070	265.898	0.150	-0.262
-320.056	-65.475	0.188	0.076
-319.041	-200.000	-0.013	-0.206
-318.026	-122.400	0.414	-0.067
-317.012	800.000	-0.101	0.361
-315.997	-148.869	0.143	0.012
-314.983	27.382	0.049	0.042
-313.968	-27.666	-0.128	0.075
-312.953	-200.000	-0.007	0.136
-311.939	-119.607	0.217	0.038
-310.924	-110.016	-0.106	0.022
-309.910	-200.000	0.032	0.170
-308.895	800.000	-0.127	0.350
-307.880	-130.420	-0.432	-0.059
-306.866	101.726	-0.159	-0.186
-305.851	800.000	0.101	0.328
-304.837	-36.720	0.355	-0.191
-303.822	216.920	-0.050	0.079
-302.807	405.202	0.102	0.215
-301.793	-104.572	-0.226	-0.052
-300.778	189.764	0.115	-0.173
-299.764	-200.000	0.010	-0.365
-298.749	132.150	-0.120	0.154
-297.735	36.691	0.171	0.151
-296.720	763.333	0.020	-0.054
-295.705	800.000	-0.011	-0.038
-294.691	94.419	-0.063	-0.071
-293.676	413.222	0.093	-0.197
-292.662	431.422	0.088	-0.191
-291.647	359.256	0.061	-0.121
-290.632	-16.149	0.264	0.167
-289.618	124.485	-0.111	0.140
-288.603	-95.969	-0.126	-0.033
-287.589	167.925	0.261	-0.371
-286.574	208.888	-0.081	0.127
-285.559	55.513	-0.082	-0.079
-284.545	-197.414	0.261	0.002
-283.530	-117.176	0.318	0.058
-282.516	96.267	-0.140	0.160
-281.501	-200.000	-0.109	0.609
-280.486	-200.000	0.026	0.150
-279.472	-95.128	-0.711	-0.192
-278.457	-141.123	0.118	-0.012
-277.443	-200.000	-0.185	0.000
-276.428	-200.000	-0.036	-0.549
-275.413	-52.704	0.179	0.082
-274.399	-200.000	0.012	0.238
-273.384	13.130	-0.120	-0.093
-272.370	43.401	0.036	-0.033
-271.355	343.908	0.035	-0.068
-270.340	-135.525	-0.316	-0.038
-269.326	-200.000	-0.013	-0.202
-268.311	-200.000	-0.016	0.287
-267.297	-34.081	0.256	0.141
-266.282	-200.000	0.087	0.530
-265.267	-6.046	0.389	-0.265
-264.253	-200.000	-0.002	-0.037
-263.238	-33.688	0.146	0.080
-262.224	-91.915	-0.478	0.135
-261.209	-200.000	-0.014	0.150
-260.195	-174.329	0.124	-0.004
-259.180	99.159	0.179	-0.207
-258.165	-33.634	0.285	0.157
-257.151	-147.303	-0.163	-0.014
-256.136	-200.000	0.044	0.210
-255.122	-200.000	-0.008	-0.162
-254.107	-114.676	-0.068	0.013
-253.092	83.110	0.030	0.032
-252.078	-200.000	0.017	0.314
-251.063	175.245	0.105	0.152
-250.049	159.939	-0.274	-0.381
-249.034	340.216	0.033	0.064
-248.019	-100.575	-0.199	0.049
-247.005	-175.747	-0.110	-0.003
-245.990	46.131	-0.206	-0.190
-244.976	57.065	0.070	-0.068
-243.961	33.462	0.141	-0.122
-242.946	65.814	-0.111	0.112
-241.932	152.364	-0.167	0.227
-240.917	-18.082	-0.299	-0.187
-239.903	-116.420	-0.111	0.020
-238.888	-86.968	0.209	0.063
-237.873	285.336	0.156	-0.281
-236.859	-70.225	0.196	-0.074
-235.844	503.209	0.051	0.116
-234.830	68.468	-0.040	-0.041
-233.815	93.726	0.081	-0.092
-232.800	-113.270	0.228	-0.045
-231.786	-101.555	0.324	0.078
-230.771	-163.028	-0.305	-0.015
-229.757	-200.000	0.013	-0.146
-228.742	800.000	-0.049	0.197
-227.727	-88.618	-0.068	0.020
-226.713	-48.647	-0.196	0.094
-225.698	-27.320	0.163	0.095
-224.684	-137.685	-0.204	-0.023
-223.669	-92.431	0.220	0.062
-222.655	-41.540	-0.573	-0.294
-221.640	-121.444	0.082	-0.014
-220.625	18.502	-0.121	0.096
-219.611	700.247	0.053	-0.138
-218.596	800.000	-0.019	0.061
-217.582	22.004	-0.086	-0.070
-216.567	158.918	-0.050	-0.069
-215.552	-15.751	-0.273	-0.173
-214.538	-200.000	0.028	-0.164
-213.523	220.197	0.085	0.136
-212.509	21.236	0.066	0.053
-211.494	-200.000	-0.001	0.056
-210.479	-6.282	0.105	-0.072
-209.465	71.745	-0.195	-0.202
-208.450	-200.000	-0.020	-0.242
-207.436	292.273	0.055	-0.100
-206.421	-200.000	-0.066	-0.337
-205.406	80.891	-0.044	-0.048
-204.392	-200.000	-0.007	0.172
-203.377	246.286	0.087	0.147
-202.363	-95.169	0.282	0.076
-201.348	-200.000	0.009	0.145
-200.333	800.000	-0.069	-0.270
-199.319	-61.085	-0.137	0.057
-198.304	-105.161	0.254	0.058
-197.290	164.482	0.115	-0.161
-196.275	-200.000	-0.002	-0.116
-195.260	-200.000	-0.025	-0.202
-194.246	-63.225	-0.225	-0.092
-193.231	-200.000	-0.014	-0.162
-192.217	-200.000	0.002	0.101
-191.202	124.821	0.097	0.122
-190.187	800.000	-0.197	0.561
-189.173	-200.000	0.027	0.233
-188.158	79.458	0.207	0.221
-187.144	35.351	-0.231	-0.202
-186.129	-140.352	-0.285	0.030
-185.114	-72.740	-0.128	-0.047
-184.100	-114.434	0.335	0.064
-183.085	82.999	0.063	-0.068
-182.071	-75.502	-0.252	0.089
-181.056	-104.205	0.110	-0.025
-180.042	48.060	0.208	-0.193
-179.027	-113.007	0.310	0.061
-178.012	165.836	0.144	0.203
-176.998	34.737	0.057	-0.050
-175.983	88.580	-0.216	0.238
-174.969	800.000	0.049	0.137
-173.954	241.693	0.094	0.156
-172.939	800.000	-0.061	0.222
-171.925	-154.016	0.217	-0.015
-170.910	633.741	0.105	0.264
-169.896	447.752	0.122	0.267
-168.881	800.000	0.095	-0.322
-167.866	-46.529	-0.248	0.121
-166.852	-200.000	0.048	0.239
-165.837	638.851	0.125	0.315
-164.823	-194.472	-0.187	-0.001
-163.808	-17.658	0.225	0.141
-162.793	113.270	-0.082	-0.098
-161.779	96.689	-0.112	-0.128
-160.764	220.095	-0.174	-0.277
-159.750	-200.000	-0.023	-0.228
-158.735	314.307	-0.074	-0.138
-157.720	457.869	-0.111	-0.245
-156.706	272.415	0.085	0.148
-155.691	131.862	0.201	-0.257
-154.677	800.000	0.083	0.349
-153.662	-9.184	0.243	0.162
-152.647	-8.186	-0.178	0.119
-151.633	27.195	-0.156	0.130
-150.618	336.071	-0.163	0.314
-149.604	-50.428	0.122	0.057
-148.589	-130.992	-0.190	0.025
-147.574	128.153	-0.129	0.164
-146.560	-162.951	0.290	-0.014
-145.545	-127.391	0.379	0.055
-144.531	644.907	-0.077	-0.195
-143.516	135.918	0.134	0.173
-142.502	-7.648	-0.104	0.070
-141.487	-153.290	0.036	-0.003
-140.472	94.477	-0.091	-0.103
-139.458	-200.000	-0.023	-0.344
-138.443	800.000	-0.033	-0.093
-137.429	-110.781	0.163	0.033
-136.414	269.064	0.125	-0.218
-135.399	800.000	0.091	-0.254
-134.385	-200.000	-0.022	-0.212
-133.370	106.032	-0.054	0.064
-132.356	-97.431	-0.314	-0.081
-131.341	800.000	-0.092	-0.275
-130.326	800.000	0.043	0.170
-129.312	82.137	-0.083	-0.090
-128.297	109.620	-0.094	-0.112
-127.283	800.000	0.034	-0.095
-126.268	-200.000	-0.009	-0.423
-125.253	-76.123	-0.139	0.049
-124.239	-7.004	-0.202	0.136
-123.224	-200.000	-0.057	0.304
-122.210	-41.871	-0.161	-0.082
-121.195	800.000	0.061	-0.213
-120.180	800.000	-0.026	-0.086
-119.166	673.051	-0.130	0.334
-118.151	800.000	0.039	-0.133
-117.137	-200.000	0.016	0.169
-116.122	-129.871	-0.254	-0.035
-115.107	36.689	-0.209	-0.183
-114.093	22.487	0.224	0.182
-113.078	800.000	0.034	0.107
-112.064	-200.000	0.000	-0.101
-111.049	332.452	-0.076	-0.146
-110.034	-200.000	0.013	0.190
-109.020	800.000	0.021	0.064
-108.005	-200.000	0.006	-0.174
-106.991	-200.000	0.018	0.258
-105.976	449.240	0.098	0.214
-104.962	37.863	0.109	-0.096
-103.947	456.069	0.118	-0.260
-102.932	-40.620	0.154	-0.079
-101.918	87.492	0.198	0.217
-100.903	-200.000	-0.002	-0.330
-99.889	-200.000	0.008	0.232
-98.874	-200.000	-0.019	0.129
-97.859	707.808	-0.065	-0.170
-96.845	-29.540	0.264	-0.150
-95.830	-80.244	0.158	0.052
-94.816	-58.429	-0.002	-0.001
-93.801	-6.601	0.139	0.094
-92.786	-27.474	-0.342	-0.197
-91.772	-108.801	0.294	-0.062
-90.757	141.023	-0.095	-0.125
-89.743	223.974	0.091	0.146
-88.728	626.294	-0.147	0.368
-87.713	576.389	0.023	0.056
-86.699	168.593	0.038	-0.054
-85.684	-151.606	-0.258	0.019
-84.670	-200.000	-0.035	-0.162
-83.655	-132.966	0.454	0.057
-82.640	-131.986	0.270	-0.035
-81.626	46.324	0.241	-0.221
-80.611	-66.001	0.071	-0.028
-79.597	800.000	0.057	0.200
-78.582	271.946	-0.107	0.188
-77.567	-200.000	-0.028	0.271
-76.553	-142.527	0.321	0.031
-75.538	-158.239	-0.234	-0.014
-74.524	-200.000	0.028	-0.176
-73.509	-32.645	-0.059	0.033
-72.494	-26.852	-0.138	-0.080
-71.480	159.091	0.064	0.088
-70.465	-132.391	-0.115	-0.015
-69.451	-36.416	0.361	-0.193
-68.436	62.649	0.211	-0.209
-67.422	-200.000	-0.066	0.465
-66.407	-124.317	-0.437	0.068
-65.392	-200.000	-0.012	-0.279
-64.378	124.341	0.111	0.138
-63.363	143.708	0.222	-0.293
-62.349	344.778	0.134	0.260
-61.334	79.297	-0.810	-0.860
-60.319	-98.119	0.694	0.177
-59.305	-200.000	-0.129	-0.850
-58.290	314.957	0.542	1.011
-57.276	366.364	0.702	1.401
-56.261	-200.000	95.712	535.511
-55.246	576.534	1384.289	3348.351
-54.232	183.977	2621.229	3839.615
-53.217	116.281	2222.512	2695.618
-52.203	44.621	1754.186	1596.172
-51.188	37.660	1563.023	1373.293
-50.173	35.161	1535.553	1331.762
-49.159	52.604	1586.595	1499.817
-48.144	56.094	1604.776	1541.639
-47.130	37.940	1560.332	1372.684
-46.115	34.718	1544.633	1336.323
-45.100	34.521	1541.166	1331.895
-44.086	34.483	1539.260	1329.927
-43.071	34.425	1537.911	1328.306
-42.057	34.473	1536.147	1327.066
-41.042	34.368	1534.508	1324.871
-40.027	34.407	1533.579	1324.285
-39.013	34.375	1531.719	1322.401
-37.998	34.472	1530.050	1321.579
-36.984	34.408	1529.538	1320.648
-35.969	34.426	1527.700	1319.128
-34.954	34.388	1526.506	1317.785
-33.940	34.425	1525.088	1316.763
-32.925	34.438	1523.297	1315.252
-31.911	34.465	1522.532	1314.728
-30.896	34.467	1521.403	1313.716
-29.881	34.515	1519.410	1312.270
-28.867	34.480	1518.311	1311.028
-27.852	34.489	1516.882	1309.807
-26.838	34.544	1515.138	1308.621
-25.823	34.445	1513.922	1306.844
-24.809	34.450	1512.245	1305.379
-23.794	34.464	1510.969	1304.320
-22.779	34.548	1509.439	1303.523
-21.765	34.526	1508.403	1302.425
-20.750	34.480	1507.303	1301.113
-19.736	34.466	1505.871	1299.727
-18.721	34.484	1505.319	1299.321
-17.706	34.437	1503.991	1297.808
-16.692	34.499	1503.240	1297.526
-15.677	34.413	1501.924	1295.756
-14.663	34.461	1501.178	1295.388
-13.648	34.330	1499.777	1293.237
-12.633	34.494	1498.495	1293.194
-11.619	34.392	1497.952	1291.979
-10.604	34.359	1497.133	1290.996
-9.590	34.396	1496.051	1290.269
-8.575	34.363	1495.762	1289.741
-7.560	34.401	1494.902	1289.206
-6.546	34.415	1494.110	1288.568
-5.531	34.391	1493.140	1287.519
-4.517	34.298	1492.018	1285.872
-3.502	34.328	1491.546	1285.615
-2.487	34.303	1490.580	1284.560
-1.473	34.408	1488.981	1283.840
-0.458	34.364	1488.031	1282.678
0.556	32.785	1478.182	1273.150
1.571	30.221	1452.342	1233.757
2.586	27.141	1390.794	1161.712
3.600	25.747	1307.585	1083.729
4.615	24.292	1261.142	1036.688
5.629	19.911	1202.177	963.796
6.644	9.255	1111.390	835.790
7.659	1.312	1067.853	763.167
8.673	0.242	1061.789	753.411
9.688	0.145	1058.723	750.688
10.702	-0.062	1057.491	748.718
11.717	-0.004	1055.487	747.520
12.731	3.704	1059.742	768.954
13.746	13.603	1074.954	829.699
14.761	20.769	1083.418	872.191
15.775	21.975	1084.334	878.894
16.790	22.080	1083.788	878.900
17.804	21.894	1083.306	877.500
18.819	21.666	1082.190	875.378
19.834	21.702	1081.908	875.254
20.848	21.905	1080.878	875.355
21.863	21.951	1080.868	875.500
22.877	21.836	1080.581	874.620
23.892	21.857	1079.937	874.126
24.907	21.854	1078.402	872.788
25.921	21.833	1078.152	872.407
26.936	21.854	1077.301	871.745
27.950	21.803	1075.710	870.123
28.965	21.778	1074.672	869.084
29.980	21.615	1073.921	867.594
30.994	21.682	1071.914	866.228
32.009	21.724	1071.778	866.247
33.023	21.755	1070.971	865.671
34.038	21.738	1069.444	864.279
35.053	21.706	1068.790	863.515
36.067	21.788	1068.077	863.267
37.082	21.788	1067.743	862.920
38.096	21.850	1066.834	862.411
39.111	21.932	1066.585	862.541
40.126	22.126	1065.045	862.167
41.140	21.961	1063.766	860.251
42.155	21.709	1062.578	857.980
43.169	21.412	1061.425	855.517
44.184	21.414	1060.133	854.411
45.199	21.464	1059.361	853.957
46.213	21.423	1058.102	852.667
47.228	21.417	1057.004	851.677
48.242	21.635	1056.152	851.975
49.257	21.713	1055.205	851.517
50.271	21.602	1054.619	850.430
51.286	21.732	1054.366	850.781
52.301	21.810	1053.382	850.292
53.315	21.834	1052.329	849.479
54.330	21.752	1051.918	848.678
55.344	21.671	1050.901	847.388
56.359	21.660	1050.547	846.974
57.374	21.790	1048.790	846.113
58.388	21.673	1048.122	844.935
59.403	21.596	1047.391	843.898
60.417	21.503	1047.069	843.116
61.432	21.447	1045.734	841.699
62.447	21.433	1045.052	841.006
63.461	21.662	1044.436	841.535
64.476	21.628	1043.674	840.686
65.490	21.564	1042.817	839.613
66.505	21.493	1041.657	838.264
67.520	21.724	1040.405	838.286
68.534	21.582	1040.219	837.388
69.549	21.437	1039.412	835.969
70.563	21.242	1037.905	833.753
71.578	21.050	1037.205	832.202
72.593	21.064	1036.130	831.330
73.607	20.939	1034.996	829.751
74.622	20.977	1034.075	829.121
75.636	21.508	1033.518	831.123
76.651	21.510	1032.763	830.452
77.666	21.355	1032.275	829.253
78.680	21.256	1031.024	827.704
79.695	21.298	1030.637	827.521
80.709	21.392	1029.730	827.161
81.724	21.485	1029.303	827.186
82.739	21.347	1027.845	825.292
83.753	21.363	1027.451	824.977
84.768	21.531	1027.116	825.427
85.782	21.883	1026.317	826.369
86.797	22.133	1025.388	826.725
87.812	22.059	1024.630	825.692
88.826	21.912	1023.484	824.008
89.841	21.885	1022.474	822.995
90.855	22.061	1021.457	822.928
91.870	22.114	1020.778	822.554
92.884	21.963	1020.366	821.443
93.899	22.016	1019.126	820.619
94.914	22.002	1017.697	819.331
95.928	21.887	1017.933	818.913
96.943	21.949	1016.810	818.226
97.957	21.654	1015.368	815.619
98.972	21.637	1013.985	814.357
99.987	21.317	1013.231	812.192
101.001	21.279	1013.043	811.792
102.016	21.696	1012.081	812.888
103.030	21.767	1010.821	812.130
104.045	21.763	1009.882	811.288
105.060	21.500	1008.879	809.194
106.074	21.369	1007.796	807.645
107.089	21.453	1007.002	807.327
108.103	21.864	1006.071	808.403
109.118	21.903	1005.440	808.005
110.133	21.595	1004.553	805.804
111.147	21.618	1003.384	804.901
112.162	21.618	1002.228	803.902
113.176	21.252	1001.050	801.207
114.191	21.322	1000.458	800.982
115.206	21.515	999.133	800.734
116.220	21.290	997.756	798.534
117.235	21.042	997.252	796.924
118.249	21.218	996.538	797.088
119.264	21.301	995.617	796.659
120.279	21.065	994.892	794.931
121.293	21.185	993.757	794.501
122.308	21.215	993.350	794.241
123.322	21.337	992.594	794.125
124.337	21.348	990.985	792.814
125.352	21.154	990.106	791.164
126.366	20.658	988.466	787.539
127.381	20.441	986.586	784.988
128.395	21.050	986.856	787.885
129.410	21.790	985.988	790.462
130.424	21.809	985.787	790.317
131.439	21.725	984.595	788.913
132.454	21.606	984.334	788.099
133.468	21.740	982.769	787.378
134.483	21.604	981.899	786.000
135.497	21.676	981.286	785.761
136.512	21.998	980.514	786.519
137.527	21.907	980.148	785.748
138.541	21.991	979.096	785.210
139.556	21.962	978.593	784.606
140.570	21.954	977.609	783.713
141.585	21.937	976.681	782.826
142.600	22.043	976.252	782.884
143.614	22.000	974.815	781.472
144.629	21.967	974.117	780.698
145.643	22.342	973.475	781.779
146.658	22.083	972.383	779.682
147.673	22.002	970.790	777.979
148.687	21.910	970.177	777.011
149.702	21.697	969.013	775.065
150.716	21.707	967.885	774.139
151.731	21.764	966.771	773.433
152.746	21.655	966.273	772.485
153.760	21.879	966.127	773.286
154.775	21.964	965.341	772.963
155.789	22.094	964.103	772.479
156.804	22.155	962.966	771.765
157.819	21.955	962.350	770.325
158.833	22.186	961.443	770.543
159.848	22.069	961.228	769.792
160.862	22.118	960.114	769.046
161.877	21.998	958.738	767.350
162.892	22.039	958.337	767.139
163.906	22.160	956.968	766.503
164.921	22.156	956.562	766.093
165.935	21.998	955.385	764.394
166.950	22.104	954.264	763.893
167.964	22.129	953.257	763.128
168.979	21.963	952.469	761.708
169.994	21.854	951.432	760.338
171.008	21.834	950.002	759.042
172.023	22.023	949.256	759.196
173.037	22.336	948.507	759.881
174.052	21.978	947.496	757.461
175.067	21.876	946.194	755.915
176.081	21.682	945.570	754.512
177.096	21.753	945.266	754.509
178.110	21.753	943.872	753.329
179.125	21.639	943.404	752.400
180.140	21.480	941.833	750.396
181.154	21.514	940.795	749.651
182.169	21.469	940.912	749.484
183.183	21.776	940.347	750.281
184.198	22.073	939.934	751.157
185.213	21.961	939.363	750.154
186.227	21.888	938.534	749.114
187.242	22.012	938.145	749.266
188.256	22.120	937.066	748.798
189.271	22.082	936.206	747.886
190.286	22.119	935.952	747.771
191.300	21.935	935.035	746.192
192.315	21.568	933.634	743.448
193.329	20.771	932.175	738.841
194.344	20.299	931.070	735.899
195.359	21.060	930.795	738.840
196.373	21.722	931.645	742.254
197.388	22.037	931.123	743.107
198.402	21.944	930.523	742.170
199.417	21.799	929.960	741.039
200.432	22.075	929.046	741.412
201.446	21.848	928.186	739.702
202.461	21.505	927.855	737.926
203.475	21.605	926.975	737.584
204.490	21.264	925.810	735.157
205.504	19.995	923.829	728.188
206.519	20.445	923.622	729.851
207.534	21.491	923.801	734.322
208.548	21.453	923.194	733.612
209.563	21.840	923.267	735.227
210.577	21.824	922.761	734.694
211.592	21.578	921.935	732.942
212.607	22.031	921.262	734.238
213.621	22.094	921.036	734.256
214.636	22.066	920.332	733.510
215.650	22.074	919.550	732.858
216.665	22.033	918.938	732.133
217.680	22.166	918.848	732.549
218.694	22.276	917.960	732.236
219.709	21.865	916.982	729.680
220.723	21.462	916.136	727.268
221.738	21.755	915.278	727.740
222.753	21.876	915.177	728.096
223.767	21.895	914.189	727.325
224.782	21.998	913.654	727.265
225.796	21.940	913.286	726.664
226.811	22.125	912.621	726.839
227.826	21.879	911.150	724.585
228.840	21.100	909.247	719.797
229.855	21.031	908.754	719.056
230.869	21.175	908.741	719.575
231.884	20.940	907.554	717.605
232.899	20.931	907.220	717.240
233.913	21.701	907.549	720.606
234.928	22.024	907.076	721.496
235.942	21.868	906.133	720.042
236.957	21.947	905.199	719.559
237.972	21.584	904.299	717.294
238.986	21.543	904.078	716.887
240.001	21.682	903.284	716.760
241.015	21.506	902.694	715.508
242.030	21.596	902.113	715.353
243.045	21.866	901.167	715.640
244.059	21.928	900.885	715.608
245.074	22.206	900.572	716.431
246.088	22.086	899.811	715.273
247.103	21.694	898.737	712.760
248.117	21.579	898.531	712.067
249.132	22.126	898.174	713.942
250.147	22.555	898.312	715.734
251.161	22.611	897.568	715.303
252.176	22.814	896.827	715.471
253.190	22.922	896.073	715.245
254.205	22.732	895.729	714.139
255.220	22.954	895.526	714.813
256.234	23.125	894.273	714.440
257.249	22.825	893.995	712.942
258.263	22.775	893.357	712.167
259.278	22.730	892.637	711.350
260.293	22.751	892.660	711.392
261.307	22.747	891.951	710.746
262.322	22.706	890.906	709.687
263.336	22.609	890.551	708.950
264.351	22.193	888.761	705.792
265.366	21.060	886.819	699.646
266.380	20.692	885.979	697.447
267.395	21.574	886.243	701.127
268.409	22.489	886.231	704.718
269.424	22.306	885.994	703.737
270.439	22.413	885.260	703.518
271.453	22.552	884.639	703.518
272.468	22.525	884.146	702.957
273.482	22.683	883.855	703.293
274.497	22.852	883.202	703.384
275.512	22.845	882.087	702.404
276.526	22.119	880.606	698.278
277.541	22.406	879.968	698.852
278.555	22.790	879.743	700.133
279.570	22.442	879.033	698.127
280.585	22.223	878.450	696.735
281.599	22.364	878.126	696.974
282.614	22.469	877.832	697.094
283.628	22.055	876.088	694.013
284.643	21.692	875.607	692.136
285.657	22.134	875.966	694.107
286.672	22.013	874.873	692.701
287.687	21.626	873.552	690.069
288.701	21.936	873.523	691.205
289.716	22.281	873.260	692.296
290.730	21.905	872.345	690.030
291.745	21.827	871.501	688.994
292.760	21.747	870.479	687.811
293.774	21.715	870.031	687.271
294.789	22.466	870.458	690.493
295.803	23.086	870.658	693.023
296.818	23.203	870.139	693.008
297.833	23.230	869.370	692.438
298.847	23.064	868.006	690.643
299.862	22.494	867.611	688.040
300.876	22.794	867.114	688.756
301.891	23.071	866.773	689.506
302.906	23.156	866.105	689.245
303.920	22.823	864.690	686.760
304.935	22.606	864.192	685.461
305.949	22.948	864.339	686.848
306.964	23.151	863.424	686.846
307.979	22.876	862.620	685.082
308.993	22.923	862.411	685.034
310.008	23.132	862.045	685.495
311.022	23.331	861.311	685.619
312.037	23.074	860.969	684.293
313.052	22.975	860.404	683.402
314.066	22.747	859.510	681.751
315.081	22.287	857.886	678.626
316.095	21.342	856.853	674.108
317.110	21.996	857.167	676.814
318.125	22.767	857.101	679.675
319.139	22.482	856.167	677.777
320.154	21.256	854.340	671.560
321.168	20.783	853.438	668.976
322.183	21.504	853.478	671.716
323.197	22.281	854.264	675.259
324.212	22.696	853.808	676.431
325.227	22.764	853.306	676.236
326.241	23.008	852.903	676.789
327.256	22.789	852.238	675.364
328.270	22.765	851.374	674.528
329.285	22.772	850.624	673.900
330.300	22.619	849.527	672.387
331.314	22.256	849.017	670.544
332.329	22.498	848.279	670.822
333.343	22.740	848.264	671.672
334.358	22.924	848.223	672.280
335.373	22.931	847.515	671.687
336.387	23.119	846.708	671.701
337.402	23.238	846.657	672.051
338.416	23.396	846.185	672.218
339.431	23.388	845.475	671.563
340.446	23.489	844.832	671.378
341.460	23.484	845.046	671.467
342.475	23.502	844.141	670.757
343.489	23.279	843.334	669.213
344.504	23.281	842.924	668.840
345.519	23.505	842.777	669.509
346.533	23.634	842.288	669.548
347.548	23.833	841.769	669.826
348.562	23.902	841.132	669.519
349.577	23.758	840.544	668.448
350.592	23.698	840.123	667.831
351.606	23.668	839.614	667.255
352.621	23.921	838.894	667.572
353.635	23.742	838.336	666.398
354.650	23.558	838.018	665.396
355.665	23.076	837.137	662.831
356.679	22.175	835.459	658.073
357.694	22.153	834.845	657.449
358.708	22.710	834.709	659.364
359.723	22.559	834.312	658.429
360.738	23.023	833.501	659.462
361.752	23.286	833.780	660.606
362.767	23.345	833.747	660.740
363.781	23.654	833.778	661.859
364.796	24.025	832.847	662.442
365.810	24.184	832.669	662.835
366.825	24.344	832.088	662.908
367.840	24.184	831.821	662.041
368.854	24.059	831.112	660.957
369.869	23.521	830.276	658.235
370.883	23.437	829.499	657.250
371.898	23.483	829.219	657.139
372.913	23.438	828.321	656.205
373.927	23.379	827.970	655.650
374.942	23.565	827.070	655.565
375.956	23.597	826.803	655.416
376.971	23.684	826.397	655.357
377.986	23.826	825.854	655.392
379.000	24.068	825.539	655.975
380.015	23.994	825.177	655.355
381.029	23.857	824.259	654.066
382.044	23.879	823.434	653.433
383.059	24.031	823.348	653.868
384.073	24.071	822.624	653.380
385.088	24.031	822.241	652.871
386.102	24.200	821.301	652.687
387.117	23.910	820.901	651.251
388.132	23.914	820.021	650.508
389.146	23.830	819.160	649.461
390.161	23.169	818.336	646.336
391.175	23.230	818.499	646.631
392.190	23.672	818.354	648.072
393.205	23.822	817.610	647.974
394.219	22.800	815.648	642.640
395.234	21.132	813.832	635.092
396.248	20.537	812.208	631.606
397.263	21.422	813.796	636.004
398.278	23.169	815.203	643.405
399.292	23.622	814.823	644.694
400.307	23.409	814.275	643.430
401.321	23.295	813.560	642.395
402.336	23.466	813.214	642.684
403.350	23.794	812.811	643.498
404.365	24.086	813.019	644.663
405.380	24.479	812.514	645.630
406.394	24.698	812.336	646.223
407.409	24.946	812.083	646.858
408.423	24.731	811.314	645.413
409.438	24.662	810.932	644.803
410.453	24.734	810.668	644.795
411.467	24.774	809.891	644.263
412.482	24.818	809.459	644.023
413.496	24.664	808.998	643.043
414.511	24.817	808.662	643.271
415.526	24.777	808.479	642.926
416.540	24.674	808.152	642.237
417.555	24.625	807.803	641.728
418.569	24.402	806.934	640.179
419.584	24.319	805.691	638.839
420.599	24.287	805.739	638.707
421.613	153.476	1364.614	1792.588
422.628	133.286	1446.026	1792.733
