DTS Sentinel unit serial number:	SN413079Multiplexer serial number:	ORYXHardware model number:	OX4-SRSoftware version number:	ORYX F/W v4.00 Oryx Data Collector v3.7.2.0data status	okinstallation	princeton_trtdifferential loss correction	single-endedforward channel	channel 3reverse channel	N/Adate	2019/09/12time	15:18:11forward acquisition time	60.00reverse acquisition time	0.00gamma	496.2192k internal	0.2292k external	0.2292temperature offset calibration	1.0054default loss term (dB/km)	0.3790temperature slope calibration	1.0000multiplexer offset coefficient	1.0000multiplexer slope coefficient	1.0000fibre end	0.00T internal ref (°C)	40.78T ext. ref 1 (°C)	2.40T ext. ref 2 (°C)	37.47length (m)	temperature (°C)	Stokes	anti-Stokes-747.200	315.485	-0.117	-0.227
-746.185	-56.815	0.335	-0.152
-745.171	-118.472	0.084	-0.015
-744.156	353.269	0.110	0.224
-743.142	-81.698	0.360	-0.121
-742.127	303.253	0.073	0.138
-741.112	-200.000	0.246	0.001
-740.098	800.000	0.101	0.374
-739.083	800.000	-0.117	-0.413
-738.069	785.795	-0.040	0.111
-737.054	-79.671	-0.313	-0.108
-736.039	2.222	-0.193	-0.143
-735.025	-19.986	0.266	-0.168
-734.010	800.000	-0.054	-0.227
-732.996	217.932	-0.079	-0.128
-731.981	97.741	-0.062	-0.073
-730.966	586.711	-0.032	-0.081
-729.952	376.182	0.099	-0.206
-728.937	448.090	-0.045	-0.102
-727.923	-26.604	0.176	-0.106
-726.908	224.153	0.127	-0.210
-725.894	621.135	0.066	0.170
-724.879	800.000	0.070	-0.286
-723.864	58.663	-0.385	0.386
-722.850	-200.000	-0.013	0.066
-721.835	-167.442	-0.300	-0.012
-720.821	-18.465	0.347	-0.221
-719.806	-68.047	-0.100	-0.040
-718.791	-112.737	0.140	-0.028
-717.777	-131.475	-0.128	-0.017
-716.762	-33.812	0.270	0.152
-715.748	800.000	0.066	-0.215
-714.733	154.276	-0.075	0.106
-713.718	-200.000	0.031	-0.354
-712.704	-198.699	0.315	-0.002
-711.689	177.411	-0.012	-0.017
-710.675	-146.321	-0.326	0.029
-709.660	105.237	0.149	-0.179
-708.645	9.155	0.270	0.208
-707.631	800.000	-0.025	0.109
-706.616	-40.610	0.272	0.144
-705.602	-200.000	0.015	0.179
-704.587	-106.637	-0.180	0.041
-703.572	104.207	-0.156	0.187
-702.558	-81.289	-0.323	0.109
-701.543	-200.000	-0.002	-0.052
-700.529	-200.000	-0.009	0.192
-699.514	-200.000	-0.057	0.309
-698.499	200.312	0.172	-0.270
-697.485	257.555	0.103	-0.180
-696.470	-137.611	0.286	-0.033
-695.456	137.730	0.065	0.087
-694.441	248.459	0.038	0.066
-693.426	-49.084	-0.195	-0.096
-692.412	34.386	-0.211	0.188
-691.397	-183.280	-0.108	-0.002
-690.383	16.562	-0.172	-0.139
-689.368	223.788	-0.110	-0.181
-688.354	303.315	0.150	-0.284
-687.339	126.596	-0.249	0.321
-686.324	110.120	0.112	0.138
-685.310	33.930	0.068	0.061
-684.295	-67.140	-0.115	0.046
-683.281	220.739	-0.214	-0.351
-682.266	-200.000	-0.036	-0.283
-681.251	800.000	-0.045	-0.156
-680.237	65.785	0.156	-0.161
-679.222	-11.947	-0.281	0.188
-678.208	310.127	0.034	-0.065
-677.193	-200.000	0.000	-0.088
-676.178	-200.000	-0.073	-0.491
-675.164	80.776	0.164	-0.180
-674.149	-200.000	0.019	-0.132
-673.135	-200.000	-0.015	0.119
-672.120	-103.383	-0.053	-0.013
-671.105	226.187	0.078	-0.130
-670.091	-13.251	0.156	0.103
-669.076	-80.395	0.088	-0.030
-668.062	-200.000	0.083	-0.388
-667.047	-44.044	-0.142	0.073
-666.032	311.513	0.086	-0.165
-665.018	-113.998	0.138	0.027
-664.003	800.000	0.060	0.232
-662.989	-34.153	0.181	0.102
-661.974	-200.000	0.007	-0.031
-660.959	-189.029	-0.387	-0.005
-659.945	72.698	-0.186	0.198
-658.930	-69.257	0.277	-0.109
-657.916	-200.000	-0.372	0.001
-656.901	257.717	-0.164	0.288
-655.886	-129.412	0.268	0.038
-654.872	-200.000	-0.025	0.205
-653.857	-200.000	0.037	-0.172
-652.843	-200.000	-0.005	-0.350
-651.828	96.527	0.057	-0.067
-650.814	-139.750	0.212	0.023
-649.799	-48.175	-0.485	-0.239
-648.784	478.483	0.083	0.191
-647.770	800.000	0.016	-0.048
-646.755	-85.909	-0.356	0.112
-645.741	-15.608	-0.191	0.125
-644.726	800.000	0.044	-0.134
-643.711	800.000	-0.113	-0.356
-642.697	-116.771	0.367	-0.069
-641.682	104.973	0.250	-0.301
-640.668	800.000	0.019	0.054
-639.653	-156.415	-0.112	-0.007
-638.638	-8.369	-0.198	0.135
-637.624	213.850	0.138	-0.222
-636.609	-200.000	0.004	-0.295
-635.595	27.291	0.115	0.099
-634.580	-135.484	-0.465	0.056
-633.565	-134.721	-0.284	-0.035
-632.551	131.347	0.041	-0.054
-631.536	100.094	0.134	-0.158
-630.522	454.494	-0.100	0.227
-629.507	800.000	0.138	-0.481
-628.492	54.578	0.116	-0.114
-627.478	-3.132	-0.113	-0.080
-626.463	-105.322	0.271	0.063
-625.449	41.358	-0.135	0.124
-624.434	-200.000	-0.002	-0.368
-623.419	688.247	-0.113	-0.302
-622.405	6.778	0.195	0.148
-621.390	-46.859	-0.297	-0.148
-620.376	-66.207	0.301	0.122
-619.361	398.966	-0.114	-0.243
-618.346	-145.002	-0.212	0.020
-617.332	-23.443	-0.100	-0.061
-616.317	-200.000	0.011	-0.295
-615.303	29.567	-0.065	-0.057
-614.288	69.673	0.148	0.155
-613.273	-148.920	0.206	0.017
-612.259	-77.404	-0.288	0.102
-611.244	-77.604	0.252	-0.089
-610.230	-43.214	0.279	-0.144
-609.215	-200.000	-0.025	-0.217
-608.201	800.000	0.049	-0.173
-607.186	-200.000	-0.014	-0.090
-606.171	46.582	0.014	0.013
-605.157	-21.026	-0.096	-0.060
-604.142	-50.367	0.340	-0.163
-603.128	-82.493	0.072	-0.024
-602.113	-98.396	-0.088	-0.023
-601.098	-66.185	-0.113	0.046
-600.084	-200.000	0.029	0.205
-599.069	-108.726	-0.288	-0.063
-598.055	16.387	-0.046	0.037
-597.040	-200.000	-0.026	0.218
-596.025	154.082	-0.147	-0.206
-595.011	800.000	-0.063	-0.248
-593.996	-161.568	0.085	0.004
-592.982	548.010	-0.086	0.209
-591.967	791.878	0.116	-0.324
-590.952	151.697	-0.124	0.172
-589.938	571.432	0.154	0.382
-588.923	124.556	-0.158	-0.203
-587.909	-200.000	-0.010	-0.130
-586.894	-200.000	-0.002	-0.047
-585.879	-86.208	-0.248	-0.078
-584.865	-200.000	-0.014	0.327
-583.850	-200.000	-0.019	-0.145
-582.836	-200.000	0.043	0.202
-581.821	289.692	-0.171	0.316
-580.806	670.892	-0.132	-0.347
-579.792	800.000	-0.086	-0.283
-578.777	800.000	-0.026	-0.079
-577.763	343.652	0.085	0.168
-576.748	-200.000	0.012	0.225
-575.733	800.000	-0.043	-0.127
-574.719	800.000	0.110	-0.330
-573.704	-6.647	0.339	-0.235
-572.690	-111.013	0.260	0.054
-571.675	-116.872	-0.168	-0.031
-570.661	5.447	0.199	0.150
-569.646	-94.315	-0.338	0.094
-568.631	168.481	0.102	-0.148
-567.617	-24.481	-0.145	-0.088
-566.602	-84.935	-0.400	-0.128
-565.588	-21.512	-0.263	-0.163
-564.573	143.482	-0.219	0.296
-563.558	370.492	0.052	0.107
-562.544	-200.000	-0.037	-0.387
-561.529	146.114	-0.129	0.176
-560.515	-200.000	-0.000	0.117
-559.500	-62.261	0.363	0.153
-558.485	267.974	-0.191	-0.340
-557.471	-73.142	0.110	0.041
-556.456	235.330	-0.044	0.074
-555.442	-131.583	0.319	-0.043
-554.427	68.120	0.251	-0.261
-553.412	-98.577	0.118	0.031
-552.398	-90.963	-0.297	-0.087
-551.383	-174.685	-0.170	0.005
-550.369	96.846	-0.136	0.159
-549.354	-52.170	-0.197	-0.093
-548.339	800.000	0.023	0.069
-547.325	-200.000	-0.011	-0.189
-546.310	-181.007	0.299	-0.006
-545.296	-200.000	0.007	-0.126
-544.281	-89.104	0.332	0.100
-543.266	128.701	-0.087	0.112
-542.252	-13.675	0.198	0.130
-541.237	182.096	-0.150	-0.224
-540.223	-52.606	-0.169	-0.079
-539.208	-200.000	-0.003	0.059
-538.193	45.333	0.257	0.240
-537.179	54.362	0.159	0.156
-536.164	530.027	0.134	-0.321
-535.150	-63.737	0.513	0.214
-534.135	-4.883	0.166	0.116
-533.121	-29.438	0.123	-0.072
-532.106	-80.306	-0.028	0.010
-531.091	-0.224	0.215	0.155
-530.077	-200.000	0.028	0.190
-529.062	-163.092	-0.233	0.011
-528.048	153.874	-0.236	-0.329
-527.033	417.174	0.057	0.123
-526.018	800.000	0.109	-0.347
-525.004	-200.000	-0.010	0.074
-523.989	24.974	0.157	-0.132
-522.975	-103.148	-0.201	0.048
-521.960	-200.000	-0.027	-0.214
-520.945	103.372	0.051	0.061
-519.931	204.639	-0.112	0.177
-518.916	-42.076	0.214	-0.111
-517.902	-36.121	-0.053	-0.029
-516.887	262.098	-0.113	0.199
-515.872	9.938	0.102	0.078
-514.858	-200.000	-0.015	0.070
-513.843	-94.913	-0.299	0.082
-512.829	800.000	-0.034	0.140
-511.814	655.323	-0.083	0.217
-510.799	-29.273	-0.206	0.119
-509.785	-20.792	-0.394	0.245
-508.770	-200.000	0.069	0.317
-507.756	800.000	0.056	0.161
-506.741	-200.000	0.046	-0.326
-505.726	-152.283	0.174	0.013
-504.712	-91.755	-0.132	0.038
-503.697	125.853	0.103	0.132
-502.683	13.151	0.084	0.066
-501.668	-140.606	-0.146	-0.015
-500.653	349.909	-0.113	-0.226
-499.639	127.193	0.084	-0.108
-498.624	-122.806	0.387	0.063
-497.610	599.094	-0.108	0.272
-496.595	457.209	0.115	0.259
-495.581	502.959	-0.072	-0.168
-494.566	92.210	-0.182	-0.208
-493.551	-70.057	0.385	-0.148
-492.537	79.019	-0.159	-0.172
-491.522	-131.361	0.118	-0.016
-490.508	234.624	0.031	0.051
-489.493	-36.010	-0.186	0.102
-488.478	256.288	0.059	0.102
-487.464	-15.981	-0.352	-0.227
-486.449	361.450	0.043	-0.087
-485.435	76.362	-0.109	0.117
-484.420	800.000	-0.105	0.386
-483.405	-200.000	0.007	0.166
-482.391	-118.592	-0.246	0.044
-481.376	-194.930	0.131	0.001
-480.362	312.426	0.021	0.041
-479.347	-188.261	0.152	-0.002
-478.332	40.145	-0.200	-0.182
-477.318	-129.826	-0.133	-0.019
-476.303	-200.000	-0.031	-0.233
-475.289	92.004	0.257	0.293
-474.274	-200.000	-0.000	0.354
-473.259	-200.000	0.015	0.094
-472.245	308.495	0.031	0.059
-471.230	114.341	-0.130	-0.160
-470.216	800.000	0.010	-0.035
-469.201	-200.000	0.013	0.090
-468.186	-65.940	0.077	0.031
-467.172	-118.925	0.449	-0.080
-466.157	-200.000	0.019	0.352
-465.143	41.476	0.032	0.029
-464.128	170.809	-0.136	-0.197
-463.113	274.697	0.039	-0.070
-462.099	-45.209	-0.238	-0.120
-461.084	-135.958	0.195	0.023
-460.070	-106.623	-0.250	-0.056
-459.055	-200.000	0.006	-0.060
-458.040	62.716	-0.062	0.063
-457.026	-200.000	0.025	-0.233
-456.011	800.000	-0.069	-0.283
-454.997	82.999	-0.191	0.210
-453.982	800.000	0.071	0.199
-452.968	800.000	-0.028	0.089
-451.953	140.748	-0.121	0.161
-450.938	274.448	0.127	0.227
-449.924	66.803	-0.225	-0.231
-448.909	97.719	0.256	0.297
-447.895	-200.000	-0.028	0.243
-446.880	114.675	-0.307	0.379
-445.865	-124.575	0.255	-0.040
-444.851	414.213	-0.062	0.134
-443.836	800.000	-0.078	-0.300
-442.822	800.000	0.035	0.140
-441.807	-21.981	0.190	0.117
-440.792	-200.000	0.020	-0.255
-439.778	-200.000	0.008	-0.187
-438.763	-200.000	0.032	-0.200
-437.749	128.012	0.275	0.354
-436.734	109.120	0.058	-0.070
-435.719	-200.000	0.056	0.417
-434.705	-200.000	0.023	0.161
-433.690	-200.000	0.010	-0.052
-432.676	-200.000	0.018	-0.105
-431.661	257.554	-0.058	-0.102
-430.646	415.793	0.010	-0.022
-429.632	-165.760	0.163	0.007
-428.617	20.498	-0.266	0.217
-427.603	-171.098	0.303	-0.010
-426.588	-200.000	-0.026	0.142
-425.573	-200.000	0.029	-0.239
-424.559	-139.409	0.058	-0.006
-423.544	-116.693	0.245	0.046
-422.530	-200.000	-0.025	0.221
-421.515	103.031	0.089	-0.105
-420.500	-127.739	0.160	-0.023
-419.486	18.456	-0.367	0.296
-418.471	152.134	-0.239	-0.330
-417.457	-200.000	0.029	-0.172
-416.442	-200.000	-0.051	-0.243
-415.428	-200.000	0.010	-0.490
-414.413	-164.171	0.064	-0.003
-413.398	-182.405	-0.349	0.007
-412.384	-17.206	-0.091	0.058
-411.369	-200.000	0.009	0.199
-410.355	-13.063	-0.110	-0.072
-409.340	18.594	-0.035	0.028
-408.325	-200.000	0.037	0.183
-407.311	-9.147	0.435	-0.294
-406.296	31.250	0.033	0.029
-405.282	-132.168	-0.040	0.005
-404.267	800.000	-0.022	-0.068
-403.252	-106.020	-0.110	-0.025
-402.238	15.409	-0.185	0.146
-401.223	-200.000	-0.041	0.346
-400.209	-82.716	0.248	0.081
-399.194	800.000	0.047	-0.204
-398.179	396.228	0.072	0.152
-397.165	317.168	0.112	0.214
-396.150	-10.982	0.187	0.125
-395.136	558.147	0.044	-0.106
-394.121	197.344	-0.107	-0.165
-393.106	13.542	-0.186	-0.145
-392.092	-23.038	-0.478	-0.291
-391.077	-136.203	0.275	0.032
-390.063	-200.000	0.060	-0.335
-389.048	91.516	0.290	-0.328
-388.033	114.754	-0.124	0.153
-387.019	295.011	-0.093	-0.172
-386.004	53.115	-0.110	-0.106
-384.990	-98.159	0.161	-0.042
-383.975	-71.755	-0.331	0.125
-382.960	424.105	-0.135	-0.294
-381.946	-200.000	0.052	-0.416
-380.931	-200.000	-0.024	0.174
-379.917	-35.361	-0.209	0.114
-378.902	-200.000	0.037	0.438
-377.888	174.351	0.240	0.350
-376.873	-150.610	-0.219	-0.017
-375.858	13.961	0.110	0.086
-374.844	139.500	0.298	-0.395
-373.829	800.000	-0.051	-0.192
-372.815	6.330	0.270	-0.202
-371.800	-67.650	0.125	-0.050
-370.785	422.628	0.023	0.050
-369.771	590.975	0.103	0.257
-368.756	274.093	0.056	-0.100
-367.742	-120.105	0.072	0.012
-366.727	-9.271	0.151	-0.102
-365.712	349.151	0.161	-0.320
-364.698	-200.000	-0.008	0.414
-363.683	115.862	0.119	-0.147
-362.669	-59.278	-0.299	-0.130
-361.654	343.226	-0.162	0.320
-360.639	150.788	-0.186	0.255
-359.625	-200.000	0.101	-0.469
-358.610	234.658	-0.111	-0.184
-357.596	-94.872	0.123	0.034
-356.581	15.699	-0.304	0.241
-355.566	-7.103	-0.349	0.239
-354.552	-200.000	0.015	-0.260
-353.537	-77.532	-0.194	-0.068
-352.523	482.326	-0.059	0.136
-351.508	-200.000	-0.065	0.289
-350.493	-159.356	0.124	0.007
-349.479	391.651	-0.054	-0.112
-348.464	-132.226	-0.174	0.023
-347.450	97.556	0.070	0.081
-346.435	39.750	-0.114	-0.103
-345.420	296.370	0.136	0.250
-344.406	427.401	0.068	0.148
-343.391	194.418	0.135	-0.206
-342.377	412.812	0.028	0.060
-341.362	-148.740	-0.298	-0.024
-340.348	800.000	0.075	0.297
-339.333	-200.000	-0.021	0.334
-338.318	-42.674	0.218	0.112
-337.304	-149.784	-0.377	0.030
-336.289	-200.000	0.002	-0.140
-335.275	106.933	0.114	0.136
-334.260	131.757	-0.196	0.254
-333.245	-200.000	-0.031	-0.206
-332.231	-50.991	-0.187	-0.089
-331.216	-12.545	-0.115	-0.076
-330.202	94.743	0.144	0.165
-329.187	800.000	-0.041	-0.123
-328.172	-73.792	0.077	-0.028
-327.158	728.549	-0.104	0.280
-326.143	-90.125	0.215	0.063
-325.129	219.206	0.074	0.119
-324.114	19.011	0.138	-0.112
-323.099	-143.413	0.123	0.012
-322.085	124.174	-0.226	-0.285
-321.070	-82.307	-0.558	0.183
-320.056	800.000	-0.078	-0.238
-319.041	-184.194	-0.052	0.001
-318.026	34.992	-0.266	0.234
-317.012	-200.000	0.051	-0.254
-315.997	-200.000	0.067	0.369
-314.983	302.830	0.223	0.415
-313.968	-177.674	0.529	0.013
-312.953	800.000	-0.055	0.234
-311.939	6.187	0.223	-0.166
-310.924	-7.676	0.166	-0.113
-309.910	-200.000	-0.028	-0.162
-308.895	-200.000	-0.011	-0.200
-307.880	152.558	0.040	0.054
-306.866	-99.123	0.214	0.055
-305.851	367.235	0.148	0.301
-304.837	800.000	-0.032	0.140
-303.822	-85.791	0.285	-0.089
-302.807	5.399	0.193	0.143
-301.793	-103.243	-0.134	-0.032
-300.778	800.000	-0.045	-0.189
-299.764	201.386	0.089	0.139
-298.749	209.730	-0.139	0.219
-297.735	-16.098	0.206	-0.132
-296.720	49.027	-0.219	-0.207
-295.705	-130.751	0.254	-0.034
-294.691	239.720	0.100	-0.167
-293.676	43.121	0.257	-0.236
-292.662	196.751	0.142	-0.217
-291.647	19.763	-0.143	0.116
-290.632	-126.537	0.263	-0.039
-289.618	117.654	-0.087	0.108
-288.603	-96.412	0.084	-0.022
-287.589	500.430	-0.068	0.159
-286.574	-200.000	-0.038	-0.324
-285.559	67.273	0.311	-0.319
-284.545	-77.063	0.268	-0.094
-283.530	32.227	0.082	-0.071
-282.516	-200.000	0.024	-0.271
-281.501	76.020	0.129	0.137
-280.486	-200.000	0.056	0.266
-279.472	13.468	-0.420	-0.327
-278.457	41.402	0.124	-0.112
-277.443	-200.000	-0.037	-0.261
-276.428	-155.151	-0.251	-0.016
-275.413	-73.468	0.209	0.077
-274.399	48.248	0.242	0.228
-273.384	-175.135	0.304	-0.008
-272.370	-84.808	-0.101	-0.032
-271.355	59.343	0.101	-0.100
-270.340	267.970	0.150	0.264
-269.326	-80.525	-0.597	0.200
-268.311	-25.572	-0.113	0.067
-267.297	-75.484	0.200	0.071
-266.282	-113.072	-0.165	-0.033
-265.267	110.272	0.121	-0.146
-264.253	-200.000	0.054	-0.260
-263.238	-14.316	0.128	-0.083
-262.224	-200.000	-0.006	-0.050
-261.209	-124.456	0.238	0.037
-260.195	-152.821	0.121	0.009
-259.180	-125.249	0.150	0.023
-258.165	-35.038	-0.191	0.105
-257.151	-43.747	-0.179	0.091
-256.136	-23.775	-0.063	-0.038
-255.122	800.000	-0.058	-0.214
-254.107	-200.000	-0.007	0.090
-253.092	-3.706	-0.121	0.084
-252.078	22.955	0.283	-0.233
-251.063	-200.000	-0.006	0.111
-250.049	632.755	-0.084	0.213
-249.034	-140.994	0.143	-0.015
-248.019	177.395	0.174	0.255
-247.005	-24.319	0.199	0.119
-245.990	-200.000	0.012	-0.196
-244.976	230.315	0.150	0.246
-243.961	-62.137	0.269	-0.112
-242.946	243.556	-0.071	-0.120
-241.932	-88.964	-0.189	-0.056
-240.917	77.929	-0.179	-0.191
-239.903	81.359	-0.066	0.072
-238.888	-77.407	-0.406	-0.142
-237.873	-65.984	-0.171	0.068
-236.859	800.000	-0.060	-0.220
-235.844	40.226	0.187	0.168
-234.830	-53.146	-0.204	-0.094
-233.815	-51.134	-0.060	-0.028
-232.800	-180.274	-0.438	-0.009
-231.786	-103.618	0.100	-0.023
-230.771	-97.286	-0.116	-0.030
-229.757	0.352	0.151	-0.108
-228.742	-38.187	0.182	0.097
-227.727	-198.750	0.190	-0.001
-226.713	800.000	0.122	0.348
-225.698	-89.389	-0.269	-0.080
-224.684	9.150	0.077	0.058
-223.669	-64.006	-0.151	0.062
-222.655	-61.817	-0.051	0.021
-221.640	123.153	-0.182	0.228
-220.625	18.507	-0.147	0.118
-219.611	-13.265	-0.187	0.122
-218.596	-200.000	-0.056	0.287
-217.582	-200.000	0.017	0.176
-216.567	-0.033	-0.049	0.035
-215.552	-200.000	0.003	0.261
-214.538	257.543	0.193	0.333
-213.523	-93.428	-0.223	-0.062
-212.509	390.615	-0.041	0.086
-211.494	800.000	-0.076	0.238
-210.479	-200.000	-0.025	0.432
-209.465	-108.128	0.088	-0.019
-208.450	-157.100	-0.117	-0.007
-207.436	-100.939	-0.102	0.025
-206.421	-125.375	-0.293	0.045
-205.406	-154.029	-0.174	0.012
-204.392	369.274	0.100	0.204
-203.377	-200.000	0.016	0.173
-202.363	245.226	0.084	-0.141
-201.348	-9.126	0.137	-0.092
-200.333	244.340	-0.060	-0.101
-199.319	-200.000	0.053	0.261
-198.304	253.049	-0.168	-0.288
-197.290	-60.052	-0.373	0.160
-196.275	365.182	-0.139	-0.281
-195.260	-200.000	-0.044	0.391
-194.246	-200.000	-0.013	0.139
-193.231	-200.000	0.038	0.204
-192.217	-52.163	0.130	-0.060
-191.202	189.101	0.083	-0.125
-190.187	198.660	-0.075	0.115
-189.173	-90.189	0.164	-0.048
-188.158	-46.809	-0.549	0.269
-187.144	-109.381	0.276	0.059
-186.129	-84.309	-0.066	0.021
-185.114	-76.874	0.353	0.124
-184.100	119.062	-0.100	-0.124
-183.085	-200.000	0.012	-0.131
-182.071	-200.000	0.042	0.280
-181.056	-200.000	-0.022	0.128
-180.042	-116.342	0.085	0.016
-179.027	22.837	-0.042	-0.035
-178.012	-97.077	0.150	-0.039
-176.998	-200.000	-0.026	0.218
-175.983	-37.263	0.262	0.140
-174.969	-165.837	0.417	0.018
-173.954	-200.000	0.040	-0.291
-172.939	-17.193	0.125	0.079
-171.925	69.195	-0.010	0.011
-170.910	-114.002	-0.072	-0.014
-169.896	-54.382	-0.322	0.146
-168.881	-125.910	-0.039	-0.006
-167.866	800.000	-0.128	-0.439
-166.852	193.486	0.184	-0.279
-165.837	-200.000	0.010	-0.254
-164.823	-52.843	0.327	-0.151
-163.808	58.328	-0.047	0.046
-162.793	20.092	0.277	-0.224
-161.779	35.691	-0.040	-0.035
-160.764	-99.218	0.184	-0.046
-159.750	-167.198	-0.110	-0.004
-158.735	-150.704	0.171	0.013
-157.720	251.176	0.004	-0.007
-156.706	-54.030	0.203	-0.092
-155.691	-6.726	-0.255	0.174
-154.677	-200.000	0.189	0.001
-153.662	299.680	0.224	-0.413
-152.647	-117.774	-0.180	0.032
-151.633	50.290	-0.287	-0.271
-150.618	313.746	0.128	-0.240
-149.604	323.955	-0.100	0.191
-148.589	180.543	0.176	0.259
-147.574	-200.000	0.026	0.131
-146.560	-73.614	0.048	0.017
-145.545	133.296	-0.159	0.205
-144.531	207.405	-0.123	-0.191
-143.516	-200.000	0.012	-0.203
-142.502	57.449	-0.046	0.045
-141.487	-79.210	0.105	-0.035
-140.472	13.359	-0.171	-0.133
-139.458	-61.001	-0.359	0.151
-138.443	-189.148	-0.322	0.004
-137.429	80.935	0.032	0.035
-136.414	-69.833	-0.134	0.051
-135.399	800.000	-0.012	0.040
-134.385	-93.195	0.176	0.049
-133.370	-157.230	-0.194	-0.012
-132.356	-50.320	-0.060	0.028
-131.341	505.759	-0.010	0.023
-130.326	-200.000	-0.000	0.099
-129.312	-32.161	-0.107	-0.060
-128.297	41.161	-0.177	-0.160
-127.283	139.746	-0.093	-0.122
-126.268	800.000	0.120	-0.460
-125.253	-116.861	-0.177	-0.032
-124.239	119.879	0.163	0.201
-123.224	-11.112	-0.074	0.049
-122.210	800.000	-0.063	0.222
-121.195	435.843	-0.047	0.102
-120.180	-200.000	0.024	0.439
-119.166	-36.824	-0.097	-0.052
-118.151	-72.789	0.082	0.030
-117.137	-200.000	-0.007	0.240
-116.122	-42.332	0.370	-0.189
-115.107	-110.429	0.268	0.055
-114.093	-200.000	-0.002	0.093
-113.078	47.202	-0.174	0.162
-112.064	-115.937	-0.297	-0.055
-111.049	-193.314	-0.153	-0.001
-110.034	-78.118	-0.390	-0.134
-109.020	-122.607	0.240	-0.039
-108.005	-115.260	-0.264	0.050
-106.991	62.998	0.262	0.261
-105.976	-65.684	0.272	-0.109
-104.962	-3.072	0.123	0.085
-103.947	272.706	0.152	0.269
-102.932	-150.393	-0.100	0.008
-101.918	-200.000	-0.033	-0.250
-100.903	265.668	-0.132	-0.230
-99.889	-10.942	-0.440	-0.290
-98.874	24.820	-0.206	-0.170
-97.859	523.282	0.139	0.326
-96.845	91.988	0.308	0.346
-95.830	800.000	0.106	0.321
-94.816	-19.275	0.104	-0.064
-93.801	166.518	-0.247	0.350
-92.786	-129.276	-0.065	0.009
-91.772	77.702	0.116	0.124
-90.757	-130.115	0.204	-0.028
-89.743	23.875	0.121	-0.099
-88.728	-200.000	-0.034	0.284
-87.713	-46.664	-0.261	-0.127
-86.699	800.000	-0.068	-0.237
-85.684	-61.797	0.094	-0.039
-84.670	113.964	0.164	0.199
-83.655	11.143	0.250	-0.191
-82.640	-200.000	0.046	0.226
-81.626	-97.073	-0.345	-0.090
-80.611	124.438	-0.128	-0.161
-79.597	23.130	-0.131	0.107
-78.582	-200.000	0.018	0.259
-77.567	-123.380	0.245	-0.039
-76.553	26.646	0.115	-0.096
-75.538	-98.921	0.266	0.067
-74.524	-52.893	-0.087	0.040
-73.509	-1.053	0.281	-0.198
-72.494	-15.388	-0.194	0.123
-71.480	-23.531	0.166	-0.100
-70.465	800.000	0.123	-0.343
-69.451	-158.631	-0.253	0.015
-68.436	800.000	0.117	-0.364
-67.422	-200.000	0.021	0.491
-66.407	60.151	0.031	0.031
-65.392	61.751	-0.199	0.197
-64.378	-12.295	0.377	-0.245
-63.363	-178.437	0.050	0.001
-62.349	-200.000	0.023	-0.140
-61.334	50.431	-0.844	-0.795
-60.319	5.916	0.263	0.194
-59.305	-200.000	-0.056	-1.041
-58.290	782.741	0.321	0.875
-57.276	265.400	0.835	1.451
-56.261	-200.000	76.170	508.557
-55.246	527.332	1317.668	3094.150
-54.232	148.160	2545.930	3421.937
-53.217	117.067	2238.720	2739.361
-52.203	51.415	1762.447	1667.393
-51.188	44.194	1560.845	1426.117
-50.173	41.519	1531.462	1380.737
-49.159	57.646	1567.442	1526.046
-48.144	63.660	1587.445	1587.413
-47.130	44.713	1551.483	1420.960
-46.115	41.123	1536.481	1382.293
-45.100	40.969	1533.433	1378.431
-44.086	40.819	1531.476	1375.577
-43.071	40.781	1529.692	1373.655
-42.057	40.765	1527.655	1371.663
-41.042	40.795	1525.876	1370.219
-40.027	40.751	1524.704	1368.811
-39.013	40.783	1522.835	1367.297
-37.998	40.717	1521.723	1365.790
-36.984	40.701	1521.195	1365.152
-35.969	40.728	1519.605	1363.857
-34.954	40.834	1517.683	1362.807
-33.940	40.766	1516.343	1361.079
-32.925	40.705	1515.002	1359.405
-31.911	40.763	1513.737	1358.611
-30.896	40.813	1512.414	1357.712
-29.881	40.885	1510.790	1356.696
-28.867	40.883	1509.521	1355.487
-27.852	40.884	1508.255	1354.304
-26.838	40.870	1507.130	1353.145
-25.823	40.880	1505.142	1351.375
-24.809	40.866	1503.149	1349.436
-23.794	40.781	1502.017	1347.790
-22.779	40.827	1500.757	1346.915
-21.765	40.886	1499.610	1346.230
-20.750	40.862	1499.024	1345.490
-19.736	40.841	1497.369	1343.808
-18.721	40.906	1496.584	1343.488
-17.706	40.855	1495.828	1342.412
-16.692	40.818	1494.181	1340.631
-15.677	40.900	1492.755	1339.852
-14.663	40.758	1492.063	1338.222
-13.648	40.712	1491.266	1337.144
-12.633	40.780	1489.878	1336.307
-11.619	40.716	1489.962	1335.897
-10.604	40.706	1488.866	1334.791
-9.590	40.613	1487.998	1333.337
-8.575	40.748	1486.691	1333.020
-7.560	40.654	1485.739	1331.485
-6.546	40.677	1484.760	1330.708
-5.531	40.693	1484.154	1330.215
-4.517	40.669	1483.408	1329.337
-3.502	40.665	1482.768	1328.683
-2.487	40.827	1480.954	1328.084
-1.473	40.713	1480.383	1326.764
-0.458	40.776	1478.772	1325.685
0.556	41.213	1469.749	1315.415
1.571	38.432	1442.118	1272.520
2.586	34.467	1379.675	1192.574
3.600	32.240	1296.348	1107.350
4.615	29.848	1247.022	1051.546
5.629	24.568	1187.415	972.531
6.644	12.948	1095.958	838.796
7.659	4.080	1049.824	760.054
8.673	2.715	1043.923	749.053
9.688	2.413	1041.234	745.588
10.702	2.184	1039.390	743.087
11.717	2.279	1037.161	741.887
12.731	5.894	1041.575	762.574
13.746	16.508	1057.967	826.652
14.761	24.702	1067.586	874.347
15.775	25.830	1067.994	880.120
16.790	25.971	1067.424	880.259
17.804	25.692	1067.166	878.604
18.819	25.631	1065.895	877.183
19.834	25.743	1065.308	877.170
20.848	25.834	1064.793	877.112
21.863	25.859	1064.713	877.089
22.877	25.856	1064.179	876.559
23.892	25.858	1063.620	876.030
24.907	25.701	1062.755	874.478
25.921	25.706	1062.403	874.131
26.936	25.826	1061.592	873.969
27.950	25.689	1060.691	872.488
28.965	25.735	1059.080	871.309
29.980	25.618	1057.555	869.412
30.994	25.680	1056.288	868.591
32.009	25.764	1055.799	868.516
33.023	25.896	1054.994	868.413
34.038	25.652	1054.061	866.396
35.053	25.586	1052.905	865.052
36.067	25.772	1052.950	865.904
37.082	25.791	1051.538	864.759
38.096	25.710	1051.465	864.234
39.111	25.941	1050.460	864.440
40.126	25.994	1049.855	864.121
41.140	25.851	1048.858	862.536
42.155	25.703	1046.864	860.116
43.169	25.492	1045.497	857.908
44.184	25.384	1044.797	856.744
45.199	25.434	1043.894	856.165
46.213	25.331	1042.789	854.692
47.228	25.171	1042.455	853.579
48.242	25.563	1041.451	854.548
49.257	25.608	1040.790	854.141
50.271	25.655	1039.914	853.572
51.286	25.780	1039.511	853.760
52.301	25.814	1038.431	852.958
53.315	25.752	1037.972	852.211
54.330	25.799	1037.073	851.617
55.344	25.639	1036.611	850.410
56.359	25.576	1035.920	849.470
57.374	25.681	1034.935	849.080
58.388	25.517	1033.958	847.431
59.403	25.445	1033.250	846.437
60.417	25.461	1032.663	845.957
61.432	25.348	1031.554	844.441
62.447	25.290	1031.111	843.731
63.461	25.589	1030.357	844.445
64.476	25.593	1029.317	843.534
65.490	25.475	1028.690	842.394
66.505	25.383	1027.838	841.191
67.520	25.418	1026.798	840.431
68.534	25.560	1026.281	840.597
69.549	25.475	1025.093	839.153
70.563	25.076	1024.123	836.423
71.578	25.036	1023.429	835.596
72.593	25.002	1022.855	834.894
73.607	24.889	1021.371	833.081
74.622	24.803	1020.499	831.896
75.636	25.116	1019.981	832.856
76.651	25.132	1019.648	832.582
77.666	25.155	1018.541	831.714
78.680	25.046	1017.341	830.156
79.695	25.208	1016.612	830.235
80.709	25.103	1016.559	829.636
81.724	25.379	1015.777	830.197
82.739	25.302	1014.926	829.075
83.753	25.364	1013.832	828.395
84.768	25.402	1013.764	828.439
85.782	25.928	1012.749	829.958
86.797	26.094	1012.249	830.240
87.812	26.142	1010.982	829.349
88.826	25.840	1010.712	827.665
89.841	25.844	1009.562	826.667
90.855	25.925	1008.676	826.239
91.870	26.041	1007.957	826.110
92.884	25.913	1007.514	825.087
93.899	25.910	1006.268	823.981
94.914	25.690	1005.286	822.101
95.928	25.926	1004.226	822.237
96.943	25.833	1003.863	821.441
97.957	25.537	1002.949	819.273
98.972	25.435	1001.377	817.452
99.987	25.207	1000.506	815.634
101.001	25.284	999.927	815.440
102.016	25.694	999.281	816.703
103.030	25.669	998.724	816.060
104.045	25.736	997.576	815.355
105.060	25.544	995.949	813.082
106.074	25.291	995.458	811.466
107.089	25.340	994.571	810.894
108.103	25.639	994.482	812.099
109.118	25.696	993.725	811.664
110.133	25.461	992.371	809.428
111.147	25.457	991.278	808.449
112.162	25.200	990.130	806.285
113.176	25.061	989.219	804.850
114.191	25.141	988.484	804.537
115.206	25.416	987.444	804.854
116.220	25.035	986.637	802.420
117.235	24.848	985.379	800.488
118.249	25.053	985.026	801.048
119.264	25.181	984.002	800.716
120.279	24.991	983.114	799.075
121.293	24.903	983.096	798.597
122.308	25.074	981.820	798.251
123.322	25.028	981.465	797.685
124.337	25.043	980.143	796.606
125.352	25.035	978.401	795.084
126.366	24.550	977.343	792.005
127.381	24.237	975.999	789.462
128.395	24.605	976.197	791.181
129.410	25.493	975.719	794.649
130.424	25.607	974.971	794.474
131.439	25.573	973.770	793.276
132.454	25.523	972.820	792.214
133.468	25.698	972.327	792.512
134.483	25.639	971.423	791.444
135.497	25.557	970.958	790.637
136.512	25.849	970.013	791.078
137.527	25.865	969.656	790.789
138.541	25.800	968.934	789.843
139.556	25.947	968.108	789.743
140.570	25.850	967.262	788.558
141.585	25.951	966.267	788.118
142.600	25.860	965.788	787.263
143.614	25.909	964.699	786.521
144.629	25.955	964.305	786.330
145.643	26.337	963.421	787.202
146.658	26.075	962.766	785.457
147.673	25.951	961.247	783.610
148.687	25.763	960.248	781.908
149.702	25.648	959.244	780.524
150.716	25.564	958.460	779.452
151.731	25.475	957.294	778.051
152.746	25.548	956.753	777.857
153.760	25.957	955.717	778.713
154.775	26.004	955.334	778.534
155.789	26.039	954.689	778.092
156.804	25.947	953.860	776.953
157.819	25.866	953.061	775.881
158.833	25.888	952.126	775.147
159.848	26.068	951.688	775.497
160.862	26.126	950.519	774.725
161.877	26.087	949.767	773.876
162.892	25.876	948.848	772.155
163.906	26.099	947.755	772.149
164.921	25.917	946.854	770.569
165.935	25.954	945.916	769.895
166.950	25.974	944.947	769.124
167.964	26.094	943.961	768.766
168.979	26.129	943.021	768.080
169.994	25.793	942.053	765.797
171.008	25.796	940.745	764.676
172.023	25.841	940.772	764.823
173.037	26.065	940.006	765.084
174.052	25.881	938.908	763.341
175.067	25.696	937.737	761.540
176.081	25.591	937.323	760.693
177.096	25.669	936.512	760.295
178.110	25.824	935.314	759.911
179.125	25.621	934.660	758.457
180.140	25.375	933.323	756.267
181.154	25.372	932.576	755.582
182.169	25.391	932.715	755.709
183.183	25.697	932.067	756.405
184.198	25.918	931.790	757.038
185.213	25.909	931.327	756.558
186.227	25.803	930.563	755.427
187.242	25.892	929.802	755.114
188.256	26.009	929.583	755.360
189.271	26.010	928.362	754.305
190.286	26.105	927.986	754.330
191.300	25.908	926.949	752.597
192.315	25.373	925.245	748.918
193.329	24.681	923.860	744.848
194.344	24.139	922.595	741.505
195.359	24.725	923.260	744.416
196.373	25.598	923.592	748.253
197.388	25.809	923.246	748.780
198.402	25.813	922.851	748.414
199.417	25.916	921.789	747.911
200.432	25.801	921.399	747.052
201.446	25.756	920.768	746.289
202.461	25.480	920.066	744.509
203.475	25.621	919.540	744.601
204.490	25.227	917.907	741.585
205.504	23.952	916.243	734.913
206.519	24.239	916.350	736.118
207.534	25.186	916.894	740.401
208.548	25.422	915.872	740.485
209.563	25.730	915.709	741.556
210.577	25.850	915.189	741.563
211.592	25.477	914.277	739.223
212.607	25.821	914.342	740.626
213.621	26.057	913.757	741.057
214.636	26.027	913.075	740.313
215.650	26.033	912.347	739.681
216.665	25.873	911.953	738.641
217.680	26.002	911.481	738.725
218.694	26.083	910.848	738.474
219.709	25.678	910.105	736.151
220.723	25.415	909.092	734.194
221.738	25.587	908.650	734.474
222.753	25.787	908.396	735.018
223.767	25.536	907.709	733.376
224.782	25.815	906.429	733.413
225.796	25.991	906.138	733.828
226.811	26.094	905.439	733.616
227.826	25.868	904.372	731.767
228.840	24.984	902.480	726.590
229.855	24.876	902.026	725.720
230.869	25.092	901.989	726.503
231.884	24.890	900.641	724.535
232.899	24.797	900.196	723.737
233.913	25.643	900.332	727.203
234.928	25.849	900.236	727.894
235.942	25.559	899.570	726.121
236.957	25.653	898.478	725.555
237.972	25.437	897.786	724.061
238.986	25.444	896.898	723.309
240.001	25.432	896.400	722.793
241.015	25.451	896.126	722.586
242.030	25.476	895.584	722.184
243.045	25.781	894.917	722.808
244.059	25.794	894.439	722.410
245.074	25.982	893.898	722.662
246.088	25.851	893.589	721.824
247.103	25.449	892.340	719.141
248.117	25.636	891.896	719.470
249.132	26.109	891.750	721.177
250.147	26.525	891.452	722.534
251.161	26.452	891.258	722.023
252.176	26.721	890.789	722.653
253.190	26.730	890.062	722.033
254.205	26.704	889.809	721.660
255.220	26.897	889.481	722.101
256.234	26.974	888.720	721.722
257.249	26.953	887.545	720.623
258.263	26.706	886.883	719.041
259.278	26.652	886.766	718.666
260.293	26.641	886.489	718.335
261.307	26.664	885.931	717.911
262.322	26.787	885.075	717.643
263.336	26.650	884.242	716.359
264.351	26.104	883.009	713.144
265.366	24.961	881.226	707.131
266.380	24.578	880.189	704.722
267.395	25.347	880.634	708.052
268.409	26.172	880.804	711.375
269.424	26.212	880.164	710.955
270.439	26.323	879.414	710.724
271.453	26.541	878.812	711.030
272.468	26.530	878.026	710.287
273.482	26.678	877.987	710.773
274.497	26.797	877.237	710.570
275.512	26.743	876.042	709.328
276.526	26.073	874.823	705.659
277.541	26.164	874.683	705.838
278.555	26.478	874.893	707.176
279.570	26.389	874.274	706.263
280.585	26.259	873.248	704.866
281.599	26.366	872.385	704.522
282.614	26.505	872.258	704.898
283.628	26.008	870.897	701.804
284.643	25.663	870.525	700.101
285.657	25.921	870.487	701.010
286.672	25.930	869.561	700.238
287.687	25.523	868.561	697.791
288.701	25.769	868.518	698.649
289.716	26.015	868.518	699.541
290.730	25.904	867.408	698.158
291.745	25.796	866.525	696.966
292.760	25.618	865.608	695.479
293.774	25.411	865.280	694.355
294.789	26.259	865.988	698.141
295.803	27.050	865.740	700.932
296.818	27.153	864.905	700.592
297.833	27.287	864.202	700.475
298.847	26.923	863.741	698.640
299.862	26.440	862.885	696.026
300.876	26.705	862.057	696.315
301.891	27.014	861.739	697.183
302.906	27.078	861.560	697.223
303.920	26.827	860.167	695.070
304.935	26.553	859.573	693.480
305.949	26.901	859.520	694.709
306.964	27.130	858.887	695.012
307.979	26.606	858.303	692.475
308.993	26.738	857.516	692.283
310.008	27.064	857.620	693.552
311.022	27.206	857.056	693.575
312.037	26.988	856.537	692.261
313.052	26.820	855.804	690.968
314.066	26.635	855.182	689.700
315.081	26.170	853.095	686.191
316.095	25.224	852.467	682.031
317.110	25.679	852.622	683.823
318.125	26.665	852.673	687.548
319.139	26.168	851.692	684.811
320.154	24.979	850.152	679.009
321.168	24.619	849.091	676.739
322.183	25.131	849.190	678.694
323.197	26.156	849.416	682.695
324.212	26.469	849.555	683.929
325.227	26.508	849.086	683.636
326.241	26.924	848.678	684.818
327.256	26.770	848.027	683.654
328.270	26.599	847.398	682.441
329.285	26.533	846.683	681.556
330.300	26.407	846.079	680.534
331.314	26.191	845.286	679.026
332.329	26.221	844.576	678.509
333.343	26.493	844.333	679.272
334.358	26.817	844.445	680.519
335.373	26.951	843.398	680.118
336.387	27.027	843.092	680.096
337.402	27.108	842.666	679.995
338.416	27.383	842.203	680.590
339.431	27.320	841.765	679.942
340.446	27.288	841.374	679.445
341.460	27.440	841.013	679.662
342.475	27.412	840.367	678.973
343.489	27.339	839.152	677.659
344.504	27.257	839.021	677.188
345.519	27.697	838.529	678.369
346.533	27.684	838.277	678.055
347.548	27.669	837.927	677.656
348.562	27.759	837.704	677.753
349.577	27.693	836.962	676.847
350.592	27.532	836.436	675.763
351.606	27.557	835.838	675.312
352.621	27.697	835.182	675.243
353.635	27.578	834.612	674.281
354.650	27.516	833.957	673.466
355.665	27.166	833.224	671.520
356.679	26.077	831.676	666.194
357.694	25.890	831.327	665.164
358.708	26.555	831.000	667.297
359.723	26.537	830.442	666.725
360.738	26.681	830.516	667.256
361.752	27.168	830.263	668.786
362.767	27.365	829.914	669.170
363.781	27.638	829.498	669.779
364.796	27.939	829.476	670.805
365.810	28.011	829.131	670.734
366.825	28.107	828.817	670.770
367.840	27.956	828.846	670.179
368.854	27.861	827.700	668.846
369.869	27.502	826.992	666.901
370.883	27.328	825.990	665.398
371.898	27.440	825.538	665.385
372.913	27.407	824.885	664.678
373.927	27.365	824.062	663.805
374.942	27.606	823.567	664.226
375.956	27.587	823.381	663.945
376.971	27.714	822.928	663.984
377.986	27.862	822.053	663.757
379.000	28.118	821.628	664.288
380.015	28.015	821.689	663.903
381.029	27.963	820.616	662.789
382.044	27.857	820.096	661.925
383.059	27.871	819.685	661.585
384.073	27.968	819.349	661.606
385.088	28.107	818.438	661.317
386.102	28.186	818.216	661.363
387.117	27.720	817.875	659.345
388.132	27.783	816.752	658.610
389.146	27.617	816.067	657.400
390.161	26.992	815.580	654.696
391.175	26.917	815.114	653.995
392.190	27.596	814.514	655.898
393.205	27.728	814.481	656.288
394.219	26.629	813.050	651.128
395.234	25.083	810.254	643.288
396.248	24.221	809.177	639.285
397.263	25.158	810.252	643.443
398.278	27.034	811.436	651.058
399.292	27.633	811.543	653.232
400.307	27.266	811.031	651.450
401.321	27.233	810.579	650.911
402.336	27.290	810.103	650.675
403.350	27.594	810.060	651.672
404.365	28.028	810.106	653.202
405.380	28.289	809.884	653.896
406.394	28.536	809.985	654.803
407.409	28.891	808.939	655.164
408.423	28.677	808.628	654.090
409.438	28.634	808.050	653.412
410.453	28.663	807.572	653.073
411.467	28.690	807.471	653.027
412.482	28.674	806.717	652.303
413.496	28.672	805.951	651.617
414.511	28.767	805.845	651.815
415.526	28.827	805.325	651.548
416.540	28.708	804.878	650.705
417.555	28.654	804.526	650.175
418.569	28.344	803.783	648.419
419.584	28.165	803.327	647.358
420.599	28.303	802.964	647.496
421.613	95.346	1262.938	1373.885
422.628	81.765	1329.965	1374.018
