DTS Sentinel unit serial number:	SN413079Multiplexer serial number:	ORYXHardware model number:	OX4-SRSoftware version number:	ORYX F/W v4.00 Oryx Data Collector v3.7.2.0data status	okinstallation	princeton_trtdifferential loss correction	single-endedforward channel	channel 3reverse channel	N/Adate	2019/09/15time	00:52:35forward acquisition time	60.00reverse acquisition time	0.00gamma	496.2192k internal	0.2320k external	0.2320temperature offset calibration	0.9966default loss term (dB/km)	0.3790temperature slope calibration	1.0000multiplexer offset coefficient	1.0000multiplexer slope coefficient	1.0000fibre end	0.00T internal ref (°C)	32.06T ext. ref 1 (°C)	4.56T ext. ref 2 (°C)	26.97length (m)	temperature (°C)	Stokes	anti-Stokes-747.200	-200.000	-0.047	0.473
-746.185	-51.214	-0.103	-0.049
-745.171	-85.553	0.159	-0.050
-744.156	-99.265	0.074	-0.019
-743.142	10.808	-0.086	0.066
-742.127	-155.589	-0.098	-0.006
-741.112	-41.502	0.254	0.132
-740.098	602.887	-0.150	-0.377
-739.083	173.070	-0.265	-0.386
-738.069	2.447	0.102	-0.075
-737.054	-43.946	-0.429	0.218
-736.039	465.652	-0.072	-0.162
-735.025	114.272	-0.073	0.089
-734.010	-4.300	0.231	0.162
-732.996	16.188	-0.163	-0.130
-731.981	-42.735	-0.065	-0.033
-730.966	-200.000	0.001	-0.152
-729.952	9.776	-0.064	-0.049
-728.937	627.843	0.156	-0.397
-727.923	-76.870	-0.231	0.082
-726.908	321.611	0.021	0.041
-725.894	202.646	-0.059	-0.093
-724.879	800.000	0.038	-0.130
-723.864	-134.852	0.235	-0.029
-722.850	20.254	0.354	0.289
-721.835	-90.721	-0.181	-0.053
-720.821	519.005	0.100	-0.236
-719.806	348.999	-0.226	-0.451
-718.791	-86.968	-0.426	0.131
-717.777	6.545	-0.127	-0.096
-716.762	81.618	-0.093	0.101
-715.748	85.954	0.074	-0.082
-714.733	-50.044	-0.155	-0.074
-713.718	138.466	-0.098	-0.130
-712.704	-200.000	0.071	0.325
-711.689	-26.881	0.143	0.084
-710.675	-200.000	-0.005	-0.060
-709.660	-94.950	-0.240	0.066
-708.645	800.000	0.020	-0.084
-707.631	62.911	-0.114	-0.116
-706.616	-182.716	-0.309	-0.006
-705.602	-145.031	-0.207	-0.019
-704.587	-200.000	0.046	-0.436
-703.572	-41.755	0.370	-0.192
-702.558	-109.854	0.230	-0.049
-701.543	251.892	0.132	-0.227
-700.529	750.883	-0.070	-0.191
-699.514	-72.709	0.183	0.068
-698.499	257.013	0.147	0.255
-697.485	190.527	0.114	-0.173
-696.470	-200.000	0.027	-0.281
-695.456	89.509	-0.206	-0.232
-694.441	110.110	-0.055	0.067
-693.426	-54.189	0.283	0.130
-692.412	-43.461	0.204	0.104
-691.397	-28.470	-0.268	0.156
-690.383	458.058	-0.110	0.246
-689.368	504.685	0.101	0.236
-688.354	-111.997	-0.285	-0.058
-687.339	-200.000	0.025	-0.362
-686.324	-200.000	-0.034	0.223
-685.310	153.613	-0.094	0.130
-684.295	221.279	0.145	0.235
-683.281	-50.261	-0.185	0.088
-682.266	149.371	0.109	0.149
-681.251	-200.000	-0.006	-0.201
-680.237	800.000	-0.074	-0.211
-679.222	47.489	-0.124	-0.116
-678.208	275.176	-0.141	-0.252
-677.193	-48.851	0.435	0.210
-676.178	160.211	0.198	-0.279
-675.164	800.000	-0.018	-0.067
-674.149	-80.224	-0.199	0.067
-673.135	-200.000	0.035	-0.175
-672.120	59.204	0.164	0.163
-671.105	-80.849	-0.093	-0.031
-670.091	-47.654	-0.182	-0.089
-669.076	118.430	-0.163	0.203
-668.062	-200.000	0.011	0.321
-667.047	25.411	0.137	0.115
-666.032	-95.370	0.273	0.074
-665.018	232.150	0.171	0.282
-664.003	-200.000	0.003	-0.354
-662.989	254.171	-0.180	-0.310
-661.974	800.000	0.077	0.288
-660.959	422.850	0.007	-0.016
-659.945	61.575	0.045	0.045
-658.930	800.000	-0.098	-0.287
-657.916	-60.415	-0.149	-0.064
-656.901	800.000	0.195	0.544
-655.886	56.459	0.206	0.202
-654.872	72.828	-0.283	-0.297
-653.857	-39.748	-0.221	-0.116
-652.843	147.465	-0.130	0.176
-651.828	-200.000	-0.050	-0.292
-650.814	27.781	0.272	-0.231
-649.799	-35.952	0.241	0.131
-648.784	138.414	-0.042	-0.055
-647.770	-138.622	0.236	0.026
-646.755	235.862	0.038	-0.063
-645.741	67.481	-0.089	0.091
-644.726	272.544	0.170	-0.302
-643.711	-200.000	-0.202	0.000
-642.697	-137.445	0.291	0.033
-641.682	800.000	0.027	-0.108
-640.668	79.382	0.080	-0.087
-639.653	237.644	0.137	-0.230
-638.638	-200.000	0.042	-0.188
-637.624	-149.626	0.254	0.020
-636.609	-88.275	-0.127	0.038
-635.595	-53.758	-0.153	0.070
-634.580	-120.144	-0.437	0.075
-633.565	16.334	0.103	-0.082
-632.551	160.877	-0.143	0.201
-631.536	-200.000	-0.085	0.424
-630.522	800.000	-0.050	-0.150
-629.507	-200.000	-0.014	0.309
-628.492	19.882	-0.101	-0.082
-627.478	-111.418	-0.169	-0.035
-626.463	-200.000	0.001	-0.104
-625.449	800.000	-0.066	0.194
-624.434	-200.000	-0.004	0.129
-623.419	-200.000	0.022	-0.159
-622.405	90.888	-0.336	-0.379
-621.390	-200.000	0.048	-0.446
-620.376	-177.741	-0.170	0.004
-619.361	149.555	-0.181	0.247
-618.346	-200.000	0.001	0.255
-617.332	-16.496	-0.251	0.160
-616.317	-93.371	-0.326	-0.091
-615.303	-91.376	0.149	0.043
-614.288	800.000	0.021	-0.072
-613.273	-102.381	-0.377	-0.091
-612.259	-23.315	-0.047	-0.028
-611.244	184.251	0.193	-0.288
-610.230	800.000	0.045	-0.139
-609.215	-143.002	-0.071	0.007
-608.201	230.740	0.044	-0.072
-607.186	-84.653	0.148	-0.047
-606.171	800.000	-0.013	0.037
-605.157	-200.000	0.035	-0.194
-604.142	-85.516	0.186	-0.058
-603.128	413.643	0.084	-0.181
-602.113	-57.679	-0.140	0.062
-601.098	-200.000	-0.007	0.259
-600.084	-66.856	-0.020	0.008
-599.069	52.667	-0.120	-0.115
-598.055	-117.162	-0.193	0.035
-597.040	126.639	0.169	0.215
-596.025	115.046	-0.239	0.293
-595.011	309.019	-0.042	0.078
-593.996	-200.000	0.005	-0.267
-592.982	-43.897	0.114	0.058
-591.967	335.012	-0.285	-0.555
-590.952	-49.340	-0.203	-0.097
-589.938	299.703	0.030	-0.055
-588.923	-164.320	-0.139	-0.006
-587.909	87.653	0.148	0.165
-586.894	381.657	0.028	-0.058
-585.879	-4.465	0.099	0.069
-584.865	-83.940	0.451	-0.144
-583.850	800.000	0.089	-0.247
-582.836	92.298	0.054	-0.061
-581.821	800.000	-0.035	-0.127
-580.806	515.764	-0.124	0.290
-579.792	-54.347	-0.386	0.176
-578.777	685.806	0.117	0.308
-577.763	-46.604	0.241	-0.119
-576.748	-120.703	-0.191	-0.032
-575.733	495.726	-0.108	-0.249
-574.719	84.627	0.229	0.252
-573.704	800.000	-0.030	0.099
-572.690	-200.000	0.006	-0.035
-571.675	35.135	-0.426	-0.375
-570.661	-29.936	-0.366	0.210
-569.646	-166.292	-0.423	0.018
-568.631	-200.000	0.029	0.149
-567.617	198.021	0.121	0.186
-566.602	-200.000	0.019	0.264
-565.588	-26.185	-0.219	0.129
-564.573	-8.481	-0.163	0.110
-563.558	-114.067	0.474	0.092
-562.544	117.306	-0.200	-0.247
-561.529	-37.723	0.358	-0.191
-560.515	17.939	0.113	0.090
-559.500	500.542	-0.151	-0.349
-558.485	800.000	0.042	-0.172
-557.471	199.501	0.098	0.151
-556.456	88.601	0.135	-0.151
-555.442	-200.000	-0.005	-0.104
-554.427	-100.938	-0.092	0.023
-553.412	-200.000	0.080	0.416
-552.398	72.408	-0.129	0.134
-551.383	-157.517	0.111	-0.007
-550.369	-200.000	0.007	-0.045
-549.354	-166.135	0.334	0.014
-548.339	-7.088	0.237	-0.162
-547.325	484.216	-0.192	-0.438
-546.310	-200.000	0.065	-0.384
-545.296	800.000	0.028	0.105
-544.281	-91.274	-0.225	-0.065
-543.266	256.199	-0.102	-0.176
-542.252	-200.000	-0.040	0.203
-541.237	506.737	0.117	0.273
-540.223	-42.324	0.102	0.052
-539.208	800.000	-0.018	-0.069
-538.193	-37.105	-0.169	-0.091
-537.179	573.944	0.046	0.111
-536.164	12.494	0.074	-0.057
-535.150	-48.549	0.192	-0.093
-534.135	800.000	-0.096	-0.293
-533.121	-200.000	-0.022	-0.183
-532.106	79.512	-0.085	-0.091
-531.091	505.552	0.016	-0.037
-530.077	246.037	0.093	-0.157
-529.062	184.048	-0.082	-0.122
-528.048	-200.000	0.035	0.243
-527.033	166.863	0.256	0.365
-526.018	-82.155	-0.432	0.141
-525.004	-163.677	0.145	-0.007
-523.989	195.269	-0.224	-0.341
-522.975	-36.508	-0.123	0.067
-521.960	742.382	-0.032	0.085
-520.945	-90.215	0.195	-0.057
-519.931	402.396	-0.096	-0.203
-518.916	10.891	0.149	0.114
-517.902	612.294	0.078	0.196
-516.887	-200.000	0.060	0.269
-515.872	-144.847	-0.090	0.008
-514.858	-200.000	0.013	0.069
-513.843	-174.126	0.202	0.006
-512.829	-116.724	-0.220	0.040
-511.814	144.239	-0.088	-0.118
-510.799	-117.797	-0.256	-0.046
-509.785	-23.303	-0.123	-0.074
-508.770	161.332	0.055	0.077
-507.756	-200.000	0.026	-0.160
-506.741	-200.000	0.045	-0.314
-505.726	-89.664	-0.190	-0.056
-504.712	-200.000	0.003	0.065
-503.697	-51.275	0.137	0.064
-502.683	68.786	0.263	0.270
-501.668	91.247	0.261	0.293
-500.653	23.385	0.252	-0.208
-499.639	-200.000	0.004	-0.269
-498.624	-200.000	0.020	-0.283
-497.610	6.766	0.219	0.163
-496.595	581.187	-0.268	0.657
-495.581	26.015	-0.178	0.148
-494.566	406.006	0.114	0.242
-493.551	243.161	-0.016	-0.027
-492.537	47.888	0.060	0.056
-491.522	-63.443	0.166	0.068
-490.508	-145.083	-0.045	0.004
-489.493	-89.175	0.111	0.033
-488.478	-189.355	-0.380	-0.004
-487.464	-200.000	-0.018	-0.113
-486.449	48.287	-0.211	0.198
-485.435	125.650	-0.153	0.193
-484.420	91.092	0.298	0.335
-483.405	-5.376	-0.181	-0.124
-482.391	141.614	-0.156	-0.207
-481.376	247.638	0.155	-0.263
-480.362	-139.176	-0.397	0.043
-479.347	340.607	-0.048	0.094
-478.332	-23.148	-0.044	-0.026
-477.318	800.000	0.147	0.469
-476.303	405.532	-0.140	-0.295
-475.289	-200.000	0.034	0.204
-474.274	-200.000	-0.046	0.353
-473.259	-97.347	-0.184	-0.048
-472.245	53.161	-0.053	-0.050
-471.230	64.695	0.118	-0.119
-470.216	289.168	0.059	0.107
-469.201	192.971	0.114	0.172
-468.186	71.444	0.059	-0.061
-467.172	47.141	0.233	-0.217
-466.157	-77.506	-0.144	0.050
-465.143	667.963	0.102	-0.265
-464.128	303.737	0.074	0.137
-463.113	20.493	-0.114	-0.092
-462.099	-46.448	0.112	-0.055
-461.084	91.870	0.176	0.198
-460.070	-154.868	-0.166	0.011
-459.055	34.901	-0.233	-0.204
-458.040	56.304	0.182	0.177
-457.026	-27.448	-0.246	-0.143
-456.011	-59.510	-0.219	-0.094
-454.997	640.955	0.045	-0.114
-453.982	800.000	0.079	-0.312
-452.968	-90.599	0.117	-0.034
-451.953	207.697	0.092	-0.144
-450.938	-200.000	-0.007	-0.119
-449.924	-112.423	0.090	0.018
-448.909	-88.050	0.406	0.122
-447.895	180.725	-0.176	0.259
-446.880	69.626	0.034	0.035
-445.865	800.000	0.035	0.101
-444.851	140.865	-0.147	0.193
-443.836	-127.474	-0.299	0.043
-442.822	148.548	0.191	-0.258
-441.807	-60.565	0.240	-0.102
-440.792	83.668	-0.128	-0.139
-439.778	-79.824	0.206	0.069
-438.763	800.000	0.019	0.056
-437.749	63.905	0.147	-0.147
-436.734	-118.437	-0.341	-0.060
-435.719	-62.942	-0.226	0.093
-434.705	744.647	0.119	0.321
-433.690	298.516	0.068	0.126
-432.676	735.329	0.029	0.079
-431.661	-83.281	0.014	-0.004
-430.646	611.331	-0.065	-0.162
-429.632	-200.000	-0.102	-0.513
-428.617	-142.608	0.112	0.011
-427.603	98.079	0.161	0.185
-426.588	40.477	0.195	0.175
-425.573	160.622	-0.174	-0.242
-424.559	307.556	0.102	-0.189
-423.544	-104.785	-0.194	0.044
-422.530	476.693	-0.078	-0.176
-421.515	-98.633	-0.192	-0.049
-420.500	-39.262	0.203	-0.107
-419.486	-200.000	0.062	-0.329
-418.471	800.000	-0.036	0.119
-417.457	800.000	-0.011	-0.047
-416.442	719.509	-0.110	0.293
-415.428	36.978	0.330	0.291
-414.413	334.486	-0.212	0.409
-413.398	36.011	-0.164	0.144
-412.384	-200.000	0.019	0.138
-411.369	236.647	0.143	0.236
-410.355	800.000	-0.090	0.328
-409.340	159.919	-0.282	-0.393
-408.325	800.000	0.037	-0.149
-407.311	0.679	-0.021	-0.015
-406.296	492.013	0.040	-0.092
-405.282	-200.000	0.009	-0.242
-404.267	-167.773	0.056	0.002
-403.252	-200.000	-0.009	0.057
-402.238	-65.354	0.492	0.198
-401.223	800.000	-0.030	0.100
-400.209	800.000	0.075	-0.222
-399.194	-128.600	0.211	-0.030
-398.179	-72.922	0.108	0.039
-397.165	-71.147	0.109	-0.041
-396.150	-200.000	0.031	0.154
-395.136	165.431	-0.166	0.234
-394.121	-72.913	0.067	0.025
-393.106	94.408	-0.112	0.126
-392.092	-80.231	-0.063	0.021
-391.077	800.000	-0.037	-0.149
-390.063	-135.767	0.328	0.039
-389.048	261.494	0.081	0.140
-388.033	-132.554	-0.302	0.039
-387.019	-124.783	0.190	0.029
-386.004	60.531	-0.213	0.211
-384.990	-1.331	-0.250	-0.176
-383.975	-200.000	-0.035	-0.167
-382.960	-200.000	0.042	-0.197
-381.946	138.994	-0.158	0.207
-380.931	-33.443	0.132	0.073
-379.917	47.367	-0.081	0.076
-378.902	-200.000	0.019	0.177
-377.888	-111.706	-0.074	-0.015
-376.873	800.000	0.066	0.247
-375.858	-200.000	0.038	0.288
-374.844	5.448	0.267	-0.197
-373.829	467.915	0.119	-0.265
-372.815	-124.734	0.439	0.068
-371.800	30.830	-0.138	-0.118
-370.785	-200.000	-0.016	0.146
-369.771	58.700	-0.138	-0.135
-368.756	-87.714	0.155	-0.046
-367.742	-110.318	-0.408	0.085
-366.727	-200.000	0.016	0.157
-365.712	236.473	-0.067	-0.110
-364.698	125.496	0.056	0.070
-363.683	-19.514	0.258	0.159
-362.669	255.638	-0.097	-0.165
-361.654	800.000	0.032	0.113
-360.639	-200.000	-0.010	-0.110
-359.625	-88.968	0.110	-0.033
-358.610	-116.652	0.349	-0.064
-357.596	-110.867	0.246	0.051
-356.581	127.103	0.022	-0.028
-355.566	676.681	-0.055	-0.143
-354.552	-76.351	0.189	0.066
-353.537	342.593	-0.141	-0.276
-352.523	213.389	-0.096	0.151
-351.508	-44.813	0.179	0.089
-350.493	-200.000	0.022	-0.211
-349.479	-23.916	0.172	0.103
-348.464	268.530	-0.083	0.145
-347.450	-151.384	-0.184	-0.014
-346.435	-102.728	-0.149	0.035
-345.420	151.094	-0.061	0.082
-344.406	203.627	0.126	-0.194
-343.391	338.108	-0.088	-0.171
-342.377	-173.957	-0.273	0.008
-341.362	116.688	0.087	0.106
-340.348	-154.832	-0.180	0.012
-339.333	-62.071	-0.012	0.005
-338.318	-159.161	0.087	0.005
-337.304	-7.618	0.124	0.083
-336.289	34.317	-0.133	-0.115
-335.275	-152.594	-0.114	0.008
-334.260	201.434	0.206	0.316
-333.245	-65.759	0.183	0.073
-332.231	220.919	-0.171	0.274
-331.216	570.544	0.144	0.348
-330.202	56.433	-0.162	-0.157
-329.187	-56.531	-0.115	0.051
-328.172	142.059	-0.222	0.293
-327.158	-165.619	-0.109	0.005
-326.143	362.552	0.224	0.447
-325.129	12.521	-0.175	0.134
-324.114	-166.598	0.405	0.017
-323.099	-200.000	-0.065	-0.289
-322.085	-200.000	-0.006	-0.232
-321.070	800.000	-0.040	-0.120
-320.056	-30.364	-0.388	-0.219
-319.041	-200.000	-0.017	-0.146
-318.026	67.722	0.220	0.223
-317.012	-50.160	-0.338	-0.159
-315.997	85.235	0.266	0.290
-314.983	-93.225	-0.231	-0.064
-313.968	-84.809	0.096	0.030
-312.953	280.463	-0.130	-0.232
-311.939	-83.574	-0.082	-0.026
-310.924	-200.000	-0.093	-0.499
-309.910	-140.801	0.171	0.017
-308.895	745.164	0.105	-0.280
-307.880	-70.734	-0.209	-0.078
-306.866	800.000	-0.151	0.436
-305.851	-44.464	0.088	0.044
-304.837	-124.068	-0.145	0.023
-303.822	25.568	-0.044	-0.037
-302.807	-59.045	0.262	-0.113
-301.793	-57.152	0.395	-0.173
-300.778	122.845	-0.090	0.112
-299.764	-152.093	-0.171	-0.012
-298.749	800.000	0.062	0.257
-297.735	300.817	-0.115	-0.211
-296.720	162.588	0.093	0.129
-295.705	-153.225	0.049	-0.003
-294.691	-60.062	0.081	0.035
-293.676	800.000	-0.026	0.098
-292.662	427.842	-0.143	-0.307
-291.647	59.930	-0.133	-0.130
-290.632	-178.655	0.161	0.004
-289.618	-54.967	-0.184	-0.082
-288.603	22.022	0.222	0.180
-287.589	-200.000	-0.009	0.409
-286.574	133.218	0.142	0.182
-285.559	36.491	-0.231	-0.203
-284.545	219.398	0.088	-0.140
-283.530	71.376	0.122	-0.126
-282.516	-99.054	-0.215	0.054
-281.501	65.181	0.118	0.119
-280.486	-128.120	0.301	-0.043
-279.472	136.823	0.169	-0.220
-278.457	-144.120	0.125	-0.012
-277.443	-200.000	-0.002	-0.096
-276.428	-110.898	-0.352	-0.072
-275.413	-175.819	0.157	-0.004
-274.399	-182.707	-0.147	0.003
-273.384	-200.000	-0.005	-0.171
-272.370	130.641	-0.074	-0.094
-271.355	-36.414	0.033	-0.018
-270.340	800.000	-0.029	0.113
-269.326	-66.480	-0.249	0.098
-268.311	-101.740	-0.207	-0.050
-267.297	8.704	-0.312	0.233
-266.282	-74.284	-0.330	-0.118
-265.267	320.247	0.067	0.125
-264.253	800.000	0.056	-0.238
-263.238	23.696	-0.180	-0.147
-262.224	86.228	-0.120	0.131
-261.209	800.000	0.058	-0.201
-260.195	190.711	0.262	0.391
-259.180	800.000	0.052	-0.147
-258.165	248.986	-0.016	0.027
-257.151	73.483	0.204	0.211
-256.136	354.560	-0.030	-0.059
-255.122	-91.411	-0.178	0.051
-254.107	-200.000	0.003	-0.167
-253.092	159.516	0.193	0.267
-252.078	23.204	0.080	-0.065
-251.063	-79.079	-0.103	0.035
-250.049	436.006	-0.053	-0.114
-249.034	-200.000	-0.010	-0.301
-248.019	-200.000	-0.007	-0.184
-247.005	-74.575	-0.316	-0.113
-245.990	-32.019	-0.184	-0.102
-244.976	15.306	-0.050	-0.039
-243.961	-3.771	-0.280	-0.193
-242.946	96.933	-0.075	-0.085
-241.932	418.616	-0.147	0.311
-240.917	-159.464	0.145	-0.008
-239.903	-134.743	0.124	0.015
-238.888	-50.301	-0.143	-0.067
-237.873	-64.602	-0.553	0.222
-236.859	198.930	-0.171	0.259
-235.844	-126.612	-0.040	0.006
-234.830	158.361	0.081	0.112
-233.815	77.352	0.190	-0.200
-232.800	-67.153	0.148	0.058
-231.786	524.457	0.093	0.216
-230.771	-200.000	0.016	-0.161
-229.757	-47.681	0.063	0.030
-228.742	0.611	0.191	0.136
-227.727	-200.000	-0.001	0.115
-226.713	-73.751	0.094	0.034
-225.698	-200.000	0.034	0.256
-224.684	337.115	-0.064	0.123
-223.669	189.082	-0.062	-0.092
-222.655	192.134	-0.212	-0.317
-221.640	-100.084	-0.089	0.022
-220.625	2.758	0.196	-0.141
-219.611	528.962	-0.050	0.116
-218.596	-126.725	-0.229	-0.034
-217.582	-135.896	0.209	-0.024
-216.567	800.000	0.028	0.111
-215.552	-88.170	0.340	-0.101
-214.538	-128.678	-0.113	0.016
-213.523	-71.262	0.172	0.064
-212.509	-13.317	-0.135	-0.087
-211.494	-200.000	-0.010	-0.125
-210.479	800.000	-0.052	0.202
-209.465	-18.323	0.108	0.067
-208.450	800.000	-0.083	0.237
-207.436	30.249	-0.170	-0.144
-206.421	-75.717	0.257	0.090
-205.406	-132.979	-0.167	0.021
-204.392	-61.871	0.087	-0.036
-203.377	800.000	0.075	-0.260
-202.363	18.529	-0.335	0.265
-201.348	-52.194	0.141	-0.065
-200.333	128.283	0.213	-0.268
-199.319	-6.433	0.284	-0.191
-198.304	720.684	0.047	0.124
-197.290	-132.129	0.251	-0.032
-196.275	210.002	0.165	0.256
-195.260	-89.813	-0.047	-0.014
-194.246	-43.156	0.136	-0.068
-193.231	-65.848	0.459	0.181
-192.217	-79.698	0.272	0.091
-191.202	65.341	0.031	-0.031
-190.187	184.291	0.092	0.134
-189.173	-200.000	-0.025	0.145
-188.158	335.602	0.031	0.059
-187.144	498.692	0.110	-0.250
-186.129	-200.000	0.008	-0.059
-185.114	404.592	0.123	0.256
-184.100	13.629	-0.226	0.173
-183.085	-97.582	-0.060	-0.015
-182.071	523.796	0.044	-0.102
-181.056	-33.890	0.137	0.075
-180.042	560.572	-0.026	-0.061
-179.027	-4.501	0.286	0.196
-178.012	-200.000	-0.000	0.213
-176.998	800.000	-0.049	-0.196
-175.983	287.889	0.128	-0.229
-174.969	-26.740	-0.211	-0.122
-173.954	-71.996	0.182	-0.067
-172.939	3.090	0.325	-0.234
-171.925	800.000	-0.057	0.163
-170.910	-55.562	0.109	0.048
-169.896	493.920	-0.057	0.129
-168.881	-161.633	-0.252	0.013
-167.866	128.993	0.053	0.067
-166.852	-97.029	-0.022	0.006
-165.837	-14.674	-0.093	-0.059
-164.823	-200.000	0.387	0.001
-163.808	-200.000	0.059	-0.277
-162.793	-37.208	-0.320	-0.169
-161.779	-193.294	0.391	0.003
-160.764	800.000	-0.141	-0.430
-159.750	96.928	-0.108	-0.123
-158.735	-37.493	0.162	-0.085
-157.720	-127.901	0.241	-0.034
-156.706	39.514	-0.152	0.134
-155.691	69.505	0.172	-0.175
-154.677	170.307	-0.054	0.076
-153.662	-51.629	-0.063	0.029
-152.647	107.756	-0.103	0.121
-151.633	-119.747	0.085	-0.014
-150.618	38.820	0.173	0.152
-149.604	-200.000	0.004	-0.155
-148.589	319.362	0.159	-0.298
-147.574	800.000	0.061	-0.169
-146.560	624.034	-0.086	-0.214
-145.545	6.242	-0.183	-0.134
-144.531	-123.705	-0.033	-0.005
-143.516	-50.790	-0.118	0.055
-142.502	-147.303	-0.136	-0.011
-141.487	119.697	0.074	-0.091
-140.472	-20.876	-0.165	-0.100
-139.458	-70.687	0.194	-0.072
-138.443	50.292	0.011	-0.010
-137.429	213.005	0.067	0.104
-136.414	39.070	0.039	-0.034
-135.399	17.774	-0.102	0.080
-134.385	-200.000	0.013	0.209
-133.370	-200.000	-0.023	0.204
-132.356	-200.000	0.036	0.216
-131.341	-72.224	-0.199	0.073
-130.326	-48.132	0.122	0.058
-129.312	-87.432	-0.117	0.035
-128.297	64.578	0.096	0.095
-127.283	180.035	0.053	0.077
-126.268	637.565	0.082	0.206
-125.253	-45.873	0.186	0.091
-124.239	-53.787	0.302	-0.136
-123.224	-117.876	-0.194	0.034
-122.210	-200.000	-0.029	-0.153
-121.195	279.573	-0.166	0.292
-120.180	-53.748	-0.151	0.068
-119.166	-200.000	-0.057	0.410
-118.151	-93.977	-0.118	-0.032
-117.137	81.819	0.181	-0.193
-116.122	165.695	-0.170	-0.237
-115.107	42.930	0.128	0.115
-114.093	110.091	0.196	-0.232
-113.078	-160.030	0.290	-0.016
-112.064	668.900	0.174	0.445
-111.049	19.798	-0.181	-0.144
-110.034	-38.159	-0.094	-0.049
-109.020	-93.244	-0.259	-0.071
-108.005	137.079	0.026	-0.034
-106.991	-84.185	0.152	-0.048
-105.976	35.086	-0.277	0.239
-104.962	-89.922	0.160	0.046
-103.947	14.397	-0.438	0.337
-102.932	-185.008	-0.047	0.001
-101.918	-52.718	-0.147	-0.067
-100.903	800.000	0.041	-0.127
-99.889	154.109	-0.088	-0.119
-98.874	800.000	-0.100	-0.362
-97.859	125.529	0.037	0.046
-96.845	-87.434	-0.120	-0.036
-95.830	-61.882	-0.310	-0.128
-94.816	45.054	-0.223	0.202
-93.801	363.455	-0.106	-0.211
-92.786	-8.099	0.203	0.135
-91.772	-200.000	-0.033	-0.147
-90.757	800.000	0.026	-0.089
-89.743	-59.225	-0.132	0.056
-88.728	-12.538	-0.387	0.249
-87.713	-200.000	-0.019	-0.088
-86.699	-200.000	0.025	0.394
-85.684	-115.543	0.562	0.104
-84.670	397.189	0.111	-0.228
-83.655	-200.000	0.012	-0.089
-82.640	209.679	-0.237	0.366
-81.626	800.000	-0.142	-0.411
-80.611	-144.934	-0.343	-0.031
-79.597	-96.678	-0.440	0.114
-78.582	292.701	0.121	0.216
-77.567	-43.881	0.262	-0.130
-76.553	-200.000	-0.026	0.117
-75.538	800.000	-0.116	0.456
-74.524	24.139	-0.090	-0.073
-73.509	-200.000	0.000	-0.222
-72.494	-200.000	-0.026	-0.170
-71.480	-132.336	0.213	0.027
-70.465	17.502	-0.166	-0.130
-69.451	-112.418	-0.358	0.071
-68.436	-64.001	0.278	0.112
-67.422	800.000	0.081	0.257
-66.407	-33.688	-0.240	0.130
-65.392	-121.921	-0.119	-0.019
-64.378	-160.873	-0.174	0.009
-63.363	-200.000	-0.001	0.124
-62.349	55.775	0.078	0.074
-61.334	197.315	-0.811	-1.218
-60.319	219.107	0.262	0.413
-59.305	800.000	-0.295	-0.830
-58.290	210.864	0.657	1.016
-57.276	800.000	0.431	1.675
-56.261	-200.000	95.394	595.745
-55.246	658.256	1369.092	3465.443
-54.232	199.946	2543.013	3841.605
-53.217	119.142	2159.388	2628.142
-52.203	42.769	1705.054	1528.396
-51.188	35.229	1517.969	1309.373
-50.173	32.849	1491.035	1270.094
-49.159	52.663	1540.039	1447.746
-48.144	54.424	1556.994	1475.660
-47.130	35.457	1517.558	1310.367
-46.115	32.248	1503.089	1276.081
-45.100	32.173	1499.247	1272.259
-44.086	32.119	1497.351	1270.232
-43.071	32.121	1495.732	1268.822
-42.057	32.075	1493.954	1266.958
-41.042	32.102	1492.592	1265.932
-40.027	32.128	1491.562	1265.182
-39.013	32.052	1490.325	1263.572
-37.998	32.037	1488.975	1262.279
-36.984	32.022	1487.061	1260.507
-35.969	32.054	1485.943	1259.720
-34.954	32.068	1484.232	1258.316
-33.940	32.106	1483.196	1257.641
-32.925	32.119	1481.330	1256.094
-31.911	32.103	1480.244	1255.014
-30.896	32.027	1479.543	1253.867
-29.881	32.106	1477.600	1252.696
-28.867	32.158	1476.157	1251.770
-27.852	32.096	1475.308	1250.586
-26.838	32.137	1473.462	1249.244
-25.823	32.176	1472.140	1248.332
-24.809	32.091	1470.774	1246.559
-23.794	32.127	1468.622	1244.926
-22.779	32.102	1467.489	1243.755
-21.765	32.046	1466.540	1242.526
-20.750	32.190	1465.057	1242.173
-19.736	32.063	1464.560	1240.867
-18.721	32.045	1463.421	1239.728
-17.706	32.062	1462.525	1239.035
-16.692	32.102	1460.919	1237.887
-15.677	32.072	1459.826	1236.713
-14.663	32.034	1459.171	1235.863
-13.648	31.963	1458.507	1234.782
-12.633	32.056	1457.278	1234.303
-11.619	32.092	1456.107	1233.498
-10.604	32.047	1455.620	1232.745
-9.590	32.057	1454.545	1231.847
-8.575	31.989	1453.692	1230.635
-7.560	31.967	1453.113	1229.948
-6.546	32.003	1452.030	1229.221
-5.531	31.984	1451.012	1228.185
-4.517	31.971	1449.791	1227.017
-3.502	31.987	1448.760	1226.200
-2.487	32.001	1447.830	1225.455
-1.473	31.927	1447.234	1224.419
-0.458	31.968	1445.783	1223.413
0.556	30.668	1436.181	1212.747
1.571	27.753	1411.106	1172.761
2.586	24.238	1351.252	1101.245
3.600	22.668	1269.497	1025.404
4.615	21.257	1223.984	980.639
5.629	18.302	1167.878	919.751
6.644	10.938	1084.863	817.413
7.659	5.242	1045.752	760.214
8.673	4.580	1040.293	752.972
9.688	4.517	1037.337	750.466
10.702	4.589	1035.991	749.771
11.717	4.544	1033.628	747.779
12.731	6.596	1035.383	758.864
13.746	13.326	1045.285	798.648
14.761	18.476	1050.816	827.743
15.775	18.298	1050.342	826.437
16.790	17.409	1047.958	820.203
17.804	16.208	1045.957	812.780
18.819	15.380	1043.714	806.985
19.834	14.962	1042.696	804.119
20.848	14.653	1041.718	801.811
21.863	14.353	1041.465	800.104
22.877	14.246	1040.346	798.660
23.892	14.063	1039.040	796.710
24.907	14.055	1038.383	796.096
25.921	14.016	1037.784	795.379
26.936	14.089	1036.971	795.036
27.950	14.078	1036.247	794.357
28.965	14.060	1034.823	793.108
29.980	14.293	1033.525	793.157
30.994	14.301	1032.586	792.404
32.009	14.282	1031.860	791.684
33.023	14.307	1031.231	791.250
34.038	14.304	1030.857	790.881
35.053	14.302	1029.266	789.580
36.067	14.131	1028.380	788.022
37.082	14.141	1027.346	787.204
38.096	14.148	1026.694	786.668
39.111	14.170	1026.109	786.254
40.126	14.291	1025.023	785.923
41.140	14.235	1023.319	784.286
42.155	14.015	1022.704	782.710
43.169	13.869	1022.145	781.524
44.184	13.901	1021.075	780.787
45.199	13.830	1019.986	779.550
46.213	13.924	1018.464	778.758
47.228	13.887	1018.040	778.196
48.242	14.120	1016.793	778.264
49.257	14.161	1016.436	778.111
50.271	14.187	1014.646	776.796
51.286	14.066	1014.394	775.966
52.301	14.144	1013.615	775.669
53.315	14.171	1012.980	775.240
54.330	14.233	1011.715	774.489
55.344	14.156	1010.705	773.292
56.359	13.958	1010.101	771.842
57.374	13.981	1009.534	771.447
58.388	14.023	1008.426	770.726
59.403	13.878	1008.099	769.735
60.417	13.900	1007.146	769.043
61.432	13.850	1006.302	768.100
62.447	13.900	1005.309	767.500
63.461	13.857	1004.746	766.807
64.476	13.779	1003.912	765.744
65.490	13.882	1002.566	765.124
66.505	13.823	1002.126	764.448
67.520	13.927	1001.294	764.223
68.534	13.904	1000.261	763.264
69.549	13.884	999.540	762.549
70.563	13.892	999.141	762.216
71.578	13.864	998.457	761.499
72.593	13.796	997.607	760.469
73.607	13.697	996.542	759.141
74.622	13.756	995.562	758.597
75.636	13.842	994.359	758.005
76.651	13.872	993.528	757.439
77.666	13.852	992.841	756.761
78.680	13.752	992.712	756.136
79.695	13.787	991.921	755.629
80.709	13.863	991.300	755.435
81.724	13.910	990.853	755.238
82.739	13.859	990.129	754.391
83.753	13.961	989.576	754.365
84.768	14.157	988.539	754.398
85.782	14.297	987.479	754.155
86.797	14.290	987.032	753.715
87.812	14.275	986.473	753.154
88.826	14.130	985.657	751.809
89.841	14.194	984.715	751.312
90.855	14.164	984.176	750.698
91.870	14.259	983.302	750.394
92.884	14.367	982.687	750.348
93.899	14.358	981.491	749.324
94.914	14.339	980.890	748.713
95.928	14.474	980.135	748.680
96.943	14.374	979.592	747.749
97.957	14.267	979.123	746.846
98.972	14.269	978.216	746.097
99.987	14.246	977.440	745.334
101.001	14.215	976.373	744.319
102.016	14.198	975.900	743.816
103.030	14.281	974.569	743.105
104.045	14.268	973.807	742.398
105.060	14.224	973.000	741.521
106.074	14.290	971.813	740.847
107.089	14.124	970.878	739.328
108.103	14.079	970.084	738.458
109.118	13.865	969.253	736.813
110.133	13.988	968.368	736.620
111.147	13.926	967.679	735.754
112.162	13.889	967.144	735.122
113.176	14.049	966.073	734.949
114.191	13.939	965.278	733.794
115.206	14.077	964.227	733.537
116.220	14.012	963.362	732.528
117.235	13.963	962.515	731.603
118.249	13.962	962.054	731.185
119.264	14.003	961.052	730.537
120.279	14.013	959.900	729.643
121.293	13.950	959.364	728.896
122.308	13.852	958.565	727.794
123.322	13.925	957.801	727.469
124.337	13.794	956.621	725.933
125.352	13.906	955.333	725.380
126.366	13.772	954.498	724.098
127.381	13.817	953.626	723.571
128.395	13.981	952.140	723.093
129.410	13.838	951.412	721.853
130.424	13.837	950.672	721.225
131.439	14.088	949.650	721.475
132.454	14.083	949.166	721.021
133.468	13.925	948.831	720.019
134.483	14.054	947.694	719.648
135.497	14.001	947.499	719.206
136.512	13.973	946.473	718.244
137.527	14.174	945.400	718.234
138.541	13.979	944.862	716.921
139.556	13.998	944.234	716.465
140.570	14.076	943.300	716.027
141.585	14.103	942.806	715.706
142.600	14.202	942.172	715.586
143.614	14.246	941.249	715.012
144.629	14.260	940.549	714.474
145.643	14.241	940.057	713.955
146.658	14.216	939.508	713.368
147.673	14.253	937.704	712.097
148.687	14.101	936.721	710.636
149.702	14.147	936.314	710.461
150.716	14.219	934.746	709.516
151.731	14.127	934.553	708.912
152.746	14.110	933.750	708.169
153.760	14.147	933.141	707.802
154.775	14.041	932.925	707.124
155.789	14.080	931.865	706.424
156.804	14.253	930.930	706.387
157.819	14.268	930.110	705.766
158.833	14.300	929.570	705.428
159.848	14.202	929.156	704.639
160.862	14.348	928.561	704.744
161.877	14.264	927.553	703.559
162.892	14.333	926.214	702.775
163.906	14.158	925.448	701.393
164.921	14.155	924.777	700.811
165.935	14.297	923.778	700.586
166.950	14.253	923.288	699.969
167.964	14.342	921.964	699.277
168.979	14.360	921.453	698.902
169.994	14.147	920.170	696.978
171.008	14.203	919.490	696.632
172.023	14.177	918.958	696.060
173.037	14.337	917.963	695.911
174.052	14.394	917.421	695.679
175.067	14.513	916.894	695.713
176.081	14.255	916.001	693.901
177.096	14.247	915.070	693.099
178.110	14.245	914.007	692.225
179.125	14.313	913.423	692.005
180.140	14.389	912.366	691.457
181.154	14.369	911.717	690.823
182.169	14.348	911.608	690.589
183.183	14.503	911.182	690.849
184.198	14.654	909.947	690.476
185.213	14.472	909.582	689.388
186.227	14.598	908.779	689.235
187.242	14.634	908.416	689.050
188.256	14.481	908.108	688.125
189.271	14.605	907.478	688.097
190.286	14.672	906.338	687.446
191.300	14.517	905.548	686.151
192.315	14.266	905.010	684.648
193.329	14.152	904.351	683.619
194.344	14.293	903.003	683.119
195.359	14.357	902.785	683.157
196.373	14.353	902.513	682.873
197.388	14.598	901.396	682.972
198.402	14.689	901.186	683.124
199.417	14.767	900.825	683.109
200.432	14.887	900.612	683.380
201.446	14.871	900.128	682.883
202.461	15.011	899.455	682.884
203.475	15.008	899.113	682.551
204.490	14.893	898.579	681.619
205.504	14.825	897.726	680.634
206.519	14.757	897.057	679.791
207.534	14.701	896.139	678.804
208.548	14.651	895.331	677.933
209.563	14.808	894.537	677.909
210.577	14.838	893.803	677.413
211.592	14.738	893.317	676.578
212.607	14.932	892.988	677.054
213.621	14.875	892.679	676.529
214.636	14.964	891.916	676.251
215.650	14.877	891.275	675.355
216.665	15.035	890.823	675.592
217.680	15.047	890.200	675.108
218.694	15.078	889.762	674.838
219.709	15.152	889.178	674.635
220.723	14.973	888.701	673.494
221.738	14.978	887.769	672.746
222.753	15.080	886.964	672.489
223.767	15.073	886.056	671.711
224.782	15.215	885.131	671.520
225.796	15.186	884.619	670.954
226.811	15.203	884.170	670.625
227.826	15.152	883.317	669.712
228.840	15.059	882.644	668.774
229.855	15.139	882.202	668.700
230.869	15.163	881.610	668.288
231.884	15.143	880.767	667.508
232.899	15.004	880.206	666.470
233.913	14.927	879.380	665.481
234.928	15.048	878.457	665.204
235.942	14.908	877.876	664.150
236.957	14.970	877.400	663.975
237.972	15.096	876.310	663.592
238.986	15.048	875.800	662.956
240.001	15.010	875.142	662.250
241.015	15.107	874.698	662.239
242.030	15.075	874.078	661.583
243.045	15.044	873.551	661.006
244.059	15.180	872.719	660.853
245.074	15.217	872.122	660.486
246.088	15.251	871.789	660.311
247.103	15.282	871.174	659.911
248.117	15.311	870.750	659.641
249.132	15.332	870.094	659.172
250.147	15.349	869.724	658.898
251.161	15.583	869.189	659.354
252.176	15.498	868.399	658.361
253.190	15.578	867.797	658.162
254.205	15.666	867.113	657.930
255.220	15.668	866.729	657.588
256.234	15.613	866.092	656.830
257.249	15.614	865.763	656.525
258.263	15.772	864.480	656.113
259.278	15.673	864.663	655.808
260.293	15.566	863.699	654.602
261.307	15.809	863.105	655.039
262.322	15.860	862.388	654.636
263.336	15.809	861.735	653.884
264.351	15.880	861.526	653.942
265.366	15.880	860.629	653.204
266.380	15.858	860.053	652.623
267.395	15.906	859.404	652.260
268.409	15.772	858.932	651.326
269.424	16.025	857.724	651.329
270.439	15.882	857.251	650.358
271.453	15.820	856.427	649.437
272.468	15.845	855.567	648.824
273.482	15.868	855.104	648.504
274.497	15.796	854.835	647.967
275.512	15.835	853.844	647.307
276.526	15.872	852.777	646.583
277.541	15.943	852.290	646.429
278.555	15.876	851.853	645.786
279.570	15.973	851.739	646.011
280.585	16.046	850.833	645.548
281.599	15.960	850.904	645.213
282.614	16.105	849.751	644.839
283.628	16.146	848.852	644.257
284.643	15.976	848.294	643.125
285.657	16.145	847.716	643.277
286.672	15.956	847.949	642.675
287.687	15.884	847.276	641.833
288.701	15.982	846.781	641.775
289.716	16.071	845.978	641.449
290.730	15.986	845.153	640.441
291.745	16.157	844.607	640.620
292.760	16.104	844.274	640.112
293.774	16.100	843.773	639.658
294.789	16.187	843.014	639.356
295.803	16.295	842.719	639.488
296.818	16.128	842.048	638.286
297.833	16.190	840.997	637.667
298.847	16.189	840.771	637.438
299.862	16.232	839.528	636.599
300.876	16.202	839.304	636.262
301.891	16.296	838.727	636.121
302.906	16.321	838.068	635.660
303.920	16.448	837.256	635.465
304.935	16.463	836.816	635.131
305.949	16.369	836.268	634.307
306.964	16.408	835.808	634.048
307.979	16.397	835.246	633.526
308.993	16.505	834.310	633.163
310.008	16.478	833.923	632.712
311.022	16.445	833.773	632.420
312.037	16.633	832.525	632.120
313.052	16.568	832.419	631.739
314.066	16.327	831.674	630.219
315.081	16.256	831.081	629.450
316.095	16.290	830.770	629.284
317.110	16.302	830.242	628.873
318.125	16.326	829.356	628.236
319.139	16.366	828.879	627.968
320.154	16.462	828.584	628.047
321.168	16.508	827.964	627.690
322.183	16.377	827.446	626.756
323.197	16.589	826.724	626.938
324.212	16.464	826.497	626.250
325.227	16.422	825.744	625.467
326.241	16.499	825.310	625.370
327.256	16.480	824.672	624.760
328.270	16.394	824.566	624.307
329.285	16.397	823.775	623.662
330.300	16.533	823.074	623.579
331.314	16.519	822.472	623.015
332.329	16.661	822.053	623.166
333.343	16.599	821.319	622.328
334.358	16.757	820.918	622.550
335.373	16.691	820.339	621.813
336.387	16.629	819.618	620.983
337.402	16.700	818.972	620.699
338.416	16.779	818.439	620.530
339.431	16.667	818.120	619.821
340.446	16.948	817.341	620.207
341.460	17.023	816.512	619.794
342.475	16.959	816.532	619.522
343.489	16.938	815.899	618.909
344.504	16.964	815.496	618.643
345.519	16.938	815.084	618.182
346.533	17.096	814.370	618.160
347.548	17.009	813.921	617.449
348.562	17.041	813.579	617.251
349.577	16.983	812.904	616.473
350.592	16.897	812.601	615.880
351.606	16.704	812.303	614.895
352.621	16.776	811.559	614.539
353.635	16.724	811.132	613.973
354.650	16.915	810.708	614.290
355.665	17.029	810.003	614.114
356.679	16.927	809.987	613.680
357.694	16.923	809.355	613.132
358.708	16.998	808.579	612.761
359.723	17.052	808.013	612.473
360.738	17.084	807.613	612.229
361.752	17.079	807.128	611.789
362.767	16.994	807.072	611.387
363.781	17.264	806.081	611.552
364.796	17.132	806.086	611.028
365.810	17.240	805.616	611.006
366.825	17.343	805.272	611.063
367.840	17.357	805.032	610.876
368.854	17.449	804.405	610.677
369.869	17.439	803.639	610.006
370.883	17.359	803.309	609.412
371.898	17.276	802.400	608.372
372.913	17.421	801.766	608.356
373.927	17.568	801.147	608.357
374.942	17.392	801.066	607.616
375.956	17.520	800.082	607.272
376.971	17.378	800.017	606.661
377.986	17.540	799.434	606.743
379.000	17.471	799.056	606.156
380.015	17.569	798.573	606.086
381.029	17.545	798.135	605.616
382.044	17.532	797.473	605.013
383.059	17.378	797.130	604.152
384.073	17.643	796.196	604.330
385.088	17.495	795.938	603.555
386.102	17.449	795.134	602.729
387.117	17.582	794.293	602.509
388.132	17.385	794.206	601.695
389.146	17.447	793.601	601.402
390.161	17.390	793.677	601.205
391.175	17.639	792.950	601.478
392.190	17.757	792.353	601.390
393.205	17.529	792.458	600.611
394.219	17.557	791.966	600.285
395.234	17.524	791.304	599.613
396.248	17.641	790.128	599.082
397.263	17.690	789.947	599.061
398.278	17.459	789.867	598.137
399.292	17.443	789.064	597.420
400.307	17.556	788.716	597.500
401.321	17.501	788.473	597.068
402.336	17.477	788.167	596.700
403.350	17.506	787.937	596.577
404.365	17.544	787.391	596.244
405.380	17.744	787.128	596.690
406.394	17.679	786.690	596.079
407.409	17.810	786.031	595.984
408.423	17.961	785.549	596.093
409.438	17.839	784.822	595.064
410.453	18.148	784.676	595.975
411.467	18.060	784.288	595.324
412.482	18.019	783.789	594.750
413.496	18.097	783.359	594.640
414.511	18.089	783.101	594.364
415.526	18.147	782.635	594.161
416.540	18.113	782.125	593.602
417.555	18.011	781.826	592.969
418.569	18.135	781.256	592.916
419.584	17.938	781.055	592.026
420.599	18.019	780.644	591.943
421.613	155.881	1368.697	1794.429
422.628	134.530	1454.367	1794.519
