DTS Sentinel unit serial number:	SN413079Multiplexer serial number:	ORYXHardware model number:	OX4-SRSoftware version number:	ORYX F/W v4.00 Oryx Data Collector v3.7.2.0data status	okinstallation	princeton_trtdifferential loss correction	single-endedforward channel	channel 3reverse channel	N/Adate	2019/09/16time	01:04:35forward acquisition time	60.00reverse acquisition time	0.00gamma	496.2192k internal	0.2338k external	0.2338temperature offset calibration	0.9950default loss term (dB/km)	0.3790temperature slope calibration	1.0000multiplexer offset coefficient	1.0000multiplexer slope coefficient	1.0000fibre end	0.00T internal ref (°C)	27.31T ext. ref 1 (°C)	9.76T ext. ref 2 (°C)	21.54length (m)	temperature (°C)	Stokes	anti-Stokes-747.200	146.068	0.086	-0.116
-746.185	800.000	-0.093	0.286
-745.171	9.957	0.092	0.070
-744.156	-72.367	-0.586	0.218
-743.142	-144.360	-0.141	-0.013
-742.127	397.347	0.236	0.494
-741.112	733.687	-0.051	0.138
-740.098	-200.000	0.009	0.059
-739.083	-173.851	0.292	-0.009
-738.069	120.696	-0.012	0.015
-737.054	125.933	0.218	-0.277
-736.039	-200.000	0.006	0.083
-735.025	800.000	-0.117	0.469
-734.010	-114.081	-0.426	-0.083
-732.996	32.431	0.369	-0.320
-731.981	484.032	0.024	0.054
-730.966	586.069	0.024	-0.059
-729.952	-128.490	-0.275	-0.039
-728.937	371.611	0.027	-0.054
-727.923	49.891	-0.188	-0.178
-726.908	-200.000	0.023	-0.206
-725.894	48.112	-0.038	-0.036
-724.879	-104.416	-0.241	-0.056
-723.864	-200.000	0.036	-0.261
-722.850	-55.902	-0.260	0.116
-721.835	106.136	0.225	-0.267
-720.821	41.100	0.157	0.142
-719.806	-57.913	0.157	0.069
-718.791	-200.000	0.006	0.250
-717.777	-129.849	-0.251	0.035
-716.762	-200.000	0.017	0.371
-715.748	800.000	-0.097	-0.354
-714.733	-135.628	0.312	0.037
-713.718	269.635	-0.135	0.238
-712.704	644.256	-0.080	0.205
-711.689	12.908	-0.058	0.045
-710.675	-90.678	0.189	0.055
-709.660	-129.129	-0.228	-0.032
-708.645	299.864	-0.096	0.177
-707.631	-15.400	0.355	-0.227
-706.616	-200.000	0.016	-0.107
-705.602	685.237	-0.080	-0.210
-704.587	800.000	-0.059	0.191
-703.572	7.759	-0.170	-0.128
-702.558	800.000	0.070	-0.195
-701.543	-130.816	0.205	0.028
-700.529	800.000	-0.090	0.278
-699.514	101.499	-0.197	0.230
-698.499	585.586	0.029	0.071
-697.485	-164.561	-0.356	-0.016
-696.470	-200.000	0.139	-0.001
-695.456	800.000	-0.047	0.175
-694.441	800.000	0.100	-0.284
-693.426	174.079	0.165	-0.238
-692.412	-33.768	0.166	0.092
-691.397	142.919	0.230	-0.307
-690.383	800.000	0.014	0.041
-689.368	-50.099	0.107	0.051
-688.354	232.647	-0.079	0.131
-687.339	-153.411	-0.177	0.012
-686.324	-63.203	0.174	0.072
-685.310	-139.932	-0.251	0.027
-684.295	-134.466	-0.319	0.039
-683.281	-66.862	0.189	-0.075
-682.266	147.900	0.131	-0.177
-681.251	-143.227	0.057	-0.006
-680.237	-73.714	0.279	-0.102
-679.222	18.038	-0.342	-0.273
-678.208	-1.110	-0.115	0.081
-677.193	28.174	-0.241	0.204
-676.178	55.574	0.206	0.200
-675.164	351.566	0.053	0.105
-674.149	-75.975	-0.236	0.083
-673.135	800.000	0.114	-0.326
-672.120	-20.242	-0.172	-0.106
-671.105	16.811	-0.069	0.054
-670.091	740.516	0.114	0.307
-669.076	-19.311	0.250	0.155
-668.062	800.000	0.116	0.335
-667.047	800.000	-0.112	-0.344
-666.032	-200.000	-0.017	0.099
-665.018	-200.000	0.010	-0.064
-664.003	-106.793	-0.061	0.014
-662.989	260.986	0.048	0.084
-661.974	536.919	-0.221	0.525
-660.959	-150.589	-0.118	0.009
-659.945	62.697	0.162	-0.162
-658.930	-56.652	0.221	-0.098
-657.916	737.155	-0.034	-0.092
-656.901	512.572	-0.111	-0.257
-655.886	236.348	-0.055	-0.090
-654.872	-114.550	-0.185	0.035
-653.857	800.000	0.044	-0.128
-652.843	-200.000	0.012	0.076
-651.828	-17.361	-0.110	-0.069
-650.814	49.191	-0.040	0.038
-649.799	191.815	0.105	-0.158
-648.784	-89.771	0.234	-0.069
-647.770	-1.827	-0.234	0.165
-646.755	166.434	0.087	0.123
-645.741	-200.000	0.021	-0.167
-644.726	575.843	-0.097	0.238
-643.711	253.585	-0.116	-0.197
-642.697	-200.000	-0.076	-0.496
-641.682	-200.000	-0.013	-0.195
-640.668	-67.541	-0.236	-0.092
-639.653	-128.672	-0.201	-0.028
-638.638	-40.471	0.270	0.140
-637.624	-156.963	-0.125	-0.008
-636.609	800.000	0.120	-0.334
-635.595	354.786	0.125	0.248
-634.580	-54.313	-0.119	0.054
-633.565	-94.944	0.105	0.028
-632.551	-23.080	0.202	0.121
-631.536	-38.078	-0.208	0.110
-630.522	103.981	-0.198	-0.233
-629.507	800.000	0.013	0.038
-628.492	-62.710	-0.223	-0.092
-627.478	528.923	-0.065	0.154
-626.463	800.000	-0.023	0.094
-625.449	-47.330	0.168	0.082
-624.434	-200.000	-0.011	-0.086
-623.419	-59.188	0.078	-0.034
-622.405	175.981	-0.208	-0.302
-621.390	-200.000	0.034	-0.171
-620.376	-19.038	0.270	0.168
-619.361	-47.492	0.184	-0.089
-618.346	76.655	-0.146	-0.155
-617.332	800.000	0.017	0.050
-616.317	50.099	-0.168	0.159
-615.303	91.709	-0.102	-0.114
-614.288	800.000	0.085	-0.287
-613.273	235.353	-0.061	-0.101
-612.259	-36.982	0.288	-0.154
-611.244	92.333	-0.424	0.477
-610.230	-46.694	-0.171	-0.084
-609.215	-85.109	0.019	0.006
-608.201	-200.000	-0.043	0.267
-607.186	41.820	0.260	0.235
-606.171	-45.338	0.033	0.017
-605.157	-200.000	0.006	0.074
-604.142	-87.417	-0.173	-0.052
-603.128	-200.000	-0.120	0.000
-602.113	70.528	0.238	0.246
-601.098	-62.639	0.078	0.032
-600.084	-200.000	0.007	0.098
-599.069	800.000	0.053	0.200
-598.055	-102.513	-0.179	0.043
-597.040	35.276	0.090	0.079
-596.025	-19.503	0.193	-0.120
-595.011	800.000	-0.040	-0.141
-593.996	800.000	-0.081	0.253
-592.982	-55.315	-0.139	0.062
-591.967	-17.102	0.157	-0.099
-590.952	-160.739	0.175	0.009
-589.938	-161.546	0.248	0.013
-588.923	608.593	-0.142	0.352
-587.909	78.478	0.358	0.382
-586.894	-124.315	-0.234	0.036
-585.879	5.592	-0.187	0.138
-584.865	-14.417	-0.140	0.090
-583.850	-71.121	0.084	-0.031
-582.836	180.162	0.220	-0.321
-581.821	-137.946	0.238	0.027
-580.806	442.060	-0.099	0.216
-579.792	118.507	-0.242	0.297
-578.777	68.172	0.280	0.286
-577.763	548.170	0.089	-0.212
-576.748	14.720	-0.236	-0.184
-575.733	650.080	0.041	-0.105
-574.719	-85.261	-0.171	-0.053
-573.704	-45.543	-0.123	0.061
-572.690	800.000	0.033	-0.122
-571.675	-105.886	-0.224	-0.050
-570.661	-127.117	-0.140	-0.020
-569.646	426.943	-0.090	0.193
-568.631	44.458	-0.145	0.133
-567.617	-61.955	0.211	-0.088
-566.602	-21.165	-0.104	0.063
-565.588	-200.000	0.004	-0.219
-564.573	-112.904	-0.251	0.050
-563.558	800.000	0.052	0.164
-562.544	718.464	-0.129	0.340
-561.529	800.000	-0.047	0.164
-560.515	-101.357	-0.129	-0.031
-559.500	104.790	0.166	-0.194
-558.485	-200.000	0.066	-0.399
-557.471	-139.990	-0.266	-0.028
-556.456	800.000	0.123	-0.362
-555.442	6.028	-0.236	0.174
-554.427	677.986	-0.039	-0.100
-553.412	129.353	0.116	-0.147
-552.398	-48.319	0.214	-0.103
-551.383	-39.943	-0.137	0.071
-550.369	800.000	0.145	-0.591
-549.354	800.000	-0.051	-0.164
-548.339	-108.163	-0.110	-0.024
-547.325	-6.011	-0.148	-0.101
-546.310	-178.200	-0.262	-0.006
-545.296	163.216	0.101	0.141
-544.281	-80.276	0.348	0.116
-543.266	-200.000	-0.021	-0.381
-542.252	-79.707	0.405	0.136
-541.237	-67.313	-0.095	-0.037
-540.223	374.368	0.018	-0.037
-539.208	573.178	0.125	0.303
-538.193	800.000	-0.062	-0.207
-537.179	47.851	-0.194	0.180
-536.164	147.824	-0.082	-0.110
-535.150	-200.000	0.005	0.173
-534.135	128.273	-0.211	-0.268
-533.121	800.000	0.127	-0.373
-532.106	-200.000	-0.011	0.323
-531.091	-200.000	0.041	-0.356
-530.077	184.383	-0.082	0.121
-529.062	-64.632	0.172	-0.069
-528.048	34.045	0.195	-0.169
-527.033	-156.359	-0.362	0.023
-526.018	-35.453	0.100	-0.054
-525.004	-200.000	-0.021	0.184
-523.989	-110.702	-0.146	-0.030
-522.975	667.112	0.060	0.155
-521.960	380.739	0.053	-0.107
-520.945	-32.112	0.171	0.095
-519.931	800.000	-0.029	0.100
-518.916	-131.265	0.299	-0.039
-517.902	-200.000	0.039	-0.372
-516.887	800.000	0.051	0.216
-515.872	254.673	0.091	0.155
-514.858	-200.000	-0.040	0.380
-513.843	800.000	0.053	-0.173
-512.829	101.364	-0.199	0.231
-511.814	-43.871	0.151	0.076
-510.799	-166.975	0.156	0.006
-509.785	-172.698	-0.064	0.002
-508.770	800.000	0.020	-0.063
-507.756	-139.009	0.204	-0.022
-506.741	-119.950	0.210	-0.036
-505.726	-200.000	0.027	0.192
-504.712	61.068	-0.295	0.291
-503.697	-200.000	0.028	0.135
-502.683	12.373	-0.154	-0.118
-501.668	69.747	0.170	0.174
-500.653	49.341	-0.140	0.130
-499.639	430.670	-0.115	0.248
-498.624	-53.226	-0.394	-0.180
-497.610	132.491	-0.101	-0.129
-496.595	-100.920	0.056	-0.014
-495.581	-1.859	-0.094	-0.066
-494.566	-200.000	0.030	-0.134
-493.551	47.118	-0.196	-0.182
-492.537	10.131	-0.130	-0.098
-491.522	1.299	-0.053	0.038
-490.508	55.649	-0.142	-0.136
-489.493	-153.236	-0.223	-0.015
-488.478	-143.561	-0.052	-0.005
-487.464	-200.000	0.010	-0.190
-486.449	229.954	-0.166	-0.270
-485.435	160.764	-0.085	-0.118
-484.420	778.730	-0.054	-0.146
-483.405	-200.000	-0.012	0.254
-482.391	145.486	0.302	0.402
-481.376	800.000	-0.057	0.191
-480.362	653.349	-0.027	-0.070
-479.347	800.000	0.060	-0.242
-478.332	-110.249	0.106	-0.022
-477.318	800.000	-0.024	-0.071
-476.303	-124.275	-0.069	-0.011
-475.289	201.288	-0.132	0.202
-474.274	242.645	-0.064	0.106
-473.259	93.835	0.243	-0.273
-472.245	597.861	0.070	-0.173
-471.230	-113.847	-0.290	-0.056
-470.216	-161.507	0.332	-0.017
-469.201	-41.234	0.152	-0.078
-468.186	141.045	-0.070	0.092
-467.172	-200.000	0.075	0.394
-466.157	572.337	-0.041	0.100
-465.143	-141.472	-0.044	-0.004
-464.128	800.000	-0.141	-0.396
-463.113	503.823	0.135	0.309
-462.099	28.419	0.203	0.171
-461.084	-63.687	-0.315	-0.128
-460.070	45.744	-0.222	-0.204
-459.055	-92.053	0.307	-0.086
-458.040	-38.109	0.120	0.063
-457.026	800.000	-0.098	-0.322
-456.011	-200.000	0.011	-0.368
-454.997	-162.106	-0.219	-0.011
-453.982	115.383	-0.143	0.173
-452.968	-35.348	-0.344	0.186
-451.953	117.472	0.213	0.260
-450.938	18.518	-0.192	0.152
-449.924	-133.266	0.112	-0.014
-448.909	619.872	0.061	0.153
-447.895	143.471	0.049	0.065
-446.880	18.149	0.338	-0.267
-445.865	-200.000	-0.047	0.208
-444.851	-141.152	-0.108	0.011
-443.836	53.632	-0.092	-0.088
-442.822	800.000	-0.115	-0.340
-441.807	-37.433	-0.031	-0.016
-440.792	-32.560	0.110	-0.061
-439.778	800.000	0.029	0.102
-438.763	800.000	0.103	-0.302
-437.749	365.334	-0.032	0.065
-436.734	-200.000	0.024	-0.237
-435.719	110.616	0.187	-0.222
-434.705	-165.940	0.246	-0.010
-433.690	-171.373	-0.326	0.011
-432.676	-165.803	0.259	0.011
-431.661	-77.737	-0.338	0.116
-430.646	673.520	0.062	0.159
-429.632	54.904	0.149	-0.143
-428.617	68.698	0.323	-0.329
-427.603	85.106	-0.155	0.168
-426.588	-21.730	-0.112	0.068
-425.573	619.192	0.046	-0.114
-424.559	-159.601	0.069	-0.004
-423.544	-135.877	0.487	0.057
-422.530	470.796	-0.097	0.217
-421.515	-200.000	0.033	-0.255
-420.500	-94.226	-0.052	0.014
-419.486	-200.000	0.051	0.243
-418.471	92.328	0.150	-0.167
-417.457	-33.229	0.076	-0.042
-416.442	8.106	0.185	0.138
-415.428	-19.450	-0.160	-0.098
-414.413	659.247	0.061	0.156
-413.398	2.171	0.213	-0.152
-412.384	-200.000	0.017	0.385
-411.369	-153.189	-0.163	-0.011
-410.355	-200.000	0.111	-0.000
-409.340	68.594	-0.175	0.178
-408.325	157.922	-0.143	0.197
-407.311	43.024	0.187	0.169
-406.296	-66.383	-0.114	-0.045
-405.282	-130.882	-0.330	0.044
-404.267	241.289	0.116	0.192
-403.252	-169.690	0.276	0.010
-402.238	288.425	0.181	-0.325
-401.223	222.826	0.076	0.121
-400.209	-200.000	-0.034	-0.160
-399.194	-200.000	0.050	0.257
-398.179	-111.408	0.183	-0.037
-397.165	278.622	0.038	0.067
-396.150	-25.872	-0.184	0.107
-395.136	-77.990	-0.416	-0.142
-394.121	800.000	-0.059	-0.173
-393.106	38.971	0.319	-0.282
-392.092	190.734	0.178	0.266
-391.077	-200.000	0.046	-0.281
-390.063	800.000	-0.013	-0.050
-389.048	-200.000	0.000	0.147
-388.033	67.448	-0.271	0.274
-387.019	213.920	-0.201	0.315
-386.004	11.256	0.098	-0.074
-384.990	800.000	-0.037	0.118
-383.975	800.000	-0.108	-0.386
-382.960	-5.995	0.363	-0.246
-381.946	13.185	0.003	-0.002
-380.931	-200.000	0.070	0.362
-379.917	-2.128	0.206	0.143
-378.902	-21.462	-0.158	0.095
-377.888	796.924	0.122	-0.332
-376.873	164.826	0.111	0.155
-375.858	155.896	0.107	0.146
-374.844	79.365	-0.171	0.181
-373.829	800.000	-0.087	-0.375
-372.815	-129.991	-0.098	-0.013
-371.800	71.867	0.304	0.313
-370.785	-200.000	-0.019	-0.212
-369.771	-44.041	0.301	0.150
-368.756	113.650	0.047	-0.056
-367.742	-116.916	-0.178	0.032
-366.727	427.872	-0.039	-0.084
-365.712	-200.000	0.012	0.201
-364.698	643.457	0.028	-0.069
-363.683	-200.000	0.038	0.246
-362.669	-45.452	0.031	0.015
-361.654	-102.813	-0.413	0.097
-360.639	-200.000	-0.030	-0.133
-359.625	-27.813	0.138	-0.079
-358.610	-70.752	-0.212	0.079
-357.596	-200.000	-0.020	0.560
-356.581	-200.000	0.018	-0.087
-355.566	-114.558	0.251	0.048
-354.552	153.847	0.117	-0.158
-353.537	-200.000	-0.001	0.163
-352.523	32.007	-0.196	-0.167
-351.508	-118.532	0.222	-0.039
-350.493	97.747	-0.287	-0.326
-349.479	-200.000	0.050	-0.244
-348.464	-200.000	-0.015	-0.253
-347.450	-200.000	0.009	0.271
-346.435	432.256	-0.092	-0.196
-345.420	3.692	-0.200	-0.144
-344.406	-200.000	-0.075	-0.442
-343.391	-110.440	0.113	0.023
-342.377	-13.841	-0.088	0.056
-341.362	-4.576	-0.102	0.070
-340.348	220.960	0.064	0.101
-339.333	800.000	-0.046	-0.191
-338.318	-200.000	-0.053	-0.265
-337.304	603.143	0.035	-0.087
-336.289	-200.000	0.068	0.308
-335.275	-200.000	-0.015	-0.151
-334.260	800.000	0.105	0.329
-333.245	800.000	-0.114	0.404
-332.231	73.214	-0.062	0.064
-331.216	10.479	-0.047	-0.035
-330.202	-31.992	0.143	-0.079
-329.187	91.147	0.096	-0.107
-328.172	-200.000	-0.010	-0.225
-327.158	-200.000	-0.081	-0.488
-326.143	143.249	-0.120	-0.158
-325.129	727.066	0.079	-0.207
-324.114	-200.000	0.013	0.088
-323.099	-51.744	-0.408	-0.188
-322.085	-79.183	-0.274	-0.092
-321.070	-200.000	-0.022	-0.255
-320.056	800.000	-0.032	-0.096
-319.041	-8.518	0.130	-0.086
-318.026	126.631	0.168	-0.210
-317.012	-200.000	0.020	-0.153
-315.997	30.156	-0.234	-0.197
-314.983	-200.000	0.049	0.359
-313.968	-66.747	0.281	0.110
-312.953	-126.128	-0.113	-0.017
-311.939	-86.303	0.110	-0.033
-310.924	-192.794	0.190	0.002
-309.910	45.902	0.197	-0.180
-308.895	-124.767	-0.358	0.055
-307.880	-10.472	0.038	0.025
-306.866	-168.864	0.362	-0.013
-305.851	142.233	0.055	0.072
-304.837	-28.712	0.051	0.029
-303.822	-47.186	-0.187	0.090
-302.807	-200.000	-0.035	0.194
-301.793	800.000	0.091	0.332
-300.778	3.178	0.065	0.047
-299.764	253.106	-0.087	0.146
-298.749	-92.640	0.084	-0.023
-297.735	148.075	0.219	0.292
-296.720	-29.700	-0.164	0.092
-295.705	-142.734	0.207	-0.020
-294.691	-149.806	-0.254	0.020
-293.676	723.133	-0.136	-0.357
-292.662	-162.326	-0.050	-0.002
-291.647	-200.000	-0.008	0.064
-290.632	797.612	-0.051	0.139
-289.618	-29.236	0.291	-0.164
-288.603	-63.955	0.110	0.044
-287.589	542.480	-0.071	-0.166
-286.574	259.298	0.240	-0.408
-285.559	79.614	0.057	0.060
-284.545	73.877	-0.129	-0.133
-283.530	-200.000	-0.360	0.001
-282.516	17.441	-0.096	0.075
-281.501	-117.056	0.121	0.022
-280.486	419.481	-0.008	-0.016
-279.472	55.408	-0.172	-0.164
-278.457	800.000	0.046	0.143
-277.443	531.763	0.105	-0.245
-276.428	105.457	-0.167	0.194
-275.413	-200.000	-0.021	0.189
-274.399	-200.000	0.001	0.039
-273.384	142.763	0.236	0.309
-272.370	-186.715	-0.026	-0.000
-271.355	-8.435	-0.258	-0.171
-270.340	-200.000	0.008	0.052
-269.326	800.000	-0.067	0.186
-268.311	-176.083	-0.299	-0.008
-267.297	-20.530	-0.248	0.150
-266.282	-200.000	-0.027	0.233
-265.267	-200.000	0.037	0.172
-264.253	-140.832	0.083	-0.008
-263.238	800.000	0.050	-0.189
-262.224	-142.193	0.346	-0.034
-261.209	-200.000	0.016	-0.269
-260.195	35.083	0.060	-0.052
-259.180	328.621	-0.251	0.475
-258.165	-16.165	0.213	0.133
-257.151	-200.000	0.084	0.523
-256.136	352.633	0.109	0.213
-255.122	109.601	0.254	0.300
-254.107	-13.093	0.266	0.170
-253.092	800.000	0.099	-0.309
-252.078	-60.961	0.132	-0.055
-251.063	-140.547	0.157	-0.016
-250.049	800.000	0.026	-0.094
-249.034	-158.351	0.146	-0.008
-248.019	138.058	-0.116	0.150
-247.005	65.197	-0.235	0.234
-245.990	302.122	-0.255	0.464
-244.976	-93.657	0.216	-0.059
-243.961	800.000	0.063	-0.212
-242.946	28.905	-0.200	-0.167
-241.932	378.979	-0.134	0.270
-240.917	170.326	0.228	0.321
-239.903	195.185	-0.126	0.188
-238.888	339.496	0.084	0.161
-237.873	33.160	0.146	-0.125
-236.859	-42.479	-0.116	-0.058
-235.844	-36.544	-0.177	0.094
-234.830	-200.000	0.038	-0.375
-233.815	-106.560	0.178	-0.039
-232.800	42.404	-0.174	0.156
-231.786	118.792	-0.024	0.029
-230.771	-200.000	-0.002	0.250
-229.757	40.824	-0.198	-0.176
-228.742	-117.645	0.073	0.013
-227.727	15.877	0.186	0.144
-226.713	-92.630	-0.025	-0.007
-225.698	-200.000	-0.010	-0.129
-224.684	800.000	0.015	-0.055
-223.669	-52.944	-0.238	-0.108
-222.655	-200.000	-0.008	-0.164
-221.640	-39.730	-0.204	-0.105
-220.625	21.580	0.147	0.118
-219.611	-58.110	-0.043	-0.018
-218.596	-132.253	0.220	0.028
-217.582	-110.453	-0.137	0.028
-216.567	-177.109	0.195	-0.005
-215.552	618.653	0.070	-0.174
-214.538	-125.244	0.070	-0.011
-213.523	-120.416	-0.071	-0.012
-212.509	20.804	0.097	0.077
-211.494	19.494	-0.311	-0.246
-210.479	8.957	-0.198	0.146
-209.465	-200.000	0.010	-0.109
-208.450	-83.013	0.229	0.072
-207.436	-77.884	0.248	-0.084
-206.421	-166.534	0.108	0.004
-205.406	-20.010	0.077	0.047
-204.392	514.108	-0.077	-0.177
-203.377	-200.000	-0.100	0.000
-202.363	-200.000	0.013	-0.286
-201.348	800.000	-0.032	-0.089
-200.333	205.067	-0.063	0.095
-199.319	187.688	-0.077	0.113
-198.304	-45.863	0.242	-0.117
-197.290	800.000	-0.026	0.090
-196.275	-121.453	-0.126	-0.021
-195.260	-200.000	0.047	-0.213
-194.246	-67.990	-0.075	0.029
-193.231	618.989	-0.130	0.320
-192.217	528.402	0.091	0.210
-191.202	36.300	0.251	-0.218
-190.187	-108.525	0.291	-0.061
-189.173	76.754	-0.153	-0.159
-188.158	135.187	0.029	0.037
-187.144	-115.928	-0.120	-0.022
-186.129	-97.978	-0.079	-0.020
-185.114	27.410	-0.247	-0.204
-184.100	-140.274	-0.362	0.037
-183.085	-200.000	0.012	-0.101
-182.071	-200.000	-0.027	-0.134
-181.056	26.605	0.213	-0.175
-180.042	-64.964	-0.280	-0.111
-179.027	-170.647	0.150	-0.005
-178.012	45.437	0.168	0.152
-176.998	-46.438	-0.177	-0.085
-175.983	800.000	-0.059	0.174
-174.969	59.813	0.142	-0.138
-173.954	800.000	-0.058	0.221
-172.939	361.871	-0.053	-0.103
-171.925	103.734	0.105	0.121
-170.910	469.006	-0.067	0.148
-169.896	75.182	-0.221	-0.228
-168.881	-200.000	0.032	0.273
-167.866	-200.000	0.016	-0.292
-166.852	-84.311	0.203	0.063
-165.837	-38.323	0.267	0.138
-164.823	-40.655	0.099	-0.050
-163.808	402.014	-0.034	-0.069
-162.793	-81.251	-0.113	-0.037
-161.779	-200.000	0.048	-0.268
-160.764	-200.000	0.017	0.224
-159.750	115.430	0.060	0.072
-158.735	215.681	0.176	-0.274
-157.720	-48.251	0.102	0.048
-156.706	59.431	0.167	0.162
-155.691	-165.976	-0.275	0.012
-154.677	223.957	0.095	0.150
-153.662	-160.980	-0.319	0.016
-152.647	97.398	0.111	0.125
-151.633	-141.018	0.236	-0.024
-150.618	-200.000	-0.014	0.105
-149.604	-64.471	0.242	0.096
-148.589	800.000	-0.035	0.144
-147.574	47.794	0.099	0.091
-146.560	-24.762	-0.052	0.030
-145.545	144.001	-0.072	-0.094
-144.531	-163.505	-0.289	0.013
-143.516	-37.404	-0.269	0.141
-142.502	579.286	-0.101	0.241
-141.487	-200.000	0.003	-0.118
-140.472	-32.468	-0.288	-0.157
-139.458	-200.000	-0.062	0.288
-138.443	677.994	-0.145	-0.369
-137.429	173.689	0.077	0.109
-136.414	-200.000	-0.016	-0.149
-135.399	10.639	0.250	0.187
-134.385	36.467	0.360	0.311
-133.370	19.885	0.131	0.103
-132.356	161.380	0.320	-0.438
-131.341	-138.825	0.221	-0.024
-130.326	300.210	0.156	0.281
-129.312	-91.391	0.072	0.020
-128.297	-50.165	-0.119	0.055
-127.283	-200.000	-0.006	-0.344
-126.268	552.499	0.040	0.094
-125.253	-200.000	-0.059	0.281
-124.239	-17.275	-0.116	0.071
-123.224	153.312	0.055	-0.073
-122.210	-42.802	0.268	0.134
-121.195	158.877	-0.170	-0.231
-120.180	-194.478	-0.465	0.004
-119.166	-97.145	-0.202	0.052
-118.151	44.401	-0.176	0.158
-117.137	96.576	0.292	-0.327
-116.122	136.077	0.252	0.322
-115.107	43.569	0.109	0.098
-114.093	91.250	-0.069	-0.076
-113.078	219.258	0.098	0.153
-112.064	65.594	0.052	-0.052
-111.049	-96.185	-0.358	0.093
-110.034	-79.075	-0.115	0.038
-109.020	87.783	0.194	-0.210
-108.005	800.000	0.048	0.174
-106.991	-102.717	0.264	0.062
-105.976	-85.298	-0.014	-0.004
-104.962	79.162	0.066	-0.069
-103.947	-13.127	0.318	-0.202
-102.932	200.183	0.008	0.012
-101.918	50.322	-0.124	-0.114
-100.903	-117.620	0.124	0.022
-99.889	-85.190	-0.156	0.048
-98.874	-200.000	0.020	-0.263
-97.859	-59.446	-0.237	0.100
-96.845	-57.745	0.189	-0.081
-95.830	-12.859	0.137	0.087
-94.816	-65.062	-0.088	-0.035
-93.801	73.384	0.157	-0.160
-92.786	-200.000	0.022	-0.366
-91.772	42.888	0.107	0.095
-90.757	-200.000	0.028	-0.257
-89.743	186.486	0.078	0.114
-88.728	-188.836	0.414	-0.005
-87.713	-86.698	0.106	-0.032
-86.699	27.227	0.178	-0.146
-85.684	-42.007	-0.075	0.038
-84.670	727.428	-0.095	0.247
-83.655	-176.868	0.177	0.004
-82.640	-200.000	-0.034	0.233
-81.626	530.673	0.122	-0.283
-80.611	-75.850	-0.332	-0.115
-79.597	200.942	0.026	0.040
-78.582	-12.748	0.323	-0.206
-77.567	-68.042	-0.185	0.071
-76.553	800.000	0.039	-0.163
-75.538	453.233	0.122	0.265
-74.524	-26.105	-0.212	0.122
-73.509	-149.173	0.412	-0.032
-72.494	-200.000	0.032	0.226
-71.480	-152.612	0.277	0.019
-70.465	-200.000	0.011	-0.087
-69.451	-200.000	0.037	-0.349
-68.436	-200.000	-0.023	-0.377
-67.422	-200.000	-0.040	0.405
-66.407	97.974	-0.159	-0.178
-65.392	99.942	0.156	0.177
-64.378	494.010	0.093	0.209
-63.363	111.049	-0.132	0.155
-62.349	233.499	0.109	-0.174
-61.334	69.469	-0.887	-0.892
-60.319	96.966	0.524	0.587
-59.305	800.000	-0.289	-1.166
-58.290	478.308	0.594	1.313
-57.276	543.906	0.594	1.385
-56.261	-200.000	114.154	641.100
-55.246	478.137	1498.959	3313.566
-54.232	150.244	2660.226	3525.825
-53.217	101.910	2161.067	2462.631
-52.203	37.502	1690.460	1464.161
-51.188	30.409	1508.295	1258.471
-50.173	28.221	1483.570	1223.184
-49.159	51.298	1541.576	1428.876
-48.144	50.206	1556.904	1435.592
-47.130	30.660	1514.000	1264.737
-46.115	27.544	1498.556	1230.776
-45.100	27.381	1495.318	1226.967
-44.086	27.400	1492.915	1225.073
-43.071	27.318	1491.200	1223.070
-42.057	27.284	1489.568	1221.456
-41.042	27.285	1488.498	1220.537
-40.027	27.247	1487.231	1219.190
-39.013	27.274	1485.621	1218.001
-37.998	27.226	1484.231	1216.498
-36.984	27.195	1483.685	1215.791
-35.969	27.357	1481.524	1215.057
-34.954	27.320	1479.923	1213.447
-33.940	27.308	1478.782	1212.382
-32.925	27.303	1477.337	1211.120
-31.911	27.303	1476.006	1209.977
-30.896	27.380	1474.922	1209.553
-29.881	27.363	1474.035	1208.664
-28.867	27.373	1472.507	1207.433
-27.852	27.400	1471.051	1206.370
-26.838	27.388	1469.738	1205.161
-25.823	27.332	1468.086	1203.389
-24.809	27.366	1466.293	1202.098
-23.794	27.310	1465.451	1200.989
-22.779	27.312	1464.116	1199.860
-21.765	27.366	1463.080	1199.319
-20.750	27.402	1461.667	1198.351
-19.736	27.301	1461.237	1197.285
-18.721	27.390	1459.586	1196.474
-17.706	27.438	1458.699	1196.013
-16.692	27.304	1457.645	1194.221
-15.677	27.370	1456.528	1193.693
-14.663	27.277	1456.167	1192.737
-13.648	27.288	1454.663	1191.532
-12.633	27.281	1454.133	1191.001
-11.619	27.245	1453.798	1190.446
-10.604	27.290	1452.813	1189.887
-9.590	27.272	1451.687	1188.800
-8.575	27.387	1450.273	1188.345
-7.560	27.246	1449.470	1186.724
-6.546	27.276	1448.708	1186.245
-5.531	27.203	1447.953	1185.107
-4.517	27.369	1447.228	1185.543
-3.502	27.361	1446.137	1184.553
-2.487	27.342	1445.064	1183.501
-1.473	27.433	1443.624	1182.867
-0.458	27.305	1442.959	1181.443
0.556	25.553	1432.725	1169.298
1.571	22.633	1408.621	1130.820
2.586	19.328	1348.583	1062.198
3.600	17.784	1266.927	988.855
4.615	16.671	1221.608	947.171
5.629	15.880	1168.979	902.050
6.644	12.959	1093.513	829.080
7.659	10.229	1059.188	789.678
8.673	9.856	1054.260	784.122
9.688	9.726	1051.095	781.069
10.702	9.695	1049.282	779.506
11.717	9.774	1047.493	778.486
12.731	10.869	1047.310	783.563
13.746	14.120	1050.941	801.908
14.761	16.960	1054.632	818.379
15.775	17.692	1054.761	821.936
16.790	16.976	1052.680	816.798
17.804	15.943	1050.547	810.101
18.819	15.035	1048.718	804.261
19.834	14.434	1047.366	800.267
20.848	14.177	1046.289	798.142
21.863	13.988	1045.259	796.379
22.877	13.742	1044.561	794.594
23.892	13.512	1044.204	793.156
24.907	13.512	1043.235	792.347
25.921	13.492	1042.471	791.602
26.936	13.462	1041.796	790.877
27.950	13.614	1040.518	790.562
28.965	13.698	1039.200	789.887
29.980	13.699	1038.440	789.247
30.994	13.745	1037.054	788.341
32.009	13.756	1036.578	787.963
33.023	13.798	1036.074	787.710
34.038	13.789	1034.951	786.741
35.053	13.728	1034.233	785.841
36.067	13.588	1033.297	784.393
37.082	13.645	1032.372	783.893
38.096	13.628	1031.451	783.046
39.111	13.769	1030.864	783.193
40.126	13.725	1029.967	782.235
41.140	13.715	1028.865	781.285
42.155	13.562	1027.652	779.574
43.169	13.457	1026.676	778.272
44.184	13.397	1025.813	777.267
45.199	13.454	1024.968	776.824
46.213	13.384	1023.736	775.492
47.228	13.461	1023.008	775.234
48.242	13.511	1021.656	774.375
49.257	13.710	1020.875	774.646
50.271	13.726	1019.651	773.721
51.286	13.768	1018.676	773.108
52.301	13.652	1018.145	772.095
53.315	13.753	1017.069	771.681
54.330	13.539	1016.714	770.349
55.344	13.594	1015.075	769.297
56.359	13.520	1014.564	768.498
57.374	13.516	1013.517	767.616
58.388	13.440	1013.392	767.102
59.403	13.516	1012.105	766.412
60.417	13.561	1011.246	765.903
61.432	13.453	1011.007	765.155
62.447	13.398	1010.217	764.234
63.461	13.378	1009.258	763.348
64.476	13.344	1008.371	762.454
65.490	13.303	1007.479	761.524
66.505	13.433	1006.427	761.259
67.520	13.460	1005.942	760.947
68.534	13.483	1004.814	760.133
69.549	13.465	1004.025	759.389
70.563	13.552	1003.483	759.309
71.578	13.485	1002.761	758.387
72.593	13.226	1002.331	756.809
73.607	13.379	1000.451	756.022
74.622	13.405	999.306	755.209
75.636	13.397	998.776	754.706
76.651	13.159	998.372	753.247
77.666	13.397	997.674	753.738
78.680	13.467	996.897	753.402
79.695	13.381	996.380	752.553
80.709	13.393	995.486	751.867
81.724	13.390	995.007	751.428
82.739	13.549	994.197	751.468
83.753	13.470	993.567	750.569
84.768	13.562	992.455	750.080
85.782	13.694	992.105	750.343
86.797	13.782	991.070	749.892
87.812	13.770	990.308	749.196
88.826	13.648	989.479	747.954
89.841	13.635	988.224	746.877
90.855	13.539	987.909	746.144
91.870	13.685	986.968	746.022
92.884	13.663	986.631	745.601
93.899	13.695	985.917	745.144
94.914	13.712	984.693	744.228
95.928	13.780	983.898	743.864
96.943	13.722	983.355	743.128
97.957	13.683	982.214	742.024
98.972	13.755	981.559	741.786
99.987	13.690	981.023	741.025
101.001	13.718	980.275	740.522
102.016	13.713	979.501	739.847
103.030	13.770	978.303	739.130
104.045	13.772	977.250	738.281
105.060	13.871	976.470	738.066
106.074	13.660	975.469	736.305
107.089	13.599	974.999	735.615
108.103	13.541	974.108	734.619
109.118	13.584	973.064	733.960
110.133	13.580	972.351	733.338
111.147	13.498	971.291	732.114
112.162	13.454	970.339	731.136
113.176	13.547	969.925	731.168
114.191	13.562	969.262	730.672
115.206	13.486	968.085	729.384
116.220	13.607	967.246	729.220
117.235	13.666	966.572	728.907
118.249	13.665	965.570	728.083
119.264	13.600	964.657	727.042
120.279	13.596	963.704	726.246
121.293	13.528	963.410	725.659
122.308	13.477	962.698	724.837
123.322	13.416	961.833	723.852
124.337	13.448	960.605	723.008
125.352	13.388	959.479	721.834
126.366	13.454	958.218	721.110
127.381	13.421	957.291	720.205
128.395	13.539	955.772	719.510
129.410	13.527	955.060	718.856
130.424	13.522	954.265	718.175
131.439	13.598	953.788	718.079
132.454	13.480	953.079	716.973
133.468	13.499	952.285	716.394
134.483	13.621	951.608	716.349
135.497	13.634	950.634	715.609
136.512	13.654	949.931	715.101
137.527	13.619	949.282	714.400
138.541	13.563	948.737	713.683
139.556	13.619	947.826	713.175
140.570	13.500	947.248	712.167
141.585	13.697	946.415	712.326
142.600	13.777	945.477	711.899
143.614	13.643	945.158	711.020
144.629	13.711	944.385	710.667
145.643	13.807	943.518	710.364
146.658	13.746	942.926	709.593
147.673	13.736	941.875	708.697
148.687	13.659	940.646	707.380
149.702	13.776	939.690	707.097
150.716	13.650	938.858	705.874
151.731	13.525	938.426	704.953
152.746	13.760	937.076	704.875
153.760	13.679	936.536	704.065
154.775	13.584	935.986	703.185
155.789	13.765	935.095	703.221
156.804	13.769	934.619	702.819
157.819	13.835	933.598	702.265
158.833	13.666	933.612	701.501
159.848	13.784	932.796	701.323
160.862	13.981	931.608	701.199
161.877	13.966	930.899	700.543
162.892	13.944	929.935	699.663
163.906	13.724	929.811	698.580
164.921	13.720	928.701	697.666
165.935	13.736	927.835	697.022
166.950	13.811	926.543	696.303
167.964	13.939	925.721	696.162
168.979	13.880	925.000	695.310
169.994	13.859	923.537	694.059
171.008	13.781	923.053	693.310
172.023	13.849	922.589	693.183
173.037	14.000	921.232	692.732
174.052	13.998	920.707	692.269
175.067	14.003	919.944	691.654
176.081	13.904	919.508	690.853
177.096	13.910	918.340	689.942
178.110	13.880	917.816	689.361
179.125	13.778	917.201	688.415
180.140	13.933	916.388	688.386
181.154	13.892	915.697	687.636
182.169	13.941	915.166	687.380
183.183	13.997	914.425	686.994
184.198	14.125	913.485	686.753
185.213	14.158	912.823	686.333
186.227	13.983	912.115	685.017
187.242	14.144	911.658	685.277
188.256	14.290	910.900	685.247
189.271	14.272	910.515	684.825
190.286	14.121	909.773	683.586
191.300	14.110	908.773	682.729
192.315	13.926	908.155	681.447
193.329	13.846	907.579	680.627
194.344	13.970	906.700	680.417
195.359	13.858	906.342	679.629
196.373	14.044	905.651	679.811
197.388	14.137	905.524	680.035
198.402	14.223	904.702	679.710
199.417	14.260	904.614	679.737
200.432	14.376	903.498	679.308
201.446	14.387	903.257	679.114
202.461	14.428	903.030	679.048
203.475	14.337	902.845	678.478
204.490	14.468	901.616	678.026
205.504	14.522	900.584	677.411
206.519	14.281	900.012	675.943
207.534	14.359	899.378	675.721
208.548	14.322	898.609	674.938
209.563	14.449	897.534	674.585
210.577	14.243	897.365	673.561
211.592	14.459	896.398	673.649
212.607	14.417	896.473	673.477
213.621	14.413	895.661	672.792
214.636	14.445	894.992	672.360
215.650	14.460	894.527	672.011
216.665	14.411	894.007	671.361
217.680	14.533	893.145	671.145
218.694	14.714	892.471	671.307
219.709	14.657	891.953	670.630
220.723	14.690	891.297	670.210
221.738	14.578	890.922	669.419
222.753	14.618	890.068	668.880
223.767	14.522	889.530	668.030
224.782	14.610	888.608	667.630
225.796	14.664	888.209	667.487
226.811	14.791	887.167	667.155
227.826	14.702	886.507	666.243
228.840	14.789	886.070	666.202
229.855	14.681	885.369	665.186
230.869	14.711	884.521	664.609
231.884	14.683	883.983	664.037
232.899	14.688	883.123	663.352
233.913	14.641	882.647	662.748
234.928	14.520	882.362	661.996
235.942	14.487	881.846	661.420
236.957	14.610	880.763	661.034
237.972	14.709	880.004	660.798
238.986	14.655	879.287	659.989
240.001	14.612	878.730	659.343
241.015	14.780	877.801	659.251
242.030	14.654	877.595	658.538
243.045	14.741	876.777	658.210
244.059	14.817	876.503	658.245
245.074	14.950	875.268	657.785
246.088	14.786	874.804	656.730
247.103	14.937	874.376	656.947
248.117	14.821	874.090	656.217
249.132	14.989	873.396	656.298
250.147	15.012	873.001	656.030
251.161	15.082	871.689	655.264
252.176	15.207	871.269	655.379
253.190	15.255	870.984	655.294
254.205	15.332	870.259	654.991
255.220	15.280	869.488	654.149
256.234	15.338	869.126	654.043
257.249	15.217	868.566	653.094
258.263	15.227	868.268	652.852
259.278	15.069	867.798	651.825
260.293	15.334	866.717	651.984
261.307	15.301	866.047	651.295
262.322	15.256	866.024	651.045
263.336	15.497	864.929	651.099
264.351	15.505	864.237	650.552
265.366	15.410	863.747	649.757
266.380	15.447	863.071	649.334
267.395	15.425	862.619	648.853
268.409	15.395	862.018	648.226
269.424	15.512	860.783	647.692
270.439	15.480	860.492	647.293
271.453	15.433	859.818	646.547
272.468	15.277	859.245	645.459
273.482	15.354	858.723	645.305
274.497	15.419	857.756	644.770
275.512	15.391	857.146	644.147
276.526	15.405	856.627	643.756
277.541	15.242	855.912	642.537
278.555	15.645	855.047	643.371
279.570	15.501	855.045	642.763
280.585	15.579	854.533	642.620
281.599	15.655	853.590	642.145
282.614	15.723	853.046	641.937
283.628	15.429	853.013	640.733
284.643	15.454	852.306	640.241
285.657	15.576	851.755	640.236
286.672	15.564	850.938	639.521
287.687	15.647	850.465	639.424
288.701	15.580	850.240	638.943
289.716	15.633	849.252	638.344
290.730	15.536	848.992	637.725
291.745	15.657	848.204	637.535
292.760	15.793	847.342	637.346
293.774	15.842	846.818	637.082
294.789	15.689	846.380	636.115
295.803	15.691	845.890	635.699
296.818	15.661	845.388	635.154
297.833	15.759	844.671	634.929
298.847	15.672	843.759	633.857
299.862	15.736	843.329	633.718
300.876	15.783	842.461	633.190
301.891	15.806	841.589	632.563
302.906	15.881	841.491	632.714
303.920	15.920	840.428	632.006
304.935	16.049	839.916	632.050
305.949	16.092	839.348	631.729
306.964	16.139	838.875	631.492
307.979	15.929	838.190	630.134
308.993	16.033	837.601	630.025
310.008	16.143	837.016	629.941
311.022	16.058	836.928	629.499
312.037	16.021	836.122	628.701
313.052	16.160	835.645	628.805
314.066	15.940	835.248	627.631
315.081	15.856	834.755	626.890
316.095	15.888	833.991	626.383
317.110	15.976	833.456	626.251
318.125	15.942	832.812	625.584
319.139	15.839	832.540	624.945
320.154	15.973	831.824	624.847
321.168	15.972	831.223	624.337
322.183	15.967	831.081	624.157
323.197	16.068	830.463	624.013
324.212	15.945	829.957	623.121
325.227	16.025	829.209	622.802
326.241	16.109	828.760	622.717
327.256	16.197	827.860	622.311
328.270	16.222	827.598	622.151
329.285	16.149	826.750	621.191
330.300	16.138	826.417	620.842
331.314	16.106	825.781	620.193
332.329	16.236	825.217	620.193
333.343	16.235	824.598	619.669
334.358	16.332	823.963	619.492
335.373	16.286	823.528	618.942
336.387	16.215	823.345	618.488
337.402	16.250	822.887	618.221
338.416	16.372	821.919	617.882
339.431	16.420	821.369	617.593
340.446	16.485	820.822	617.363
341.460	16.561	820.254	617.157
342.475	16.499	819.845	616.570
343.489	16.502	819.301	616.118
344.504	16.530	818.764	615.761
345.519	16.538	818.518	615.549
346.533	16.653	817.827	615.395
347.548	16.600	817.451	614.864
348.562	16.639	816.906	614.543
349.577	16.519	816.156	613.487
350.592	16.593	815.888	613.502
351.606	16.388	815.260	612.232
352.621	16.585	814.918	612.633
353.635	16.421	814.813	611.907
354.650	16.528	814.317	611.868
355.665	16.441	813.828	611.132
356.679	16.735	812.852	611.405
357.694	16.714	812.466	610.986
358.708	16.607	812.161	610.316
359.723	16.599	811.773	609.941
360.738	16.666	811.072	609.601
361.752	16.673	810.399	609.066
362.767	16.658	810.076	608.716
363.781	16.748	809.712	608.714
364.796	16.897	809.256	608.852
365.810	16.902	808.664	608.368
366.825	16.953	808.365	608.276
367.840	16.951	808.190	608.082
368.854	17.032	807.640	607.903
369.869	16.879	807.231	606.995
370.883	16.816	806.542	606.198
371.898	16.851	806.171	605.990
372.913	17.046	805.479	606.112
373.927	16.985	804.289	604.946
374.942	17.011	804.043	604.799
375.956	16.997	803.411	604.222
376.971	17.122	802.533	603.952
377.986	17.127	802.502	603.892
379.000	17.188	802.015	603.690
380.015	17.063	801.701	602.956
381.029	17.279	800.742	602.947
382.044	17.354	800.316	602.838
383.059	17.164	799.865	601.775
384.073	17.198	799.424	601.511
385.088	17.179	798.805	600.921
386.102	17.082	798.693	600.444
387.117	17.115	797.789	599.825
388.132	16.997	797.299	598.988
389.146	17.115	796.651	598.865
390.161	17.309	796.261	599.201
391.175	17.266	795.878	598.709
392.190	17.270	795.522	598.402
393.205	17.355	795.053	598.295
394.219	17.087	795.426	597.580
395.234	17.252	794.141	597.143
396.248	17.157	793.794	596.495
397.263	17.211	792.861	595.930
398.278	17.111	792.825	595.500
399.292	17.203	792.298	595.373
400.307	17.191	791.623	594.770
401.321	17.131	791.473	594.397
402.336	17.234	791.113	594.432
403.350	17.277	790.939	594.399
404.365	17.294	790.223	593.867
405.380	17.487	789.772	594.152
406.394	17.460	789.227	593.596
407.409	17.552	788.751	593.505
408.423	17.591	788.470	593.375
409.438	17.511	788.031	592.714
410.453	17.627	787.620	592.757
411.467	17.705	787.616	592.973
412.482	17.544	786.994	591.894
413.496	17.647	786.664	591.951
414.511	17.789	785.818	591.753
415.526	17.798	785.682	591.631
416.540	17.608	785.775	590.989
417.555	17.914	784.562	591.082
418.569	17.597	784.723	590.056
419.584	17.647	783.709	589.415
420.599	17.811	783.076	589.453
421.613	112.359	1292.774	1478.359
422.628	96.374	1367.000	1478.449
