DTS Sentinel unit serial number:	SN413079Multiplexer serial number:	ORYXHardware model number:	OX4-SRSoftware version number:	ORYX F/W v4.00 Oryx Data Collector v3.7.2.0data status	okinstallation	princeton_trtdifferential loss correction	single-endedforward channel	channel 3reverse channel	N/Adate	2019/09/10time	19:54:11forward acquisition time	60.00reverse acquisition time	0.00gamma	496.2192k internal	0.2322k external	0.2322temperature offset calibration	0.9921default loss term (dB/km)	0.3790temperature slope calibration	1.0000multiplexer offset coefficient	1.0000multiplexer slope coefficient	1.0000fibre end	0.00T internal ref (°C)	32.81T ext. ref 1 (°C)	-0.31T ext. ref 2 (°C)	25.74length (m)	temperature (°C)	Stokes	anti-Stokes-747.200	97.896	0.200	0.233
-746.185	-27.096	0.191	0.113
-745.171	-200.000	-0.020	-0.100
-744.156	-0.034	-0.209	0.150
-743.142	-48.313	0.191	0.093
-742.127	-200.000	0.025	0.128
-741.112	-200.000	0.017	0.331
-740.098	-98.186	-0.248	-0.064
-739.083	-114.525	-0.312	-0.060
-738.069	269.675	-0.042	0.075
-737.054	698.515	0.045	-0.120
-736.039	460.911	-0.112	-0.251
-735.025	758.988	-0.059	0.162
-734.010	36.649	-0.272	0.243
-732.996	-105.952	-0.463	-0.105
-731.981	-29.526	-0.252	-0.146
-730.966	-15.464	-0.263	-0.170
-729.952	-22.335	-0.188	-0.115
-728.937	-42.506	-0.165	-0.085
-727.923	20.283	-0.374	-0.305
-726.908	-17.159	-0.186	0.119
-725.894	-114.182	-0.143	-0.028
-724.879	-200.000	-0.057	-0.354
-723.864	163.084	-0.206	0.291
-722.850	58.517	-0.094	-0.093
-721.835	7.059	-0.322	0.243
-720.821	50.298	-0.206	0.197
-719.806	800.000	0.024	0.100
-718.791	-200.000	-0.001	0.084
-717.777	-133.412	-0.272	0.035
-716.762	-118.645	0.008	-0.001
-715.748	-127.112	0.139	0.021
-714.733	-115.195	0.263	0.050
-713.718	-200.000	-0.027	-0.224
-712.704	-35.760	-0.252	0.138
-711.689	199.662	0.117	0.181
-710.675	1.930	0.140	0.102
-709.660	-44.947	0.078	-0.039
-708.645	-200.000	0.038	0.209
-707.631	78.896	0.109	0.118
-706.616	433.817	-0.195	0.427
-705.602	-57.812	-0.276	0.122
-704.587	-19.334	-0.036	-0.022
-703.572	162.562	-0.184	0.261
-702.558	32.162	0.115	-0.100
-701.543	-200.000	-0.023	0.115
-700.529	-200.000	-0.047	0.449
-699.514	-41.356	0.212	-0.110
-698.499	66.123	0.072	-0.073
-697.485	-20.512	-0.178	-0.110
-696.470	-123.290	0.512	-0.083
-695.456	-126.433	-0.503	-0.075
-694.441	116.231	0.094	0.116
-693.426	-200.000	-0.052	-0.355
-692.412	321.304	0.030	0.058
-691.397	800.000	0.102	0.337
-690.383	-55.419	0.064	0.029
-689.368	6.970	-0.207	0.155
-688.354	100.441	0.066	0.077
-687.339	800.000	0.125	-0.405
-686.324	-127.728	0.189	0.028
-685.310	38.631	-0.217	-0.196
-684.295	-200.000	0.007	-0.036
-683.281	-139.076	-0.139	0.015
-682.266	-5.796	0.131	-0.090
-681.251	101.876	-0.067	-0.079
-680.237	107.691	0.152	-0.182
-679.222	290.241	0.118	0.216
-678.208	195.925	0.176	0.269
-677.193	-23.632	-0.084	0.051
-676.178	28.835	0.048	0.041
-675.164	800.000	-0.028	-0.109
-674.149	-85.470	-0.191	-0.060
-673.135	543.780	-0.098	-0.235
-672.120	542.439	0.087	0.209
-671.105	-92.409	-0.325	-0.092
-670.091	-200.000	0.039	-0.426
-669.076	800.000	-0.063	0.236
-668.062	-8.326	0.178	0.121
-667.047	-155.397	-0.514	-0.034
-666.032	-35.946	-0.122	-0.066
-665.018	-119.945	0.224	-0.039
-664.003	-200.000	0.004	0.090
-662.989	5.139	-0.425	0.315
-661.974	-64.786	0.096	0.039
-660.959	-33.995	-0.239	0.133
-659.945	96.268	-0.195	-0.224
-658.930	130.592	-0.161	-0.208
-657.916	-56.391	0.171	0.077
-656.901	-103.328	-0.389	0.092
-655.886	106.618	-0.207	0.247
-654.872	100.848	-0.106	-0.124
-653.857	-6.267	0.359	0.247
-652.843	-42.180	0.085	0.044
-651.828	-74.686	-0.318	0.115
-650.814	-200.000	0.023	-0.131
-649.799	-57.100	0.217	-0.096
-648.784	-163.341	-0.457	-0.022
-647.770	115.295	-0.157	-0.193
-646.755	662.615	-0.102	0.265
-645.741	-12.411	0.059	-0.039
-644.726	-200.000	0.010	-0.135
-643.711	-62.644	0.359	0.150
-642.697	114.770	0.238	-0.293
-641.682	800.000	-0.114	-0.376
-640.668	142.978	0.148	-0.198
-639.653	-200.000	0.003	0.061
-638.638	21.475	-0.152	-0.125
-637.624	283.650	0.057	-0.103
-636.609	-200.000	0.015	0.068
-635.595	-22.202	0.263	0.160
-634.580	595.775	-0.085	-0.212
-633.565	-74.686	-0.109	-0.039
-632.551	800.000	-0.070	-0.268
-631.536	-124.709	-0.291	-0.045
-630.522	292.415	0.215	-0.394
-629.507	-200.000	-0.043	0.262
-628.492	38.432	-0.071	0.064
-627.478	-45.978	0.135	0.067
-626.463	800.000	-0.057	-0.217
-625.449	185.386	0.149	0.223
-624.434	-161.665	0.326	0.017
-623.419	-11.297	-0.062	-0.041
-622.405	538.653	-0.037	-0.089
-621.390	14.286	-0.300	-0.235
-620.376	46.608	0.061	0.057
-619.361	800.000	0.028	0.113
-618.346	103.927	0.086	0.101
-617.332	800.000	-0.089	-0.257
-616.317	-200.000	-0.004	0.102
-615.303	161.232	0.049	0.069
-614.288	82.160	-0.126	0.138
-613.273	-200.000	-0.043	-0.260
-612.259	-84.865	-0.307	0.097
-611.244	79.540	-0.324	-0.349
-610.230	492.166	-0.045	-0.103
-609.215	-98.927	0.095	0.024
-608.201	-36.511	-0.253	-0.137
-607.186	93.120	-0.194	-0.221
-606.171	512.909	-0.031	0.072
-605.157	-114.341	0.178	0.035
-604.142	66.994	-0.166	0.170
-603.128	19.267	0.238	0.192
-602.113	-46.648	0.251	0.124
-601.098	-185.885	-0.355	0.005
-600.084	-113.279	-0.257	0.051
-599.069	-111.562	-0.320	0.065
-598.055	331.830	0.083	-0.161
-597.040	-137.485	0.192	0.022
-596.025	255.154	0.048	0.082
-595.011	-200.000	0.065	-0.342
-593.996	154.325	-0.260	0.359
-592.982	800.000	-0.061	0.177
-591.967	-2.925	-0.237	0.166
-590.952	800.000	0.065	-0.243
-589.938	800.000	-0.054	0.156
-588.923	130.420	-0.189	-0.243
-587.909	332.946	0.091	0.176
-586.894	-163.606	0.381	0.018
-585.879	-80.053	0.152	-0.051
-584.865	296.527	0.035	0.065
-583.850	655.032	-0.079	0.204
-582.836	170.665	-0.177	-0.254
-581.821	-5.256	0.007	-0.005
-580.806	19.572	0.170	0.137
-579.792	800.000	0.021	0.075
-578.777	-153.095	-0.269	0.019
-577.763	-200.000	-0.020	0.115
-576.748	424.499	-0.071	0.154
-575.733	-200.000	-0.059	-0.306
-574.719	-162.577	0.158	0.008
-573.704	18.307	-0.071	-0.057
-572.690	-200.000	-0.037	-0.168
-571.675	-104.690	0.201	-0.047
-570.661	-132.784	0.397	-0.051
-569.646	343.030	0.036	0.071
-568.631	53.451	-0.180	-0.173
-567.617	-88.730	-0.623	0.186
-566.602	-139.027	-0.064	0.007
-565.588	169.951	0.173	-0.248
-564.573	185.971	-0.104	0.155
-563.558	800.000	-0.032	-0.130
-562.544	18.044	-0.286	-0.229
-561.529	-160.048	-0.288	0.016
-560.515	-133.916	-0.118	-0.015
-559.500	-200.000	0.064	-0.524
-558.485	-72.809	-0.335	-0.124
-557.471	-28.586	0.373	-0.215
-556.456	-27.534	-0.390	-0.227
-555.442	177.613	-0.194	0.283
-554.427	-84.250	0.302	0.096
-553.412	375.310	-0.073	-0.148
-552.398	-200.000	0.064	-0.306
-551.383	-148.303	0.259	0.021
-550.369	-135.031	-0.237	-0.029
-549.354	800.000	0.023	0.074
-548.339	206.034	0.024	0.037
-547.325	26.445	0.210	-0.176
-546.310	-116.595	-0.153	0.028
-545.296	197.782	0.147	-0.225
-544.281	-115.926	-0.117	-0.022
-543.266	-200.000	-0.006	-0.077
-542.252	196.877	-0.201	0.308
-541.237	-76.846	-0.316	-0.111
-540.223	-41.521	-0.093	-0.048
-539.208	555.228	0.063	-0.152
-538.193	-200.000	0.005	-0.173
-537.179	-123.051	0.361	0.058
-536.164	-177.602	-0.123	-0.003
-535.150	-101.033	0.096	0.024
-534.135	-200.000	0.002	-0.468
-533.121	335.886	-0.136	-0.263
-532.106	-200.000	0.074	-0.384
-531.091	35.653	-0.167	0.147
-530.077	-200.000	-0.011	0.205
-529.062	17.852	0.129	0.103
-528.048	-134.768	0.121	-0.015
-527.033	-143.281	-0.198	0.019
-526.018	-53.431	-0.071	-0.033
-525.004	139.885	-0.136	0.179
-523.989	-91.829	0.212	-0.060
-522.975	-100.108	0.320	0.080
-521.960	245.217	-0.136	-0.230
-520.945	-24.177	-0.182	-0.109
-519.931	267.694	-0.135	-0.236
-518.916	252.935	-0.161	-0.276
-517.902	-200.000	-0.029	0.303
-516.887	74.732	-0.109	0.115
-515.872	-81.102	-0.111	0.037
-514.858	-14.826	0.016	-0.010
-513.843	262.048	-0.091	-0.158
-512.829	83.786	-0.123	0.134
-511.814	160.744	-0.023	-0.032
-510.799	-151.519	-0.304	0.023
-509.785	-49.282	-0.076	0.036
-508.770	-200.000	0.013	0.245
-507.756	-92.214	0.105	-0.030
-506.741	-14.799	-0.193	0.124
-505.726	414.239	-0.086	0.183
-504.712	475.788	0.071	0.160
-503.697	800.000	-0.025	0.084
-502.683	-200.000	-0.039	0.357
-501.668	800.000	0.037	0.152
-500.653	115.086	0.071	-0.086
-499.639	24.832	-0.158	0.131
-498.624	-200.000	-0.002	0.112
-497.610	-79.435	-0.173	-0.058
-496.595	329.223	-0.263	-0.505
-495.581	-200.000	-0.005	0.180
-494.566	800.000	-0.036	0.127
-493.551	126.589	-0.112	0.141
-492.537	-70.494	-0.213	0.081
-491.522	474.401	0.023	-0.052
-490.508	168.944	-0.171	-0.244
-489.493	36.550	-0.180	-0.159
-488.478	344.781	0.152	-0.298
-487.464	-200.000	-0.006	-0.169
-486.449	-47.842	0.148	0.072
-485.435	128.911	-0.212	-0.270
-484.420	204.261	0.176	0.273
-483.405	712.381	0.029	0.076
-482.391	144.745	0.163	0.217
-481.376	800.000	0.055	0.219
-480.362	135.178	0.087	-0.113
-479.347	401.075	-0.129	0.270
-478.332	414.545	-0.124	0.264
-477.318	-200.000	-0.054	-0.320
-476.303	45.299	-0.043	0.040
-475.289	-46.453	0.163	0.080
-474.274	121.923	0.188	0.234
-473.259	371.113	0.113	0.230
-472.245	-88.129	-0.173	-0.052
-471.230	7.364	0.167	-0.124
-470.216	-128.597	0.403	0.057
-469.201	-47.899	0.308	0.149
-468.186	-200.000	-0.024	0.486
-467.172	160.474	0.057	-0.079
-466.157	113.384	-0.085	-0.102
-465.143	-156.916	-0.377	0.023
-464.128	-105.860	0.324	0.073
-463.113	52.986	0.237	0.226
-462.099	4.700	0.124	0.091
-461.084	766.005	-0.029	0.077
-460.070	318.269	-0.110	0.208
-459.055	-200.000	0.032	0.281
-458.040	752.255	-0.031	0.084
-457.026	72.890	0.294	0.307
-456.011	182.360	0.110	0.162
-454.997	800.000	-0.010	0.039
-453.982	800.000	-0.015	-0.060
-452.968	-200.000	-0.011	-0.074
-451.953	-105.231	-0.073	0.017
-450.938	800.000	0.105	-0.324
-449.924	-200.000	0.021	-0.128
-448.909	-131.442	0.030	0.004
-447.895	-45.958	0.184	-0.090
-446.880	-82.498	0.220	-0.071
-445.865	-30.294	-0.166	0.094
-444.851	-85.983	-0.379	0.117
-443.836	800.000	-0.034	0.114
-442.822	53.234	-0.124	0.118
-441.807	-107.513	0.249	0.054
-440.792	-90.043	0.174	-0.051
-439.778	-200.000	0.060	-0.342
-438.763	225.618	0.104	0.169
-437.749	-99.594	0.080	-0.020
-436.734	-173.254	0.220	-0.007
-435.719	304.731	-0.190	-0.353
-434.705	-96.305	0.124	0.033
-433.690	-90.301	0.137	0.040
-432.676	225.028	-0.055	-0.090
-431.661	-177.362	0.132	-0.003
-430.646	-115.979	0.125	-0.023
-429.632	69.383	-0.062	0.064
-428.617	-200.000	-0.003	-0.120
-427.603	118.845	-0.300	-0.370
-426.588	-115.332	0.314	-0.059
-425.573	-11.971	-0.235	-0.154
-424.559	51.546	-0.226	-0.214
-423.544	40.046	-0.246	0.220
-422.530	-45.224	-0.078	-0.038
-421.515	735.786	-0.034	-0.091
-420.500	25.387	0.144	0.120
-419.486	-32.193	0.205	-0.114
-418.471	-45.679	0.293	-0.145
-417.457	-78.607	-0.209	0.071
-416.442	-90.594	0.123	0.035
-415.428	-21.750	0.085	0.052
-414.413	800.000	0.052	-0.190
-413.398	-6.119	0.247	0.168
-412.384	800.000	0.066	0.249
-411.369	35.923	0.109	-0.096
-410.355	800.000	-0.020	-0.075
-409.340	-32.452	-0.291	0.162
-408.325	800.000	0.066	0.212
-407.311	-48.834	0.028	0.013
-406.296	800.000	0.022	-0.097
-405.282	46.169	-0.124	-0.114
-404.267	77.750	-0.184	-0.196
-403.252	-96.505	0.342	-0.090
-402.238	502.269	-0.048	-0.110
-401.223	-40.364	0.149	-0.077
-400.209	-76.867	0.275	-0.096
-399.194	-76.777	-0.226	0.079
-398.179	117.834	-0.116	-0.143
-397.165	-200.000	0.032	0.143
-396.150	-200.000	-0.002	0.096
-395.136	-117.341	0.502	-0.091
-394.121	-8.773	-0.165	-0.111
-393.106	-92.158	-0.348	0.098
-392.092	254.813	-0.034	-0.058
-391.077	800.000	0.039	0.145
-390.063	800.000	-0.041	-0.123
-389.048	-121.246	-0.050	0.008
-388.033	21.927	0.113	-0.092
-387.019	-76.657	0.101	-0.035
-386.004	216.133	-0.170	0.268
-384.990	-112.009	0.163	0.033
-383.975	-200.000	0.165	0.000
-382.960	152.932	0.178	-0.242
-381.946	-0.857	0.206	0.145
-380.931	-121.814	-0.091	0.015
-379.917	-200.000	0.052	0.294
-378.902	131.412	0.091	-0.116
-377.888	-74.957	0.133	0.048
-376.873	33.323	0.157	0.135
-375.858	-44.282	-0.216	0.108
-374.844	43.875	0.176	-0.160
-373.829	-200.000	-0.026	-0.135
-372.815	72.666	0.033	-0.034
-371.800	-200.000	-0.012	-0.337
-370.785	-101.126	-0.395	0.096
-369.771	278.400	0.132	-0.235
-368.756	142.635	-0.127	-0.167
-367.742	-71.780	-0.087	0.032
-366.727	-200.000	-0.313	0.000
-365.712	0.866	-0.181	-0.129
-364.698	525.226	-0.021	-0.050
-363.683	110.151	0.186	0.222
-362.669	-200.000	0.002	0.250
-361.654	-100.536	0.140	0.035
-360.639	40.804	-0.043	-0.039
-359.625	-200.000	-0.017	-0.298
-358.610	197.657	0.068	-0.103
-357.596	249.865	-0.100	0.168
-356.581	-74.574	0.259	-0.093
-355.566	800.000	-0.100	0.354
-354.552	-39.358	-0.072	0.038
-353.537	113.285	0.063	-0.076
-352.523	62.089	0.137	0.136
-351.508	-136.487	-0.250	-0.029
-350.493	-200.000	-0.102	-0.450
-349.479	142.408	0.305	-0.403
-348.464	-200.000	0.007	-0.116
-347.450	-200.000	0.002	0.099
-346.435	-10.004	-0.359	-0.237
-345.420	-200.000	-0.049	0.286
-344.406	-43.464	-0.038	-0.019
-343.391	-133.481	0.300	-0.037
-342.377	155.781	-0.146	0.201
-341.362	131.522	-0.200	0.256
-340.348	-200.000	0.016	-0.332
-339.333	-121.343	-0.329	0.055
-338.318	-44.337	0.126	0.063
-337.304	211.791	-0.138	0.215
-336.289	-86.813	0.193	-0.059
-335.275	-123.389	0.378	0.060
-334.260	-99.621	0.218	-0.054
-333.245	800.000	0.059	-0.200
-332.231	289.153	-0.060	-0.109
-331.216	-57.941	0.332	0.144
-330.202	-89.313	0.034	0.010
-329.187	-86.399	0.134	0.041
-328.172	405.524	0.124	0.260
-327.158	28.506	0.168	0.142
-326.143	-18.776	0.144	-0.089
-325.129	87.151	0.101	0.111
-324.114	-58.141	0.203	-0.088
-323.099	82.252	0.154	0.166
-322.085	-200.000	-0.014	0.127
-321.070	-200.000	-0.012	0.084
-320.056	-42.574	0.142	-0.072
-319.041	-200.000	0.015	0.156
-318.026	27.482	-0.358	-0.299
-317.012	-32.935	-0.308	0.170
-315.997	672.144	0.074	-0.191
-314.983	-182.279	0.146	-0.003
-313.968	800.000	0.057	0.190
-312.953	3.082	0.099	-0.072
-311.939	160.300	-0.175	-0.243
-310.924	53.128	0.250	-0.238
-309.910	-91.334	0.409	0.116
-308.895	-18.794	-0.355	-0.220
-307.880	800.000	-0.049	-0.163
-306.866	91.096	0.137	0.153
-305.851	-200.000	-0.028	0.374
-304.837	-200.000	0.004	-0.330
-303.822	-57.790	-0.089	-0.039
-302.807	-75.975	0.047	-0.016
-301.793	158.823	-0.146	0.201
-300.778	621.408	0.074	-0.186
-299.764	-200.000	-0.002	-0.115
-298.749	-200.000	-0.025	0.136
-297.735	-200.000	-0.019	-0.440
-296.720	-200.000	-0.057	-0.312
-295.705	-25.685	0.112	0.066
-294.691	-97.320	0.372	0.096
-293.676	379.934	0.131	0.267
-292.662	800.000	0.038	-0.161
-291.647	162.311	0.106	-0.147
-290.632	161.515	-0.086	0.119
-289.618	-101.572	-0.132	0.032
-288.603	-80.543	-0.139	-0.046
-287.589	-80.338	-0.157	0.052
-286.574	130.011	-0.221	0.281
-285.559	-65.609	-0.129	-0.051
-284.545	-117.557	0.172	-0.031
-283.530	72.464	-0.083	-0.086
-282.516	800.000	-0.069	-0.210
-281.501	644.720	-0.172	0.436
-280.486	-75.467	-0.076	-0.027
-279.472	13.783	0.193	-0.149
-278.457	-200.000	-0.036	-0.199
-277.443	176.114	-0.070	0.100
-276.428	800.000	-0.086	0.266
-275.413	-45.635	-0.167	-0.082
-274.399	225.949	-0.099	0.159
-273.384	800.000	0.025	0.075
-272.370	-75.218	0.137	-0.049
-271.355	-200.000	-0.020	-0.103
-270.340	370.790	-0.090	0.181
-269.326	-11.505	-0.219	0.143
-268.311	-61.052	-0.135	-0.056
-267.297	86.219	0.228	0.249
-266.282	-200.000	0.089	0.000
-265.267	278.600	0.136	-0.240
-264.253	-91.206	-0.116	0.033
-263.238	116.916	-0.202	0.246
-262.224	203.974	-0.183	-0.281
-261.209	140.620	0.210	0.274
-260.195	-85.943	-0.385	-0.118
-259.180	-32.425	0.236	0.130
-258.165	-106.550	-0.171	0.038
-257.151	-130.488	-0.070	-0.009
-256.136	-143.206	-0.369	-0.035
-255.122	249.284	0.138	0.232
-254.107	450.473	-0.095	0.209
-253.092	-99.123	-0.095	-0.024
-252.078	740.754	-0.033	-0.088
-251.063	-36.550	0.060	-0.032
-250.049	-200.000	-0.016	0.152
-249.034	297.079	0.135	0.246
-248.019	-183.021	-0.032	0.001
-247.005	77.064	0.033	0.035
-245.990	800.000	0.139	0.499
-244.976	107.168	-0.164	0.193
-243.961	-84.873	0.171	0.053
-242.946	56.098	-0.092	-0.088
-241.932	45.897	0.141	-0.129
-240.917	10.439	-0.142	-0.107
-239.903	433.696	-0.110	0.236
-238.888	-83.119	0.258	0.082
-237.873	-200.000	-0.039	-0.207
-236.859	76.792	-0.076	-0.080
-235.844	259.511	-0.075	0.128
-234.830	205.368	0.115	0.176
-233.815	50.440	0.166	0.155
-232.800	-200.000	0.003	-0.085
-231.786	27.893	0.079	-0.066
-230.771	-47.400	-0.023	-0.011
-229.757	307.179	0.105	-0.193
-228.742	-101.015	-0.259	-0.063
-227.727	800.000	0.080	0.294
-226.713	-200.000	-0.025	0.178
-225.698	444.671	0.089	0.194
-224.684	216.016	0.097	-0.152
-223.669	800.000	-0.080	-0.220
-222.655	-11.338	0.094	0.061
-221.640	-200.000	-0.049	0.284
-220.625	-99.839	0.359	-0.089
-219.611	-200.000	0.003	0.023
-218.596	-200.000	0.001	-0.165
-217.582	244.658	0.134	-0.223
-216.567	-200.000	-0.037	0.184
-215.552	-92.536	-0.323	0.090
-214.538	634.521	0.042	0.106
-213.523	-101.718	-0.158	0.038
-212.509	-125.260	-0.063	-0.009
-211.494	163.866	0.030	0.041
-210.479	-200.000	-0.043	-0.265
-209.465	366.450	0.129	0.257
-208.450	106.931	-0.045	-0.053
-207.436	143.229	0.069	-0.091
-206.421	120.005	-0.128	0.158
-205.406	86.065	-0.079	-0.086
-204.392	800.000	-0.093	0.287
-203.377	128.238	0.104	0.131
-202.363	18.376	0.250	-0.198
-201.348	-165.221	0.162	0.007
-200.333	768.415	-0.043	-0.116
-199.319	-75.698	0.125	-0.044
-198.304	-10.258	0.078	0.051
-197.290	32.630	-0.056	0.048
-196.275	-153.869	-0.345	0.023
-195.260	791.062	-0.087	0.237
-194.246	-153.322	0.088	-0.006
-193.231	-49.985	0.125	0.058
-192.217	-200.000	0.006	-0.053
-191.202	-10.269	-0.035	-0.023
-190.187	-200.000	-0.026	0.201
-189.173	-159.138	-0.120	-0.007
-188.158	-48.655	-0.109	-0.052
-187.144	173.035	-0.069	0.099
-186.129	-26.319	0.169	0.098
-185.114	-172.137	0.099	-0.003
-184.100	60.085	0.227	-0.221
-183.085	-19.156	0.147	-0.090
-182.071	117.426	-0.227	-0.276
-181.056	65.621	-0.114	0.114
-180.042	126.335	-0.209	0.262
-179.027	-85.806	0.329	-0.101
-178.012	-111.607	-0.332	-0.067
-176.998	104.844	-0.146	0.170
-175.983	383.557	-0.033	-0.068
-174.969	-150.385	0.292	0.022
-173.954	-200.000	0.017	-0.227
-172.939	-85.741	0.253	-0.077
-171.925	-200.000	-0.020	-0.114
-170.910	-4.902	0.267	0.182
-169.896	-200.000	-0.043	-0.195
-168.881	239.850	-0.138	-0.226
-167.866	-200.000	-0.039	-0.177
-166.852	150.805	0.042	0.056
-165.837	-121.352	0.257	0.042
-164.823	-102.333	-0.335	0.079
-163.808	-200.000	0.020	-0.108
-162.793	-16.355	0.387	0.242
-161.779	-200.000	-0.083	0.360
-160.764	558.811	-0.104	0.248
-159.750	-147.558	0.417	-0.035
-158.735	-200.000	-0.014	0.317
-157.720	-17.041	0.416	0.259
-156.706	-120.553	-0.172	-0.029
-155.691	-200.000	-0.014	0.162
-154.677	310.723	0.203	-0.375
-153.662	-166.425	0.366	0.015
-152.647	-116.037	-0.048	0.009
-151.633	-200.000	0.049	0.309
-150.618	-87.932	-0.281	0.083
-149.604	506.081	-0.153	0.351
-148.589	-181.948	-0.105	-0.002
-147.574	-30.908	0.073	0.041
-146.560	-160.586	0.273	0.014
-145.545	-164.968	-0.132	0.006
-144.531	-97.177	0.101	0.026
-143.516	400.571	0.134	-0.278
-142.502	-200.000	-0.028	0.160
-141.487	66.166	0.059	-0.059
-140.472	-200.000	0.075	0.482
-139.458	72.866	0.077	-0.079
-138.443	-86.784	0.260	-0.079
-137.429	54.769	-0.101	0.096
-136.414	107.258	-0.128	0.150
-135.399	-88.926	0.500	0.146
-134.385	-41.374	0.274	0.139
-133.370	-176.343	0.294	-0.008
-132.356	329.721	-0.049	0.092
-131.341	59.823	0.080	0.078
-130.326	-120.771	0.186	-0.031
-129.312	11.018	0.186	-0.140
-128.297	800.000	0.091	-0.290
-127.283	537.470	0.158	0.370
-126.268	16.190	0.100	0.078
-125.253	-102.962	0.131	-0.031
-124.239	358.975	-0.152	-0.299
-123.224	225.936	-0.035	-0.056
-122.210	664.805	-0.155	0.396
-121.195	-200.000	-0.043	0.267
-120.180	338.580	0.036	-0.069
-119.166	148.235	-0.139	-0.185
-118.151	-17.404	0.184	0.114
-117.137	131.855	-0.123	-0.156
-116.122	-200.000	0.020	-0.181
-115.107	476.955	-0.067	0.148
-114.093	-30.398	-0.131	0.073
-113.078	136.607	0.109	-0.140
-112.064	-8.316	0.173	0.114
-111.049	-144.787	-0.215	-0.019
-110.034	199.543	0.175	0.265
-109.020	-16.142	0.105	-0.066
-108.005	31.158	-0.067	-0.057
-106.991	-101.202	0.182	-0.044
-105.976	-148.789	0.114	-0.009
-104.962	800.000	-0.094	0.362
-103.947	-103.107	0.199	0.046
-102.932	41.392	-0.369	-0.329
-101.918	-40.707	0.336	-0.171
-100.903	-138.565	-0.040	0.004
-99.889	800.000	0.077	-0.251
-98.874	7.360	-0.134	0.099
-97.859	-45.257	0.180	-0.088
-96.845	-120.773	0.036	-0.006
-95.830	242.693	0.098	-0.161
-94.816	20.641	-0.167	0.133
-93.801	-200.000	0.107	0.482
-92.786	-83.896	-0.129	0.040
-91.772	568.476	-0.134	-0.322
-90.757	800.000	0.077	0.270
-89.743	-39.430	-0.230	0.119
-88.728	-200.000	0.015	-0.114
-87.713	-77.811	-0.219	0.074
-86.699	-117.355	0.219	0.039
-85.684	-19.744	0.181	0.110
-84.670	281.230	0.210	-0.371
-83.655	-54.984	0.115	0.051
-82.640	189.080	0.144	-0.213
-81.626	-141.368	0.157	0.016
-80.611	272.954	-0.044	0.076
-79.597	-86.166	0.296	-0.090
-78.582	-85.159	0.306	-0.094
-77.567	200.880	0.212	-0.321
-76.553	60.249	-0.049	-0.048
-75.538	-200.000	-0.037	0.249
-74.524	-118.632	0.285	0.050
-73.509	-200.000	0.059	0.424
-72.494	196.963	-0.153	0.229
-71.480	82.112	0.101	-0.108
-70.465	207.160	0.069	-0.106
-69.451	-132.966	-0.134	-0.017
-68.436	1.377	0.193	0.137
-67.422	-20.377	0.218	0.132
-66.407	93.065	0.069	0.076
-65.392	-23.726	-0.291	0.172
-64.378	-67.136	0.033	-0.013
-63.363	59.167	0.141	0.136
-62.349	-200.000	0.015	0.072
-61.334	126.668	-0.792	-0.986
-60.319	-200.000	0.062	0.431
-59.305	322.945	-0.359	-0.674
-58.290	140.924	0.765	0.994
-57.276	635.690	0.474	1.184
-56.261	-200.000	100.154	612.385
-55.246	605.599	1423.290	3486.620
-54.232	187.020	2620.149	3840.112
-53.217	115.617	2183.296	2624.823
-52.203	43.127	1720.298	1543.554
-51.188	35.933	1534.382	1327.323
-50.173	33.575	1507.725	1288.209
-49.159	52.238	1558.765	1461.258
-48.144	54.028	1576.158	1489.885
-47.130	36.102	1533.660	1327.647
-46.115	33.137	1518.389	1294.121
-45.100	32.908	1515.464	1290.012
-44.086	32.871	1513.488	1288.024
-43.071	32.784	1511.898	1286.027
-42.057	32.765	1510.607	1284.749
-41.042	32.796	1508.951	1283.497
-40.027	32.829	1507.478	1282.423
-39.013	32.740	1506.031	1280.532
-37.998	32.777	1504.286	1279.249
-36.984	32.736	1504.308	1278.943
-35.969	32.842	1501.947	1277.601
-34.954	32.794	1500.941	1276.371
-33.940	32.799	1499.342	1274.996
-32.925	32.871	1497.846	1274.159
-31.911	32.827	1496.513	1272.672
-30.896	32.938	1495.132	1272.199
-29.881	32.874	1493.910	1270.678
-28.867	32.875	1492.197	1269.177
-27.852	32.877	1491.298	1268.378
-26.838	32.920	1489.808	1267.348
-25.823	32.836	1488.179	1265.345
-24.809	32.901	1486.157	1264.012
-23.794	32.864	1484.938	1262.674
-22.779	32.909	1483.921	1262.063
-21.765	32.895	1482.689	1260.871
-20.750	32.878	1481.315	1259.543
-19.736	32.786	1481.043	1258.644
-18.721	32.807	1480.026	1257.869
-17.706	32.746	1478.949	1256.499
-16.692	32.868	1476.812	1255.448
-15.677	32.815	1476.124	1254.459
-14.663	32.698	1475.690	1253.264
-13.648	32.749	1474.724	1252.732
-12.633	32.773	1473.936	1252.168
-11.619	32.746	1472.921	1251.077
-10.604	32.754	1471.900	1250.219
-9.590	32.749	1471.095	1249.451
-8.575	32.837	1469.805	1248.890
-7.560	32.844	1469.438	1248.571
-6.546	32.788	1468.697	1247.522
-5.531	32.738	1468.219	1246.737
-4.517	32.736	1467.033	1245.667
-3.502	32.775	1465.617	1244.674
-2.487	32.612	1465.159	1243.158
-1.473	32.715	1463.812	1242.641
-0.458	32.685	1462.498	1241.280
0.556	30.381	1452.248	1229.062
1.571	27.109	1425.881	1185.334
2.586	23.446	1362.558	1109.711
3.600	21.583	1280.399	1031.737
4.615	20.451	1235.793	989.264
5.629	17.647	1180.230	929.427
6.644	8.683	1094.241	816.119
7.659	0.976	1052.155	746.764
8.673	-0.152	1046.651	737.257
9.688	-0.300	1043.718	734.400
10.702	-0.352	1041.574	732.573
11.717	-0.445	1040.121	731.033
12.731	2.696	1043.810	748.919
13.746	11.856	1057.165	803.577
14.761	18.141	1064.245	839.851
15.775	18.578	1063.686	841.483
16.790	18.351	1063.142	839.862
17.804	18.095	1062.270	837.843
18.819	17.876	1061.126	835.796
19.834	17.984	1060.526	835.777
20.848	18.161	1060.107	836.238
21.863	18.139	1059.773	835.795
22.877	18.073	1059.131	834.891
23.892	18.085	1058.348	834.257
24.907	17.912	1057.478	832.656
25.921	18.022	1056.869	832.637
26.936	17.970	1056.465	831.993
27.950	18.043	1054.871	831.020
28.965	18.074	1053.478	829.999
29.980	17.856	1052.169	827.836
30.994	17.862	1050.561	826.526
32.009	18.155	1049.494	827.031
33.023	18.210	1049.094	826.907
34.038	17.919	1047.576	824.234
35.053	17.888	1047.083	823.626
36.067	18.075	1046.678	824.135
37.082	18.152	1045.576	823.565
38.096	18.184	1044.913	823.125
39.111	18.143	1044.291	822.363
40.126	18.410	1043.175	822.695
41.140	18.220	1042.087	820.853
42.155	18.039	1040.341	818.540
43.169	17.834	1039.177	816.570
44.184	17.788	1038.103	815.431
45.199	17.879	1036.692	814.687
46.213	17.828	1035.756	813.638
47.228	17.862	1034.929	813.079
48.242	17.730	1034.085	811.713
49.257	17.851	1032.703	811.129
50.271	17.985	1031.992	811.140
51.286	18.107	1031.024	810.885
52.301	18.054	1030.379	810.056
53.315	18.038	1029.751	809.414
54.330	18.057	1028.784	808.669
55.344	17.985	1027.935	807.590
56.359	18.141	1026.715	807.300
57.374	18.123	1025.646	806.303
58.388	17.929	1024.965	804.778
59.403	18.016	1023.786	804.191
60.417	17.989	1023.030	803.398
61.432	17.845	1022.552	802.278
62.447	17.806	1021.650	801.317
63.461	18.050	1020.687	801.635
64.476	17.953	1020.365	800.855
65.490	18.091	1018.836	800.232
66.505	17.973	1018.264	799.156
67.520	17.926	1017.515	798.280
68.534	18.093	1016.198	797.956
69.549	17.892	1015.225	796.185
70.563	17.742	1014.032	794.481
71.578	17.598	1013.534	793.349
72.593	17.616	1012.649	792.671
73.607	17.497	1011.434	791.094
74.622	17.707	1010.060	790.922
75.636	17.908	1009.419	791.285
76.651	17.858	1008.687	790.410
77.666	17.737	1008.379	789.536
78.680	17.676	1007.333	788.367
79.695	17.777	1006.612	788.201
80.709	17.700	1006.429	787.630
81.724	17.922	1005.197	787.619
82.739	17.857	1004.099	786.391
83.753	17.770	1003.451	785.415
84.768	18.040	1002.637	785.949
85.782	18.159	1002.329	786.187
86.797	18.266	1001.484	785.946
87.812	18.162	1000.446	784.585
88.826	18.114	999.419	783.490
89.841	18.018	999.020	782.665
90.855	18.242	997.639	782.539
91.870	18.186	996.915	781.645
92.884	18.238	995.860	780.989
93.899	18.150	995.665	780.366
94.914	18.022	994.438	778.752
95.928	18.094	994.060	778.714
96.943	18.259	992.516	778.184
97.957	17.913	991.772	775.961
98.972	17.783	990.796	774.539
99.987	17.482	989.669	772.222
101.001	17.702	988.584	772.306
102.016	17.927	987.923	772.741
103.030	18.074	987.082	772.679
104.045	17.884	986.069	770.956
105.060	17.777	984.820	769.431
106.074	17.751	983.076	767.883
107.089	17.789	982.973	767.905
108.103	18.124	982.600	769.053
109.118	18.219	981.730	768.730
110.133	18.026	980.580	766.899
111.147	17.864	980.146	765.762
112.162	17.998	978.557	765.055
113.176	17.805	977.052	762.947
114.191	17.790	976.426	762.322
115.206	17.904	975.407	761.970
116.220	17.566	974.554	759.728
117.235	17.652	973.164	758.959
118.249	17.660	972.599	758.487
119.264	17.774	971.416	758.006
120.279	17.790	970.673	757.429
121.293	17.776	969.733	756.568
122.308	17.750	969.364	756.095
123.322	17.863	968.322	755.715
124.337	17.919	966.899	754.787
125.352	17.864	965.444	753.343
126.366	17.366	964.235	750.136
127.381	17.087	962.494	747.487
128.395	17.557	962.150	749.220
129.410	18.064	961.698	751.031
130.424	18.356	960.303	751.157
131.439	18.257	959.270	749.848
132.454	18.083	958.654	748.540
133.468	18.086	957.737	747.768
134.483	18.095	956.777	746.994
135.497	18.244	956.008	746.977
136.512	18.315	955.422	746.764
137.527	18.334	954.988	746.442
138.541	18.441	953.715	745.844
139.556	18.381	952.878	744.863
140.570	18.425	952.049	744.343
141.585	18.228	951.520	743.005
142.600	18.259	950.427	742.220
143.614	18.316	949.049	741.328
144.629	18.416	948.573	741.321
145.643	18.494	948.029	741.168
146.658	18.354	947.005	739.696
147.673	18.364	945.692	738.650
148.687	18.263	944.576	737.279
149.702	18.375	943.499	736.855
150.716	18.175	942.551	735.187
151.731	18.173	941.548	734.331
152.746	18.117	941.151	733.719
153.760	18.367	940.530	734.240
154.775	18.444	939.986	734.083
155.789	18.453	939.076	733.346
156.804	18.476	937.924	732.477
157.819	18.503	936.810	731.658
158.833	18.455	936.017	730.771
159.848	18.416	935.339	730.012
160.862	18.579	934.134	729.699
161.877	18.320	933.463	728.007
162.892	18.324	932.809	727.452
163.906	18.586	931.897	727.788
164.921	18.636	930.934	727.180
165.935	18.573	929.628	725.831
166.950	18.540	928.664	724.873
167.964	18.489	927.992	724.072
168.979	18.405	926.884	722.790
169.994	18.517	925.372	722.016
171.008	18.271	925.041	720.660
172.023	18.500	923.961	720.719
173.037	18.425	923.539	720.008
174.052	18.167	922.543	718.084
175.067	18.099	921.062	716.586
176.081	18.297	920.221	716.698
177.096	18.293	919.867	716.338
178.110	18.484	918.215	715.788
179.125	18.212	917.581	714.095
180.140	17.960	916.395	712.060
181.154	17.935	915.721	711.368
182.169	17.997	915.665	711.519
183.183	18.137	914.917	711.458
184.198	18.488	914.302	712.376
185.213	18.487	913.676	711.820
186.227	18.413	912.845	710.801
187.242	18.587	912.503	711.197
188.256	18.459	911.498	709.818
189.271	18.510	910.864	709.472
190.286	18.518	909.927	708.715
191.300	18.395	909.151	707.541
192.315	18.062	907.684	704.960
193.329	17.491	906.701	701.782
194.344	17.250	905.833	700.056
195.359	17.639	906.026	701.744
196.373	18.321	906.270	704.682
197.388	18.408	905.737	704.559
198.402	18.381	904.673	703.559
199.417	18.210	903.979	702.258
200.432	18.334	903.144	702.054
201.446	18.210	902.635	701.088
202.461	17.815	901.719	698.696
203.475	17.846	901.117	698.296
204.490	17.545	899.829	696.005
205.504	16.516	897.952	690.292
206.519	17.112	897.808	692.553
207.534	17.894	898.423	696.156
208.548	18.039	897.665	696.098
209.563	18.499	897.254	697.592
210.577	18.402	896.607	696.633
211.592	18.120	895.706	694.724
212.607	18.382	895.832	695.826
213.621	18.457	895.005	695.425
214.636	18.353	893.944	694.120
215.650	18.499	893.270	694.127
216.665	18.454	893.085	693.737
217.680	18.603	892.088	693.503
218.694	18.660	891.932	693.553
219.709	18.148	890.573	690.368
220.723	17.837	889.745	688.411
221.738	18.002	889.581	688.888
222.753	18.179	889.127	689.189
223.767	18.296	888.171	688.859
224.782	18.421	887.013	688.400
225.796	18.599	886.027	688.289
226.811	18.818	885.664	688.823
227.826	18.322	884.466	685.847
228.840	17.641	883.205	682.081
229.855	17.704	882.219	681.510
230.869	17.914	882.049	682.159
231.884	17.541	881.191	679.947
232.899	17.614	880.843	679.907
233.913	18.333	881.031	682.864
234.928	18.514	880.066	682.774
235.942	18.497	879.499	682.205
236.957	18.573	878.766	681.882
237.972	18.262	877.706	679.763
238.986	18.129	876.959	678.595
240.001	18.365	876.421	679.055
241.015	18.213	875.727	677.854
242.030	18.279	875.410	677.811
243.045	18.391	874.696	677.641
244.059	18.495	874.080	677.515
245.074	18.615	873.698	677.633
246.088	18.632	872.624	676.806
247.103	18.125	871.604	673.956
248.117	18.273	870.742	673.816
249.132	18.723	870.977	675.709
250.147	18.979	870.153	676.017
251.161	18.755	869.603	674.650
252.176	19.026	869.040	675.216
253.190	19.036	868.396	674.697
254.205	19.013	867.863	674.133
255.220	19.126	867.618	674.324
256.234	19.213	866.935	674.076
257.249	19.150	865.895	672.961
258.263	18.879	865.538	671.564
259.278	19.098	864.855	671.828
260.293	19.255	864.101	671.798
261.307	19.245	863.857	671.509
262.322	19.191	862.598	670.259
263.336	18.996	862.008	668.985
264.351	18.489	860.545	665.820
265.366	17.359	858.700	659.950
266.380	17.151	857.531	658.192
267.395	18.013	858.154	661.952
268.409	18.639	857.961	664.167
269.424	18.832	857.372	664.399
270.439	18.850	857.101	664.199
271.453	18.982	856.194	663.946
272.468	19.139	855.468	663.933
273.482	19.055	855.256	663.383
274.497	19.280	854.706	663.767
275.512	19.059	853.600	661.999
276.526	18.610	852.153	659.092
277.541	18.688	851.819	659.074
278.555	19.182	851.605	660.747
279.570	18.900	850.281	658.580
280.585	18.744	849.319	657.182
281.599	18.803	849.048	657.137
282.614	18.907	849.005	657.447
283.628	18.447	847.768	654.671
284.643	18.377	846.801	653.601
285.657	18.784	846.743	655.051
286.672	18.594	845.832	653.564
287.687	18.151	845.231	651.354
288.701	18.237	844.745	651.252
289.716	18.723	844.480	652.835
290.730	18.442	843.439	650.906
291.745	18.312	842.568	649.684
292.760	18.204	841.714	648.557
293.774	18.152	841.274	647.963
294.789	19.064	841.402	651.461
295.803	19.398	841.677	652.878
296.818	19.402	841.500	652.699
297.833	19.575	841.070	652.962
298.847	19.340	839.627	650.898
299.862	19.058	838.630	649.006
300.876	19.213	838.125	649.140
301.891	19.637	837.317	650.053
302.906	19.563	836.684	649.227
303.920	19.136	835.945	646.990
304.935	18.962	835.137	645.655
305.949	19.254	834.716	646.368
306.964	19.559	834.179	647.036
307.979	19.265	833.826	645.604
308.993	19.307	833.090	645.133
310.008	19.524	833.029	645.843
311.022	19.718	832.641	646.210
312.037	19.525	832.205	645.094
313.052	19.393	831.391	643.913
314.066	19.215	830.783	642.719
315.081	18.828	829.005	639.848
316.095	18.078	828.257	636.422
317.110	18.753	828.146	638.791
318.125	19.220	828.495	640.743
319.139	18.970	827.267	638.808
320.154	18.035	826.026	634.322
321.168	17.531	825.472	631.970
322.183	18.273	825.011	634.313
323.197	19.010	825.310	637.220
324.212	19.236	825.093	637.833
325.227	19.324	824.345	637.523
326.241	19.446	823.737	637.447
327.256	19.480	823.089	637.015
328.270	19.359	822.462	636.026
329.285	19.373	821.977	635.646
330.300	19.200	821.535	634.612
331.314	19.041	820.458	633.137
332.329	19.077	820.116	632.952
333.343	19.324	819.583	633.391
334.358	19.543	818.741	633.487
335.373	19.486	818.217	632.818
336.387	19.679	817.404	632.839
337.402	19.831	817.317	633.274
338.416	19.762	817.108	632.802
339.431	19.838	816.308	632.405
340.446	19.744	815.811	631.621
341.460	20.126	815.313	632.572
342.475	19.913	814.497	631.107
343.489	19.717	813.650	629.682
344.504	19.770	813.015	629.326
345.519	20.091	813.160	630.551
346.533	20.232	812.777	630.713
347.548	20.060	812.578	629.875
348.562	20.211	812.052	629.961
349.577	20.197	811.379	629.334
350.592	20.224	810.998	629.077
351.606	20.200	810.555	628.591
352.621	20.342	809.663	628.360
353.635	20.183	809.389	627.516
354.650	20.170	808.784	626.944
355.665	19.880	807.596	624.922
356.679	18.804	806.492	620.128
357.694	18.668	805.987	619.193
358.708	19.183	805.683	620.765
359.723	19.187	805.220	620.365
360.738	19.349	805.139	620.832
361.752	19.885	804.789	622.436
362.767	19.992	803.992	622.151
363.781	20.034	804.217	622.419
364.796	20.418	803.482	623.173
365.810	20.518	803.126	623.199
366.825	20.676	802.695	623.379
367.840	20.526	802.319	622.494
368.854	20.232	801.919	621.074
369.869	20.003	800.774	619.316
370.883	19.892	800.304	618.499
371.898	19.987	799.666	618.289
372.913	19.867	799.374	617.582
373.927	19.725	798.614	616.436
374.942	19.878	798.324	616.701
375.956	20.074	797.317	616.566
376.971	20.294	796.821	616.909
377.986	20.257	796.537	616.504
379.000	20.580	796.051	617.219
380.015	20.307	795.688	615.915
381.029	20.257	794.831	615.019
382.044	20.389	794.269	614.997
383.059	20.461	793.518	614.619
384.073	20.430	793.167	614.182
385.088	20.568	792.761	614.300
386.102	20.531	792.314	613.771
387.117	20.459	791.615	612.921
388.132	20.370	791.112	612.162
389.146	20.277	790.699	611.458
390.161	19.740	789.693	608.738
391.175	19.772	789.442	608.602
392.190	20.022	789.401	609.396
393.205	20.202	788.646	609.392
394.219	19.286	787.449	605.200
395.234	18.085	785.453	599.401
396.248	17.370	784.505	596.122
397.263	18.519	785.044	600.506
398.278	20.008	786.076	606.461
399.292	20.382	786.097	607.730
400.307	20.175	785.330	606.359
401.321	20.056	784.997	605.633
402.336	20.071	784.863	605.530
403.350	20.452	784.315	606.382
404.365	20.803	784.102	607.387
405.380	20.795	784.161	607.353
406.394	21.110	783.567	607.935
407.409	21.198	783.342	608.014
408.423	21.043	782.569	606.823
409.438	20.969	782.055	606.113
410.453	21.061	781.508	605.954
411.467	21.223	781.245	606.258
412.482	21.065	780.941	605.421
413.496	21.040	779.890	604.465
414.511	21.180	779.668	604.726
415.526	21.142	779.669	604.542
416.540	21.222	779.171	604.379
417.555	21.133	778.577	603.556
418.569	20.725	777.610	601.343
419.584	20.760	777.260	601.143
420.599	20.768	777.183	601.056
421.613	156.489	1360.622	1793.537
422.628	135.123	1445.609	1793.641
