DTS Sentinel unit serial number:	SN413079Multiplexer serial number:	ORYXHardware model number:	OX4-SRSoftware version number:	ORYX F/W v4.00 Oryx Data Collector v3.7.2.0data status	okinstallation	princeton_trtdifferential loss correction	single-endedforward channel	channel 3reverse channel	N/Adate	2019/09/15time	22:24:35forward acquisition time	60.00reverse acquisition time	0.00gamma	496.2192k internal	0.2331k external	0.2331temperature offset calibration	0.9939default loss term (dB/km)	0.3790temperature slope calibration	1.0000multiplexer offset coefficient	1.0000multiplexer slope coefficient	1.0000fibre end	0.00T internal ref (°C)	29.28T ext. ref 1 (°C)	8.70T ext. ref 2 (°C)	22.70length (m)	temperature (°C)	Stokes	anti-Stokes-747.200	-74.882	-0.409	-0.148
-746.185	103.678	0.121	-0.143
-745.171	755.935	-0.022	-0.060
-744.156	800.000	-0.041	0.119
-743.142	-148.686	-0.225	0.018
-742.127	0.369	-0.316	-0.227
-741.112	-66.972	-0.341	-0.135
-740.098	209.861	0.047	0.074
-739.083	-200.000	0.010	0.271
-738.069	-200.000	0.006	0.258
-737.054	-29.746	0.169	-0.097
-736.039	-121.624	-0.190	0.032
-735.025	-52.358	0.231	-0.107
-734.010	-88.990	-0.295	0.088
-732.996	-200.000	-0.041	-0.237
-731.981	21.670	-0.397	-0.325
-730.966	576.939	-0.101	0.248
-729.952	-29.468	0.033	-0.019
-728.937	34.330	-0.023	0.021
-727.923	-200.000	-0.010	-0.082
-726.908	222.021	-0.062	0.101
-725.894	-55.221	0.265	-0.120
-724.879	-200.000	-0.116	-0.518
-723.864	800.000	-0.015	-0.058
-722.850	656.750	0.081	-0.209
-721.835	-42.664	-0.058	-0.029
-720.821	315.809	0.081	-0.153
-719.806	454.122	0.071	-0.159
-718.791	507.550	-0.067	-0.157
-717.777	-200.000	0.041	-0.341
-716.762	-39.918	-0.230	-0.121
-715.748	-200.000	-0.034	-0.150
-714.733	-78.308	0.189	-0.065
-713.718	-40.039	-0.229	-0.120
-712.704	648.384	0.105	-0.269
-711.689	-200.000	0.033	0.311
-710.675	-56.338	-0.304	-0.136
-709.660	25.386	0.209	-0.175
-708.645	-66.802	-0.476	0.189
-707.631	-91.190	0.246	-0.071
-706.616	-200.000	0.015	-0.296
-705.602	164.803	-0.073	-0.104
-704.587	655.804	-0.035	-0.090
-703.572	244.681	0.116	0.196
-702.558	-200.000	0.037	-0.169
-701.543	800.000	-0.048	0.178
-700.529	-69.046	-0.223	-0.086
-699.514	-126.581	-0.240	-0.036
-698.499	-66.886	0.256	-0.102
-697.485	-87.335	0.060	0.018
-696.470	-131.114	0.208	0.028
-695.456	-52.234	-0.145	0.068
-694.441	95.191	-0.124	0.142
-693.426	-200.000	0.032	-0.147
-692.412	800.000	0.057	-0.185
-691.397	-200.000	0.058	-0.315
-690.383	193.793	0.111	-0.169
-689.368	-110.801	0.412	0.085
-688.354	108.789	-0.170	0.204
-687.339	800.000	0.067	-0.244
-686.324	800.000	-0.029	-0.117
-685.310	800.000	0.096	0.304
-684.295	800.000	0.037	0.121
-683.281	184.773	-0.327	0.486
-682.266	-75.785	-0.087	-0.031
-681.251	67.765	-0.219	0.224
-680.237	231.377	-0.091	0.149
-679.222	-200.000	-0.026	0.143
-678.208	754.804	0.138	0.374
-677.193	-26.201	-0.314	0.185
-676.178	-64.666	-0.743	-0.302
-675.164	51.157	0.060	-0.057
-674.149	0.617	0.056	-0.040
-673.135	800.000	-0.061	0.188
-672.120	-200.000	0.002	-0.192
-671.105	-20.848	-0.060	-0.037
-670.091	-127.494	0.217	0.032
-669.076	77.014	0.094	0.100
-668.062	-200.000	-0.024	-0.167
-667.047	-20.051	-0.127	0.079
-666.032	2.218	0.080	0.058
-665.018	34.667	-0.181	0.159
-664.003	-150.826	-0.164	-0.012
-662.989	-200.000	-0.067	-0.357
-661.974	645.138	0.016	-0.041
-660.959	209.337	-0.151	0.237
-659.945	43.482	-0.124	-0.113
-658.930	-115.667	0.237	0.045
-657.916	800.000	-0.066	-0.198
-656.901	114.901	0.130	-0.159
-655.886	-62.790	-0.157	0.065
-654.872	201.150	-0.126	-0.195
-653.857	-1.167	0.167	0.118
-652.843	86.633	-0.081	0.090
-651.828	-102.796	-0.109	-0.026
-650.814	97.531	0.209	0.240
-649.799	402.208	0.051	-0.108
-648.784	-12.474	0.450	0.294
-647.770	-33.792	0.293	-0.162
-646.755	-134.485	0.206	0.025
-645.741	-120.718	-0.313	0.053
-644.726	19.756	-0.237	-0.191
-643.711	-102.128	0.186	0.045
-642.697	582.818	0.066	-0.163
-641.682	38.919	0.202	0.181
-640.668	81.152	0.093	0.101
-639.653	4.419	-0.195	-0.144
-638.638	-200.000	-0.011	0.107
-637.624	-2.454	0.007	-0.005
-636.609	600.362	0.055	-0.137
-635.595	181.779	-0.149	0.219
-634.580	-142.751	0.166	-0.016
-633.565	21.333	-0.189	0.153
-632.551	118.750	0.258	-0.319
-631.536	-44.870	-0.262	-0.131
-630.522	53.653	-0.095	0.092
-629.507	23.251	-0.146	-0.120
-628.492	-200.000	-0.002	0.013
-627.478	-100.725	-0.267	-0.066
-626.463	-72.124	-0.279	0.104
-625.449	11.879	-0.134	0.103
-624.434	778.523	0.066	0.180
-623.419	800.000	0.066	-0.192
-622.405	165.898	0.059	0.083
-621.390	96.019	0.037	-0.043
-620.376	496.370	-0.030	0.069
-619.361	29.823	-0.198	-0.169
-618.346	-200.000	0.005	-0.103
-617.332	-97.617	0.040	-0.010
-616.317	16.661	-0.284	-0.225
-615.303	-60.611	-0.142	0.061
-614.288	-200.000	-0.046	0.260
-613.273	23.972	0.490	-0.404
-612.259	14.872	0.241	-0.189
-611.244	800.000	-0.027	0.075
-610.230	-57.852	-0.048	0.021
-609.215	-105.021	0.213	0.049
-608.201	-106.879	-0.150	-0.033
-607.186	-74.540	0.223	-0.080
-606.171	16.364	0.060	0.048
-605.157	-30.577	0.101	-0.057
-604.142	54.771	-0.179	-0.173
-603.128	-52.459	-0.206	-0.096
-602.113	76.437	0.186	-0.197
-601.098	-200.000	0.002	-0.089
-600.084	800.000	0.072	-0.210
-599.069	-172.105	-0.133	-0.004
-598.055	-146.361	-0.206	-0.018
-597.040	800.000	-0.053	0.205
-596.025	-200.000	-0.089	-0.463
-595.011	-200.000	-0.016	-0.144
-593.996	182.426	-0.019	0.029
-592.982	-12.014	-0.148	-0.097
-591.967	-135.402	-0.281	0.034
-590.952	-11.719	-0.383	-0.252
-589.938	-200.000	-0.016	-0.087
-588.923	70.066	-0.113	0.117
-587.909	100.037	0.211	0.244
-586.894	-135.598	-0.242	0.029
-585.879	-161.266	-0.102	-0.005
-584.865	627.537	0.072	0.183
-583.850	-79.745	-0.331	0.112
-582.836	68.134	0.078	-0.080
-581.821	118.991	-0.125	0.154
-580.806	334.234	-0.116	-0.225
-579.792	66.088	-0.155	0.158
-578.777	93.335	0.158	-0.178
-577.763	-29.114	0.095	-0.055
-576.748	28.174	0.156	0.132
-575.733	140.753	0.077	-0.102
-574.719	11.519	-0.056	0.043
-573.704	800.000	-0.016	0.061
-572.690	-95.551	0.340	-0.091
-571.675	800.000	-0.097	-0.375
-570.661	-200.000	0.035	0.259
-569.646	151.802	0.240	-0.327
-568.631	-200.000	0.066	-0.589
-567.617	-200.000	-0.062	-0.322
-566.602	-200.000	-0.027	0.175
-565.588	-200.000	-0.019	0.258
-564.573	-200.000	-0.015	-0.076
-563.558	-200.000	0.013	0.240
-562.544	-200.000	0.012	-0.176
-561.529	-200.000	-0.018	-0.243
-560.515	-172.745	0.147	0.005
-559.500	800.000	0.049	0.158
-558.485	-92.766	0.066	-0.018
-557.471	215.499	0.254	-0.403
-556.456	800.000	-0.066	-0.241
-555.442	-33.223	-0.046	-0.025
-554.427	-200.000	0.002	-0.097
-553.412	19.414	-0.154	-0.123
-552.398	17.437	-0.239	-0.189
-551.383	800.000	0.124	0.416
-550.369	-98.634	-0.284	-0.072
-549.354	-74.037	0.303	0.110
-548.339	800.000	-0.081	-0.273
-547.325	800.000	0.047	0.159
-546.310	-200.000	-0.005	-0.209
-545.296	-79.439	-0.340	-0.115
-544.281	-200.000	0.091	0.396
-543.266	-200.000	-0.057	0.447
-542.252	269.152	-0.042	-0.074
-541.237	-86.474	-0.477	0.146
-540.223	-140.120	0.351	-0.037
-539.208	-159.837	-0.199	-0.011
-538.193	-142.150	-0.416	-0.041
-537.179	-82.153	-0.382	0.124
-536.164	-200.000	0.027	-0.305
-535.150	-200.000	0.028	-0.296
-534.135	-200.000	0.003	-0.199
-533.121	-200.000	-0.009	0.140
-532.106	-196.001	-0.210	0.001
-531.091	-200.000	0.013	0.129
-530.077	-38.315	-0.022	-0.012
-529.062	188.575	-0.056	0.084
-528.048	-200.000	0.015	-0.306
-527.033	-200.000	0.003	-0.181
-526.018	146.669	-0.084	0.112
-525.004	33.099	0.124	-0.107
-523.989	112.598	-0.295	-0.356
-522.975	-147.429	0.082	-0.007
-521.960	-126.447	-0.093	0.014
-520.945	27.245	0.090	-0.075
-519.931	33.834	-0.193	-0.167
-518.916	-83.809	0.101	0.032
-517.902	-111.447	0.042	-0.009
-516.887	-81.339	-0.113	-0.037
-515.872	-200.000	-0.002	0.116
-514.858	-38.039	0.232	-0.123
-513.843	331.592	0.115	0.220
-512.829	-146.412	0.312	0.027
-511.814	-200.000	-0.039	-0.183
-510.799	275.895	0.132	0.234
-509.785	-87.217	-0.443	0.134
-508.770	25.792	-0.086	-0.072
-507.756	-94.555	0.144	0.039
-506.741	-14.940	-0.178	-0.114
-505.726	52.601	-0.085	0.081
-504.712	800.000	-0.067	-0.278
-503.697	173.812	0.101	-0.145
-502.683	524.642	0.066	0.154
-501.668	-200.000	-0.010	0.304
-500.653	376.140	-0.036	0.073
-499.639	-44.507	-0.312	0.156
-498.624	-99.954	-0.369	-0.092
-497.610	-2.597	0.386	0.269
-496.595	800.000	0.093	0.339
-495.581	107.984	-0.104	-0.124
-494.566	42.519	0.193	0.175
-493.551	-100.198	-0.056	-0.014
-492.537	800.000	0.105	0.456
-491.522	265.258	0.117	0.203
-490.508	218.430	-0.140	0.223
-489.493	178.412	-0.038	0.055
-488.478	48.350	-0.217	0.202
-487.464	442.315	0.105	-0.230
-486.449	-95.973	-0.441	-0.117
-485.435	-167.613	0.225	-0.009
-484.420	-124.851	-0.062	-0.010
-483.405	-111.279	0.164	0.033
-482.391	-82.044	0.322	0.105
-481.376	385.477	0.068	0.139
-480.362	76.527	0.142	0.150
-479.347	-40.643	0.201	0.104
-478.332	94.152	0.259	0.293
-477.318	-86.103	-0.298	-0.092
-476.303	-21.498	-0.347	0.210
-475.289	31.682	0.192	-0.164
-474.274	-56.216	-0.162	0.072
-473.259	-112.450	0.070	-0.014
-472.245	-62.626	-0.189	-0.078
-471.230	231.693	-0.045	-0.073
-470.216	81.468	0.180	-0.194
-469.201	6.887	0.204	0.151
-468.186	-79.368	-0.166	0.056
-467.172	-100.508	-0.379	0.093
-466.157	-200.000	-0.010	0.166
-465.143	436.848	0.130	0.283
-464.128	-138.103	-0.293	-0.032
-463.113	-200.000	0.021	0.197
-462.099	174.370	0.146	0.210
-461.084	34.242	-0.090	-0.078
-460.070	10.979	0.021	-0.016
-459.055	-200.000	-0.025	-0.201
-458.040	-200.000	-0.001	-0.144
-457.026	-57.033	0.344	-0.151
-456.011	344.487	-0.092	-0.180
-454.997	-200.000	0.023	-0.115
-453.982	-200.000	-0.013	0.133
-452.968	-17.721	0.195	-0.122
-451.953	-31.085	-0.032	0.018
-450.938	-200.000	-0.023	-0.235
-449.924	-200.000	-0.030	-0.426
-448.909	624.040	-0.098	-0.246
-447.895	-200.000	0.011	-0.228
-446.880	-10.199	0.141	0.093
-445.865	-54.445	-0.208	0.094
-444.851	800.000	0.148	0.433
-443.836	758.144	0.031	0.082
-442.822	-32.512	0.146	0.081
-441.807	-118.243	0.231	-0.041
-440.792	160.434	0.075	0.104
-439.778	-200.000	0.027	0.127
-438.763	-148.981	-0.333	0.027
-437.749	800.000	0.057	-0.214
-436.734	-97.321	0.230	-0.060
-435.719	-110.858	-0.042	-0.009
-434.705	-75.209	0.171	0.061
-433.690	60.893	0.238	-0.234
-432.676	14.592	0.063	0.049
-431.661	139.838	0.053	0.069
-430.646	-159.169	0.344	0.019
-429.632	800.000	-0.088	-0.242
-428.617	-200.000	0.001	0.192
-427.603	70.829	-0.078	0.080
-426.588	-38.021	0.186	-0.098
-425.573	-155.488	0.246	-0.016
-424.559	96.738	-0.152	-0.173
-423.544	95.023	-0.241	0.273
-422.530	-148.454	0.386	-0.031
-421.515	117.964	0.049	-0.060
-420.500	55.984	0.060	0.058
-419.486	-103.569	0.168	-0.039
-418.471	-200.000	-0.046	0.289
-417.457	-3.807	-0.259	0.179
-416.442	-200.000	0.021	-0.173
-415.428	238.727	0.125	-0.206
-414.413	-200.000	0.007	0.069
-413.398	-37.013	0.209	0.111
-412.384	-68.157	0.247	0.095
-411.369	38.549	0.102	-0.090
-410.355	-200.000	0.015	-0.165
-409.340	-200.000	0.031	0.291
-408.325	-119.809	-0.226	0.039
-407.311	-49.996	-0.092	-0.043
-406.296	-121.288	0.208	-0.034
-405.282	800.000	0.096	-0.301
-404.267	800.000	-0.110	0.400
-403.252	119.166	0.116	0.143
-402.238	-45.477	-0.161	-0.079
-401.223	-200.000	-0.033	0.280
-400.209	203.123	-0.079	0.121
-399.194	-200.000	-0.003	-0.272
-398.179	800.000	0.059	-0.218
-397.165	-200.000	-0.008	-0.196
-396.150	800.000	-0.059	0.173
-395.136	-83.664	-0.406	0.129
-394.121	165.519	0.064	-0.090
-393.106	-200.000	-0.013	-0.446
-392.092	-87.353	-0.091	0.027
-391.077	-123.823	-0.163	-0.026
-390.063	104.964	-0.201	-0.236
-389.048	800.000	-0.045	0.171
-388.033	800.000	-0.080	0.245
-387.019	1.545	-0.160	-0.114
-386.004	-55.845	-0.333	-0.148
-384.990	458.542	-0.002	-0.004
-383.975	38.101	-0.288	0.254
-382.960	800.000	-0.056	0.177
-381.946	-200.000	-0.009	0.192
-380.931	92.404	-0.065	0.073
-379.917	-200.000	0.024	-0.157
-378.902	800.000	-0.045	0.194
-377.888	442.514	-0.136	-0.295
-376.873	193.162	0.208	-0.312
-375.858	-200.000	0.007	-0.302
-374.844	-103.099	0.179	0.042
-373.829	-200.000	0.006	0.177
-372.815	171.576	0.176	0.250
-371.800	-152.854	0.190	-0.013
-370.785	173.579	0.062	-0.088
-369.771	661.067	-0.065	0.167
-368.756	-27.274	0.183	-0.106
-367.742	-31.651	0.211	0.118
-366.727	-20.668	0.279	-0.170
-365.712	29.700	-0.198	-0.167
-364.698	-89.337	-0.457	-0.133
-363.683	-106.788	-0.224	0.049
-362.669	-200.000	-0.020	-0.265
-361.654	-200.000	-0.034	-0.456
-360.639	452.891	0.051	-0.113
-359.625	632.350	-0.062	0.155
-358.610	30.919	0.202	-0.172
-357.596	-77.751	0.230	0.079
-356.581	-80.759	-0.171	0.056
-355.566	251.816	0.122	0.205
-354.552	-200.000	-0.010	0.129
-353.537	585.262	0.163	0.397
-352.523	44.014	-0.064	-0.058
-351.508	782.405	-0.018	0.048
-350.493	-95.470	-0.131	-0.035
-349.479	0.402	-0.112	0.079
-348.464	-200.000	0.002	-0.321
-347.450	800.000	0.094	0.398
-346.435	-200.000	0.019	-0.112
-345.420	-137.774	-0.200	-0.022
-344.406	40.235	0.093	0.083
-343.391	800.000	-0.040	0.164
-342.377	-200.000	0.061	0.330
-341.362	41.265	-0.267	0.239
-340.348	93.568	0.172	-0.193
-339.333	233.736	-0.019	0.031
-338.318	800.000	-0.076	0.252
-337.304	780.375	-0.008	0.021
-336.289	-200.000	-0.011	0.176
-335.275	-200.000	-0.021	-0.292
-334.260	-67.199	-0.171	0.067
-333.245	-200.000	-0.028	0.216
-332.231	-45.968	0.217	0.106
-331.216	-200.000	-0.024	0.142
-330.202	57.756	0.152	0.147
-329.187	-87.997	-0.076	0.023
-328.172	24.444	-0.118	0.097
-327.158	-200.000	-0.017	-0.238
-326.143	415.221	-0.049	0.103
-325.129	325.100	0.168	0.318
-324.114	10.153	-0.117	-0.088
-323.099	-46.171	0.265	0.129
-322.085	124.312	-0.267	-0.333
-321.070	-200.000	0.067	0.362
-320.056	-141.458	0.368	-0.037
-319.041	-113.528	-0.375	-0.073
-318.026	448.313	0.138	0.300
-317.012	-200.000	0.018	0.141
-315.997	-43.790	0.329	-0.164
-314.983	-145.123	0.434	-0.039
-313.968	-137.805	0.168	-0.019
-312.953	52.277	0.052	0.049
-311.939	66.701	-0.051	0.051
-310.924	-13.056	0.208	0.134
-309.910	-71.001	-0.131	0.049
-308.895	305.847	0.111	0.204
-307.880	-200.000	0.003	-0.072
-306.866	800.000	0.059	-0.221
-305.851	-200.000	0.013	0.136
-304.837	493.040	0.097	-0.221
-303.822	-200.000	-0.010	-0.306
-302.807	54.964	0.286	0.273
-301.793	-200.000	0.006	-0.033
-300.778	96.170	-0.078	0.088
-299.764	-69.751	-0.165	0.062
-298.749	800.000	-0.033	0.105
-297.735	-77.079	0.100	0.035
-296.720	-200.000	-0.048	0.222
-295.705	-200.000	-0.066	-0.290
-294.691	-154.215	-0.138	-0.009
-293.676	127.414	0.182	-0.229
-292.662	-79.083	-0.070	-0.024
-291.647	-25.844	-0.136	0.079
-290.632	-86.391	0.340	0.103
-289.618	-85.315	-0.232	-0.072
-288.603	662.618	-0.137	-0.350
-287.589	58.146	0.120	0.116
-286.574	25.314	0.144	0.118
-285.559	39.698	-0.198	0.176
-284.545	-200.000	-0.048	-0.413
-283.530	550.461	0.071	0.168
-282.516	117.744	-0.010	-0.012
-281.501	184.201	-0.161	-0.236
-280.486	-108.908	-0.400	-0.084
-279.472	-57.952	0.111	-0.048
-278.457	-200.000	-0.011	0.439
-277.443	405.338	0.074	-0.155
-276.428	-200.000	-0.058	-0.280
-275.413	430.693	0.058	0.125
-274.399	60.186	-0.060	0.059
-273.384	68.633	0.096	-0.098
-272.370	108.614	0.135	0.159
-271.355	274.362	0.151	-0.264
-270.340	-200.000	-0.013	0.159
-269.326	-48.887	0.204	0.097
-268.311	46.146	-0.321	-0.293
-267.297	800.000	0.031	0.110
-266.282	97.442	0.156	-0.177
-265.267	-200.000	0.004	0.073
-264.253	-121.922	0.332	-0.054
-263.238	-157.047	0.232	0.014
-262.224	72.164	-0.177	0.182
-261.209	-80.940	-0.359	0.118
-260.195	800.000	0.065	-0.195
-259.180	-200.000	-0.002	0.008
-258.165	800.000	0.077	0.268
-257.151	204.686	-0.034	0.052
-256.136	-31.108	0.121	0.067
-255.122	-79.922	0.274	-0.091
-254.107	800.000	0.018	0.077
-253.092	471.553	-0.073	0.162
-252.078	689.100	-0.031	-0.079
-251.063	800.000	-0.113	-0.420
-250.049	-33.366	0.329	0.180
-249.034	-200.000	-0.035	-0.214
-248.019	15.943	-0.198	-0.154
-247.005	-0.484	0.155	0.108
-245.990	13.912	0.219	0.168
-244.976	-147.345	0.258	0.022
-243.961	-97.842	0.204	-0.052
-242.946	-83.868	0.463	0.145
-241.932	800.000	-0.142	0.441
-240.917	444.741	-0.132	-0.286
-239.903	40.857	-0.153	0.136
-238.888	800.000	-0.070	0.245
-237.873	478.521	0.058	-0.129
-236.859	-155.791	0.105	0.007
-235.844	-50.576	-0.081	-0.038
-234.830	-35.972	-0.229	-0.122
-233.815	-16.979	-0.096	-0.060
-232.800	800.000	0.121	-0.342
-231.786	800.000	0.034	-0.145
-230.771	16.773	0.120	0.093
-229.757	31.018	0.184	-0.155
-228.742	-63.677	0.254	0.103
-227.727	-69.894	-0.505	0.190
-226.713	490.516	-0.033	0.075
-225.698	-111.704	0.285	-0.057
-224.684	224.647	-0.037	0.059
-223.669	-23.261	0.149	0.088
-222.655	293.862	0.067	-0.121
-221.640	407.292	0.153	0.318
-220.625	-200.000	0.045	0.280
-219.611	36.644	-0.219	0.191
-218.596	-21.802	-0.074	-0.044
-217.582	800.000	-0.025	0.084
-216.567	-200.000	0.026	0.254
-215.552	519.345	-0.071	-0.163
-214.538	-200.000	0.065	0.414
-213.523	113.556	-0.080	0.095
-212.509	150.702	0.028	-0.037
-211.494	-200.000	0.010	0.170
-210.479	106.246	0.077	0.089
-209.465	-7.296	-0.184	0.123
-208.450	-200.000	0.030	0.207
-207.436	-200.000	0.095	-0.443
-206.421	800.000	-0.016	-0.056
-205.406	-200.000	-0.021	-0.273
-204.392	-200.000	0.020	0.164
-203.377	-166.590	-0.293	0.012
-202.363	221.805	-0.118	-0.187
-201.348	800.000	-0.068	-0.226
-200.333	273.769	0.171	-0.298
-199.319	-53.608	0.154	0.070
-198.304	800.000	-0.049	-0.210
-197.290	-127.527	-0.173	-0.025
-196.275	-187.834	0.305	0.004
-195.260	800.000	-0.038	0.130
-194.246	454.819	-0.040	-0.087
-193.231	800.000	0.091	0.382
-192.217	-58.286	-0.132	-0.056
-191.202	800.000	-0.039	0.111
-190.187	547.727	-0.044	0.104
-189.173	162.262	-0.147	-0.203
-188.158	-34.455	-0.193	-0.104
-187.144	-150.644	0.249	-0.019
-186.129	59.095	-0.288	0.279
-185.114	800.000	-0.047	-0.191
-184.100	54.635	0.121	0.115
-183.085	-99.290	0.112	0.028
-182.071	-200.000	-0.047	-0.235
-181.056	-30.451	0.123	0.069
-180.042	-200.000	-0.050	0.297
-179.027	-57.091	0.143	-0.062
-178.012	-166.716	0.363	-0.015
-176.998	260.647	0.099	0.169
-175.983	443.113	-0.153	0.331
-174.969	-110.192	0.127	0.026
-173.954	-90.767	0.043	0.012
-172.939	17.249	-0.155	-0.121
-171.925	142.057	-0.048	-0.063
-170.910	238.652	0.016	-0.025
-169.896	405.699	-0.067	0.139
-168.881	-112.881	0.167	-0.033
-167.866	97.114	-0.142	0.161
-166.852	169.917	0.077	-0.109
-165.837	-106.702	-0.014	-0.003
-164.823	-186.271	0.323	-0.005
-163.808	-168.274	-0.334	-0.013
-162.793	130.194	-0.107	-0.134
-161.779	29.649	-0.167	-0.140
-160.764	-200.000	-0.036	-0.159
-159.750	-76.260	0.098	0.034
-158.735	-200.000	-0.046	0.285
-157.720	-182.949	0.089	-0.002
-156.706	-114.519	-0.149	0.028
-155.691	131.517	0.103	-0.130
-154.677	398.618	0.028	-0.057
-153.662	99.139	-0.177	-0.201
-152.647	800.000	-0.169	-0.477
-151.633	-200.000	0.011	0.075
-150.618	406.801	0.060	-0.124
-149.604	-37.169	0.143	-0.075
-148.589	-57.665	-0.293	0.126
-147.574	-200.000	-0.011	-0.276
-146.560	434.090	-0.088	0.188
-145.545	-61.347	-0.090	-0.037
-144.531	-29.082	0.088	-0.049
-143.516	-200.000	-0.016	0.189
-142.502	62.869	-0.058	0.057
-141.487	-126.283	0.162	-0.024
-140.472	-200.000	-0.016	-0.189
-139.458	675.833	-0.100	0.256
-138.443	-200.000	0.024	0.401
-137.429	462.356	-0.044	0.096
-136.414	73.153	-0.085	0.087
-135.399	-123.251	0.344	0.054
-134.385	-37.521	0.448	-0.235
-133.370	-65.550	-0.505	-0.199
-132.356	145.967	0.251	0.331
-131.341	53.179	0.277	-0.260
-130.326	396.060	-0.086	-0.176
-129.312	-132.025	0.292	0.037
-128.297	-195.593	-0.062	-0.000
-127.283	20.263	0.210	0.167
-126.268	192.653	-0.164	0.243
-125.253	-150.958	0.295	0.022
-124.239	800.000	-0.056	0.241
-123.224	-45.639	-0.068	-0.033
-122.210	-61.985	0.105	0.043
-121.195	15.897	0.139	0.107
-120.180	-138.760	-0.350	-0.038
-119.166	431.761	0.054	-0.115
-118.151	37.632	0.086	0.075
-117.137	475.034	-0.106	-0.234
-116.122	-129.666	-0.292	0.040
-115.107	-112.511	0.014	-0.003
-114.093	800.000	-0.071	-0.299
-113.078	-165.275	0.362	-0.016
-112.064	800.000	0.049	0.211
-111.049	800.000	0.118	0.342
-110.034	-22.846	0.182	0.108
-109.020	-200.000	-0.008	-0.117
-108.005	-1.080	0.326	0.226
-106.991	-134.656	0.434	-0.052
-105.976	-71.586	-0.338	0.124
-104.962	-200.000	-0.002	0.022
-103.947	496.886	-0.134	-0.302
-102.932	196.514	0.134	-0.201
-101.918	-34.121	0.225	0.121
-100.903	800.000	-0.064	-0.232
-99.889	-155.931	-0.304	0.019
-98.874	100.176	0.107	0.122
-97.859	260.494	-0.125	-0.212
-96.845	617.954	-0.020	0.049
-95.830	800.000	0.035	-0.130
-94.816	-111.974	-0.257	0.051
-93.801	16.528	-0.180	-0.140
-92.786	-200.000	-0.009	0.056
-91.772	66.583	-0.084	0.084
-90.757	302.140	0.117	-0.213
-89.743	-82.587	-0.213	0.068
-88.728	-94.985	0.245	-0.065
-87.713	121.923	-0.253	-0.309
-86.699	-25.674	0.290	-0.168
-85.684	-200.000	0.011	0.212
-84.670	-21.319	-0.208	-0.124
-83.655	218.810	-0.078	0.123
-82.640	-200.000	0.010	-0.169
-81.626	-19.092	-0.315	0.192
-80.611	-107.493	0.320	0.069
-79.597	800.000	-0.072	0.277
-78.582	-200.000	-0.098	0.470
-77.567	98.642	0.241	-0.272
-76.553	-200.000	-0.010	0.121
-75.538	-200.000	-0.044	0.298
-74.524	-62.211	0.263	-0.107
-73.509	77.237	-0.041	0.043
-72.494	202.032	-0.009	0.014
-71.480	-101.533	-0.068	-0.016
-70.465	-52.300	0.177	0.081
-69.451	81.786	-0.104	0.110
-68.436	370.717	0.183	0.363
-67.422	800.000	0.069	0.256
-66.407	135.112	0.113	-0.143
-65.392	59.231	0.028	0.027
-64.378	120.806	0.146	0.178
-63.363	-29.876	0.148	-0.083
-62.349	-88.976	0.045	-0.013
-61.334	113.791	-1.058	-1.259
-60.319	634.280	0.192	0.478
-59.305	800.000	-0.230	-0.789
-58.290	219.351	0.669	1.048
-57.276	732.459	0.556	1.456
-56.261	-200.000	110.028	625.802
-55.246	468.148	1489.309	3272.643
-54.232	148.902	2658.971	3521.365
-53.217	106.434	2160.050	2507.934
-52.203	39.451	1696.239	1488.222
-51.188	32.347	1514.608	1280.658
-50.173	30.053	1489.439	1243.943
-49.159	53.139	1544.358	1448.101
-48.144	53.285	1561.428	1465.044
-47.130	32.657	1518.566	1285.920
-46.115	29.575	1503.449	1252.207
-45.100	29.357	1500.041	1247.846
-44.086	29.345	1497.839	1245.884
-43.071	29.248	1495.862	1243.535
-42.057	29.221	1494.209	1241.927
-41.042	29.238	1493.328	1241.258
-40.027	29.237	1491.990	1240.089
-39.013	29.314	1489.765	1238.714
-37.998	29.226	1489.034	1237.463
-36.984	29.225	1487.898	1236.466
-35.969	29.267	1486.431	1235.479
-34.954	29.225	1485.568	1234.429
-33.940	29.279	1484.134	1233.550
-32.925	29.313	1482.669	1232.513
-31.911	29.307	1481.072	1231.096
-30.896	29.244	1480.174	1229.881
-29.881	29.343	1478.336	1228.963
-28.867	29.372	1477.376	1228.310
-27.852	29.329	1475.775	1226.640
-26.838	29.346	1475.016	1226.075
-25.823	29.279	1473.443	1224.277
-24.809	29.314	1471.747	1223.047
-23.794	29.397	1469.774	1221.913
-22.779	29.333	1468.967	1220.769
-21.765	29.308	1468.368	1220.059
-20.750	29.303	1466.888	1218.749
-19.736	29.299	1465.932	1217.877
-18.721	29.295	1464.838	1216.894
-17.706	29.305	1463.687	1215.957
-16.692	29.296	1462.599	1214.941
-15.677	29.143	1461.803	1213.222
-14.663	29.306	1460.432	1213.111
-13.648	29.270	1459.723	1212.240
-12.633	29.343	1458.666	1211.791
-11.619	29.197	1458.275	1210.460
-10.604	29.243	1457.218	1209.837
-9.590	29.330	1456.361	1209.647
-8.575	29.268	1456.258	1209.106
-7.560	29.265	1454.869	1207.885
-6.546	29.306	1453.979	1207.370
-5.531	29.204	1452.603	1205.508
-4.517	29.272	1451.629	1205.096
-3.502	29.379	1450.192	1204.555
-2.487	29.284	1449.817	1203.576
-1.473	29.253	1448.451	1202.195
-0.458	29.233	1446.833	1200.674
0.556	27.341	1436.937	1189.173
1.571	23.933	1412.263	1146.715
2.586	20.208	1350.677	1073.602
3.600	18.439	1268.035	997.534
4.615	17.326	1222.656	955.501
5.629	16.219	1170.118	908.403
6.644	12.534	1094.112	830.740
7.659	9.306	1058.370	787.741
8.673	8.778	1053.685	781.608
9.688	8.738	1049.774	778.442
10.702	8.577	1048.920	776.960
11.717	8.727	1046.455	775.793
12.731	10.066	1046.898	782.536
13.746	13.885	1052.228	804.998
14.761	17.108	1055.485	823.068
15.775	17.594	1055.430	825.309
16.790	16.765	1053.598	819.794
17.804	15.680	1051.442	812.801
18.819	14.797	1049.403	806.889
19.834	14.307	1047.979	803.358
20.848	14.043	1047.017	801.280
21.863	13.746	1046.422	799.321
22.877	13.595	1045.476	797.802
23.892	13.357	1044.353	795.728
24.907	13.214	1044.034	794.730
25.921	13.203	1043.435	794.148
26.936	13.319	1042.309	793.777
27.950	13.260	1041.454	792.774
28.965	13.420	1040.426	792.686
29.980	13.430	1038.927	791.523
30.994	13.574	1037.751	791.244
32.009	13.646	1037.038	790.974
33.023	13.609	1036.601	790.396
34.038	13.688	1034.925	789.422
35.053	13.648	1034.535	788.866
36.067	13.559	1033.728	787.758
37.082	13.473	1032.636	786.446
38.096	13.512	1032.142	786.188
39.111	13.522	1031.310	785.529
40.126	13.524	1030.549	784.893
41.140	13.621	1029.254	784.294
42.155	13.426	1028.456	782.696
43.169	13.243	1027.645	781.144
44.184	13.277	1026.268	780.188
45.199	13.298	1025.446	779.592
46.213	13.264	1024.449	778.609
47.228	13.284	1023.171	777.659
48.242	13.412	1021.902	777.227
49.257	13.408	1021.495	776.829
50.271	13.429	1020.197	775.873
51.286	13.508	1019.556	775.686
52.301	13.428	1018.515	774.452
53.315	13.422	1018.102	774.042
54.330	13.338	1017.365	773.020
55.344	13.368	1015.975	772.036
56.359	13.354	1015.013	771.170
57.374	13.360	1014.096	770.436
58.388	13.318	1013.226	769.511
59.403	13.288	1012.688	768.894
60.417	13.309	1012.066	768.453
61.432	13.304	1011.179	767.687
62.447	13.191	1010.440	766.533
63.461	13.173	1009.517	765.683
64.476	13.235	1008.510	765.138
65.490	13.175	1007.776	764.237
66.505	13.060	1007.208	763.205
67.520	13.236	1006.311	763.270
68.534	13.181	1005.682	762.474
69.549	13.230	1004.963	762.083
70.563	13.290	1004.082	761.628
71.578	13.321	1003.026	760.901
72.593	13.237	1002.270	759.876
73.607	13.137	1001.267	758.585
74.622	13.100	1000.437	757.721
75.636	13.096	999.900	757.229
76.651	13.196	998.662	756.685
77.666	13.074	998.385	755.849
78.680	13.086	997.671	755.296
79.695	13.202	996.434	754.823
80.709	13.114	996.669	754.532
81.724	13.165	995.566	753.860
82.739	13.253	994.496	753.388
83.753	13.395	993.479	753.196
84.768	13.416	992.716	752.644
85.782	13.519	992.535	752.908
86.797	13.617	991.441	752.460
87.812	13.537	990.737	751.497
88.826	13.495	989.937	750.632
89.841	13.348	989.363	749.463
90.855	13.494	988.238	749.203
91.870	13.508	987.642	748.751
92.884	13.682	986.663	748.729
93.899	13.599	986.044	747.816
94.914	13.530	985.259	746.845
95.928	13.604	984.388	746.452
96.943	13.701	983.625	746.245
97.957	13.556	983.082	745.113
98.972	13.496	982.681	744.476
99.987	13.525	981.540	743.675
101.001	13.564	980.811	743.231
102.016	13.587	979.629	742.372
103.030	13.536	979.076	741.658
104.045	13.587	978.091	741.075
105.060	13.585	977.190	740.318
106.074	13.416	976.324	738.844
107.089	13.469	975.416	738.329
108.103	13.483	974.082	737.316
109.118	13.296	973.563	736.024
110.133	13.279	973.275	735.663
111.147	13.391	971.745	734.941
112.162	13.339	970.700	733.856
113.176	13.307	970.292	733.341
114.191	13.429	969.210	732.997
115.206	13.402	968.754	732.469
116.220	13.396	967.453	731.394
117.235	13.377	966.906	730.831
118.249	13.393	965.737	729.952
119.264	13.309	965.336	729.215
120.279	13.359	964.569	728.794
121.293	13.246	963.828	727.670
122.308	13.353	962.760	727.268
123.322	13.290	962.351	726.618
124.337	13.255	961.232	725.555
125.352	13.241	959.666	724.250
126.366	13.274	959.026	723.846
127.381	13.287	957.532	722.710
128.395	13.270	957.033	722.199
129.410	13.326	955.951	721.562
130.424	13.314	955.314	720.964
131.439	13.289	954.358	720.069
132.454	13.264	953.765	719.449
133.468	13.366	952.884	719.166
134.483	13.438	952.122	718.840
135.497	13.383	951.483	718.056
136.512	13.387	950.689	717.408
137.527	13.418	949.776	716.791
138.541	13.416	949.194	716.282
139.556	13.363	948.423	715.404
140.570	13.475	947.820	715.370
141.585	13.287	947.264	714.076
142.600	13.521	946.513	714.455
143.614	13.558	945.838	714.044
144.629	13.667	944.415	713.375
145.643	13.694	943.624	712.828
146.658	13.571	943.422	712.088
147.673	13.505	942.624	711.138
148.687	13.498	941.226	709.991
149.702	13.555	940.784	709.837
150.716	13.328	940.084	708.276
151.731	13.415	938.612	707.474
152.746	13.452	938.222	707.275
153.760	13.581	937.235	707.020
154.775	13.472	937.084	706.380
155.789	13.562	935.910	705.816
156.804	13.688	935.208	705.758
157.819	13.588	934.559	704.781
158.833	13.580	933.979	704.249
159.848	13.621	933.412	703.933
160.862	13.680	932.780	703.643
161.877	13.598	932.044	702.680
162.892	13.775	930.990	702.571
163.906	13.651	930.331	701.486
164.921	13.411	929.875	700.065
165.935	13.540	928.224	699.308
166.950	13.593	927.324	698.790
167.964	13.749	926.532	698.789
168.979	13.727	925.920	698.174
169.994	13.719	924.426	696.952
171.008	13.674	923.747	696.188
172.023	13.774	922.994	695.978
173.037	13.691	922.710	695.357
174.052	13.769	921.542	694.741
175.067	13.845	921.157	694.705
176.081	13.664	920.703	693.545
177.096	13.671	919.732	692.783
178.110	13.728	918.334	691.905
179.125	13.646	917.676	691.008
180.140	13.672	917.083	690.606
181.154	13.668	916.773	690.294
182.169	13.837	915.435	689.929
183.183	13.921	914.851	689.776
184.198	13.960	914.426	689.556
185.213	13.920	913.586	688.699
186.227	13.808	913.229	687.904
187.242	13.968	912.619	688.045
188.256	13.864	912.626	687.557
189.271	14.086	911.320	687.430
190.286	14.005	910.794	686.639
191.300	13.752	910.026	684.954
192.315	13.693	908.969	683.857
193.329	13.638	908.333	683.092
194.344	13.557	908.099	682.522
195.359	13.704	907.569	682.666
196.373	13.857	907.046	682.843
197.388	13.906	906.282	682.408
198.402	13.931	905.903	682.165
199.417	14.089	905.536	682.476
200.432	14.157	905.140	682.396
201.446	14.187	904.513	681.986
202.461	14.200	903.927	681.540
203.475	14.236	903.697	681.450
204.490	14.172	902.885	680.517
205.504	14.129	902.064	679.662
206.519	14.213	901.116	679.230
207.534	14.110	900.604	678.366
208.548	14.081	899.836	677.609
209.563	14.173	898.724	677.084
210.577	14.006	898.755	676.371
211.592	14.080	897.816	675.906
212.607	14.212	897.512	676.151
213.621	14.273	896.955	675.919
214.636	14.380	895.807	675.429
215.650	14.297	895.140	674.527
216.665	14.319	894.429	674.022
217.680	14.334	894.069	673.752
218.694	14.417	893.641	673.707
219.709	14.512	893.164	673.672
220.723	14.258	892.823	672.327
221.738	14.308	891.947	671.812
222.753	14.304	891.245	671.206
223.767	14.354	890.399	670.710
224.782	14.470	889.711	670.602
225.796	14.511	888.762	669.990
226.811	14.520	888.186	669.532
227.826	14.649	887.381	669.383
228.840	14.447	886.895	668.150
229.855	14.426	886.389	667.623
230.869	14.396	885.672	666.905
231.884	14.551	884.743	666.768
232.899	14.472	884.372	666.114
233.913	14.517	883.519	665.591
234.928	14.424	883.028	664.790
235.942	14.505	881.991	664.274
236.957	14.447	881.581	663.676
237.972	14.432	880.760	662.940
238.986	14.423	880.558	662.693
240.001	14.393	879.668	661.844
241.015	14.535	879.069	661.897
242.030	14.552	878.009	661.108
243.045	14.486	877.882	660.695
244.059	14.549	877.615	660.685
245.074	14.471	876.435	659.428
246.088	14.567	875.807	659.278
247.103	14.566	875.362	658.880
248.117	14.715	874.562	658.807
249.132	14.695	874.477	658.606
250.147	14.875	873.420	658.460
251.161	14.922	873.018	658.286
252.176	14.937	872.598	657.967
253.190	15.129	871.749	658.024
254.205	14.988	871.318	657.090
255.220	14.918	870.910	656.446
256.234	15.092	869.763	656.205
257.249	15.036	869.178	655.489
258.263	15.080	868.768	655.293
259.278	15.090	868.470	655.050
260.293	15.125	867.785	654.613
261.307	15.104	866.794	653.725
262.322	15.102	866.644	653.545
263.336	15.062	866.280	653.056
264.351	15.207	865.367	652.875
265.366	15.287	864.625	652.569
266.380	15.246	864.242	652.065
267.395	15.302	863.447	651.624
268.409	15.222	862.855	650.807
269.424	15.228	861.898	650.051
270.439	15.223	861.343	649.555
271.453	15.309	860.909	649.506
272.468	15.229	859.890	648.368
273.482	15.181	859.194	647.603
274.497	15.052	859.061	646.944
275.512	15.146	858.155	646.569
276.526	15.172	857.122	645.835
277.541	15.122	856.624	645.210
278.555	15.187	856.473	645.290
279.570	15.305	855.704	645.104
280.585	15.400	855.029	644.906
281.599	15.350	854.741	644.439
282.614	15.392	853.969	643.962
283.628	15.353	853.296	643.248
284.643	15.480	852.826	643.324
285.657	15.354	852.078	642.219
286.672	15.372	851.702	641.949
287.687	15.426	851.140	641.672
288.701	15.540	850.456	641.534
289.716	15.452	850.156	640.918
290.730	15.367	849.306	639.895
291.745	15.508	848.478	639.754
292.760	15.526	847.751	639.215
293.774	15.529	847.272	638.808
294.789	15.672	846.667	638.841
295.803	15.476	846.353	637.802
296.818	15.518	846.121	637.732
297.833	15.479	845.311	636.914
298.847	15.520	844.554	636.443
299.862	15.579	843.767	636.019
300.876	15.627	842.737	635.366
301.891	15.753	842.079	635.291
302.906	15.655	841.955	634.773
303.920	15.647	841.407	634.271
304.935	15.782	840.430	633.986
305.949	15.930	839.995	634.163
306.964	15.973	839.243	633.700
307.979	15.752	839.201	632.781
308.993	15.761	838.583	632.291
310.008	15.840	837.910	632.024
311.022	15.818	837.367	631.479
312.037	15.899	836.806	631.301
313.052	15.838	836.238	630.589
314.066	15.891	835.726	630.344
315.081	15.676	834.962	628.911
316.095	15.746	834.595	628.838
317.110	15.761	834.106	628.469
318.125	15.730	833.168	627.594
319.139	15.779	833.180	627.727
320.154	15.821	832.616	627.406
321.168	15.818	831.914	626.809
322.183	15.854	831.592	626.646
323.197	15.790	831.055	625.949
324.212	15.852	830.168	625.455
325.227	15.971	829.756	625.530
326.241	15.882	829.161	624.698
327.256	15.889	828.705	624.321
328.270	15.952	828.059	624.015
329.285	15.923	827.568	623.481
330.300	15.791	827.220	622.677
331.314	15.882	826.404	622.344
332.329	15.897	826.032	622.064
333.343	15.976	825.220	621.687
334.358	16.004	824.884	621.485
335.373	16.000	824.459	621.094
336.387	15.973	823.909	620.525
337.402	16.060	823.305	620.334
338.416	15.990	822.930	619.741
339.431	16.081	822.070	619.374
340.446	16.163	821.690	619.333
341.460	16.291	821.143	619.337
342.475	16.379	820.282	618.955
343.489	16.214	819.853	617.969
344.504	16.241	819.483	617.734
345.519	16.356	818.727	617.532
346.533	16.485	818.348	617.662
347.548	16.424	818.092	617.193
348.562	16.377	817.455	616.487
349.577	16.299	816.679	615.559
350.592	16.255	816.185	614.973
351.606	16.246	815.765	614.569
352.621	16.290	815.193	614.244
353.635	16.276	814.790	613.835
354.650	16.184	814.898	613.529
355.665	16.364	814.094	613.523
356.679	16.429	813.713	613.418
357.694	16.505	813.109	613.185
358.708	16.477	812.707	612.723
359.723	16.508	811.941	612.205
360.738	16.424	811.590	611.581
361.752	16.450	810.940	611.131
362.767	16.523	810.239	610.813
363.781	16.595	810.167	610.963
364.796	16.724	809.526	610.894
365.810	16.704	809.240	610.550
366.825	16.563	809.352	610.073
367.840	16.696	808.553	609.895
368.854	16.631	808.291	609.409
369.869	16.793	807.887	609.636
370.883	16.777	806.713	608.637
371.898	16.813	806.358	608.445
372.913	16.884	805.810	608.231
373.927	16.739	805.752	607.615
374.942	16.891	804.401	607.087
375.956	16.645	804.182	605.988
376.971	16.830	803.562	606.126
377.986	16.753	803.143	605.483
379.000	16.780	802.805	605.273
380.015	17.178	801.648	605.764
381.029	16.998	801.361	604.854
382.044	16.949	801.163	604.475
383.059	16.757	800.792	603.457
384.073	16.921	799.969	603.368
385.088	17.030	799.236	603.151
386.102	16.910	798.932	602.439
387.117	16.987	797.979	601.941
388.132	16.966	797.523	601.469
389.146	17.086	797.452	601.788
390.161	17.063	796.674	601.067
391.175	16.970	796.728	600.724
392.190	16.974	796.688	600.653
393.205	17.036	796.016	600.315
394.219	16.842	795.502	599.186
395.234	16.946	795.245	599.307
396.248	16.904	794.282	598.383
397.263	16.865	793.747	597.790
398.278	16.913	793.402	597.645
399.292	16.876	793.357	597.428
400.307	17.011	792.502	597.207
401.321	16.899	792.501	596.760
402.336	16.881	792.146	596.376
403.350	17.058	791.355	596.348
404.365	16.959	790.783	595.518
405.380	17.087	790.581	595.763
406.394	17.155	789.856	595.402
407.409	17.252	789.408	595.350
408.423	17.306	789.189	595.322
409.438	17.198	789.024	594.768
410.453	17.207	788.839	594.608
411.467	17.409	788.166	594.753
412.482	17.324	787.585	593.965
413.496	17.363	786.888	593.521
414.511	17.563	786.433	593.823
415.526	17.495	786.158	593.327
416.540	17.399	786.154	592.938
417.555	17.290	785.482	591.998
418.569	17.308	785.192	591.788
419.584	17.466	784.317	591.625
420.599	17.494	783.922	591.374
421.613	110.351	1292.027	1473.520
422.628	94.565	1366.028	1473.606
