DTS Sentinel unit serial number:	SN413079Multiplexer serial number:	ORYXHardware model number:	OX4-SRSoftware version number:	ORYX F/W v4.00 Oryx Data Collector v3.7.2.0data status	okinstallation	princeton_trtdifferential loss correction	single-endedforward channel	channel 3reverse channel	N/Adate	2019/09/15time	23:04:35forward acquisition time	60.00reverse acquisition time	0.00gamma	496.2192k internal	0.2334k external	0.2334temperature offset calibration	0.9945default loss term (dB/km)	0.3790temperature slope calibration	1.0000multiplexer offset coefficient	1.0000multiplexer slope coefficient	1.0000fibre end	0.00T internal ref (°C)	28.53T ext. ref 1 (°C)	9.00T ext. ref 2 (°C)	22.18length (m)	temperature (°C)	Stokes	anti-Stokes-747.200	-123.641	-0.561	0.089
-746.185	800.000	-0.116	0.344
-745.171	-63.028	0.095	-0.039
-744.156	663.406	0.040	0.103
-743.142	800.000	0.051	0.147
-742.127	434.429	-0.155	0.339
-741.112	-100.063	0.290	0.073
-740.098	-200.000	0.025	0.343
-739.083	272.171	0.029	0.051
-738.069	48.302	-0.305	-0.287
-737.054	-21.167	-0.365	-0.224
-736.039	12.637	-0.205	0.159
-735.025	63.604	0.454	0.458
-734.010	-200.000	0.003	-0.288
-732.996	-90.952	-0.274	0.079
-731.981	-200.000	-0.021	0.322
-730.966	616.212	-0.038	0.095
-729.952	355.878	-0.073	-0.146
-728.937	-50.975	-0.030	0.014
-727.923	-200.000	-0.037	-0.218
-726.908	-94.110	0.137	-0.038
-725.894	800.000	-0.084	-0.241
-724.879	317.065	-0.061	0.116
-723.864	800.000	0.029	-0.096
-722.850	-51.241	-0.112	-0.053
-721.835	800.000	0.016	0.052
-720.821	-64.546	0.233	-0.095
-719.806	-15.402	0.169	-0.108
-718.791	13.292	0.132	-0.103
-717.777	3.934	-0.211	0.155
-716.762	102.081	-0.108	-0.127
-715.748	-128.956	-0.162	-0.023
-714.733	161.452	-0.052	0.073
-713.718	22.864	0.072	-0.059
-712.704	-107.279	0.248	-0.055
-711.689	-3.293	0.061	0.043
-710.675	-41.468	-0.090	-0.047
-709.660	-128.328	-0.218	0.031
-708.645	-1.666	-0.290	-0.205
-707.631	-200.000	-0.010	-0.220
-706.616	800.000	-0.052	0.194
-705.602	-152.947	-0.438	-0.031
-704.587	-169.634	-0.182	-0.007
-703.572	-124.036	-0.198	-0.031
-702.558	800.000	0.130	0.443
-701.543	-82.455	0.079	0.026
-700.529	800.000	0.108	0.343
-699.514	59.705	-0.125	-0.124
-698.499	-38.006	-0.226	-0.121
-697.485	24.092	-0.344	-0.284
-696.470	-29.137	-0.369	0.212
-695.456	-200.000	-0.011	-0.096
-694.441	-97.113	-0.194	-0.051
-693.426	-6.925	-0.180	-0.123
-692.412	548.800	0.062	0.150
-691.397	17.042	0.324	0.257
-690.383	-200.000	-0.044	-0.424
-689.368	122.618	-0.162	-0.203
-688.354	758.972	0.064	0.174
-687.339	41.222	-0.147	-0.133
-686.324	370.156	-0.044	-0.089
-685.310	103.789	0.125	0.148
-684.295	19.109	0.145	0.117
-683.281	-65.209	-0.174	0.070
-682.266	800.000	0.050	-0.156
-681.251	-71.851	0.278	-0.104
-680.237	82.402	-0.356	-0.388
-679.222	606.600	-0.043	0.108
-678.208	800.000	-0.010	-0.029
-677.193	-138.902	0.192	-0.021
-676.178	-14.557	0.203	0.131
-675.164	-28.008	-0.467	0.271
-674.149	-36.518	-0.239	-0.129
-673.135	21.420	0.256	-0.208
-672.120	68.553	0.249	-0.256
-671.105	800.000	0.013	0.045
-670.091	149.661	-0.137	0.186
-669.076	-52.157	-0.250	0.116
-668.062	-171.090	0.067	0.002
-667.047	321.674	0.052	0.100
-666.032	74.241	0.070	-0.074
-665.018	-163.899	-0.056	0.003
-664.003	-200.000	-0.004	-0.331
-662.989	-1.878	0.157	-0.111
-661.974	189.433	-0.010	0.014
-660.959	-67.604	-0.053	-0.021
-659.945	-200.000	-0.075	-0.371
-658.930	662.546	0.043	0.110
-657.916	222.242	-0.077	-0.124
-656.901	70.141	0.186	-0.192
-655.886	-200.000	-0.012	-0.099
-654.872	-30.012	0.327	0.186
-653.857	62.504	-0.119	-0.119
-652.843	-31.694	0.127	-0.071
-651.828	-200.000	0.002	-0.527
-650.814	-30.811	-0.310	-0.175
-649.799	476.279	-0.114	0.258
-648.784	10.689	0.041	0.031
-647.770	-92.583	-0.201	-0.057
-646.755	-200.000	0.094	-0.461
-645.741	-200.000	-0.006	-0.299
-644.726	-116.523	-0.121	-0.022
-643.711	-40.793	-0.259	-0.134
-642.697	0.238	0.146	0.104
-641.682	800.000	-0.012	-0.050
-640.668	-43.752	0.262	-0.132
-639.653	-200.000	-0.036	-0.214
-638.638	42.633	-0.016	0.015
-637.624	134.449	-0.203	0.264
-636.609	234.163	-0.162	0.266
-635.595	455.127	0.153	-0.339
-634.580	428.252	0.130	-0.281
-633.565	-66.477	0.068	0.027
-632.551	-109.112	-0.371	-0.079
-631.536	-43.523	-0.304	-0.153
-630.522	103.015	0.130	0.152
-629.507	15.865	-0.098	-0.077
-628.492	-92.685	0.187	-0.053
-627.478	-144.889	0.252	0.023
-626.463	-34.743	0.055	-0.030
-625.449	-97.095	0.355	-0.093
-624.434	-142.306	-0.231	0.023
-623.419	62.111	0.160	0.160
-622.405	-70.593	0.164	0.062
-621.390	-200.000	0.005	-0.173
-620.376	-122.419	-0.413	-0.067
-619.361	215.874	0.119	-0.190
-618.346	31.460	-0.290	0.249
-617.332	-3.225	-0.435	0.303
-616.317	24.668	-0.084	-0.070
-615.303	446.892	-0.144	-0.316
-614.288	329.890	0.074	0.143
-613.273	2.190	-0.077	0.056
-612.259	-136.938	0.233	-0.027
-611.244	187.275	0.049	0.073
-610.230	-64.409	-0.219	0.089
-609.215	112.975	0.185	0.224
-608.201	113.477	0.137	-0.167
-607.186	-19.961	0.091	-0.056
-606.171	-98.220	-0.145	0.037
-605.157	-63.474	0.134	0.055
-604.142	800.000	0.013	-0.049
-603.128	800.000	-0.105	-0.366
-602.113	-33.232	0.299	0.166
-601.098	-19.737	-0.161	-0.099
-600.084	96.617	0.168	-0.193
-599.069	-200.000	0.027	0.284
-598.055	-83.261	-0.233	0.075
-597.040	477.772	0.032	0.073
-596.025	675.860	-0.124	0.321
-595.011	-67.316	0.195	-0.077
-593.996	-200.000	-0.010	-0.137
-592.982	165.296	0.196	0.277
-591.967	-15.303	0.126	0.080
-590.952	-200.000	-0.001	0.308
-589.938	-200.000	-0.037	-0.237
-588.923	287.954	0.054	0.098
-587.909	-98.776	-0.109	0.028
-586.894	-50.088	-0.228	0.108
-585.879	-26.404	0.316	-0.185
-584.865	262.280	-0.149	0.258
-583.850	157.314	0.172	0.237
-582.836	-84.547	-0.339	0.107
-581.821	-200.000	-0.018	-0.188
-580.806	800.000	0.047	0.136
-579.792	526.091	-0.053	0.125
-578.777	-200.000	-0.050	-0.219
-577.763	-115.727	0.281	0.053
-576.748	-34.275	0.166	-0.091
-575.733	551.765	-0.029	0.068
-574.719	800.000	-0.130	-0.380
-573.704	-13.595	0.114	0.074
-572.690	-200.000	0.052	-0.353
-571.675	-92.208	0.410	-0.116
-570.661	-63.201	-0.442	0.182
-569.646	-15.653	0.153	0.097
-568.631	-156.492	0.230	0.014
-567.617	-70.375	-0.061	0.023
-566.602	179.930	-0.149	0.218
-565.588	130.029	0.216	0.276
-564.573	-68.082	0.169	0.066
-563.558	-65.337	-0.127	0.051
-562.544	284.182	-0.107	0.192
-561.529	-43.469	0.258	-0.130
-560.515	-200.000	-0.013	0.151
-559.500	585.308	0.111	-0.272
-558.485	-133.462	-0.226	0.028
-557.471	-200.000	-0.047	-0.220
-556.456	800.000	0.067	-0.270
-555.442	265.327	0.095	-0.165
-554.427	617.475	-0.052	0.131
-553.412	623.659	-0.067	-0.168
-552.398	-27.230	-0.513	0.298
-551.383	334.057	-0.073	-0.140
-550.369	-200.000	0.022	-0.293
-549.354	800.000	0.096	-0.341
-548.339	154.642	-0.112	-0.153
-547.325	-200.000	-0.085	0.443
-546.310	-147.833	-0.075	0.006
-545.296	-200.000	0.016	0.473
-544.281	-140.121	-0.389	-0.041
-543.266	328.677	0.014	0.027
-542.252	-200.000	-0.005	-0.118
-541.237	-200.000	0.005	0.097
-540.223	229.219	-0.281	-0.457
-539.208	13.160	0.147	-0.114
-538.193	88.135	-0.168	-0.186
-537.179	-92.593	0.396	-0.111
-536.164	-36.481	-0.225	-0.121
-535.150	800.000	-0.099	0.288
-534.135	-137.537	-0.201	0.023
-533.121	-152.768	-0.168	-0.012
-532.106	16.204	-0.062	0.048
-531.091	-181.128	-0.110	0.002
-530.077	-60.529	-0.269	-0.114
-529.062	-200.000	0.035	0.175
-528.048	-200.000	-0.028	-0.131
-527.033	47.399	0.233	-0.217
-526.018	-200.000	-0.089	-0.419
-525.004	49.456	-0.273	-0.256
-523.989	90.746	0.074	0.083
-522.975	348.964	0.066	0.130
-521.960	117.398	0.125	0.153
-520.945	-151.359	0.198	-0.015
-519.931	800.000	0.072	0.250
-518.916	-115.957	0.193	0.036
-517.902	415.593	-0.246	-0.523
-516.887	107.241	0.044	0.052
-515.872	-99.762	0.328	0.082
-514.858	-2.572	-0.237	-0.165
-513.843	-68.183	0.163	-0.063
-512.829	386.192	-0.132	-0.271
-511.814	-124.951	-0.067	-0.010
-510.799	-14.353	-0.274	0.176
-509.785	-17.192	-0.310	0.195
-508.770	398.366	-0.090	-0.187
-507.756	101.927	0.148	-0.172
-506.741	800.000	0.067	0.288
-505.726	-77.476	0.492	0.170
-504.712	-9.959	-0.163	0.108
-503.697	-45.251	-0.266	-0.132
-502.683	-200.000	-0.011	0.170
-501.668	800.000	-0.083	-0.230
-500.653	-200.000	-0.005	-0.204
-499.639	-54.258	0.660	0.298
-498.624	409.197	-0.077	-0.162
-497.610	-15.678	-0.379	0.241
-496.595	-31.060	0.184	-0.103
-495.581	392.962	-0.158	-0.328
-494.566	-88.909	-0.132	-0.039
-493.551	-200.000	0.018	-0.338
-492.537	-115.797	-0.447	0.083
-491.522	800.000	-0.066	0.211
-490.508	800.000	0.049	-0.180
-489.493	-58.883	0.074	0.032
-488.478	5.512	0.173	0.127
-487.464	555.519	-0.110	0.264
-486.449	-200.000	-0.004	-0.034
-485.435	355.081	-0.117	-0.231
-484.420	139.485	-0.131	-0.172
-483.405	-51.021	0.213	0.100
-482.391	-125.489	-0.089	-0.014
-481.376	-26.364	-0.368	-0.215
-480.362	261.338	-0.254	-0.438
-479.347	-99.788	0.276	-0.069
-478.332	-200.000	-0.045	0.252
-477.318	30.159	-0.298	0.253
-476.303	154.816	-0.196	0.268
-475.289	-200.000	-0.024	0.163
-474.274	800.000	0.041	0.143
-473.259	130.712	-0.070	0.089
-472.245	136.905	0.236	0.307
-471.230	-116.350	0.087	0.016
-470.216	-200.000	-0.010	0.348
-469.201	800.000	-0.104	-0.362
-468.186	800.000	-0.123	0.341
-467.172	-200.000	-0.026	0.135
-466.157	239.282	-0.026	-0.043
-465.143	-30.834	-0.113	0.064
-464.128	99.678	-0.066	-0.076
-463.113	-56.685	0.395	0.174
-462.099	800.000	0.028	0.091
-461.084	-200.000	0.023	-0.387
-460.070	-114.194	0.275	-0.053
-459.055	-200.000	-0.009	-0.260
-458.040	-5.064	-0.471	0.322
-457.026	-59.570	0.072	-0.031
-456.011	-14.793	0.171	-0.109
-454.997	378.674	-0.120	-0.244
-453.982	83.188	0.113	0.122
-452.968	-28.029	-0.081	-0.047
-451.953	-150.290	-0.423	0.032
-450.938	107.822	-0.086	-0.102
-449.924	-32.287	0.164	0.091
-448.909	800.000	-0.096	0.305
-447.895	-200.000	-0.006	0.036
-446.880	-21.835	0.176	-0.106
-445.865	-200.000	-0.099	-0.444
-444.851	-105.754	-0.046	-0.010
-443.836	-92.879	0.078	0.022
-442.822	800.000	0.039	0.130
-441.807	-65.208	-0.205	0.082
-440.792	31.679	-0.142	0.121
-439.778	158.945	0.098	0.135
-438.763	-200.000	-0.048	-0.243
-437.749	-112.075	0.076	0.015
-436.734	253.569	0.120	0.204
-435.719	17.860	0.066	-0.052
-434.705	329.122	0.097	0.184
-433.690	-200.000	0.016	0.171
-432.676	-165.896	-0.283	0.012
-431.661	-200.000	-0.001	0.195
-430.646	800.000	-0.026	0.096
-429.632	-117.483	0.480	0.086
-428.617	151.572	-0.082	0.111
-427.603	-200.000	-0.010	0.237
-426.588	40.688	-0.183	-0.164
-425.573	-200.000	0.040	0.222
-424.559	115.193	0.151	0.183
-423.544	-162.528	0.212	-0.010
-422.530	-200.000	-0.061	-0.394
-421.515	326.720	-0.087	0.165
-420.500	-76.940	0.082	0.028
-419.486	-150.102	0.016	-0.001
-418.471	-12.634	-0.253	0.164
-417.457	-25.147	-0.223	0.131
-416.442	-108.352	-0.085	0.018
-415.428	-54.944	0.252	-0.113
-414.413	57.789	0.193	-0.187
-413.398	-108.525	-0.154	-0.033
-412.384	-24.079	-0.312	0.185
-411.369	-80.071	-0.094	0.031
-410.355	-44.252	-0.183	0.091
-409.340	-200.000	-0.070	-0.330
-408.325	-6.672	0.251	-0.170
-407.311	-93.147	-0.256	0.071
-406.296	175.203	-0.020	-0.029
-405.282	779.134	0.127	-0.345
-404.267	75.358	-0.084	0.088
-403.252	190.159	0.079	-0.118
-402.238	74.304	0.126	0.131
-401.223	528.344	0.063	-0.148
-400.209	-4.267	0.300	0.206
-399.194	-15.363	0.264	0.168
-398.179	-122.900	-0.275	0.044
-397.165	-200.000	-0.041	0.245
-396.150	-21.149	-0.059	-0.036
-395.136	74.470	-0.123	0.129
-394.121	-127.724	-0.142	-0.020
-393.106	-114.090	-0.327	-0.063
-392.092	800.000	0.026	0.102
-391.077	527.933	-0.089	-0.207
-390.063	17.698	0.076	-0.060
-389.048	-200.000	0.002	0.109
-388.033	-150.535	0.204	0.015
-387.019	-13.502	-0.325	-0.209
-386.004	-152.226	-0.260	-0.019
-384.990	-50.956	-0.067	0.031
-383.975	14.730	0.138	0.107
-382.960	-144.497	0.141	-0.013
-381.946	4.263	-0.163	-0.118
-380.931	-115.154	0.212	0.040
-379.917	800.000	-0.082	0.233
-378.902	197.472	-0.138	-0.209
-377.888	-119.559	0.152	0.026
-376.873	-200.000	-0.001	-0.229
-375.858	348.516	-0.134	-0.263
-374.844	-84.912	-0.244	0.076
-373.829	-120.665	0.029	-0.005
-372.815	302.713	-0.084	0.154
-371.800	-78.523	0.226	-0.077
-370.785	800.000	0.093	-0.377
-369.771	27.639	0.112	-0.093
-368.756	-144.158	0.248	-0.023
-367.742	800.000	-0.051	0.150
-366.727	61.438	0.123	0.121
-365.712	-200.000	-0.003	0.285
-364.698	-40.023	-0.348	0.180
-363.683	-30.981	0.093	0.052
-362.669	-119.180	-0.296	0.051
-361.654	-200.000	0.003	-0.103
-360.639	-200.000	-0.021	-0.114
-359.625	-75.389	0.196	0.069
-358.610	-200.000	0.031	0.233
-357.596	-75.681	-0.043	0.015
-356.581	348.626	-0.135	-0.264
-355.566	288.720	0.174	-0.312
-354.552	-10.593	-0.268	-0.175
-353.537	-72.834	0.032	0.012
-352.523	-200.000	0.015	-0.098
-351.508	-175.605	0.408	-0.011
-350.493	-200.000	-0.053	-0.355
-349.479	-200.000	-0.027	0.323
-348.464	139.072	-0.228	0.296
-347.450	31.441	0.160	-0.136
-346.435	-115.110	0.319	-0.060
-345.420	149.204	-0.122	-0.164
-344.406	273.771	-0.086	0.150
-343.391	-17.753	0.400	-0.248
-342.377	228.656	0.049	0.079
-341.362	-200.000	-0.008	-0.162
-340.348	138.450	0.284	-0.369
-339.333	27.646	-0.329	0.274
-338.318	204.642	0.150	0.231
-337.304	211.674	0.096	0.149
-336.289	-79.839	-0.102	0.034
-335.275	19.311	0.267	0.212
-334.260	-59.178	-0.172	-0.073
-333.245	-200.000	-0.077	0.338
-332.231	471.544	0.083	-0.185
-331.216	200.366	0.098	-0.149
-330.202	-80.144	-0.172	-0.057
-329.187	-94.970	0.272	0.073
-328.172	366.408	0.078	0.156
-327.158	-200.000	-0.028	0.169
-326.143	151.913	0.167	-0.225
-325.129	-200.000	0.039	0.244
-324.114	800.000	-0.059	-0.167
-323.099	-4.833	-0.112	-0.076
-322.085	763.741	0.077	0.206
-321.070	252.067	0.048	0.081
-320.056	22.797	0.357	-0.289
-319.041	-200.000	0.036	0.312
-318.026	800.000	0.124	-0.345
-317.012	-155.953	-0.181	-0.011
-315.997	50.187	-0.034	-0.032
-314.983	85.420	0.356	-0.387
-313.968	568.698	0.073	0.175
-312.953	140.824	-0.048	-0.063
-311.939	13.844	0.312	0.240
-310.924	-37.382	0.317	-0.167
-309.910	-44.257	0.161	-0.080
-308.895	-118.816	0.021	-0.004
-307.880	-26.750	0.194	-0.112
-306.866	324.970	0.047	0.089
-305.851	-165.590	-0.274	-0.012
-304.837	-80.222	0.291	-0.096
-303.822	-103.857	0.029	0.007
-302.807	-58.237	0.137	-0.059
-301.793	-200.000	-0.029	0.344
-300.778	248.475	-0.138	-0.231
-299.764	-69.460	-0.059	-0.022
-298.749	-12.235	-0.184	-0.119
-297.735	-7.418	-0.150	-0.100
-296.720	800.000	0.085	0.244
-295.705	121.748	0.231	-0.284
-294.691	-122.545	-0.219	-0.035
-293.676	260.770	0.082	-0.139
-292.662	-200.000	-0.002	0.258
-291.647	-69.082	-0.167	-0.064
-290.632	174.136	-0.203	-0.290
-289.618	800.000	0.086	-0.285
-288.603	-200.000	-0.055	0.362
-287.589	57.253	0.140	0.135
-286.574	-2.848	-0.138	0.095
-285.559	142.552	0.160	0.210
-284.545	-139.719	0.342	-0.036
-283.530	-37.799	-0.215	0.113
-282.516	164.885	0.081	-0.113
-281.501	235.986	-0.249	0.406
-280.486	-200.000	-0.002	-0.034
-279.472	719.936	-0.223	-0.586
-278.457	-200.000	0.019	0.103
-277.443	100.240	0.173	-0.198
-276.428	213.088	0.231	0.360
-275.413	257.333	-0.204	0.346
-274.399	-200.000	-0.002	-0.084
-273.384	-24.362	-0.099	-0.058
-272.370	-200.000	0.006	0.375
-271.355	800.000	-0.083	0.350
-270.340	255.547	-0.087	-0.148
-269.326	-150.230	0.110	0.008
-268.311	58.270	-0.026	0.025
-267.297	612.303	-0.055	-0.136
-266.282	800.000	0.106	0.317
-265.267	-26.585	-0.248	0.143
-264.253	-200.000	-0.015	-0.072
-263.238	-146.563	0.097	-0.008
-262.224	-79.459	0.083	0.028
-261.209	-64.703	-0.141	0.056
-260.195	424.037	0.175	-0.372
-259.180	-59.112	-0.140	0.060
-258.165	800.000	0.037	-0.150
-257.151	321.416	0.187	0.351
-256.136	279.526	-0.126	-0.222
-255.122	41.612	0.118	-0.105
-254.107	-22.105	0.207	-0.124
-253.092	-200.000	0.007	-0.058
-252.078	-141.046	-0.375	0.038
-251.063	-200.000	-0.039	0.280
-250.049	-115.148	-0.144	-0.027
-249.034	281.600	-0.057	-0.101
-248.019	-30.344	0.184	-0.103
-247.005	-200.000	0.011	-0.182
-245.990	49.388	0.082	-0.076
-244.976	-23.726	-0.219	0.129
-243.961	67.888	0.177	0.179
-242.946	-140.528	0.304	-0.031
-241.932	-200.000	-0.002	0.273
-240.917	50.589	0.222	-0.207
-239.903	800.000	0.052	-0.225
-238.888	-150.124	0.382	-0.029
-237.873	699.502	0.074	0.191
-236.859	51.103	0.128	0.120
-235.844	3.069	0.117	-0.084
-234.830	110.963	0.076	-0.090
-233.815	-37.845	-0.245	-0.128
-232.800	-127.050	0.099	-0.014
-231.786	73.610	0.115	-0.119
-230.771	-200.000	0.035	-0.205
-229.757	-52.025	0.203	0.093
-228.742	64.686	-0.203	0.201
-227.727	456.372	0.148	0.323
-226.713	-108.883	-0.214	0.045
-225.698	29.868	-0.166	-0.140
-224.684	585.113	0.068	0.166
-223.669	-200.000	0.009	0.243
-222.655	800.000	0.033	-0.109
-221.640	-200.000	0.032	0.319
-220.625	-200.000	-0.011	-0.179
-219.611	-200.000	-0.042	-0.193
-218.596	223.903	0.029	-0.046
-217.582	-100.247	0.457	-0.112
-216.567	-5.544	0.088	0.060
-215.552	-83.371	0.056	0.018
-214.538	-200.000	0.019	0.143
-213.523	158.638	0.117	0.161
-212.509	800.000	0.041	-0.135
-211.494	800.000	0.043	-0.171
-210.479	-143.982	0.226	0.021
-209.465	126.384	0.224	0.279
-208.450	200.060	-0.096	-0.145
-207.436	800.000	0.081	-0.342
-206.421	-30.497	0.009	0.005
-205.406	177.181	0.048	-0.068
-204.392	-21.646	-0.055	-0.033
-203.377	35.311	0.143	-0.123
-202.363	-200.000	0.005	-0.487
-201.348	800.000	0.095	0.282
-200.333	-200.000	-0.023	0.159
-199.319	301.000	-0.141	0.255
-198.304	800.000	-0.042	0.142
-197.290	-39.821	-0.054	-0.028
-196.275	-102.920	-0.118	-0.027
-195.260	-106.392	0.335	0.074
-194.246	800.000	0.062	0.221
-193.231	-149.010	0.141	0.011
-192.217	53.483	-0.311	0.294
-191.202	-113.015	-0.121	-0.024
-190.187	14.740	0.143	0.110
-189.173	107.200	-0.190	0.222
-188.158	557.580	-0.051	-0.121
-187.144	545.426	-0.117	-0.274
-186.129	800.000	-0.069	0.277
-185.114	77.734	-0.175	0.184
-184.100	-200.000	0.032	-0.241
-183.085	355.657	-0.134	0.263
-182.071	95.816	-0.130	-0.146
-181.056	-72.227	0.287	0.105
-180.042	451.593	-0.071	-0.155
-179.027	458.799	0.124	-0.271
-178.012	-151.359	-0.307	0.023
-176.998	800.000	-0.077	-0.236
-175.983	-127.230	0.346	-0.050
-174.969	26.219	-0.394	0.323
-173.954	-66.743	-0.442	0.172
-172.939	113.908	-0.066	0.079
-171.925	253.767	-0.045	-0.075
-170.910	34.820	0.028	0.024
-169.896	800.000	-0.053	0.213
-168.881	47.026	0.251	-0.229
-167.866	52.522	0.248	-0.233
-166.852	-200.000	-0.031	0.150
-165.837	69.929	-0.078	0.079
-164.823	-124.620	0.114	-0.017
-163.808	420.615	0.082	0.172
-162.793	47.741	0.099	0.091
-161.779	800.000	0.059	-0.218
-160.764	-63.333	0.098	-0.040
-159.750	-83.342	0.087	0.027
-158.735	-200.000	0.009	-0.230
-157.720	-132.232	0.160	-0.020
-156.706	-56.863	-0.004	-0.002
-155.691	37.982	-0.190	-0.166
-154.677	102.984	0.119	-0.137
-153.662	-59.308	0.200	0.085
-152.647	-94.723	-0.190	-0.051
-151.633	18.805	-0.149	0.117
-150.618	-162.944	0.185	0.009
-149.604	755.774	0.079	-0.210
-148.589	156.946	0.113	-0.153
-147.574	-84.418	-0.202	-0.063
-146.560	-34.652	0.273	0.147
-145.545	290.345	-0.136	-0.243
-144.531	800.000	0.036	-0.132
-143.516	-200.000	0.064	0.331
-142.502	-19.245	0.153	0.093
-141.487	-200.000	-0.071	-0.472
-140.472	171.021	0.056	0.079
-139.458	43.232	0.060	-0.054
-138.443	-200.000	0.063	0.330
-137.429	-200.000	0.003	0.161
-136.414	5.758	0.118	-0.086
-135.399	339.516	-0.112	0.214
-134.385	27.090	0.198	0.163
-133.370	-29.893	-0.041	0.023
-132.356	-200.000	0.012	0.086
-131.341	-87.272	0.085	-0.025
-130.326	60.785	-0.118	-0.114
-129.312	61.846	0.159	-0.155
-128.297	-28.581	-0.055	-0.031
-127.283	-36.132	-0.146	-0.077
-126.268	800.000	0.034	-0.111
-125.253	200.424	0.162	0.245
-124.239	-52.262	0.127	-0.058
-123.224	146.828	0.180	0.237
-122.210	-7.089	0.347	0.231
-121.195	375.216	-0.220	-0.440
-120.180	459.826	-0.138	0.301
-119.166	-155.083	0.104	-0.007
-118.151	-25.522	-0.037	0.021
-117.137	47.481	-0.104	-0.096
-116.122	-91.431	-0.262	0.073
-115.107	136.171	-0.315	0.403
-114.093	800.000	-0.067	0.233
-113.078	91.449	-0.145	0.159
-112.064	142.900	0.161	0.210
-111.049	-50.996	0.341	0.157
-110.034	800.000	-0.012	0.050
-109.020	149.605	0.147	0.196
-108.005	800.000	-0.008	-0.026
-106.991	268.014	-0.069	0.118
-105.976	-200.000	-0.054	0.408
-104.962	-200.000	0.011	-0.104
-103.947	800.000	-0.103	0.306
-102.932	31.127	-0.184	0.155
-101.918	-200.000	0.074	0.472
-100.903	-41.492	-0.087	0.044
-99.889	369.515	0.180	0.358
-98.874	693.302	0.131	-0.337
-97.859	-100.094	0.209	-0.051
-96.845	800.000	-0.032	0.104
-95.830	-49.141	0.412	-0.193
-94.816	-24.408	-0.076	0.044
-93.801	616.503	-0.061	-0.149
-92.786	-200.000	0.011	0.089
-91.772	-90.624	0.061	0.017
-90.757	22.275	-0.045	-0.036
-89.743	102.488	-0.401	0.459
-88.728	441.798	0.102	-0.219
-87.713	52.343	0.164	-0.153
-86.699	92.461	-0.150	-0.165
-85.684	253.670	-0.097	-0.163
-84.670	-200.000	0.009	-0.227
-83.655	-200.000	-0.004	-0.079
-82.640	800.000	0.163	0.465
-81.626	25.198	-0.256	0.209
-80.611	-76.459	0.177	-0.061
-79.597	48.801	0.046	-0.042
-78.582	51.266	0.073	0.068
-77.567	412.409	-0.112	0.234
-76.553	63.857	-0.265	-0.261
-75.538	800.000	-0.105	0.302
-74.524	-119.668	-0.434	0.073
-73.509	-200.000	-0.032	-0.229
-72.494	800.000	-0.087	0.237
-71.480	-44.665	0.665	-0.325
-70.465	13.933	0.141	0.107
-69.451	793.364	-0.136	0.366
-68.436	97.164	0.211	0.237
-67.422	226.518	-0.142	-0.226
-66.407	-70.535	-0.128	0.047
-65.392	119.719	0.131	-0.159
-64.378	12.244	0.102	0.077
-63.363	800.000	0.070	0.297
-62.349	-71.586	0.234	0.086
-61.334	-5.994	-1.112	-0.744
-60.319	239.322	0.487	0.794
-59.305	800.000	-0.342	-1.020
-58.290	195.109	0.734	1.091
-57.276	376.124	0.637	1.272
-56.261	-200.000	110.796	640.916
-55.246	485.985	1486.462	3314.424
-54.232	151.376	2645.485	3523.605
-53.217	105.728	2156.598	2495.013
-52.203	38.711	1694.981	1479.857
-51.188	31.591	1516.008	1275.248
-50.173	29.460	1491.573	1240.335
-49.159	52.661	1548.152	1446.784
-48.144	52.759	1564.896	1463.043
-47.130	31.856	1521.621	1281.574
-46.115	28.855	1507.203	1249.025
-45.100	28.643	1504.091	1244.963
-44.086	28.532	1502.139	1242.543
-43.071	28.523	1499.945	1240.615
-42.057	28.503	1498.737	1239.434
-41.042	28.572	1497.128	1238.518
-40.027	28.499	1495.974	1237.023
-39.013	28.456	1493.995	1235.052
-37.998	28.324	1493.378	1233.598
-36.984	28.513	1491.916	1233.614
-35.969	28.602	1490.393	1232.907
-34.954	28.526	1489.121	1231.292
-33.940	28.483	1487.895	1229.942
-32.925	28.556	1486.169	1228.954
-31.911	28.580	1484.971	1228.076
-30.896	28.596	1484.025	1227.356
-29.881	28.628	1482.915	1226.602
-28.867	28.577	1481.168	1224.769
-27.852	28.554	1480.069	1223.656
-26.838	28.524	1479.078	1222.590
-25.823	28.613	1477.168	1221.553
-24.809	28.615	1475.084	1219.796
-23.794	28.592	1474.106	1218.786
-22.779	28.563	1472.935	1217.579
-21.765	28.586	1472.415	1217.253
-20.750	28.602	1471.049	1216.178
-19.736	28.650	1469.822	1215.436
-18.721	28.564	1468.708	1213.894
-17.706	28.524	1467.370	1212.479
-16.692	28.470	1467.140	1211.884
-15.677	28.505	1466.001	1211.124
-14.663	28.578	1464.433	1210.262
-13.648	28.548	1463.269	1209.056
-12.633	28.467	1463.248	1208.455
-11.619	28.441	1461.984	1207.193
-10.604	28.585	1460.648	1206.988
-9.590	28.379	1460.187	1205.204
-8.575	28.529	1459.161	1205.293
-7.560	28.493	1458.192	1204.212
-6.546	28.539	1457.053	1203.526
-5.531	28.534	1456.662	1203.121
-4.517	28.387	1455.909	1201.488
-3.502	28.412	1454.677	1200.591
-2.487	28.442	1453.811	1200.024
-1.473	28.558	1452.486	1199.638
-0.458	28.378	1451.534	1197.628
0.556	26.674	1441.867	1186.860
1.571	23.543	1416.643	1145.810
2.586	19.767	1355.820	1073.131
3.600	18.076	1273.215	997.797
4.615	17.055	1227.756	956.333
5.629	15.938	1175.119	909.226
6.644	12.534	1099.045	833.076
7.659	9.559	1064.441	792.163
8.673	9.081	1059.691	786.218
9.688	9.009	1056.284	783.269
10.702	8.962	1054.592	781.716
11.717	8.957	1052.501	780.070
12.731	10.280	1052.604	786.510
13.746	13.872	1057.538	807.629
14.761	17.071	1060.583	825.462
15.775	17.648	1060.700	828.287
16.790	16.941	1058.697	823.218
17.804	15.795	1057.022	816.288
18.819	14.875	1054.860	810.091
19.834	14.344	1053.518	806.420
20.848	14.095	1052.405	804.290
21.863	13.801	1051.577	802.163
22.877	13.662	1050.628	800.699
23.892	13.449	1049.731	798.914
24.907	13.352	1048.976	797.802
25.921	13.345	1048.658	797.459
26.936	13.440	1047.300	796.813
27.950	13.422	1046.657	796.163
28.965	13.459	1045.958	795.740
29.980	13.624	1044.375	795.260
30.994	13.564	1043.853	794.502
32.009	13.559	1043.003	793.760
33.023	13.561	1041.714	792.718
34.038	13.631	1041.089	792.508
35.053	13.567	1040.010	791.313
36.067	13.554	1039.322	790.654
37.082	13.551	1038.230	789.739
38.096	13.501	1037.906	789.186
39.111	13.601	1036.537	788.549
40.126	13.525	1035.958	787.681
41.140	13.645	1034.159	786.812
42.155	13.507	1033.189	785.350
43.169	13.492	1032.447	784.647
44.184	13.349	1031.803	783.409
45.199	13.328	1030.490	782.244
46.213	13.350	1029.581	781.586
47.228	13.308	1028.796	780.725
48.242	13.476	1027.431	780.414
49.257	13.575	1026.331	779.975
50.271	13.440	1025.220	778.423
51.286	13.498	1024.732	778.259
52.301	13.508	1024.209	777.837
53.315	13.672	1022.828	777.489
54.330	13.476	1021.964	775.845
55.344	13.438	1020.886	774.781
56.359	13.550	1020.047	774.599
57.374	13.476	1019.201	773.542
58.388	13.387	1018.444	772.483
59.403	13.379	1017.904	771.971
60.417	13.286	1017.266	770.985
61.432	13.319	1016.248	770.300
62.447	13.380	1015.492	769.942
63.461	13.316	1014.562	768.871
64.476	13.344	1013.127	767.845
65.490	13.103	1012.895	766.481
66.505	13.216	1012.048	766.297
67.520	13.367	1010.743	765.944
68.534	13.441	1010.307	765.886
69.549	13.339	1009.463	764.707
70.563	13.348	1008.925	764.272
71.578	13.315	1008.316	763.593
72.593	13.235	1007.081	762.217
73.607	13.243	1005.817	761.235
74.622	13.242	1004.963	760.516
75.636	13.198	1004.188	759.659
76.651	13.289	1003.667	759.614
77.666	13.250	1002.930	758.810
78.680	13.193	1002.439	758.112
79.695	13.218	1001.675	757.583
80.709	13.158	1001.333	756.978
81.724	13.362	1000.181	756.974
82.739	13.441	999.074	756.429
83.753	13.390	999.069	756.127
84.768	13.409	998.249	755.527
85.782	13.573	997.364	755.539
86.797	13.658	996.717	755.367
87.812	13.694	995.660	754.665
88.826	13.507	994.978	753.229
89.841	13.527	993.829	752.385
90.855	13.696	992.899	752.380
91.870	13.585	992.306	751.361
92.884	13.617	991.852	751.095
93.899	13.588	991.203	750.408
94.914	13.669	990.290	750.016
95.928	13.675	989.869	749.659
96.943	13.654	989.249	749.026
97.957	13.648	987.941	747.943
98.972	13.650	987.120	747.263
99.987	13.657	986.494	746.756
101.001	13.598	985.716	745.838
102.016	13.663	985.022	745.537
103.030	13.607	984.172	744.577
104.045	13.543	983.190	743.479
105.060	13.706	982.465	743.597
106.074	13.765	981.073	742.741
107.089	13.509	980.667	741.223
108.103	13.477	979.722	740.300
109.118	13.348	978.869	739.012
110.133	13.307	977.898	738.034
111.147	13.356	977.255	737.702
112.162	13.385	975.857	736.711
113.176	13.342	974.898	735.730
114.191	13.421	974.618	735.802
115.206	13.547	973.148	735.187
116.220	13.398	972.729	734.144
117.235	13.455	971.808	733.640
118.249	13.455	970.869	732.862
119.264	13.589	969.594	732.430
120.279	13.406	969.485	731.475
121.293	13.329	968.697	730.474
122.308	13.253	968.473	729.905
123.322	13.270	967.191	728.951
124.337	13.238	966.014	727.856
125.352	13.374	964.689	727.393
126.366	13.395	963.946	726.858
127.381	13.350	962.792	725.729
128.395	13.304	961.725	724.657
129.410	13.286	960.935	723.919
130.424	13.406	959.661	723.421
131.439	13.204	959.404	722.282
132.454	13.393	958.446	722.321
133.468	13.619	957.682	722.666
134.483	13.479	957.120	721.567
135.497	13.488	956.112	720.784
136.512	13.478	955.344	720.097
137.527	13.468	954.864	719.629
138.541	13.417	954.186	718.833
139.556	13.428	953.677	718.432
140.570	13.341	952.706	717.258
141.585	13.487	951.982	717.283
142.600	13.568	951.414	717.141
143.614	13.554	950.634	716.433
144.629	13.623	949.666	715.936
145.643	13.697	948.699	715.464
146.658	13.660	947.756	714.530
147.673	13.681	946.793	713.829
148.687	13.673	945.889	713.054
149.702	13.540	945.369	712.025
150.716	13.492	944.458	711.068
151.731	13.511	943.311	710.223
152.746	13.573	942.495	709.813
153.760	13.570	941.938	709.319
154.775	13.630	941.091	708.873
155.789	13.670	940.600	708.611
156.804	13.739	939.595	708.088
157.819	13.713	938.714	707.251
158.833	13.675	938.650	706.978
159.848	13.742	938.313	706.946
160.862	13.675	937.361	705.881
161.877	13.918	935.877	705.733
162.892	13.689	935.995	704.785
163.906	13.797	934.106	703.761
164.921	13.585	934.303	702.948
165.935	13.687	932.579	702.018
166.950	13.612	932.051	701.244
167.964	13.698	931.077	700.811
168.979	13.840	929.852	700.426
169.994	13.759	929.276	699.588
171.008	13.631	928.023	698.045
172.023	13.765	927.580	698.214
173.037	13.771	926.625	697.457
174.052	13.900	926.144	697.576
175.067	13.950	925.456	697.205
176.081	13.858	924.346	695.925
177.096	13.709	923.852	694.867
178.110	13.667	923.010	693.994
179.125	13.632	922.669	693.529
180.140	13.848	921.408	693.423
181.154	13.836	920.903	692.934
182.169	13.825	920.106	692.226
183.183	13.831	919.639	691.836
184.198	13.846	919.026	691.379
185.213	13.936	917.979	690.905
186.227	13.952	917.166	690.296
187.242	13.929	917.021	690.031
188.256	14.038	916.326	689.898
189.271	14.263	914.976	689.756
190.286	14.168	914.370	688.846
191.300	13.919	914.322	687.716
192.315	13.750	913.386	686.250
193.329	13.720	913.038	685.807
194.344	13.713	911.851	684.825
195.359	13.837	911.110	684.719
196.373	13.820	910.598	684.202
197.388	13.913	910.271	684.279
198.402	14.159	909.761	684.850
199.417	14.164	909.391	684.531
200.432	14.176	909.157	684.344
201.446	14.184	908.425	683.765
202.461	14.308	907.989	683.886
203.475	14.296	907.738	683.585
204.490	14.371	906.876	683.185
205.504	14.091	906.425	681.637
206.519	14.166	905.535	681.213
207.534	14.179	904.550	680.465
208.548	14.212	903.799	679.977
209.563	14.193	903.572	679.666
210.577	14.271	902.470	679.096
211.592	14.129	902.133	678.204
212.607	14.368	901.578	678.698
213.621	14.420	900.488	678.032
214.636	14.335	899.972	677.235
215.650	14.394	899.693	677.205
216.665	14.247	898.989	676.021
217.680	14.433	898.499	676.345
218.694	14.512	898.072	676.285
219.709	14.423	897.905	675.739
220.723	14.307	897.361	674.800
221.738	14.558	895.813	674.591
222.753	14.491	895.382	673.938
223.767	14.431	894.618	673.060
224.782	14.446	893.682	672.354
225.796	14.481	893.175	672.058
226.811	14.700	892.440	672.326
227.826	14.561	892.026	671.395
228.840	14.528	891.538	670.834
229.855	14.511	890.792	670.149
230.869	14.538	890.034	669.626
231.884	14.670	889.294	669.538
232.899	14.406	888.483	667.810
233.913	14.411	887.867	667.310
234.928	14.430	887.402	666.978
235.942	14.364	886.670	666.104
236.957	14.414	885.757	665.557
237.972	14.546	884.662	665.202
238.986	14.475	884.925	665.060
240.001	14.526	883.915	664.443
241.015	14.571	883.391	664.169
242.030	14.560	882.775	663.606
243.045	14.587	882.196	663.218
244.059	14.482	881.642	662.325
245.074	14.744	880.441	662.403
246.088	14.707	880.164	661.991
247.103	14.724	879.482	661.487
248.117	14.683	879.031	660.927
249.132	14.822	878.492	661.011
250.147	14.917	878.067	661.008
251.161	14.951	877.113	660.367
252.176	14.972	876.425	659.874
253.190	15.101	875.832	659.876
254.205	15.136	875.410	659.637
255.220	15.174	874.593	659.115
256.234	15.124	873.884	658.324
257.249	15.038	873.496	657.635
258.263	15.213	872.723	657.685
259.278	15.164	872.183	657.024
260.293	15.261	871.591	656.902
261.307	15.085	871.423	656.026
262.322	15.312	869.985	655.774
263.336	15.218	870.054	655.402
264.351	15.329	869.095	655.055
265.366	15.363	868.441	654.638
266.380	15.376	867.964	654.268
267.395	15.306	867.241	653.395
268.409	15.183	866.862	652.573
269.424	15.327	865.767	652.249
270.439	15.337	865.093	651.724
271.453	15.391	864.132	651.150
272.468	15.241	864.116	650.501
273.482	15.265	863.324	649.938
274.497	15.152	863.021	649.215
275.512	15.245	861.906	648.678
276.526	15.241	861.461	648.270
277.541	15.236	860.834	647.723
278.555	15.277	860.313	647.430
279.570	15.416	859.436	647.250
280.585	15.462	859.593	647.490
281.599	15.612	858.426	647.130
282.614	15.439	857.854	645.974
283.628	15.389	857.389	645.378
284.643	15.336	856.678	644.579
285.657	15.402	856.333	644.517
286.672	15.581	855.666	644.645
287.687	15.441	855.325	643.793
288.701	15.615	854.490	643.776
289.716	15.550	853.880	643.010
290.730	15.416	853.836	642.408
291.745	15.497	852.962	642.004
292.760	15.681	851.751	641.737
293.774	15.559	851.741	641.207
294.789	15.758	850.624	641.069
295.803	15.731	849.837	640.316
296.818	15.616	850.036	639.971
297.833	15.520	849.191	638.912
298.847	15.580	848.566	638.614
299.862	15.612	847.811	638.112
300.876	15.811	846.946	638.159
301.891	15.682	846.060	636.945
302.906	15.873	845.539	637.219
303.920	15.865	844.850	636.615
304.935	15.780	844.592	636.041
305.949	15.943	843.756	635.970
306.964	15.985	842.836	635.377
307.979	15.798	842.624	634.457
308.993	15.867	842.126	634.287
310.008	15.974	841.574	634.220
311.022	15.986	840.848	633.660
312.037	15.996	840.500	633.379
313.052	15.963	840.107	632.903
314.066	15.879	839.701	632.226
315.081	15.926	839.035	631.845
316.095	15.751	838.690	630.872
317.110	15.831	837.865	630.497
318.125	15.832	837.455	630.136
319.139	15.916	836.907	629.983
320.154	15.965	836.096	629.497
321.168	15.817	835.653	628.558
322.183	15.847	835.275	628.330
323.197	15.831	834.854	627.897
324.212	15.949	834.359	627.909
325.227	15.820	833.839	626.983
326.241	16.090	832.922	627.241
327.256	15.935	832.380	626.202
328.270	16.020	831.728	625.972
329.285	15.931	831.509	625.421
330.300	16.097	830.587	625.285
331.314	16.021	830.360	624.779
332.329	16.087	829.329	624.194
333.343	16.071	828.749	623.643
334.358	16.139	828.578	623.708
335.373	16.063	828.253	623.128
336.387	16.106	827.580	622.725
337.402	16.207	827.109	622.688
338.416	16.287	826.352	622.360
339.431	16.441	825.358	622.123
340.446	16.292	825.092	621.316
341.460	16.390	824.720	621.342
342.475	16.335	824.163	620.669
343.489	16.420	823.655	620.540
344.504	16.444	823.164	620.205
345.519	16.499	822.418	619.790
346.533	16.510	822.087	619.527
347.548	16.530	821.671	619.230
348.562	16.416	820.800	618.101
349.577	16.341	820.675	617.679
350.592	16.411	819.966	617.348
351.606	16.296	819.309	616.379
352.621	16.452	818.971	616.636
353.635	16.345	818.536	615.866
354.650	16.466	818.237	616.026
355.665	16.306	818.083	615.274
356.679	16.417	817.380	615.093
357.694	16.486	816.808	614.861
358.708	16.406	816.005	613.912
359.723	16.679	815.574	614.524
360.738	16.482	815.481	613.684
361.752	16.553	814.755	613.341
362.767	16.500	814.342	612.784
363.781	16.627	813.844	612.815
364.796	16.715	813.476	612.803
365.810	16.673	812.976	612.219
366.825	16.698	812.835	612.147
367.840	16.837	812.184	612.107
368.854	16.615	812.166	611.238
369.869	16.801	811.609	611.434
370.883	16.741	810.995	610.702
371.898	16.940	809.895	610.537
372.913	16.731	809.480	609.418
373.927	16.938	808.918	609.685
374.942	16.933	808.147	609.032
375.956	16.757	807.831	608.109
376.971	16.959	806.761	607.973
377.986	16.830	806.833	607.511
379.000	16.975	806.279	607.561
380.015	17.037	805.596	607.212
381.029	16.944	805.398	606.678
382.044	17.079	804.321	606.295
383.059	16.988	803.937	605.625
384.073	17.183	803.357	605.832
385.088	16.982	803.109	604.875
386.102	17.095	802.129	604.485
387.117	17.041	801.719	603.930
388.132	17.108	801.401	603.877
389.146	16.997	800.976	603.106
390.161	17.011	800.622	602.837
391.175	16.949	800.430	602.419
392.190	17.025	799.784	602.151
393.205	17.173	799.514	602.417
394.219	17.173	798.889	601.893
395.234	16.955	798.484	600.763
396.248	16.939	798.037	600.318
397.263	16.891	797.711	599.848
398.278	16.881	797.052	599.265
399.292	16.976	796.353	599.021
400.307	16.994	796.080	598.826
401.321	17.013	796.002	598.781
402.336	17.026	795.754	598.588
403.350	17.106	794.948	598.210
404.365	17.256	794.437	598.300
405.380	17.314	793.750	597.935
406.394	17.370	793.265	597.715
407.409	17.241	793.409	597.315
408.423	17.270	792.702	596.833
409.438	17.292	792.445	596.663
410.453	17.496	791.840	596.870
411.467	17.461	791.421	596.379
412.482	17.550	790.696	596.093
413.496	17.537	790.294	595.690
414.511	17.581	789.797	595.419
415.526	17.651	789.555	595.427
416.540	17.637	789.575	595.339
417.555	17.448	789.282	594.407
418.569	17.527	788.551	594.078
419.584	17.428	787.984	593.255
420.599	17.494	787.495	593.064
421.613	111.081	1293.023	1475.779
422.628	95.323	1366.648	1475.869
