DTS Sentinel unit serial number:	SN413079Multiplexer serial number:	ORYXHardware model number:	OX4-SRSoftware version number:	ORYX F/W v4.00 Oryx Data Collector v3.7.2.0data status	okinstallation	princeton_trtdifferential loss correction	single-endedforward channel	channel 3reverse channel	N/Adate	2019/09/17time	12:44:35forward acquisition time	60.00reverse acquisition time	0.00gamma	496.2192k internal	0.2315k external	0.2315temperature offset calibration	0.9959default loss term (dB/km)	0.3790temperature slope calibration	1.0000multiplexer offset coefficient	1.0000multiplexer slope coefficient	1.0000fibre end	0.00T internal ref (°C)	32.55T ext. ref 1 (°C)	0.42T ext. ref 2 (°C)	30.62length (m)	temperature (°C)	Stokes	anti-Stokes-747.200	-15.400	0.264	-0.171
-746.185	31.212	-0.131	0.114
-745.171	61.190	0.112	0.113
-744.156	289.912	-0.087	0.160
-743.142	800.000	0.031	-0.132
-742.127	162.241	-0.193	0.274
-741.112	-141.319	-0.257	-0.026
-740.098	57.470	-0.151	-0.150
-739.083	-93.454	-0.125	-0.035
-738.069	11.032	0.133	0.103
-737.054	202.337	0.100	-0.157
-736.039	-200.000	0.048	-0.250
-735.025	800.000	0.082	0.243
-734.010	-47.776	-0.205	-0.101
-732.996	191.082	-0.143	-0.218
-731.981	-74.544	-0.264	-0.096
-730.966	55.778	-0.123	-0.120
-729.952	2.496	-0.257	-0.189
-728.937	182.359	-0.148	0.222
-727.923	-104.736	-0.161	-0.037
-726.908	19.767	0.196	-0.160
-725.894	-41.083	-0.321	0.168
-724.879	-200.000	-0.031	-0.181
-723.864	-106.350	-0.277	-0.063
-722.850	85.997	0.263	0.293
-721.835	471.340	0.079	-0.180
-720.821	-38.038	-0.110	0.059
-719.806	649.212	0.119	0.309
-718.791	80.840	0.190	-0.207
-717.777	-42.996	-0.236	0.121
-716.762	-152.588	0.282	-0.020
-715.748	-138.104	0.334	0.038
-714.733	254.295	0.171	-0.296
-713.718	150.406	0.087	-0.120
-712.704	45.488	0.167	0.156
-711.689	800.000	0.104	0.320
-710.675	215.084	-0.105	-0.168
-709.660	-200.000	-0.081	-0.398
-708.645	-200.000	0.050	0.246
-707.631	-92.302	0.066	-0.019
-706.616	-17.466	0.231	0.147
-705.602	-170.626	-0.141	-0.005
-704.587	349.877	-0.085	-0.170
-703.572	-200.000	0.033	0.260
-702.558	-50.059	0.160	0.077
-701.543	-200.000	-0.036	0.217
-700.529	-108.633	-0.502	-0.109
-699.514	-77.677	-0.325	-0.114
-698.499	-45.933	0.322	-0.161
-697.485	-190.841	-0.339	-0.004
-696.470	-85.548	-0.316	-0.100
-695.456	109.597	-0.105	-0.128
-694.441	-200.000	-0.033	0.518
-693.426	-125.139	-0.242	0.037
-692.412	150.280	-0.154	0.212
-691.397	-200.000	-0.002	-0.160
-690.383	35.097	0.173	-0.153
-689.368	-104.954	-0.280	-0.065
-688.354	80.579	0.079	-0.086
-687.339	51.567	-0.181	-0.174
-686.324	77.711	-0.302	-0.325
-685.310	184.673	0.099	-0.149
-684.295	-200.000	0.008	0.200
-683.281	-96.896	0.119	0.032
-682.266	29.696	0.156	-0.134
-681.251	117.469	0.260	-0.323
-680.237	-200.000	-0.008	-0.264
-679.222	-94.770	-0.337	-0.092
-678.208	0.968	-0.197	-0.143
-677.193	-112.294	-0.199	0.040
-676.178	619.372	-0.099	0.251
-675.164	38.294	0.038	0.034
-674.149	-200.000	0.037	-0.333
-673.135	-200.000	0.049	-0.248
-672.120	47.816	0.061	-0.058
-671.105	-74.298	-0.193	0.070
-670.091	150.741	0.273	-0.375
-669.076	57.484	0.133	0.131
-668.062	-107.679	-0.465	-0.103
-667.047	233.014	-0.037	0.062
-666.032	248.568	0.172	-0.294
-665.018	96.202	-0.118	-0.136
-664.003	-91.816	0.464	-0.133
-662.989	329.901	0.167	-0.324
-661.974	66.582	-0.202	0.208
-660.959	-122.836	0.059	0.010
-659.945	-93.665	0.107	0.030
-658.930	44.327	-0.186	-0.173
-657.916	182.683	-0.160	-0.238
-656.901	-57.421	-0.249	0.111
-655.886	-173.656	0.223	-0.007
-654.872	-100.021	0.184	0.046
-653.857	-172.747	-0.134	0.004
-652.843	-116.728	0.183	-0.034
-651.828	-200.000	0.064	-0.303
-650.814	-33.611	-0.306	-0.171
-649.799	-173.427	-0.347	-0.011
-648.784	-200.000	-0.002	0.049
-647.770	-26.665	0.065	-0.038
-646.755	256.515	0.133	-0.231
-645.741	24.709	-0.115	0.096
-644.726	171.551	-0.179	0.259
-643.711	85.496	-0.186	0.206
-642.697	-110.232	-0.026	-0.006
-641.682	-200.000	-0.028	-0.144
-640.668	442.007	-0.122	0.270
-639.653	-200.000	0.026	0.204
-638.638	108.010	-0.212	0.256
-637.624	-119.044	-0.249	-0.044
-636.609	-112.533	-0.321	-0.065
-635.595	-9.927	-0.044	0.030
-634.580	-200.000	0.009	-0.096
-633.565	-37.167	-0.274	-0.148
-632.551	-55.493	-0.183	-0.083
-631.536	-200.000	0.015	-0.074
-630.522	-91.871	-0.134	-0.038
-629.507	-200.000	0.021	0.096
-628.492	-200.000	0.031	-0.138
-627.478	38.815	-0.141	-0.127
-626.463	141.562	-0.086	0.115
-625.449	-93.906	0.124	0.034
-624.434	800.000	-0.016	-0.065
-623.419	-102.274	0.148	0.036
-622.405	-32.022	-0.129	-0.073
-621.390	-100.093	0.270	0.068
-620.376	109.148	-0.211	-0.255
-619.361	-122.322	0.235	-0.039
-618.346	128.410	0.061	0.079
-617.332	-84.614	0.372	-0.118
-616.317	423.788	0.100	-0.216
-615.303	800.000	-0.087	-0.274
-614.288	-200.000	0.031	-0.173
-613.273	-62.384	0.243	-0.102
-612.259	-22.459	-0.074	0.045
-611.244	-143.828	-0.314	0.030
-610.230	-131.987	0.138	0.018
-609.215	-14.923	0.052	-0.033
-608.201	-200.000	0.034	-0.270
-607.186	51.255	-0.249	0.239
-606.171	-200.000	-0.157	0.000
-605.157	725.139	-0.084	0.224
-604.142	-60.411	0.220	-0.094
-603.128	-200.000	0.011	0.181
-602.113	260.975	0.183	-0.319
-601.098	-32.235	0.319	-0.180
-600.084	-112.010	0.095	0.019
-599.069	800.000	-0.034	-0.117
-598.055	-200.000	0.003	0.063
-597.040	-200.000	-0.036	0.295
-596.025	-155.780	-0.229	-0.015
-595.011	552.475	-0.042	-0.102
-593.996	-71.913	0.127	-0.048
-592.982	-171.940	-0.102	0.003
-591.967	-52.104	0.312	-0.146
-590.952	-156.344	0.251	0.016
-589.938	800.000	-0.084	-0.254
-588.923	-65.089	-0.130	0.053
-587.909	3.377	-0.079	0.058
-586.894	161.965	0.126	0.178
-585.879	-95.816	-0.336	-0.090
-584.865	237.786	-0.201	-0.336
-583.850	-38.097	-0.087	0.047
-582.836	3.875	0.236	0.173
-581.821	-200.000	-0.016	-0.094
-580.806	-87.690	-0.286	0.087
-579.792	-69.944	-0.498	0.191
-578.777	-56.241	-0.248	-0.111
-577.763	-13.586	0.113	-0.074
-576.748	113.701	0.095	-0.116
-575.733	800.000	0.074	-0.268
-574.719	-11.717	-0.202	0.133
-573.704	89.536	-0.045	-0.051
-572.690	800.000	-0.083	-0.249
-571.675	50.754	-0.358	0.342
-570.661	-101.441	-0.060	0.015
-569.646	-82.551	-0.272	0.089
-568.631	-39.081	-0.197	0.104
-567.617	57.906	0.046	0.045
-566.602	-125.262	-0.110	0.017
-565.588	330.767	0.153	-0.296
-564.573	125.603	0.076	-0.096
-563.558	0.836	0.095	0.069
-562.544	9.390	0.266	-0.203
-561.529	-29.112	-0.108	0.062
-560.515	800.000	-0.020	0.078
-559.500	-25.293	-0.171	-0.102
-558.485	393.920	0.125	0.263
-557.471	-42.955	0.161	0.082
-556.456	-99.881	0.200	0.050
-555.442	-44.058	-0.351	-0.177
-554.427	-200.000	-0.064	-0.424
-553.412	-102.544	-0.257	-0.062
-552.398	-158.382	0.101	0.006
-551.383	385.372	-0.109	-0.226
-550.369	-134.741	-0.389	-0.048
-549.354	721.426	-0.116	0.311
-548.339	-200.000	-0.060	-0.357
-547.325	42.296	0.292	0.267
-546.310	-157.236	0.217	-0.013
-545.296	146.886	-0.240	-0.325
-544.281	-169.917	-0.340	0.012
-543.266	-112.644	0.160	0.032
-542.252	184.212	-0.197	0.293
-541.237	220.785	0.060	-0.096
-540.223	270.367	-0.063	0.112
-539.208	186.857	-0.215	0.322
-538.193	-96.726	0.199	0.053
-537.179	20.677	0.115	-0.094
-536.164	206.783	0.168	0.264
-535.150	-200.000	-0.028	0.306
-534.135	-200.000	0.006	-0.143
-533.121	800.000	-0.048	0.151
-532.106	-73.879	0.302	-0.110
-531.091	800.000	-0.060	-0.184
-530.077	-77.454	0.218	0.076
-529.062	-84.557	0.170	-0.054
-528.048	578.440	0.046	0.113
-527.033	-70.896	-0.284	-0.108
-526.018	-36.708	0.247	0.133
-525.004	-40.340	0.600	-0.314
-523.989	-137.255	-0.089	-0.010
-522.975	-142.897	-0.101	0.010
-521.960	194.881	-0.166	-0.253
-520.945	800.000	-0.097	0.301
-519.931	549.442	-0.049	-0.117
-518.916	277.045	-0.174	0.311
-517.902	-200.000	0.035	-0.166
-516.887	800.000	0.084	-0.343
-515.872	-200.000	0.063	-0.395
-514.858	-200.000	-0.038	0.452
-513.843	79.851	-0.145	0.156
-512.829	-112.996	0.168	0.033
-511.814	-27.266	-0.276	-0.162
-510.799	800.000	0.077	-0.253
-509.785	-130.941	0.190	-0.026
-508.770	-200.000	0.047	0.511
-507.756	196.314	-0.101	-0.155
-506.741	-29.734	0.388	0.222
-505.726	7.241	-0.296	0.222
-504.712	-18.913	-0.138	-0.087
-503.697	800.000	0.034	-0.101
-502.683	714.917	0.039	0.105
-501.668	-94.999	0.202	-0.055
-500.653	-66.708	-0.274	0.109
-499.639	-114.066	0.123	0.024
-498.624	44.892	-0.217	0.200
-497.610	32.001	-0.005	0.005
-496.595	10.477	-0.097	-0.074
-495.581	177.052	-0.066	0.096
-494.566	-11.612	0.145	-0.096
-493.551	-96.389	-0.327	0.087
-492.537	-101.123	0.214	0.053
-491.522	420.074	-0.129	0.277
-490.508	-120.112	0.113	-0.019
-489.493	-7.953	-0.099	-0.067
-488.478	71.628	-0.062	-0.064
-487.464	-200.000	-0.004	-0.115
-486.449	-63.716	0.335	-0.138
-485.435	12.713	0.238	-0.184
-484.420	-56.953	0.215	0.095
-483.405	-200.000	0.001	-0.035
-482.391	132.129	0.120	-0.155
-481.376	529.565	0.140	-0.332
-480.362	-15.726	0.010	0.006
-479.347	505.038	0.065	-0.152
-478.332	113.126	0.111	0.135
-477.318	54.068	0.089	-0.085
-476.303	-139.359	0.545	-0.059
-475.289	35.119	-0.110	0.096
-474.274	-47.270	-0.275	-0.134
-473.259	-154.597	0.629	-0.042
-472.245	-67.801	0.155	0.061
-471.230	46.774	0.128	0.119
-470.216	64.728	-0.088	0.089
-469.201	-165.481	0.151	0.007
-468.186	605.282	0.066	0.166
-467.172	-102.331	-0.214	0.052
-466.157	463.472	0.061	0.136
-465.143	5.616	-0.154	0.114
-464.128	-58.137	0.184	-0.080
-463.113	-200.000	0.001	0.115
-462.099	53.957	0.169	-0.163
-461.084	-93.357	-0.159	-0.044
-460.070	-155.687	0.444	0.029
-459.055	-12.623	0.019	-0.013
-458.040	-72.058	-0.128	0.048
-457.026	-89.525	0.396	0.117
-456.011	-82.829	-0.186	0.060
-454.997	574.593	-0.108	0.264
-453.982	413.468	0.066	-0.140
-452.968	-117.403	-0.412	-0.075
-451.953	-118.514	0.181	-0.032
-450.938	-70.928	-0.108	0.041
-449.924	-200.000	-0.015	-0.119
-448.909	800.000	-0.075	0.247
-447.895	101.871	-0.283	-0.331
-446.880	339.906	0.120	0.235
-445.865	421.322	-0.138	0.297
-444.851	84.398	0.205	0.225
-443.836	54.128	-0.286	-0.276
-442.822	-38.478	-0.173	-0.092
-441.807	-56.226	0.216	0.096
-440.792	137.749	-0.161	0.211
-439.778	-37.021	0.110	0.059
-438.763	139.554	-0.184	-0.243
-437.749	-61.770	-0.192	-0.081
-436.734	-154.303	-0.181	-0.012
-435.719	32.081	-0.156	0.135
-434.705	124.535	0.204	0.258
-433.690	73.670	-0.069	0.072
-432.676	-15.664	0.343	-0.219
-431.661	773.643	0.136	-0.371
-430.646	788.735	0.099	0.271
-429.632	63.714	0.176	0.177
-428.617	-144.858	-0.255	0.023
-427.603	114.128	0.174	-0.212
-426.588	460.773	-0.109	0.242
-425.573	244.873	0.134	-0.225
-424.559	-56.328	-0.234	-0.104
-423.544	-144.982	0.239	-0.022
-422.530	-200.000	0.039	-0.274
-421.515	343.603	-0.097	-0.189
-420.500	50.994	-0.092	-0.088
-419.486	130.916	0.093	0.120
-418.471	-86.204	-0.358	0.110
-417.457	83.617	0.186	0.203
-416.442	800.000	-0.111	-0.308
-415.428	-200.000	0.017	0.088
-414.413	-102.465	-0.102	-0.024
-413.398	-60.392	-0.315	-0.134
-412.384	-50.610	0.201	0.095
-411.369	-76.995	0.042	0.015
-410.355	-27.451	-0.301	-0.175
-409.340	-200.000	-0.018	0.119
-408.325	-200.000	0.016	0.371
-407.311	800.000	0.095	-0.323
-406.296	800.000	0.101	-0.287
-405.282	84.978	0.111	-0.122
-404.267	-83.415	0.330	0.106
-403.252	-200.000	0.006	0.424
-402.238	34.611	-0.071	0.062
-401.223	800.000	-0.074	0.230
-400.209	206.102	-0.143	0.222
-399.194	54.660	0.164	0.158
-398.179	91.507	-0.131	0.147
-397.165	316.542	-0.045	0.085
-396.150	500.167	-0.124	-0.286
-395.136	399.730	-0.084	0.176
-394.121	-200.000	-0.016	0.371
-393.106	692.222	0.142	-0.372
-392.092	156.228	-0.247	-0.340
-391.077	-200.000	-0.000	-0.280
-390.063	794.234	0.032	-0.089
-389.048	72.598	-0.037	-0.038
-388.033	-200.000	-0.018	0.281
-387.019	-193.704	-0.168	0.001
-386.004	800.000	-0.038	0.152
-384.990	800.000	0.116	-0.370
-383.975	-200.000	0.219	0.000
-382.960	-200.000	-0.038	0.190
-381.946	-83.922	0.208	-0.066
-380.931	800.000	0.013	-0.041
-379.917	783.915	-0.069	0.188
-378.902	-56.231	-0.136	-0.060
-377.888	16.880	-0.062	-0.049
-376.873	370.983	-0.125	-0.252
-375.858	33.715	0.151	0.131
-374.844	378.365	0.188	0.385
-373.829	501.211	0.031	-0.071
-372.815	-195.010	-0.342	0.003
-371.800	-200.000	0.001	-0.292
-370.785	-152.847	-0.143	-0.010
-369.771	-200.000	-0.018	-0.106
-368.756	36.697	0.098	0.086
-367.742	-200.000	0.027	-0.167
-366.727	800.000	-0.043	0.188
-365.712	-200.000	-0.006	-0.330
-364.698	-125.122	0.168	-0.026
-363.683	-65.808	0.141	0.056
-362.669	-200.000	0.016	-0.175
-361.654	135.004	0.191	-0.247
-360.639	800.000	-0.078	-0.228
-359.625	-17.509	0.134	-0.084
-358.610	14.254	0.260	-0.202
-357.596	-200.000	0.052	0.317
-356.581	-130.852	0.171	-0.023
-355.566	800.000	-0.103	-0.285
-354.552	-10.406	0.211	0.139
-353.537	138.971	0.102	-0.133
-352.523	388.800	-0.013	0.028
-351.508	-0.875	-0.187	-0.132
-350.493	98.162	0.196	0.226
-349.479	-200.000	-0.038	0.374
-348.464	22.550	-0.021	0.017
-347.450	-20.525	0.326	0.200
-346.435	-72.312	-0.332	-0.123
-345.420	355.067	0.062	0.123
-344.406	-200.000	0.023	0.169
-343.391	110.512	-0.105	-0.126
-342.377	-72.452	-0.076	-0.028
-341.362	123.475	-0.174	-0.218
-340.348	668.587	-0.098	0.252
-339.333	653.510	0.199	-0.508
-338.318	-121.867	0.075	-0.012
-337.304	72.809	0.207	-0.216
-336.289	-88.490	0.198	0.059
-335.275	298.656	0.054	0.100
-334.260	-200.000	0.032	0.376
-333.245	-51.216	-0.508	0.237
-332.231	-3.723	0.084	0.058
-331.216	-127.946	0.277	0.040
-330.202	203.767	-0.216	0.333
-329.187	-149.960	0.293	0.023
-328.172	-155.102	0.101	-0.007
-327.158	701.470	0.050	-0.131
-326.143	-51.844	-0.078	0.036
-325.129	-200.000	-0.078	-0.402
-324.114	45.363	0.127	0.117
-323.099	-70.327	-0.212	0.080
-322.085	18.245	0.254	0.202
-321.070	800.000	0.041	0.128
-320.056	-38.945	-0.167	-0.088
-319.041	0.766	0.168	0.120
-318.026	172.414	0.123	-0.177
-317.012	212.412	-0.127	-0.199
-315.997	-146.960	-0.173	0.015
-314.983	-200.000	-0.025	0.171
-313.968	-171.826	0.284	-0.009
-312.953	-36.573	-0.407	0.218
-311.939	90.135	0.176	0.196
-310.924	226.034	-0.128	-0.207
-309.910	-200.000	-0.013	0.202
-308.895	-86.027	-0.144	-0.044
-307.880	-75.973	-0.219	-0.077
-306.866	-200.000	-0.042	0.190
-305.851	-53.805	-0.218	0.099
-304.837	-89.786	-0.254	0.074
-303.822	387.293	0.113	-0.233
-302.807	461.278	0.101	0.224
-301.793	-32.326	-0.133	0.074
-300.778	-101.242	-0.173	-0.042
-299.764	-101.094	-0.310	0.076
-298.749	-200.000	-0.005	0.086
-297.735	178.767	0.123	-0.178
-296.720	-171.357	0.220	-0.007
-295.705	-194.293	-0.048	0.000
-294.691	28.226	0.152	-0.128
-293.676	-31.272	0.470	-0.264
-292.662	31.352	-0.105	0.090
-291.647	233.607	-0.130	-0.213
-290.632	-200.000	-0.004	0.101
-289.618	-110.789	0.369	-0.076
-288.603	-54.158	-0.086	0.039
-287.589	-128.916	-0.060	0.008
-286.574	-155.240	0.230	0.015
-285.559	-159.708	-0.312	0.017
-284.545	104.438	-0.118	0.139
-283.530	-200.000	0.024	-0.218
-282.516	-48.559	-0.251	0.120
-281.501	-200.000	0.019	-0.503
-280.486	800.000	-0.048	-0.147
-279.472	-14.059	0.222	-0.142
-278.457	-164.512	-0.166	0.008
-277.443	-0.945	0.203	-0.143
-276.428	-200.000	-0.047	-0.453
-275.413	-125.337	-0.211	-0.032
-274.399	200.787	0.159	0.243
-273.384	422.562	-0.095	-0.204
-272.370	68.141	0.294	-0.300
-271.355	-200.000	-0.017	-0.154
-270.340	-200.000	0.002	-0.047
-269.326	-88.277	-0.146	-0.044
-268.311	-92.384	0.177	-0.049
-267.297	676.880	0.065	0.167
-266.282	-200.000	0.030	-0.232
-265.267	194.161	0.108	-0.162
-264.253	-154.665	0.261	-0.017
-263.238	-200.000	-0.009	0.041
-262.224	225.300	-0.165	0.265
-261.209	35.177	0.342	0.298
-260.195	695.353	0.045	0.116
-259.180	-84.397	0.224	-0.071
-258.165	-200.000	0.027	-0.202
-257.151	-118.432	-0.243	-0.043
-256.136	91.124	0.215	-0.240
-255.122	7.092	0.100	-0.074
-254.107	31.492	0.047	-0.040
-253.092	-88.272	-0.475	-0.141
-252.078	800.000	0.024	-0.077
-251.063	-200.000	-0.026	-0.357
-250.049	-85.081	0.387	-0.120
-249.034	-200.000	-0.011	0.085
-248.019	515.484	0.124	0.289
-247.005	104.566	0.279	-0.327
-245.990	800.000	0.081	-0.273
-244.976	69.388	-0.245	0.251
-243.961	-58.117	-0.178	-0.077
-242.946	-53.619	0.059	-0.027
-241.932	-8.818	-0.077	-0.051
-240.917	-38.250	0.192	-0.101
-239.903	-41.062	-0.058	-0.030
-238.888	784.499	-0.153	0.417
-237.873	-200.000	0.019	0.316
-236.859	-200.000	0.025	0.362
-235.844	-17.104	0.228	0.143
-234.830	-50.798	-0.367	-0.171
-233.815	346.385	-0.092	-0.179
-232.800	193.261	-0.063	0.094
-231.786	-80.038	0.390	0.130
-230.771	24.442	0.152	0.125
-229.757	231.237	0.124	-0.201
-228.742	45.141	0.366	-0.335
-227.727	-54.127	-0.019	0.008
-226.713	304.015	-0.170	-0.313
-225.698	-55.796	-0.448	-0.199
-224.684	16.405	-0.066	-0.051
-223.669	-105.461	-0.075	-0.017
-222.655	800.000	0.066	0.283
-221.640	47.567	0.126	0.117
-220.625	-200.000	-0.026	0.157
-219.611	800.000	0.101	0.396
-218.596	-89.315	-0.350	-0.102
-217.582	-200.000	0.017	-0.086
-216.567	800.000	0.049	0.181
-215.552	800.000	0.087	0.292
-214.538	-78.770	-0.422	-0.143
-213.523	-103.645	0.205	-0.048
-212.509	180.497	-0.100	-0.146
-211.494	-69.030	0.219	-0.084
-210.479	126.546	-0.088	-0.110
-209.465	800.000	0.078	-0.297
-208.450	800.000	0.106	-0.296
-207.436	800.000	-0.074	0.237
-206.421	-58.042	0.414	0.179
-205.406	-107.267	0.316	0.069
-204.392	-200.000	0.022	0.260
-203.377	-87.009	0.181	0.055
-202.363	658.661	-0.094	-0.241
-201.348	-150.816	-0.231	-0.017
-200.333	228.178	-0.186	0.300
-199.319	327.072	-0.159	0.302
-198.304	-84.040	-0.046	0.015
-197.290	27.523	0.176	0.146
-196.275	223.830	0.165	-0.264
-195.260	102.214	-0.151	-0.175
-194.246	302.161	-0.060	0.110
-193.231	574.201	0.006	-0.014
-192.217	697.311	-0.051	-0.132
-191.202	-90.829	-0.267	-0.076
-190.187	-154.098	-0.036	-0.002
-189.173	800.000	-0.124	-0.371
-188.158	27.989	0.097	-0.081
-187.144	108.226	-0.169	0.200
-186.129	800.000	-0.094	0.308
-185.114	-24.018	0.233	0.138
-184.100	-200.000	0.095	-0.424
-183.085	103.931	0.212	-0.247
-182.071	348.275	0.115	-0.224
-181.056	506.807	0.200	0.459
-180.042	-200.000	0.049	0.461
-179.027	-54.501	-0.427	0.192
-178.012	800.000	-0.136	0.380
-176.998	66.098	-0.150	-0.151
-175.983	800.000	0.130	0.559
-174.969	325.310	0.063	-0.120
-173.954	-200.000	-0.004	0.084
-172.939	7.308	0.118	0.087
-171.925	-38.406	0.401	0.210
-170.910	61.650	0.064	0.064
-169.896	800.000	0.080	0.268
-168.881	800.000	-0.146	0.453
-167.866	-200.000	-0.075	0.421
-166.852	572.821	0.095	0.228
-165.837	33.187	-0.182	-0.156
-164.823	-200.000	-0.024	-0.236
-163.808	40.134	-0.156	-0.139
-162.793	148.803	-0.113	0.152
-161.779	800.000	-0.098	0.284
-160.764	-59.740	-0.169	0.072
-159.750	-89.734	0.560	0.162
-158.735	-200.000	0.011	-0.319
-157.720	-200.000	0.016	-0.108
-156.706	-121.868	0.407	0.066
-155.691	-152.463	-0.251	-0.018
-154.677	7.478	-0.103	0.076
-153.662	145.462	-0.223	0.295
-152.647	-65.114	0.073	-0.029
-151.633	-200.000	-0.034	-0.238
-150.618	800.000	0.030	0.119
-149.604	102.125	0.047	0.054
-148.589	-85.548	0.242	0.074
-147.574	317.039	0.155	0.291
-146.560	800.000	0.065	-0.194
-145.545	7.660	-0.235	0.174
-144.531	-25.129	0.088	-0.052
-143.516	-153.123	-0.110	0.008
-142.502	-200.000	-0.086	0.397
-141.487	480.395	0.204	-0.458
-140.472	-27.027	0.112	-0.065
-139.458	186.083	0.094	-0.139
-138.443	374.355	-0.145	0.292
-137.429	-200.000	0.012	0.142
-136.414	12.997	-0.134	-0.103
-135.399	-105.701	0.398	0.089
-134.385	-200.000	0.069	0.368
-133.370	280.451	-0.108	-0.191
-132.356	-162.945	0.208	-0.010
-131.341	736.208	0.155	-0.411
-130.326	-48.700	-0.075	0.036
-129.312	-200.000	-0.019	-0.190
-128.297	-18.640	0.146	0.090
-127.283	441.950	0.070	-0.151
-126.268	546.900	-0.055	0.130
-125.253	65.796	0.071	-0.071
-124.239	133.653	-0.098	0.125
-123.224	486.216	0.078	0.175
-122.210	-200.000	-0.039	0.235
-121.195	451.704	0.146	-0.320
-120.180	800.000	-0.076	-0.254
-119.166	232.291	-0.231	-0.375
-118.151	59.171	-0.157	-0.152
-117.137	-117.455	-0.042	0.008
-116.122	332.943	-0.029	-0.055
-115.107	-200.000	-0.038	0.222
-114.093	240.303	0.139	-0.228
-113.078	-81.774	0.261	-0.085
-112.064	-24.156	0.216	0.128
-111.049	-71.737	-0.094	0.034
-110.034	-198.415	0.121	0.001
-109.020	-143.256	0.201	0.019
-108.005	246.409	-0.130	0.216
-106.991	-200.000	0.006	0.359
-105.976	4.992	-0.075	-0.055
-104.962	-149.391	-0.156	-0.012
-103.947	800.000	0.061	0.233
-102.932	-77.109	0.221	-0.076
-101.918	800.000	-0.012	-0.052
-100.903	292.662	-0.261	0.470
-99.889	29.400	-0.172	-0.145
-98.874	-115.552	-0.254	0.047
-97.859	-54.247	0.136	0.061
-96.845	800.000	-0.143	-0.504
-95.830	695.535	0.089	0.230
-94.816	800.000	-0.136	0.459
-93.801	240.799	-0.144	0.237
-92.786	-97.790	0.371	0.095
-91.772	-85.607	0.261	0.080
-90.757	-31.773	0.321	-0.178
-89.743	-46.772	0.201	-0.097
-88.728	-13.995	-0.097	-0.062
-87.713	-200.000	-0.021	0.218
-86.699	155.769	0.060	-0.082
-85.684	447.285	0.085	-0.185
-84.670	-107.497	0.198	0.043
-83.655	-72.618	-0.135	0.049
-82.640	-178.516	0.030	0.001
-81.626	566.363	-0.056	0.134
-80.611	77.617	0.038	-0.040
-79.597	800.000	-0.054	-0.152
-78.582	-118.781	0.412	-0.072
-77.567	-57.784	0.024	-0.010
-76.553	800.000	0.101	0.302
-75.538	-41.129	0.201	-0.103
-74.524	-62.604	-0.379	0.155
-73.509	-39.600	0.330	0.171
-72.494	-59.734	-0.284	0.120
-71.480	-74.166	0.087	0.031
-70.465	-200.000	-0.005	-0.034
-69.451	4.817	0.367	0.267
-68.436	-65.977	-0.270	0.106
-67.422	-140.695	0.279	-0.029
-66.407	97.420	-0.137	0.155
-65.392	227.855	0.037	0.059
-64.378	82.151	-0.320	0.342
-63.363	9.613	0.101	-0.075
-62.349	163.288	0.326	0.452
-61.334	91.584	-0.889	-0.986
-60.319	-31.046	0.442	0.246
-59.305	800.000	-0.258	-1.020
-58.290	800.000	0.311	0.981
-57.276	800.000	0.515	1.895
-56.261	-200.000	95.936	576.544
-55.246	514.840	1434.481	3303.152
-54.232	148.930	2626.027	3502.865
-53.217	110.902	2213.168	2627.636
-52.203	43.093	1740.114	1566.002
-51.188	35.720	1549.468	1343.113
-50.173	33.345	1522.429	1303.298
-49.159	52.999	1570.204	1481.892
-48.144	55.168	1588.074	1513.837
-47.130	35.971	1548.507	1343.822
-46.115	32.791	1533.085	1308.370
-45.100	32.702	1529.548	1304.685
-44.086	32.653	1528.009	1302.980
-43.071	32.665	1526.099	1301.385
-42.057	32.532	1524.796	1299.304
-41.042	32.531	1523.126	1297.824
-40.027	32.571	1521.276	1296.471
-39.013	32.577	1519.851	1295.245
-37.998	32.561	1518.873	1294.247
-36.984	32.673	1517.323	1293.648
-35.969	32.529	1516.238	1291.680
-34.954	32.555	1515.024	1290.772
-33.940	32.614	1513.109	1289.493
-32.925	32.595	1511.775	1288.180
-31.911	32.595	1510.480	1287.025
-30.896	32.597	1508.869	1285.615
-29.881	32.558	1508.330	1284.839
-28.867	32.591	1506.808	1283.716
-27.852	32.542	1505.195	1281.954
-26.838	32.721	1502.973	1281.229
-25.823	32.670	1501.526	1279.597
-24.809	32.689	1500.396	1278.710
-23.794	32.615	1499.128	1277.079
-22.779	32.618	1497.159	1275.369
-21.765	32.555	1496.553	1274.382
-20.750	32.619	1495.444	1273.818
-19.736	32.523	1494.343	1272.183
-18.721	32.519	1493.404	1271.301
-17.706	32.420	1492.695	1269.978
-16.692	32.431	1491.683	1269.143
-15.677	32.517	1490.710	1268.845
-14.663	32.546	1489.470	1267.937
-13.648	32.473	1488.563	1266.621
-12.633	32.553	1487.111	1265.873
-11.619	32.500	1486.979	1265.354
-10.604	32.450	1485.700	1263.883
-9.590	32.483	1484.756	1263.250
-8.575	32.435	1484.263	1262.454
-7.560	32.481	1483.099	1261.723
-6.546	32.520	1482.427	1261.364
-5.531	32.496	1481.219	1260.128
-4.517	32.428	1480.823	1259.286
-3.502	32.471	1479.211	1258.153
-2.487	32.418	1478.598	1257.227
-1.473	32.502	1476.837	1256.237
-0.458	32.548	1475.431	1255.296
0.556	31.309	1467.095	1246.936
1.571	29.182	1442.005	1211.533
2.586	26.252	1379.445	1140.405
3.600	24.149	1295.753	1058.638
4.615	22.149	1249.530	1009.305
5.629	18.994	1191.781	945.263
6.644	9.642	1103.376	827.270
7.659	1.786	1060.379	756.085
8.673	0.637	1054.306	746.016
9.688	0.371	1051.634	742.750
10.702	0.270	1049.892	740.955
11.717	0.393	1047.711	739.955
12.731	3.119	1051.146	755.722
13.746	11.774	1062.975	807.010
14.761	17.694	1070.159	841.706
15.775	17.582	1069.077	840.228
16.790	16.815	1066.365	834.248
17.804	15.594	1064.369	826.613
18.819	14.768	1062.387	820.942
19.834	14.337	1060.925	817.622
20.848	13.949	1060.429	815.262
21.863	13.814	1059.398	813.739
22.877	13.402	1058.708	811.117
23.892	13.348	1057.904	810.164
24.907	13.276	1056.800	808.897
25.921	13.261	1056.003	808.138
26.936	13.243	1055.489	807.587
27.950	13.268	1054.754	807.076
28.965	13.320	1054.094	806.754
29.980	13.363	1053.080	806.117
30.994	13.405	1051.879	805.327
32.009	13.506	1051.620	805.548
33.023	13.479	1050.444	804.448
34.038	13.517	1049.680	803.976
35.053	13.504	1048.552	802.976
36.067	13.534	1047.694	802.396
37.082	13.440	1046.879	801.246
38.096	13.433	1046.444	800.806
39.111	13.430	1045.892	800.297
40.126	13.436	1044.277	799.023
41.140	13.404	1043.562	798.247
42.155	13.347	1042.408	797.023
43.169	13.401	1041.772	796.723
44.184	13.245	1040.603	795.011
45.199	13.245	1039.753	794.289
46.213	13.307	1038.786	793.776
47.228	13.379	1037.276	792.898
48.242	13.424	1036.681	792.593
49.257	13.409	1035.774	791.754
50.271	13.385	1034.621	790.687
51.286	13.330	1033.916	789.819
52.301	13.497	1032.628	789.561
53.315	13.280	1032.908	788.670
54.330	13.378	1031.523	788.009
55.344	13.337	1030.971	787.322
56.359	13.392	1029.638	786.499
57.374	13.318	1028.811	785.441
58.388	13.303	1027.928	784.630
59.403	13.262	1026.824	783.523
60.417	13.255	1026.178	782.926
61.432	13.392	1025.769	783.192
62.447	13.321	1024.820	782.064
63.461	13.244	1023.856	780.893
64.476	13.241	1022.746	779.966
65.490	13.132	1022.280	779.028
66.505	13.187	1021.115	778.331
67.520	13.247	1020.314	777.933
68.534	13.234	1020.096	777.636
69.549	13.169	1019.214	776.590
70.563	13.300	1018.209	776.372
71.578	13.245	1017.577	775.562
72.593	13.211	1016.632	774.612
73.607	13.169	1015.976	773.848
74.622	13.254	1014.727	773.225
75.636	13.014	1014.246	771.670
76.651	13.114	1013.239	771.304
77.666	13.082	1012.630	770.622
78.680	13.251	1011.937	770.813
79.695	13.119	1011.494	769.792
80.709	13.229	1010.813	769.720
81.724	13.223	1009.980	768.989
82.739	13.263	1008.749	768.171
83.753	13.309	1008.111	767.831
84.768	13.331	1007.313	767.256
85.782	13.238	1006.927	766.460
86.797	13.321	1005.917	766.012
87.812	13.454	1004.785	765.696
88.826	13.342	1004.590	764.960
89.841	13.356	1003.559	764.171
90.855	13.288	1002.513	762.995
91.870	13.336	1001.678	762.512
92.884	13.509	1000.808	762.578
93.899	13.483	1000.039	761.806
94.914	13.490	999.578	761.423
95.928	13.473	998.947	760.795
96.943	13.573	997.760	760.284
97.957	13.489	997.148	759.362
98.972	13.370	996.701	758.408
99.987	13.455	995.594	757.888
101.001	13.371	995.017	757.000
102.016	13.512	994.401	757.109
103.030	13.343	993.400	755.509
104.045	13.403	992.538	755.060
105.060	13.537	991.054	754.474
106.074	13.418	990.426	753.387
107.089	13.299	989.494	752.068
108.103	13.302	989.062	751.691
109.118	13.269	987.911	750.599
110.133	13.318	986.789	749.903
111.147	13.309	986.047	749.230
112.162	13.282	985.056	748.291
113.176	13.288	984.457	747.795
114.191	13.425	983.675	747.752
115.206	13.447	982.891	747.190
116.220	13.324	981.995	745.889
117.235	13.327	981.287	745.300
118.249	13.326	980.162	744.373
119.264	13.362	979.532	743.992
120.279	13.341	978.542	743.079
121.293	13.402	977.852	742.762
122.308	13.392	976.801	741.853
123.322	13.466	975.949	741.472
124.337	13.432	974.797	740.379
125.352	13.270	974.051	739.026
126.366	13.297	972.879	738.188
127.381	13.302	971.895	737.401
128.395	13.255	971.131	736.546
129.410	13.291	970.108	735.867
130.424	13.409	968.782	735.318
131.439	13.286	968.336	734.368
132.454	13.353	967.598	734.040
133.468	13.348	966.733	733.300
134.483	13.428	966.156	733.150
135.497	13.469	965.503	732.773
136.512	13.483	964.434	731.959
137.527	13.478	963.912	731.471
138.541	13.420	963.059	730.506
139.556	13.357	962.414	729.676
140.570	13.462	961.456	729.348
141.585	13.368	960.890	728.440
142.600	13.432	960.049	728.017
143.614	13.579	958.896	727.724
144.629	13.568	958.543	727.343
145.643	13.613	957.669	726.814
146.658	13.616	956.732	726.051
147.673	13.452	955.894	724.632
148.687	13.476	954.862	723.892
149.702	13.388	954.511	723.176
150.716	13.436	953.019	722.192
151.731	13.498	951.973	721.606
152.746	13.337	951.604	720.562
153.760	13.506	951.043	720.810
154.775	13.490	950.153	720.001
155.789	13.567	949.521	719.794
156.804	13.498	949.075	719.090
157.819	13.587	947.754	718.413
158.833	13.565	947.155	717.798
159.848	13.533	946.856	717.372
160.862	13.602	946.053	716.997
161.877	13.623	945.320	716.469
162.892	13.678	943.994	715.638
163.906	13.614	943.388	714.838
164.921	13.598	942.727	714.206
165.935	13.652	941.658	713.567
166.950	13.726	940.602	713.022
167.964	13.617	940.174	712.163
168.979	13.720	938.730	711.448
169.994	13.607	937.786	710.189
171.008	13.635	937.355	709.917
172.023	13.612	936.481	709.096
173.037	13.693	935.792	708.858
174.052	13.809	934.859	708.584
175.067	13.700	934.342	707.661
176.081	13.700	933.454	706.926
177.096	13.622	932.729	705.982
178.110	13.568	931.841	705.021
179.125	13.766	931.017	705.176
180.140	13.754	930.252	704.483
181.154	13.740	929.478	703.775
182.169	13.824	928.799	703.554
183.183	13.802	928.472	703.152
184.198	13.727	927.835	702.287
185.213	13.837	927.095	702.133
186.227	13.777	926.388	701.283
187.242	13.944	925.638	701.356
188.256	13.882	925.246	700.737
189.271	13.926	924.389	700.213
190.286	14.024	923.488	699.877
191.300	13.821	922.586	698.277
192.315	13.741	922.497	697.813
193.329	13.790	921.310	697.060
194.344	13.765	920.539	696.309
195.359	13.745	920.365	696.034
196.373	13.745	919.793	695.537
197.388	13.845	919.038	695.326
198.402	13.884	918.675	695.150
199.417	14.032	917.941	695.152
200.432	14.070	917.572	694.970
201.446	14.113	917.348	694.921
202.461	14.143	916.814	694.579
203.475	14.137	916.313	694.112
204.490	14.095	915.341	693.141
205.504	14.184	914.752	693.003
206.519	14.029	914.127	691.823
207.534	13.983	913.345	690.979
208.548	14.190	912.264	690.959
209.563	14.037	911.928	690.012
210.577	14.078	911.547	689.830
211.592	14.024	910.725	688.923
212.607	14.094	910.293	688.828
213.621	14.352	909.379	689.143
214.636	14.219	908.729	688.038
215.650	14.194	907.949	687.282
216.665	14.253	907.407	687.057
217.680	14.307	907.052	686.947
218.694	14.406	906.034	686.526
219.709	14.325	905.866	686.002
220.723	14.290	905.544	685.555
221.738	14.240	904.813	684.734
222.753	14.336	904.098	684.529
223.767	14.347	902.987	683.670
224.782	14.434	902.068	683.271
225.796	14.308	901.605	682.343
226.811	14.594	900.648	682.729
227.826	14.513	900.161	681.969
228.840	14.640	899.124	681.640
229.855	14.402	898.902	680.439
230.869	14.486	898.034	680.068
231.884	14.428	897.462	679.335
232.899	14.489	897.154	679.293
233.913	14.483	896.037	678.361
234.928	14.450	895.273	677.590
235.942	14.380	894.799	676.885
236.957	14.495	893.743	676.496
237.972	14.559	893.235	676.311
238.986	14.492	892.686	675.562
240.001	14.496	892.063	675.045
241.015	14.531	891.539	674.731
242.030	14.487	891.089	674.153
243.045	14.465	890.216	673.346
244.059	14.567	889.732	673.332
245.074	14.570	888.980	672.715
246.088	14.641	888.232	672.377
247.103	14.630	887.874	672.001
248.117	14.643	886.968	671.308
249.132	14.665	886.855	671.251
250.147	14.891	885.931	671.399
251.161	14.690	885.935	670.536
252.176	14.841	884.424	669.938
253.190	14.777	883.733	669.098
254.205	14.958	883.456	669.554
255.220	15.067	882.427	669.153
256.234	15.004	882.011	668.524
257.249	14.983	881.474	667.976
258.263	14.876	880.816	666.992
259.278	14.935	880.531	666.949
260.293	15.029	880.091	666.933
261.307	15.022	879.357	666.292
262.322	15.194	878.298	666.113
263.336	14.994	878.297	665.258
264.351	15.031	877.621	664.833
265.366	15.080	876.850	664.385
266.380	15.126	876.269	664.068
267.395	15.316	875.321	664.043
268.409	15.186	874.941	663.183
269.424	15.214	873.873	662.425
270.439	15.117	873.251	661.512
271.453	15.106	872.625	660.936
272.468	15.228	871.680	660.643
273.482	15.193	871.066	659.981
274.497	15.259	870.521	659.771
275.512	15.253	870.143	659.403
276.526	15.130	869.268	658.195
277.541	15.280	868.792	658.367
278.555	15.260	867.838	657.509
279.570	15.377	867.207	657.432
280.585	15.329	867.145	657.138
281.599	15.290	866.581	656.497
282.614	15.355	865.937	656.206
283.628	15.365	864.666	655.225
284.643	15.240	864.437	654.503
285.657	15.307	864.374	654.663
286.672	15.368	863.779	654.388
287.687	15.347	863.268	653.865
288.701	15.381	862.881	653.644
289.716	15.374	862.196	653.039
290.730	15.414	861.669	652.741
291.745	15.351	861.017	651.943
292.760	15.561	859.762	651.750
293.774	15.404	859.541	650.918
294.789	15.451	859.169	650.757
295.803	15.566	858.207	650.418
296.818	15.676	857.510	650.257
297.833	15.546	857.036	649.340
298.847	15.670	856.143	649.084
299.862	15.633	855.503	648.397
300.876	15.711	854.868	648.159
301.891	15.648	854.474	647.559
302.906	15.634	853.858	646.984
303.920	15.628	853.049	646.288
304.935	15.649	852.749	646.087
305.949	15.644	852.006	645.446
306.964	15.712	851.430	645.214
307.979	15.857	850.651	645.121
308.993	15.748	850.688	644.674
310.008	15.753	849.741	643.919
311.022	15.831	849.324	643.846
312.037	15.876	848.905	643.642
313.052	15.739	848.529	642.777
314.066	15.672	847.705	641.839
315.081	15.851	846.781	641.767
316.095	15.657	846.703	640.912
317.110	15.763	845.751	640.538
318.125	15.835	845.562	640.611
319.139	15.743	844.916	639.716
320.154	15.811	844.630	639.701
321.168	15.902	843.856	639.405
322.183	15.769	843.498	638.570
323.197	15.873	842.643	638.262
324.212	15.869	842.014	637.715
325.227	15.967	841.626	637.736
326.241	15.935	840.990	637.075
327.256	16.067	840.596	637.219
328.270	16.134	839.779	636.794
329.285	16.007	839.412	635.983
330.300	15.887	839.016	635.172
331.314	15.933	838.136	634.625
332.329	15.896	837.624	634.042
333.343	16.056	836.602	633.812
334.358	15.959	836.622	633.408
335.373	16.039	835.945	633.138
336.387	15.912	835.629	632.366
337.402	16.030	835.187	632.418
338.416	16.129	834.175	631.968
339.431	16.103	833.759	631.501
340.446	16.190	833.428	631.520
341.460	16.296	832.469	631.134
342.475	16.294	831.934	630.665
343.489	16.279	831.558	630.268
344.504	16.272	830.998	629.762
345.519	16.455	830.304	629.862
346.533	16.345	830.173	629.295
347.548	16.375	829.380	628.749
348.562	16.288	829.443	628.420
349.577	16.104	828.679	627.099
350.592	16.246	827.953	627.023
351.606	16.244	827.167	626.366
352.621	16.314	827.246	626.628
353.635	16.327	826.618	626.144
354.650	16.242	826.638	625.790
355.665	16.339	825.925	625.556
356.679	16.307	825.468	625.033
357.694	16.262	825.258	624.653
358.708	16.466	824.028	624.422
359.723	16.528	823.517	624.209
360.738	16.344	823.236	623.262
361.752	16.406	822.665	623.002
362.767	16.471	821.989	622.675
363.781	16.575	821.504	622.636
364.796	16.601	821.279	622.504
365.810	16.708	820.831	622.501
366.825	16.648	820.499	621.974
367.840	16.749	819.812	621.770
368.854	16.686	819.806	621.480
369.869	16.470	819.305	620.254
370.883	16.549	818.951	620.218
371.898	16.677	818.023	619.930
372.913	16.686	817.596	619.583
373.927	16.871	816.469	619.353
374.942	16.776	816.386	618.888
375.956	16.772	815.654	618.265
376.971	16.752	814.937	617.591
377.986	16.769	814.823	617.513
379.000	16.817	813.907	616.938
380.015	16.926	813.898	617.273
381.029	16.801	813.002	616.087
382.044	16.944	812.249	615.979
383.059	16.916	811.839	615.513
384.073	16.870	811.420	614.974
385.088	17.026	810.917	615.104
386.102	16.825	810.488	613.997
387.117	16.869	809.657	613.473
388.132	16.867	809.533	613.314
389.146	16.875	808.949	612.849
390.161	16.929	808.723	612.818
391.175	16.909	808.434	612.472
392.190	17.035	807.913	612.477
393.205	16.976	807.181	611.656
394.219	16.961	806.759	611.230
395.234	16.935	806.454	610.849
396.248	16.949	805.850	610.389
397.263	16.997	805.291	610.084
398.278	16.981	804.732	609.550
399.292	17.044	804.170	609.294
400.307	17.068	803.815	609.058
401.321	16.856	803.730	608.178
402.336	16.957	803.307	608.168
403.350	17.094	802.805	608.226
404.365	17.132	802.318	607.938
405.380	17.224	801.797	607.818
406.394	17.141	801.638	607.348
407.409	17.103	801.284	606.890
408.423	17.368	800.483	607.174
409.438	17.390	799.874	606.737
410.453	17.371	799.656	606.451
411.467	17.271	799.181	605.683
412.482	17.386	798.924	605.841
413.496	17.319	798.446	605.188
414.511	17.492	797.719	605.197
415.526	17.489	797.318	604.829
416.540	17.335	797.459	604.336
417.555	17.307	797.122	603.929
418.569	17.453	795.998	603.539
419.584	17.447	795.690	603.231
420.599	17.481	795.212	602.936
421.613	106.396	1286.366	1454.873
422.628	91.348	1357.900	1454.953
