DTS Sentinel unit serial number:	SN413079Multiplexer serial number:	ORYXHardware model number:	OX4-SRSoftware version number:	ORYX F/W v4.00 Oryx Data Collector v3.7.2.0data status	okinstallation	princeton_trtdifferential loss correction	single-endedforward channel	channel 3reverse channel	N/Adate	2019/09/13time	14:24:35forward acquisition time	60.00reverse acquisition time	0.00gamma	496.2192k internal	0.2302k external	0.2302temperature offset calibration	1.0150default loss term (dB/km)	0.3790temperature slope calibration	1.0000multiplexer offset coefficient	1.0000multiplexer slope coefficient	1.0000fibre end	0.00T internal ref (°C)	35.27T ext. ref 1 (°C)	4.61T ext. ref 2 (°C)	30.81length (m)	temperature (°C)	Stokes	anti-Stokes-747.200	54.774	0.173	0.170
-746.185	800.000	0.070	0.236
-745.171	-44.902	-0.158	-0.080
-744.156	93.949	-0.206	-0.238
-743.142	33.761	-0.027	0.024
-742.127	-70.778	0.061	-0.024
-741.112	132.971	-0.124	0.163
-740.098	-119.832	0.097	0.017
-739.083	256.632	0.023	-0.040
-738.069	800.000	-0.033	0.125
-737.054	-167.460	0.056	0.002
-736.039	-52.397	-0.399	-0.188
-735.025	-127.536	0.302	-0.045
-734.010	607.052	0.183	-0.464
-732.996	-14.216	0.175	-0.115
-731.981	21.390	-0.168	-0.139
-730.966	634.681	0.083	0.215
-729.952	-74.435	-0.256	0.094
-728.937	788.404	0.031	-0.087
-727.923	-164.872	-0.183	0.008
-726.908	-200.000	-0.005	-0.048
-725.894	-48.644	-0.181	0.088
-724.879	-31.900	-0.135	-0.077
-723.864	-15.672	0.136	-0.088
-722.850	-131.251	0.245	-0.033
-721.835	121.805	0.028	0.036
-720.821	123.972	-0.141	-0.180
-719.806	-95.050	-0.160	-0.044
-718.791	634.351	0.192	-0.497
-717.777	-200.000	-0.040	0.353
-716.762	-26.373	-0.026	0.015
-715.748	138.193	0.159	0.213
-714.733	-200.000	-0.008	-0.138
-713.718	17.377	0.320	0.259
-712.704	-200.000	-0.120	0.000
-711.689	-16.964	0.227	-0.146
-710.675	136.418	0.094	-0.125
-709.660	-181.331	0.224	0.005
-708.645	99.984	0.191	-0.225
-707.631	-19.964	-0.185	-0.116
-706.616	-27.746	0.205	-0.121
-705.602	-90.595	-0.113	-0.033
-704.587	-146.569	0.309	0.027
-703.572	-122.150	0.147	-0.024
-702.558	441.703	-0.061	-0.135
-701.543	769.509	0.116	0.322
-700.529	195.052	-0.141	0.218
-699.514	409.848	0.053	0.115
-698.499	-15.863	0.127	0.082
-697.485	-200.000	-0.038	0.206
-696.470	-200.000	0.024	-0.379
-695.456	-106.520	0.156	0.035
-694.441	-15.292	0.169	0.110
-693.426	-13.252	-0.446	0.294
-692.412	-200.000	-0.029	-0.279
-691.397	-108.743	-0.409	0.089
-690.383	-39.623	-0.144	0.077
-689.368	-97.493	0.199	0.053
-688.354	-97.720	-0.297	0.078
-687.339	-114.683	0.219	-0.043
-686.324	800.000	-0.123	-0.371
-685.310	800.000	0.038	-0.154
-684.295	252.743	-0.181	0.314
-683.281	-10.254	-0.117	-0.079
-682.266	267.734	0.082	-0.145
-681.251	-131.627	0.051	-0.007
-680.237	754.943	-0.097	-0.267
-679.222	-100.980	-0.314	0.078
-678.208	800.000	0.110	0.395
-677.193	-113.708	-0.062	0.012
-676.178	334.238	-0.083	-0.163
-675.164	800.000	0.024	0.089
-674.149	313.165	0.171	-0.326
-673.135	-200.000	0.242	-0.001
-672.120	763.857	-0.076	0.209
-671.105	-120.918	-0.151	0.026
-670.091	-13.679	0.156	-0.102
-669.076	56.195	-0.224	-0.221
-668.062	494.895	0.095	-0.222
-667.047	112.894	0.161	0.199
-666.032	486.441	0.079	-0.182
-665.018	800.000	0.084	-0.284
-664.003	-95.815	0.147	-0.040
-662.989	800.000	0.016	-0.048
-661.974	-19.444	-0.395	-0.249
-660.959	281.554	-0.189	-0.345
-659.945	60.576	0.160	0.161
-658.930	-129.115	-0.051	0.007
-657.916	-200.000	0.008	-0.106
-656.901	-197.428	0.249	-0.002
-655.886	-200.000	0.029	0.137
-654.872	-200.000	-0.038	-0.183
-653.857	-95.146	0.222	-0.061
-652.843	-200.000	0.013	0.097
-651.828	124.846	0.100	-0.128
-650.814	-129.625	-0.520	-0.073
-649.799	103.454	-0.202	-0.240
-648.784	349.323	-0.055	-0.111
-647.770	-200.000	0.072	-0.428
-646.755	-177.110	0.189	0.005
-645.741	245.145	0.193	0.330
-644.726	-27.511	-0.254	-0.150
-643.711	-200.000	0.031	-0.148
-642.697	45.832	0.175	0.164
-641.682	-66.657	-0.195	-0.079
-640.668	-123.763	-0.413	-0.066
-639.653	-200.000	0.067	-0.368
-638.638	3.374	-0.192	-0.142
-637.624	14.688	0.137	-0.109
-636.609	289.109	-0.016	-0.029
-635.595	-147.480	0.432	0.037
-634.580	55.087	0.229	-0.224
-633.565	-200.000	0.023	0.295
-632.551	800.000	0.070	-0.214
-631.536	-200.000	-0.018	-0.281
-630.522	-62.798	-0.479	-0.201
-629.507	190.548	0.128	0.196
-628.492	129.396	0.142	-0.184
-627.478	-135.542	-0.280	-0.034
-626.463	-136.339	-0.330	0.039
-625.449	70.195	-0.169	-0.177
-624.434	6.153	0.086	-0.065
-623.419	-34.760	-0.486	0.269
-622.405	33.698	-0.076	-0.067
-621.390	-16.628	-0.102	0.065
-620.376	-41.206	0.250	0.131
-619.361	-141.377	-0.230	-0.024
-618.346	800.000	0.031	-0.102
-617.332	800.000	0.115	-0.351
-616.317	-41.100	0.173	0.091
-615.303	-42.567	-0.021	0.011
-614.288	-161.424	-0.183	-0.010
-613.273	170.984	0.088	-0.128
-612.259	-76.241	-0.272	-0.097
-611.244	563.055	0.105	-0.257
-610.230	-108.209	0.228	0.050
-609.215	-200.000	-0.016	0.101
-608.201	-165.417	0.108	0.005
-607.186	218.000	-0.055	0.089
-606.171	-200.000	0.035	-0.412
-605.157	252.072	-0.131	0.226
-604.142	-131.700	0.104	0.014
-603.128	79.390	-0.120	0.130
-602.113	-49.060	0.392	0.190
-601.098	-200.000	-0.004	-0.089
-600.084	-200.000	-0.341	0.001
-599.069	-80.933	0.166	-0.056
-598.055	-153.505	0.274	-0.019
-597.040	67.961	-0.151	0.156
-596.025	94.959	0.113	0.130
-595.011	466.293	-0.045	0.101
-593.996	-90.307	-0.165	0.049
-592.982	243.394	0.157	-0.267
-591.967	117.733	-0.021	-0.026
-590.952	729.795	0.042	-0.113
-589.938	198.751	-0.203	0.314
-588.923	-93.985	0.128	0.036
-587.909	111.518	0.097	0.118
-586.894	-61.906	0.164	0.070
-585.879	-66.507	0.164	0.066
-584.865	-167.295	0.459	-0.019
-583.850	-200.000	-0.007	-0.154
-582.836	175.011	0.202	-0.296
-581.821	532.949	-0.078	-0.186
-580.806	68.470	-0.172	-0.178
-579.792	-121.634	-0.078	-0.013
-578.777	800.000	-0.005	0.018
-577.763	-200.000	-0.021	0.147
-576.748	132.390	-0.217	0.283
-575.733	197.971	-0.037	0.057
-574.719	-93.710	0.425	-0.119
-573.704	-200.000	-0.062	0.358
-572.690	-107.311	0.139	-0.031
-571.675	105.024	-0.172	0.205
-570.661	-6.549	0.328	-0.226
-569.646	-74.638	-0.110	-0.040
-568.631	-132.371	0.280	-0.037
-567.617	-200.000	-0.224	0.000
-566.602	107.150	-0.143	-0.172
-565.588	-86.662	0.117	0.036
-564.573	100.485	-0.161	0.189
-563.558	242.651	0.038	-0.064
-562.544	-31.944	-0.196	-0.111
-561.529	201.619	-0.156	0.243
-560.515	-22.333	-0.153	-0.094
-559.500	-108.614	0.340	-0.074
-558.485	159.433	-0.100	-0.140
-557.471	269.082	-0.075	0.133
-556.456	77.075	0.176	0.189
-555.442	-79.944	0.132	0.045
-554.427	1.900	0.086	-0.063
-553.412	-23.882	0.133	-0.080
-552.398	130.041	0.131	-0.169
-551.383	-200.000	0.017	0.156
-550.369	-12.834	-0.271	0.178
-549.354	-57.112	-0.056	0.025
-548.339	110.062	-0.063	-0.077
-547.325	139.505	-0.124	-0.165
-546.310	14.795	0.174	0.138
-545.296	-55.446	0.075	-0.034
-544.281	211.171	0.151	0.241
-543.266	576.604	0.052	0.128
-542.252	-46.366	-0.053	-0.026
-541.237	159.674	0.120	0.169
-540.223	102.093	-0.074	0.087
-539.208	800.000	-0.091	0.270
-538.193	54.323	-0.139	0.135
-537.179	800.000	0.040	0.164
-536.164	153.110	-0.079	0.109
-535.150	-168.387	0.124	0.005
-534.135	-200.000	-0.056	-0.000
-533.121	-200.000	-0.042	-0.213
-532.106	-172.676	-0.269	0.009
-531.091	24.819	-0.323	-0.271
-530.077	53.572	0.143	0.139
-529.062	76.247	0.011	-0.012
-528.048	-140.962	0.307	-0.032
-527.033	17.097	-0.175	0.141
-526.018	271.128	0.097	-0.173
-525.004	122.625	-0.103	0.130
-523.989	-200.000	-0.034	0.154
-522.975	-64.772	0.026	-0.011
-521.960	115.846	0.167	0.206
-520.945	193.951	-0.057	-0.087
-519.931	100.420	0.210	0.246
-518.916	800.000	-0.062	-0.196
-517.902	800.000	0.050	-0.211
-516.887	-45.452	0.114	0.057
-515.872	-123.373	-0.332	-0.053
-514.858	-200.000	-0.032	-0.180
-513.843	-96.597	-0.150	-0.040
-512.829	-43.130	0.353	0.181
-511.814	-129.696	0.141	0.020
-510.799	-109.512	0.427	0.091
-509.785	-200.000	0.003	-0.272
-508.770	141.450	-0.017	-0.023
-507.756	537.230	-0.105	0.252
-506.741	178.069	0.058	0.086
-505.726	-87.747	0.177	0.054
-504.712	53.298	0.106	0.103
-503.697	-44.678	-0.155	0.078
-502.683	-150.091	-0.322	0.025
-501.668	800.000	-0.037	-0.111
-500.653	616.500	-0.090	-0.227
-499.639	800.000	0.075	0.324
-498.624	-29.286	-0.449	-0.260
-497.610	441.821	-0.067	0.147
-496.595	-200.000	0.005	0.237
-495.581	0.913	-0.398	-0.288
-494.566	-200.000	0.050	-0.300
-493.551	-57.936	0.066	0.029
-492.537	9.373	0.016	-0.012
-491.522	173.842	0.116	0.169
-490.508	-200.000	-0.007	0.440
-489.493	210.167	0.095	0.151
-488.478	-89.539	0.206	-0.061
-487.464	800.000	-0.031	-0.116
-486.449	800.000	0.073	0.265
-485.435	-200.000	0.035	-0.292
-484.420	-60.796	0.190	-0.081
-483.405	-142.453	0.277	-0.028
-482.391	-13.560	-0.139	-0.091
-481.376	345.209	-0.032	-0.064
-480.362	197.517	-0.131	-0.202
-479.347	-62.010	-0.129	-0.054
-478.332	-17.923	-0.013	-0.008
-477.318	800.000	0.055	-0.179
-476.303	-200.000	-0.083	-0.376
-475.289	-177.309	-0.080	0.002
-474.274	623.371	0.094	-0.239
-473.259	356.557	-0.204	-0.409
-472.245	-200.000	-0.023	-0.297
-471.230	-200.000	0.025	-0.244
-470.216	-200.000	-0.003	0.066
-469.201	272.763	0.034	-0.061
-468.186	-200.000	-0.002	-0.205
-467.172	345.947	0.214	0.424
-466.157	183.771	-0.076	-0.113
-465.143	492.281	-0.141	0.326
-464.128	-59.140	0.110	0.048
-463.113	428.965	0.071	-0.156
-462.099	170.441	-0.081	-0.117
-461.084	-167.369	-0.525	-0.021
-460.070	800.000	-0.063	0.190
-459.055	-200.000	0.009	-0.095
-458.040	71.833	-0.105	0.110
-457.026	368.031	0.089	0.182
-456.011	-61.824	-0.143	0.060
-454.997	588.364	0.019	-0.047
-453.982	-137.250	0.455	0.052
-452.968	800.000	-0.081	0.254
-451.953	150.760	0.084	-0.116
-450.938	495.604	-0.165	-0.382
-449.924	-200.000	0.002	-0.278
-448.909	-40.136	-0.346	-0.181
-447.895	-152.878	0.146	0.010
-446.880	104.586	0.109	-0.129
-445.865	642.615	0.084	-0.216
-444.851	-37.369	-0.120	-0.065
-443.836	345.985	0.132	-0.260
-442.822	116.053	0.139	-0.172
-441.807	800.000	-0.180	-0.517
-440.792	-200.000	0.046	-0.350
-439.778	113.275	-0.375	-0.458
-438.763	-99.964	-0.045	0.011
-437.749	50.178	0.291	0.277
-436.734	445.784	-0.080	0.177
-435.719	508.734	-0.052	-0.121
-434.705	-200.000	-0.013	0.126
-433.690	800.000	0.036	0.135
-432.676	-200.000	-0.015	-0.209
-431.661	22.475	0.156	0.129
-430.646	-200.000	0.052	-0.363
-429.632	-89.887	0.291	-0.086
-428.617	72.539	0.121	0.127
-427.603	-29.164	-0.040	0.023
-426.588	437.024	0.083	-0.182
-425.573	800.000	-0.081	0.259
-424.559	95.513	0.249	0.286
-423.544	289.408	-0.131	0.240
-422.530	-129.690	-0.407	-0.056
-421.515	-200.000	-0.021	-0.278
-420.500	57.143	0.147	0.144
-419.486	-28.793	0.125	0.073
-418.471	359.703	-0.033	0.067
-417.457	366.702	-0.087	-0.177
-416.442	800.000	0.045	0.140
-415.428	800.000	-0.138	0.567
-414.413	125.713	0.085	0.109
-413.398	715.030	-0.087	-0.233
-412.384	-200.000	0.014	0.297
-411.369	-30.679	0.128	0.073
-410.355	-101.717	-0.147	0.036
-409.340	-53.009	0.183	-0.085
-408.325	800.000	0.010	-0.038
-407.311	-56.134	-0.195	0.087
-406.296	-2.775	0.119	-0.084
-405.282	-130.551	0.132	-0.018
-404.267	-114.071	0.367	-0.071
-403.252	800.000	-0.036	-0.145
-402.238	-74.201	0.284	-0.103
-401.223	75.504	-0.135	-0.144
-400.209	529.890	0.135	-0.321
-399.194	-200.000	0.051	0.338
-398.179	-44.845	-0.156	-0.078
-397.165	-37.425	0.321	0.172
-396.150	-91.123	-0.123	0.036
-395.136	-200.000	-0.046	0.260
-394.121	6.121	-0.170	0.127
-393.106	39.640	-0.203	0.183
-392.092	-9.838	-0.121	-0.081
-391.077	286.177	0.052	0.095
-390.063	16.787	-0.134	-0.107
-389.048	177.033	0.208	-0.304
-388.033	22.667	-0.240	-0.198
-387.019	-200.000	0.064	0.290
-386.004	628.577	-0.122	0.309
-384.990	-28.331	0.190	0.110
-383.975	800.000	0.059	0.211
-382.960	-200.000	-0.026	0.423
-381.946	800.000	-0.148	0.422
-380.931	-33.551	-0.092	0.051
-379.917	-99.363	0.048	0.012
-378.902	377.605	-0.048	0.099
-377.888	432.457	-0.041	0.088
-376.873	-30.239	0.259	-0.148
-375.858	-18.376	0.246	0.155
-374.844	-52.101	0.217	-0.101
-373.829	-200.000	0.036	0.221
-372.815	-137.893	0.218	-0.024
-371.800	436.720	-0.079	0.173
-370.785	800.000	-0.046	-0.187
-369.771	-200.000	0.047	-0.221
-368.756	-200.000	-0.007	-0.216
-367.742	-12.916	-0.084	0.055
-366.727	-200.000	0.002	0.121
-365.712	-41.478	-0.127	0.066
-364.698	448.137	0.105	0.231
-363.683	-120.551	0.111	-0.019
-362.669	295.506	0.052	-0.095
-361.654	-200.000	-0.049	0.239
-360.639	-200.000	0.038	-0.330
-359.625	-200.000	-0.027	0.139
-358.610	59.195	0.075	-0.074
-357.596	-200.000	0.039	-0.230
-356.581	212.729	0.149	0.236
-355.566	800.000	0.067	0.240
-354.552	-200.000	-0.023	-0.155
-353.537	23.846	-0.141	0.116
-352.523	198.422	-0.086	0.133
-351.508	-65.881	0.180	0.072
-350.493	-35.994	0.419	0.228
-349.479	-113.484	0.105	0.021
-348.464	-64.252	0.390	-0.159
-347.450	6.339	-0.202	-0.151
-346.435	-61.208	0.205	-0.087
-345.420	-104.817	-0.251	-0.058
-344.406	-27.240	0.143	0.084
-343.391	-135.810	-0.171	-0.020
-342.377	-200.000	0.172	0.000
-341.362	-200.000	0.001	0.448
-340.348	-43.244	-0.183	0.093
-339.333	-200.000	-0.031	0.144
-338.318	81.409	-0.050	-0.054
-337.304	201.458	0.130	-0.201
-336.289	-35.303	-0.050	-0.027
-335.275	-62.852	-0.061	0.025
-334.260	13.296	0.142	0.110
-333.245	800.000	-0.048	-0.188
-332.231	312.181	0.076	-0.144
-331.216	-91.591	-0.229	0.065
-330.202	-61.888	-0.218	-0.091
-329.187	-200.000	-0.056	0.455
-328.172	-88.664	-0.248	0.074
-327.158	-172.515	-0.330	0.010
-326.143	136.634	-0.086	0.113
-325.129	542.807	0.098	0.235
-324.114	-56.413	0.171	-0.076
-323.099	-119.174	0.272	-0.048
-322.085	-117.343	-0.078	0.014
-321.070	103.494	-0.186	-0.219
-320.056	-156.711	-0.065	0.004
-319.041	-103.885	-0.363	-0.085
-318.026	-169.028	0.188	0.007
-317.012	85.220	0.180	0.198
-315.997	-200.000	0.015	0.142
-314.983	150.025	-0.124	-0.168
-313.968	800.000	-0.062	-0.230
-312.953	-31.420	-0.269	0.151
-311.939	55.169	0.044	0.042
-310.924	-38.280	-0.285	0.151
-309.910	-200.000	-0.007	0.204
-308.895	325.313	-0.136	0.261
-307.880	-157.919	-0.255	-0.015
-306.866	-103.968	-0.267	-0.062
-305.851	186.046	0.083	-0.124
-304.837	-69.948	-0.111	0.043
-303.822	-96.066	0.038	0.010
-302.807	-127.640	0.018	-0.003
-301.793	-85.807	-0.044	-0.014
-300.778	-14.847	-0.327	-0.210
-299.764	-15.883	-0.125	-0.080
-298.749	-197.268	0.175	0.001
-297.735	-105.604	-0.206	-0.047
-296.720	-62.509	0.282	0.117
-295.705	-200.000	0.044	0.307
-294.691	107.421	-0.224	0.267
-293.676	800.000	-0.053	-0.211
-292.662	360.783	0.079	-0.158
-291.647	-200.000	-0.055	0.257
-290.632	-91.720	0.333	0.095
-289.618	-145.189	-0.354	-0.032
-288.603	-52.445	-0.204	-0.094
-287.589	-165.696	-0.276	-0.012
-286.574	122.384	0.014	0.018
-285.559	-14.546	0.230	-0.148
-284.545	30.929	0.170	0.146
-283.530	-73.487	0.058	0.021
-282.516	682.003	-0.107	0.280
-281.501	104.897	-0.160	0.188
-280.486	-45.940	-0.398	0.196
-279.472	383.085	0.051	0.105
-278.457	-89.369	0.302	-0.089
-277.443	-9.372	-0.304	-0.203
-276.428	-24.154	0.186	-0.111
-275.413	-200.000	0.004	0.021
-274.399	159.661	0.124	-0.172
-273.384	2.217	0.203	-0.147
-272.370	156.482	-0.091	-0.126
-271.355	281.670	-0.099	0.177
-270.340	115.868	0.125	0.153
-269.326	-9.669	-0.357	-0.238
-268.311	208.988	0.038	0.059
-267.297	-65.787	-0.300	-0.120
-266.282	-164.135	0.342	-0.016
-265.267	4.297	0.238	-0.175
-264.253	-95.869	-0.041	-0.011
-263.238	23.605	-0.069	0.057
-262.224	-138.240	0.053	-0.006
-261.209	64.034	-0.198	0.199
-260.195	800.000	-0.041	-0.149
-259.180	-34.327	-0.075	-0.041
-258.165	113.757	-0.253	0.308
-257.151	-179.097	0.077	-0.002
-256.136	-144.519	0.283	-0.026
-255.122	72.739	0.254	0.265
-254.107	-79.429	-0.176	0.060
-253.092	-200.000	-0.002	0.067
-252.078	35.001	-0.099	0.086
-251.063	-129.568	-0.146	-0.020
-250.049	-200.000	0.008	0.199
-249.034	94.220	-0.210	0.239
-248.019	800.000	0.056	-0.226
-247.005	-184.436	-0.076	0.001
-245.990	-90.369	-0.138	0.040
-244.976	800.000	-0.157	0.533
-243.961	-89.696	0.248	0.073
-242.946	267.069	-0.188	0.328
-241.932	-200.000	-0.016	-0.217
-240.917	-60.588	0.215	-0.091
-239.903	265.073	0.061	-0.107
-238.888	800.000	-0.069	-0.196
-237.873	-0.567	0.090	-0.064
-236.859	181.302	0.080	-0.118
-235.844	800.000	0.032	0.094
-234.830	109.132	0.037	0.044
-233.815	-125.155	0.478	-0.073
-232.800	-1.389	0.111	-0.078
-231.786	221.741	-0.125	-0.201
-230.771	-177.861	-0.107	0.003
-229.757	53.343	-0.132	-0.126
-228.742	427.351	-0.123	0.265
-227.727	71.630	-0.044	0.046
-226.713	-63.761	0.112	0.046
-225.698	-200.000	-0.000	0.215
-224.684	170.604	-0.052	-0.075
-223.669	26.853	0.139	-0.116
-222.655	129.110	0.140	-0.178
-221.640	368.690	-0.128	-0.259
-220.625	91.639	0.098	0.110
-219.611	481.887	0.054	0.122
-218.596	209.347	-0.176	-0.276
-217.582	-94.445	0.052	0.014
-216.567	-200.000	-0.020	-0.103
-215.552	-70.910	0.129	0.049
-214.538	160.916	-0.251	0.350
-213.523	-200.000	0.037	0.178
-212.509	-96.903	-0.177	0.046
-211.494	26.071	0.451	-0.375
-210.479	56.837	0.112	-0.109
-209.465	-65.185	0.464	-0.187
-208.450	-200.000	0.012	-0.284
-207.436	-123.127	-0.286	0.046
-206.421	-200.000	-0.022	0.121
-205.406	-146.460	-0.229	0.020
-204.392	233.885	0.236	0.388
-203.377	74.854	0.117	-0.122
-202.363	-200.000	-0.063	0.294
-201.348	21.672	0.192	-0.156
-200.333	-200.000	0.004	0.247
-199.319	-200.000	-0.013	0.087
-198.304	86.560	-0.178	-0.196
-197.290	-200.000	0.007	0.097
-196.275	-47.061	-0.145	0.071
-195.260	30.648	0.209	0.178
-194.246	-31.304	0.141	0.079
-193.231	213.104	-0.019	-0.030
-192.217	-93.502	-0.230	-0.063
-191.202	203.665	-0.084	0.129
-190.187	29.871	0.095	0.081
-189.173	-28.872	-0.302	-0.173
-188.158	-73.777	0.166	0.060
-187.144	-3.324	-0.044	-0.031
-186.129	-200.000	-0.030	-0.156
-185.114	-85.133	0.172	0.054
-184.100	-200.000	-0.004	0.054
-183.085	-108.663	0.138	-0.030
-182.071	-134.957	0.209	0.025
-181.056	800.000	-0.043	-0.174
-180.042	-200.000	-0.011	-0.295
-179.027	-20.561	0.036	-0.022
-178.012	-52.043	0.199	-0.092
-176.998	184.941	-0.044	0.066
-175.983	-8.339	0.227	0.152
-174.969	75.348	-0.093	0.097
-173.954	-155.389	0.208	-0.013
-172.939	150.960	-0.135	0.183
-171.925	800.000	0.037	0.142
-170.910	108.596	0.200	0.238
-169.896	-52.802	0.036	0.017
-168.881	-85.800	-0.441	-0.136
-167.866	-200.000	-0.062	0.281
-166.852	-115.731	0.275	0.051
-165.837	4.231	-0.215	-0.157
-164.823	-200.000	-0.001	-0.225
-163.808	-200.000	0.003	-0.146
-162.793	-69.323	0.141	0.054
-161.779	-200.000	-0.012	-0.474
-160.764	800.000	0.093	-0.325
-159.750	391.494	0.046	-0.096
-158.735	800.000	-0.051	-0.218
-157.720	-51.032	-0.078	-0.036
-156.706	-112.485	0.164	-0.033
-155.691	800.000	0.017	-0.063
-154.677	-66.584	0.077	-0.030
-153.662	16.256	-0.207	-0.163
-152.647	148.435	0.110	0.148
-151.633	191.537	0.035	0.053
-150.618	131.056	0.144	-0.184
-149.604	120.416	0.156	-0.192
-148.589	-82.915	-0.382	-0.123
-147.574	174.351	-0.104	-0.150
-146.560	-101.047	0.287	-0.070
-145.545	264.603	-0.122	0.212
-144.531	-200.000	-0.006	0.031
-143.516	-14.092	0.308	-0.198
-142.502	200.412	0.144	0.221
-141.487	-200.000	0.021	0.326
-140.472	800.000	-0.066	0.247
-139.458	-39.848	-0.172	0.090
-138.443	-94.594	-0.342	0.092
-137.429	0.599	-0.149	-0.106
-136.414	-40.918	-0.119	0.061
-135.399	413.306	-0.079	-0.167
-134.385	-200.000	0.025	0.242
-133.370	-88.521	0.318	-0.094
-132.356	800.000	-0.099	0.347
-131.341	800.000	-0.075	0.302
-130.326	-3.815	0.088	-0.061
-129.312	-65.798	0.226	0.090
-128.297	800.000	-0.035	-0.115
-127.283	-105.388	0.356	-0.081
-126.268	-12.477	-0.058	0.038
-125.253	68.941	0.215	0.220
-124.239	102.888	0.069	0.080
-123.224	323.204	-0.149	0.282
-122.210	293.985	0.065	0.118
-121.195	-98.205	0.192	0.049
-120.180	478.175	0.165	-0.372
-119.166	-87.374	0.411	-0.124
-118.151	-52.046	-0.106	0.049
-117.137	-120.898	0.145	-0.024
-116.122	-148.544	0.163	0.013
-115.107	-114.602	0.338	0.064
-114.093	578.559	0.173	-0.420
-113.078	422.793	-0.141	0.300
-112.064	67.363	-0.186	-0.188
-111.049	181.345	-0.103	0.151
-110.034	-68.490	0.093	-0.036
-109.020	-29.420	0.234	-0.133
-108.005	626.946	-0.101	0.253
-106.991	-14.263	0.227	0.145
-105.976	207.494	0.056	0.087
-104.962	-113.776	0.024	-0.005
-103.947	-200.000	-0.009	-0.203
-102.932	-48.653	-0.155	0.074
-101.918	-0.343	0.230	-0.163
-100.903	-44.851	0.129	0.064
-99.889	-200.000	0.039	-0.212
-98.874	121.249	0.105	0.130
-97.859	111.088	0.294	-0.352
-96.845	-95.713	0.204	-0.054
-95.830	71.648	0.292	0.301
-94.816	485.555	0.136	-0.309
-93.801	-95.999	0.247	-0.065
-92.786	-200.000	-0.006	0.096
-91.772	4.985	0.055	-0.040
-90.757	-200.000	0.015	-0.224
-89.743	1.586	-0.054	-0.039
-88.728	-200.000	-0.001	-0.089
-87.713	10.370	0.196	0.148
-86.699	56.605	-0.105	-0.102
-85.684	-176.860	-0.180	0.005
-84.670	-184.129	-0.003	0.000
-83.655	-200.000	0.010	0.460
-82.640	13.119	-0.246	-0.189
-81.626	-170.208	-0.180	-0.006
-80.611	-200.000	0.042	-0.446
-79.597	377.387	-0.101	-0.205
-78.582	362.700	0.066	0.132
-77.567	-200.000	-0.003	-0.136
-76.553	-74.181	0.216	0.078
-75.538	-2.940	0.093	0.064
-74.524	15.125	-0.094	0.073
-73.509	11.690	-0.159	0.121
-72.494	579.620	0.095	0.230
-71.480	-200.000	-0.022	0.115
-70.465	79.639	-0.129	-0.138
-69.451	382.125	0.056	0.115
-68.436	725.684	0.077	-0.204
-67.422	418.458	-0.190	0.404
-66.407	800.000	0.063	-0.267
-65.392	504.601	0.116	-0.266
-64.378	70.675	-0.192	0.197
-63.363	-72.329	-0.118	-0.043
-62.349	-200.000	-0.022	0.403
-61.334	-14.842	-1.118	-0.712
-60.319	71.577	0.352	0.362
-59.305	800.000	-0.211	-0.703
-58.290	62.883	0.741	0.736
-57.276	575.871	0.644	1.559
-56.261	-200.000	94.678	559.727
-55.246	630.867	1383.137	3472.767
-54.232	185.846	2601.858	3836.625
-53.217	121.621	2214.804	2739.038
-52.203	45.789	1747.599	1602.846
-51.188	38.342	1556.817	1375.680
-50.173	35.841	1529.094	1333.818
-49.159	53.803	1578.989	1504.322
-48.144	57.405	1598.367	1548.115
-47.130	38.718	1553.628	1375.284
-46.115	35.467	1538.095	1338.846
-45.100	35.360	1534.937	1335.299
-44.086	35.244	1533.338	1333.051
-43.071	35.253	1531.047	1331.070
-42.057	35.263	1529.318	1329.582
-41.042	35.163	1528.000	1327.690
-40.027	35.195	1526.578	1326.621
-39.013	35.228	1524.853	1325.301
-37.998	35.219	1523.855	1324.320
-36.984	35.188	1522.751	1323.094
-35.969	35.226	1521.293	1322.036
-34.954	35.240	1519.336	1320.379
-33.940	35.151	1518.828	1319.272
-32.925	35.250	1517.119	1318.415
-31.911	35.330	1515.559	1317.556
-30.896	35.304	1513.774	1315.772
-29.881	35.372	1512.935	1315.458
-28.867	35.386	1511.322	1314.102
-27.852	35.289	1509.786	1312.051
-26.838	35.316	1508.313	1310.902
-25.823	35.313	1507.078	1309.757
-24.809	35.275	1505.479	1308.053
-23.794	35.366	1503.473	1306.882
-22.779	35.265	1502.895	1305.634
-21.765	35.314	1501.610	1304.802
-20.750	35.348	1500.762	1304.242
-19.736	35.451	1499.155	1303.497
-18.721	35.326	1498.369	1301.913
-17.706	35.335	1497.090	1300.814
-16.692	35.260	1496.128	1299.416
-15.677	35.227	1495.367	1298.482
-14.663	35.227	1493.746	1297.023
-13.648	35.154	1493.016	1295.842
-12.633	35.248	1491.791	1295.365
-11.619	35.271	1491.455	1295.175
-10.604	35.185	1490.728	1293.908
-9.590	35.203	1489.658	1293.052
-8.575	35.213	1488.887	1292.402
-7.560	35.293	1487.949	1292.070
-6.546	35.253	1486.767	1290.728
-5.531	35.252	1486.208	1290.180
-4.517	35.203	1485.449	1289.145
-3.502	35.181	1484.444	1288.071
-2.487	35.296	1482.796	1287.364
-1.473	35.326	1481.716	1286.573
-0.458	35.257	1480.189	1284.734
0.556	37.354	1471.361	1273.852
1.571	34.174	1443.429	1229.068
2.586	29.893	1379.297	1147.873
3.600	27.516	1294.225	1063.129
4.615	25.222	1245.926	1010.455
5.629	21.251	1188.180	942.164
6.644	12.841	1102.296	831.723
7.659	5.825	1060.545	765.984
8.673	4.837	1054.784	756.958
9.688	4.796	1051.382	754.251
10.702	4.241	1050.248	750.683
11.717	4.577	1048.994	751.345
12.731	7.960	1051.857	769.704
13.746	16.410	1064.113	819.761
14.761	22.082	1070.776	852.427
15.775	22.212	1070.126	852.468
16.790	21.415	1068.341	847.112
17.804	20.351	1066.462	840.398
18.819	19.539	1064.215	834.626
19.834	19.161	1062.928	831.719
20.848	18.909	1062.417	830.027
21.863	18.872	1061.273	828.884
22.877	18.740	1060.665	827.697
23.892	18.496	1059.761	825.744
24.907	18.382	1059.143	824.640
25.921	18.382	1058.539	824.098
26.936	18.468	1057.421	823.571
27.950	18.423	1056.274	822.389
28.965	18.529	1055.274	822.044
29.980	18.579	1053.905	821.141
30.994	18.706	1052.930	820.918
32.009	18.841	1052.199	820.921
33.023	18.745	1052.034	820.261
34.038	18.780	1050.837	819.422
35.053	18.688	1049.699	818.024
36.067	18.492	1048.856	816.360
37.082	18.480	1048.127	815.664
38.096	18.411	1047.564	814.826
39.111	18.660	1046.744	815.298
40.126	18.731	1046.005	814.990
41.140	18.590	1044.189	812.834
42.155	18.393	1043.267	811.111
43.169	18.204	1042.176	809.296
44.184	18.046	1041.706	808.115
45.199	18.032	1040.226	806.830
46.213	18.226	1038.565	806.385
47.228	18.144	1038.147	805.600
48.242	18.567	1037.018	806.642
49.257	18.528	1036.768	806.193
50.271	18.435	1035.932	805.033
51.286	18.447	1034.901	804.218
52.301	18.557	1034.150	804.080
53.315	18.445	1033.501	802.978
54.330	18.474	1032.140	801.986
55.344	18.412	1030.761	800.553
56.359	18.239	1030.169	799.216
57.374	18.280	1029.340	798.692
58.388	18.354	1028.575	798.375
59.403	18.137	1027.490	796.449
60.417	18.104	1026.775	795.674
61.432	18.050	1026.194	794.899
62.447	18.121	1025.856	794.899
63.461	17.979	1024.499	793.117
64.476	17.992	1023.425	792.279
65.490	18.000	1021.898	791.062
66.505	17.987	1021.163	790.360
67.520	17.940	1020.860	789.841
68.534	17.933	1020.386	789.372
69.549	17.868	1019.567	788.367
70.563	17.847	1019.076	787.821
71.578	18.079	1017.655	787.721
72.593	17.984	1016.664	786.450
73.607	17.759	1015.599	784.521
74.622	17.673	1015.084	783.657
75.636	17.632	1014.575	783.005
76.651	17.711	1013.722	782.640
77.666	17.834	1012.848	782.461
78.680	18.020	1011.808	782.440
79.695	17.886	1011.565	781.572
80.709	17.792	1011.464	780.994
81.724	18.002	1010.236	780.934
82.739	18.114	1009.331	780.681
83.753	18.123	1008.719	780.179
84.768	18.296	1008.147	780.453
85.782	18.620	1007.799	781.591
86.797	18.757	1007.466	781.889
87.812	18.884	1006.293	781.487
88.826	18.716	1004.932	779.599
89.841	18.561	1004.602	778.571
90.855	18.648	1003.477	778.023
91.870	18.652	1003.113	777.689
92.884	18.739	1002.179	777.290
93.899	18.745	1001.585	776.790
94.914	18.709	1000.693	775.868
95.928	18.822	999.707	775.542
96.943	18.944	998.814	775.329
97.957	18.692	998.396	773.804
98.972	18.631	997.425	772.705
99.987	18.561	997.415	772.313
101.001	18.743	996.273	772.180
102.016	18.730	995.462	771.425
103.030	18.563	994.640	769.972
104.045	18.625	993.504	769.304
105.060	18.642	993.111	769.007
106.074	18.482	991.622	767.068
107.089	18.243	990.345	764.944
108.103	18.147	989.082	763.471
109.118	18.064	988.644	762.698
110.133	18.015	987.468	761.506
111.147	17.922	986.890	760.575
112.162	17.843	986.259	759.670
113.176	17.993	985.088	759.371
114.191	18.097	984.190	759.070
115.206	18.233	983.387	758.987
116.220	18.241	982.385	758.181
117.235	18.097	982.038	757.211
118.249	18.110	980.820	756.263
119.264	18.045	980.028	755.296
120.279	17.971	979.362	754.390
121.293	17.938	978.458	753.483
122.308	17.822	978.077	752.611
123.322	17.866	976.484	751.512
124.337	17.793	975.346	750.247
125.352	17.691	974.543	749.113
126.366	17.843	973.335	748.790
127.381	17.813	972.271	747.770
128.395	17.820	971.600	747.220
129.410	17.838	970.498	746.384
130.424	17.798	969.995	745.757
131.439	17.930	969.318	745.748
132.454	18.098	968.502	745.786
133.468	18.218	967.662	745.597
134.483	18.136	967.065	744.713
135.497	18.123	966.451	744.118
136.512	18.082	965.958	743.494
137.527	18.212	964.741	743.056
138.541	18.159	964.110	742.273
139.556	18.165	963.804	742.001
140.570	18.239	962.612	741.335
141.585	18.330	961.806	741.045
142.600	18.519	961.586	741.627
143.614	18.535	960.955	741.144
144.629	18.728	959.847	741.057
145.643	18.755	959.529	740.862
146.658	18.639	958.635	739.605
147.673	18.591	957.454	738.423
148.687	18.361	956.592	736.706
149.702	18.301	955.515	735.550
150.716	18.112	954.709	734.055
151.731	18.131	953.742	733.326
152.746	18.227	952.885	733.015
153.760	18.261	952.090	732.486
154.775	18.287	951.797	732.304
155.789	18.378	950.641	731.741
156.804	18.352	950.265	731.273
157.819	18.317	949.469	730.450
158.833	18.502	948.814	730.666
159.848	18.651	948.090	730.681
160.862	18.607	947.940	730.314
161.877	18.640	946.554	729.321
162.892	18.425	945.539	727.562
163.906	18.132	945.095	725.911
164.921	18.174	943.238	724.599
165.935	18.221	942.316	724.024
166.950	18.274	941.382	723.466
167.964	18.416	940.926	723.654
168.979	18.327	939.766	722.320
169.994	18.298	938.795	721.390
171.008	18.217	938.258	720.570
172.023	18.324	937.473	720.355
173.037	18.582	936.679	720.765
174.052	18.772	935.800	720.825
175.067	18.583	935.430	719.681
176.081	18.440	934.166	718.044
177.096	18.181	933.163	716.128
178.110	18.158	932.480	715.444
179.125	18.149	932.348	715.243
180.140	18.376	930.772	714.918
181.154	18.379	930.084	714.335
182.169	18.478	929.737	714.418
183.183	18.651	929.269	714.720
184.198	18.591	928.601	713.893
185.213	18.660	928.132	713.756
186.227	18.618	927.368	712.928
187.242	18.659	927.167	712.883
188.256	18.710	926.537	712.547
189.271	18.968	925.457	712.722
190.286	18.966	924.812	712.153
191.300	18.804	923.709	710.572
192.315	18.241	922.901	707.560
193.329	18.075	921.859	706.015
194.344	17.992	921.501	705.333
195.359	18.168	921.145	705.725
196.373	18.326	920.449	705.779
197.388	18.450	920.122	705.980
198.402	18.598	919.624	706.145
199.417	18.895	919.589	707.274
200.432	18.968	919.072	707.118
201.446	19.099	918.337	707.024
202.461	19.157	918.172	707.077
203.475	19.167	918.099	706.997
204.490	19.310	916.866	706.571
205.504	19.014	915.656	704.365
206.519	18.883	914.798	703.107
207.534	18.721	914.385	702.063
208.548	18.743	913.400	701.335
209.563	18.763	912.809	700.902
210.577	18.780	912.417	700.608
211.592	18.726	911.703	699.778
212.607	18.884	910.971	699.797
213.621	19.119	910.613	700.416
214.636	19.118	909.850	699.764
215.650	18.909	909.548	698.620
216.665	19.082	908.803	698.690
217.680	18.951	908.700	698.015
218.694	19.074	908.149	698.031
219.709	19.211	907.697	698.176
220.723	19.122	907.034	697.244
221.738	19.183	905.873	696.536
222.753	19.048	905.294	695.482
223.767	19.055	904.435	694.791
224.782	19.187	903.696	694.693
225.796	19.303	903.286	694.784
226.811	19.336	902.845	694.518
227.826	19.331	901.784	693.618
228.840	19.150	901.081	692.289
229.855	19.269	900.101	691.953
230.869	19.031	899.715	690.640
231.884	19.072	898.782	690.025
232.899	19.100	898.196	689.627
233.913	18.992	897.309	688.454
234.928	19.087	896.408	688.081
235.942	18.889	895.798	686.761
236.957	18.817	895.352	686.072
237.972	18.828	894.488	685.392
238.986	18.997	894.063	685.679
240.001	18.926	893.621	684.996
241.015	18.990	892.657	684.452
242.030	19.002	892.012	683.945
243.045	19.081	891.442	683.760
244.059	18.995	891.349	683.289
245.074	19.196	890.628	683.471
246.088	19.163	890.021	682.814
247.103	19.384	889.248	683.038
248.117	19.471	888.639	682.853
249.132	19.474	888.480	682.683
250.147	19.630	887.901	682.794
251.161	19.818	887.660	683.292
252.176	19.857	887.143	682.985
253.190	20.145	886.366	683.463
254.205	20.089	885.853	682.787
255.220	20.105	885.438	682.470
256.234	20.165	884.327	681.788
257.249	20.070	883.931	681.051
258.263	20.030	883.253	680.310
259.278	20.136	883.073	680.528
260.293	20.074	882.298	679.627
261.307	20.169	881.576	679.383
262.322	20.259	880.879	679.137
263.336	20.165	880.820	678.662
264.351	20.122	880.148	677.918
265.366	20.092	879.572	677.297
266.380	20.219	878.707	677.067
267.395	20.413	877.899	677.140
268.409	20.182	877.311	675.728
269.424	19.981	876.518	674.272
270.439	19.974	876.089	673.857
271.453	19.984	875.395	673.301
272.468	19.828	874.277	671.776
273.482	19.686	873.898	670.876
274.497	19.736	873.152	670.436
275.512	19.945	872.466	670.660
276.526	19.857	871.824	669.768
277.541	19.792	871.317	669.067
278.555	20.012	870.750	669.424
279.570	20.034	870.043	668.905
280.585	20.316	869.592	669.588
281.599	20.268	869.254	669.081
282.614	20.243	868.251	668.158
283.628	19.970	867.647	666.581
284.643	20.051	867.306	666.573
285.657	19.871	866.901	665.508
286.672	20.061	865.885	665.401
287.687	19.971	865.755	664.897
288.701	20.075	865.148	664.772
289.716	20.120	864.531	664.407
290.730	20.204	864.053	664.306
291.745	20.077	863.420	663.272
292.760	20.190	862.595	663.014
293.774	20.198	861.979	662.511
294.789	20.420	861.762	663.134
295.803	20.359	861.517	662.655
296.818	20.191	860.638	661.280
297.833	20.083	859.816	660.176
298.847	20.028	859.246	659.473
299.862	20.060	858.310	658.818
300.876	20.221	857.743	658.937
301.891	20.408	857.216	659.181
302.906	20.399	856.559	658.585
303.920	20.504	856.278	658.708
304.935	20.589	855.753	658.566
305.949	20.672	855.029	658.265
306.964	20.643	854.345	657.572
307.979	20.543	853.571	656.542
308.993	20.413	853.114	655.639
310.008	20.599	852.669	655.940
311.022	20.704	851.970	655.740
312.037	20.650	851.532	655.144
313.052	20.543	850.603	653.969
314.066	20.348	850.147	652.825
315.081	20.239	849.401	651.785
316.095	20.188	849.194	651.377
317.110	20.209	848.584	650.932
318.125	20.036	848.138	649.881
319.139	20.223	847.633	650.138
320.154	20.326	846.993	649.977
321.168	20.285	846.360	649.278
322.183	20.336	845.673	648.886
323.197	20.413	845.431	648.928
324.212	20.442	844.848	648.534
325.227	20.409	844.429	648.032
326.241	20.346	843.755	647.220
327.256	20.382	843.040	646.748
328.270	20.325	842.559	646.113
329.285	20.317	842.327	645.845
330.300	20.463	841.294	645.542
331.314	20.358	840.895	644.787
332.329	20.414	840.157	644.371
333.343	20.460	839.800	644.211
334.358	20.613	839.429	644.438
335.373	20.630	838.745	643.918
336.387	20.612	838.170	643.354
337.402	20.667	837.560	643.031
338.416	20.786	836.784	642.819
339.431	20.795	836.633	642.677
340.446	20.992	836.324	643.112
341.460	21.050	835.479	642.616
342.475	21.198	835.203	642.893
343.489	21.190	834.691	642.412
344.504	21.194	834.718	642.393
345.519	21.448	833.573	642.388
346.533	21.446	833.046	641.918
347.548	21.158	833.055	640.808
348.562	21.067	832.157	639.727
349.577	20.902	831.415	638.494
350.592	20.748	830.791	637.399
351.606	20.644	830.282	636.568
352.621	20.675	829.502	636.027
353.635	20.756	829.471	636.245
354.650	20.747	829.213	635.957
355.665	20.848	828.302	635.570
356.679	21.041	827.974	635.968
357.694	20.976	827.716	635.474
358.708	21.011	827.005	634.999
359.723	21.012	826.307	634.413
360.738	20.988	825.446	633.609
361.752	20.992	825.005	633.226
362.767	21.090	824.788	633.360
363.781	21.227	824.535	633.607
364.796	21.276	824.592	633.772
365.810	21.427	823.994	633.805
366.825	21.548	823.313	633.662
367.840	21.539	823.513	633.730
368.854	21.596	822.758	633.297
369.869	21.507	822.093	632.407
370.883	21.473	821.436	631.724
371.898	21.305	821.592	631.181
372.913	21.498	820.479	630.965
373.927	21.528	819.932	630.599
374.942	21.427	819.167	629.591
375.956	21.371	818.931	629.151
376.971	21.695	818.055	629.587
377.986	21.704	817.591	629.206
379.000	21.712	817.598	629.185
380.015	21.934	816.454	629.044
381.029	21.708	816.534	628.243
382.044	21.627	816.124	627.581
383.059	21.810	814.909	627.245
384.073	21.648	814.559	626.342
385.088	21.757	813.566	625.910
386.102	21.529	813.099	624.682
387.117	21.531	812.170	623.921
388.132	21.417	812.061	623.374
389.146	21.388	811.594	622.859
390.161	21.337	811.450	622.510
391.175	21.655	810.997	623.241
392.190	21.612	810.703	622.806
393.205	21.696	810.104	622.588
394.219	21.485	809.808	621.557
395.234	21.579	808.948	621.177
396.248	21.377	808.569	620.113
397.263	21.309	808.325	619.632
398.278	21.331	807.091	618.708
399.292	21.187	807.273	618.282
400.307	21.206	806.563	617.752
401.321	21.374	806.329	618.109
402.336	21.404	805.624	617.620
403.350	21.316	805.661	617.286
404.365	21.480	805.064	617.349
405.380	21.631	804.651	617.514
406.394	21.719	804.370	617.551
407.409	21.898	804.396	618.148
408.423	21.790	803.668	617.154
409.438	22.106	802.698	617.464
410.453	21.866	802.891	616.715
411.467	22.021	802.461	616.877
412.482	22.085	801.841	616.568
413.496	22.267	801.436	616.842
414.511	22.325	800.936	616.607
415.526	22.217	800.651	615.954
416.540	22.027	800.511	615.123
417.555	22.092	799.945	614.861
418.569	22.109	799.382	614.437
419.584	22.132	798.804	614.017
420.599	22.142	798.568	613.815
421.613	158.712	1368.115	1788.959
422.628	137.706	1451.117	1789.075
