DTS Sentinel unit serial number:	SN413079Multiplexer serial number:	ORYXHardware model number:	OX4-SRSoftware version number:	ORYX F/W v4.00 Oryx Data Collector v3.7.2.0data status	okinstallation	princeton_trtdifferential loss correction	single-endedforward channel	channel 3reverse channel	N/Adate	2019/09/14time	03:16:34forward acquisition time	60.00reverse acquisition time	0.00gamma	496.2192k internal	0.2339k external	0.2339temperature offset calibration	1.0056default loss term (dB/km)	0.3790temperature slope calibration	1.0000multiplexer offset coefficient	1.0000multiplexer slope coefficient	1.0000fibre end	0.00T internal ref (°C)	26.61T ext. ref 1 (°C)	3.27T ext. ref 2 (°C)	21.67length (m)	temperature (°C)	Stokes	anti-Stokes-747.200	-200.000	-0.017	0.129
-746.185	-63.308	-0.190	-0.078
-745.171	-65.736	0.469	0.188
-744.156	-73.516	-0.349	0.128
-743.142	-31.860	-0.137	0.077
-742.127	-141.804	-0.355	0.036
-741.112	67.183	-0.245	0.250
-740.098	-76.965	-0.214	0.075
-739.083	800.000	0.047	0.176
-738.069	-27.639	-0.337	0.196
-737.054	-200.000	-0.004	0.400
-736.039	-30.291	-0.160	0.091
-735.025	-3.336	0.297	-0.208
-734.010	174.140	-0.068	0.099
-732.996	-81.755	-0.321	0.105
-731.981	800.000	-0.073	-0.215
-730.966	-200.000	0.049	0.286
-729.952	7.190	-0.260	0.195
-728.937	-50.397	-0.322	0.152
-727.923	6.407	-0.332	-0.247
-726.908	505.269	0.047	-0.109
-725.894	493.791	0.024	-0.054
-724.879	800.000	-0.029	-0.092
-723.864	-200.000	-0.048	-0.233
-722.850	-200.000	0.006	0.301
-721.835	78.491	-0.222	0.238
-720.821	-200.000	0.004	-0.524
-719.806	281.633	-0.060	-0.108
-718.791	-95.951	-0.244	0.065
-717.777	800.000	-0.099	-0.379
-716.762	-83.654	-0.261	0.084
-715.748	-145.104	0.206	-0.019
-714.733	184.112	-0.098	-0.145
-713.718	49.301	0.118	-0.111
-712.704	-130.043	-0.231	-0.032
-711.689	88.781	-0.234	-0.260
-710.675	-200.000	-0.034	-0.432
-709.660	-42.565	-0.135	0.069
-708.645	284.898	0.051	0.091
-707.631	370.941	-0.060	-0.121
-706.616	418.480	-0.125	-0.267
-705.602	51.842	-0.326	-0.311
-704.587	-115.770	-0.022	0.004
-703.572	-32.641	-0.143	0.080
-702.558	44.652	-0.155	0.143
-701.543	269.298	-0.211	-0.372
-700.529	18.070	-0.111	0.089
-699.514	800.000	-0.062	-0.243
-698.499	-43.574	0.358	0.181
-697.485	-5.105	0.282	0.194
-696.470	623.918	-0.019	-0.049
-695.456	100.131	0.135	-0.156
-694.441	-45.194	-0.113	-0.056
-693.426	-38.621	-0.343	0.181
-692.412	-156.418	-0.063	-0.004
-691.397	800.000	-0.032	0.105
-690.383	31.740	0.156	-0.135
-689.368	800.000	0.030	0.110
-688.354	-147.367	-0.203	0.017
-687.339	4.142	-0.221	0.162
-686.324	-51.970	-0.082	0.038
-685.310	173.113	0.155	-0.223
-684.295	-200.000	-0.021	0.114
-683.281	351.551	0.099	-0.196
-682.266	-200.000	0.036	-0.177
-681.251	-200.000	0.070	0.326
-680.237	85.415	0.138	0.151
-679.222	53.778	0.186	-0.178
-678.208	-200.000	-0.039	-0.220
-677.193	18.597	-0.175	-0.140
-676.178	72.313	0.137	-0.142
-675.164	255.132	-0.178	-0.305
-674.149	86.886	-0.340	-0.375
-673.135	-200.000	-0.007	-0.191
-672.120	68.740	0.076	0.078
-671.105	-176.577	0.083	-0.002
-670.091	-51.299	0.074	0.035
-669.076	-57.235	-0.179	0.079
-668.062	800.000	-0.078	0.244
-667.047	-144.612	-0.195	-0.018
-666.032	-147.377	-0.235	0.020
-665.018	89.615	-0.176	-0.196
-664.003	-200.000	-0.028	0.234
-662.989	548.500	-0.112	-0.268
-661.974	-200.000	-0.014	0.179
-660.959	-200.000	-0.001	-0.134
-659.945	-137.995	0.263	-0.029
-658.930	-16.816	-0.224	-0.141
-657.916	-6.150	-0.240	0.164
-656.901	-200.000	0.043	-0.314
-655.886	-200.000	0.050	-0.318
-654.872	800.000	0.106	-0.417
-653.857	-112.668	0.050	0.010
-652.843	7.788	-0.231	0.173
-651.828	-135.276	0.201	0.024
-650.814	800.000	0.056	-0.194
-649.799	54.227	-0.182	0.175
-648.784	729.247	0.153	0.407
-647.770	33.820	0.084	0.073
-646.755	800.000	-0.040	0.156
-645.741	-200.000	0.053	-0.390
-644.726	108.385	0.417	-0.497
-643.711	49.203	-0.165	-0.154
-642.697	86.212	0.089	0.098
-641.682	-134.723	-0.100	-0.012
-640.668	-169.242	0.130	-0.005
-639.653	-79.566	-0.237	-0.080
-638.638	-198.051	0.237	-0.001
-637.624	-153.011	-0.161	0.011
-636.609	-90.406	0.191	-0.055
-635.595	800.000	0.039	-0.145
-634.580	-200.000	0.005	0.174
-633.565	332.038	-0.086	0.166
-632.551	635.648	0.074	0.188
-631.536	-200.000	0.010	-0.261
-630.522	-153.776	-0.181	0.012
-629.507	-116.476	-0.413	-0.076
-628.492	-67.749	0.037	-0.014
-627.478	278.578	-0.065	-0.115
-626.463	72.513	-0.105	-0.109
-625.449	-200.000	-0.010	-0.046
-624.434	-57.308	0.106	0.047
-623.419	-165.292	-0.464	0.020
-622.405	177.043	-0.128	-0.186
-621.390	75.330	0.282	0.296
-620.376	-200.000	-0.042	-0.396
-619.361	-76.513	-0.074	0.026
-618.346	77.645	-0.177	-0.188
-617.332	102.788	-0.179	0.209
-616.317	-75.099	-0.060	-0.022
-615.303	-46.423	0.271	-0.133
-614.288	-120.431	-0.311	0.053
-613.273	-200.000	-0.225	0.001
-612.259	-106.037	0.214	0.048
-611.244	-200.000	0.012	0.235
-610.230	56.205	0.115	-0.111
-609.215	389.364	0.025	-0.051
-608.201	-11.511	-0.081	0.053
-607.186	-200.000	-0.077	-0.395
-606.171	563.139	-0.142	-0.344
-605.157	-200.000	0.026	-0.306
-604.142	-157.825	0.122	-0.007
-603.128	7.167	0.206	0.153
-602.113	11.399	0.082	-0.063
-601.098	-118.681	-0.274	0.048
-600.084	-200.000	-0.019	-0.254
-599.069	136.364	-0.108	-0.141
-598.055	4.711	-0.099	0.072
-597.040	726.062	0.091	0.243
-596.025	448.858	0.105	0.230
-595.011	-161.726	-0.313	0.016
-593.996	56.479	-0.351	0.340
-592.982	740.022	0.086	-0.231
-591.967	525.686	-0.153	0.358
-590.952	-144.655	-0.166	-0.015
-589.938	-94.174	-0.199	0.054
-588.923	236.091	-0.061	-0.101
-587.909	800.000	0.079	-0.228
-586.894	-165.308	0.238	0.010
-585.879	-200.000	-0.006	-0.243
-584.865	131.036	-0.180	-0.230
-583.850	-200.000	-0.024	-0.295
-582.836	258.678	0.071	-0.122
-581.821	-86.551	0.113	-0.034
-580.806	29.242	0.105	0.088
-579.792	-76.078	0.204	0.072
-578.777	800.000	-0.086	-0.236
-577.763	-200.000	0.025	0.325
-576.748	-161.566	-0.442	0.023
-575.733	-58.777	-0.223	-0.096
-574.719	508.534	-0.130	-0.301
-573.704	-118.584	0.302	-0.053
-572.690	247.328	0.132	0.222
-571.675	-32.460	-0.228	0.127
-570.661	673.208	0.134	-0.347
-569.646	-37.932	-0.183	-0.097
-568.631	-49.140	-0.241	-0.115
-567.617	800.000	0.126	-0.438
-566.602	19.015	-0.261	-0.208
-565.588	498.085	0.029	-0.065
-564.573	-200.000	-0.211	0.001
-563.558	-65.104	-0.071	-0.029
-562.544	-32.106	-0.107	0.060
-561.529	-119.013	0.115	-0.020
-560.515	800.000	-0.107	0.308
-559.500	-155.277	-0.081	0.005
-558.485	198.099	0.112	0.171
-557.471	-200.000	-0.010	-0.311
-556.456	-93.598	0.044	0.012
-555.442	366.494	0.028	0.056
-554.427	-95.245	-0.305	0.082
-553.412	677.898	0.085	-0.219
-552.398	137.953	0.079	0.103
-551.383	-79.810	0.118	-0.039
-550.369	9.196	-0.078	-0.059
-549.354	45.162	0.092	0.084
-548.339	56.137	0.208	-0.201
-547.325	68.023	0.113	0.115
-546.310	618.964	-0.083	0.207
-545.296	-14.563	-0.084	0.054
-544.281	-103.219	-0.366	-0.086
-543.266	-67.749	-0.127	-0.049
-542.252	-164.187	-0.122	-0.006
-541.237	608.127	-0.075	0.186
-540.223	-23.015	-0.052	-0.031
-539.208	39.716	-0.148	0.132
-538.193	106.596	0.156	0.184
-537.179	467.029	0.017	0.038
-536.164	-18.325	-0.226	-0.140
-535.150	-179.883	0.129	0.003
-534.135	-22.253	-0.051	-0.031
-533.121	102.218	0.047	-0.054
-532.106	-127.719	0.442	-0.064
-531.091	-136.752	0.302	-0.035
-530.077	627.313	0.032	0.081
-529.062	-70.387	-0.627	-0.236
-528.048	84.481	0.066	-0.071
-527.033	80.334	-0.189	-0.203
-526.018	45.214	-0.209	0.191
-525.004	-200.000	-0.002	0.175
-523.989	276.317	-0.148	0.261
-522.975	282.721	-0.108	-0.193
-521.960	-9.596	0.192	-0.127
-520.945	-200.000	0.064	-0.358
-519.931	-23.998	0.137	0.082
-518.916	800.000	-0.044	0.178
-517.902	253.875	-0.041	0.070
-516.887	-40.868	-0.075	0.039
-515.872	800.000	-0.055	0.151
-514.858	178.472	-0.123	-0.179
-513.843	-114.190	-0.183	0.035
-512.829	-91.809	0.339	-0.096
-511.814	128.886	0.093	-0.118
-510.799	-145.498	0.360	0.032
-509.785	-32.848	0.303	-0.167
-508.770	-15.901	0.267	0.169
-507.756	95.745	0.023	-0.026
-506.741	49.646	0.234	-0.219
-505.726	-73.277	-0.107	-0.039
-504.712	212.422	-0.162	0.255
-503.697	-99.791	0.242	0.060
-502.683	800.000	0.064	0.212
-501.668	800.000	0.065	0.203
-500.653	176.607	-0.092	-0.134
-499.639	-151.799	0.186	0.014
-498.624	-50.228	-0.430	0.202
-497.610	230.376	0.258	0.419
-496.595	-14.221	0.187	0.120
-495.581	-71.741	0.171	-0.063
-494.566	9.937	-0.094	-0.071
-493.551	-30.470	0.255	-0.144
-492.537	-84.909	0.287	-0.089
-491.522	-148.808	0.399	0.032
-490.508	-73.626	0.083	0.030
-489.493	-200.000	-0.004	-0.325
-488.478	-124.782	-0.063	-0.010
-487.464	260.948	0.096	-0.165
-486.449	-200.000	0.003	-0.150
-485.435	233.848	0.063	0.103
-484.420	-122.690	0.166	-0.027
-483.405	575.690	0.113	0.274
-482.391	144.120	-0.091	0.120
-481.376	-136.950	-0.238	0.027
-480.362	-159.157	0.277	-0.015
-479.347	-200.000	0.037	-0.195
-478.332	-105.257	-0.170	0.038
-477.318	-81.396	-0.174	-0.057
-476.303	800.000	0.035	0.145
-475.289	-129.224	0.209	-0.029
-474.274	-138.848	-0.419	-0.045
-473.259	193.331	0.093	-0.140
-472.245	-155.278	0.228	-0.015
-471.230	-60.968	-0.368	-0.154
-470.216	483.862	0.105	0.236
-469.201	-200.000	0.023	0.174
-468.186	87.821	-0.210	0.231
-467.172	-95.467	0.086	-0.023
-466.157	-64.071	-0.185	-0.075
-465.143	464.654	0.035	0.077
-464.128	-122.142	0.186	-0.030
-463.113	126.226	0.157	-0.196
-462.099	-59.815	-0.062	0.026
-461.084	-130.875	0.212	0.028
-460.070	783.813	-0.017	-0.046
-459.055	-200.000	-0.010	-0.186
-458.040	45.207	0.180	0.165
-457.026	-200.000	0.020	0.240
-456.011	-58.469	0.205	-0.088
-454.997	104.755	0.111	-0.130
-453.982	499.328	-0.167	0.381
-452.968	-46.029	0.334	-0.163
-451.953	-200.000	-0.029	-0.207
-450.938	-54.971	-0.140	-0.062
-449.924	-200.000	-0.014	-0.159
-448.909	800.000	-0.013	0.052
-447.895	81.907	0.022	0.024
-446.880	800.000	-0.085	0.263
-445.865	-16.656	0.410	0.257
-444.851	355.399	-0.033	0.065
-443.836	2.368	-0.031	0.022
-442.822	12.019	-0.171	0.131
-441.807	149.010	-0.140	0.187
-440.792	636.419	-0.031	-0.077
-439.778	239.607	0.136	-0.225
-438.763	195.262	0.097	-0.146
-437.749	3.733	0.035	0.026
-436.734	-26.039	0.171	0.100
-435.719	-200.000	-0.020	0.227
-434.705	231.415	-0.089	-0.145
-433.690	116.917	0.161	-0.196
-432.676	268.203	0.113	0.196
-431.661	-77.126	0.403	-0.139
-430.646	-162.239	-0.065	-0.003
-429.632	-93.419	-0.073	-0.020
-428.617	-200.000	-0.064	0.417
-427.603	-97.166	-0.255	0.066
-426.588	-108.577	0.126	-0.027
-425.573	220.689	-0.061	-0.097
-424.559	135.916	-0.169	0.218
-423.544	-88.668	0.319	0.094
-422.530	156.927	-0.179	-0.245
-421.515	-23.457	-0.284	0.169
-420.500	-39.232	-0.202	-0.105
-419.486	-200.000	-0.036	0.260
-418.471	-112.105	0.141	0.028
-417.457	-16.335	-0.097	0.061
-416.442	39.010	0.172	0.152
-415.428	650.464	-0.128	0.324
-414.413	282.777	0.116	-0.207
-413.398	-200.000	0.010	0.158
-412.384	-27.532	0.190	-0.109
-411.369	-200.000	-0.001	0.190
-410.355	-93.778	0.190	0.052
-409.340	20.782	-0.128	0.103
-408.325	24.831	0.083	0.068
-407.311	78.132	0.182	-0.192
-406.296	-200.000	-0.035	-0.151
-405.282	-59.342	-0.248	-0.106
-404.267	800.000	-0.042	0.138
-403.252	-86.093	0.247	-0.076
-402.238	570.863	-0.159	0.383
-401.223	-119.552	-0.262	-0.045
-400.209	574.736	-0.081	-0.196
-399.194	-200.000	0.008	-0.171
-398.179	-22.721	0.183	-0.109
-397.165	-45.373	-0.229	0.112
-396.150	-163.745	-0.381	0.018
-395.136	93.511	0.142	-0.159
-394.121	-137.918	0.258	0.029
-393.106	-29.704	0.094	0.053
-392.092	-32.707	-0.116	-0.064
-391.077	260.403	-0.082	0.140
-390.063	-66.811	-0.161	-0.063
-389.048	-200.000	0.014	-0.167
-388.033	49.673	0.055	-0.051
-387.019	-68.711	-0.328	-0.126
-386.004	800.000	-0.060	0.194
-384.990	-129.093	0.155	-0.021
-383.975	-200.000	0.033	0.174
-382.960	98.350	-0.061	-0.069
-381.946	-200.000	-0.006	0.196
-380.931	-183.596	-0.100	-0.002
-379.917	29.500	0.090	-0.076
-378.902	136.222	0.195	0.251
-377.888	-200.000	0.006	0.328
-376.873	1.540	-0.241	-0.171
-375.858	-42.260	0.266	0.134
-374.844	-200.000	-0.009	-0.065
-373.829	-7.832	-0.300	-0.200
-372.815	-200.000	-0.086	-0.394
-371.800	677.669	0.042	-0.108
-370.785	294.928	-0.106	-0.191
-369.771	-74.655	-0.356	-0.126
-368.756	-133.423	0.125	0.016
-367.742	52.490	0.295	0.278
-366.727	171.500	-0.137	-0.194
-365.712	-42.916	0.171	0.086
-364.698	-45.886	-0.107	-0.052
-363.683	-58.247	0.332	-0.143
-362.669	800.000	0.104	-0.306
-361.654	11.248	-0.141	-0.107
-360.639	800.000	0.049	-0.197
-359.625	-3.547	-0.190	0.130
-358.610	125.456	-0.029	-0.036
-357.596	100.467	0.122	-0.140
-356.581	-45.670	0.075	0.036
-355.566	-200.000	0.023	0.236
-354.552	-120.029	-0.106	0.018
-353.537	-200.000	0.016	0.250
-352.523	-104.690	0.065	0.015
-351.508	114.967	-0.096	0.115
-350.493	-100.895	0.116	-0.028
-349.479	635.505	0.112	-0.280
-348.464	-86.961	0.134	-0.040
-347.450	800.000	-0.037	-0.142
-346.435	-200.000	0.026	0.198
-345.420	41.789	-0.218	0.195
-344.406	14.238	-0.290	-0.223
-343.391	-200.000	-0.012	-0.144
-342.377	-80.264	-0.366	0.121
-341.362	-173.098	-0.349	0.011
-340.348	510.340	-0.024	0.055
-339.333	9.705	-0.029	-0.022
-338.318	-89.668	-0.047	-0.014
-337.304	94.610	-0.205	0.231
-336.289	800.000	0.019	-0.071
-335.275	-38.656	-0.102	-0.053
-334.260	237.098	-0.130	-0.212
-333.245	-54.141	0.285	0.128
-332.231	782.067	-0.135	0.364
-331.216	410.327	0.034	-0.071
-330.202	-87.740	0.280	0.083
-329.187	-79.229	-0.139	-0.047
-328.172	25.942	-0.154	0.127
-327.158	11.226	0.263	-0.199
-326.143	106.931	-0.092	0.107
-325.129	-121.128	0.211	-0.035
-324.114	-200.000	-0.011	0.049
-323.099	-156.848	0.155	0.009
-322.085	78.464	0.184	-0.194
-321.070	-200.000	-0.061	-0.305
-320.056	-78.077	0.236	-0.080
-319.041	-14.884	-0.417	0.264
-318.026	-200.000	0.021	-0.190
-317.012	139.004	-0.112	0.145
-315.997	18.904	-0.244	0.193
-314.983	-105.247	-0.130	0.029
-313.968	164.425	-0.114	-0.158
-312.953	-115.827	0.409	0.075
-311.939	800.000	-0.015	0.041
-310.924	-115.635	0.318	0.059
-309.910	437.970	-0.125	-0.268
-308.895	57.478	0.073	-0.070
-307.880	96.330	-0.276	-0.311
-306.866	800.000	-0.065	0.231
-305.851	156.960	-0.054	-0.074
-304.837	151.658	-0.189	-0.253
-303.822	-123.237	-0.079	-0.013
-302.807	-117.774	0.255	0.045
-301.793	-80.050	-0.242	-0.080
-300.778	-55.834	0.346	0.153
-299.764	-148.696	-0.123	-0.010
-298.749	517.727	-0.185	-0.426
-297.735	16.359	0.060	-0.047
-296.720	-4.935	-0.026	0.018
-295.705	52.036	-0.201	0.189
-294.691	-200.000	-0.028	-0.127
-293.676	-113.438	-0.169	0.033
-292.662	134.525	0.089	0.113
-291.647	800.000	-0.020	-0.062
-290.632	-200.000	0.037	0.226
-289.618	-200.000	0.006	-0.079
-288.603	308.705	0.081	-0.150
-287.589	556.149	0.152	0.361
-286.574	-106.061	0.466	0.103
-285.559	-54.560	-0.160	-0.071
-284.545	-92.024	-0.448	0.125
-283.530	-60.913	-0.148	0.062
-282.516	800.000	0.039	0.159
-281.501	-71.532	-0.099	-0.036
-280.486	512.333	0.178	0.409
-279.472	-12.325	0.118	0.076
-278.457	436.235	-0.009	0.019
-277.443	-3.424	-0.154	0.105
-276.428	3.844	0.165	-0.119
-275.413	101.368	-0.204	-0.234
-274.399	-200.000	-0.033	-0.181
-273.384	-23.029	-0.032	-0.019
-272.370	-200.000	0.004	-0.442
-271.355	-24.667	0.120	-0.070
-270.340	-200.000	-0.009	-0.087
-269.326	800.000	0.060	0.164
-268.311	-154.269	0.178	-0.012
-267.297	-68.111	-0.201	-0.077
-266.282	-20.512	0.074	0.045
-265.267	-73.825	-0.368	-0.132
-264.253	-200.000	0.065	-0.554
-263.238	422.110	0.028	0.060
-262.224	64.084	0.152	-0.150
-261.209	495.990	0.051	0.115
-260.195	229.549	0.140	0.226
-259.180	-89.611	0.334	0.096
-258.165	-200.000	0.086	0.533
-257.151	170.583	0.058	0.082
-256.136	14.054	0.137	0.105
-255.122	-200.000	-0.048	-0.237
-254.107	800.000	0.076	-0.225
-253.092	-127.575	0.209	-0.030
-252.078	-200.000	0.008	0.222
-251.063	-93.053	0.382	0.105
-250.049	55.388	0.016	-0.015
-249.034	800.000	0.127	0.437
-248.019	34.786	-0.166	-0.143
-247.005	800.000	-0.118	0.354
-245.990	26.433	0.074	0.061
-244.976	96.480	0.171	-0.193
-243.961	800.000	0.070	-0.210
-242.946	800.000	0.066	-0.259
-241.932	-8.701	-0.150	-0.099
-240.917	-183.387	0.376	-0.006
-239.903	-36.481	0.270	0.143
-238.888	-200.000	0.028	0.281
-237.873	-200.000	-0.003	0.156
-236.859	-122.617	0.174	-0.028
-235.844	200.102	0.099	-0.150
-234.830	-7.188	0.264	0.176
-233.815	-71.323	0.382	0.141
-232.800	27.035	0.093	0.077
-231.786	93.377	0.071	-0.079
-230.771	115.218	-0.118	-0.141
-229.757	61.000	-0.192	-0.187
-228.742	-98.711	0.211	0.053
-227.727	800.000	-0.091	-0.381
-226.713	41.423	0.044	-0.039
-225.698	-41.568	0.224	0.113
-224.684	270.135	-0.124	0.215
-223.669	-15.102	0.127	0.080
-222.655	-52.921	-0.360	0.163
-221.640	149.458	0.251	-0.334
-220.625	-200.000	0.011	-0.324
-219.611	-49.503	-0.127	0.060
-218.596	738.066	0.077	-0.204
-217.582	-78.881	-0.132	-0.044
-216.567	-200.000	0.002	-0.100
-215.552	800.000	0.035	-0.110
-214.538	75.030	0.114	-0.118
-213.523	108.037	-0.259	0.303
-212.509	-159.609	0.285	0.016
-211.494	348.746	0.114	-0.222
-210.479	-55.676	0.204	-0.090
-209.465	48.220	0.093	-0.086
-208.450	-176.897	0.104	-0.003
-207.436	800.000	-0.077	-0.240
-206.421	27.025	-0.134	0.110
-205.406	-78.959	0.182	-0.061
-204.392	-126.420	0.190	0.028
-203.377	-134.212	-0.149	0.018
-202.363	400.444	0.093	-0.192
-201.348	268.248	0.208	0.358
-200.333	385.232	0.141	-0.285
-199.319	-155.436	-0.358	0.023
-198.304	-200.000	0.001	-0.205
-197.290	800.000	0.063	0.249
-196.275	800.000	-0.060	0.204
-195.260	-131.719	-0.097	-0.013
-194.246	-112.444	-0.291	0.057
-193.231	93.582	-0.233	-0.259
-192.217	-200.000	-0.056	0.252
-191.202	-92.320	0.048	0.013
-190.187	-200.000	-0.003	0.039
-189.173	-200.000	0.008	0.164
-188.158	-10.624	-0.140	-0.091
-187.144	-117.593	0.422	-0.075
-186.129	3.931	0.302	0.216
-185.114	47.395	0.120	-0.109
-184.100	-126.956	-0.266	0.038
-183.085	1.592	-0.380	0.268
-182.071	-200.000	0.019	0.474
-181.056	176.840	-0.214	0.305
-180.042	114.652	-0.039	-0.047
-179.027	-77.477	-0.306	-0.104
-178.012	111.356	0.149	0.176
-176.998	-88.116	-0.233	-0.068
-175.983	57.012	-0.142	-0.136
-174.969	189.655	0.111	0.163
-173.954	-137.129	-0.192	0.021
-172.939	-17.437	-0.187	0.116
-171.925	-152.977	0.342	0.024
-170.910	-7.415	-0.372	-0.247
-169.896	-14.173	0.232	-0.147
-168.881	-34.293	-0.134	-0.072
-167.866	600.085	-0.123	0.300
-166.852	151.006	-0.168	0.224
-165.837	-200.000	0.010	0.157
-164.823	-1.843	-0.186	-0.129
-163.808	800.000	-0.088	0.255
-162.793	-166.735	0.353	-0.014
-161.779	-75.542	0.193	0.067
-160.764	-200.000	-0.036	0.309
-159.750	-200.000	-0.002	-0.024
-158.735	13.020	0.146	0.111
-157.720	505.011	-0.027	0.062
-156.706	336.198	0.082	0.156
-155.691	118.179	0.143	0.173
-154.677	34.762	0.255	0.218
-153.662	-90.235	-0.206	-0.059
-152.647	196.579	-0.113	-0.169
-151.633	385.850	-0.057	0.115
-150.618	19.689	0.286	-0.225
-149.604	-200.000	0.047	0.338
-148.589	91.977	-0.194	0.214
-147.574	-200.000	-0.007	-0.068
-146.560	-17.506	0.286	-0.176
-145.545	-200.000	-0.002	0.117
-144.531	19.010	0.113	-0.089
-143.516	6.807	-0.227	-0.166
-142.502	-200.000	-0.009	-0.311
-141.487	-86.076	0.031	-0.009
-140.472	54.952	-0.120	-0.113
-139.458	214.237	0.290	0.449
-138.443	138.103	0.108	0.139
-137.429	-200.000	-0.009	-0.248
-136.414	-200.000	0.029	0.170
-135.399	800.000	0.090	0.255
-134.385	-200.000	-0.083	0.419
-133.370	800.000	-0.057	0.191
-132.356	-44.439	-0.172	-0.084
-131.341	86.078	-0.211	0.228
-130.326	-119.572	0.159	0.027
-129.312	-200.000	0.027	0.140
-128.297	-79.579	-0.194	0.064
-127.283	183.360	-0.224	0.325
-126.268	-200.000	-0.004	0.324
-125.253	-103.828	-0.180	-0.041
-124.239	44.273	-0.102	-0.091
-123.224	-69.938	-0.102	0.038
-122.210	12.098	-0.212	-0.160
-121.195	-43.422	0.116	0.057
-120.180	-24.449	-0.123	0.072
-119.166	33.400	-0.121	0.103
-118.151	-64.066	0.245	0.098
-117.137	84.212	-0.239	-0.255
-116.122	800.000	0.032	0.106
-115.107	-200.000	0.010	-0.065
-114.093	439.696	0.033	0.071
-113.078	-200.000	0.028	0.153
-112.064	-149.300	0.070	-0.005
-111.049	133.461	-0.133	-0.168
-110.034	73.606	0.159	0.163
-109.020	-14.516	0.114	0.072
-108.005	541.300	-0.056	0.129
-106.991	-132.268	-0.067	0.009
-105.976	-58.486	-0.231	-0.098
-104.962	-102.641	-0.310	-0.072
-103.947	108.316	-0.115	-0.134
-102.932	-107.576	0.203	0.044
-101.918	165.770	-0.060	0.083
-100.903	309.753	-0.084	-0.153
-99.889	86.599	0.125	0.135
-98.874	-200.000	-0.019	-0.284
-97.859	286.904	0.186	0.328
-96.845	-10.485	0.004	-0.003
-95.830	-120.809	-0.158	0.026
-94.816	711.732	-0.058	-0.150
-93.801	-166.040	-0.272	0.011
-92.786	-153.091	-0.321	-0.022
-91.772	-102.362	0.181	-0.043
-90.757	121.431	-0.178	-0.217
-89.743	51.004	-0.287	0.266
-88.728	238.219	0.052	0.085
-87.713	131.572	-0.130	0.163
-86.699	-132.866	-0.104	0.013
-85.684	-140.356	-0.139	0.014
-84.670	-70.461	0.147	-0.054
-83.655	-200.000	-0.012	0.208
-82.640	800.000	0.076	-0.251
-81.626	-65.148	0.051	-0.020
-80.611	133.789	-0.141	0.178
-79.597	-48.387	-0.304	-0.143
-78.582	-2.774	0.432	0.295
-77.567	-200.000	-0.055	0.364
-76.553	-119.335	0.171	-0.029
-75.538	-200.000	0.014	0.085
-74.524	-200.000	-0.002	-0.362
-73.509	-86.389	-0.120	0.036
-72.494	-150.235	0.128	-0.010
-71.480	503.823	0.103	-0.232
-70.465	-17.085	-0.144	-0.089
-69.451	178.811	0.044	-0.063
-68.436	67.068	-0.323	0.321
-67.422	-59.774	0.308	0.129
-66.407	32.469	-0.215	-0.181
-65.392	-117.655	0.165	-0.029
-64.378	-135.381	-0.092	0.011
-63.363	-61.470	-0.241	0.099
-62.349	-84.157	0.219	-0.068
-61.334	28.986	-1.079	-0.894
-60.319	52.368	0.454	0.423
-59.305	800.000	-0.397	-1.197
-58.290	534.498	0.504	1.165
-57.276	751.222	0.392	1.034
-56.261	-200.000	115.826	648.035
-55.246	515.125	1536.602	3502.592
-54.232	176.364	2709.831	3843.472
-53.217	105.988	2179.235	2518.132
-52.203	37.342	1695.428	1466.789
-51.188	29.719	1510.629	1255.333
-50.173	27.501	1486.322	1220.245
-49.159	50.706	1545.743	1428.287
-48.144	49.205	1559.620	1430.804
-47.130	29.907	1515.977	1260.857
-46.115	26.969	1500.345	1227.969
-45.100	26.588	1497.934	1223.372
-44.086	26.702	1495.666	1222.236
-43.071	26.641	1493.548	1220.046
-42.057	26.545	1491.882	1217.993
-41.042	26.620	1490.628	1217.424
-40.027	26.625	1488.723	1215.858
-39.013	26.623	1487.354	1214.674
-37.998	26.594	1486.087	1213.396
-36.984	26.543	1485.294	1212.362
-35.969	26.528	1483.984	1211.145
-34.954	26.573	1482.878	1210.492
-33.940	26.531	1481.652	1209.167
-32.925	26.565	1479.816	1207.842
-31.911	26.579	1478.466	1206.791
-30.896	26.714	1476.718	1206.211
-29.881	26.736	1475.623	1205.418
-28.867	26.693	1474.932	1204.521
-27.852	26.655	1473.646	1203.167
-26.838	26.646	1471.904	1201.640
-25.823	26.645	1470.878	1200.743
-24.809	26.660	1468.744	1199.059
-23.794	26.634	1467.614	1197.913
-22.779	26.682	1466.193	1197.024
-21.765	26.593	1465.482	1195.811
-20.750	26.653	1464.285	1195.177
-19.736	26.637	1463.412	1194.317
-18.721	26.704	1461.840	1193.422
-17.706	26.654	1460.941	1192.311
-16.692	26.742	1459.121	1191.358
-15.677	26.619	1458.733	1190.191
-14.663	26.557	1458.202	1189.299
-13.648	26.594	1457.097	1188.592
-12.633	26.562	1456.372	1187.746
-11.619	26.559	1455.702	1187.136
-10.604	26.648	1454.261	1186.491
-9.590	26.597	1453.100	1185.165
-8.575	26.588	1452.775	1184.795
-7.560	26.587	1451.632	1183.812
-6.546	26.565	1451.029	1183.124
-5.531	26.493	1450.459	1182.142
-4.517	26.593	1448.844	1181.436
-3.502	26.502	1448.451	1180.472
-2.487	26.634	1447.259	1180.313
-1.473	26.560	1446.185	1178.907
-0.458	26.588	1444.556	1177.719
0.556	26.903	1435.163	1167.356
1.571	23.771	1410.399	1127.275
2.586	20.486	1348.974	1058.116
3.600	18.976	1266.352	984.581
4.615	17.696	1222.629	943.426
5.629	15.184	1166.185	886.513
6.644	8.688	1085.031	792.676
7.659	3.993	1048.362	743.315
8.673	3.379	1043.055	736.552
9.688	3.270	1039.994	733.806
10.702	3.163	1038.753	732.356
11.717	3.268	1036.440	731.156
12.731	5.142	1037.556	740.781
13.746	11.689	1046.653	778.473
14.761	17.848	1055.242	814.268
15.775	19.615	1055.809	823.060
16.790	19.152	1054.598	819.837
17.804	18.273	1052.421	813.895
18.819	17.344	1050.572	807.981
19.834	16.951	1049.396	805.139
20.848	16.779	1048.423	803.507
21.863	16.687	1048.087	802.742
22.877	16.262	1047.337	800.083
23.892	16.336	1046.097	799.413
24.907	16.154	1045.818	798.271
25.921	16.177	1045.183	797.825
26.936	16.069	1044.232	796.517
27.950	16.176	1043.166	796.139
28.965	16.192	1041.908	795.181
29.980	16.320	1040.767	794.843
30.994	16.409	1039.920	794.545
32.009	16.396	1039.022	793.727
33.023	16.520	1038.425	793.784
34.038	16.557	1037.201	792.952
35.053	16.421	1036.083	791.387
36.067	16.297	1035.159	790.032
37.082	16.362	1034.377	789.670
38.096	16.337	1033.896	789.116
39.111	16.323	1033.311	788.533
40.126	16.435	1032.563	788.416
41.140	16.512	1030.843	787.393
42.155	16.175	1029.807	784.964
43.169	16.032	1029.042	783.646
44.184	16.025	1027.647	782.483
45.199	15.913	1027.180	781.539
46.213	16.120	1025.649	781.264
47.228	15.980	1025.136	780.157
48.242	16.114	1024.397	780.143
49.257	16.299	1023.295	780.090
50.271	16.290	1022.142	779.100
51.286	16.288	1021.519	778.546
52.301	16.339	1020.955	778.283
53.315	16.257	1019.786	776.945
54.330	16.232	1018.753	775.975
55.344	16.082	1017.992	774.636
56.359	16.045	1016.933	773.594
57.374	16.094	1016.184	773.179
58.388	16.079	1015.297	772.366
59.403	16.154	1014.278	771.867
60.417	15.924	1014.091	770.606
61.432	15.852	1013.059	769.424
62.447	15.970	1012.566	769.521
63.461	15.844	1011.513	768.078
64.476	15.821	1010.200	766.907
65.490	15.782	1009.898	766.431
66.505	15.904	1008.903	766.166
67.520	15.810	1008.162	765.105
68.534	15.908	1007.360	764.875
69.549	15.828	1006.714	763.955
70.563	15.811	1006.108	763.350
71.578	15.766	1005.569	762.668
72.593	15.800	1004.441	761.902
73.607	15.755	1003.219	760.703
74.622	15.732	1002.274	759.813
75.636	15.803	1001.249	759.289
76.651	15.761	1000.378	758.374
77.666	15.752	999.670	757.729
78.680	15.708	999.418	757.273
79.695	15.751	998.436	756.656
80.709	15.937	997.987	757.085
81.724	15.980	997.283	756.675
82.739	16.025	996.682	756.356
83.753	16.073	995.713	755.770
84.768	16.175	995.101	755.695
85.782	16.424	994.377	756.191
86.797	16.522	993.986	756.266
87.812	16.415	993.238	755.151
88.826	16.470	992.036	754.416
89.841	16.411	991.248	753.487
90.855	16.389	990.561	752.801
91.870	16.478	989.728	752.495
92.884	16.562	989.142	752.357
93.899	16.498	988.297	751.365
94.914	16.466	987.426	750.496
95.928	16.609	987.220	750.907
96.943	16.618	986.064	750.001
97.957	16.385	985.568	748.522
98.972	16.336	984.443	747.385
99.987	16.276	984.377	747.003
101.001	16.418	983.297	746.748
102.016	16.390	982.435	745.903
103.030	16.452	981.331	745.272
104.045	16.311	980.662	744.074
105.060	16.460	979.421	743.725
106.074	16.426	978.474	742.791
107.089	16.178	977.987	741.264
108.103	15.894	977.239	739.385
109.118	15.960	975.695	738.443
110.133	15.920	975.073	737.730
111.147	15.960	973.980	737.012
112.162	15.889	973.215	736.059
113.176	15.883	972.891	735.724
114.191	16.144	971.166	735.492
115.206	16.169	970.869	735.310
116.220	16.119	970.009	734.375
117.235	16.029	969.318	733.396
118.249	16.032	968.140	732.454
119.264	16.061	967.444	731.988
120.279	15.800	967.249	730.644
121.293	15.888	966.249	730.204
122.308	16.022	964.757	729.591
123.322	15.904	964.230	728.618
124.337	15.875	963.326	727.746
125.352	15.917	961.787	726.697
126.366	15.953	960.780	726.030
127.381	15.830	959.857	724.738
128.395	15.880	958.695	724.010
129.410	15.914	958.002	723.568
130.424	15.903	957.269	722.905
131.439	15.952	956.004	722.096
132.454	16.026	955.659	722.090
133.468	16.030	955.204	721.697
134.483	15.996	954.422	720.896
135.497	16.037	953.845	720.572
136.512	16.115	952.919	720.141
137.527	16.041	952.578	719.506
138.541	16.139	951.196	718.814
139.556	16.097	950.773	718.254
140.570	16.066	950.349	717.739
141.585	16.162	949.932	717.770
142.600	16.323	949.167	717.812
143.614	16.450	947.786	717.244
144.629	16.368	947.826	716.860
145.643	16.422	946.807	716.257
146.658	16.480	945.601	715.527
147.673	16.455	944.505	714.527
148.687	16.245	943.985	713.181
149.702	16.296	942.765	712.413
150.716	16.110	942.032	711.011
151.731	16.131	941.366	710.536
152.746	16.180	940.443	709.982
153.760	16.223	939.344	709.272
154.775	16.321	938.823	709.224
155.789	16.256	938.374	708.553
156.804	16.261	937.634	707.952
157.819	16.304	936.803	707.441
158.833	16.439	936.101	707.412
159.848	16.482	935.788	707.296
160.862	16.471	935.326	706.835
161.877	16.564	934.644	706.646
162.892	16.229	933.863	704.595
163.906	16.392	932.211	703.964
164.921	16.340	931.202	702.926
165.935	16.259	930.278	701.827
166.950	16.252	929.484	701.137
167.964	16.283	928.825	700.706
168.979	16.407	927.563	700.207
169.994	16.296	926.887	699.174
171.008	16.339	925.815	698.484
172.023	16.307	925.330	697.925
173.037	16.417	924.832	697.943
174.052	16.552	924.147	697.920
175.067	16.519	923.297	697.080
176.081	16.401	922.710	696.090
177.096	16.337	921.310	694.706
178.110	16.200	920.414	693.409
179.125	16.223	920.094	693.200
180.140	16.372	919.101	693.003
181.154	16.456	918.369	692.731
182.169	16.503	918.154	692.700
183.183	16.567	917.522	692.426
184.198	16.653	916.431	691.894
185.213	16.653	915.842	691.388
186.227	16.603	915.530	690.884
187.242	16.679	915.344	690.995
188.256	16.666	914.505	690.246
189.271	16.795	913.548	689.987
190.286	16.824	912.838	689.508
191.300	16.735	911.951	688.417
192.315	16.418	910.819	686.216
193.329	16.053	910.684	684.570
194.344	16.187	909.764	684.362
195.359	16.305	909.133	684.305
196.373	16.480	908.665	684.600
197.388	16.563	908.321	684.618
198.402	16.710	908.028	684.929
199.417	16.840	907.927	685.319
200.432	16.890	907.339	685.016
201.446	16.840	907.061	684.544
202.461	17.072	906.638	685.100
203.475	17.112	906.000	684.717
204.490	17.068	905.086	683.789
205.504	16.870	904.256	682.306
206.519	16.778	903.665	681.431
207.534	16.733	902.877	680.592
208.548	16.756	902.202	680.117
209.563	16.807	901.303	679.585
210.577	16.826	900.410	678.928
211.592	16.748	899.790	678.086
212.607	17.065	899.290	678.918
213.621	17.061	898.856	678.512
214.636	17.127	898.297	678.297
215.650	16.953	897.768	677.141
216.665	16.907	897.141	676.426
217.680	16.935	896.827	676.241
218.694	17.118	896.409	676.595
219.709	17.204	895.379	676.101
220.723	17.176	894.921	675.585
221.738	17.229	894.062	675.085
222.753	17.037	893.873	674.122
223.767	17.008	892.732	673.084
224.782	17.195	891.946	673.174
225.796	17.270	891.198	672.847
226.811	17.346	890.987	672.930
227.826	17.300	889.988	671.934
228.840	17.180	889.406	670.958
229.855	17.038	889.152	670.150
230.869	17.254	887.848	669.958
231.884	17.259	887.437	669.606
232.899	17.154	886.402	668.355
233.913	17.026	886.119	667.579
234.928	17.026	885.217	666.842
235.942	16.858	885.102	666.035
236.957	16.969	883.470	665.183
237.972	16.944	882.934	664.621
238.986	17.008	882.292	664.330
240.001	16.972	881.773	663.740
241.015	16.981	881.607	663.592
242.030	17.084	880.607	663.184
243.045	17.138	879.942	662.833
244.059	17.197	879.689	662.817
245.074	17.193	879.196	662.369
246.088	17.259	878.365	661.943
247.103	17.415	877.449	661.801
248.117	17.442	877.010	661.514
249.132	17.407	876.862	661.207
250.147	17.438	876.597	661.073
251.161	17.700	875.751	661.390
252.176	17.916	875.353	661.869
253.190	17.822	874.409	660.735
254.205	17.884	873.559	660.273
255.220	17.988	872.926	660.137
256.234	18.026	872.507	659.908
257.249	17.884	872.041	658.948
258.263	17.926	871.386	658.559
259.278	17.858	870.910	657.878
260.293	17.868	870.361	657.444
261.307	17.910	869.716	657.060
262.322	18.033	869.137	657.038
263.336	17.981	868.784	656.514
264.351	18.260	867.955	656.898
265.366	18.256	867.263	656.303
266.380	18.188	866.745	655.590
267.395	18.119	866.135	654.808
268.409	17.897	865.543	653.452
269.424	17.998	864.594	653.064
270.439	17.976	863.943	652.432
271.453	18.050	863.269	652.146
272.468	17.923	862.247	650.832
273.482	17.959	862.131	650.827
274.497	17.893	861.609	650.122
275.512	18.014	860.718	649.852
276.526	17.898	860.049	648.849
277.541	17.959	859.393	648.528
278.555	17.853	859.301	648.000
279.570	17.981	858.480	647.810
280.585	18.200	858.029	648.242
281.599	18.281	857.166	647.839
282.614	18.206	856.844	647.255
283.628	17.907	856.326	645.674
284.643	17.998	855.553	645.380
285.657	18.207	854.980	645.679
286.672	18.094	854.271	644.659
287.687	18.158	853.928	644.586
288.701	18.165	853.164	643.977
289.716	18.024	852.826	643.135
290.730	18.212	851.899	643.083
291.745	18.229	851.467	642.766
292.760	18.361	850.693	642.620
293.774	18.254	849.838	641.518
294.789	18.347	849.906	641.858
295.803	18.407	848.976	641.324
296.818	18.209	848.780	640.379
297.833	18.094	848.087	639.371
298.847	18.223	847.034	639.001
299.862	18.265	846.504	638.702
300.876	18.143	846.051	637.846
301.891	18.313	845.209	637.788
302.906	18.479	844.707	637.972
303.920	18.631	843.899	637.869
304.935	18.581	843.720	637.494
305.949	18.645	843.350	637.395
306.964	18.721	842.392	636.897
307.979	18.553	842.023	635.940
308.993	18.637	841.094	635.490
310.008	18.461	841.069	634.763
311.022	18.662	840.642	635.131
312.037	18.601	839.952	634.327
313.052	18.591	839.203	633.668
314.066	18.446	838.629	632.642
315.081	18.337	837.927	631.656
316.095	18.403	837.314	631.382
317.110	18.252	836.963	630.503
318.125	18.438	836.474	630.764
319.139	18.352	835.886	629.950
320.154	18.325	835.160	629.248
321.168	18.350	834.865	629.062
322.183	18.446	834.080	628.768
323.197	18.549	833.394	628.571
324.212	18.454	833.221	628.037
325.227	18.583	832.861	628.181
326.241	18.639	832.020	627.696
327.256	18.458	831.629	626.684
328.270	18.572	830.846	626.454
329.285	18.463	830.361	625.637
330.300	18.524	829.881	625.441
331.314	18.470	829.297	624.750
332.329	18.511	828.564	624.291
333.343	18.620	828.191	624.351
334.358	18.550	827.824	623.767
335.373	18.662	827.319	623.737
336.387	18.606	827.010	623.246
337.402	18.655	826.315	622.845
338.416	18.825	825.699	622.941
339.431	19.027	825.158	623.212
340.446	18.856	824.984	622.405
341.460	19.072	824.034	622.415
342.475	19.115	823.727	622.283
343.489	19.097	823.417	621.928
344.504	19.074	822.669	621.224
345.519	19.195	822.404	621.408
346.533	19.278	821.726	621.138
347.548	19.204	821.087	620.333
348.562	19.139	820.667	619.727
349.577	19.099	819.789	618.866
350.592	18.850	818.966	617.296
351.606	19.005	818.446	617.407
352.621	18.846	818.352	616.709
353.635	18.995	817.770	616.750
354.650	18.951	817.293	616.180
355.665	18.966	817.130	616.056
356.679	19.024	816.666	615.859
357.694	19.044	816.473	615.728
358.708	19.134	815.725	615.432
359.723	19.015	815.188	614.549
360.738	19.100	814.405	614.208
361.752	19.014	814.210	613.698
362.767	19.170	813.840	613.923
363.781	19.114	813.359	613.303
364.796	19.317	813.232	613.878
365.810	19.256	812.587	613.120
366.825	19.563	811.957	613.680
367.840	19.560	811.879	613.557
368.854	19.546	811.386	613.081
369.869	19.454	810.704	612.184
370.883	19.472	810.176	611.797
371.898	19.252	809.664	610.575
372.913	19.520	809.267	611.171
373.927	19.497	808.405	610.385
374.942	19.465	808.077	609.971
375.956	19.593	806.950	609.515
376.971	19.625	806.826	609.481
377.986	19.635	806.249	609.028
379.000	19.635	805.307	608.262
380.015	19.723	805.195	608.435
381.029	19.655	805.057	608.038
382.044	19.724	804.282	607.639
383.059	19.662	803.635	606.881
384.073	19.613	803.292	606.396
385.088	19.704	802.448	606.023
386.102	19.670	801.624	605.228
387.117	19.490	801.211	604.232
388.132	19.512	800.950	604.059
389.146	19.444	800.794	603.650
390.161	19.517	800.324	603.496
391.175	19.661	799.718	603.490
392.190	19.861	799.323	603.839
393.205	19.622	798.908	602.637
394.219	19.703	798.494	602.553
395.234	19.643	797.824	601.784
396.248	19.588	797.088	600.985
397.263	19.420	796.964	600.253
398.278	19.421	795.988	599.471
399.292	19.425	795.812	599.299
400.307	19.338	795.316	598.568
401.321	19.411	795.252	598.720
402.336	19.552	794.801	598.818
403.350	19.581	794.397	598.563
404.365	19.714	793.943	598.626
405.380	19.668	793.350	597.967
406.394	19.946	793.026	598.630
407.409	19.986	792.498	598.320
408.423	19.993	792.104	597.992
409.438	20.005	791.810	597.760
410.453	20.041	791.681	597.733
411.467	20.124	791.153	597.567
412.482	20.067	790.362	596.722
413.496	20.177	790.000	596.774
414.511	20.234	789.880	596.825
415.526	20.230	789.357	596.363
416.540	20.157	788.908	595.722
417.555	20.281	788.484	595.774
418.569	20.100	788.097	594.809
419.584	20.264	786.976	594.471
420.599	20.155	787.346	594.325
421.613	162.401	1371.028	1798.153
422.628	140.600	1456.034	1798.218
