DTS Sentinel unit serial number:	SN413079Multiplexer serial number:	ORYXHardware model number:	OX4-SRSoftware version number:	ORYX F/W v4.00 Oryx Data Collector v3.7.2.0data status	okinstallation	princeton_trtdifferential loss correction	single-endedforward channel	channel 3reverse channel	N/Adate	2019/09/11time	20:22:11forward acquisition time	60.00reverse acquisition time	0.00gamma	496.2192k internal	0.2303k external	0.2303temperature offset calibration	1.0021default loss term (dB/km)	0.3790temperature slope calibration	1.0000multiplexer offset coefficient	1.0000multiplexer slope coefficient	1.0000fibre end	0.00T internal ref (°C)	37.94T ext. ref 1 (°C)	1.48T ext. ref 2 (°C)	31.60length (m)	temperature (°C)	Stokes	anti-Stokes-747.200	-110.492	0.291	-0.061
-746.185	-86.211	0.109	0.034
-745.171	26.784	0.321	0.274
-744.156	-69.993	0.216	0.084
-743.142	52.629	-0.246	0.240
-742.127	800.000	0.016	-0.068
-741.112	260.145	-0.053	0.092
-740.098	613.712	-0.143	0.366
-739.083	43.142	-0.104	-0.097
-738.069	586.749	-0.067	0.168
-737.054	597.002	0.121	0.305
-736.039	74.788	0.100	0.107
-735.025	50.204	0.249	0.239
-734.010	-69.870	-0.580	0.225
-732.996	10.110	-0.236	-0.183
-731.981	-72.515	-0.220	-0.083
-730.966	142.221	0.204	0.276
-729.952	-11.679	-0.278	0.186
-728.937	156.919	-0.147	0.206
-727.923	-200.000	-0.012	-0.135
-726.908	67.579	-0.061	0.063
-725.894	-39.891	-0.332	-0.176
-724.879	-62.067	-0.048	-0.021
-723.864	258.393	-0.082	0.144
-722.850	-63.017	-0.175	-0.074
-721.835	-21.961	-0.082	0.051
-720.821	248.686	0.025	-0.042
-719.806	414.253	-0.085	0.184
-718.791	-200.000	0.060	0.000
-717.777	-200.000	0.063	-0.341
-716.762	-79.979	0.042	-0.014
-715.748	-200.000	-0.037	-0.331
-714.733	-53.513	-0.268	0.125
-713.718	371.954	0.105	0.216
-712.704	13.017	-0.220	-0.173
-711.689	-15.132	0.178	-0.116
-710.675	141.639	-0.284	-0.383
-709.660	-29.551	0.101	0.059
-708.645	-153.351	-0.093	-0.007
-707.631	79.183	-0.161	-0.175
-706.616	-109.670	-0.403	0.086
-705.602	-1.311	0.300	0.215
-704.587	-30.103	-0.282	0.163
-703.572	-135.788	0.271	0.033
-702.558	722.355	-0.069	-0.188
-701.543	-51.219	-0.188	0.089
-700.529	-164.817	0.391	0.018
-699.514	261.190	-0.183	0.322
-698.499	-44.038	0.182	-0.093
-697.485	-115.039	0.278	-0.054
-696.470	-200.000	-0.050	0.364
-695.456	800.000	-0.042	0.122
-694.441	-179.946	-0.223	-0.005
-693.426	306.795	0.105	0.199
-692.412	-150.686	0.443	-0.034
-691.397	726.511	-0.059	-0.159
-690.383	53.072	-0.202	0.197
-689.368	519.209	-0.157	0.373
-688.354	706.622	0.144	-0.387
-687.339	-200.000	-0.198	0.001
-686.324	-123.182	0.297	0.048
-685.310	487.502	0.064	-0.148
-684.295	-124.330	-0.212	-0.034
-683.281	800.000	0.022	0.079
-682.266	-60.345	-0.292	-0.126
-681.251	-40.493	-0.322	-0.170
-680.237	79.252	0.273	0.297
-679.222	79.258	-0.164	-0.179
-678.208	-58.060	0.298	0.132
-677.193	-200.000	0.026	-0.213
-676.178	-200.000	0.026	0.144
-675.164	-113.691	-0.286	-0.057
-674.149	-115.287	0.214	-0.041
-673.135	108.443	-0.082	-0.099
-672.120	-200.000	0.013	0.171
-671.105	-106.205	-0.264	0.060
-670.091	105.081	0.071	0.086
-669.076	-80.358	-0.415	0.141
-668.062	80.530	0.203	-0.222
-667.047	-172.978	-0.379	-0.012
-666.032	-134.456	0.102	0.013
-665.018	113.921	-0.094	-0.116
-664.003	-200.000	0.009	-0.350
-662.989	130.782	0.132	-0.172
-661.974	69.898	-0.174	-0.182
-660.959	239.674	-0.171	-0.288
-659.945	-180.734	-0.183	-0.004
-658.930	25.138	-0.205	-0.173
-657.916	-200.000	0.036	-0.227
-656.901	-200.000	-0.045	-0.366
-655.886	11.601	0.084	-0.066
-654.872	86.046	-0.087	-0.097
-653.857	-90.465	0.107	0.031
-652.843	-154.599	-0.160	0.011
-651.828	-124.628	-0.257	0.040
-650.814	-200.000	0.011	-0.063
-649.799	-52.726	-0.261	0.122
-648.784	-37.085	0.272	-0.148
-647.770	-200.000	-0.018	0.180
-646.755	-148.180	-0.124	-0.010
-645.741	569.844	-0.080	-0.198
-644.726	-200.000	0.017	-0.282
-643.711	-200.000	-0.041	0.187
-642.697	-200.000	0.006	-0.033
-641.682	124.376	0.044	-0.056
-640.668	-12.582	-0.292	-0.193
-639.653	788.595	0.054	-0.151
-638.638	36.102	-0.267	0.238
-637.624	1.877	0.084	-0.061
-636.609	-121.153	0.115	-0.020
-635.595	-200.000	0.002	-0.129
-634.580	186.005	-0.060	0.090
-633.565	289.208	0.143	0.263
-632.551	-7.740	0.201	0.138
-631.536	-6.971	0.182	-0.125
-630.522	-200.000	0.250	-0.000
-629.507	-13.780	0.135	0.088
-628.492	-71.995	-0.300	-0.113
-627.478	277.700	-0.068	0.122
-626.463	35.841	0.032	0.029
-625.449	-110.320	0.217	0.046
-624.434	-175.385	0.375	-0.010
-623.419	-1.887	-0.133	-0.095
-622.405	-120.331	-0.099	-0.017
-621.390	122.860	-0.120	0.152
-620.376	-25.973	-0.219	-0.131
-619.361	12.281	0.268	0.209
-618.346	-92.319	0.285	0.082
-617.332	738.218	0.081	0.221
-616.317	-164.578	0.081	-0.004
-615.303	29.198	-0.186	-0.160
-614.288	-57.079	-0.379	-0.169
-613.273	-21.564	0.195	0.120
-612.259	-78.406	0.145	-0.050
-611.244	-111.140	-0.301	-0.063
-610.230	800.000	-0.112	-0.369
-609.215	-24.673	0.176	0.106
-608.201	5.415	0.212	0.158
-607.186	-123.735	-0.111	-0.018
-606.171	195.810	-0.149	-0.230
-605.157	54.844	-0.284	-0.278
-604.142	305.622	0.079	-0.149
-603.128	-200.000	0.041	-0.490
-602.113	-200.000	-0.040	-0.229
-601.098	-200.000	-0.002	-0.245
-600.084	800.000	-0.045	-0.148
-599.069	238.375	-0.098	-0.165
-598.055	-21.462	0.158	0.098
-597.040	76.380	0.057	-0.061
-596.025	-200.000	-0.020	-0.235
-595.011	-107.113	-0.396	-0.088
-593.996	-62.613	-0.025	-0.011
-592.982	-200.000	0.048	0.221
-591.967	-137.452	-0.100	-0.011
-590.952	72.843	-0.151	0.159
-589.938	-196.419	-0.047	-0.000
-588.923	-144.319	-0.234	-0.022
-587.909	40.498	-0.176	0.161
-586.894	-46.642	0.311	-0.154
-585.879	-162.362	-0.256	0.013
-584.865	-126.993	-0.102	0.015
-583.850	-51.079	0.134	0.064
-582.836	310.720	-0.068	0.130
-581.821	-110.202	-0.380	-0.080
-580.806	800.000	-0.008	0.031
-579.792	-70.489	0.268	0.103
-578.777	-71.785	0.230	0.087
-577.763	800.000	0.124	-0.393
-576.748	113.359	0.153	-0.188
-575.733	-57.640	-0.131	0.058
-574.719	-200.000	0.029	0.313
-573.704	-99.382	-0.301	0.077
-572.690	-200.000	0.008	0.061
-571.675	90.952	-0.076	0.086
-570.661	-200.000	0.026	0.233
-569.646	114.354	0.177	0.218
-568.631	-91.187	-0.231	0.067
-567.617	157.195	-0.212	-0.297
-566.602	-54.751	0.096	-0.044
-565.588	-121.476	-0.218	-0.037
-564.573	152.537	0.143	-0.197
-563.558	227.413	-0.212	0.349
-562.544	-12.536	-0.276	-0.182
-561.529	-53.105	0.251	0.117
-560.515	800.000	-0.054	-0.219
-559.500	-167.512	-0.092	-0.004
-558.485	336.004	0.105	-0.206
-557.471	-41.152	0.197	-0.103
-556.456	-153.889	-0.555	-0.038
-555.442	598.583	-0.112	0.281
-554.427	-200.000	-0.033	0.298
-553.412	111.695	-0.352	0.429
-552.398	-15.183	0.138	0.089
-551.383	239.937	0.163	-0.274
-550.369	413.495	0.086	0.184
-549.354	680.158	0.092	0.242
-548.339	38.762	-0.171	-0.154
-547.325	20.357	-0.109	0.089
-546.310	347.227	0.120	-0.238
-545.296	240.299	-0.161	0.271
-544.281	-79.685	0.178	0.061
-543.266	-148.655	-0.227	-0.019
-542.252	-109.492	0.218	0.046
-541.237	-104.152	0.153	0.036
-540.223	800.000	-0.035	-0.122
-539.208	-200.000	0.054	-0.260
-538.193	-11.884	-0.142	-0.094
-537.179	188.104	0.128	0.194
-536.164	11.561	0.056	0.043
-535.150	-200.000	-0.032	-0.176
-534.135	410.159	-0.077	0.164
-533.121	-200.000	0.006	0.188
-532.106	14.050	0.097	0.076
-531.091	5.541	-0.273	-0.204
-530.077	-200.000	-0.004	-0.279
-529.062	-27.052	0.350	-0.206
-528.048	800.000	0.027	0.077
-527.033	-148.152	-0.142	0.012
-526.018	479.551	0.129	0.296
-525.004	-43.164	-0.242	-0.124
-523.989	22.765	-0.236	-0.195
-522.975	625.822	0.103	-0.261
-521.960	307.829	-0.086	0.163
-520.945	477.408	0.030	-0.067
-519.931	61.151	0.196	0.197
-518.916	800.000	-0.069	-0.266
-517.902	187.192	0.143	0.216
-516.887	-200.000	0.008	0.257
-515.872	800.000	0.059	0.233
-514.858	-200.000	0.033	0.316
-513.843	-38.347	0.055	-0.029
-512.829	800.000	-0.059	-0.192
-511.814	114.386	-0.053	0.065
-510.799	-85.210	-0.064	0.020
-509.785	-44.496	0.237	-0.120
-508.770	-200.000	-0.030	-0.284
-507.756	-50.234	-0.231	0.110
-506.741	-200.000	0.005	0.240
-505.726	-167.712	0.254	0.010
-504.712	218.694	-0.121	0.195
-503.697	-200.000	0.031	0.147
-502.683	84.937	-0.257	-0.284
-501.668	314.808	-0.139	-0.264
-500.653	12.633	0.261	0.203
-499.639	423.627	-0.113	-0.244
-498.624	51.282	0.084	-0.081
-497.610	9.847	-0.210	0.161
-496.595	-158.323	0.217	0.013
-495.581	-56.288	-0.358	-0.160
-494.566	-133.268	-0.292	0.037
-493.551	35.391	0.227	-0.201
-492.537	127.765	0.175	-0.225
-491.522	303.019	-0.082	0.153
-490.508	26.899	0.128	-0.108
-489.493	127.783	0.125	0.160
-488.478	-86.626	0.296	-0.091
-487.464	-47.961	0.149	-0.073
-486.449	800.000	0.067	0.263
-485.435	-171.099	0.228	-0.008
-484.420	-122.160	-0.194	-0.032
-483.405	-200.000	-0.041	0.205
-482.391	-88.699	0.176	0.053
-481.376	92.055	-0.147	-0.167
-480.362	47.663	-0.035	0.033
-479.347	-200.000	0.051	0.374
-478.332	189.485	0.097	-0.146
-477.318	-69.750	-0.236	-0.091
-476.303	800.000	0.028	-0.083
-475.289	-99.556	0.233	-0.059
-474.274	-68.258	-0.227	-0.089
-473.259	167.500	-0.130	0.186
-472.245	86.989	-0.047	0.053
-471.230	-111.892	-0.495	0.101
-470.216	-94.146	-0.258	-0.071
-469.201	-80.117	-0.392	-0.132
-468.186	160.208	0.060	-0.084
-467.172	-134.728	-0.178	-0.022
-466.157	-74.263	0.157	-0.057
-465.143	-200.000	-0.021	0.138
-464.128	234.331	-0.175	-0.290
-463.113	-1.169	0.240	-0.171
-462.099	-43.748	-0.274	-0.139
-461.084	232.423	-0.095	-0.157
-460.070	-200.000	0.112	0.496
-459.055	17.589	0.129	0.103
-458.040	-78.623	-0.252	-0.087
-457.026	40.955	-0.101	-0.091
-456.011	-200.000	-0.016	0.344
-454.997	376.072	-0.074	-0.151
-453.982	464.820	-0.046	-0.103
-452.968	175.892	-0.153	0.224
-451.953	-67.891	0.234	-0.092
-450.938	-115.976	0.279	-0.052
-449.924	-144.683	-0.195	-0.018
-448.909	800.000	-0.144	0.458
-447.895	24.031	0.180	0.149
-446.880	477.717	0.059	-0.134
-445.865	-92.892	0.290	0.082
-444.851	111.662	-0.120	-0.145
-443.836	-58.799	0.078	0.034
-442.822	-120.802	0.240	0.041
-441.807	10.286	-0.147	0.113
-440.792	515.387	0.082	0.193
-439.778	-156.141	-0.206	-0.013
-438.763	800.000	-0.119	-0.415
-437.749	32.666	-0.181	-0.158
-436.734	-200.000	0.054	0.245
-435.719	154.109	0.118	-0.163
-434.705	292.298	0.129	-0.236
-433.690	430.538	0.159	0.347
-432.676	-170.005	-0.303	0.011
-431.661	-200.000	-0.025	-0.176
-430.646	-9.498	-0.282	-0.189
-429.632	800.000	0.077	0.230
-428.617	800.000	0.024	-0.098
-427.603	-200.000	-0.010	0.275
-426.588	-1.716	0.304	0.215
-425.573	297.026	-0.047	-0.086
-424.559	180.502	-0.107	-0.158
-423.544	-4.770	-0.227	0.157
-422.530	-74.354	0.384	-0.140
-421.515	-120.805	0.155	-0.026
-420.500	-200.000	-0.033	0.148
-419.486	437.627	-0.042	0.092
-418.471	800.000	0.114	-0.389
-417.457	-46.508	-0.151	-0.074
-416.442	-200.000	-0.003	0.115
-415.428	37.017	-0.219	-0.194
-414.413	556.453	-0.094	-0.229
-413.398	-3.468	0.061	-0.043
-412.384	373.431	-0.129	-0.264
-411.369	-143.964	0.363	0.034
-410.355	-47.264	-0.054	0.026
-409.340	-200.000	-0.017	0.296
-408.325	143.126	-0.275	-0.368
-407.311	-74.763	-0.057	0.020
-406.296	-154.954	-0.387	-0.026
-405.282	-200.000	-0.030	-0.338
-404.267	-200.000	0.004	-0.238
-403.252	-78.194	-0.263	0.091
-402.238	288.162	-0.085	-0.155
-401.223	-110.305	0.298	0.062
-400.209	-129.613	-0.526	-0.073
-399.194	54.387	0.366	0.355
-398.179	98.733	0.049	0.057
-397.165	-154.951	-0.251	-0.017
-396.150	-18.895	-0.212	-0.133
-395.136	-51.221	0.052	0.024
-394.121	-118.692	0.016	-0.003
-393.106	-24.996	0.197	0.117
-392.092	-7.009	-0.142	0.097
-391.077	-35.178	-0.200	0.109
-390.063	-94.602	-0.269	-0.074
-389.048	-200.000	-0.013	-0.175
-388.033	23.512	-0.126	0.104
-387.019	-165.097	-0.179	0.008
-386.004	-16.491	-0.129	0.082
-384.990	-92.130	-0.259	-0.073
-383.975	-89.076	-0.158	0.047
-382.960	78.277	0.074	-0.079
-381.946	-96.550	0.339	0.090
-380.931	-200.000	0.033	0.194
-379.917	800.000	-0.035	-0.137
-378.902	-200.000	0.016	-0.154
-377.888	441.466	-0.212	-0.467
-376.873	44.391	0.396	-0.365
-375.858	-24.348	0.282	0.169
-374.844	-190.604	0.149	0.002
-373.829	26.293	0.208	-0.174
-372.815	34.465	0.103	-0.091
-371.800	-50.744	0.376	0.178
-370.785	-129.976	-0.406	0.056
-369.771	-52.903	0.184	0.085
-368.756	5.298	0.289	-0.214
-367.742	141.148	0.078	0.103
-366.727	-126.310	-0.214	-0.032
-365.712	800.000	0.046	-0.189
-364.698	-60.681	-0.138	-0.059
-363.683	144.255	-0.160	0.215
-362.669	69.596	0.108	0.112
-361.654	-200.000	-0.005	-0.329
-360.639	-200.000	-0.078	-0.344
-359.625	446.265	0.064	0.141
-358.610	-6.538	0.158	-0.108
-357.596	503.819	0.107	0.247
-356.581	-161.068	-0.124	0.007
-355.566	-155.928	-0.210	0.013
-354.552	-200.000	-0.035	-0.195
-353.537	144.586	0.029	0.039
-352.523	41.350	0.138	0.125
-351.508	35.700	-0.428	0.377
-350.493	147.487	-0.171	-0.231
-349.479	-200.000	-0.004	-0.057
-348.464	800.000	0.029	0.117
-347.450	89.387	0.170	0.190
-346.435	-86.416	0.237	-0.073
-345.420	-112.211	-0.293	0.059
-344.406	-88.424	-0.232	0.069
-343.391	7.436	0.351	0.263
-342.377	-200.000	-0.014	0.181
-341.362	136.531	0.090	-0.118
-340.348	-200.000	0.004	-0.160
-339.333	142.741	0.055	-0.073
-338.318	385.546	0.064	0.132
-337.304	281.061	0.205	0.367
-336.289	-200.000	0.000	-0.029
-335.275	194.433	0.187	-0.284
-334.260	247.337	0.144	0.243
-333.245	-25.273	-0.178	-0.106
-332.231	22.244	0.212	0.174
-331.216	196.319	0.176	-0.269
-330.202	-137.449	0.199	0.023
-329.187	-81.786	-0.466	-0.153
-328.172	-62.157	0.182	-0.076
-327.158	51.997	-0.171	-0.163
-326.143	-35.062	0.148	0.081
-325.129	-200.000	0.016	-0.103
-324.114	-200.000	-0.023	0.201
-323.099	-146.353	-0.180	-0.016
-322.085	244.360	-0.067	0.113
-321.070	404.790	0.180	0.379
-320.056	-100.957	0.190	-0.047
-319.041	-200.000	0.057	-0.344
-318.026	-36.928	0.216	0.116
-317.012	-35.599	-0.151	0.082
-315.997	-87.878	0.155	-0.047
-314.983	-39.402	0.282	0.148
-313.968	-97.706	0.017	-0.004
-312.953	-135.485	0.197	0.023
-311.939	-75.035	0.277	-0.099
-310.924	239.271	-0.086	0.144
-309.910	51.416	-0.251	-0.239
-308.895	90.449	-0.031	0.035
-307.880	88.682	-0.121	-0.135
-306.866	800.000	-0.068	-0.274
-305.851	66.325	-0.157	0.160
-304.837	169.660	0.074	0.106
-303.822	-63.415	0.104	-0.043
-302.807	528.756	-0.084	0.198
-301.793	-200.000	-0.018	0.324
-300.778	-200.000	-0.003	0.101
-299.764	18.128	0.349	0.279
-298.749	-56.154	0.234	0.104
-297.735	146.883	-0.284	0.383
-296.720	-28.173	0.049	0.028
-295.705	352.590	0.016	0.032
-294.691	100.772	-0.052	0.060
-293.676	-176.886	0.099	0.002
-292.662	175.849	-0.019	-0.028
-291.647	484.592	-0.017	-0.040
-290.632	-65.290	-0.205	-0.083
-289.618	483.465	-0.057	-0.129
-288.603	-99.395	0.170	-0.043
-287.589	-31.931	0.083	0.046
-286.574	-200.000	0.008	-0.212
-285.559	67.966	0.031	-0.032
-284.545	-143.204	-0.275	0.026
-283.530	-43.348	-0.262	-0.132
-282.516	-51.373	0.165	-0.077
-281.501	279.711	-0.186	-0.333
-280.486	754.895	0.025	-0.069
-279.472	26.720	0.106	-0.089
-278.457	-8.143	-0.255	0.172
-277.443	28.665	0.324	-0.274
-276.428	451.862	0.050	0.110
-275.413	107.177	-0.193	0.229
-274.399	-200.000	-0.019	0.239
-273.384	-200.000	-0.043	-0.319
-272.370	84.142	0.150	-0.164
-271.355	-200.000	0.003	0.135
-270.340	-138.111	0.121	-0.013
-269.326	380.035	-0.151	0.310
-268.311	73.565	0.137	0.144
-267.297	-181.841	0.436	-0.008
-266.282	-26.169	0.305	0.179
-265.267	-21.863	0.197	-0.120
-264.253	89.436	0.212	-0.236
-263.238	80.753	-0.231	0.249
-262.224	-200.000	0.012	0.202
-261.209	-169.159	-0.389	-0.014
-260.195	-200.000	-0.016	0.228
-259.180	-61.780	-0.167	0.070
-258.165	-142.813	-0.068	0.007
-257.151	55.093	0.268	-0.259
-256.136	-25.340	0.131	-0.078
-255.122	-200.000	0.076	-0.374
-254.107	800.000	0.024	0.071
-253.092	29.173	0.133	0.113
-252.078	20.090	-0.208	-0.167
-251.063	800.000	-0.017	-0.058
-250.049	-28.080	-0.208	0.120
-249.034	-200.000	0.012	0.197
-248.019	-200.000	-0.027	-0.168
-247.005	-138.240	-0.172	-0.019
-245.990	257.554	-0.148	-0.255
-244.976	64.431	0.176	0.177
-243.961	377.204	0.145	0.296
-242.946	800.000	0.082	0.228
-241.932	4.871	0.214	0.157
-240.917	12.889	-0.135	0.104
-239.903	-200.000	-0.020	0.279
-238.888	116.260	-0.044	0.054
-237.873	-150.726	0.145	0.011
-236.859	800.000	-0.046	0.175
-235.844	14.017	-0.294	0.229
-234.830	-68.145	0.107	0.042
-233.815	-107.094	-0.221	-0.049
-232.800	-200.000	0.024	0.246
-231.786	-200.000	-0.031	0.162
-230.771	203.870	0.180	0.278
-229.757	-135.134	0.198	-0.024
-228.742	43.403	0.072	0.065
-227.727	583.800	0.001	-0.002
-226.713	24.877	-0.253	0.210
-225.698	800.000	-0.091	-0.352
-224.684	-85.962	-0.183	0.056
-223.669	-110.390	0.340	-0.071
-222.655	-200.000	0.025	0.176
-221.640	325.462	-0.159	0.304
-220.625	-119.399	0.179	0.031
-219.611	159.447	0.223	-0.309
-218.596	-138.525	0.087	-0.010
-217.582	221.923	0.191	-0.306
-216.567	7.732	-0.046	-0.034
-215.552	-94.775	0.148	0.040
-214.538	-200.000	0.006	0.137
-213.523	5.051	0.069	0.051
-212.509	-170.107	-0.058	0.002
-211.494	-79.855	0.186	-0.063
-210.479	6.024	0.129	0.095
-209.465	141.598	0.190	0.251
-208.450	80.885	-0.124	-0.133
-207.436	181.009	-0.098	-0.143
-206.421	-89.888	0.105	0.031
-205.406	30.575	0.123	-0.105
-204.392	197.309	-0.109	-0.166
-203.377	99.943	-0.134	-0.155
-202.363	50.897	0.082	0.077
-201.348	-154.286	0.330	0.022
-200.333	-121.151	-0.197	-0.033
-199.319	169.967	0.142	0.203
-198.304	-59.459	0.228	-0.098
-197.290	233.274	-0.138	0.226
-196.275	-91.975	0.265	0.075
-195.260	28.926	0.279	0.236
-194.246	-200.000	-0.012	0.082
-193.231	215.565	0.118	-0.186
-192.217	130.567	0.131	-0.168
-191.202	-3.941	0.209	-0.144
-190.187	-200.000	0.005	-0.038
-189.173	189.069	0.203	-0.302
-188.158	710.842	0.133	-0.350
-187.144	148.055	-0.180	0.242
-186.129	392.855	0.013	0.027
-185.114	-103.279	0.377	0.089
-184.100	211.538	0.086	-0.135
-183.085	-200.000	0.028	0.156
-182.071	415.748	0.035	0.074
-181.056	800.000	0.049	-0.167
-180.042	-200.000	-0.012	-0.074
-179.027	138.462	0.211	0.276
-178.012	148.308	0.195	-0.262
-176.998	-200.000	0.006	0.076
-175.983	-101.573	-0.056	-0.014
-174.969	-68.007	0.149	-0.058
-173.954	-74.082	-0.023	0.008
-172.939	43.546	-0.091	-0.083
-171.925	28.802	0.168	-0.142
-170.910	617.174	-0.221	-0.552
-169.896	800.000	0.119	0.342
-168.881	324.561	-0.082	-0.155
-167.866	-156.626	-0.190	-0.012
-166.852	800.000	0.110	0.422
-165.837	-2.734	0.085	0.059
-164.823	75.444	-0.202	-0.212
-163.808	-42.414	-0.140	0.071
-162.793	-200.000	-0.035	0.217
-161.779	-115.911	0.166	0.031
-160.764	53.217	-0.227	0.216
-159.750	716.944	-0.114	-0.300
-158.735	-134.404	-0.188	-0.023
-157.720	14.744	-0.201	0.157
-156.706	684.665	0.031	-0.081
-155.691	-187.187	-0.111	-0.002
-154.677	317.802	-0.055	0.103
-153.662	-46.843	-0.282	-0.137
-152.647	-17.454	0.309	-0.194
-151.633	118.124	0.030	0.037
-150.618	48.906	0.216	-0.202
-149.604	75.511	-0.071	0.074
-148.589	61.774	0.183	-0.182
-147.574	6.311	0.342	-0.253
-146.560	221.458	-0.126	-0.201
-145.545	159.665	-0.082	0.114
-144.531	176.898	-0.025	0.037
-143.516	159.549	-0.092	-0.127
-142.502	-40.276	0.255	-0.132
-141.487	-46.336	0.051	0.025
-140.472	-103.784	-0.137	0.032
-139.458	-35.418	-0.283	-0.153
-138.443	800.000	-0.068	-0.280
-137.429	92.722	-0.170	-0.190
-136.414	-54.072	0.215	0.097
-135.399	-200.000	-0.041	0.245
-134.385	252.112	0.160	0.271
-133.370	3.811	0.203	0.147
-132.356	-91.250	-0.023	-0.006
-131.341	252.729	-0.044	0.074
-130.326	-200.000	-0.034	-0.247
-129.312	69.927	0.178	-0.183
-128.297	192.307	-0.178	-0.267
-127.283	161.996	0.057	0.079
-126.268	800.000	-0.106	-0.325
-125.253	800.000	0.110	-0.419
-124.239	102.096	0.174	-0.202
-123.224	-200.000	-0.009	0.064
-122.210	706.300	-0.110	-0.288
-121.195	-200.000	-0.002	0.209
-120.180	101.315	-0.014	0.017
-119.166	-55.886	-0.166	0.074
-118.151	800.000	-0.042	-0.171
-117.137	-49.389	-0.178	0.084
-116.122	-80.498	0.378	-0.125
-115.107	-118.224	0.016	-0.003
-114.093	61.564	-0.143	0.141
-113.078	-200.000	0.005	0.174
-112.064	12.215	-0.211	0.162
-111.049	51.926	0.177	0.168
-110.034	53.201	0.093	0.089
-109.020	-183.471	-0.326	0.006
-108.005	-200.000	-0.019	0.319
-106.991	800.000	0.133	-0.367
-105.976	133.240	0.104	0.133
-104.962	-67.521	-0.263	0.102
-103.947	355.402	0.044	-0.086
-102.932	-200.000	0.007	0.068
-101.918	-22.032	0.133	-0.080
-100.903	-18.338	0.237	0.147
-99.889	24.113	-0.225	0.184
-98.874	-156.098	-0.149	-0.009
-97.859	185.579	-0.218	0.322
-96.845	-91.908	0.152	0.043
-95.830	50.337	-0.182	-0.171
-94.816	-110.355	-0.281	-0.058
-93.801	-4.831	-0.231	-0.158
-92.786	-89.760	-0.058	-0.017
-91.772	800.000	-0.072	-0.198
-90.757	-200.000	0.025	0.117
-89.743	478.918	0.080	-0.181
-88.728	26.529	0.146	0.121
-87.713	-5.777	0.255	0.174
-86.699	31.995	-0.182	-0.156
-85.684	-148.237	-0.193	-0.016
-84.670	43.286	-0.087	-0.078
-83.655	625.082	-0.099	-0.249
-82.640	-160.409	-0.150	0.008
-81.626	-133.142	-0.111	-0.014
-80.611	109.382	0.078	0.093
-79.597	-105.254	-0.159	0.036
-78.582	61.543	-0.239	-0.236
-77.567	-96.660	0.247	-0.065
-76.553	-200.000	0.028	-0.161
-75.538	182.941	-0.216	0.317
-74.524	-54.164	-0.194	0.087
-73.509	29.049	-0.286	-0.241
-72.494	-200.000	0.021	-0.094
-71.480	220.126	0.130	-0.206
-70.465	334.312	-0.098	-0.187
-69.451	-124.305	-0.177	-0.027
-68.436	-122.718	-0.200	0.032
-67.422	-32.079	0.178	0.099
-66.407	-200.000	0.025	-0.151
-65.392	291.745	-0.023	-0.041
-64.378	479.220	0.134	0.301
-63.363	307.214	0.211	-0.390
-62.349	-6.352	0.380	0.257
-61.334	190.225	-0.612	-0.912
-60.319	-156.326	0.621	-0.039
-59.305	392.113	-0.402	-0.829
-58.290	606.238	0.234	0.577
-57.276	337.234	0.807	1.556
-56.261	-200.000	87.116	496.362
-55.246	485.498	1364.012	3080.871
-54.232	150.202	2575.903	3465.669
-53.217	112.357	2206.280	2645.631
-52.203	47.624	1742.665	1611.588
-51.188	40.964	1550.710	1387.741
-50.173	38.443	1523.449	1345.976
-49.159	54.870	1569.547	1501.769
-48.144	59.046	1589.178	1549.680
-47.130	41.453	1546.483	1387.144
-46.115	38.204	1531.039	1350.819
-45.100	38.039	1528.050	1346.987
-44.086	38.004	1525.822	1344.726
-43.071	37.952	1523.524	1342.290
-42.057	37.809	1522.647	1340.482
-41.042	37.918	1521.580	1340.237
-40.027	37.993	1519.549	1338.913
-39.013	37.937	1517.726	1336.870
-37.998	37.877	1516.622	1335.428
-36.984	37.841	1515.511	1334.156
-35.969	37.893	1513.971	1333.101
-34.954	37.876	1512.890	1331.980
-33.940	37.905	1511.754	1331.123
-32.925	38.008	1509.870	1330.118
-31.911	37.989	1508.532	1328.757
-30.896	38.028	1507.353	1327.930
-29.881	38.031	1505.857	1326.581
-28.867	37.987	1504.317	1324.870
-27.852	37.930	1502.473	1322.807
-26.838	37.963	1501.296	1321.940
-25.823	37.984	1499.668	1320.601
-24.809	37.999	1498.039	1319.213
-23.794	37.967	1496.625	1317.698
-22.779	38.002	1495.497	1316.891
-21.765	37.982	1494.849	1316.131
-20.750	37.873	1493.779	1314.404
-19.736	38.018	1491.929	1313.702
-18.721	37.976	1491.512	1313.000
-17.706	38.015	1489.844	1311.741
-16.692	37.920	1488.958	1310.270
-15.677	37.948	1487.854	1309.432
-14.663	37.891	1486.739	1308.019
-13.648	37.894	1485.569	1306.959
-12.633	37.834	1484.897	1305.911
-11.619	37.957	1483.553	1305.500
-10.604	37.932	1482.676	1304.513
-9.590	37.984	1481.758	1303.995
-8.575	37.972	1480.631	1302.877
-7.560	37.855	1480.002	1301.489
-6.546	37.998	1478.775	1301.314
-5.531	37.845	1478.626	1300.105
-4.517	37.839	1477.294	1298.846
-3.502	37.845	1476.188	1297.862
-2.487	37.833	1475.430	1297.061
-1.473	37.868	1474.296	1296.246
-0.458	37.893	1472.757	1295.009
0.556	37.464	1463.176	1282.966
1.571	34.072	1436.094	1237.093
2.586	30.082	1373.707	1158.365
3.600	28.007	1290.322	1075.759
4.615	26.528	1242.867	1027.709
5.629	22.257	1185.042	956.632
6.644	11.427	1095.490	829.503
7.659	2.884	1049.986	753.211
8.673	1.655	1043.983	742.841
9.688	1.430	1041.116	739.641
10.702	1.442	1039.282	738.330
11.717	1.404	1037.761	737.001
12.731	5.131	1042.622	758.529
13.746	15.468	1057.014	819.640
14.761	22.894	1066.444	863.320
15.775	24.155	1067.503	870.269
16.790	24.367	1067.156	870.940
17.804	24.208	1066.166	869.282
18.819	24.055	1064.936	867.458
19.834	24.082	1064.949	867.520
20.848	24.376	1063.948	868.059
21.863	24.354	1063.788	867.746
22.877	24.325	1063.500	867.294
23.892	24.146	1063.122	866.039
24.907	24.078	1062.324	864.981
25.921	24.087	1061.647	864.396
26.936	24.219	1060.291	863.856
27.950	24.184	1059.146	862.679
28.965	24.112	1058.469	861.699
29.980	24.104	1056.626	860.086
30.994	23.915	1055.823	858.442
32.009	24.170	1054.962	858.899
33.023	24.303	1054.643	859.203
34.038	24.008	1053.628	856.880
35.053	24.045	1052.748	856.264
36.067	24.150	1052.271	856.309
37.082	24.183	1051.665	855.896
38.096	24.262	1050.329	855.112
39.111	24.454	1049.926	855.629
40.126	24.544	1048.576	854.882
41.140	24.439	1047.760	853.643
42.155	24.170	1046.173	850.985
43.169	23.852	1044.807	848.282
44.184	23.855	1043.631	847.268
45.199	23.878	1042.658	846.512
46.213	23.878	1041.870	845.800
47.228	23.629	1041.106	843.921
48.242	23.945	1040.357	844.739
49.257	24.059	1039.440	844.462
50.271	24.052	1038.766	843.805
51.286	24.209	1038.026	843.875
52.301	24.218	1037.480	843.398
53.315	24.320	1036.442	842.962
54.330	24.192	1035.841	841.792
55.344	24.003	1035.464	840.518
56.359	24.171	1034.121	840.149
57.374	24.178	1033.446	839.559
58.388	24.087	1032.286	838.113
59.403	24.111	1031.401	837.434
60.417	23.918	1030.839	835.994
61.432	23.812	1030.462	835.117
62.447	23.796	1029.621	834.286
63.461	23.909	1028.786	834.065
64.476	24.011	1028.132	833.939
65.490	23.935	1027.211	832.764
66.505	23.758	1026.429	831.229
67.520	23.921	1025.097	830.838
68.534	24.010	1024.880	831.002
69.549	23.686	1024.186	828.857
70.563	23.496	1022.464	826.505
71.578	23.438	1021.890	825.694
72.593	23.353	1021.215	824.682
73.607	23.328	1019.863	823.402
74.622	23.266	1018.982	822.326
75.636	23.552	1018.317	823.048
76.651	23.672	1017.669	823.005
77.666	23.638	1016.352	821.709
78.680	23.662	1015.331	820.925
79.695	23.565	1015.029	820.159
80.709	23.759	1014.238	820.344
81.724	23.897	1013.646	820.426
82.739	23.682	1012.995	818.839
83.753	23.839	1011.681	818.423
84.768	23.985	1011.794	819.118
85.782	24.355	1010.859	819.989
86.797	24.477	1010.343	820.058
87.812	24.531	1009.241	819.339
88.826	24.282	1008.357	817.409
89.841	24.255	1007.380	816.417
90.855	24.315	1006.933	816.258
91.870	24.486	1006.018	816.225
92.884	24.398	1005.126	815.029
93.899	24.334	1003.987	813.743
94.914	24.196	1003.046	812.279
95.928	24.263	1002.796	812.308
96.943	24.337	1001.648	811.642
97.957	24.030	1000.506	809.250
98.972	23.924	999.093	807.558
99.987	23.696	997.884	805.472
101.001	23.826	997.493	805.675
102.016	24.044	997.117	806.287
103.030	24.072	996.508	805.849
104.045	24.056	994.891	804.397
105.060	23.889	993.723	802.630
106.074	23.747	992.490	800.921
107.089	23.735	992.319	800.660
108.103	24.106	991.261	801.408
109.118	24.113	990.585	800.820
110.133	23.942	989.388	799.013
111.147	23.872	988.371	797.808
112.162	23.654	987.467	796.030
113.176	23.491	986.213	794.220
114.191	23.648	985.355	794.158
115.206	23.820	984.495	794.164
116.220	23.463	983.351	791.578
117.235	23.318	982.639	790.288
118.249	23.481	982.297	790.670
119.264	23.474	981.163	789.654
120.279	23.391	980.339	788.555
121.293	23.437	979.452	787.973
122.308	23.535	979.161	788.108
123.322	23.512	978.009	787.006
124.337	23.412	977.249	785.885
125.352	23.474	975.232	784.467
126.366	23.025	974.083	781.487
127.381	22.718	972.999	779.193
128.395	23.172	972.587	780.797
129.410	23.780	972.598	783.421
130.424	24.081	971.599	783.871
131.439	24.086	970.561	782.985
132.454	23.912	969.664	781.428
133.468	24.122	968.622	781.440
134.483	23.997	967.954	780.286
135.497	24.065	966.985	779.735
136.512	24.157	966.704	779.841
137.527	24.293	965.853	779.679
138.541	24.255	965.070	778.811
139.556	24.283	964.388	778.316
140.570	24.188	963.732	777.302
141.585	24.390	962.837	777.391
142.600	24.422	961.911	776.716
143.614	24.237	961.248	775.308
144.629	24.359	960.493	775.159
145.643	24.551	959.643	775.239
146.658	24.474	959.072	774.375
147.673	24.351	957.264	772.315
148.687	24.258	956.314	771.078
149.702	24.062	955.116	769.195
150.716	24.039	954.251	768.332
151.731	24.142	952.659	767.426
152.746	24.121	952.361	767.029
153.760	24.279	951.888	767.259
154.775	24.322	951.469	767.039
155.789	24.330	950.594	766.298
156.804	24.386	949.360	765.478
157.819	24.278	948.408	764.179
158.833	24.302	947.981	763.869
159.848	24.481	947.410	764.108
160.862	24.476	946.277	763.106
161.877	24.310	945.237	761.491
162.892	24.238	944.304	760.364
163.906	24.537	943.387	760.834
164.921	24.499	942.343	759.760
165.935	24.284	941.684	758.247
166.950	24.457	940.401	757.882
167.964	24.393	939.685	756.967
168.979	24.334	938.167	755.429
169.994	24.330	937.540	754.840
171.008	24.082	936.401	752.808
172.023	24.339	935.733	753.288
173.037	24.401	934.952	752.856
174.052	24.218	933.786	751.078
175.067	24.035	932.792	749.442
176.081	24.044	932.208	748.945
177.096	24.258	931.173	748.947
178.110	24.190	930.489	748.045
179.125	23.986	929.442	746.281
180.140	23.679	928.740	744.365
181.154	23.735	927.767	743.754
182.169	23.775	927.752	743.843
183.183	24.108	927.201	744.730
184.198	24.416	926.489	745.379
185.213	24.289	925.935	744.334
186.227	24.356	924.949	743.758
187.242	24.342	924.609	743.360
188.256	24.241	924.324	742.640
189.271	24.354	923.331	742.250
190.286	24.494	922.402	742.017
191.300	24.320	921.612	740.594
192.315	23.731	920.556	737.235
193.329	23.147	918.690	733.257
194.344	22.669	917.446	730.222
195.359	23.231	918.098	733.002
196.373	23.939	918.639	736.301
197.388	24.395	917.868	737.506
198.402	24.198	917.764	736.542
199.417	24.127	917.142	735.684
200.432	24.201	916.361	735.299
201.446	24.142	915.945	734.654
202.461	23.774	915.013	732.325
203.475	23.905	914.369	732.287
204.490	23.469	912.650	729.051
205.504	22.289	910.439	722.378
206.519	22.668	910.554	723.961
207.534	23.647	910.787	728.102
208.548	23.932	910.076	728.636
209.563	24.146	909.717	729.160
210.577	24.270	909.266	729.241
211.592	23.965	908.437	727.265
212.607	24.340	908.488	728.775
213.621	24.475	907.734	728.657
214.636	24.575	906.679	728.153
215.650	24.482	906.541	727.599
216.665	24.352	906.304	726.813
217.680	24.407	905.662	726.459
218.694	24.419	905.289	726.144
219.709	24.124	903.908	723.773
220.723	23.692	903.326	721.488
221.738	23.996	902.900	722.318
222.753	24.314	901.908	722.752
223.767	24.267	901.184	721.915
224.782	24.212	901.003	721.485
225.796	24.271	900.665	721.389
226.811	24.595	899.515	721.711
227.826	24.209	898.463	719.246
228.840	23.381	897.117	714.767
229.855	23.220	896.515	713.576
230.869	23.500	895.716	714.005
231.884	23.279	895.039	712.510
232.899	23.262	894.517	711.967
233.913	23.856	894.962	714.647
234.928	24.183	894.375	715.426
235.942	24.031	893.884	714.360
236.957	24.231	892.842	714.265
237.972	23.807	891.932	711.777
238.986	23.638	891.328	710.557
240.001	23.974	890.529	711.199
241.015	24.026	889.728	710.704
242.030	24.017	889.416	710.355
243.045	24.131	889.253	710.616
244.059	24.140	888.411	709.917
245.074	24.365	887.874	710.324
246.088	24.298	887.345	709.568
247.103	23.914	886.300	707.145
248.117	23.882	885.901	706.637
249.132	24.409	885.933	708.695
250.147	24.815	885.505	709.901
251.161	24.874	885.101	709.746
252.176	25.014	884.933	710.105
253.190	25.014	883.970	709.270
254.205	24.979	883.687	708.841
255.220	25.266	883.153	709.484
256.234	25.069	882.783	708.345
257.249	25.116	881.623	707.536
258.263	24.961	880.975	706.343
259.278	25.039	880.607	706.293
260.293	25.213	880.011	706.437
261.307	25.261	879.495	706.152
262.322	25.102	878.875	704.963
263.336	24.850	878.547	703.651
264.351	24.513	877.136	701.132
265.366	23.372	874.911	694.821
266.380	22.978	873.627	692.197
267.395	23.834	874.312	696.033
268.409	24.642	874.249	699.082
269.424	24.672	873.594	698.613
270.439	24.769	873.607	698.942
271.453	24.984	872.620	698.930
272.468	24.867	872.551	698.358
273.482	25.005	871.686	698.138
274.497	25.144	871.733	698.657
275.512	24.883	870.686	696.739
276.526	24.405	869.494	693.866
277.541	24.511	869.120	693.918
278.555	25.045	868.267	695.251
279.570	24.824	867.975	694.097
280.585	24.589	867.003	692.346
281.599	24.656	866.861	692.433
282.614	24.803	866.172	692.390
283.628	24.386	864.846	689.657
284.643	24.033	864.089	687.627
285.657	24.417	864.019	688.997
286.672	24.297	863.270	687.874
287.687	23.826	862.833	685.650
288.701	24.128	862.357	686.374
289.716	24.559	861.977	687.672
290.730	24.407	861.096	686.323
291.745	24.091	860.811	684.820
292.760	23.940	859.354	683.020
293.774	23.990	858.733	682.656
294.789	24.728	859.687	686.189
295.803	25.413	859.816	688.860
296.818	25.518	859.313	688.796
297.833	25.540	858.697	688.326
298.847	25.305	857.547	686.445
299.862	24.981	856.168	684.043
300.876	25.118	855.860	684.258
301.891	25.326	855.867	684.997
302.906	25.438	855.435	685.019
303.920	25.076	854.414	682.762
304.935	24.882	853.972	681.608
305.949	25.269	853.493	682.639
306.964	25.384	853.100	682.700
307.979	25.196	852.028	681.069
308.993	24.965	851.810	679.956
310.008	25.436	851.329	681.300
311.022	25.710	851.067	682.069
312.037	25.430	850.638	680.603
313.052	25.210	849.711	678.972
314.066	24.970	849.039	677.465
315.081	24.400	847.507	674.029
316.095	23.694	845.932	670.057
317.110	24.298	845.960	672.297
318.125	25.152	846.529	675.908
319.139	24.694	845.504	673.309
320.154	23.525	843.904	667.576
321.168	23.152	842.983	665.386
322.183	23.814	843.195	667.985
323.197	24.445	844.107	671.021
324.212	24.939	843.192	672.090
325.227	25.218	842.695	672.679
326.241	25.143	842.901	672.502
327.256	25.157	841.795	671.612
328.270	24.976	841.385	670.549
329.285	24.933	840.379	669.528
330.300	24.696	840.089	668.352
331.314	24.684	838.616	667.076
332.329	24.657	838.268	666.640
333.343	24.969	838.295	667.766
334.358	25.315	838.063	668.811
335.373	25.380	837.213	668.315
336.387	25.290	836.721	667.527
337.402	25.597	836.376	668.336
338.416	25.579	836.230	668.094
339.431	25.644	835.685	667.840
340.446	25.850	834.620	667.692
341.460	25.839	834.466	667.469
342.475	25.912	833.726	667.088
343.489	25.640	832.948	665.399
344.504	25.657	832.331	664.911
345.519	25.752	832.518	665.353
346.533	26.030	832.058	665.952
347.548	26.069	831.788	665.822
348.562	26.238	830.994	665.750
349.577	26.022	830.739	664.692
350.592	25.969	830.498	664.245
351.606	25.914	829.489	663.176
352.621	26.099	828.840	663.281
353.635	26.049	827.965	662.338
354.650	26.002	827.959	662.100
355.665	25.685	826.891	660.024
356.679	24.730	824.860	654.849
357.694	24.527	824.773	653.981
358.708	25.140	824.476	655.931
359.723	24.994	824.068	655.014
360.738	25.200	824.243	655.848
361.752	25.600	824.099	657.138
362.767	25.810	823.462	657.339
363.781	26.077	823.215	658.054
364.796	26.365	823.087	658.945
365.810	26.281	823.276	658.730
366.825	26.357	822.848	658.609
367.840	26.478	822.077	658.372
368.854	26.169	821.769	656.944
369.869	25.720	820.844	654.515
370.883	25.701	819.705	653.480
371.898	25.869	819.185	653.617
372.913	25.754	818.461	652.564
373.927	25.792	817.783	652.102
374.942	25.937	817.481	652.331
375.956	25.893	817.263	651.938
376.971	25.939	816.569	651.494
377.986	26.044	816.152	651.483
379.000	26.517	815.518	652.625
380.015	26.377	815.383	651.953
381.029	26.376	814.382	651.092
382.044	26.130	813.715	649.617
383.059	26.268	813.091	649.556
384.073	26.447	812.584	649.738
385.088	26.479	812.026	649.349
386.102	26.510	811.602	649.064
387.117	26.187	811.073	647.424
388.132	26.208	810.554	647.030
389.146	25.907	810.035	645.480
390.161	25.374	808.873	642.590
391.175	25.564	808.721	643.092
392.190	26.064	808.664	644.777
393.205	26.177	808.208	644.759
394.219	25.006	806.523	639.185
395.234	23.399	804.213	631.576
396.248	22.827	802.779	628.356
397.263	23.649	803.884	632.095
398.278	25.534	804.938	639.581
399.292	26.046	804.911	641.322
400.307	25.540	804.681	639.283
401.321	25.622	804.021	638.996
402.336	25.790	803.661	639.248
403.350	25.981	803.834	640.008
404.365	26.493	803.812	641.751
405.380	26.794	803.264	642.322
406.394	26.986	803.149	642.855
407.409	27.194	802.878	643.316
408.423	27.149	802.082	642.462
409.438	26.815	801.853	641.042
410.453	27.070	801.233	641.388
411.467	27.169	801.069	641.551
412.482	27.153	800.400	640.901
413.496	27.132	799.767	640.263
414.511	27.109	799.251	639.714
415.526	27.194	799.037	639.784
416.540	27.048	798.741	638.979
417.555	27.200	797.873	638.759
418.569	26.922	797.391	637.343
419.584	26.806	796.531	636.191
420.599	26.845	796.319	636.102
421.613	102.249	1273.156	1417.674
422.628	87.790	1342.624	1417.793
