DTS Sentinel unit serial number:	SN413079Multiplexer serial number:	ORYXHardware model number:	OX4-SRSoftware version number:	ORYX F/W v4.00 Oryx Data Collector v3.7.2.0data status	okinstallation	princeton_trtdifferential loss correction	single-endedforward channel	channel 3reverse channel	N/Adate	2019/09/12time	20:00:04forward acquisition time	15.00reverse acquisition time	0.00gamma	496.2192k internal	0.2323k external	0.2323temperature offset calibration	1.0119default loss term (dB/km)	0.3790temperature slope calibration	1.0000multiplexer offset coefficient	1.0000multiplexer slope coefficient	1.0000fibre end	0.00T internal ref (°C)	31.75T ext. ref 1 (°C)	3.46T ext. ref 2 (°C)	26.38length (m)	temperature (°C)	Stokes	anti-Stokes-747.200	100.232	0.580	0.679
-746.185	145.248	0.121	-0.163
-745.171	-49.286	0.415	0.200
-744.156	43.208	-0.113	0.104
-743.142	197.857	0.122	-0.187
-742.127	-25.867	0.652	-0.388
-741.112	65.131	0.578	-0.590
-740.098	-200.000	-0.039	-0.566
-739.083	-43.339	0.390	0.199
-738.069	800.000	0.151	-0.432
-737.054	800.000	0.231	-0.743
-736.039	95.883	-0.639	0.737
-735.025	276.555	0.319	0.573
-734.010	-105.169	0.206	0.047
-732.996	-200.000	0.307	0.001
-731.981	800.000	0.063	0.270
-730.966	703.329	0.093	-0.246
-729.952	-44.155	0.743	-0.376
-728.937	800.000	0.071	0.254
-727.923	-56.866	-0.524	-0.233
-726.908	369.116	-0.064	-0.131
-725.894	71.657	-0.209	0.219
-724.879	177.008	-0.333	-0.488
-723.864	267.112	-0.287	-0.506
-722.850	-200.000	-0.063	-1.024
-721.835	-200.000	0.090	0.487
-720.821	-40.380	-0.531	-0.279
-719.806	-123.633	-0.138	0.022
-718.791	408.029	-0.164	0.350
-717.777	181.238	-0.356	0.528
-716.762	563.522	-0.072	-0.176
-715.748	116.925	-0.061	-0.075
-714.733	-200.000	-0.001	0.511
-713.718	-78.432	-0.628	0.217
-712.704	800.000	-0.118	-0.417
-711.689	630.405	-0.135	-0.345
-710.675	736.644	-0.268	0.724
-709.660	513.250	-0.371	-0.871
-708.645	-200.000	0.007	-1.165
-707.631	-12.234	0.639	0.422
-706.616	179.488	0.146	-0.216
-705.602	-101.439	-0.926	-0.227
-704.587	-142.746	-0.593	-0.058
-703.572	-200.000	-0.017	0.705
-702.558	800.000	0.279	0.797
-701.543	800.000	0.136	0.561
-700.529	-200.000	-0.067	-0.332
-699.514	780.275	-0.265	0.729
-698.499	-200.000	0.132	-0.856
-697.485	800.000	0.131	-0.541
-696.470	800.000	-0.061	-0.214
-695.456	190.766	0.282	-0.428
-694.441	-200.000	0.014	-0.143
-693.426	-148.563	-0.323	-0.027
-692.412	-70.495	0.579	0.221
-691.397	-148.128	1.050	0.088
-690.383	800.000	-0.218	0.854
-689.368	31.708	-0.397	0.344
-688.354	-136.223	1.403	-0.165
-687.339	-81.776	-0.383	-0.127
-686.324	-200.000	0.005	0.044
-685.310	119.027	0.271	-0.338
-684.295	-200.000	-0.007	-0.417
-683.281	800.000	-0.313	0.990
-682.266	12.342	0.300	0.233
-681.251	-200.000	0.041	-0.213
-680.237	135.936	0.507	-0.666
-679.222	-140.174	-0.661	-0.070
-678.208	-200.000	0.098	-0.757
-677.193	554.594	-0.180	-0.436
-676.178	28.384	-0.139	-0.118
-675.164	298.210	0.401	0.742
-674.149	-67.904	-0.415	-0.163
-673.135	-67.961	-0.279	0.109
-672.120	329.187	0.434	-0.839
-671.105	-200.000	0.041	0.250
-670.091	-31.646	-0.250	0.141
-669.076	-97.987	0.826	-0.214
-668.062	-200.000	0.021	0.380
-667.047	758.367	-0.231	-0.629
-666.032	544.132	0.211	-0.506
-665.018	-200.000	0.056	-0.327
-664.003	367.508	-0.331	0.674
-662.989	-12.237	0.112	0.074
-661.974	186.493	0.350	-0.524
-660.959	-200.000	-0.069	-1.095
-659.945	-200.000	-0.008	-0.086
-658.930	-200.000	-0.064	-0.303
-657.916	800.000	-0.148	-0.596
-656.901	99.181	0.837	0.973
-655.886	-200.000	-0.057	0.368
-654.872	626.866	-0.139	-0.354
-653.857	-6.532	0.697	-0.478
-652.843	133.046	-0.439	0.571
-651.828	800.000	0.150	0.474
-650.814	-107.662	0.121	0.027
-649.799	-9.106	-0.096	0.064
-648.784	-125.220	0.248	0.038
-647.770	116.654	0.518	0.639
-646.755	-165.332	-0.768	-0.034
-645.741	-135.327	0.789	0.095
-644.726	-131.974	0.836	0.110
-643.711	-32.877	-0.154	-0.086
-642.697	313.480	0.155	0.293
-641.682	-24.879	-0.279	0.166
-640.668	800.000	-0.100	0.318
-639.653	561.157	0.191	-0.465
-638.638	-200.000	-0.098	-0.441
-637.624	267.725	0.603	1.061
-636.609	-25.923	-0.119	0.071
-635.595	240.987	-0.121	0.204
-634.580	66.804	0.377	0.386
-633.565	130.661	0.041	-0.053
-632.551	739.142	0.106	-0.285
-631.536	564.234	0.297	-0.723
-630.522	-200.000	0.003	0.350
-629.507	-89.114	-0.878	-0.261
-628.492	79.935	-0.231	-0.249
-627.478	-79.576	1.194	0.405
-626.463	800.000	-0.111	0.427
-625.449	800.000	-0.117	-0.395
-624.434	-45.098	-0.526	-0.263
-623.419	-26.374	0.355	0.210
-622.405	-55.980	0.592	-0.265
-621.390	800.000	0.208	-0.598
-620.376	308.172	-0.425	0.798
-619.361	-200.000	0.004	0.244
-618.346	-115.559	0.445	-0.084
-617.332	-105.657	0.556	0.127
-616.317	-168.093	0.412	-0.016
-615.303	-200.000	-0.039	-0.787
-614.288	-20.175	-0.213	0.132
-613.273	67.619	-0.511	0.524
-612.259	800.000	-0.047	-0.162
-611.244	65.868	-0.647	0.659
-610.230	88.431	0.550	-0.614
-609.215	591.129	0.193	-0.479
-608.201	-71.849	-0.915	0.342
-607.186	237.615	-0.098	0.163
-606.171	-199.694	-1.062	0.005
-605.157	2.321	-0.381	0.277
-604.142	61.083	0.268	0.268
-603.128	-153.769	-0.760	-0.052
-602.113	-126.429	0.253	-0.038
-601.098	-200.000	-0.115	-0.984
-600.084	-200.000	0.220	-1.228
-599.069	102.725	-0.322	0.378
-598.055	-40.626	0.619	-0.323
-597.040	-87.988	-0.279	-0.084
-596.025	-135.725	-0.508	0.060
-595.011	105.542	-0.410	-0.486
-593.996	-40.683	0.277	0.144
-592.982	800.000	0.097	-0.377
-591.967	-200.000	0.164	-1.156
-590.952	800.000	0.096	-0.405
-589.938	-63.853	0.186	-0.076
-588.923	268.476	0.328	0.576
-587.909	-200.000	0.127	1.048
-586.894	-200.000	-0.089	-0.476
-585.879	-200.000	0.213	0.001
-584.865	-45.188	0.072	0.036
-583.850	-200.000	-0.057	-0.516
-582.836	-54.484	-0.685	0.311
-581.821	483.069	-0.109	-0.249
-580.806	-120.621	-0.629	0.107
-579.792	-200.000	0.102	0.626
-578.777	-130.302	-0.460	-0.063
-577.763	-200.000	0.061	1.283
-576.748	-21.258	0.138	-0.085
-575.733	137.569	-0.513	0.674
-574.719	-200.000	0.046	0.655
-573.704	471.137	-0.307	0.692
-572.690	-48.019	-0.087	-0.042
-571.675	-136.072	0.196	-0.023
-570.661	-124.928	-0.991	0.153
-569.646	-21.172	0.555	-0.340
-568.631	-87.569	-0.734	-0.222
-567.617	-200.000	0.072	0.988
-566.602	800.000	-0.206	-0.837
-565.588	-200.000	-0.135	0.782
-564.573	-144.865	0.592	0.054
-563.558	273.627	0.126	0.224
-562.544	-200.000	0.301	1.465
-561.529	-12.760	0.513	-0.335
-560.515	-125.039	0.266	0.041
-559.500	-6.563	0.564	-0.385
-558.485	-200.000	-0.034	0.389
-557.471	202.712	-0.338	-0.523
-556.456	102.950	0.310	0.364
-555.442	-58.673	-0.479	-0.208
-554.427	437.275	0.129	-0.282
-553.412	-178.568	-0.376	0.009
-552.398	-153.868	-0.668	-0.046
-551.383	-67.105	0.299	0.118
-550.369	-19.483	-0.115	0.071
-549.354	157.247	-0.244	0.338
-548.339	-149.322	-0.884	0.071
-547.325	-200.000	-0.019	-0.239
-546.310	115.725	-0.097	0.118
-545.296	-165.542	-0.346	0.015
-544.281	-68.983	0.091	0.035
-543.266	-118.943	-0.432	-0.076
-542.252	-5.449	-0.482	0.332
-541.237	800.000	0.234	-0.682
-540.223	94.883	0.422	-0.481
-539.208	131.258	0.219	0.282
-538.193	-200.000	0.019	0.400
-537.179	-121.513	-0.151	0.025
-536.164	800.000	-0.243	-0.778
-535.150	-189.385	-0.062	-0.001
-534.135	51.924	0.628	0.599
-533.121	122.919	-0.562	0.705
-532.106	327.754	-0.495	0.951
-531.091	10.060	-0.098	0.075
-530.077	-56.388	0.398	-0.177
-529.062	134.819	0.669	0.870
-528.048	800.000	-0.115	0.398
-527.033	99.619	-0.703	-0.814
-526.018	800.000	0.169	0.494
-525.004	178.906	0.696	1.018
-523.989	209.419	0.125	-0.196
-522.975	-54.052	0.687	-0.313
-521.960	-48.220	0.878	-0.424
-520.945	258.275	0.264	-0.456
-519.931	416.818	-0.194	-0.414
-518.916	-149.981	0.472	-0.037
-517.902	-200.000	0.024	1.324
-516.887	-44.280	-0.123	-0.062
-515.872	800.000	0.159	0.472
-514.858	753.937	-0.144	0.389
-513.843	-140.856	0.468	0.048
-512.829	8.389	-0.346	0.260
-511.814	-200.000	-0.007	-0.623
-510.799	-7.809	0.272	-0.184
-509.785	800.000	-0.041	0.153
-508.770	-115.274	0.408	-0.077
-507.756	-90.397	0.415	-0.120
-506.741	800.000	0.125	0.374
-505.726	-91.588	0.182	0.052
-504.712	81.123	0.298	0.322
-503.697	-26.547	-0.339	-0.198
-502.683	45.373	-0.154	0.142
-501.668	36.972	0.962	-0.851
-500.653	-108.344	-0.087	-0.019
-499.639	419.119	0.271	-0.580
-498.624	184.707	-0.816	-1.210
-497.610	-200.000	0.118	0.660
-496.595	-193.466	-0.150	0.001
-495.581	242.153	-0.171	-0.286
-494.566	-15.864	0.175	-0.112
-493.551	-200.000	-0.052	0.750
-492.537	-56.296	-1.306	0.580
-491.522	-34.270	0.668	0.367
-490.508	-172.079	-0.512	-0.017
-489.493	23.384	-0.499	0.410
-488.478	-200.000	0.031	-0.404
-487.464	800.000	-0.079	0.326
-486.449	-75.652	0.804	0.285
-485.435	467.541	0.511	1.146
-484.420	144.195	0.362	0.483
-483.405	162.112	0.362	0.507
-482.391	-30.249	-0.277	0.157
-481.376	-111.724	-0.441	0.089
-480.362	-61.588	-0.076	-0.032
-479.347	50.463	0.316	0.298
-478.332	-66.325	0.418	-0.166
-477.318	374.304	0.406	0.826
-476.303	-150.830	0.500	0.038
-475.289	-89.589	-0.654	-0.192
-474.274	-200.000	-0.048	0.350
-473.259	37.374	-0.441	0.391
-472.245	-27.262	-0.417	-0.243
-471.230	-96.567	-0.097	0.025
-470.216	-200.000	0.007	0.045
-469.201	382.174	-0.242	-0.498
-468.186	-60.335	0.386	-0.164
-467.172	-200.000	-0.023	0.592
-466.157	363.213	0.339	0.679
-465.143	-21.033	0.435	-0.266
-464.128	-58.758	0.276	-0.119
-463.113	2.081	0.338	-0.244
-462.099	-200.000	0.000	0.105
-461.084	-200.000	0.086	0.587
-460.070	-31.492	-0.746	-0.419
-459.055	-103.982	0.602	-0.140
-458.040	-200.000	0.055	-0.470
-457.026	-107.085	0.325	0.072
-456.011	64.663	0.529	0.532
-454.997	26.773	-0.546	-0.457
-453.982	-119.583	0.839	-0.145
-452.968	1.651	-0.353	-0.253
-451.953	800.000	-0.028	-0.112
-450.938	-55.002	-0.507	0.228
-449.924	-143.251	0.527	0.051
-448.909	193.816	0.048	-0.073
-447.895	-120.670	-0.436	0.074
-446.880	-91.475	-0.199	-0.057
-445.865	-200.000	0.002	0.162
-444.851	112.379	0.097	-0.117
-443.836	83.270	0.268	0.291
-442.822	116.757	0.395	-0.484
-441.807	-200.000	0.031	0.456
-440.792	-200.000	0.049	0.490
-439.778	-200.000	0.083	-0.679
-438.763	-75.974	0.254	0.090
-437.749	800.000	0.130	-0.549
-436.734	-34.689	0.421	0.230
-435.719	446.195	0.168	0.368
-434.705	-135.177	-0.515	0.062
-433.690	24.284	0.392	-0.323
-432.676	-16.786	-0.251	0.159
-431.661	457.799	0.318	0.705
-430.646	-48.670	0.355	0.170
-429.632	-157.557	-0.597	0.036
-428.617	10.249	0.524	-0.398
-427.603	532.684	0.288	-0.679
-426.588	-75.189	-0.416	0.148
-425.573	-93.451	0.781	0.216
-424.559	-145.048	-0.362	-0.033
-423.544	-119.596	0.615	-0.106
-422.530	-162.543	0.523	0.026
-421.515	115.264	-0.269	-0.328
-420.500	364.201	0.016	-0.033
-419.486	125.120	-0.344	0.432
-418.471	298.138	-0.170	-0.312
-417.457	-18.934	0.343	-0.212
-416.442	-33.806	0.389	0.214
-415.428	-187.401	-0.373	0.005
-414.413	238.967	-0.606	-1.005
-413.398	-161.587	-0.780	-0.040
-412.384	800.000	-0.084	0.291
-411.369	-166.543	0.226	0.009
-410.355	3.359	-0.413	0.300
-409.340	-200.000	0.039	-0.887
-408.325	-82.008	0.618	0.201
-407.311	109.720	0.316	0.377
-406.296	-69.370	-1.124	-0.430
-405.282	800.000	-0.128	0.455
-404.267	-38.865	-0.358	0.188
-403.252	-82.463	0.359	-0.116
-402.238	90.383	-0.653	-0.728
-401.223	-125.205	-0.506	0.077
-400.209	800.000	-0.060	-0.209
-399.194	-32.786	-0.524	-0.290
-398.179	-32.401	-0.263	-0.146
-397.165	36.662	-0.716	0.630
-396.150	88.124	-0.438	0.484
-395.136	107.056	-0.316	-0.374
-394.121	-123.965	0.796	-0.125
-393.106	-162.726	-0.645	-0.031
-392.092	128.677	-0.463	0.588
-391.077	800.000	-0.103	-0.398
-390.063	-25.927	-0.552	-0.324
-389.048	171.419	-0.236	0.337
-388.033	273.405	0.139	0.244
-387.019	-52.227	0.640	-0.296
-386.004	296.502	0.332	-0.606
-384.990	-48.000	-0.959	0.462
-383.975	-200.000	-0.198	-0.000
-382.960	507.965	0.071	0.164
-381.946	17.251	-0.310	-0.245
-380.931	786.084	-0.158	-0.430
-379.917	-73.071	0.501	-0.183
-378.902	-56.710	0.685	-0.302
-377.888	-200.000	-0.134	0.709
-376.873	-126.388	-0.444	0.066
-375.858	666.665	0.150	-0.385
-374.844	-91.897	0.861	-0.243
-373.829	100.462	-0.753	-0.870
-372.815	-183.881	-0.451	0.008
-371.800	-14.318	0.238	-0.152
-370.785	-130.878	-0.831	0.111
-369.771	-36.407	0.390	-0.209
-368.756	26.340	-0.645	0.537
-367.742	351.817	0.162	-0.319
-366.727	-106.958	-0.460	-0.101
-365.712	-109.685	0.351	0.074
-364.698	-178.425	-0.866	0.020
-363.683	750.685	0.071	0.190
-362.669	-200.000	0.036	-0.763
-361.654	-0.692	-0.857	-0.604
-360.639	254.240	0.444	0.756
-359.625	-56.658	0.353	-0.155
-358.610	-105.144	1.035	0.235
-357.596	308.197	0.253	0.470
-356.581	-200.000	-0.046	-0.289
-355.566	800.000	0.140	-0.545
-354.552	-130.410	-0.248	0.033
-353.537	34.068	0.156	-0.136
-352.523	52.530	0.223	-0.211
-351.508	-200.000	-0.032	-0.443
-350.493	172.810	0.323	0.463
-349.479	212.633	0.336	0.527
-348.464	-28.918	-0.861	0.492
-347.450	800.000	-0.175	0.717
-346.435	286.360	0.281	-0.504
-345.420	10.048	0.437	-0.330
-344.406	-6.317	0.685	-0.465
-343.391	-151.497	-0.592	-0.044
-342.377	168.046	-0.174	-0.247
-341.362	7.634	-0.529	-0.393
-340.348	396.922	-0.188	-0.391
-339.333	-52.887	-0.083	0.038
-338.318	-4.183	0.667	-0.459
-337.304	800.000	0.144	-0.529
-336.289	800.000	0.184	-0.542
-335.275	167.827	0.452	0.639
-334.260	-200.000	0.013	0.636
-333.245	1.767	0.761	-0.545
-332.231	63.717	-0.494	-0.493
-331.216	20.882	0.399	0.321
-330.202	3.665	0.142	0.103
-329.187	-42.194	0.687	-0.349
-328.172	-90.418	-0.530	-0.153
-327.158	-18.369	0.183	-0.114
-326.143	-200.000	0.037	-0.779
-325.129	-200.000	-0.074	-0.844
-324.114	-116.370	0.309	0.057
-323.099	-200.000	-0.029	-0.492
-322.085	-137.601	0.820	-0.092
-321.070	161.936	0.097	0.135
-320.056	-79.721	-0.718	0.240
-319.041	11.820	0.447	-0.341
-318.026	59.309	0.401	0.392
-317.012	-200.000	0.082	0.612
-315.997	80.438	-0.194	-0.208
-314.983	-57.132	0.799	-0.349
-313.968	-200.000	0.072	-1.008
-312.953	-135.317	-0.272	-0.032
-311.939	-44.938	0.581	-0.288
-310.924	-51.094	0.698	-0.325
-309.910	150.800	-0.225	-0.304
-308.895	233.099	0.054	-0.088
-307.880	-65.584	-0.525	0.209
-306.866	-60.728	0.911	-0.383
-305.851	229.126	-0.193	0.313
-304.837	-107.823	0.956	0.207
-303.822	-107.178	-0.600	-0.131
-302.807	23.828	-0.185	0.152
-301.793	800.000	-0.047	-0.162
-300.778	119.510	-0.295	-0.362
-299.764	29.487	0.598	0.504
-298.749	466.863	0.088	-0.196
-297.735	-200.000	0.027	-0.589
-296.720	-61.691	0.070	-0.029
-295.705	-200.000	0.101	0.481
-294.691	29.669	0.284	-0.239
-293.676	800.000	0.230	-0.736
-292.662	127.885	0.409	0.516
-291.647	-90.348	-0.611	0.176
-290.632	13.107	0.291	0.223
-289.618	-160.226	0.281	0.015
-288.603	-200.000	-0.044	0.420
-287.589	-200.000	0.014	0.408
-286.574	36.538	0.668	-0.585
-285.559	260.040	0.214	-0.367
-284.545	797.802	-0.161	0.441
-283.530	800.000	-0.143	0.595
-282.516	-129.154	-0.147	-0.020
-281.501	234.043	-0.351	0.574
-280.486	87.508	0.218	-0.240
-279.472	189.476	0.503	-0.747
-278.457	-60.669	-0.434	-0.182
-277.443	-81.171	-0.687	0.225
-276.428	-97.910	0.224	-0.057
-275.413	-26.729	-1.356	0.786
-274.399	272.893	0.506	-0.885
-273.384	69.135	-0.188	0.192
-272.370	-200.000	-0.132	0.813
-271.355	-88.735	-0.250	-0.074
-270.340	-25.770	-0.131	0.076
-269.326	-200.000	-0.029	0.776
-268.311	-46.372	-0.691	0.336
-267.297	-57.827	0.194	0.084
-266.282	-45.476	-0.826	0.405
-265.267	45.706	-0.433	0.397
-264.253	13.450	0.654	0.503
-263.238	155.214	-0.422	0.575
-262.224	-140.449	-0.279	-0.029
-261.209	-62.826	0.302	0.124
-260.195	-200.000	-0.032	-0.586
-259.180	-96.133	0.445	0.117
-258.165	29.643	-0.631	0.532
-257.151	-200.000	0.008	0.136
-256.136	-114.887	-0.518	-0.098
-255.122	800.000	0.114	-0.412
-254.107	-65.258	0.715	-0.285
-253.092	-11.555	-0.430	0.280
-252.078	-19.652	-0.328	-0.201
-251.063	-33.320	0.245	0.134
-250.049	800.000	-0.206	0.870
-249.034	-200.000	0.057	-0.385
-248.019	26.489	0.151	0.125
-247.005	-103.086	1.041	-0.244
-245.990	472.699	0.348	-0.776
-244.976	668.405	0.182	0.467
-243.961	33.805	0.363	0.313
-242.946	-88.293	-0.737	-0.218
-241.932	753.377	-0.299	-0.801
-240.917	-200.000	0.054	-0.262
-239.903	39.233	-0.811	0.718
-238.888	-7.877	0.629	-0.420
-237.873	800.000	-0.153	0.484
-236.859	263.508	0.327	0.563
-235.844	545.043	-0.374	0.885
-234.830	-200.000	0.021	0.181
-233.815	159.831	0.156	0.215
-232.800	107.906	-0.293	0.346
-231.786	316.750	-0.132	-0.247
-230.771	-198.814	0.380	0.002
-229.757	-61.221	-0.353	-0.147
-228.742	713.887	0.209	-0.547
-227.727	-122.557	-0.912	-0.147
-226.713	17.428	0.550	-0.432
-225.698	34.229	-0.547	0.472
-224.684	75.726	0.325	0.340
-223.669	580.720	-0.070	0.169
-222.655	-117.828	0.852	0.151
-221.640	28.679	0.158	-0.132
-220.625	800.000	0.038	-0.121
-219.611	800.000	0.042	-0.135
-218.596	162.608	0.151	-0.210
-217.582	-200.000	-0.057	-0.307
-216.567	207.809	-0.264	0.408
-215.552	-169.843	0.839	-0.030
-214.538	800.000	-0.163	0.516
-213.523	-135.949	-0.228	0.026
-212.509	-200.000	0.127	-0.561
-211.494	79.136	0.417	-0.442
-210.479	-200.000	-0.001	-0.140
-209.465	-14.934	0.742	0.471
-208.450	800.000	0.178	-0.745
-207.436	-59.797	-0.322	-0.136
-206.421	-121.000	0.335	0.056
-205.406	198.346	-0.308	0.465
-204.392	228.501	0.226	0.363
-203.377	-94.963	-0.798	0.214
-202.363	-107.801	0.813	0.175
-201.348	-200.000	0.111	-0.787
-200.333	-94.653	0.449	-0.121
-199.319	201.790	0.337	0.513
-198.304	29.111	0.288	-0.242
-197.290	-200.000	0.179	-0.875
-196.275	800.000	0.098	0.351
-195.260	495.443	-0.162	0.367
-194.246	660.871	-0.111	0.283
-193.231	-200.000	0.177	-0.766
-192.217	-86.833	-0.647	-0.195
-191.202	140.987	-0.143	0.186
-190.187	-26.929	-0.220	-0.127
-189.173	60.727	-0.763	-0.748
-188.158	62.319	-0.408	0.402
-187.144	-133.791	-0.084	0.010
-186.129	23.164	-0.555	-0.450
-185.114	132.103	0.372	-0.473
-184.100	800.000	-0.285	-0.804
-183.085	-120.996	-0.047	-0.008
-182.071	-200.000	0.096	-1.338
-181.056	-41.064	-0.296	-0.151
-180.042	85.749	-0.520	-0.564
-179.027	800.000	-0.073	-0.210
-178.012	-23.337	-0.651	-0.387
-176.998	399.694	0.077	0.160
-175.983	174.881	-0.064	-0.091
-174.969	171.834	0.477	-0.677
-173.954	-172.541	-0.444	-0.014
-172.939	87.323	-0.505	-0.551
-171.925	30.134	-0.417	-0.352
-170.910	800.000	-0.243	0.732
-169.896	-142.065	0.524	0.051
-168.881	-60.369	-0.107	-0.045
-167.866	398.449	-0.256	0.528
-166.852	588.222	-0.240	-0.583
-165.837	23.852	-0.471	0.383
-164.823	-136.219	0.968	-0.112
-163.808	-200.000	0.072	-0.739
-162.793	-57.197	-0.787	0.342
-161.779	37.059	0.641	-0.560
-160.764	-200.000	0.007	0.918
-159.750	-146.069	0.106	-0.009
-158.735	-7.211	0.393	-0.263
-157.720	800.000	-0.183	0.781
-156.706	327.616	-0.343	0.649
-155.691	-95.011	-0.611	0.163
-154.677	439.139	-0.484	-1.042
-153.662	-200.000	0.012	0.198
-152.647	-33.574	0.246	0.134
-151.633	-103.566	0.268	-0.062
-150.618	-200.000	-0.002	0.071
-149.604	3.028	-0.041	-0.029
-148.589	-200.000	-0.003	-0.443
-147.574	800.000	-0.243	-0.923
-146.560	-200.000	-0.055	-0.612
-145.545	-5.459	-0.338	0.229
-144.531	800.000	-0.133	0.459
-143.516	33.278	-0.400	-0.342
-142.502	-67.211	-0.405	-0.157
-141.487	800.000	0.213	0.674
-140.472	179.881	-0.094	-0.136
-139.458	800.000	0.247	0.806
-138.443	-79.574	-0.520	-0.173
-137.429	800.000	-0.070	0.240
-136.414	-66.021	-0.940	-0.370
-135.399	126.778	-0.174	0.217
-134.385	229.316	0.061	-0.099
-133.370	27.850	0.113	0.094
-132.356	-200.000	0.101	-0.649
-131.341	251.793	-0.075	-0.126
-130.326	-120.313	-0.149	0.025
-129.312	-0.100	-0.242	0.170
-128.297	-97.598	-0.251	-0.064
-127.283	44.740	-0.760	-0.689
-126.268	264.133	0.207	-0.355
-125.253	1.629	-0.288	0.204
-124.239	800.000	0.221	0.886
-123.224	-117.984	-0.283	0.050
-122.210	150.183	-0.337	0.451
-121.195	-109.765	0.345	-0.071
-120.180	-71.319	0.539	0.199
-119.166	-200.000	0.030	0.234
-118.151	-200.000	0.010	0.492
-117.137	-5.264	-0.350	-0.237
-116.122	75.035	0.203	-0.210
-115.107	-37.233	-0.914	-0.482
-114.093	-83.629	-0.247	0.078
-113.078	-22.395	0.464	-0.277
-112.064	-105.618	-0.964	0.215
-111.049	365.705	-0.091	0.181
-110.034	242.223	0.232	-0.382
-109.020	29.033	-0.283	0.236
-108.005	295.039	0.123	-0.221
-106.991	-96.562	-0.987	0.256
-105.976	-61.448	0.714	0.296
-104.962	-38.262	0.554	0.289
-103.947	-200.000	0.037	-0.338
-102.932	-118.347	0.268	-0.047
-101.918	800.000	-0.067	0.214
-100.903	96.920	0.593	0.669
-99.889	-63.171	-0.540	0.219
-98.874	-127.569	-0.464	-0.066
-97.859	-85.515	0.372	0.114
-96.845	-200.000	-0.032	-0.165
-95.830	-110.980	-0.929	-0.188
-94.816	-200.000	-0.037	-0.272
-93.801	-51.210	-0.928	0.428
-92.786	299.823	0.170	0.308
-91.772	14.581	-0.301	-0.232
-90.757	363.507	0.435	0.861
-89.743	-123.583	0.572	0.089
-88.728	-200.000	-0.028	-0.470
-87.713	438.088	0.228	0.489
-86.699	-56.077	-0.615	-0.269
-85.684	-30.185	-0.348	-0.194
-84.670	26.456	0.257	-0.212
-83.655	63.423	-0.259	0.255
-82.640	-92.066	0.178	-0.049
-81.626	-200.000	-0.021	0.139
-80.611	-89.236	0.251	0.073
-79.597	23.073	0.662	-0.534
-78.582	205.312	-0.330	0.505
-77.567	556.348	0.209	0.495
-76.553	-200.000	-0.114	-0.804
-75.538	-200.000	0.048	-0.289
-74.524	-151.829	0.791	-0.057
-73.509	50.025	-0.687	-0.638
-72.494	-94.206	0.564	0.152
-71.480	-200.000	0.022	1.147
-70.465	-120.337	-0.706	-0.118
-69.451	626.578	-0.193	0.479
-68.436	-105.988	-0.195	0.043
-67.422	76.156	-0.341	0.355
-66.407	-200.000	0.006	0.110
-65.392	-200.000	0.062	0.341
-64.378	-200.000	-0.047	0.490
-63.363	76.756	0.454	0.474
-62.349	-100.000	0.123	-0.030
-61.334	127.342	-0.854	-1.066
-60.319	566.237	0.242	0.576
-59.305	-200.000	-0.223	-1.138
-58.290	800.000	0.271	1.029
-57.276	-200.000	0.157	1.293
-56.261	-200.000	96.391	599.935
-55.246	631.422	1367.031	3401.629
-54.232	201.537	2536.208	3839.918
-53.217	117.852	2140.996	2591.605
-52.203	42.473	1688.154	1509.096
-51.188	35.051	1501.467	1292.287
-50.173	32.403	1476.582	1253.212
-49.159	53.668	1527.915	1441.251
-48.144	54.579	1544.676	1463.166
-47.130	35.060	1504.080	1294.391
-46.115	31.895	1489.982	1260.971
-45.100	31.701	1486.167	1256.388
-44.086	31.811	1483.702	1254.988
-43.071	31.902	1482.384	1254.433
-42.057	31.769	1479.424	1250.991
-41.042	31.960	1477.590	1250.669
-40.027	31.695	1477.646	1248.896
-39.013	31.801	1476.034	1248.188
-37.998	31.776	1474.782	1246.915
-36.984	31.914	1473.009	1246.284
-35.969	31.719	1472.666	1244.646
-34.954	31.719	1471.221	1243.380
-33.940	31.783	1469.802	1242.552
-32.925	31.683	1469.500	1241.584
-31.911	31.932	1466.533	1240.680
-30.896	31.732	1465.322	1238.286
-29.881	31.901	1463.915	1238.161
-28.867	31.704	1463.140	1236.154
-27.852	31.588	1462.612	1234.895
-26.838	31.893	1459.428	1234.163
-25.823	31.819	1458.851	1233.142
-24.809	31.891	1457.201	1232.168
-23.794	31.844	1456.342	1231.088
-22.779	31.858	1454.273	1229.382
-21.765	31.886	1453.087	1228.510
-20.750	31.633	1452.121	1225.991
-19.736	31.942	1450.476	1226.576
-18.721	31.726	1450.448	1225.089
-17.706	31.885	1448.758	1224.653
-16.692	31.655	1447.973	1222.438
-15.677	31.451	1447.242	1220.444
-14.663	31.662	1446.793	1221.391
-13.648	31.644	1445.992	1220.549
-12.633	31.716	1444.575	1219.775
-11.619	31.601	1442.527	1217.247
-10.604	31.778	1442.246	1218.114
-9.590	31.661	1441.935	1217.042
-8.575	31.848	1440.208	1216.748
-7.560	31.720	1439.213	1215.029
-6.546	31.721	1438.885	1214.712
-5.531	31.656	1438.264	1213.721
-4.517	31.573	1437.031	1212.093
-3.502	31.455	1436.252	1210.624
-2.487	31.815	1434.390	1211.331
-1.473	31.747	1433.732	1210.287
-0.458	31.749	1434.022	1210.496
0.556	33.028	1423.632	1197.443
1.571	30.053	1398.114	1157.328
2.586	26.591	1340.293	1088.592
3.600	24.649	1260.143	1012.416
4.615	23.159	1215.312	968.166
5.629	20.357	1158.419	908.123
6.644	11.478	1074.620	799.080
7.659	4.718	1035.210	737.745
8.673	3.657	1029.185	728.385
9.688	3.537	1025.257	724.976
10.702	3.250	1024.338	722.915
11.717	3.396	1022.726	722.396
12.731	6.602	1024.820	738.848
13.746	15.167	1036.610	787.719
14.761	22.478	1046.767	829.949
15.775	24.032	1048.836	838.843
16.790	24.164	1046.278	837.348
17.804	23.657	1045.640	834.378
18.819	23.095	1044.588	830.829
19.834	22.987	1043.725	829.562
20.848	23.125	1042.672	829.295
21.863	23.311	1043.456	830.720
22.877	23.372	1041.680	829.518
23.892	23.191	1040.725	827.838
24.907	22.917	1041.228	826.882
25.921	22.678	1040.445	825.068
26.936	22.922	1039.404	825.310
27.950	23.189	1036.961	824.541
28.965	22.861	1036.608	822.660
29.980	22.649	1035.345	820.600
30.994	22.971	1035.083	821.817
32.009	23.080	1033.545	821.030
33.023	22.992	1034.337	821.177
34.038	22.873	1032.944	819.445
35.053	22.781	1031.625	817.902
36.067	22.944	1031.053	818.128
37.082	22.656	1029.897	815.808
38.096	22.730	1029.437	815.713
39.111	22.657	1029.701	815.513
40.126	22.995	1028.430	815.994
41.140	23.025	1026.792	814.761
42.155	22.882	1025.532	813.030
43.169	22.148	1024.712	808.933
44.184	21.958	1024.040	807.456
45.199	22.115	1021.932	806.445
46.213	22.354	1020.593	806.411
47.228	22.380	1020.666	806.515
48.242	22.560	1020.520	807.152
49.257	23.081	1019.317	808.511
50.271	23.035	1018.617	807.675
51.286	22.872	1018.211	806.541
52.301	22.890	1017.655	806.108
53.315	23.228	1017.559	807.504
54.330	23.218	1015.668	805.885
55.344	22.808	1015.012	803.430
56.359	23.161	1012.668	803.104
57.374	22.812	1012.779	801.538
58.388	22.673	1012.202	800.378
59.403	22.783	1010.338	799.334
60.417	22.303	1010.644	797.330
61.432	22.482	1008.901	796.694
62.447	22.589	1008.898	797.104
63.461	22.326	1008.211	795.302
64.476	22.566	1006.794	795.197
65.490	22.438	1007.090	794.780
66.505	22.305	1005.484	792.843
67.520	22.041	1004.556	790.854
68.534	22.038	1004.707	790.888
69.549	22.310	1003.416	791.025
70.563	21.796	1003.789	788.936
71.578	21.818	1002.186	787.707
72.593	21.901	1000.722	786.858
73.607	21.356	999.848	783.662
74.622	21.228	998.773	782.177
75.636	21.712	998.791	784.285
76.651	22.001	996.943	784.057
77.666	21.865	996.845	783.302
78.680	21.968	996.753	783.622
79.695	21.726	996.296	782.112
80.709	21.899	995.501	782.189
81.724	22.087	994.000	781.778
82.739	22.272	994.063	782.583
83.753	22.509	991.983	781.928
84.768	22.586	992.597	782.685
85.782	23.138	992.368	784.885
86.797	23.514	991.521	785.812
87.812	23.461	991.514	785.503
88.826	23.702	989.557	784.948
89.841	23.372	989.526	783.395
90.855	23.205	989.025	782.190
91.870	23.099	988.489	781.228
92.884	23.303	987.290	781.111
93.899	23.312	985.798	779.905
94.914	22.962	985.686	778.205
95.928	23.338	984.515	778.865
96.943	23.373	983.264	777.959
97.957	23.060	983.262	776.513
98.972	22.977	982.738	775.668
99.987	23.156	981.734	775.594
101.001	23.137	981.203	775.021
102.016	23.229	979.808	774.250
103.030	22.977	978.523	772.068
104.045	23.167	977.814	772.270
105.060	23.293	977.985	772.885
106.074	23.222	976.725	771.512
107.089	23.173	975.406	770.188
108.103	22.764	974.458	767.592
109.118	22.551	973.572	765.900
110.133	22.147	972.440	763.189
111.147	22.011	971.214	761.569
112.162	22.140	970.640	761.610
113.176	22.268	969.217	760.982
114.191	22.224	969.383	760.852
115.206	22.601	967.939	761.284
116.220	22.285	967.156	759.234
117.235	22.237	966.327	758.311
118.249	22.253	965.916	757.990
119.264	22.067	964.099	755.695
120.279	21.935	963.687	754.737
121.293	22.108	962.666	754.616
122.308	21.685	962.312	752.454
123.322	22.103	960.726	752.941
124.337	21.937	960.150	751.709
125.352	21.675	959.456	749.978
126.366	21.230	958.877	747.557
127.381	21.795	957.002	748.441
128.395	21.837	955.527	747.402
129.410	22.092	956.183	748.933
130.424	22.049	954.816	747.615
131.439	22.085	954.151	747.182
132.454	22.449	953.516	748.164
133.468	22.453	953.757	748.304
134.483	22.332	953.177	747.271
135.497	22.552	951.042	746.463
136.512	22.358	951.657	746.056
137.527	22.728	950.262	746.464
138.541	22.544	949.279	744.846
139.556	22.725	948.552	744.972
140.570	22.659	947.756	744.005
141.585	22.595	947.514	743.479
142.600	23.032	947.276	745.067
143.614	23.210	946.910	745.464
144.629	23.203	945.537	744.288
145.643	23.413	945.352	744.958
146.658	23.385	943.909	743.639
147.673	23.234	943.042	742.256
148.687	23.092	941.333	740.250
149.702	22.673	941.424	738.504
150.716	22.596	939.914	736.933
151.731	22.467	939.297	735.846
152.746	22.566	938.262	735.381
153.760	22.649	937.973	735.437
154.775	22.706	937.085	734.914
155.789	23.342	935.443	736.204
156.804	22.870	935.730	734.403
157.819	22.969	935.015	734.189
158.833	22.915	934.195	733.254
159.848	22.992	934.214	733.523
160.862	23.454	933.456	734.778
161.877	23.134	933.019	733.045
162.892	22.990	931.256	730.997
163.906	22.657	929.436	728.132
164.921	22.363	929.518	726.915
165.935	22.616	927.520	726.331
166.950	22.450	927.008	725.185
167.964	22.692	925.905	725.252
168.979	22.775	925.404	725.136
169.994	22.895	923.722	724.244
171.008	22.687	922.689	722.518
172.023	22.733	922.361	722.387
173.037	22.759	922.261	722.353
174.052	23.265	921.819	724.010
175.067	23.086	921.085	722.639
176.081	22.875	918.709	719.851
177.096	22.278	918.916	717.516
178.110	22.065	917.322	715.341
179.125	21.996	918.104	715.606
180.140	22.140	916.760	715.078
181.154	22.570	914.934	715.339
182.169	22.549	915.400	715.552
183.183	22.675	915.212	715.855
184.198	22.846	915.126	716.417
185.213	22.832	913.423	714.966
186.227	22.777	913.250	714.544
187.242	22.866	913.222	714.820
188.256	23.002	911.847	714.230
189.271	23.138	911.498	714.444
190.286	23.141	911.159	714.123
191.300	22.907	909.582	711.882
192.315	22.427	909.173	709.566
193.329	22.074	906.780	706.215
194.344	21.969	906.911	705.834
195.359	22.340	906.168	706.683
196.373	22.365	906.090	706.659
197.388	22.785	906.286	708.438
198.402	22.995	905.452	708.566
199.417	23.242	905.949	709.880
200.432	23.547	905.980	711.066
201.446	23.406	905.480	710.046
202.461	23.475	905.031	709.905
203.475	23.668	903.661	709.539
204.490	23.741	902.536	708.885
205.504	22.860	901.718	704.666
206.519	22.502	901.203	702.772
207.534	22.727	900.429	703.005
208.548	22.783	899.790	702.668
209.563	23.034	899.063	703.036
210.577	23.131	897.871	702.426
211.592	22.883	897.642	701.200
212.607	23.386	897.554	703.065
213.621	23.736	897.147	704.070
214.636	23.521	897.108	703.126
215.650	23.166	896.020	700.806
216.665	23.257	895.284	700.530
217.680	23.205	894.536	699.675
218.694	23.269	894.326	699.702
219.709	23.387	893.296	699.300
220.723	23.527	892.890	699.472
221.738	23.014	892.458	697.049
222.753	23.119	891.923	696.984
223.767	23.001	890.575	695.405
224.782	23.340	889.594	695.908
225.796	23.387	889.906	696.278
226.811	23.609	889.744	696.961
227.826	23.806	887.234	695.702
228.840	23.237	886.332	692.710
229.855	22.831	886.616	691.279
230.869	22.953	886.755	691.807
231.884	22.689	886.099	690.198
232.899	22.758	885.105	689.633
233.913	22.852	884.858	689.749
234.928	22.847	882.318	687.687
235.942	22.554	883.070	687.069
236.957	22.301	882.353	685.466
237.972	22.484	880.792	684.903
238.986	22.549	880.240	684.666
240.001	22.472	879.428	683.673
241.015	22.448	879.155	683.309
242.030	22.441	878.886	683.012
243.045	22.620	877.757	682.768
244.059	22.854	877.904	683.728
245.074	22.836	876.958	682.861
246.088	23.106	876.707	683.649
247.103	23.318	875.944	683.812
248.117	23.367	877.022	684.783
249.132	23.727	875.691	685.072
250.147	24.015	875.049	685.621
251.161	24.139	875.670	686.522
252.176	24.412	874.818	686.845
253.190	24.358	874.728	686.507
254.205	24.208	873.970	685.273
255.220	24.330	873.267	685.129
256.234	24.362	872.262	684.402
257.249	24.075	872.312	683.283
258.263	24.249	870.996	682.856
259.278	24.096	870.737	682.008
260.293	23.947	869.832	680.666
261.307	24.551	869.138	682.372
262.322	24.012	869.382	680.443
263.336	24.333	869.171	681.447
264.351	24.364	867.928	680.530
265.366	23.787	867.855	678.210
266.380	24.091	867.454	678.997
267.395	23.959	866.582	677.751
268.409	24.396	865.779	678.725
269.424	24.103	864.729	676.730
270.439	24.110	864.508	676.521
271.453	23.936	863.375	674.916
272.468	23.718	862.544	673.380
273.482	24.173	861.635	674.335
274.497	23.854	862.153	673.471
275.512	23.951	860.394	672.404
276.526	23.668	859.936	670.917
277.541	24.007	858.901	671.328
278.555	23.853	859.291	670.995
279.570	24.472	858.494	672.646
280.585	24.244	857.936	671.292
281.599	24.693	857.617	672.669
282.614	24.053	857.074	669.776
283.628	23.769	856.092	667.883
284.643	24.000	855.302	668.076
285.657	24.132	854.322	667.748
286.672	24.230	854.825	668.448
287.687	23.676	854.065	665.718
288.701	24.108	853.694	666.989
289.716	24.253	852.895	666.848
290.730	23.997	852.664	665.650
291.745	23.826	851.792	664.272
292.760	24.246	850.580	664.836
293.774	23.898	851.054	663.848
294.789	24.443	849.860	664.889
295.803	24.530	850.068	665.316
296.818	24.116	849.709	663.434
297.833	24.046	847.689	661.540
298.847	23.972	847.143	660.780
299.862	24.088	846.248	660.454
300.876	24.313	846.405	661.353
301.891	24.531	845.631	661.498
302.906	24.217	846.260	660.764
303.920	24.521	845.557	661.284
304.935	24.491	845.309	660.922
305.949	24.891	845.247	662.293
306.964	24.769	843.566	660.468
307.979	24.624	842.398	658.962
308.993	24.490	842.092	658.167
310.008	24.284	842.362	657.563
311.022	24.665	841.505	658.236
312.037	24.453	841.736	657.579
313.052	24.173	840.662	655.653
314.066	24.159	839.569	654.688
315.081	23.777	838.301	652.241
316.095	23.368	838.513	650.846
317.110	23.446	838.154	650.795
318.125	23.784	837.723	651.645
319.139	23.774	836.093	650.281
320.154	23.476	835.586	648.741
321.168	23.321	834.890	647.577
322.183	23.514	834.662	648.047
323.197	23.836	834.404	648.966
324.212	23.863	834.054	648.732
325.227	23.897	833.161	648.106
326.241	23.980	832.830	648.092
327.256	23.805	831.673	646.499
328.270	23.741	831.397	645.993
329.285	23.664	831.185	645.492
330.300	23.523	830.326	644.256
331.314	23.310	829.302	642.632
332.329	23.574	829.174	643.434
333.343	23.842	828.612	643.911
334.358	24.059	829.526	645.352
335.373	24.038	828.866	644.704
336.387	24.116	827.804	644.105
337.402	24.287	826.873	643.941
338.416	24.685	825.762	644.455
339.431	24.540	825.791	643.897
340.446	25.120	825.407	645.628
341.460	24.932	826.263	645.564
342.475	24.956	825.339	644.871
343.489	24.867	823.968	643.423
344.504	25.141	824.153	644.497
345.519	24.970	824.184	643.849
346.533	25.224	823.615	644.258
347.548	25.125	822.991	643.358
348.562	24.719	822.232	641.253
349.577	24.850	821.046	640.738
350.592	24.743	819.607	639.177
351.606	24.385	819.780	637.976
352.621	24.205	819.276	636.883
353.635	24.278	819.305	637.111
354.650	24.595	818.064	637.221
355.665	24.321	817.932	636.082
356.679	24.480	817.207	636.030
357.694	24.219	816.989	634.874
358.708	24.551	816.523	635.638
359.723	24.075	816.167	633.612
360.738	24.592	815.053	634.527
361.752	24.493	814.693	633.839
362.767	24.229	814.660	632.822
363.781	24.460	815.018	633.862
364.796	24.864	815.087	635.296
365.810	25.118	813.511	634.909
366.825	25.053	814.429	635.341
367.840	24.892	814.255	634.578
368.854	24.821	813.095	633.364
369.869	25.115	812.002	633.499
370.883	24.804	811.923	632.281
371.898	24.894	810.281	631.261
372.913	24.690	810.294	630.498
373.927	25.052	809.169	630.842
374.942	24.996	808.491	630.062
375.956	25.102	807.759	629.808
376.971	25.384	807.417	630.474
377.986	25.150	807.877	629.955
379.000	25.296	808.161	630.635
380.015	25.825	805.996	630.742
381.029	25.545	804.537	628.564
382.044	25.675	804.263	628.749
383.059	25.765	804.402	629.118
384.073	25.473	804.326	627.983
385.088	25.614	803.720	627.947
386.102	24.838	802.487	624.221
387.117	24.757	802.363	623.787
388.132	24.766	800.932	622.652
389.146	24.417	800.900	621.355
390.161	24.567	801.061	621.949
391.175	24.743	800.309	621.920
392.190	25.439	800.709	624.599
393.205	25.524	799.253	623.701
394.219	24.904	798.838	621.173
395.234	24.131	798.713	618.336
396.248	24.284	797.375	617.776
397.263	24.296	796.568	617.140
398.278	24.459	796.769	617.805
399.292	24.072	796.555	616.245
400.307	23.939	795.753	615.110
401.321	24.306	795.472	616.107
402.336	24.537	794.202	615.866
403.350	24.389	795.003	615.919
404.365	24.802	794.126	616.611
405.380	25.122	794.260	617.764
406.394	25.811	794.323	620.132
407.409	25.911	793.793	620.006
408.423	25.910	793.786	619.940
409.438	25.769	793.260	618.992
410.453	25.605	792.717	617.947
411.467	26.066	791.512	618.535
412.482	25.728	791.573	617.369
413.496	25.555	791.327	616.530
414.511	25.975	791.408	617.979
415.526	26.025	790.528	617.410
416.540	25.559	789.351	614.840
417.555	25.499	789.560	614.745
418.569	25.586	789.186	614.694
419.584	25.681	788.047	614.077
420.599	25.489	787.928	613.278
421.613	161.656	1369.559	1793.502
422.628	139.976	1454.279	1793.579
