DTS Sentinel unit serial number:	SN413079Multiplexer serial number:	ORYXHardware model number:	OX4-SRSoftware version number:	ORYX F/W v4.00 Oryx Data Collector v3.7.2.0data status	okinstallation	princeton_trtdifferential loss correction	single-endedforward channel	channel 3reverse channel	N/Adate	2019/09/18time	08:52:35forward acquisition time	60.00reverse acquisition time	0.00gamma	496.2192k internal	0.2340k external	0.2340temperature offset calibration	0.9949default loss term (dB/km)	0.3790temperature slope calibration	1.0000multiplexer offset coefficient	1.0000multiplexer slope coefficient	1.0000fibre end	0.00T internal ref (°C)	24.84T ext. ref 1 (°C)	0.23T ext. ref 2 (°C)	20.91length (m)	temperature (°C)	Stokes	anti-Stokes-747.200	338.345	0.116	-0.226
-746.185	662.367	-0.071	0.183
-745.171	-200.000	0.002	0.044
-744.156	-12.085	-0.237	0.155
-743.142	-200.000	-0.080	0.486
-742.127	-101.164	0.092	-0.022
-741.112	188.817	0.031	0.047
-740.098	-200.000	0.004	0.160
-739.083	-36.202	0.100	-0.054
-738.069	-200.000	0.035	0.191
-737.054	131.558	-0.074	-0.095
-736.039	243.309	-0.228	-0.384
-735.025	-56.264	0.310	0.138
-734.010	800.000	-0.094	-0.269
-732.996	800.000	-0.044	-0.189
-731.981	683.793	-0.181	-0.472
-730.966	58.362	-0.236	0.232
-729.952	800.000	0.085	0.271
-728.937	-92.277	0.100	-0.028
-727.923	-7.605	0.110	-0.074
-726.908	-129.281	0.266	-0.037
-725.894	306.816	0.059	-0.111
-724.879	93.137	0.167	-0.189
-723.864	97.800	-0.271	-0.312
-722.850	146.895	0.117	0.157
-721.835	-12.607	0.516	-0.337
-720.821	-78.963	0.088	-0.030
-719.806	-104.334	-0.189	-0.044
-718.791	-131.033	-0.165	-0.022
-717.777	-200.000	-0.010	0.056
-716.762	136.220	-0.034	0.044
-715.748	800.000	-0.115	-0.369
-714.733	-62.535	-0.495	0.206
-713.718	321.860	-0.086	-0.165
-712.704	-59.797	0.270	0.116
-711.689	-188.479	0.222	0.003
-710.675	-80.642	0.078	0.026
-709.660	800.000	-0.035	0.132
-708.645	-200.000	-0.042	-0.209
-707.631	214.612	-0.202	0.320
-706.616	-200.000	-0.306	-0.001
-705.602	27.671	0.160	-0.135
-704.587	-200.000	-0.050	0.330
-703.572	-200.000	0.013	-0.235
-702.558	136.778	0.243	-0.318
-701.543	30.259	-0.246	-0.210
-700.529	-200.000	-0.060	-0.351
-699.514	7.116	-0.284	-0.212
-698.499	497.723	0.137	-0.316
-697.485	-200.000	0.030	-0.320
-696.470	-133.909	0.064	0.008
-695.456	-10.446	-0.143	0.095
-694.441	43.914	0.287	-0.263
-693.426	-121.217	0.199	-0.033
-692.412	-133.065	-0.108	0.014
-691.397	800.000	-0.006	-0.023
-690.383	478.604	0.139	-0.315
-689.368	2.484	-0.044	0.032
-688.354	-79.945	0.281	-0.094
-687.339	-98.890	-0.192	0.049
-686.324	93.268	0.191	-0.216
-685.310	-200.000	-0.012	-0.549
-684.295	-129.175	0.194	0.027
-683.281	-13.257	0.149	-0.097
-682.266	55.454	0.073	-0.071
-681.251	-153.078	-0.191	-0.013
-680.237	351.862	-0.056	-0.111
-679.222	800.000	0.081	0.278
-678.208	-200.000	0.057	-0.287
-677.193	183.210	0.134	0.199
-676.178	-200.000	-0.019	0.101
-675.164	53.556	0.103	0.099
-674.149	136.525	-0.167	-0.218
-673.135	-200.000	0.019	-0.094
-672.120	-200.000	-0.306	0.000
-671.105	452.386	-0.081	-0.178
-670.091	-139.147	0.173	-0.019
-669.076	-200.000	0.009	-0.110
-668.062	-47.616	0.337	0.164
-667.047	281.043	-0.073	-0.131
-666.032	524.307	0.203	0.478
-665.018	-100.462	-0.093	0.023
-664.003	285.321	-0.145	-0.261
-662.989	-200.000	-0.052	-0.242
-661.974	396.622	-0.040	0.084
-660.959	123.402	-0.195	0.244
-659.945	-67.740	-0.079	0.031
-658.930	-123.861	-0.108	-0.017
-657.916	-83.995	-0.251	0.080
-656.901	84.687	0.050	-0.054
-655.886	61.666	-0.088	0.088
-654.872	-110.745	-0.231	0.048
-653.857	-114.824	-0.213	0.041
-652.843	359.626	0.043	-0.086
-651.828	288.905	-0.060	-0.109
-650.814	-71.593	0.191	-0.071
-649.799	25.815	0.101	-0.084
-648.784	226.757	-0.110	-0.179
-647.770	-200.000	0.041	0.211
-646.755	800.000	0.016	-0.069
-645.741	-200.000	0.013	0.164
-644.726	34.682	-0.148	-0.129
-643.711	-15.419	-0.085	-0.054
-642.697	-200.000	0.033	-0.152
-641.682	-59.644	0.119	-0.051
-640.668	-169.784	-0.063	-0.002
-639.653	800.000	-0.105	-0.456
-638.638	-200.000	-0.016	-0.213
-637.624	-105.005	-0.099	0.023
-636.609	-9.175	0.302	-0.202
-635.595	800.000	0.119	-0.331
-634.580	800.000	0.009	0.033
-633.565	-0.055	0.245	-0.174
-632.551	-200.000	0.010	-0.136
-631.536	-136.007	-0.405	0.048
-630.522	303.012	-0.080	-0.148
-629.507	42.681	-0.337	-0.307
-628.492	-165.256	0.228	0.010
-627.478	588.220	0.093	-0.227
-626.463	-75.725	-0.302	-0.107
-625.449	-135.235	0.234	0.028
-624.434	-117.457	0.270	0.049
-623.419	-47.439	0.106	0.051
-622.405	-175.751	-0.224	-0.006
-621.390	-200.000	-0.006	0.346
-620.376	95.924	-0.101	-0.115
-619.361	-200.000	0.016	-0.119
-618.346	-138.431	0.067	-0.007
-617.332	-142.942	-0.137	0.013
-616.317	-24.942	0.109	-0.064
-615.303	800.000	0.026	0.112
-614.288	-146.246	0.140	0.012
-613.273	119.347	0.206	-0.254
-612.259	-65.720	0.083	-0.033
-611.244	-147.460	-0.134	0.011
-610.230	25.600	0.128	-0.106
-609.215	-89.374	0.357	0.105
-608.201	-200.000	-0.001	0.009
-607.186	173.281	0.089	-0.128
-606.171	-181.215	-0.245	0.005
-605.157	262.051	-0.262	-0.454
-604.142	330.555	0.057	-0.110
-603.128	-200.000	-0.013	0.362
-602.113	-40.912	-0.319	-0.165
-601.098	-16.613	-0.309	-0.195
-600.084	800.000	-0.004	0.017
-599.069	407.824	-0.126	-0.266
-598.055	-200.000	-0.009	0.267
-597.040	17.964	0.120	-0.096
-596.025	0.963	-0.511	-0.365
-595.011	162.666	0.114	-0.160
-593.996	-200.000	0.004	0.108
-592.982	800.000	-0.092	-0.269
-591.967	352.054	0.101	0.199
-590.952	-22.178	0.403	0.244
-589.938	-200.000	-0.006	0.109
-588.923	40.021	0.153	0.137
-587.909	800.000	0.016	-0.055
-586.894	-114.367	-0.430	0.083
-585.879	-43.773	0.259	0.130
-584.865	326.384	-0.070	-0.133
-583.850	-143.575	0.233	0.022
-582.836	-74.043	0.165	-0.059
-581.821	-147.739	-0.152	-0.013
-580.806	477.519	0.093	-0.210
-579.792	545.802	-0.011	0.025
-578.777	-153.225	-0.207	0.014
-577.763	84.224	-0.004	0.005
-576.748	-27.409	-0.112	-0.065
-575.733	329.409	0.111	0.212
-574.719	-98.406	0.165	-0.042
-573.704	-200.000	0.010	-0.237
-572.690	110.049	-0.065	-0.078
-571.675	-49.882	0.285	0.135
-570.661	-108.253	-0.311	-0.067
-569.646	-138.833	-0.107	-0.012
-568.631	-91.887	-0.203	-0.057
-567.617	-113.169	-0.483	0.095
-566.602	99.440	-0.084	0.097
-565.588	398.141	-0.065	0.136
-564.573	-145.367	0.179	-0.016
-563.558	341.879	0.053	0.104
-562.544	19.719	0.361	0.289
-561.529	-56.621	0.278	-0.123
-560.515	-22.466	0.349	0.210
-559.500	-200.000	0.015	-0.090
-558.485	216.987	0.043	-0.069
-557.471	-135.582	0.446	0.053
-556.456	-4.925	0.130	0.089
-555.442	315.148	0.136	-0.255
-554.427	-101.386	-0.043	0.010
-553.412	-109.455	-0.215	0.045
-552.398	-200.000	-0.054	-0.310
-551.383	168.575	-0.152	-0.215
-550.369	-200.000	0.014	-0.127
-549.354	-73.534	-0.175	-0.064
-548.339	-55.485	0.159	-0.071
-547.325	-100.943	0.102	-0.025
-546.310	-200.000	0.001	0.229
-545.296	-49.708	0.095	0.045
-544.281	-119.541	-0.336	0.058
-543.266	-123.166	-0.188	0.030
-542.252	118.281	0.083	-0.102
-541.237	800.000	-0.028	-0.089
-540.223	-200.000	-0.025	-0.170
-539.208	685.863	0.129	-0.336
-538.193	18.591	0.213	0.170
-537.179	-126.483	-0.214	0.032
-536.164	800.000	-0.032	-0.126
-535.150	-38.741	-0.151	0.079
-534.135	-200.000	-0.012	0.248
-533.121	163.081	-0.116	-0.162
-532.106	129.457	-0.082	-0.104
-531.091	103.020	0.168	-0.196
-530.077	336.482	-0.165	0.319
-529.062	-200.000	-0.030	0.156
-528.048	-69.647	0.445	-0.169
-527.033	800.000	-0.064	-0.220
-526.018	390.166	0.066	0.135
-525.004	-200.000	-0.003	0.131
-523.989	28.392	-0.061	-0.052
-522.975	-11.170	-0.305	0.200
-521.960	-95.133	0.165	-0.044
-520.945	55.089	0.207	0.199
-519.931	237.781	-0.086	0.142
-518.916	-200.000	0.011	0.064
-517.902	-30.323	-0.217	-0.123
-516.887	25.098	-0.155	-0.128
-515.872	-88.470	0.196	0.058
-514.858	50.447	-0.105	-0.099
-513.843	116.846	-0.124	0.151
-512.829	800.000	0.081	0.292
-511.814	-200.000	-0.032	-0.297
-510.799	-109.123	-0.370	0.078
-509.785	135.944	0.024	0.031
-508.770	38.802	0.147	-0.130
-507.756	-200.000	0.011	0.379
-506.741	77.819	-0.094	-0.100
-505.726	591.556	-0.111	0.272
-504.712	332.456	0.098	0.188
-503.697	-62.383	0.266	0.110
-502.683	51.032	-0.067	0.063
-501.668	-25.122	0.138	-0.081
-500.653	235.219	-0.136	-0.223
-499.639	-200.000	0.050	0.285
-498.624	-80.394	0.139	-0.046
-497.610	-12.442	-0.126	-0.082
-496.595	-110.656	0.199	0.041
-495.581	-13.693	-0.114	0.074
-494.566	-200.000	0.020	-0.312
-493.551	-200.000	-0.002	0.150
-492.537	-177.015	-0.195	0.005
-491.522	-128.180	-0.228	-0.032
-490.508	233.480	-0.100	-0.164
-489.493	-200.000	0.005	-0.335
-488.478	160.577	0.185	0.256
-487.464	47.495	-0.180	0.166
-486.449	-200.000	0.018	-0.459
-485.435	374.787	0.050	-0.101
-484.420	-115.414	-0.243	-0.045
-483.405	-200.000	0.008	-0.059
-482.391	7.027	0.141	-0.104
-481.376	-200.000	-0.006	-0.259
-480.362	165.882	-0.135	-0.189
-479.347	-200.000	0.015	-0.087
-478.332	114.633	-0.148	-0.179
-477.318	198.638	0.152	0.231
-476.303	-30.402	0.290	0.163
-475.289	282.755	-0.192	-0.341
-474.274	-73.690	0.318	0.115
-473.259	-200.000	0.021	0.138
-472.245	65.241	-0.275	0.276
-471.230	105.021	-0.253	-0.296
-470.216	-106.386	-0.211	-0.047
-469.201	36.880	-0.236	0.207
-468.186	126.991	-0.222	-0.279
-467.172	-107.886	-0.085	0.018
-466.157	-200.000	-0.012	0.261
-465.143	84.882	0.279	0.303
-464.128	145.164	0.221	0.293
-463.113	51.082	-0.127	-0.120
-462.099	403.794	-0.017	-0.036
-461.084	-125.465	-0.369	0.056
-460.070	460.042	-0.105	-0.232
-459.055	-106.129	0.381	-0.085
-458.040	-51.466	-0.074	-0.034
-457.026	294.064	0.068	0.124
-456.011	-68.560	-0.106	-0.041
-454.997	32.502	-0.132	-0.113
-453.982	-122.931	-0.202	-0.032
-452.968	254.309	-0.084	-0.142
-451.953	-50.715	-0.146	0.068
-450.938	-25.125	-0.171	0.101
-449.924	-113.283	-0.340	0.066
-448.909	3.069	0.184	0.133
-447.895	-112.213	-0.259	-0.052
-446.880	-49.376	0.183	0.087
-445.865	-68.221	0.145	0.056
-444.851	-11.382	0.087	-0.057
-443.836	-71.108	0.101	-0.038
-442.822	800.000	-0.065	0.246
-441.807	22.759	0.323	0.263
-440.792	212.578	-0.105	-0.164
-439.778	-10.180	-0.163	-0.107
-438.763	240.565	0.164	0.271
-437.749	73.420	-0.170	-0.176
-436.734	-89.389	-0.266	0.078
-435.719	94.443	-0.207	0.233
-434.705	361.622	0.224	0.445
-433.690	-200.000	-0.047	0.388
-432.676	74.109	-0.089	0.093
-431.661	701.701	-0.042	0.110
-430.646	800.000	-0.040	0.115
-429.632	83.366	0.118	0.128
-428.617	-26.622	-0.051	-0.030
-427.603	-114.081	0.333	-0.064
-426.588	43.748	-0.210	-0.190
-425.573	-200.000	-0.012	0.093
-424.559	-40.204	-0.061	0.031
-423.544	255.065	-0.100	-0.170
-422.530	-40.685	0.250	-0.128
-421.515	-200.000	-0.085	0.000
-420.500	-154.724	-0.394	-0.026
-419.486	123.434	-0.143	0.178
-418.471	-28.745	-0.262	-0.149
-417.457	184.964	-0.111	-0.164
-416.442	168.893	0.053	0.074
-415.428	800.000	0.085	0.311
-414.413	204.920	0.135	-0.208
-413.398	-38.335	0.292	-0.153
-412.384	800.000	-0.066	-0.233
-411.369	-68.513	0.270	-0.104
-410.355	101.517	0.042	0.048
-409.340	354.464	0.149	-0.293
-408.325	-93.156	-0.162	-0.045
-407.311	-153.472	0.144	-0.010
-406.296	24.708	0.217	-0.178
-405.282	-99.328	-0.333	-0.083
-404.267	-200.000	-0.003	0.183
-403.252	-95.638	0.267	-0.071
-402.238	-100.452	-0.181	0.044
-401.223	79.221	0.039	0.041
-400.209	-58.207	-0.158	0.068
-399.194	-141.854	-0.225	0.022
-398.179	-160.360	0.223	0.012
-397.165	-140.956	-0.031	-0.003
-396.150	7.467	0.099	-0.073
-395.136	-67.410	-0.304	0.118
-394.121	-90.845	-0.308	-0.088
-393.106	-200.000	0.028	-0.142
-392.092	-111.660	0.431	-0.086
-391.077	-50.750	0.093	0.043
-390.063	-54.870	0.094	0.042
-389.048	-70.556	0.086	-0.032
-388.033	-106.522	0.244	0.054
-387.019	502.751	0.152	-0.348
-386.004	-107.721	-0.236	-0.051
-384.990	-200.000	0.001	0.147
-383.975	-98.947	0.100	-0.025
-382.960	-58.087	0.155	-0.067
-381.946	-172.410	0.412	-0.013
-380.931	468.510	-0.042	-0.092
-379.917	-200.000	0.004	-0.037
-378.902	-160.556	-0.418	0.022
-377.888	38.878	-0.211	0.186
-376.873	-200.000	0.027	-0.127
-375.858	136.420	-0.144	0.185
-374.844	-134.662	-0.333	0.040
-373.829	-63.896	-0.234	0.095
-372.815	800.000	-0.074	-0.221
-371.800	800.000	0.026	-0.111
-370.785	129.551	0.282	0.356
-369.771	-78.032	-0.290	-0.099
-368.756	-200.000	-0.007	-0.131
-367.742	-108.062	-0.173	-0.037
-366.727	-162.331	0.360	-0.018
-365.712	-33.917	0.029	0.016
-364.698	-145.103	0.436	0.039
-363.683	-200.000	-0.012	-0.121
-362.669	261.504	-0.067	-0.114
-361.654	800.000	-0.008	-0.027
-360.639	-200.000	-0.022	0.308
-359.625	-65.445	-0.132	0.052
-358.610	-200.000	0.028	-0.130
-357.596	4.375	-0.357	-0.259
-356.581	256.675	-0.124	0.210
-355.566	-59.296	-0.170	0.072
-354.552	800.000	-0.079	0.341
-353.537	-200.000	-0.013	0.162
-352.523	800.000	-0.052	0.214
-351.508	295.893	-0.166	-0.301
-350.493	-83.545	-0.332	-0.105
-349.479	-0.647	-0.069	-0.049
-348.464	78.206	-0.068	0.072
-347.450	-200.000	0.025	0.000
-346.435	-96.656	0.380	-0.099
-345.420	-57.407	-0.056	-0.024
-344.406	-200.000	0.026	-0.175
-343.391	6.012	0.176	-0.128
-342.377	258.184	0.092	-0.157
-341.362	-21.624	0.150	0.090
-340.348	-17.625	0.148	0.092
-339.333	476.763	-0.121	0.270
-338.318	-109.845	0.387	-0.080
-337.304	136.450	0.183	-0.235
-336.289	101.287	-0.146	0.168
-335.275	561.801	0.162	0.387
-334.260	-200.000	-0.039	0.266
-333.245	-154.266	0.183	-0.012
-332.231	-39.590	-0.075	-0.039
-331.216	285.939	0.012	0.021
-330.202	-200.000	0.003	0.022
-329.187	147.769	0.191	-0.254
-328.172	39.805	0.310	-0.275
-327.158	-90.552	-0.183	-0.052
-326.143	366.912	-0.055	0.110
-325.129	-165.500	0.317	0.014
-324.114	-200.000	-0.005	-0.106
-323.099	-92.049	-0.205	-0.057
-322.085	-56.841	-0.202	-0.088
-321.070	-39.352	0.260	0.135
-320.056	46.560	-0.133	-0.121
-319.041	800.000	-0.113	0.477
-318.026	-98.189	0.518	-0.131
-317.012	-200.000	-0.029	0.650
-315.997	-93.867	-0.253	-0.069
-314.983	-200.000	0.008	0.228
-313.968	-200.000	-0.010	0.371
-312.953	-120.555	0.035	-0.006
-311.939	-200.000	0.497	-0.000
-310.924	150.223	-0.201	0.269
-309.910	-82.391	-0.276	0.088
-308.895	201.343	-0.200	-0.303
-307.880	-75.700	-0.389	0.136
-306.866	15.503	-0.184	0.143
-305.851	800.000	0.033	-0.121
-304.837	75.378	-0.092	0.096
-303.822	-62.315	-0.345	0.142
-302.807	-200.000	0.026	0.114
-301.793	151.729	-0.060	-0.081
-300.778	-0.504	0.101	0.071
-299.764	-139.182	0.182	-0.019
-298.749	522.177	0.058	0.134
-297.735	355.260	0.093	0.183
-296.720	-49.934	0.369	-0.172
-295.705	137.021	0.229	0.294
-294.691	104.267	-0.087	-0.101
-293.676	-200.000	-0.037	0.296
-292.662	222.157	-0.273	0.433
-291.647	-200.000	0.048	0.372
-290.632	-49.943	-0.154	-0.072
-289.618	-101.173	-0.024	-0.006
-288.603	-200.000	0.017	-0.173
-287.589	-60.770	-0.115	0.048
-286.574	24.286	-0.154	0.125
-285.559	370.475	0.117	0.233
-284.545	58.421	-0.390	-0.377
-283.530	-16.912	0.120	0.075
-282.516	-36.357	-0.207	0.110
-281.501	-105.403	0.255	-0.057
-280.486	-200.000	0.001	0.138
-279.472	516.094	0.120	-0.276
-278.457	320.930	-0.057	0.106
-277.443	800.000	0.024	0.071
-276.428	800.000	0.031	0.122
-275.413	245.211	-0.174	0.289
-274.399	-82.914	-0.230	-0.073
-273.384	-200.000	0.021	-0.258
-272.370	-200.000	-0.030	-0.158
-271.355	42.366	0.128	-0.114
-270.340	-139.783	0.289	0.030
-269.326	696.196	-0.034	-0.087
-268.311	513.124	0.082	0.189
-267.297	-10.792	-0.209	-0.136
-266.282	-167.837	0.187	0.007
-265.267	-200.000	0.035	-0.330
-264.253	413.178	0.078	0.162
-263.238	195.007	0.207	0.309
-262.224	257.188	-0.062	0.105
-261.209	-182.261	-0.475	0.009
-260.195	-10.073	-0.155	0.101
-259.180	130.099	0.192	-0.241
-258.165	-144.685	-0.161	-0.015
-257.151	-200.000	-0.003	0.051
-256.136	800.000	0.133	-0.417
-255.122	626.778	0.049	0.123
-254.107	512.367	0.171	-0.392
-253.092	425.693	0.065	0.137
-252.078	-200.000	-0.055	-0.258
-251.063	232.042	-0.284	-0.459
-250.049	236.299	-0.179	0.292
-249.034	-200.000	-0.027	0.164
-248.019	83.545	0.074	0.080
-247.005	-9.453	-0.125	0.082
-245.990	187.221	-0.321	-0.471
-244.976	-200.000	0.004	-0.035
-243.961	-44.498	-0.120	0.059
-242.946	555.181	0.100	0.236
-241.932	137.475	0.127	-0.164
-240.917	-85.308	0.181	0.056
-239.903	800.000	0.049	-0.206
-238.888	-126.137	0.369	0.054
-237.873	-46.872	-0.038	-0.018
-236.859	-125.601	0.207	-0.031
-235.844	79.862	-0.254	0.268
-234.830	168.213	0.135	0.189
-233.815	-65.874	0.252	-0.099
-232.800	255.635	-0.163	-0.275
-231.786	207.217	0.239	0.367
-230.771	-200.000	-0.011	0.279
-229.757	-30.738	0.332	0.184
-228.742	-200.000	0.063	0.324
-227.727	-25.919	-0.062	0.036
-226.713	800.000	-0.073	-0.229
-225.698	-11.626	-0.163	0.105
-224.684	-54.647	-0.145	-0.064
-223.669	-96.122	0.418	-0.109
-222.655	373.471	-0.069	-0.137
-221.640	91.332	0.215	0.237
-220.625	1.420	0.351	0.248
-219.611	-99.918	0.084	-0.021
-218.596	800.000	0.094	-0.288
-217.582	119.953	0.120	0.146
-216.567	800.000	0.054	0.173
-215.552	32.857	-0.200	-0.170
-214.538	-200.000	-0.011	0.133
-213.523	800.000	0.063	0.225
-212.509	-200.000	0.026	0.283
-211.494	-167.009	0.285	0.011
-210.479	130.220	0.097	0.122
-209.465	-200.000	-0.049	-0.324
-208.450	-200.000	-0.012	-0.070
-207.436	-68.276	-0.071	0.027
-206.421	-16.781	0.050	-0.031
-205.406	158.919	0.230	0.314
-204.392	-94.662	-0.112	0.030
-203.377	-200.000	-0.028	-0.274
-202.363	-154.538	0.107	-0.007
-201.348	-200.000	-0.023	0.405
-200.333	-14.334	-0.111	-0.070
-199.319	-200.000	-0.026	-0.269
-198.304	-161.807	-0.290	-0.014
-197.290	-69.629	0.365	0.137
-196.275	71.859	0.104	-0.106
-195.260	-65.245	0.152	-0.060
-194.246	422.487	0.025	0.052
-193.231	52.615	0.343	-0.321
-192.217	-7.434	0.122	0.081
-191.202	-65.796	0.274	-0.108
-190.187	195.447	0.149	-0.222
-189.173	70.941	-0.190	-0.194
-188.158	207.254	0.053	0.081
-187.144	800.000	0.038	-0.126
-186.129	800.000	0.011	0.043
-185.114	-71.354	0.499	-0.184
-184.100	-124.573	0.019	-0.003
-183.085	-200.000	0.004	-0.258
-182.071	-169.314	0.114	0.004
-181.056	-200.000	-0.002	-0.130
-180.042	-200.000	-0.014	-0.185
-179.027	-131.199	-0.233	-0.030
-178.012	261.903	0.069	-0.118
-176.998	336.244	-0.116	0.220
-175.983	6.595	-0.106	-0.077
-174.969	-79.318	0.105	-0.035
-173.954	-124.271	0.217	0.033
-172.939	228.932	-0.135	0.215
-171.925	800.000	0.057	0.169
-170.910	62.796	0.084	0.083
-169.896	-73.292	-0.466	-0.167
-168.881	-38.113	0.170	0.088
-167.866	800.000	0.116	0.315
-166.852	322.100	-0.102	-0.191
-165.837	-140.037	0.158	0.016
-164.823	-90.782	0.258	0.073
-163.808	-125.084	-0.096	0.015
-162.793	-37.380	-0.027	0.014
-161.779	98.689	-0.147	0.167
-160.764	800.000	-0.156	0.496
-159.750	800.000	-0.066	0.186
-158.735	74.959	-0.253	0.261
-157.720	154.141	-0.071	0.096
-156.706	-200.000	-0.010	-0.258
-155.691	-144.219	0.304	-0.028
-154.677	-200.000	0.016	-0.228
-153.662	221.122	-0.098	-0.154
-152.647	-200.000	-0.022	-0.105
-151.633	-161.591	-0.051	-0.003
-150.618	-14.509	-0.070	0.044
-149.604	125.280	-0.096	0.118
-148.589	800.000	0.113	0.476
-147.574	161.606	-0.046	0.063
-146.560	-200.000	0.021	-0.096
-145.545	620.990	-0.239	0.590
-144.531	-43.009	0.466	0.231
-143.516	-141.408	-0.035	-0.003
-142.502	-200.000	0.006	-0.032
-141.487	-67.291	0.293	-0.113
-140.472	-200.000	-0.018	0.301
-139.458	287.545	0.118	-0.209
-138.443	534.300	0.092	-0.213
-137.429	-110.493	0.311	-0.063
-136.414	454.731	-0.016	-0.034
-135.399	-51.126	0.153	-0.070
-134.385	19.435	-0.295	-0.232
-133.370	-106.667	0.272	0.059
-132.356	-122.741	-0.314	0.050
-131.341	-200.000	0.047	0.000
-130.326	-47.429	-0.195	-0.093
-129.312	-185.688	0.356	-0.005
-128.297	228.011	0.170	0.272
-127.283	-200.000	0.048	0.248
-126.268	-34.307	-0.152	0.082
-125.253	-200.000	0.005	-0.097
-124.239	800.000	-0.083	-0.341
-123.224	-200.000	-0.058	-0.295
-122.210	1.488	-0.232	0.163
-121.195	279.036	-0.019	-0.032
-120.180	-169.877	0.229	-0.008
-119.166	237.102	0.173	0.281
-118.151	282.751	-0.088	0.154
-117.137	-184.345	-0.392	-0.006
-116.122	728.153	-0.088	-0.229
-115.107	-42.415	0.190	0.095
-114.093	282.830	-0.035	-0.062
-113.078	469.110	0.072	0.159
-112.064	97.212	-0.296	0.332
-111.049	554.399	0.057	0.135
-110.034	75.847	0.089	-0.092
-109.020	-110.166	0.262	-0.054
-108.005	27.046	-0.167	0.137
-106.991	-162.273	0.243	0.012
-105.976	-200.000	-0.063	0.300
-104.962	6.086	-0.224	-0.163
-103.947	-113.435	0.155	0.030
-102.932	722.222	-0.181	-0.470
-101.918	350.824	0.103	-0.199
-100.903	-98.348	0.148	-0.037
-99.889	167.870	0.168	-0.233
-98.874	170.344	0.180	-0.252
-97.859	-89.412	-0.239	0.069
-96.845	37.064	0.115	0.099
-95.830	-24.856	-0.128	0.074
-94.816	800.000	-0.056	-0.231
-93.801	286.672	0.210	-0.370
-92.786	309.684	0.132	-0.242
-91.772	800.000	0.079	-0.280
-90.757	64.836	-0.249	-0.245
-89.743	-200.000	0.017	0.169
-88.728	-44.999	-0.200	-0.097
-87.713	-112.851	0.192	-0.037
-86.699	-99.785	-0.051	0.013
-85.684	-14.869	0.154	0.097
-84.670	-200.000	0.054	0.288
-83.655	-200.000	0.016	-0.295
-82.640	-200.000	-0.025	0.421
-81.626	-148.675	0.327	0.026
-80.611	-200.000	-0.014	-0.143
-79.597	-149.848	0.169	0.013
-78.582	429.135	0.207	0.438
-77.567	156.560	-0.045	0.061
-76.553	205.904	0.117	-0.177
-75.538	-164.940	0.096	-0.004
-74.524	-200.000	-0.044	-0.213
-73.509	346.981	-0.041	-0.078
-72.494	-88.653	0.217	0.063
-71.480	218.933	0.155	0.242
-70.465	191.187	-0.014	-0.020
-69.451	297.335	-0.137	0.245
-68.436	394.337	-0.122	-0.247
-67.422	800.000	-0.092	-0.281
-66.407	89.081	0.252	0.274
-65.392	24.488	0.204	0.165
-64.378	-145.828	0.149	-0.013
-63.363	36.230	0.075	0.065
-62.349	333.890	-0.210	0.397
-61.334	62.820	-0.973	-0.950
-60.319	22.748	0.680	0.543
-59.305	681.529	-0.500	-1.271
-58.290	283.497	0.761	1.335
-57.276	619.684	0.723	1.773
-56.261	-200.000	121.823	612.584
-55.246	386.164	1574.248	3171.609
-54.232	140.927	2737.803	3531.889
-53.217	94.215	2195.400	2431.779
-52.203	35.066	1708.434	1460.207
-51.188	27.912	1524.015	1253.637
-50.173	25.856	1499.431	1219.472
-49.159	47.460	1565.552	1423.840
-48.144	45.734	1580.370	1425.265
-47.130	28.001	1531.072	1259.856
-46.115	25.156	1515.705	1227.717
-45.100	24.939	1512.008	1223.190
-44.086	24.845	1510.029	1220.904
-43.071	24.788	1508.666	1219.362
-42.057	24.805	1506.526	1217.701
-41.042	24.804	1505.556	1216.860
-40.027	24.832	1503.714	1215.517
-39.013	24.774	1502.065	1213.740
-37.998	24.797	1501.203	1213.153
-36.984	24.845	1500.217	1212.628
-35.969	24.759	1498.975	1210.998
-34.954	24.772	1497.097	1209.516
-33.940	24.829	1495.820	1208.826
-32.925	24.728	1494.890	1207.343
-31.911	24.797	1492.691	1205.983
-30.896	24.899	1491.513	1205.674
-29.881	24.916	1490.721	1205.100
-28.867	24.924	1489.398	1204.032
-27.852	24.981	1487.587	1202.905
-26.838	24.887	1486.055	1200.987
-25.823	24.836	1484.856	1199.633
-24.809	24.832	1483.112	1198.144
-23.794	24.771	1482.073	1196.852
-22.779	24.863	1480.547	1196.183
-21.765	24.940	1479.015	1195.412
-20.750	24.867	1478.594	1194.539
-19.736	24.899	1477.183	1193.568
-18.721	24.835	1476.107	1192.223
-17.706	24.827	1475.289	1191.465
-16.692	24.881	1474.228	1190.916
-15.677	24.843	1473.531	1190.055
-14.663	24.853	1472.278	1189.064
-13.648	24.839	1471.764	1188.508
-12.633	24.878	1470.631	1187.802
-11.619	24.860	1470.014	1187.135
-10.604	24.793	1469.213	1186.000
-9.590	24.871	1467.959	1185.456
-8.575	24.862	1467.218	1184.755
-7.560	24.898	1466.217	1184.136
-6.546	24.891	1465.252	1183.261
-5.531	24.872	1464.464	1182.453
-4.517	24.711	1464.068	1181.021
-3.502	24.731	1463.015	1180.260
-2.487	24.834	1461.492	1179.665
-1.473	24.852	1460.459	1178.899
-0.458	24.834	1459.077	1177.622
0.556	23.377	1449.670	1168.203
1.571	20.669	1425.886	1131.351
2.586	17.775	1364.554	1064.552
3.600	16.312	1281.194	990.851
4.615	15.164	1237.160	950.208
5.629	13.179	1180.599	895.930
6.644	6.513	1096.971	798.710
7.659	1.138	1060.028	745.369
8.673	0.339	1054.933	737.813
9.688	0.213	1051.435	734.683
10.702	0.158	1050.044	733.377
11.717	0.210	1047.759	731.973
12.731	2.410	1049.046	743.503
13.746	9.111	1058.743	783.079
14.761	15.046	1065.831	817.316
15.775	16.823	1067.269	827.028
16.790	16.557	1065.772	824.495
17.804	15.524	1063.818	817.884
18.819	14.663	1061.691	811.990
19.834	14.127	1061.020	808.800
20.848	13.920	1060.249	807.134
21.863	13.743	1059.332	805.505
22.877	13.256	1059.132	802.914
23.892	13.227	1057.424	801.412
24.907	13.220	1056.338	800.482
25.921	13.257	1056.047	800.371
26.936	13.175	1055.017	799.119
27.950	13.277	1054.706	799.307
28.965	13.239	1054.002	798.520
29.980	13.280	1053.131	797.987
30.994	13.237	1052.049	796.892
32.009	13.301	1051.351	796.597
33.023	13.391	1050.730	796.489
34.038	13.436	1049.286	795.542
35.053	13.336	1049.155	794.894
36.067	13.333	1048.373	794.216
37.082	13.374	1047.198	793.453
38.096	13.328	1046.796	792.858
39.111	13.349	1045.470	791.884
40.126	13.354	1044.537	791.130
41.140	13.341	1043.468	790.187
42.155	13.161	1042.883	788.814
43.169	13.235	1041.604	788.131
44.184	13.128	1040.060	786.382
45.199	13.191	1039.626	786.288
46.213	13.072	1038.526	784.818
47.228	13.227	1037.708	784.868
48.242	13.248	1036.506	783.988
49.257	13.229	1035.721	783.233
50.271	13.248	1034.735	782.512
51.286	13.278	1033.694	781.795
52.301	13.380	1032.992	781.676
53.315	13.255	1032.364	780.544
54.330	13.275	1031.700	780.066
55.344	13.297	1030.616	779.282
56.359	13.233	1029.697	778.216
57.374	13.289	1028.968	777.857
58.388	13.265	1028.063	776.992
59.403	13.172	1027.455	776.028
60.417	13.120	1026.965	775.343
61.432	13.118	1025.895	774.459
62.447	12.978	1025.612	773.522
63.461	13.142	1024.090	773.072
64.476	13.203	1023.360	772.738
65.490	13.137	1022.345	771.597
66.505	13.145	1021.599	771.002
67.520	13.117	1020.985	770.338
68.534	13.227	1020.320	770.283
69.549	13.128	1019.461	769.102
70.563	13.023	1018.888	768.115
71.578	13.107	1017.941	767.724
72.593	13.234	1016.886	767.450
73.607	13.136	1016.413	766.571
74.622	13.023	1015.082	764.973
75.636	13.205	1014.313	765.171
76.651	13.050	1013.584	763.836
77.666	13.170	1012.668	763.634
78.680	13.159	1012.122	763.105
79.695	13.128	1011.335	762.298
80.709	13.056	1011.553	762.061
81.724	13.217	1010.049	761.604
82.739	13.155	1009.255	760.654
83.753	13.239	1008.663	760.525
84.768	13.248	1007.968	759.974
85.782	13.280	1007.191	759.469
86.797	13.293	1006.554	758.984
87.812	13.318	1005.663	758.356
88.826	13.391	1004.727	757.918
89.841	13.234	1003.912	756.518
90.855	13.374	1002.885	756.317
91.870	13.339	1002.456	755.767
92.884	13.323	1001.637	755.010
93.899	13.368	1001.215	754.831
94.914	13.434	1000.002	754.152
95.928	13.379	999.392	753.374
96.943	13.424	998.839	753.095
97.957	13.468	997.772	752.425
98.972	13.341	997.623	751.669
99.987	13.469	996.472	751.314
101.001	13.362	995.827	750.278
102.016	13.312	995.531	749.761
103.030	13.339	994.071	748.717
104.045	13.405	993.232	748.319
105.060	13.394	992.056	747.316
106.074	13.389	991.205	746.586
107.089	13.279	990.243	745.297
108.103	13.229	990.009	744.832
109.118	13.278	988.839	744.108
110.133	13.223	987.890	743.076
111.147	13.262	986.831	742.392
112.162	13.162	986.160	741.372
113.176	13.170	985.699	740.997
114.191	13.311	984.251	740.473
115.206	13.381	983.130	739.877
116.220	13.368	982.642	739.388
117.235	13.354	981.645	738.507
118.249	13.310	981.240	737.941
119.264	13.239	980.234	736.803
120.279	13.280	979.210	736.152
121.293	13.147	978.807	735.193
122.308	13.343	977.430	734.964
123.322	13.243	976.882	734.043
124.337	13.226	976.078	733.298
125.352	13.144	975.244	732.243
126.366	13.190	973.644	731.178
127.381	13.240	972.688	730.617
128.395	13.273	971.477	729.790
129.410	13.236	970.762	729.026
130.424	13.223	970.177	728.464
131.439	13.203	969.103	727.504
132.454	13.317	967.970	727.091
133.468	13.394	967.372	726.917
134.483	13.225	967.021	725.846
135.497	13.301	966.273	725.555
136.512	13.271	965.285	724.618
137.527	13.511	964.172	724.767
138.541	13.510	962.942	723.774
139.556	13.418	962.929	723.300
140.570	13.410	961.972	722.482
141.585	13.294	961.581	721.617
142.600	13.486	960.751	721.766
143.614	13.519	959.882	721.195
144.629	13.368	959.150	719.925
145.643	13.473	958.473	719.809
146.658	13.501	957.432	719.084
147.673	13.418	956.296	717.808
148.687	13.395	955.651	717.161
149.702	13.553	954.554	716.958
150.716	13.250	954.208	715.323
151.731	13.535	952.860	715.480
152.746	13.467	951.878	714.388
153.760	13.556	951.610	714.507
154.775	13.413	950.911	713.302
155.789	13.593	949.954	713.296
156.804	13.579	949.137	712.558
157.819	13.572	948.454	711.951
158.833	13.558	947.968	711.467
159.848	13.564	947.681	711.213
160.862	13.585	946.633	710.451
161.877	13.669	945.498	709.898
162.892	13.584	945.196	709.244
163.906	13.461	944.192	707.901
164.921	13.627	943.429	707.975
165.935	13.583	941.952	706.617
166.950	13.538	941.253	705.839
167.964	13.578	940.761	705.580
168.979	13.625	939.365	704.670
169.994	13.545	938.771	703.820
171.008	13.585	938.149	703.461
172.023	13.671	937.185	703.044
173.037	13.641	935.864	701.864
174.052	13.730	935.151	701.643
175.067	13.771	934.435	701.215
176.081	13.691	933.930	700.436
177.096	13.553	933.261	699.292
178.110	13.634	932.434	698.951
179.125	13.744	931.033	698.302
180.140	13.649	930.635	697.543
181.154	13.743	930.176	697.532
182.169	13.722	929.572	696.930
183.183	13.682	929.059	696.314
184.198	13.889	927.943	696.285
185.213	13.877	927.326	695.710
186.227	13.804	927.021	695.113
187.242	13.900	926.346	694.949
188.256	13.944	925.423	694.378
189.271	13.920	924.906	693.827
190.286	13.933	924.077	693.197
191.300	13.914	923.373	692.531
192.315	13.821	922.693	691.573
193.329	13.694	922.053	690.501
194.344	13.811	921.098	690.210
195.359	13.878	920.595	690.054
196.373	13.922	920.378	690.012
197.388	13.926	919.764	689.508
198.402	13.880	919.392	688.977
199.417	14.026	918.577	688.911
200.432	14.012	918.393	688.652
201.446	14.040	917.889	688.329
202.461	14.186	917.302	688.433
203.475	14.025	917.289	687.697
204.490	14.111	916.146	687.135
205.504	14.123	915.658	686.756
206.519	14.126	914.660	685.961
207.534	14.246	913.540	685.552
208.548	14.129	913.033	684.630
209.563	14.073	912.824	684.181
210.577	14.281	911.839	684.238
211.592	14.212	911.020	683.280
212.607	14.033	910.799	682.320
213.621	14.242	910.281	682.726
214.636	14.315	909.371	682.282
215.650	14.328	908.559	681.667
216.665	14.242	908.165	680.960
217.680	14.321	907.687	680.866
218.694	14.433	906.988	680.739
219.709	14.352	906.220	679.769
220.723	14.324	905.962	679.402
221.738	14.399	904.815	678.788
222.753	14.407	904.716	678.686
223.767	14.385	903.731	677.798
224.782	14.288	902.801	676.647
225.796	14.429	902.395	676.853
226.811	14.351	901.867	676.082
227.826	14.514	900.830	675.905
228.840	14.513	900.049	675.253
229.855	14.404	899.749	674.528
230.869	14.586	898.520	674.282
231.884	14.499	898.306	673.711
232.899	14.355	898.116	672.928
233.913	14.350	897.195	672.160
234.928	14.439	896.209	671.719
235.942	14.422	895.624	671.154
236.957	14.434	894.527	670.320
237.972	14.435	894.167	669.993
238.986	14.499	893.300	669.541
240.001	14.570	892.544	669.201
241.015	14.559	891.879	668.601
242.030	14.620	891.136	668.226
243.045	14.587	890.572	667.615
244.059	14.804	889.632	667.719
245.074	14.670	889.653	667.137
246.088	14.718	888.785	666.620
247.103	14.545	888.657	665.776
248.117	14.715	887.802	665.751
249.132	14.793	887.076	665.463
250.147	14.668	886.664	664.594
251.161	14.763	885.976	664.398
252.176	14.744	885.133	663.631
253.190	14.921	884.491	663.794
254.205	14.828	883.703	662.775
255.220	14.964	883.150	662.840
256.234	15.077	882.209	662.524
257.249	14.936	882.089	661.818
258.263	14.997	881.267	661.383
259.278	14.965	880.709	660.779
260.293	15.084	880.365	660.933
261.307	15.223	879.610	660.854
262.322	15.098	879.264	660.044
263.336	14.954	878.583	658.907
264.351	15.179	877.891	659.215
265.366	15.151	877.573	658.808
266.380	15.165	876.610	658.082
267.395	15.034	876.480	657.410
268.409	15.153	875.362	656.980
269.424	15.240	874.513	656.627
270.439	15.149	873.756	655.642
271.453	15.252	873.261	655.618
272.468	15.095	872.682	654.510
273.482	15.176	872.036	654.286
274.497	15.246	871.220	653.889
275.512	15.209	870.606	653.226
276.526	15.236	869.885	652.733
277.541	15.179	869.327	652.032
278.555	15.160	868.748	651.468
279.570	15.209	868.149	651.151
280.585	15.312	867.567	651.058
281.599	15.381	867.204	650.995
282.614	15.564	865.909	650.675
283.628	15.389	865.793	649.851
284.643	15.362	865.474	649.449
285.657	15.460	864.743	649.222
286.672	15.383	864.089	648.378
287.687	15.396	863.804	648.155
288.701	15.406	863.101	647.610
289.716	15.378	862.666	647.117
290.730	15.547	862.284	647.427
291.745	15.698	861.174	647.117
292.760	15.507	860.851	646.081
293.774	15.515	859.966	645.389
294.789	15.631	859.289	645.270
295.803	15.516	859.099	644.631
296.818	15.636	858.252	644.399
297.833	15.667	857.490	643.886
298.847	15.704	856.600	643.302
299.862	15.416	856.577	642.128
300.876	15.547	855.845	642.023
301.891	15.675	854.645	641.555
302.906	15.653	854.207	641.085
303.920	15.807	853.441	641.041
304.935	15.754	852.945	640.410
305.949	15.694	852.470	639.768
306.964	15.870	851.858	639.921
307.979	15.827	850.934	639.008
308.993	15.940	850.178	638.812
310.008	15.917	850.327	638.780
311.022	15.848	849.387	637.753
312.037	15.689	849.394	637.102
313.052	15.849	848.186	636.743
314.066	15.826	848.298	636.684
315.081	15.879	846.835	635.730
316.095	15.993	846.814	636.089
317.110	15.750	845.995	634.501
318.125	15.799	845.642	634.365
319.139	15.883	845.205	634.295
320.154	15.781	844.873	633.608
321.168	15.808	844.329	633.244
322.183	16.022	843.346	633.255
323.197	16.030	842.564	632.642
324.212	15.940	842.512	632.209
325.227	15.766	842.042	631.147
326.241	15.974	841.261	631.286
327.256	15.816	840.992	630.436
328.270	15.932	840.670	630.576
329.285	16.012	839.757	630.135
330.300	16.013	839.299	629.738
331.314	15.868	838.999	628.915
332.329	15.978	837.944	628.480
333.343	15.870	837.911	627.995
334.358	16.055	837.018	627.961
335.373	16.192	836.351	627.914
336.387	16.206	835.813	627.508
337.402	16.224	835.228	627.079
338.416	16.224	835.007	626.857
339.431	16.106	834.547	626.018
340.446	16.219	833.578	625.656
341.460	16.386	832.562	625.456
342.475	16.125	832.803	624.615
343.489	16.368	831.892	624.773
344.504	16.393	831.556	624.562
345.519	16.306	831.026	623.784
346.533	16.334	830.502	623.441
347.548	16.379	830.003	623.177
348.562	16.297	829.634	622.541
349.577	16.422	828.724	622.265
350.592	16.245	828.385	621.302
351.606	16.420	827.651	621.340
352.621	16.452	826.819	620.779
353.635	16.371	827.110	620.643
354.650	16.465	826.466	620.454
355.665	16.433	825.752	619.743
356.679	16.357	825.514	619.231
357.694	16.387	825.071	618.955
358.708	16.485	824.189	618.595
359.723	16.603	823.395	618.377
360.738	16.633	823.144	618.242
361.752	16.363	822.838	616.973
362.767	16.593	822.377	617.413
363.781	16.517	822.121	616.887
364.796	16.699	821.632	617.130
365.810	16.727	820.811	616.562
366.825	16.717	820.929	616.557
367.840	16.636	820.488	615.876
368.854	16.669	819.875	615.483
369.869	16.614	819.657	615.067
370.883	16.597	819.296	614.679
371.898	16.858	818.226	614.768
372.913	16.767	817.410	613.770
373.927	16.890	817.113	613.939
374.942	16.830	816.564	613.255
375.956	16.824	815.790	612.598
376.971	16.868	815.510	612.493
377.986	16.810	814.832	611.719
379.000	17.038	813.778	611.694
380.015	17.020	813.640	611.474
381.029	16.999	813.374	611.143
382.044	17.019	812.735	610.683
383.059	17.036	811.909	610.067
384.073	17.043	811.577	609.788
385.088	17.056	810.850	609.235
386.102	16.929	810.622	608.555
387.117	16.933	810.118	608.138
388.132	16.949	809.511	607.686
389.146	17.074	809.027	607.716
390.161	17.071	808.702	607.405
391.175	17.099	808.601	607.376
392.190	17.082	807.886	606.725
393.205	17.101	807.759	606.643
394.219	17.020	807.312	605.965
395.234	17.061	806.593	605.519
396.248	17.098	805.986	605.140
397.263	16.987	806.032	604.726
398.278	17.117	805.184	604.502
399.292	16.817	805.039	603.269
400.307	16.889	804.637	603.172
401.321	17.072	804.071	603.343
402.336	17.157	803.717	603.329
403.350	17.160	803.411	603.056
404.365	17.150	802.681	602.417
405.380	17.134	802.362	602.067
406.394	17.260	801.847	602.073
407.409	17.236	801.277	601.508
408.423	17.296	800.928	601.406
409.438	17.491	800.440	601.676
410.453	17.457	799.824	601.040
411.467	17.306	799.721	600.376
412.482	17.330	798.971	599.843
413.496	17.443	798.484	599.824
414.511	17.432	798.299	599.593
415.526	17.367	798.149	599.198
416.540	17.508	797.403	599.079
417.555	17.565	796.793	598.769
418.569	17.481	796.636	598.305
419.584	17.444	796.201	597.796
420.599	17.539	795.689	597.690
421.613	112.895	1296.899	1484.985
422.628	97.162	1369.876	1485.054
