DTS Sentinel unit serial number:	SN413079Multiplexer serial number:	ORYXHardware model number:	OX4-SRSoftware version number:	ORYX F/W v4.00 Oryx Data Collector v3.7.2.0data status	okinstallation	princeton_trtdifferential loss correction	single-endedforward channel	channel 3reverse channel	N/Adate	2019/09/12time	14:14:11forward acquisition time	60.00reverse acquisition time	0.00gamma	496.2192k internal	0.2294k external	0.2294temperature offset calibration	1.0053default loss term (dB/km)	0.3790temperature slope calibration	1.0000multiplexer offset coefficient	1.0000multiplexer slope coefficient	1.0000fibre end	0.00T internal ref (°C)	40.30T ext. ref 1 (°C)	2.25T ext. ref 2 (°C)	35.55length (m)	temperature (°C)	Stokes	anti-Stokes-747.200	-200.000	-0.069	0.411
-746.185	617.868	0.154	0.396
-745.171	-118.508	0.243	-0.044
-744.156	37.374	-0.167	0.152
-743.142	800.000	-0.066	-0.261
-742.127	-122.529	0.304	0.051
-741.112	-41.280	-0.118	-0.062
-740.098	138.441	-0.218	0.292
-739.083	800.000	0.061	0.175
-738.069	-65.273	-0.186	-0.077
-737.054	-59.654	-0.068	0.030
-736.039	-170.060	-0.309	0.011
-735.025	-200.000	0.008	0.296
-734.010	-26.750	-0.119	0.071
-732.996	312.125	-0.199	-0.382
-731.981	57.450	-0.065	-0.065
-730.966	-200.000	-0.030	0.232
-729.952	106.073	-0.083	-0.100
-728.937	76.660	0.244	-0.264
-727.923	-200.000	-0.007	-0.278
-726.908	-34.603	-0.123	-0.069
-725.894	26.589	-0.136	-0.116
-724.879	-20.592	-0.173	-0.108
-723.864	-200.000	-0.067	-0.351
-722.850	-42.245	-0.141	-0.074
-721.835	314.429	0.182	-0.350
-720.821	800.000	-0.051	-0.170
-719.806	255.857	-0.225	-0.395
-718.791	73.027	0.167	-0.178
-717.777	800.000	-0.038	-0.142
-716.762	-93.602	-0.190	-0.054
-715.748	-23.492	-0.256	-0.157
-714.733	-94.920	-0.067	0.018
-713.718	-54.700	0.038	-0.017
-712.704	-122.287	-0.266	0.044
-711.689	-200.000	-0.149	0.673
-710.675	-40.114	0.182	0.097
-709.660	-61.924	0.239	-0.102
-708.645	-90.928	0.213	-0.062
-707.631	-200.000	0.025	-0.176
-706.616	198.987	-0.223	0.349
-705.602	154.193	0.215	0.302
-704.587	-73.044	0.008	-0.003
-703.572	330.910	0.096	-0.188
-702.558	-36.945	0.252	0.138
-701.543	800.000	-0.071	-0.270
-700.529	-123.097	-0.274	-0.045
-699.514	-0.395	0.246	0.179
-698.499	240.302	-0.160	0.272
-697.485	800.000	0.066	-0.226
-696.470	800.000	-0.075	-0.286
-695.456	328.847	0.204	-0.400
-694.441	-88.987	-0.177	-0.054
-693.426	-200.000	-0.030	0.367
-692.412	-169.290	0.340	0.013
-691.397	-128.909	0.208	-0.030
-690.383	-73.616	0.194	-0.072
-689.368	213.562	-0.082	-0.133
-688.354	157.534	-0.330	-0.467
-687.339	141.516	-0.099	-0.134
-686.324	-12.060	-0.088	0.059
-685.310	-200.000	-0.000	-0.187
-684.295	-31.438	0.178	-0.102
-683.281	-200.000	-0.011	0.141
-682.266	-97.583	0.229	-0.061
-681.251	1.885	-0.172	-0.127
-680.237	-12.688	0.269	-0.179
-679.222	-61.650	-0.200	0.086
-678.208	-200.000	0.021	-0.180
-677.193	21.205	0.063	0.053
-676.178	-121.382	-0.327	0.056
-675.164	-200.000	-0.003	0.118
-674.149	-200.000	0.060	-0.287
-673.135	-95.490	0.257	0.070
-672.120	337.446	0.137	0.271
-671.105	204.875	-0.184	0.291
-670.091	-37.762	0.120	0.065
-669.076	732.888	0.165	-0.450
-668.062	800.000	-0.080	0.305
-667.047	-6.127	0.168	0.117
-666.032	385.196	-0.090	0.190
-665.018	-18.704	0.089	0.057
-664.003	800.000	-0.079	0.293
-662.989	-101.921	0.153	0.038
-661.974	-200.000	-0.025	-0.322
-660.959	124.822	-0.030	0.038
-659.945	-46.347	-0.478	0.239
-658.930	92.617	0.091	-0.105
-657.916	-106.597	-0.309	-0.070
-656.901	39.023	-0.083	-0.076
-655.886	-200.000	0.001	0.114
-654.872	-10.074	-0.333	-0.225
-653.857	-126.974	-0.333	0.050
-652.843	800.000	-0.177	-0.516
-651.828	-200.000	-0.055	-0.249
-650.814	304.607	0.120	-0.227
-649.799	-10.944	-0.264	0.178
-648.784	-38.191	0.266	0.144
-647.770	388.532	-0.055	0.116
-646.755	72.660	-0.152	0.162
-645.741	-59.224	-0.217	-0.095
-644.726	139.322	0.123	-0.164
-643.711	231.485	-0.114	-0.191
-642.697	-110.303	-0.444	-0.094
-641.682	376.165	-0.072	-0.149
-640.668	-200.000	0.007	-0.053
-639.653	141.337	0.115	0.156
-638.638	-51.708	0.375	0.178
-637.624	-131.872	0.241	-0.032
-636.609	28.241	-0.373	-0.321
-635.595	249.676	0.061	0.105
-634.580	-14.703	-0.273	0.179
-633.565	-144.450	-0.137	0.013
-632.551	383.881	0.155	-0.326
-631.536	678.142	0.137	-0.362
-630.522	-155.302	-0.218	-0.014
-629.507	-93.567	-0.194	0.055
-628.492	-109.177	-0.068	-0.015
-627.478	156.520	0.122	-0.172
-626.463	-200.000	0.008	0.237
-625.449	-82.066	-0.264	-0.088
-624.434	800.000	-0.050	0.182
-623.419	800.000	0.030	0.097
-622.405	-200.000	-0.096	0.538
-621.390	800.000	0.062	-0.266
-620.376	108.417	-0.165	-0.201
-619.361	-94.351	0.160	-0.044
-618.346	-193.334	-0.195	0.002
-617.332	800.000	0.034	-0.147
-616.317	80.603	0.116	0.127
-615.303	-111.596	0.178	-0.037
-614.288	-200.000	0.035	0.255
-613.273	800.000	0.060	0.236
-612.259	126.296	0.145	-0.187
-611.244	800.000	0.036	0.158
-610.230	-60.456	-0.341	-0.147
-609.215	800.000	0.049	-0.169
-608.201	-96.513	-0.283	0.076
-607.186	293.633	0.202	0.375
-606.171	34.469	0.297	0.263
-605.157	-67.882	-0.430	-0.171
-604.142	-187.587	0.052	0.001
-603.128	8.718	0.132	0.101
-602.113	-24.887	-0.188	-0.114
-601.098	-11.794	0.058	-0.039
-600.084	194.545	-0.259	-0.399
-599.069	52.570	-0.184	-0.179
-598.055	-58.836	0.164	0.072
-597.040	-25.226	0.081	-0.049
-596.025	-129.241	-0.204	0.029
-595.011	-200.000	-0.029	0.194
-593.996	-106.332	-0.185	0.042
-592.982	-200.000	0.029	0.237
-591.967	224.120	-0.022	0.036
-590.952	-39.247	-0.096	-0.051
-589.938	-145.674	0.133	-0.012
-588.923	434.840	0.062	-0.137
-587.909	-87.884	-0.124	0.038
-586.894	60.134	0.063	-0.064
-585.879	-41.634	0.115	-0.060
-584.865	4.967	0.211	-0.158
-583.850	509.069	-0.103	0.242
-582.836	-8.706	0.035	-0.024
-581.821	-200.000	-0.009	-0.053
-580.806	7.876	-0.344	-0.262
-579.792	800.000	-0.011	-0.040
-578.777	-133.480	-0.200	-0.025
-577.763	27.328	0.227	-0.194
-576.748	72.587	-0.251	-0.266
-575.733	-200.000	-0.008	0.093
-574.719	-200.000	-0.022	0.112
-573.704	-16.540	0.173	0.111
-572.690	-25.070	-0.276	-0.167
-571.675	-161.224	-0.203	-0.011
-570.661	492.552	0.189	0.439
-569.646	-8.480	0.188	-0.128
-568.631	77.189	-0.090	-0.097
-567.617	6.113	0.086	0.064
-566.602	23.452	0.290	0.242
-565.588	-43.011	-0.183	0.094
-564.573	10.702	-0.234	0.181
-563.558	-68.365	-0.083	-0.033
-562.544	-122.816	-0.213	-0.035
-561.529	223.724	0.022	-0.036
-560.515	189.400	-0.133	0.203
-559.500	-200.000	-0.007	-0.228
-558.485	-138.322	-0.080	0.009
-557.471	131.895	0.097	-0.127
-556.456	-200.000	-0.034	-0.280
-555.442	-116.816	-0.106	-0.020
-554.427	800.000	-0.142	0.405
-553.412	378.124	-0.083	-0.171
-552.398	-179.186	-0.372	-0.008
-551.383	-14.725	0.250	-0.163
-550.369	-79.353	-0.151	0.052
-549.354	-111.376	-0.363	0.075
-548.339	800.000	0.027	-0.111
-547.325	326.043	0.201	0.390
-546.310	108.290	0.084	0.102
-545.296	-34.331	0.317	0.176
-544.281	101.240	0.239	0.282
-543.266	-200.000	0.118	0.550
-542.252	-25.052	-0.129	0.077
-541.237	57.187	-0.113	-0.111
-540.223	786.471	-0.023	-0.064
-539.208	-120.798	-0.166	0.028
-538.193	51.020	-0.299	-0.287
-537.179	6.004	-0.085	-0.064
-536.164	-127.263	0.030	-0.004
-535.150	-24.056	0.067	0.041
-534.135	1.750	0.156	-0.114
-533.121	-147.177	0.356	-0.031
-532.106	-15.377	0.090	0.058
-531.091	-147.064	0.140	0.012
-530.077	-100.120	0.107	-0.027
-529.062	-16.451	-0.125	0.081
-528.048	100.185	-0.236	-0.278
-527.033	-117.376	-0.341	-0.063
-526.018	-124.112	-0.248	0.040
-525.004	-107.915	0.306	-0.067
-523.989	370.094	0.042	-0.087
-522.975	-200.000	0.018	0.183
-521.960	154.005	-0.285	0.396
-520.945	602.575	0.069	-0.174
-519.931	-77.776	0.372	0.130
-518.916	-13.938	-0.169	-0.111
-517.902	3.917	-0.249	0.185
-516.887	267.411	0.025	-0.044
-515.872	-61.733	0.282	-0.120
-514.858	9.471	-0.149	0.115
-513.843	-76.749	0.129	-0.046
-512.829	-101.840	0.115	-0.028
-511.814	-123.704	-0.249	-0.040
-510.799	-200.000	-0.018	0.243
-509.785	-34.114	-0.219	0.122
-508.770	98.000	-0.300	0.350
-507.756	-64.053	0.309	-0.128
-506.741	-200.000	0.014	-0.115
-505.726	578.839	0.124	-0.307
-504.712	-200.000	0.031	0.407
-503.697	423.196	0.128	-0.278
-502.683	-200.000	-0.018	0.135
-501.668	-200.000	-0.041	0.199
-500.653	-119.346	-0.347	0.061
-499.639	21.457	0.222	0.183
-498.624	-77.503	0.146	0.051
-497.610	-187.613	0.280	0.004
-496.595	276.720	0.019	0.034
-495.581	-200.000	-0.057	-0.289
-494.566	-17.472	0.308	-0.196
-493.551	-177.966	-0.217	0.005
-492.537	564.550	0.103	0.253
-491.522	606.955	-0.037	0.095
-490.508	-111.837	0.053	-0.011
-489.493	312.067	0.168	-0.319
-488.478	-200.000	-0.007	-0.116
-487.464	-12.948	0.148	-0.097
-486.449	-79.372	-0.297	0.102
-485.435	73.801	-0.257	-0.273
-484.420	-29.747	-0.166	-0.096
-483.405	-94.050	0.418	-0.116
-482.391	-86.513	-0.162	-0.050
-481.376	-120.884	-0.097	-0.017
-480.362	-134.834	0.273	-0.033
-479.347	-129.163	0.203	0.029
-478.332	-70.968	-0.219	-0.083
-477.318	-129.976	0.291	0.040
-476.303	-200.000	-0.015	0.139
-475.289	-200.000	0.009	-0.146
-474.274	193.083	0.196	0.299
-473.259	-36.814	0.280	-0.152
-472.245	286.374	-0.076	-0.139
-471.230	800.000	0.116	-0.323
-470.216	-200.000	0.041	0.249
-469.201	783.766	-0.061	0.170
-468.186	-200.000	0.075	-0.355
-467.172	800.000	-0.062	0.211
-466.157	-134.072	0.139	0.017
-465.143	800.000	0.087	0.275
-464.128	-200.000	0.013	0.254
-463.113	-200.000	-0.033	0.284
-462.099	214.762	0.168	-0.270
-461.084	85.605	-0.072	0.080
-460.070	-57.109	-0.255	-0.114
-459.055	-200.000	0.016	-0.131
-458.040	-200.000	0.016	-0.082
-457.026	-75.535	-0.109	0.039
-456.011	-200.000	-0.090	-0.459
-454.997	131.855	0.085	0.110
-453.982	800.000	0.123	-0.393
-452.968	-57.622	-0.313	0.139
-451.953	800.000	0.106	0.308
-450.938	-142.771	0.265	-0.026
-449.924	2.553	-0.316	-0.231
-448.909	161.525	-0.083	0.117
-447.895	610.879	0.114	-0.287
-446.880	-200.000	-0.008	-0.058
-445.865	-200.000	0.005	-0.184
-444.851	800.000	0.094	0.344
-443.836	23.630	-0.131	0.109
-442.822	20.770	-0.108	0.089
-441.807	133.658	-0.112	0.146
-440.792	77.611	-0.133	-0.143
-439.778	131.380	0.019	-0.025
-438.763	168.628	-0.099	-0.142
-437.749	8.151	0.041	0.031
-436.734	-65.579	0.266	0.108
-435.719	337.413	0.077	0.150
-434.705	452.966	-0.073	-0.163
-433.690	-17.702	-0.061	0.039
-432.676	114.531	0.226	0.278
-431.661	-200.000	-0.002	0.102
-430.646	-134.235	0.235	-0.029
-429.632	72.503	0.145	-0.153
-428.617	-163.802	0.369	-0.017
-427.603	-200.000	-0.012	0.210
-426.588	-200.000	0.280	0.000
-425.573	-65.237	0.303	0.123
-424.559	-73.056	0.067	0.025
-423.544	-170.046	-0.162	-0.006
-422.530	-200.000	-0.008	0.066
-421.515	-200.000	-0.014	0.175
-420.500	-12.606	-0.164	0.108
-419.486	-95.863	0.204	-0.055
-418.471	-120.611	0.202	-0.035
-417.457	-139.177	0.233	-0.025
-416.442	-200.000	-0.013	0.143
-415.428	327.021	-0.092	0.179
-414.413	-200.000	0.046	0.354
-413.398	321.849	0.146	0.281
-412.384	280.405	0.226	0.408
-411.369	-159.198	-0.127	0.007
-410.355	-200.000	0.008	-0.126
-409.340	-89.697	-0.099	0.029
-408.325	-125.632	-0.188	0.029
-407.311	800.000	0.018	0.077
-406.296	800.000	0.101	0.344
-405.282	-149.364	0.226	-0.018
-404.267	80.919	-0.254	0.276
-403.252	-71.671	0.165	-0.062
-402.238	-200.000	-0.003	-0.020
-401.223	800.000	0.124	-0.390
-400.209	-66.173	0.228	-0.092
-399.194	-16.150	-0.247	0.158
-398.179	41.308	-0.276	-0.252
-397.165	800.000	-0.086	0.303
-396.150	-200.000	-0.007	0.039
-395.136	37.572	0.113	-0.101
-394.121	16.232	-0.250	-0.199
-393.106	48.003	-0.285	-0.268
-392.092	14.775	0.143	-0.112
-391.077	-37.325	0.119	-0.064
-390.063	-200.000	0.004	0.072
-389.048	-183.308	-0.477	0.008
-388.033	-114.540	-0.214	0.041
-387.019	-200.000	0.009	-0.118
-386.004	-110.475	0.200	-0.042
-384.990	23.879	-0.131	0.109
-383.975	43.919	-0.122	-0.113
-382.960	-3.054	-0.269	0.189
-381.946	796.272	0.056	-0.155
-380.931	800.000	-0.063	-0.209
-379.917	37.228	-0.049	0.044
-378.902	-132.034	-0.106	0.014
-377.888	-200.000	0.041	-0.278
-376.873	-191.435	0.413	-0.004
-375.858	338.155	0.172	-0.338
-374.844	175.075	0.088	-0.129
-373.829	122.086	-0.160	-0.202
-372.815	-66.459	-0.205	0.082
-371.800	800.000	-0.016	0.049
-370.785	-143.042	-0.179	0.017
-369.771	-42.545	-0.165	-0.085
-368.756	-44.806	0.268	-0.135
-367.742	-73.355	-0.177	-0.065
-366.727	203.349	0.070	-0.109
-365.712	-88.175	0.102	-0.031
-364.698	-200.000	-0.008	0.232
-363.683	-200.000	0.045	-0.248
-362.669	29.233	-0.238	0.203
-361.654	-200.000	-0.011	0.240
-360.639	-75.230	0.114	0.041
-359.625	253.113	-0.100	0.172
-358.610	657.584	0.012	0.032
-357.596	-117.876	-0.225	0.041
-356.581	-77.123	-0.206	-0.072
-355.566	230.194	0.173	-0.284
-354.552	800.000	0.130	-0.483
-353.537	800.000	0.051	0.168
-352.523	72.230	-0.110	-0.115
-351.508	-103.169	0.075	-0.018
-350.493	212.926	0.082	-0.131
-349.479	-43.231	-0.244	0.124
-348.464	93.013	-0.274	-0.311
-347.450	-87.187	-0.168	0.051
-346.435	-200.000	0.074	-0.344
-345.420	80.001	-0.202	-0.219
-344.406	226.872	-0.203	-0.331
-343.391	-48.849	-0.185	0.090
-342.377	-146.348	-0.167	-0.015
-341.362	-27.711	-0.114	0.067
-340.348	-200.000	-0.008	-0.132
-339.333	4.580	-0.060	0.045
-338.318	-200.000	-0.005	-0.132
-337.304	-102.473	0.158	-0.038
-336.289	-61.160	0.226	-0.096
-335.275	-164.451	-0.096	-0.004
-334.260	-47.583	-0.404	-0.197
-333.245	-139.301	-0.057	0.006
-332.231	-51.757	0.156	0.073
-331.216	-52.517	-0.128	-0.059
-330.202	172.112	0.192	0.278
-329.187	-200.000	-0.050	-0.315
-328.172	155.134	-0.045	0.062
-327.158	-91.473	0.406	-0.117
-326.143	415.952	0.074	0.159
-325.129	61.763	0.129	0.129
-324.114	-14.984	0.169	0.109
-323.099	-174.300	0.134	0.004
-322.085	13.952	0.223	-0.175
-321.070	197.909	-0.124	-0.191
-320.056	-120.966	-0.084	0.014
-319.041	-76.677	-0.117	-0.041
-318.026	202.702	0.066	0.102
-317.012	-65.848	0.040	0.016
-315.997	153.792	0.152	0.210
-314.983	-48.521	-0.161	-0.078
-313.968	-98.675	0.215	-0.055
-312.953	-6.884	0.144	-0.098
-311.939	-9.452	-0.244	0.164
-310.924	800.000	-0.052	-0.174
-309.910	800.000	-0.096	-0.367
-308.895	-98.410	0.171	0.044
-307.880	-69.420	-0.200	0.077
-306.866	412.853	0.188	-0.401
-305.851	-200.000	0.035	0.288
-304.837	-165.108	-0.191	0.009
-303.822	95.174	0.071	0.082
-302.807	275.962	0.068	-0.121
-301.793	-15.921	0.074	0.047
-300.778	-137.703	-0.390	-0.044
-299.764	-142.148	0.058	0.006
-298.749	269.666	-0.099	-0.175
-297.735	-92.429	-0.155	-0.044
-296.720	-72.144	-0.206	-0.077
-295.705	800.000	-0.133	-0.485
-294.691	800.000	0.042	-0.144
-293.676	-200.000	-0.011	0.053
-292.662	-130.261	-0.144	-0.020
-291.647	-146.096	-0.228	-0.020
-290.632	262.982	-0.104	0.182
-289.618	800.000	0.046	0.148
-288.603	10.437	-0.169	0.129
-287.589	211.936	-0.088	-0.139
-286.574	-136.458	-0.231	0.027
-285.559	599.411	0.076	-0.190
-284.545	114.161	-0.162	0.198
-283.530	-35.336	-0.060	-0.033
-282.516	-133.380	0.162	-0.020
-281.501	252.844	0.061	0.105
-280.486	13.138	-0.023	0.018
-279.472	-94.381	0.425	0.116
-278.457	93.646	0.340	0.386
-277.443	86.829	0.133	0.148
-276.428	83.124	0.152	-0.166
-275.413	26.871	0.275	0.232
-274.399	-149.279	0.096	-0.008
-273.384	59.172	-0.098	-0.097
-272.370	-16.340	-0.144	0.092
-271.355	-200.000	0.021	0.244
-270.340	-126.394	0.426	-0.064
-269.326	-70.894	-0.233	-0.088
-268.311	-200.000	-0.019	0.431
-267.297	-14.763	0.076	0.049
-266.282	-171.781	-0.139	-0.005
-265.267	-83.194	0.097	0.031
-264.253	-200.000	-0.031	0.168
-263.238	-16.759	-0.031	-0.020
-262.224	-0.509	0.169	0.120
-261.209	152.204	0.216	0.296
-260.195	-161.819	-0.362	0.018
-259.180	-40.133	0.138	0.072
-258.165	19.503	0.122	0.098
-257.151	178.530	-0.176	0.258
-256.136	800.000	-0.106	-0.428
-255.122	-14.518	-0.343	-0.221
-254.107	800.000	0.120	-0.503
-253.092	-13.895	0.122	0.079
-252.078	164.393	0.192	-0.272
-251.063	-5.872	0.104	0.071
-250.049	-157.062	0.304	0.019
-249.034	113.734	0.149	-0.182
-248.019	82.507	-0.181	-0.197
-247.005	-163.585	0.350	0.017
-245.990	-31.991	-0.236	0.132
-244.976	-200.000	0.000	0.198
-243.961	-157.402	0.266	0.016
-242.946	-150.492	0.080	-0.006
-241.932	56.013	-0.332	0.323
-240.917	-120.681	0.246	0.042
-239.903	-97.745	-0.162	0.042
-238.888	-71.569	0.281	0.105
-237.873	-135.116	0.307	-0.037
-236.859	-151.037	0.203	-0.015
-235.844	-57.609	0.346	0.152
-234.830	-30.165	-0.069	-0.039
-233.815	31.979	0.245	-0.212
-232.800	34.320	-0.170	-0.149
-231.786	-146.393	-0.342	-0.030
-230.771	-21.137	0.191	-0.117
-229.757	-200.000	-0.003	-0.063
-228.742	-159.644	0.232	0.013
-227.727	-159.315	0.180	0.010
-226.713	-70.241	0.270	0.103
-225.698	800.000	-0.025	-0.085
-224.684	-136.396	-0.200	-0.023
-223.669	142.719	0.244	0.325
-222.655	-200.000	0.010	-0.160
-221.640	90.983	0.142	-0.159
-220.625	-69.238	-0.127	0.049
-219.611	-79.511	-0.109	0.037
-218.596	-200.000	0.040	-0.413
-217.582	115.009	-0.154	-0.189
-216.567	-200.000	-0.098	-0.492
-215.552	43.654	0.030	-0.028
-214.538	58.856	-0.284	0.280
-213.523	25.358	0.136	-0.113
-212.509	97.137	-0.045	0.051
-211.494	150.582	0.080	0.109
-210.479	11.371	0.269	0.206
-209.465	40.057	0.067	0.061
-208.450	51.794	0.257	0.245
-207.436	-61.324	0.268	-0.113
-206.421	-184.514	-0.143	0.002
-205.406	101.040	0.085	0.099
-204.392	83.195	0.285	-0.311
-203.377	184.445	-0.083	0.124
-202.363	-63.701	0.165	-0.068
-201.348	800.000	-0.043	0.139
-200.333	109.275	0.078	0.093
-199.319	181.185	-0.130	0.192
-198.304	-200.000	-0.002	0.129
-197.290	6.939	-0.248	0.185
-196.275	108.847	0.279	0.334
-195.260	-79.934	0.387	0.130
-194.246	-154.240	0.192	-0.013
-193.231	-11.397	-0.180	-0.118
-192.217	229.024	-0.093	0.151
-191.202	356.023	0.095	-0.190
-190.187	670.830	-0.058	-0.152
-189.173	800.000	0.076	-0.227
-188.158	-94.037	-0.220	-0.060
-187.144	-49.290	0.292	0.139
-186.129	-5.350	-0.125	0.086
-185.114	40.107	-0.331	0.298
-184.100	-110.166	0.239	0.050
-183.085	256.554	0.165	0.284
-182.071	-200.000	-0.008	0.059
-181.056	45.538	-0.223	0.206
-180.042	82.953	-0.193	0.210
-179.027	315.172	0.158	-0.298
-178.012	-75.474	0.126	-0.045
-176.998	-103.878	-0.092	0.021
-175.983	324.583	-0.105	0.201
-174.969	-23.707	-0.108	0.064
-173.954	-149.367	-0.060	-0.005
-172.939	95.532	0.199	0.227
-171.925	-73.786	0.282	-0.102
-170.910	212.635	0.104	0.164
-169.896	13.625	-0.204	-0.159
-168.881	-93.557	0.122	-0.034
-167.866	-136.495	0.252	0.029
-166.852	784.146	0.029	0.079
-165.837	-156.633	-0.282	0.017
-164.823	180.622	-0.034	0.049
-163.808	363.342	-0.106	-0.213
-162.793	-127.529	-0.329	0.048
-161.779	-144.682	-0.329	0.030
-160.764	182.036	0.131	-0.193
-159.750	-37.504	0.169	-0.090
-158.735	118.924	0.058	0.072
-157.720	-200.000	-0.003	-0.303
-156.706	502.448	0.049	0.114
-155.691	-26.453	-0.193	0.113
-154.677	-60.681	-0.093	0.040
-153.662	800.000	0.132	-0.436
-152.647	-27.291	-0.054	0.031
-151.633	300.846	-0.117	-0.216
-150.618	-200.000	-0.051	0.356
-149.604	-2.700	0.228	-0.159
-148.589	-200.000	-0.034	0.205
-147.574	46.050	-0.199	-0.184
-146.560	-97.902	-0.153	0.039
-145.545	-200.000	0.000	-0.122
-144.531	171.589	0.156	0.224
-143.516	72.551	-0.159	0.165
-142.502	-50.687	-0.088	-0.041
-141.487	502.524	-0.171	0.395
-140.472	175.954	0.042	0.061
-139.458	800.000	-0.106	-0.364
-138.443	800.000	0.074	0.257
-137.429	-200.000	0.102	0.000
-136.414	800.000	-0.100	0.277
-135.399	16.772	-0.201	-0.159
-134.385	800.000	0.069	0.232
-133.370	-200.000	0.085	-0.400
-132.356	-22.472	0.374	0.226
-131.341	-97.093	-0.235	0.061
-130.326	-120.674	-0.048	0.008
-129.312	-9.051	-0.006	0.004
-128.297	-35.379	-0.360	0.195
-127.283	8.580	0.070	-0.052
-126.268	-200.000	0.019	-0.155
-125.253	-56.107	0.049	-0.022
-124.239	36.596	-0.217	-0.191
-123.224	-38.399	-0.277	-0.147
-122.210	-200.000	-0.042	0.272
-121.195	-200.000	-0.030	0.201
-120.180	88.648	0.214	0.237
-119.166	-67.819	0.228	0.089
-118.151	-20.546	-0.160	-0.098
-117.137	-49.496	-0.135	-0.064
-116.122	-28.086	0.158	0.091
-115.107	179.047	0.244	-0.356
-114.093	-47.163	0.215	0.105
-113.078	-82.602	0.413	0.133
-112.064	-91.011	0.036	0.010
-111.049	42.667	-0.205	-0.187
-110.034	-96.892	-0.361	0.094
-109.020	-34.679	0.250	-0.136
-108.005	-200.000	-0.014	0.240
-106.991	52.459	0.117	-0.112
-105.976	800.000	-0.109	0.319
-104.962	-51.860	0.115	0.054
-103.947	-79.833	-0.166	0.056
-102.932	-19.275	0.146	0.091
-101.918	-200.000	0.029	-0.134
-100.903	-19.431	0.290	-0.179
-99.889	-200.000	0.059	0.318
-98.874	300.448	0.073	0.134
-97.859	-140.392	-0.142	0.015
-96.845	-200.000	-0.007	0.082
-95.830	-2.269	-0.292	-0.205
-94.816	346.613	0.110	0.217
-93.801	-167.603	-0.211	0.008
-92.786	-200.000	0.009	0.189
-91.772	-164.908	-0.018	0.001
-90.757	18.620	-0.236	0.188
-89.743	-31.085	0.071	-0.040
-88.728	228.742	-0.027	0.044
-87.713	-111.536	0.375	0.076
-86.699	-87.478	0.113	0.034
-85.684	40.501	-0.074	-0.066
-84.670	-52.805	0.102	0.047
-83.655	-115.678	0.263	-0.049
-82.640	-200.000	0.007	0.204
-81.626	-53.938	-0.329	-0.149
-80.611	-76.410	-0.084	0.029
-79.597	193.373	-0.156	-0.236
-78.582	-184.621	0.348	0.006
-77.567	-96.436	-0.098	-0.026
-76.553	-125.934	0.363	-0.055
-75.538	-200.000	-0.056	0.453
-74.524	-200.000	-0.094	0.513
-73.509	492.595	-0.067	0.154
-72.494	420.044	0.135	0.288
-71.480	-72.510	0.082	0.030
-70.465	-179.229	-0.166	0.004
-69.451	-50.424	0.140	-0.066
-68.436	209.566	0.137	-0.214
-67.422	-200.000	0.023	0.173
-66.407	56.911	-0.400	-0.388
-65.392	-200.000	-0.024	0.307
-64.378	239.523	-0.164	0.272
-63.363	205.747	0.195	0.302
-62.349	72.365	0.419	0.435
-61.334	56.004	-0.619	-0.598
-60.319	159.455	0.278	0.386
-59.305	-200.000	-0.005	-0.712
-58.290	617.703	0.278	0.695
-57.276	-200.000	0.366	1.605
-56.261	-200.000	77.447	510.881
-55.246	507.710	1333.737	3081.748
-54.232	147.912	2558.424	3434.416
-53.217	114.364	2241.309	2716.794
-52.203	50.577	1771.488	1668.390
-51.188	43.543	1572.344	1431.213
-50.173	41.021	1542.430	1386.378
-49.159	56.808	1580.698	1532.245
-48.144	62.565	1600.352	1591.761
-47.130	44.186	1563.188	1427.177
-46.115	40.639	1548.889	1389.291
-45.100	40.464	1545.411	1384.895
-44.086	40.393	1543.185	1382.346
-43.071	40.308	1541.414	1380.110
-42.057	40.256	1539.730	1378.188
-41.042	40.321	1537.581	1376.662
-40.027	40.266	1536.167	1374.962
-39.013	40.329	1534.256	1373.631
-37.998	40.228	1533.437	1372.146
-36.984	40.247	1532.611	1371.482
-35.969	40.370	1530.749	1370.614
-34.954	40.332	1529.305	1369.004
-33.940	40.330	1527.947	1367.716
-32.925	40.356	1526.239	1366.312
-31.911	40.280	1525.340	1364.932
-30.896	40.334	1523.589	1363.685
-29.881	40.370	1522.646	1363.031
-28.867	40.347	1521.072	1361.412
-27.852	40.313	1520.023	1360.185
-26.838	40.389	1518.113	1358.945
-25.823	40.368	1516.423	1357.235
-24.809	40.397	1514.907	1356.017
-23.794	40.397	1513.423	1354.636
-22.779	40.391	1512.231	1353.477
-21.765	40.351	1511.574	1352.563
-20.750	40.300	1510.482	1351.180
-19.736	40.302	1508.870	1349.702
-18.721	40.401	1507.436	1349.037
-17.706	40.358	1506.333	1347.706
-16.692	40.312	1504.548	1345.739
-15.677	40.195	1504.649	1344.985
-14.663	40.279	1502.979	1344.011
-13.648	40.291	1502.520	1343.628
-12.633	40.280	1500.956	1342.103
-11.619	40.254	1500.193	1341.186
-10.604	40.181	1499.677	1340.176
-9.590	40.183	1498.957	1339.496
-8.575	40.211	1497.694	1338.503
-7.560	40.274	1496.507	1337.813
-6.546	40.191	1495.736	1336.512
-5.531	40.193	1495.112	1335.918
-4.517	40.223	1494.139	1335.193
-3.502	40.155	1493.587	1334.191
-2.487	40.363	1491.670	1333.827
-1.473	40.281	1490.716	1332.367
-0.458	40.286	1489.588	1331.341
0.556	40.679	1479.839	1320.258
1.571	37.451	1451.829	1274.043
2.586	33.475	1388.201	1193.123
3.600	31.328	1304.551	1108.412
4.615	29.462	1256.285	1056.632
5.629	24.825	1197.303	981.569
6.644	13.206	1105.223	846.801
7.659	3.885	1058.349	764.893
8.673	2.503	1052.484	753.786
9.688	2.319	1049.132	750.416
10.702	2.028	1047.701	747.902
11.717	2.152	1046.003	747.228
12.731	5.583	1050.492	767.207
13.746	16.305	1065.827	831.395
14.761	24.260	1076.284	878.866
15.775	25.604	1077.052	886.042
16.790	25.685	1076.309	885.752
17.804	25.598	1075.751	884.785
18.819	25.434	1074.726	883.057
19.834	25.439	1074.071	882.463
20.848	25.604	1074.002	883.142
21.863	25.741	1073.185	883.065
22.877	25.673	1072.703	882.253
23.892	25.687	1071.999	881.664
24.907	25.568	1071.288	880.419
25.921	25.526	1071.022	879.920
26.936	25.630	1069.627	879.202
27.950	25.516	1068.631	877.751
28.965	25.591	1067.418	877.043
29.980	25.432	1066.093	875.103
30.994	25.442	1064.951	874.134
32.009	25.558	1064.290	874.081
33.023	25.715	1063.380	874.017
34.038	25.576	1062.567	872.595
35.053	25.414	1061.773	871.081
36.067	25.589	1061.285	871.451
37.082	25.510	1060.483	870.334
38.096	25.590	1059.636	869.948
39.111	25.599	1059.177	869.539
40.126	25.882	1058.296	870.104
41.140	25.682	1057.493	868.401
42.155	25.452	1055.895	865.907
43.169	25.141	1054.481	863.173
44.184	25.191	1053.556	862.582
45.199	25.300	1052.365	862.051
46.213	25.203	1051.515	860.814
47.228	25.220	1050.297	859.822
48.242	25.313	1050.390	860.269
49.257	25.537	1049.164	860.260
50.271	25.588	1048.350	859.759
51.286	25.597	1048.040	859.472
52.301	25.601	1047.145	858.683
53.315	25.492	1047.001	857.968
54.330	25.573	1045.862	857.342
55.344	25.550	1044.695	856.201
56.359	25.573	1043.846	855.539
57.374	25.636	1043.238	855.266
58.388	25.353	1042.317	853.092
59.403	25.355	1041.707	852.526
60.417	25.395	1040.571	851.711
61.432	25.139	1040.264	850.170
62.447	25.224	1039.332	849.738
63.461	25.395	1038.500	849.788
64.476	25.358	1037.885	849.036
65.490	25.215	1037.562	848.018
66.505	25.133	1036.445	846.644
67.520	25.208	1035.171	845.884
68.534	25.283	1034.646	845.734
69.549	25.236	1033.526	844.521
70.563	24.863	1032.454	841.818
71.578	24.793	1031.849	840.921
72.593	24.846	1030.908	840.328
73.607	24.700	1029.741	838.615
74.622	24.687	1028.819	837.732
75.636	24.970	1028.277	838.540
76.651	25.035	1027.984	838.531
77.666	25.232	1026.565	838.221
78.680	24.972	1025.867	836.363
79.695	25.032	1025.220	836.039
80.709	24.954	1025.068	835.479
81.724	25.024	1024.418	835.204
82.739	25.085	1022.829	834.116
83.753	25.119	1022.124	833.624
84.768	25.554	1021.334	834.926
85.782	25.666	1021.819	835.773
86.797	25.867	1020.576	835.615
87.812	25.956	1019.807	835.320
88.826	25.779	1018.589	833.432
89.841	25.787	1017.542	832.538
90.855	25.926	1017.118	832.759
91.870	25.804	1016.208	831.378
92.884	25.827	1015.744	831.031
93.899	25.849	1014.369	829.932
94.914	25.618	1013.698	828.247
95.928	25.708	1013.093	828.092
96.943	25.776	1012.179	827.585
97.957	25.436	1011.048	825.026
98.972	25.207	1009.967	823.020
99.987	25.081	1008.470	821.152
101.001	25.182	1008.126	821.261
102.016	25.401	1007.979	822.072
103.030	25.442	1007.426	821.736
104.045	25.522	1005.713	820.631
105.060	25.364	1004.529	818.872
106.074	25.162	1003.495	817.034
107.089	25.175	1002.464	816.184
108.103	25.525	1002.586	817.802
109.118	25.542	1001.733	817.112
110.133	25.305	1000.178	814.695
111.147	25.290	999.458	813.971
112.162	25.253	998.131	812.648
113.176	24.865	997.634	810.416
114.191	25.101	996.846	810.771
115.206	25.273	995.858	810.673
116.220	24.900	994.797	808.053
117.235	24.842	993.743	806.864
118.249	25.004	993.362	807.215
119.264	24.907	992.533	806.033
120.279	24.777	991.621	804.635
121.293	24.911	990.837	804.532
122.308	24.960	990.341	804.278
123.322	24.923	989.293	803.189
124.337	24.958	988.435	802.579
125.352	24.746	987.107	800.480
126.366	24.342	985.730	797.489
127.381	24.076	984.438	795.183
128.395	24.550	984.089	796.945
129.410	25.376	983.468	800.056
130.424	25.448	983.042	799.958
131.439	25.433	982.210	799.144
132.454	25.535	980.702	798.300
133.468	25.347	980.551	797.272
134.483	25.451	979.821	797.068
135.497	25.372	979.294	796.215
136.512	25.648	978.659	796.856
137.527	25.725	977.769	796.399
138.541	25.745	977.221	795.971
139.556	25.703	976.306	794.970
140.570	25.814	975.153	794.452
141.585	25.923	974.351	794.205
142.600	25.843	973.916	793.430
143.614	25.676	973.164	792.013
144.629	25.819	972.417	791.965
145.643	26.081	971.650	792.417
146.658	25.841	970.914	790.697
147.673	25.685	969.444	788.746
148.687	25.655	968.431	787.719
149.702	25.556	967.338	786.328
150.716	25.469	966.382	785.100
151.731	25.422	965.169	783.839
152.746	25.483	964.513	783.505
153.760	25.544	964.691	783.847
154.775	25.762	963.314	783.607
155.789	25.864	962.404	783.241
156.804	25.822	961.606	782.338
157.819	25.864	960.211	781.315
158.833	25.799	959.865	780.686
159.848	25.882	959.532	780.704
160.862	25.903	958.413	779.814
161.877	25.794	957.593	778.608
162.892	25.618	956.792	777.126
163.906	25.810	955.914	777.175
164.921	25.857	955.088	776.638
165.935	25.640	953.655	774.470
166.950	25.782	952.752	774.278
167.964	25.725	952.405	773.681
168.979	25.825	951.157	773.031
169.994	25.578	950.030	770.986
171.008	25.678	948.770	770.324
172.023	25.704	948.352	770.026
173.037	25.897	947.661	770.222
174.052	25.723	946.544	768.505
175.067	25.555	945.435	766.820
176.081	25.444	944.553	765.563
177.096	25.575	943.521	765.217
178.110	25.573	942.940	764.671
179.125	25.298	942.251	762.873
180.140	25.151	940.724	760.947
181.154	25.171	940.581	760.849
182.169	25.222	940.088	760.600
183.183	25.386	940.128	761.258
184.198	25.718	939.339	761.960
185.213	25.742	938.489	761.301
186.227	25.608	937.531	759.894
187.242	25.787	937.313	760.406
188.256	25.847	936.581	759.998
189.271	25.702	935.942	758.800
190.286	25.944	935.131	759.094
191.300	25.727	934.295	757.437
192.315	25.178	932.788	753.839
193.329	24.418	931.425	749.480
194.344	24.003	929.819	746.382
195.359	24.624	930.090	749.137
196.373	25.456	930.817	753.144
197.388	25.723	930.649	754.061
198.402	25.744	929.657	753.279
199.417	25.630	929.395	752.524
200.432	25.728	928.855	752.428
201.446	25.607	928.034	751.191
202.461	25.129	927.544	748.732
203.475	25.347	927.255	749.344
204.490	24.967	925.617	746.370
205.504	23.730	923.330	739.317
206.519	24.032	923.325	740.503
207.534	25.068	923.562	744.935
208.548	25.198	923.030	744.981
209.563	25.541	922.731	746.098
210.577	25.601	922.246	745.887
211.592	25.354	920.939	743.741
212.607	25.783	921.026	745.524
213.621	26.050	920.505	746.138
214.636	25.935	919.983	745.176
215.650	25.882	919.333	744.363
216.665	25.635	919.180	743.153
217.680	25.704	918.476	742.803
218.694	25.989	918.259	743.737
219.709	25.651	916.807	741.104
220.723	25.331	915.768	738.881
221.738	25.468	915.560	739.210
222.753	25.701	915.304	739.899
223.767	25.534	914.678	738.640
224.782	25.637	913.865	738.343
225.796	25.820	912.926	738.269
226.811	25.978	912.421	738.440
227.826	25.656	911.568	736.367
228.840	24.677	910.147	731.151
229.855	24.680	909.287	730.412
230.869	25.032	909.167	731.688
231.884	24.652	908.014	729.143
232.899	24.768	907.425	729.078
233.913	25.439	907.634	731.918
234.928	25.801	906.978	732.794
235.942	25.616	906.514	731.606
236.957	25.468	906.108	730.612
237.972	25.189	905.379	728.826
238.986	25.162	904.337	727.810
240.001	25.322	903.819	727.980
241.015	25.192	903.491	727.124
242.030	25.418	902.647	727.294
243.045	25.430	902.298	726.996
244.059	25.648	901.430	727.116
245.074	25.838	901.267	727.687
246.088	25.685	900.446	726.341
247.103	25.353	899.696	724.333
248.117	25.295	898.898	723.395
249.132	25.929	898.812	725.816
250.147	26.280	898.923	727.251
251.161	26.339	898.436	727.033
252.176	26.632	897.722	727.568
253.190	26.534	897.221	726.702
254.205	26.686	896.606	726.752
255.220	26.713	896.290	726.537
256.234	26.836	895.627	726.429
257.249	26.694	894.820	725.140
258.263	26.569	893.893	723.825
259.278	26.468	893.911	723.373
260.293	26.630	893.224	723.399
261.307	26.644	892.574	722.867
262.322	26.690	891.565	722.168
263.336	26.516	891.423	721.294
264.351	25.944	890.023	717.824
265.366	24.909	887.940	711.965
266.380	24.569	887.033	709.824
267.395	25.314	887.298	712.932
268.409	26.199	887.437	716.497
269.424	26.186	886.858	715.912
270.439	26.270	886.586	715.965
271.453	26.366	886.279	716.033
272.468	26.423	885.221	715.341
273.482	26.564	884.970	715.633
274.497	26.610	884.664	715.500
275.512	26.480	883.187	713.732
276.526	26.027	881.605	710.605
277.541	25.992	881.798	710.560
278.555	26.403	881.667	712.008
279.570	26.361	880.724	711.019
280.585	26.084	880.084	709.352
281.599	26.110	879.487	708.911
282.614	26.201	879.042	708.846
283.628	25.875	877.910	706.593
284.643	25.511	877.074	704.432
285.657	25.765	877.290	705.538
286.672	25.800	876.458	704.945
287.687	25.238	875.482	701.897
288.701	25.540	875.236	702.818
289.716	26.058	874.915	704.523
290.730	25.743	873.997	702.491
291.745	25.497	873.588	701.140
292.760	25.484	872.347	700.033
293.774	25.221	872.027	698.689
294.789	26.161	872.502	702.669
295.803	26.828	872.645	705.318
296.818	26.815	872.312	704.936
297.833	26.965	871.454	704.762
298.847	26.513	870.647	702.295
299.862	26.229	869.761	700.415
300.876	26.455	868.963	700.587
301.891	26.857	868.733	701.896
302.906	26.913	868.087	701.529
303.920	26.502	867.152	699.122
304.935	26.554	866.244	698.531
305.949	26.905	866.039	699.657
306.964	26.923	865.730	699.414
307.979	26.650	864.699	697.469
308.993	26.547	864.352	696.729
310.008	26.829	864.498	697.871
311.022	27.120	863.734	698.310
312.037	26.906	863.134	696.942
313.052	26.662	862.692	695.588
314.066	26.400	862.199	694.121
315.081	25.859	860.106	690.305
316.095	25.131	859.049	686.607
317.110	25.598	859.296	688.532
318.125	26.597	859.307	692.302
319.139	26.186	858.248	689.818
320.154	24.918	857.006	683.917
321.168	24.429	856.038	681.219
322.183	25.166	856.021	683.956
323.197	25.990	856.806	687.668
324.212	26.331	856.183	688.407
325.227	26.469	855.746	688.518
326.241	26.754	855.147	689.059
327.256	26.578	854.668	687.943
328.270	26.581	853.947	687.316
329.285	26.334	853.614	686.048
330.300	26.212	852.800	684.872
331.314	25.997	851.767	683.165
332.329	26.078	851.325	683.057
333.343	26.467	851.120	684.304
334.358	26.660	850.932	684.821
335.373	26.633	850.177	684.052
336.387	26.803	849.583	684.157
337.402	26.976	849.459	684.647
338.416	27.171	848.921	684.890
339.431	27.122	848.411	684.231
340.446	27.157	847.956	683.937
341.460	27.403	847.394	684.347
342.475	27.339	846.734	683.513
343.489	27.072	846.247	682.058
344.504	27.182	845.315	681.659
345.519	27.269	845.341	681.946
346.533	27.577	845.050	682.803
347.548	27.567	844.666	682.395
348.562	27.560	844.111	681.862
349.577	27.558	843.413	681.229
350.592	27.544	842.607	680.467
351.606	27.506	842.283	680.004
352.621	27.399	841.861	679.203
353.635	27.219	841.476	678.160
354.650	27.335	840.526	677.766
355.665	27.058	839.717	676.023
356.679	25.931	838.392	670.708
357.694	25.774	838.080	669.812
358.708	26.437	837.746	671.950
359.723	26.414	836.846	671.085
360.738	26.599	837.073	671.894
361.752	26.934	837.096	673.097
362.767	27.068	836.699	673.215
363.781	27.507	836.324	674.478
364.796	27.753	836.144	675.182
365.810	27.807	835.484	674.790
366.825	27.942	835.187	674.988
367.840	28.052	834.818	675.037
368.854	27.852	834.044	673.614
369.869	27.439	833.174	671.331
370.883	27.186	832.500	669.795
371.898	27.366	832.190	670.151
372.913	27.234	831.299	668.886
373.927	27.198	830.419	667.988
374.942	27.356	829.885	668.080
375.956	27.477	829.446	668.110
376.971	27.510	829.428	668.159
377.986	27.541	829.066	667.919
379.000	27.791	828.582	668.387
380.015	28.021	827.633	668.403
381.029	27.805	827.129	667.148
382.044	27.696	826.315	666.033
383.059	27.928	825.606	666.251
384.073	27.995	825.571	666.406
385.088	27.993	824.989	665.871
386.102	27.919	824.250	664.947
387.117	27.599	823.812	663.370
388.132	27.632	823.090	662.852
389.146	27.488	822.353	661.675
390.161	26.839	821.339	658.445
391.175	26.828	821.367	658.368
392.190	27.522	821.398	660.855
393.205	27.671	820.488	660.603
394.219	26.678	818.907	655.681
395.234	24.998	816.105	647.316
396.248	24.126	815.497	643.625
397.263	25.200	816.056	647.891
398.278	26.912	817.836	655.437
399.292	27.588	817.779	657.775
400.307	27.185	817.099	655.713
401.321	27.121	816.442	654.899
402.336	27.018	816.423	654.456
403.350	27.432	816.269	655.763
404.365	27.830	816.525	657.347
405.380	28.195	816.212	658.348
406.394	28.405	815.936	658.824
407.409	28.735	815.142	659.307
408.423	28.618	814.911	658.644
409.438	28.474	814.233	657.520
410.453	28.508	813.890	657.306
411.467	28.518	813.709	657.139
412.482	28.544	812.936	656.548
413.496	28.488	812.563	655.991
414.511	28.454	812.526	655.782
415.526	28.598	811.761	655.619
416.540	28.563	811.403	655.146
417.555	28.492	810.665	654.240
418.569	28.229	810.042	652.742
419.584	28.307	809.334	652.392
420.599	28.287	809.001	651.993
421.613	97.043	1267.159	1386.342
422.628	83.428	1333.931	1386.457
