DTS Sentinel unit serial number:	SN413079Multiplexer serial number:	ORYXHardware model number:	OX4-SRSoftware version number:	ORYX F/W v4.00 Oryx Data Collector v3.7.2.0data status	okinstallation	princeton_trtdifferential loss correction	single-endedforward channel	channel 3reverse channel	N/Adate	2019/09/14time	17:48:35forward acquisition time	60.00reverse acquisition time	0.00gamma	496.2192k internal	0.2298k external	0.2298temperature offset calibration	1.0020default loss term (dB/km)	0.3790temperature slope calibration	1.0000multiplexer offset coefficient	1.0000multiplexer slope coefficient	1.0000fibre end	0.00T internal ref (°C)	37.50T ext. ref 1 (°C)	5.02T ext. ref 2 (°C)	32.51length (m)	temperature (°C)	Stokes	anti-Stokes-747.200	135.716	-0.091	0.120
-746.185	120.511	0.108	0.137
-745.171	43.425	0.308	0.288
-744.156	216.318	-0.145	0.236
-743.142	279.622	-0.043	-0.079
-742.127	24.888	0.241	0.204
-741.112	-172.643	0.355	0.011
-740.098	-35.561	-0.239	0.132
-739.083	-147.605	-0.099	-0.008
-738.069	15.295	-0.378	-0.302
-737.054	800.000	0.056	0.190
-736.039	-200.000	-0.033	-0.353
-735.025	88.641	0.075	-0.085
-734.010	77.047	-0.069	0.074
-732.996	203.240	0.299	-0.472
-731.981	800.000	-0.090	-0.269
-730.966	104.411	0.139	-0.167
-729.952	663.373	0.052	0.137
-728.937	200.838	0.113	0.177
-727.923	-10.491	-0.224	0.152
-726.908	-127.276	0.128	-0.019
-725.894	-200.000	-0.009	-0.133
-724.879	34.289	0.096	-0.085
-723.864	-60.373	-0.229	0.100
-722.850	-59.187	0.107	0.047
-721.835	82.822	-0.095	0.106
-720.821	-200.000	0.018	-0.169
-719.806	142.965	-0.151	-0.205
-718.791	39.837	0.098	-0.090
-717.777	99.688	-0.150	-0.177
-716.762	-121.974	-0.204	-0.034
-715.748	-200.000	-0.002	0.134
-714.733	104.139	0.105	0.126
-713.718	-56.396	-0.181	0.082
-712.704	-36.677	0.080	0.044
-711.689	-200.000	-0.053	-0.296
-710.675	-200.000	0.000	-0.205
-709.660	-200.000	0.044	-0.247
-708.645	23.024	0.163	-0.136
-707.631	-200.000	0.008	0.284
-706.616	274.184	0.096	0.173
-705.602	4.377	0.114	0.085
-704.587	800.000	0.079	-0.241
-703.572	472.564	-0.071	0.163
-702.558	-43.785	-0.162	0.083
-701.543	304.634	-0.081	-0.153
-700.529	-107.780	-0.256	-0.057
-699.514	-92.682	0.175	-0.050
-698.499	-76.294	0.362	-0.130
-697.485	-200.000	-0.032	0.204
-696.470	101.035	-0.068	0.081
-695.456	396.223	-0.093	-0.199
-694.441	-100.455	-0.306	0.077
-693.426	-183.236	-0.606	-0.011
-692.412	-32.206	-0.049	0.028
-691.397	287.465	-0.175	0.322
-690.383	61.239	0.021	0.021
-689.368	-200.000	0.012	-0.150
-688.354	230.717	0.051	-0.086
-687.339	-83.351	-0.265	0.087
-686.324	22.877	0.091	-0.076
-685.310	56.841	-0.034	-0.034
-684.295	-102.760	-0.131	0.032
-683.281	245.214	-0.144	-0.246
-682.266	-200.000	0.055	0.315
-681.251	-23.083	0.155	0.095
-680.237	-144.470	0.077	0.007
-679.222	-31.916	0.222	0.127
-678.208	-17.285	-0.186	-0.119
-677.193	-53.522	0.308	-0.143
-676.178	-200.000	0.023	-0.300
-675.164	-200.000	-0.007	0.063
-674.149	161.766	0.140	0.199
-673.135	-58.937	-0.116	0.051
-672.120	343.693	-0.120	0.239
-671.105	-23.504	0.366	0.224
-670.091	-106.358	0.320	-0.073
-669.076	276.691	0.239	0.433
-668.062	-107.473	0.176	0.039
-667.047	95.931	-0.334	-0.389
-666.032	-200.000	0.028	-0.252
-665.018	43.270	0.233	0.217
-664.003	-200.000	-0.002	0.066
-662.989	800.000	-0.055	-0.191
-661.974	800.000	-0.057	0.237
-660.959	-35.294	-0.171	-0.095
-659.945	-88.755	-0.156	0.047
-658.930	-143.652	0.338	0.033
-657.916	-200.000	-0.053	0.434
-656.901	-125.245	0.010	-0.002
-655.886	800.000	-0.045	0.163
-654.872	26.568	-0.201	0.171
-653.857	-47.691	0.135	-0.067
-652.843	800.000	-0.076	-0.262
-651.828	-90.903	0.090	0.026
-650.814	800.000	-0.033	-0.130
-649.799	-200.000	-0.001	-0.270
-648.784	317.075	0.150	0.288
-647.770	171.364	-0.136	0.199
-646.755	-163.352	0.065	-0.003
-645.741	289.894	0.227	-0.420
-644.726	212.233	0.221	-0.355
-643.711	177.586	-0.197	-0.291
-642.697	-44.397	0.226	0.115
-641.682	11.968	-0.298	0.233
-640.668	-167.676	0.269	-0.011
-639.653	-8.465	-0.205	0.140
-638.638	128.923	0.042	-0.054
-637.624	220.563	0.070	-0.115
-636.609	-73.171	0.449	0.167
-635.595	-73.485	-0.128	0.048
-634.580	1.885	-0.073	0.054
-633.565	-173.579	0.516	-0.016
-632.551	254.924	0.026	0.045
-631.536	-200.000	0.054	-0.344
-630.522	-114.905	-0.241	-0.047
-629.507	-132.263	-0.095	0.012
-628.492	695.533	-0.038	0.101
-627.478	768.194	0.046	0.128
-626.463	-102.571	-0.332	0.081
-625.449	163.282	0.066	-0.095
-624.434	-200.000	-0.035	-0.250
-623.419	-200.000	-0.027	-0.133
-622.405	383.782	0.066	0.138
-621.390	46.902	0.156	0.147
-620.376	317.622	-0.022	-0.043
-619.361	91.341	0.087	0.099
-618.346	17.627	0.137	0.110
-617.332	281.919	-0.123	-0.224
-616.317	-69.982	-0.410	0.159
-615.303	-119.070	0.150	0.027
-614.288	-200.000	0.003	-0.082
-613.273	-200.000	0.014	0.093
-612.259	-5.840	-0.221	0.153
-611.244	800.000	-0.027	0.114
-610.230	-156.312	0.320	-0.020
-609.215	110.128	0.010	0.012
-608.201	-152.231	-0.137	0.010
-607.186	88.275	-0.271	0.305
-606.171	800.000	-0.025	0.097
-605.157	-200.000	0.019	-0.276
-604.142	-146.505	0.154	0.014
-603.128	-134.651	-0.151	-0.019
-602.113	-22.149	0.195	-0.120
-601.098	-200.000	-0.010	-0.073
-600.084	-200.000	0.049	0.354
-599.069	-200.000	-0.053	-0.275
-598.055	-20.381	-0.267	-0.167
-597.040	-28.609	-0.252	-0.147
-596.025	-200.000	0.006	-0.037
-595.011	-69.319	-0.201	0.078
-593.996	-200.000	0.015	0.072
-592.982	-200.000	-0.071	0.361
-591.967	-113.895	-0.089	0.018
-590.952	554.047	0.092	-0.224
-589.938	-84.028	-0.311	0.100
-588.923	800.000	-0.115	0.336
-587.909	2.563	0.168	-0.123
-586.894	-92.153	0.355	0.102
-585.879	-99.344	-0.054	-0.014
-584.865	800.000	0.069	0.257
-583.850	-200.000	-0.005	-0.063
-582.836	-142.745	0.167	-0.016
-581.821	161.231	-0.313	0.444
-580.806	-140.056	-0.268	0.029
-579.792	325.554	-0.181	0.352
-578.777	100.363	0.107	-0.126
-577.763	58.135	-0.209	-0.208
-576.748	-45.687	-0.329	0.165
-575.733	-200.000	0.088	-0.461
-574.719	-99.281	0.150	-0.038
-573.704	-79.057	-0.399	-0.138
-572.690	238.085	0.114	-0.193
-571.675	96.460	-0.115	-0.133
-570.661	-10.830	-0.082	-0.055
-569.646	-128.861	-0.297	0.042
-568.631	273.447	0.102	0.182
-567.617	-68.461	-0.251	-0.099
-566.602	324.361	0.121	-0.235
-565.588	800.000	0.078	-0.268
-564.573	-200.000	0.003	0.025
-563.558	-200.000	0.007	-0.278
-562.544	10.243	-0.127	-0.098
-561.529	96.453	-0.082	0.096
-560.515	186.480	0.028	0.042
-559.500	256.377	0.101	-0.175
-558.485	-104.837	-0.230	-0.054
-557.471	44.706	0.067	-0.063
-556.456	166.569	-0.085	0.122
-555.442	-99.190	0.176	-0.045
-554.427	-82.898	-0.083	-0.027
-553.412	-140.161	0.342	-0.036
-552.398	-151.905	-0.192	0.014
-551.383	24.319	-0.325	-0.272
-550.369	1.899	0.244	-0.178
-549.354	3.536	0.383	0.283
-548.339	-85.517	-0.146	0.046
-547.325	-34.009	-0.235	0.131
-546.310	75.040	0.095	-0.101
-545.296	-59.395	-0.122	0.053
-544.281	-200.000	-0.014	-0.280
-543.266	76.348	0.098	-0.105
-542.252	-144.434	-0.301	0.028
-541.237	-16.485	0.159	0.102
-540.223	-71.696	-0.100	0.038
-539.208	-14.227	-0.180	0.117
-538.193	-20.028	-0.079	0.049
-537.179	-93.278	-0.192	-0.054
-536.164	75.360	-0.137	-0.147
-535.150	-73.601	-0.093	-0.034
-534.135	-149.837	-0.161	0.013
-533.121	-83.021	-0.058	0.019
-532.106	70.621	0.234	-0.246
-531.091	300.202	-0.086	-0.160
-530.077	-62.960	0.199	-0.083
-529.062	355.031	0.090	-0.182
-528.048	-67.554	-0.362	0.144
-527.033	666.058	0.053	0.139
-526.018	-200.000	-0.016	0.141
-525.004	-74.572	-0.146	0.053
-523.989	593.734	-0.104	0.260
-522.975	800.000	-0.047	-0.145
-521.960	-17.910	0.257	0.163
-520.945	800.000	0.067	-0.291
-519.931	800.000	-0.074	0.224
-518.916	-74.691	-0.257	-0.093
-517.902	176.269	0.159	0.233
-516.887	-200.000	-0.019	0.206
-515.872	226.752	0.037	-0.060
-514.858	-144.155	0.266	0.025
-513.843	563.247	-0.054	-0.132
-512.829	-54.590	0.184	-0.084
-511.814	-37.853	0.159	0.086
-510.799	324.004	-0.286	0.551
-509.785	6.065	0.160	0.120
-508.770	37.811	-0.031	0.028
-507.756	800.000	0.052	-0.203
-506.741	-200.000	0.010	-0.166
-505.726	82.599	0.171	0.188
-504.712	234.400	-0.117	0.195
-503.697	-56.469	-0.456	-0.205
-502.683	150.321	0.113	-0.155
-501.668	-83.678	0.330	0.106
-500.653	537.085	0.055	0.133
-499.639	-7.808	-0.151	0.103
-498.624	-19.224	-0.050	0.031
-497.610	800.000	0.026	0.082
-496.595	58.163	0.047	-0.046
-495.581	164.898	-0.073	-0.105
-494.566	260.819	-0.148	0.258
-493.551	-131.776	-0.068	0.009
-492.537	-53.570	0.128	0.059
-491.522	-144.891	-0.231	0.021
-490.508	-53.421	0.173	0.080
-489.493	-200.000	0.011	0.123
-488.478	35.422	-0.130	0.115
-487.464	62.085	-0.152	0.154
-486.449	51.838	0.109	-0.104
-485.435	19.343	-0.187	-0.152
-484.420	391.203	0.196	0.412
-483.405	800.000	-0.037	-0.130
-482.391	-42.663	-0.080	-0.041
-481.376	-119.825	-0.197	0.034
-480.362	56.561	-0.155	-0.152
-479.347	110.939	0.174	-0.212
-478.332	-200.000	-0.003	0.023
-477.318	800.000	-0.056	0.175
-476.303	-78.055	-0.113	-0.039
-475.289	-200.000	-0.014	0.085
-474.274	-200.000	-0.020	-0.151
-473.259	-200.000	0.010	0.139
-472.245	273.753	-0.046	0.082
-471.230	-103.189	0.158	-0.038
-470.216	-13.535	0.104	-0.068
-469.201	327.282	0.029	0.056
-468.186	-98.737	-0.239	-0.061
-467.172	-100.360	-0.480	-0.120
-466.157	259.815	0.048	0.083
-465.143	162.669	0.025	0.035
-464.128	175.774	-0.090	-0.132
-463.113	-200.000	0.096	-0.466
-462.099	800.000	-0.011	-0.042
-461.084	131.820	-0.045	-0.058
-460.070	-200.000	-0.016	-0.237
-459.055	525.757	-0.040	-0.096
-458.040	-25.812	-0.083	-0.049
-457.026	35.989	-0.196	-0.174
-456.011	86.842	-0.232	-0.259
-454.997	-115.669	0.155	0.029
-453.982	382.462	-0.071	0.148
-452.968	-200.000	-0.018	-0.150
-451.953	-38.763	-0.116	0.062
-450.938	167.922	-0.216	-0.310
-449.924	-158.683	-0.069	0.004
-448.909	-200.000	0.001	0.350
-447.895	92.624	0.043	-0.049
-446.880	317.223	0.171	0.327
-445.865	322.603	-0.088	0.169
-444.851	-56.355	0.150	-0.067
-443.836	3.171	0.167	-0.122
-442.822	-200.000	0.031	0.216
-441.807	233.899	0.024	0.039
-440.792	-2.987	0.130	-0.092
-439.778	-51.036	-0.080	-0.038
-438.763	-200.000	-0.000	0.078
-437.749	-200.000	0.003	-0.021
-436.734	-192.700	0.242	-0.002
-435.719	-14.521	0.234	-0.152
-434.705	800.000	-0.093	-0.282
-433.690	180.833	0.152	0.225
-432.676	-23.503	0.256	0.155
-431.661	-200.000	-0.042	0.272
-430.646	609.522	-0.016	-0.041
-429.632	5.744	0.142	0.106
-428.617	-23.885	-0.296	-0.179
-427.603	-200.000	0.021	0.171
-426.588	-27.285	0.372	0.218
-425.573	85.847	0.124	0.137
-424.559	101.963	0.062	0.073
-423.544	288.932	-0.102	-0.186
-422.530	122.324	0.100	0.126
-421.515	6.147	0.247	0.184
-420.500	-33.942	0.166	0.092
-419.486	-11.372	0.137	-0.091
-418.471	-200.000	-0.001	-0.398
-417.457	227.739	-0.067	0.109
-416.442	194.060	-0.149	-0.227
-415.428	-200.000	-0.029	-0.131
-414.413	-2.941	0.353	0.249
-413.398	-200.000	0.020	0.248
-412.384	1.715	-0.250	0.182
-411.369	-60.269	-0.081	0.035
-410.355	88.311	0.031	0.035
-409.340	-200.000	0.000	0.019
-408.325	-120.074	0.135	-0.023
-407.311	-24.364	0.234	-0.140
-406.296	-200.000	-0.057	0.284
-405.282	73.422	-0.060	-0.064
-404.267	-8.603	0.330	-0.223
-403.252	-200.000	-0.034	-0.233
-402.238	151.690	0.159	0.218
-401.223	66.060	-0.275	0.282
-400.209	-134.946	-0.146	0.018
-399.194	-165.457	-0.158	0.007
-398.179	141.786	-0.153	-0.205
-397.165	-128.257	0.392	0.056
-396.150	-200.000	-0.113	0.528
-395.136	47.009	-0.098	-0.092
-394.121	313.624	0.160	-0.303
-393.106	-70.785	0.123	-0.047
-392.092	-84.942	0.226	0.071
-391.077	-200.000	0.045	-0.299
-390.063	-25.377	-0.214	0.127
-389.048	618.972	0.118	0.298
-388.033	-200.000	0.066	0.301
-387.019	-200.000	0.015	0.271
-386.004	59.633	0.107	-0.106
-384.990	113.701	-0.011	-0.014
-383.975	-144.939	-0.319	0.029
-382.960	800.000	0.050	-0.189
-381.946	800.000	-0.033	0.104
-380.931	16.377	0.274	0.218
-379.917	-138.612	0.085	0.009
-378.902	-150.022	0.445	0.035
-377.888	-31.412	-0.215	0.122
-376.873	-157.405	0.083	0.005
-375.858	-200.000	-0.029	-0.137
-374.844	-136.500	0.254	-0.030
-373.829	47.813	-0.179	0.168
-372.815	-114.656	0.173	-0.033
-371.800	800.000	-0.060	-0.198
-370.785	-160.258	-0.098	0.005
-369.771	562.307	0.065	0.159
-368.756	65.794	0.090	0.092
-367.742	-83.041	-0.045	-0.015
-366.727	-87.420	-0.272	-0.083
-365.712	-123.210	0.283	-0.046
-364.698	-28.980	-0.053	0.031
-363.683	328.983	0.016	-0.031
-362.669	-144.757	-0.270	0.025
-361.654	168.622	-0.093	0.133
-360.639	800.000	0.091	0.254
-359.625	677.000	-0.192	-0.501
-358.610	196.290	-0.133	0.204
-357.596	-200.000	-0.006	-0.124
-356.581	800.000	-0.077	0.258
-355.566	57.844	-0.220	0.216
-354.552	-101.174	-0.234	-0.058
-353.537	-200.000	0.077	0.405
-352.523	-34.969	0.219	-0.120
-351.508	-200.000	0.020	-0.554
-350.493	-200.000	-0.022	-0.162
-349.479	275.577	-0.124	-0.221
-348.464	-58.036	0.057	0.025
-347.450	30.454	-0.491	0.421
-346.435	800.000	-0.092	0.323
-345.420	800.000	-0.067	0.245
-344.406	800.000	0.080	0.255
-343.391	96.635	0.027	-0.032
-342.377	800.000	-0.042	0.168
-341.362	41.723	-0.163	0.148
-340.348	800.000	-0.032	0.129
-339.333	338.264	0.255	0.498
-338.318	64.197	0.185	-0.187
-337.304	800.000	0.010	-0.028
-336.289	-200.000	0.008	0.086
-335.275	-200.000	-0.042	-0.412
-334.260	211.001	-0.174	-0.275
-333.245	105.052	-0.146	0.173
-332.231	-154.815	-0.169	0.011
-331.216	164.206	-0.164	0.233
-330.202	21.424	-0.136	-0.111
-329.187	-160.595	-0.235	0.013
-328.172	-6.768	0.292	0.200
-327.158	-124.914	0.292	-0.045
-326.143	-19.250	-0.087	-0.054
-325.129	-200.000	-0.026	0.186
-324.114	178.530	0.041	0.060
-323.099	31.595	0.227	-0.196
-322.085	40.159	0.244	0.221
-321.070	461.664	-0.105	0.235
-320.056	-81.978	0.275	-0.090
-319.041	-74.146	0.204	-0.074
-318.026	45.196	0.068	0.063
-317.012	119.540	0.133	0.166
-315.997	800.000	0.031	0.117
-314.983	-200.000	0.041	0.233
-313.968	196.429	-0.106	-0.163
-312.953	-200.000	-0.002	-0.049
-311.939	90.521	0.066	0.074
-310.924	-200.000	0.069	0.343
-309.910	117.650	-0.241	-0.298
-308.895	-158.354	0.107	0.006
-307.880	-121.627	-0.260	0.043
-306.866	34.423	0.217	0.190
-305.851	-200.000	0.033	-0.191
-304.837	609.434	0.037	0.092
-303.822	-112.043	0.222	0.045
-302.807	-161.712	-0.124	0.006
-301.793	57.114	0.407	-0.398
-300.778	281.865	0.149	0.267
-299.764	-70.124	0.225	0.086
-298.749	-76.936	0.292	0.102
-297.735	-87.996	-0.275	-0.083
-296.720	-8.326	-0.229	0.154
-295.705	-87.646	0.011	-0.003
-294.691	138.487	0.140	-0.184
-293.676	18.319	-0.051	0.041
-292.662	-59.058	0.311	0.135
-291.647	537.025	-0.134	-0.319
-290.632	396.396	0.157	-0.329
-289.618	800.000	0.040	-0.150
-288.603	3.769	-0.148	0.108
-287.589	-48.286	-0.150	0.073
-286.574	-72.980	-0.129	-0.048
-285.559	-195.626	0.160	0.001
-284.545	92.373	0.271	-0.306
-283.530	-103.454	-0.080	0.019
-282.516	37.828	-0.116	-0.104
-281.501	-73.513	-0.036	0.013
-280.486	-7.673	-0.186	0.126
-279.472	-200.000	-0.020	0.244
-278.457	216.875	0.146	0.233
-277.443	1.587	-0.033	0.024
-276.428	800.000	0.094	0.308
-275.413	216.667	-0.201	-0.320
-274.399	-200.000	0.020	0.144
-273.384	33.559	-0.162	-0.141
-272.370	-200.000	0.018	-0.083
-271.355	800.000	-0.082	0.283
-270.340	623.319	-0.097	-0.246
-269.326	800.000	0.103	-0.379
-268.311	-200.000	0.000	-0.194
-267.297	49.774	0.347	-0.327
-266.282	-126.139	-0.285	0.043
-265.267	-47.122	-0.372	-0.182
-264.253	800.000	-0.101	-0.298
-263.238	-200.000	0.072	-0.322
-262.224	800.000	-0.097	-0.326
-261.209	135.778	0.182	-0.238
-260.195	208.985	0.100	-0.156
-259.180	230.217	-0.074	0.121
-258.165	77.985	-0.133	0.142
-257.151	60.332	0.069	0.069
-256.136	-200.000	0.030	-0.317
-255.122	523.753	0.064	0.152
-254.107	-166.798	0.197	0.008
-253.092	296.075	-0.181	-0.332
-252.078	-57.987	-0.173	-0.076
-251.063	-200.000	0.004	0.170
-250.049	18.876	0.053	-0.043
-249.034	800.000	0.080	0.282
-248.019	-9.093	0.246	0.164
-247.005	181.313	-0.230	0.338
-245.990	59.520	-0.068	0.067
-244.976	-30.680	-0.021	0.012
-243.961	-200.000	0.010	0.272
-242.946	-20.462	0.200	-0.123
-241.932	114.729	0.052	-0.063
-240.917	-200.000	-0.032	-0.188
-239.903	185.638	0.150	-0.223
-238.888	-172.595	0.192	0.006
-237.873	-106.876	0.271	0.060
-236.859	442.657	0.109	-0.238
-235.844	-200.000	-0.006	-0.077
-234.830	-68.138	0.083	0.032
-233.815	-151.542	0.196	0.015
-232.800	23.402	0.085	0.070
-231.786	729.300	-0.074	-0.197
-230.771	286.677	0.048	-0.087
-229.757	620.863	-0.103	-0.260
-228.742	-87.720	-0.404	0.122
-227.727	92.927	-0.170	-0.192
-226.713	189.838	0.094	-0.141
-225.698	-122.625	0.392	-0.064
-224.684	800.000	0.056	-0.223
-223.669	118.704	0.161	0.198
-222.655	800.000	-0.046	-0.177
-221.640	374.907	-0.053	-0.107
-220.625	800.000	0.063	0.179
-219.611	-200.000	0.012	-0.192
-218.596	762.659	0.062	0.168
-217.582	800.000	0.031	-0.094
-216.567	108.259	0.096	0.114
-215.552	-200.000	0.091	-0.451
-214.538	31.051	0.397	-0.341
-213.523	-200.000	-0.008	-0.184
-212.509	-23.117	-0.262	0.158
-211.494	-200.000	-0.009	0.195
-210.479	784.707	0.031	-0.085
-209.465	-27.477	0.199	0.116
-208.450	-200.000	-0.007	0.341
-207.436	380.858	-0.123	0.252
-206.421	45.898	0.069	0.064
-205.406	-113.225	-0.231	-0.045
-204.392	28.445	0.330	-0.279
-203.377	-80.781	0.106	-0.035
-202.363	800.000	0.006	0.023
-201.348	-173.273	0.127	-0.004
-200.333	-72.259	0.260	0.096
-199.319	405.232	-0.140	0.296
-198.304	-200.000	0.027	0.239
-197.290	-86.656	-0.314	-0.096
-196.275	69.701	-0.109	0.113
-195.260	-56.316	0.461	-0.205
-194.246	-200.000	-0.038	-0.213
-193.231	29.337	0.361	-0.306
-192.217	-200.000	-0.010	-0.093
-191.202	-102.232	0.107	0.026
-190.187	-90.664	-0.259	-0.075
-189.173	-22.970	-0.211	0.127
-188.158	523.907	0.112	0.264
-187.144	-42.100	-0.081	0.041
-186.129	362.801	-0.111	-0.222
-185.114	336.565	0.060	0.116
-184.100	113.160	0.019	0.023
-183.085	-67.306	0.352	-0.138
-182.071	-112.153	-0.424	-0.085
-181.056	19.564	0.157	0.126
-180.042	303.561	0.104	0.192
-179.027	55.863	-0.167	-0.162
-178.012	-66.404	0.098	-0.039
-176.998	96.839	0.108	0.123
-175.983	512.610	-0.067	-0.156
-174.969	-191.972	0.155	-0.001
-173.954	-200.000	0.002	-0.089
-172.939	17.227	-0.148	0.117
-171.925	-200.000	0.098	0.452
-170.910	-41.679	0.188	-0.096
-169.896	151.333	-0.143	-0.194
-168.881	-29.342	-0.201	-0.115
-167.866	800.000	0.010	0.036
-166.852	2.233	-0.233	0.168
-165.837	-7.135	-0.173	-0.117
-164.823	-200.000	-0.028	0.161
-163.808	0.616	0.085	0.060
-162.793	36.135	0.131	-0.115
-161.779	14.474	-0.021	-0.017
-160.764	-15.407	0.148	-0.095
-159.750	195.709	0.119	0.181
-158.735	-32.561	-0.260	-0.144
-157.720	-36.235	-0.083	0.045
-156.706	-31.856	0.139	-0.078
-155.691	2.501	-0.140	-0.101
-154.677	-77.748	-0.228	-0.079
-153.662	-200.000	0.022	-0.150
-152.647	-200.000	-0.267	0.001
-151.633	-3.612	0.165	-0.114
-150.618	-41.247	0.337	-0.173
-149.604	-39.756	-0.253	0.132
-148.589	-200.000	-0.011	0.302
-147.574	132.447	0.335	0.430
-146.560	-59.694	0.317	0.136
-145.545	599.487	-0.086	-0.212
-144.531	-108.434	0.119	0.025
-143.516	51.681	0.201	0.191
-142.502	261.274	0.172	0.297
-141.487	159.617	0.049	0.068
-140.472	-200.000	-0.062	-0.360
-139.458	-8.754	0.199	-0.133
-138.443	-200.000	0.004	-0.078
-137.429	-200.000	-0.007	-0.125
-136.414	-15.526	0.088	0.056
-135.399	-33.277	0.252	-0.139
-134.385	-200.000	-0.005	-0.317
-133.370	56.024	0.119	0.115
-132.356	-200.000	0.008	0.189
-131.341	-200.000	-0.106	-0.000
-130.326	54.174	0.229	0.219
-129.312	228.270	0.169	-0.275
-128.297	-200.000	0.053	0.436
-127.283	-148.134	-0.379	0.031
-126.268	427.703	-0.079	0.170
-125.253	800.000	0.090	0.358
-124.239	164.186	-0.154	-0.217
-123.224	-50.501	0.585	0.275
-122.210	-157.547	0.335	0.020
-121.195	-13.586	0.221	0.143
-120.180	-140.691	-0.376	-0.039
-119.166	20.998	-0.115	0.093
-118.151	244.110	0.016	0.026
-117.137	43.795	-0.040	-0.037
-116.122	92.321	-0.167	-0.188
-115.107	-200.000	0.028	0.156
-114.093	-200.000	0.130	0.000
-113.078	-53.119	0.212	0.097
-112.064	102.369	0.275	0.320
-111.049	622.722	0.124	-0.311
-110.034	627.810	0.054	-0.136
-109.020	-200.000	0.001	0.149
-108.005	66.568	-0.295	0.299
-106.991	800.000	0.057	0.222
-105.976	-93.324	-0.177	-0.049
-104.962	-20.980	0.187	-0.114
-103.947	800.000	0.091	-0.270
-102.932	-104.354	-0.053	0.012
-101.918	-15.842	0.232	-0.147
-100.903	-192.681	0.338	0.003
-99.889	-200.000	0.021	-0.124
-98.874	486.179	-0.109	0.248
-97.859	800.000	0.054	0.211
-96.845	-36.359	0.289	0.155
-95.830	-9.157	-0.148	0.098
-94.816	-6.611	0.100	-0.068
-93.801	-200.000	0.012	-0.248
-92.786	-141.506	0.133	-0.013
-91.772	-140.555	-0.156	0.016
-90.757	-31.362	-0.137	0.077
-89.743	800.000	0.020	-0.070
-88.728	162.936	0.172	-0.240
-87.713	-10.157	-0.177	-0.117
-86.699	276.238	-0.117	0.207
-85.684	-94.763	0.420	-0.113
-84.670	-90.186	0.255	-0.074
-83.655	221.044	-0.230	0.367
-82.640	-120.109	-0.223	-0.038
-81.626	214.809	-0.044	-0.070
-80.611	237.820	0.112	-0.184
-79.597	800.000	0.162	-0.493
-78.582	-200.000	0.021	-0.118
-77.567	144.235	-0.013	0.017
-76.553	97.683	-0.090	0.103
-75.538	-53.487	0.302	0.137
-74.524	8.152	-0.249	-0.186
-73.509	587.713	-0.172	-0.422
-72.494	3.710	0.177	0.128
-71.480	-46.912	-0.141	-0.068
-70.465	251.234	0.035	0.059
-69.451	-65.619	-0.172	0.069
-68.436	662.070	0.133	-0.340
-67.422	-129.795	-0.371	0.051
-66.407	800.000	0.088	0.326
-65.392	-9.562	0.369	0.245
-64.378	-34.111	0.207	0.113
-63.363	-123.252	-0.204	0.032
-62.349	-81.550	0.177	0.058
-61.334	36.463	-1.087	-0.953
-60.319	43.158	0.446	0.404
-59.305	800.000	-0.151	-0.558
-58.290	241.527	0.523	0.869
-57.276	385.063	0.660	1.352
-56.261	-200.000	88.021	494.156
-55.246	522.675	1389.942	3244.152
-54.232	184.688	2599.824	3829.337
-53.217	118.141	2224.204	2724.489
-52.203	47.241	1752.132	1620.994
-51.188	40.502	1558.641	1394.735
-50.173	38.033	1530.136	1352.096
-49.159	54.430	1576.498	1508.754
-48.144	58.449	1596.487	1556.134
-47.130	41.040	1554.005	1394.138
-46.115	37.766	1538.518	1357.426
-45.100	37.558	1534.768	1352.621
-44.086	37.637	1532.619	1351.219
-43.071	37.465	1531.021	1348.564
-42.057	37.476	1528.709	1346.554
-41.042	37.384	1528.221	1345.433
-40.027	37.470	1526.742	1344.670
-39.013	37.498	1525.028	1343.299
-37.998	37.394	1524.004	1341.629
-36.984	37.480	1522.281	1340.652
-35.969	37.464	1520.806	1339.185
-34.954	37.531	1519.493	1338.441
-33.940	37.444	1518.657	1337.053
-32.925	37.505	1517.056	1336.009
-31.911	37.625	1515.926	1335.784
-30.896	37.538	1514.741	1334.086
-29.881	37.526	1512.914	1332.345
-28.867	37.499	1511.375	1330.749
-27.852	37.669	1509.481	1330.191
-26.838	37.512	1508.462	1328.173
-25.823	37.503	1507.126	1326.880
-24.809	37.473	1505.315	1325.027
-23.794	37.556	1504.061	1324.435
-22.779	37.540	1503.026	1323.362
-21.765	37.491	1502.163	1322.219
-20.750	37.633	1500.258	1321.451
-19.736	37.533	1499.516	1320.068
-18.721	37.455	1498.910	1318.951
-17.706	37.572	1497.380	1318.348
-16.692	37.521	1496.073	1316.801
-15.677	37.475	1495.418	1315.862
-14.663	37.488	1493.950	1314.607
-13.648	37.571	1492.637	1313.957
-12.633	37.502	1491.642	1312.563
-11.619	37.421	1491.241	1311.610
-10.604	37.529	1490.025	1311.217
-9.590	37.480	1489.441	1310.324
-8.575	37.466	1488.200	1309.088
-7.560	37.444	1487.482	1308.252
-6.546	37.479	1486.329	1307.419
-5.531	37.440	1485.576	1306.443
-4.517	37.389	1484.724	1305.304
-3.502	37.422	1483.722	1304.589
-2.487	37.525	1482.151	1303.851
-1.473	37.492	1481.204	1302.741
-0.458	37.471	1480.100	1301.579
0.556	37.129	1470.465	1290.124
1.571	34.084	1442.927	1245.947
2.586	30.127	1379.340	1166.101
3.600	27.934	1294.993	1081.729
4.615	26.054	1246.757	1030.612
5.629	22.110	1189.356	961.537
6.644	13.201	1101.955	845.417
7.659	5.963	1058.796	776.544
8.673	5.075	1053.220	768.014
9.688	4.846	1050.675	764.967
10.702	5.094	1048.511	764.539
11.717	5.065	1046.851	763.120
12.731	7.522	1049.543	777.052
13.746	15.449	1061.296	824.778
14.761	20.732	1066.613	854.857
15.775	19.800	1064.739	848.708
16.790	18.680	1062.084	841.030
17.804	17.426	1060.012	833.180
18.819	16.539	1058.399	827.502
19.834	16.104	1056.662	823.943
20.848	15.812	1055.931	821.876
21.863	15.550	1055.210	819.960
22.877	15.360	1054.583	818.476
23.892	15.196	1053.422	816.701
24.907	15.270	1052.361	816.168
25.921	15.199	1051.627	815.183
26.936	15.108	1050.940	814.132
27.950	15.205	1050.326	814.059
28.965	15.156	1049.206	812.881
29.980	15.241	1047.900	812.208
30.994	15.321	1046.752	811.632
32.009	15.472	1045.958	811.674
33.023	15.500	1045.261	811.198
34.038	15.405	1044.484	810.063
35.053	15.360	1043.373	808.915
36.067	15.345	1042.272	807.917
37.082	15.309	1041.649	807.190
38.096	15.229	1040.931	806.179
39.111	15.311	1040.360	806.055
40.126	15.350	1039.414	805.442
41.140	15.305	1038.427	804.387
42.155	15.197	1036.970	802.672
43.169	15.063	1036.159	801.330
44.184	15.015	1034.785	799.968
45.199	14.946	1034.016	798.974
46.213	15.000	1033.004	798.380
47.228	15.050	1032.283	797.989
48.242	15.232	1030.806	797.642
49.257	15.190	1030.453	797.098
50.271	15.136	1029.438	795.985
51.286	15.220	1028.630	795.690
52.301	15.415	1027.159	795.408
53.315	15.329	1026.795	794.648
54.330	15.251	1025.796	793.434
55.344	15.122	1024.461	791.723
56.359	15.087	1023.730	790.920
57.374	15.149	1023.020	790.595
58.388	15.222	1021.842	789.961
59.403	15.039	1021.507	788.767
60.417	15.047	1020.331	787.829
61.432	14.980	1019.927	787.130
62.447	15.038	1018.854	786.508
63.461	14.977	1017.673	785.237
64.476	14.935	1017.134	784.558
65.490	14.845	1016.472	783.554
66.505	14.869	1015.824	783.097
67.520	14.922	1014.703	782.411
68.534	14.957	1014.442	782.304
69.549	14.951	1013.261	781.299
70.563	15.050	1012.104	780.798
71.578	14.890	1012.018	779.916
72.593	14.798	1011.604	779.101
73.607	14.759	1010.114	777.702
74.622	14.789	1009.063	776.965
75.636	14.800	1008.132	776.230
76.651	14.742	1007.437	775.355
77.666	14.854	1006.468	775.062
78.680	14.802	1006.275	774.602
79.695	14.851	1005.603	774.244
80.709	14.950	1005.164	774.296
81.724	14.826	1004.571	773.198
82.739	14.954	1003.649	773.011
83.753	15.024	1002.975	772.747
84.768	15.237	1001.959	772.875
85.782	15.284	1001.093	772.355
86.797	15.463	1000.185	772.412
87.812	15.428	999.670	771.783
88.826	15.376	998.826	770.824
89.841	15.268	998.012	769.634
90.855	15.231	997.365	768.899
91.870	15.290	996.872	768.720
92.884	15.298	996.317	768.258
93.899	15.384	995.389	767.868
94.914	15.340	994.452	766.879
95.928	15.339	993.815	766.315
96.943	15.460	992.910	766.099
97.957	15.421	992.029	765.173
98.972	15.284	991.410	764.008
99.987	15.338	990.582	763.546
101.001	15.352	990.108	763.177
102.016	15.406	989.234	762.680
103.030	15.351	988.056	761.458
104.045	15.281	987.214	760.422
105.060	15.389	986.079	759.969
106.074	15.244	985.799	759.032
107.089	15.096	984.565	757.345
108.103	15.091	983.668	756.563
109.118	14.924	982.938	755.181
110.133	14.909	981.699	754.096
111.147	14.956	980.638	753.427
112.162	14.892	979.800	752.426
113.176	15.102	978.614	752.394
114.191	15.019	978.241	751.670
115.206	15.088	977.492	751.337
116.220	15.140	976.811	750.977
117.235	15.133	975.866	750.155
118.249	15.025	975.424	749.264
119.264	14.999	974.380	748.280
120.279	14.955	973.439	747.293
121.293	15.008	973.240	747.311
122.308	14.874	972.354	745.969
123.322	14.858	971.341	745.054
124.337	14.894	970.248	744.308
125.352	14.844	969.105	743.145
126.366	14.814	967.804	741.950
127.381	14.943	967.028	741.861
128.395	14.968	965.731	740.909
129.410	14.830	965.028	739.695
130.424	15.063	964.066	739.919
131.439	15.107	963.336	739.489
132.454	15.095	962.640	738.835
133.468	15.239	961.556	738.576
134.483	15.092	961.301	737.667
135.497	15.070	960.737	737.072
136.512	15.212	959.465	736.653
137.527	15.173	959.045	736.094
138.541	15.129	958.199	735.189
139.556	15.172	957.524	734.792
140.570	15.083	957.026	733.953
141.585	15.360	956.017	734.331
142.600	15.439	955.179	733.965
143.614	15.283	955.008	733.088
144.629	15.341	954.265	732.707
145.643	15.555	953.285	732.824
146.658	15.401	952.711	731.646
147.673	15.292	951.136	729.896
148.687	15.253	950.444	729.133
149.702	15.295	949.333	728.397
150.716	15.070	948.755	726.912
151.731	15.085	947.701	726.103
152.746	15.191	946.859	725.855
153.760	15.332	946.178	725.879
154.775	15.309	945.307	725.049
155.789	15.213	945.034	724.358
156.804	15.357	943.737	723.923
157.819	15.438	943.079	723.702
158.833	15.252	942.954	722.739
159.848	15.479	941.873	722.827
160.862	15.390	941.540	722.125
161.877	15.464	940.605	721.659
162.892	15.159	939.880	719.730
163.906	15.099	939.021	718.749
164.921	15.038	938.306	717.877
165.935	14.970	937.318	716.767
166.950	15.245	936.084	716.939
167.964	15.379	935.242	716.803
168.979	15.298	933.952	715.402
169.994	15.346	933.195	714.966
171.008	15.238	932.342	713.789
172.023	15.245	931.511	713.120
173.037	15.289	931.069	712.906
174.052	15.374	930.388	712.681
175.067	15.372	929.900	712.236
176.081	15.442	928.658	711.519
177.096	15.400	927.361	710.282
178.110	15.343	926.632	709.423
179.125	15.193	926.338	708.501
180.140	15.292	925.860	708.491
181.154	15.462	924.338	707.978
182.169	15.372	923.846	707.162
183.183	15.456	923.424	707.131
184.198	15.484	923.196	707.010
185.213	15.459	922.230	706.101
186.227	15.533	921.603	705.872
187.242	15.583	921.272	705.764
188.256	15.712	920.245	705.458
189.271	15.664	919.718	704.788
190.286	15.682	919.044	704.284
191.300	15.576	917.793	702.822
192.315	15.330	917.050	701.161
193.329	15.167	916.486	699.990
194.344	15.198	915.944	699.639
195.359	15.249	915.175	699.205
196.373	15.462	914.807	699.751
197.388	15.655	913.881	699.783
198.402	15.546	913.896	699.280
199.417	15.809	913.162	699.750
200.432	15.864	913.028	699.812
201.446	15.912	912.471	699.521
202.461	15.838	912.243	698.978
203.475	15.974	911.654	699.033
204.490	15.941	910.952	698.294
205.504	15.907	909.748	697.167
206.519	15.839	909.249	696.444
207.534	15.659	908.767	695.268
208.548	15.618	907.879	694.359
209.563	15.796	907.088	694.425
210.577	15.682	906.455	693.408
211.592	15.838	905.814	693.500
212.607	15.711	905.821	692.919
213.621	15.906	904.933	692.983
214.636	16.051	903.542	692.452
215.650	16.031	903.363	692.170
216.665	16.050	902.596	691.599
217.680	16.025	902.321	691.224
218.694	15.999	902.077	690.870
219.709	16.034	901.641	690.619
220.723	16.159	900.639	690.303
221.738	16.051	899.867	689.210
222.753	15.989	898.700	688.000
223.767	16.055	898.289	687.897
224.782	16.090	897.454	687.339
225.796	16.128	896.903	687.010
226.811	16.277	896.110	686.949
227.826	16.181	895.226	685.819
228.840	16.118	894.700	685.099
229.855	16.090	894.285	684.607
230.869	15.990	893.884	683.835
231.884	15.917	893.276	683.011
232.899	15.997	892.363	682.578
233.913	16.045	891.380	681.961
234.928	16.117	890.450	681.480
235.942	15.957	890.097	680.502
236.957	15.881	889.571	679.732
237.972	15.901	888.897	679.238
238.986	15.897	888.550	678.895
240.001	16.016	887.276	678.343
241.015	16.009	886.746	677.849
242.030	16.151	885.953	677.752
243.045	16.107	885.901	677.475
244.059	16.133	884.810	676.688
245.074	16.107	884.351	676.173
246.088	16.167	883.635	675.803
247.103	16.364	883.218	676.213
248.117	16.263	882.419	675.139
249.132	16.367	881.870	675.075
250.147	16.389	881.833	675.074
251.161	16.526	881.265	675.127
252.176	16.688	880.409	675.058
253.190	16.796	879.317	674.591
254.205	16.891	878.775	674.494
255.220	16.807	878.219	673.671
256.234	16.664	878.107	672.957
257.249	16.761	877.226	672.609
258.263	16.694	876.655	671.845
259.278	16.635	876.184	671.193
260.293	16.851	875.572	671.517
261.307	16.856	874.869	670.939
262.322	16.910	874.280	670.645
263.336	16.889	873.434	669.850
264.351	17.034	872.852	669.919
265.366	16.981	872.475	669.361
266.380	16.962	871.689	668.622
267.395	17.093	870.733	668.348
268.409	16.887	870.343	667.177
269.424	16.804	869.720	666.316
270.439	16.794	868.930	665.613
271.453	16.882	867.960	665.156
272.468	16.911	866.677	664.227
273.482	16.756	866.505	663.430
274.497	16.825	866.210	663.416
275.512	16.792	865.725	662.855
276.526	16.974	864.764	662.772
277.541	16.844	863.983	661.608
278.555	16.850	863.665	661.327
279.570	16.957	862.851	661.064
280.585	17.003	862.551	660.955
281.599	17.129	862.277	661.179
282.614	16.970	861.771	660.114
283.628	16.936	860.935	659.281
284.643	16.969	860.215	658.801
285.657	16.978	859.995	658.609
286.672	16.903	859.516	657.891
287.687	16.916	859.228	657.663
288.701	17.042	858.427	657.481
289.716	16.868	857.877	656.328
290.730	16.995	857.142	656.198
291.745	17.112	856.574	656.158
292.760	17.168	855.568	655.545
293.774	17.190	854.970	655.112
294.789	17.104	854.689	654.507
295.803	17.226	854.060	654.437
296.818	17.246	853.171	653.777
297.833	17.086	852.081	652.267
298.847	17.118	851.730	652.066
299.862	17.166	851.534	652.043
300.876	17.185	850.492	651.258
301.891	17.204	850.016	650.909
302.906	17.214	849.471	650.474
303.920	17.408	848.799	650.644
304.935	17.461	848.074	650.234
305.949	17.517	847.471	649.925
306.964	17.482	846.691	649.138
307.979	17.494	846.097	648.669
308.993	17.462	845.608	648.115
310.008	17.551	844.881	647.839
311.022	17.491	844.727	647.438
312.037	17.546	844.406	647.341
313.052	17.542	843.378	646.482
314.066	17.410	842.606	645.333
315.081	17.327	842.578	644.940
316.095	17.160	842.135	643.908
317.110	17.245	841.472	643.666
318.125	17.266	840.417	642.884
319.139	17.192	840.453	642.574
320.154	17.326	839.947	642.635
321.168	17.243	839.383	641.836
322.183	17.366	838.621	641.660
323.197	17.552	837.987	641.819
324.212	17.449	837.681	641.138
325.227	17.418	837.026	640.462
326.241	17.321	836.920	639.961
327.256	17.410	836.052	639.574
328.270	17.637	834.965	639.538
329.285	17.420	834.730	638.487
330.300	17.312	834.196	637.617
331.314	17.482	833.610	637.753
332.329	17.526	832.883	637.304
333.343	17.612	832.323	637.140
334.358	17.740	831.605	637.012
335.373	17.675	831.177	636.384
336.387	17.655	830.714	635.898
337.402	17.600	830.624	635.571
338.416	17.638	830.078	635.238
339.431	17.829	829.056	635.109
340.446	17.895	828.624	634.970
341.460	17.963	828.116	634.776
342.475	18.049	827.755	634.762
343.489	17.899	827.543	633.987
344.504	18.054	826.252	633.517
345.519	18.021	826.141	633.251
346.533	18.193	825.609	633.424
347.548	18.014	825.124	632.336
348.562	17.768	824.655	631.009
349.577	17.914	824.064	631.043
350.592	17.814	823.464	630.157
351.606	17.674	823.047	629.266
352.621	17.779	822.232	628.974
353.635	17.762	822.108	628.759
354.650	17.965	821.200	628.759
355.665	17.927	821.177	628.546
356.679	17.920	820.810	628.181
357.694	17.966	820.230	627.852
358.708	18.053	819.428	627.502
359.723	17.893	819.330	626.782
360.738	18.025	818.403	626.503
361.752	18.065	818.091	626.354
362.767	18.099	817.702	626.125
363.781	18.174	817.024	625.826
364.796	18.235	816.474	625.575
365.810	18.286	816.393	625.641
366.825	18.231	815.830	624.956
367.840	18.327	816.049	625.418
368.854	18.347	815.333	624.886
369.869	18.346	814.771	624.398
370.883	18.195	814.213	623.364
371.898	18.356	813.447	623.307
372.913	18.313	813.158	622.877
373.927	18.460	812.432	622.797
374.942	18.405	812.003	622.214
375.956	18.305	811.019	621.043
376.971	18.412	810.682	621.118
377.986	18.414	810.189	620.692
379.000	18.415	809.662	620.238
380.015	18.570	809.471	620.596
381.029	18.605	808.695	620.074
382.044	18.577	807.947	619.345
383.059	18.625	807.073	618.791
384.073	18.761	806.560	618.836
385.088	18.606	806.411	618.107
386.102	18.435	805.875	617.027
387.117	18.465	805.341	616.670
388.132	18.475	804.854	616.277
389.146	18.486	804.014	615.620
390.161	18.536	803.864	615.629
391.175	18.621	803.777	615.816
392.190	18.597	803.268	615.283
393.205	18.517	802.801	614.586
394.219	18.499	802.533	614.262
395.234	18.561	801.938	613.974
396.248	18.355	801.419	612.785
397.263	18.438	801.070	612.760
398.278	18.430	800.078	611.920
399.292	18.406	799.921	611.659
400.307	18.426	799.423	611.295
401.321	18.452	799.124	611.104
402.336	18.331	798.666	610.270
403.350	18.474	798.336	610.473
404.365	18.544	797.953	610.376
405.380	18.592	797.453	610.110
406.394	18.669	797.037	610.012
407.409	18.755	796.583	609.915
408.423	18.922	796.210	610.169
409.438	18.936	795.365	609.516
410.453	18.865	795.332	609.186
411.467	19.008	794.668	609.128
412.482	18.901	794.485	608.556
413.496	19.107	793.775	608.688
414.511	19.226	793.455	608.808
415.526	19.128	793.150	608.176
416.540	18.977	793.258	607.671
417.555	19.206	792.077	607.518
418.569	19.056	791.795	606.720
419.584	19.062	791.320	606.323
420.599	19.182	790.795	606.290
421.613	152.412	1366.424	1782.196
422.628	131.774	1450.311	1782.306
