DTS Sentinel unit serial number:	SN413079Multiplexer serial number:	ORYXHardware model number:	OX4-SRSoftware version number:	ORYX F/W v4.00 Oryx Data Collector v3.7.2.0data status	okinstallation	princeton_trtdifferential loss correction	single-endedforward channel	channel 3reverse channel	N/Adate	2019/09/13time	08:12:35forward acquisition time	60.00reverse acquisition time	0.00gamma	496.2192k internal	0.2334k external	0.2334temperature offset calibration	1.0140default loss term (dB/km)	0.3790temperature slope calibration	1.0000multiplexer offset coefficient	1.0000multiplexer slope coefficient	1.0000fibre end	0.00T internal ref (°C)	27.12T ext. ref 1 (°C)	4.27T ext. ref 2 (°C)	23.10length (m)	temperature (°C)	Stokes	anti-Stokes-747.200	-200.000	0.003	0.029
-746.185	24.753	-0.244	0.203
-745.171	-74.966	0.086	-0.031
-744.156	38.051	0.164	0.146
-743.142	665.398	0.071	0.185
-742.127	-121.131	-0.124	-0.021
-741.112	-25.302	-0.086	0.051
-740.098	-200.000	-0.005	0.146
-739.083	-52.438	-0.164	0.076
-738.069	-113.832	-0.262	0.051
-737.054	750.793	-0.166	-0.450
-736.039	-23.488	-0.267	-0.161
-735.025	413.522	0.041	-0.087
-734.010	133.639	-0.127	-0.165
-732.996	-26.313	0.195	0.115
-731.981	-200.000	-0.024	-0.151
-730.966	744.016	-0.136	-0.368
-729.952	629.880	-0.055	0.140
-728.937	-200.000	0.021	0.345
-727.923	-200.000	-0.017	-0.172
-726.908	-130.343	-0.176	0.024
-725.894	-69.268	0.144	0.055
-724.879	-111.025	0.117	-0.024
-723.864	-200.000	-0.006	-0.113
-722.850	-97.628	-0.236	0.062
-721.835	154.685	-0.126	-0.174
-720.821	-84.561	0.318	-0.101
-719.806	75.291	-0.223	-0.236
-718.791	157.785	0.113	-0.157
-717.777	595.634	0.056	-0.140
-716.762	-40.952	-0.122	0.064
-715.748	710.902	0.040	0.107
-714.733	701.753	0.048	-0.127
-713.718	-88.408	-0.376	0.113
-712.704	62.283	0.182	-0.183
-711.689	206.074	-0.119	-0.186
-710.675	-82.174	0.158	-0.052
-709.660	-200.000	-0.000	0.263
-708.645	-137.768	0.210	-0.024
-707.631	-200.000	-0.072	0.441
-706.616	246.530	-0.063	-0.107
-705.602	-200.000	0.016	0.130
-704.587	-12.977	0.242	0.158
-703.572	-200.000	-0.040	0.353
-702.558	800.000	-0.063	0.185
-701.543	-200.000	-0.026	0.189
-700.529	800.000	0.079	0.290
-699.514	170.641	-0.079	0.114
-698.499	483.116	0.082	-0.188
-697.485	-142.111	-0.256	-0.026
-696.470	-52.634	-0.263	0.122
-695.456	-114.095	0.280	0.054
-694.441	213.208	0.055	0.088
-693.426	-122.674	0.074	0.012
-692.412	-200.000	-0.004	0.074
-691.397	-46.853	-0.192	0.094
-690.383	-92.432	-0.442	-0.125
-689.368	-95.802	0.081	-0.022
-688.354	246.662	0.120	0.204
-687.339	-146.581	-0.150	-0.013
-686.324	700.706	0.084	-0.223
-685.310	77.458	0.519	-0.553
-684.295	125.061	0.308	-0.389
-683.281	56.301	0.217	-0.211
-682.266	114.440	-0.192	0.235
-681.251	-200.000	-0.014	0.096
-680.237	64.233	0.038	0.039
-679.222	2.799	-0.260	0.189
-678.208	183.201	-0.082	0.122
-677.193	38.149	-0.078	0.069
-676.178	-200.000	0.001	0.076
-675.164	-200.000	0.017	0.093
-674.149	-142.223	0.268	0.027
-673.135	44.740	-0.116	-0.107
-672.120	130.352	0.050	-0.065
-671.105	-62.245	-0.126	-0.053
-670.091	-82.889	0.053	-0.017
-669.076	-17.051	-0.232	-0.147
-668.062	95.985	0.258	-0.295
-667.047	-200.000	-0.022	0.223
-666.032	-90.059	-0.087	0.025
-665.018	14.445	0.143	-0.112
-664.003	-21.102	0.167	-0.102
-662.989	-56.108	-0.248	-0.111
-661.974	800.000	0.139	0.399
-660.959	-200.000	-0.008	-0.413
-659.945	-200.000	0.003	0.022
-658.930	170.297	-0.201	-0.288
-657.916	-94.639	0.210	-0.057
-656.901	800.000	-0.095	-0.305
-655.886	-98.185	0.317	-0.082
-654.872	636.499	0.063	-0.160
-653.857	-164.334	-0.242	0.011
-652.843	16.762	0.241	0.191
-651.828	17.394	0.143	0.114
-650.814	199.899	0.138	-0.213
-649.799	-200.000	0.021	0.186
-648.784	19.334	-0.168	-0.135
-647.770	-161.971	-0.305	0.015
-646.755	-200.000	-0.007	0.152
-645.741	-200.000	0.005	0.232
-644.726	-43.755	-0.247	0.125
-643.711	767.334	0.017	-0.046
-642.697	31.302	0.052	0.044
-641.682	-133.983	-0.200	-0.025
-640.668	-121.448	0.282	0.047
-639.653	-200.000	0.039	0.535
-638.638	250.964	-0.087	-0.149
-637.624	-23.873	-0.280	-0.168
-636.609	800.000	0.014	-0.038
-635.595	151.419	0.048	0.065
-634.580	25.591	-0.115	-0.096
-633.565	15.230	-0.311	0.244
-632.551	358.023	0.097	0.194
-631.536	-63.797	0.185	-0.076
-630.522	-200.000	-0.001	-0.067
-629.507	123.437	-0.097	-0.121
-628.492	161.737	-0.309	-0.433
-627.478	-200.000	0.045	-0.201
-626.463	-115.505	-0.258	0.049
-625.449	598.174	-0.072	0.179
-624.434	-109.850	0.112	0.024
-623.419	800.000	-0.061	-0.232
-622.405	-106.162	-0.174	0.039
-621.390	639.357	0.105	-0.268
-620.376	-25.894	0.396	0.233
-619.361	800.000	-0.016	0.047
-618.346	-35.371	-0.098	-0.053
-617.332	-132.595	-0.153	-0.020
-616.317	-200.000	-0.010	-0.099
-615.303	-118.085	0.076	-0.014
-614.288	-18.221	-0.169	0.105
-613.273	70.545	0.080	0.083
-612.259	48.761	-0.189	-0.178
-611.244	192.771	-0.142	0.215
-610.230	53.927	-0.028	0.027
-609.215	-200.000	-0.039	-0.171
-608.201	412.555	-0.253	-0.538
-607.186	213.585	-0.169	-0.267
-606.171	-97.229	0.258	0.067
-605.157	800.000	0.040	-0.149
-604.142	-32.453	0.104	0.058
-603.128	-200.000	0.013	0.078
-602.113	-22.252	0.317	-0.192
-601.098	327.814	-0.123	0.235
-600.084	-34.899	0.284	-0.155
-599.069	205.229	0.047	-0.074
-598.055	-136.038	-0.296	0.035
-597.040	-93.466	-0.265	-0.073
-596.025	-125.675	-0.176	0.027
-595.011	36.415	-0.108	-0.095
-593.996	109.178	-0.269	0.321
-592.982	-94.171	-0.139	0.038
-591.967	-200.000	0.001	0.101
-590.952	10.651	-0.174	0.132
-589.938	528.404	0.212	0.499
-588.923	800.000	0.081	0.225
-587.909	-200.000	0.045	0.336
-586.894	-65.573	-0.279	0.112
-585.879	-109.674	0.175	-0.037
-584.865	-200.000	0.007	-0.053
-583.850	708.230	0.042	-0.112
-582.836	-87.151	-0.106	0.032
-581.821	124.537	-0.342	-0.429
-580.806	20.560	0.036	0.029
-579.792	118.329	0.164	0.202
-578.777	217.552	0.114	0.182
-577.763	-145.329	-0.158	0.014
-576.748	36.250	-0.201	-0.177
-575.733	-155.872	0.231	0.015
-574.719	350.562	0.100	0.198
-573.704	171.284	0.022	-0.031
-572.690	99.624	-0.085	0.099
-571.675	11.813	-0.421	-0.323
-570.661	-77.087	0.202	-0.070
-569.646	-110.017	0.030	-0.006
-568.631	168.146	0.226	-0.320
-567.617	86.371	-0.325	0.358
-566.602	350.155	0.050	-0.099
-565.588	-13.951	0.139	0.090
-564.573	-55.850	-0.238	-0.106
-563.558	648.271	0.059	0.150
-562.544	-160.404	0.017	0.001
-561.529	-191.668	0.148	0.001
-560.515	-200.000	-0.057	0.374
-559.500	26.646	0.191	0.160
-558.485	468.193	0.017	-0.039
-557.471	-186.431	0.331	0.005
-556.456	96.023	0.231	0.264
-555.442	-129.041	0.342	-0.048
-554.427	85.083	0.132	-0.144
-553.412	-200.000	0.044	-0.317
-552.398	-67.125	-0.334	0.131
-551.383	-32.193	0.081	0.045
-550.369	55.023	-0.071	0.068
-549.354	-200.000	0.006	0.232
-548.339	146.894	0.175	0.234
-547.325	-65.284	0.113	0.045
-546.310	150.230	0.173	-0.234
-545.296	-190.916	-0.115	-0.001
-544.281	-5.453	-0.235	0.161
-543.266	293.308	0.077	0.140
-542.252	-156.616	-0.302	-0.019
-541.237	-11.403	-0.209	0.137
-540.223	-108.265	0.367	0.079
-539.208	-17.466	-0.326	0.204
-538.193	-200.000	-0.033	0.161
-537.179	-173.044	-0.083	-0.003
-536.164	-110.405	-0.284	-0.059
-535.150	-112.783	0.115	-0.023
-534.135	-200.000	0.042	0.263
-533.121	-90.762	-0.409	-0.118
-532.106	-200.000	-0.003	-0.028
-531.091	-156.340	0.193	-0.012
-530.077	42.269	0.361	-0.327
-529.062	-77.210	-0.156	-0.054
-528.048	-200.000	0.004	-0.190
-527.033	-92.175	0.174	0.049
-526.018	-30.695	0.133	-0.075
-525.004	-129.504	-0.181	-0.025
-523.989	170.772	-0.159	-0.228
-522.975	-16.900	0.157	0.099
-521.960	-45.226	-0.094	-0.046
-520.945	17.843	-0.406	-0.322
-519.931	69.662	-0.198	0.204
-518.916	586.268	-0.153	0.375
-517.902	-200.000	-0.058	0.326
-516.887	-200.000	0.042	-0.384
-515.872	-200.000	0.092	-0.532
-514.858	800.000	0.027	0.087
-513.843	-40.346	0.250	-0.130
-512.829	-72.405	0.245	-0.090
-511.814	385.367	0.123	-0.252
-510.799	334.960	0.100	0.194
-509.785	-110.999	0.211	-0.043
-508.770	-165.465	-0.351	0.015
-507.756	-200.000	0.004	-0.167
-506.741	184.606	0.058	-0.085
-505.726	800.000	0.077	-0.328
-504.712	-151.003	0.204	-0.015
-503.697	-5.525	-0.399	0.273
-502.683	162.798	-0.321	0.449
-501.668	77.735	0.241	-0.256
-500.653	-77.038	0.327	0.114
-499.639	-148.920	-0.113	-0.009
-498.624	-15.624	0.320	-0.203
-497.610	-200.000	0.038	0.292
-496.595	634.281	-0.083	0.209
-495.581	-124.385	0.177	0.027
-494.566	-94.516	-0.156	0.042
-493.551	-200.000	0.033	-0.541
-492.537	-17.170	0.053	-0.033
-491.522	-8.073	-0.231	0.155
-490.508	-81.775	0.339	0.111
-489.493	800.000	0.096	-0.330
-488.478	-200.000	0.050	0.244
-487.464	402.990	-0.141	-0.295
-486.449	103.746	0.333	-0.389
-485.435	-200.000	0.027	0.150
-484.420	-200.000	-0.057	0.263
-483.405	130.566	-0.152	-0.194
-482.391	-103.041	-0.321	0.076
-481.376	800.000	-0.042	0.154
-480.362	-200.000	-0.061	0.267
-479.347	-155.644	0.156	0.010
-478.332	26.326	0.134	0.111
-477.318	-97.652	-0.125	0.032
-476.303	800.000	-0.015	-0.058
-475.289	-200.000	0.010	0.231
-474.274	10.604	0.164	0.125
-473.259	-107.341	-0.052	-0.011
-472.245	360.809	0.103	0.205
-471.230	-200.000	0.060	0.294
-470.216	-41.104	0.293	0.150
-469.201	800.000	0.087	-0.264
-468.186	-191.902	-0.044	0.000
-467.172	24.706	0.235	0.194
-466.157	306.082	-0.073	0.135
-465.143	-95.404	0.235	0.063
-464.128	-70.649	0.300	0.113
-463.113	-16.111	-0.075	-0.047
-462.099	214.920	0.112	0.177
-461.084	91.255	0.176	0.196
-460.070	253.257	-0.033	-0.055
-459.055	-40.265	-0.219	-0.113
-458.040	-200.000	-0.019	0.306
-457.026	12.581	-0.304	0.233
-456.011	800.000	-0.045	0.176
-454.997	-200.000	-0.004	0.107
-453.982	-26.550	-0.140	-0.081
-452.968	800.000	-0.078	0.293
-451.953	148.787	0.160	0.214
-450.938	708.378	0.112	-0.294
-449.924	800.000	0.067	-0.236
-448.909	800.000	-0.025	0.093
-447.895	-97.912	0.308	-0.079
-446.880	-13.168	0.115	0.074
-445.865	-53.721	-0.216	-0.098
-444.851	-179.316	0.337	0.007
-443.836	800.000	-0.075	-0.296
-442.822	25.519	0.307	0.253
-441.807	-77.555	-0.159	0.055
-440.792	266.903	0.194	-0.337
-439.778	-1.925	0.185	-0.129
-438.763	-88.149	-0.259	-0.077
-437.749	-124.741	-0.117	-0.018
-436.734	-200.000	-0.000	-0.140
-435.719	-47.147	-0.132	-0.064
-434.705	316.628	0.087	0.164
-433.690	800.000	-0.103	0.342
-432.676	74.319	0.056	-0.059
-431.661	800.000	0.076	-0.228
-430.646	-200.000	-0.030	-0.275
-429.632	800.000	0.098	-0.306
-428.617	387.052	-0.081	-0.167
-427.603	36.591	-0.192	-0.169
-426.588	-143.649	0.250	0.024
-425.573	-200.000	0.025	0.165
-424.559	787.632	-0.101	0.275
-423.544	-200.000	0.040	0.193
-422.530	-61.207	0.081	-0.034
-421.515	10.751	-0.084	-0.064
-420.500	-89.456	0.227	-0.066
-419.486	800.000	0.040	-0.119
-418.471	437.777	-0.020	0.043
-417.457	-138.111	0.147	-0.016
-416.442	314.536	-0.098	0.184
-415.428	61.829	0.174	-0.172
-414.413	-200.000	0.005	0.125
-413.398	-36.589	-0.184	0.098
-412.384	50.705	-0.101	-0.095
-411.369	-200.000	-0.016	0.080
-410.355	342.625	-0.130	-0.252
-409.340	-58.233	0.325	-0.141
-408.325	-93.487	-0.392	0.108
-407.311	-200.000	0.005	0.175
-406.296	-131.961	0.078	0.010
-405.282	-200.000	0.000	0.097
-404.267	-200.000	0.036	0.299
-403.252	-123.031	-0.101	-0.016
-402.238	800.000	0.053	-0.161
-401.223	-130.956	0.277	0.037
-400.209	-119.498	0.132	0.023
-399.194	50.298	-0.319	0.299
-398.179	-107.701	0.354	-0.077
-397.165	-70.742	-0.274	-0.103
-396.150	-108.866	0.253	-0.054
-395.136	-140.729	-0.042	-0.004
-394.121	-122.630	-0.194	-0.031
-393.106	-5.065	-0.087	-0.060
-392.092	800.000	0.115	0.341
-391.077	37.810	0.144	-0.127
-390.063	-200.000	0.034	-0.253
-389.048	-200.000	0.008	-0.273
-388.033	-200.000	0.026	-0.273
-387.019	-130.621	0.180	0.024
-386.004	1.630	0.069	0.049
-384.990	90.893	0.062	-0.069
-383.975	65.376	0.137	-0.138
-382.960	257.011	-0.046	0.079
-381.946	-43.305	-0.032	0.016
-380.931	-47.614	0.197	-0.095
-379.917	-39.821	0.279	0.144
-378.902	758.386	-0.064	-0.171
-377.888	-91.722	-0.179	-0.050
-376.873	-5.711	-0.399	-0.271
-375.858	-95.122	0.343	-0.092
-374.844	49.105	0.192	-0.179
-373.829	-200.000	-0.024	-0.431
-372.815	-100.615	0.050	0.012
-371.800	-153.036	-0.209	0.015
-370.785	97.562	0.244	-0.278
-369.771	362.875	-0.120	-0.239
-368.756	-134.956	-0.315	-0.038
-367.742	-4.016	0.324	-0.223
-366.727	-167.912	-0.450	0.017
-365.712	39.717	-0.227	0.201
-364.698	-8.591	-0.067	-0.044
-363.683	455.964	-0.063	-0.138
-362.669	-137.445	0.170	-0.019
-361.654	-41.461	0.135	-0.069
-360.639	-188.485	0.167	0.002
-359.625	-79.961	-0.082	-0.027
-358.610	-200.000	0.004	0.076
-357.596	-200.000	0.020	0.249
-356.581	800.000	-0.057	0.204
-355.566	-104.052	0.118	0.027
-354.552	224.838	-0.131	0.210
-353.537	-200.000	0.025	0.379
-352.523	-200.000	-0.027	-0.121
-351.508	463.261	-0.035	-0.077
-350.493	-38.314	-0.394	0.207
-349.479	-200.000	-0.023	0.234
-348.464	-151.416	-0.208	-0.015
-347.450	131.546	0.073	-0.093
-346.435	-10.969	0.273	0.179
-345.420	-123.100	0.357	-0.057
-344.406	-87.304	-0.171	0.051
-343.391	800.000	-0.017	0.060
-342.377	-200.000	-0.020	0.172
-341.362	212.082	-0.203	0.316
-340.348	783.137	-0.088	0.239
-339.333	305.770	-0.140	0.257
-338.318	-76.626	-0.217	-0.075
-337.304	-200.000	-0.013	0.110
-336.289	-87.507	0.160	-0.048
-335.275	-200.000	0.000	0.107
-334.260	127.913	0.068	0.086
-333.245	-200.000	0.012	0.317
-332.231	-27.838	0.047	-0.027
-331.216	-200.000	0.019	0.159
-330.202	-45.954	-0.104	-0.051
-329.187	-97.309	0.183	0.047
-328.172	-78.247	-0.236	0.080
-327.158	33.419	-0.094	-0.081
-326.143	463.805	-0.230	0.509
-325.129	245.292	0.080	-0.133
-324.114	0.140	0.155	0.109
-323.099	39.238	0.100	0.088
-322.085	-80.402	-0.121	-0.040
-321.070	-152.469	-0.268	-0.019
-320.056	81.407	0.338	-0.361
-319.041	-82.433	0.116	-0.037
-318.026	-124.843	0.251	-0.038
-317.012	-200.000	-0.118	-0.000
-315.997	-125.833	0.260	0.039
-314.983	37.532	0.102	-0.089
-313.968	-85.587	-0.106	-0.033
-312.953	125.576	-0.164	-0.205
-311.939	101.789	-0.251	-0.290
-310.924	-200.000	0.007	-0.108
-309.910	-200.000	0.067	-0.465
-308.895	-31.540	0.277	-0.154
-307.880	800.000	-0.048	-0.186
-306.866	800.000	0.083	-0.340
-305.851	-200.000	0.014	-0.322
-304.837	-53.826	0.109	-0.049
-303.822	-43.178	0.219	0.110
-302.807	-79.377	0.411	-0.137
-301.793	-200.000	0.080	-0.496
-300.778	-92.466	-0.373	-0.104
-299.764	-200.000	0.032	-0.187
-298.749	68.468	-0.113	-0.114
-297.735	-9.226	-0.039	0.026
-296.720	-130.956	0.323	0.043
-295.705	28.939	0.232	0.195
-294.691	265.581	0.195	-0.337
-293.676	252.558	-0.082	0.137
-292.662	-119.340	0.193	0.033
-291.647	511.016	-0.057	-0.131
-290.632	-147.761	-0.524	-0.043
-289.618	667.372	0.080	-0.204
-288.603	-65.929	0.062	0.024
-287.589	-200.000	0.038	-0.217
-286.574	334.339	-0.179	-0.342
-285.559	-137.427	0.134	0.015
-284.545	-191.799	-0.230	-0.002
-283.530	345.287	0.061	-0.119
-282.516	-200.000	0.010	0.140
-281.501	-164.371	-0.216	0.010
-280.486	800.000	0.035	0.144
-279.472	541.658	0.043	-0.102
-278.457	800.000	0.035	0.150
-277.443	-62.232	0.409	0.168
-276.428	-61.472	-0.173	0.072
-275.413	137.354	-0.110	-0.141
-274.399	-200.000	0.004	-0.133
-273.384	-32.760	-0.183	0.101
-272.370	249.068	-0.097	0.162
-271.355	-200.000	-0.009	0.169
-270.340	-200.000	0.031	0.165
-269.326	800.000	0.106	0.373
-268.311	-200.000	-0.024	0.128
-267.297	-200.000	0.066	0.291
-266.282	71.407	-0.066	0.067
-265.267	796.496	-0.081	-0.220
-264.253	-7.750	0.035	0.024
-263.238	-55.087	-0.244	-0.108
-262.224	800.000	0.024	-0.066
-261.209	69.106	-0.158	-0.161
-260.195	4.985	-0.201	-0.146
-259.180	-200.000	0.000	-0.081
-258.165	195.395	-0.111	0.166
-257.151	-200.000	0.047	-0.256
-256.136	-200.000	0.120	-0.000
-255.122	-25.622	-0.052	0.030
-254.107	376.759	0.087	-0.174
-253.092	-200.000	0.002	0.093
-252.078	313.513	0.176	-0.327
-251.063	-56.713	-0.132	0.058
-250.049	356.141	-0.169	-0.333
-249.034	-200.000	-0.028	0.297
-248.019	-43.784	-0.132	-0.066
-247.005	97.309	0.095	-0.108
-245.990	357.781	0.055	-0.108
-244.976	-127.368	-0.133	-0.019
-243.961	-200.000	0.008	-0.085
-242.946	-186.708	-0.234	0.003
-241.932	-23.815	-0.189	0.111
-240.917	155.610	0.064	0.086
-239.903	83.000	0.168	0.180
-238.888	54.271	0.204	0.194
-237.873	-129.320	-0.107	-0.015
-236.859	-97.432	0.467	-0.120
-235.844	-23.767	-0.251	-0.148
-234.830	-71.567	0.110	-0.041
-233.815	800.000	0.044	-0.163
-232.800	-37.245	-0.336	0.177
-231.786	178.409	0.135	0.194
-230.771	-200.000	0.006	-0.078
-229.757	-71.535	-0.162	0.060
-228.742	361.812	0.075	-0.147
-227.727	3.785	-0.156	0.112
-226.713	1.951	-0.246	0.175
-225.698	206.633	0.061	0.094
-224.684	-72.023	0.216	-0.079
-223.669	412.253	-0.107	-0.223
-222.655	-173.727	-0.273	0.008
-221.640	752.579	0.079	-0.210
-220.625	40.816	0.247	0.219
-219.611	-90.354	-0.132	-0.038
-218.596	800.000	0.084	-0.284
-217.582	-73.060	0.261	-0.094
-216.567	-142.664	0.108	-0.010
-215.552	3.351	-0.023	0.016
-214.538	51.809	0.110	0.103
-213.523	-200.000	-0.038	0.431
-212.509	-200.000	-0.011	-0.145
-211.494	-20.771	-0.208	-0.126
-210.479	-103.668	-0.160	0.037
-209.465	-117.592	0.109	0.019
-208.450	-20.737	-0.193	0.117
-207.436	-118.793	0.322	0.056
-206.421	800.000	-0.102	0.369
-205.406	-200.000	0.016	0.161
-204.392	21.031	-0.277	-0.221
-203.377	120.932	-0.056	0.069
-202.363	-139.768	0.173	0.018
-201.348	209.136	-0.163	0.250
-200.333	28.923	-0.179	-0.149
-199.319	451.475	0.058	-0.126
-198.304	218.769	0.067	-0.105
-197.290	522.962	-0.238	0.551
-196.275	-49.623	0.342	-0.160
-195.260	-43.336	-0.251	0.125
-194.246	-200.000	0.037	-0.367
-193.231	800.000	0.081	-0.231
-192.217	-200.000	0.042	-0.337
-191.202	-151.927	0.196	-0.014
-190.187	4.328	0.058	0.042
-189.173	-200.000	-0.004	0.129
-188.158	-134.874	-0.014	0.002
-187.144	-200.000	0.003	0.081
-186.129	-90.200	-0.277	-0.079
-185.114	-116.174	0.362	-0.066
-184.100	176.310	0.179	-0.256
-183.085	600.472	0.102	-0.250
-182.071	543.111	-0.068	-0.161
-181.056	-194.504	0.171	-0.001
-180.042	-34.974	-0.336	0.180
-179.027	-106.273	-0.271	0.060
-178.012	-86.695	-0.104	-0.031
-176.998	800.000	0.066	0.264
-175.983	72.960	0.101	-0.104
-174.969	-104.743	-0.314	0.071
-173.954	800.000	0.119	0.361
-172.939	-200.000	0.011	0.060
-171.925	-159.957	0.097	-0.005
-170.910	-122.595	0.160	-0.026
-169.896	800.000	0.044	-0.122
-168.881	474.105	0.012	0.026
-167.866	-200.000	0.002	-0.025
-166.852	73.522	0.243	0.250
-165.837	-90.586	0.280	0.080
-164.823	97.445	-0.160	0.181
-163.808	-55.949	0.191	0.084
-162.793	518.543	-0.049	-0.113
-161.779	-102.843	-0.245	-0.057
-160.764	-84.812	0.086	0.027
-159.750	-53.295	0.104	-0.047
-158.735	16.117	-0.032	-0.025
-157.720	800.000	-0.014	0.040
-156.706	-200.000	-0.025	0.143
-155.691	-133.256	0.323	-0.040
-154.677	-200.000	0.031	-0.290
-153.662	-36.011	-0.279	0.148
-152.647	-56.154	0.178	-0.078
-151.633	105.585	-0.106	0.123
-150.618	800.000	-0.041	0.132
-149.604	-145.903	-0.353	-0.031
-148.589	208.068	-0.067	0.102
-147.574	292.775	-0.040	-0.072
-146.560	75.978	0.140	-0.146
-145.545	-14.100	0.429	-0.272
-144.531	-200.000	-0.002	-0.201
-143.516	598.876	-0.096	-0.235
-142.502	-54.482	-0.203	-0.090
-141.487	646.207	-0.160	-0.401
-140.472	621.415	0.072	0.177
-139.458	-174.012	-0.437	0.013
-138.443	163.757	0.077	0.106
-137.429	-100.915	-0.163	0.039
-136.414	-32.511	0.332	-0.182
-135.399	-174.491	-0.249	-0.007
-134.385	-13.292	0.197	-0.126
-133.370	800.000	-0.021	-0.066
-132.356	-69.821	-0.288	-0.108
-131.341	-200.000	0.023	-0.099
-130.326	421.730	-0.013	-0.027
-129.312	69.224	0.153	-0.154
-128.297	342.758	0.064	-0.123
-127.283	-153.338	0.202	-0.014
-126.268	53.980	-0.027	0.026
-125.253	47.122	0.499	0.456
-124.239	360.431	0.108	-0.213
-123.224	-200.000	0.034	0.301
-122.210	-200.000	-0.006	0.299
-121.195	800.000	0.092	0.264
-120.180	744.878	0.178	0.470
-119.166	649.868	0.059	0.147
-118.151	249.980	-0.133	-0.221
-117.137	34.621	0.374	-0.321
-116.122	253.592	0.117	0.195
-115.107	58.261	-0.113	0.109
-114.093	-35.004	0.244	0.130
-113.078	-200.000	0.065	-0.290
-112.064	-200.000	-0.017	0.131
-111.049	-172.399	-0.380	0.012
-110.034	-200.000	-0.016	0.235
-109.020	-95.431	-0.118	0.031
-108.005	-200.000	-0.013	-0.221
-106.991	71.358	-0.297	-0.302
-105.976	103.858	-0.263	0.303
-104.962	-108.824	0.150	-0.031
-103.947	-200.000	-0.011	0.114
-102.932	-200.000	-0.015	0.404
-101.918	-200.000	-0.008	0.128
-100.903	-8.860	0.141	0.093
-99.889	53.633	0.214	0.201
-98.874	-200.000	-0.014	0.202
-97.859	-200.000	0.046	0.223
-96.845	216.395	-0.084	-0.132
-95.830	-57.865	0.195	0.084
-94.816	-200.000	0.032	0.344
-93.801	-61.865	-0.287	-0.118
-92.786	-200.000	0.024	0.211
-91.772	62.097	0.192	0.188
-90.757	-67.686	-0.114	0.044
-89.743	489.714	-0.087	-0.196
-88.728	-162.781	-0.220	0.011
-87.713	299.774	0.194	-0.351
-86.699	-95.118	0.260	0.069
-85.684	-90.099	-0.111	0.032
-84.670	117.352	-0.340	-0.410
-83.655	-88.224	0.271	0.080
-82.640	214.927	-0.126	-0.195
-81.626	-200.000	0.066	-0.331
-80.611	-159.027	0.182	-0.010
-79.597	-115.006	0.301	0.056
-78.582	45.243	0.079	-0.071
-77.567	800.000	0.080	-0.222
-76.553	-114.546	0.256	-0.048
-75.538	-132.973	0.088	-0.011
-74.524	128.537	0.041	-0.051
-73.509	-111.734	0.400	0.079
-72.494	60.751	-0.254	0.247
-71.480	295.502	-0.054	0.097
-70.465	24.130	0.079	0.064
-69.451	-45.712	0.295	-0.143
-68.436	781.838	0.132	0.354
-67.422	-200.000	0.262	-0.001
-66.407	264.435	-0.131	-0.223
-65.392	158.599	-0.040	-0.054
-64.378	-154.621	0.305	-0.020
-63.363	1.860	0.172	0.121
-62.349	414.730	-0.138	-0.288
-61.334	44.010	-1.014	-0.910
-60.319	-18.073	0.655	0.402
-59.305	800.000	-0.277	-0.852
-58.290	705.876	0.450	1.161
-57.276	550.114	0.489	1.148
-56.261	-200.000	115.120	654.904
-55.246	537.024	1529.575	3554.028
-54.232	176.489	2701.337	3840.829
-53.217	107.340	2185.119	2542.151
-52.203	37.779	1706.526	1482.887
-51.188	30.158	1523.640	1271.880
-50.173	28.015	1498.382	1236.271
-49.159	52.066	1557.517	1451.527
-48.144	50.492	1572.719	1454.804
-47.130	30.501	1528.318	1277.941
-46.115	27.414	1513.100	1244.112
-45.100	27.204	1510.233	1240.272
-44.086	27.236	1508.118	1238.698
-43.071	27.231	1506.146	1237.001
-42.057	27.147	1504.414	1234.955
-41.042	27.020	1503.721	1233.479
-40.027	27.004	1502.372	1232.215
-39.013	27.089	1500.184	1230.944
-37.998	27.024	1499.357	1229.776
-36.984	27.079	1498.328	1229.256
-35.969	27.149	1496.426	1228.118
-34.954	27.062	1495.005	1226.318
-33.940	27.049	1493.936	1225.302
-32.925	27.234	1491.628	1224.609
-31.911	27.108	1490.938	1223.146
-30.896	27.135	1489.734	1222.293
-29.881	27.219	1488.590	1221.870
-28.867	27.178	1487.075	1220.304
-27.852	27.252	1486.019	1219.879
-26.838	27.133	1484.586	1217.861
-25.823	27.118	1483.232	1216.601
-24.809	27.135	1481.503	1215.250
-23.794	27.149	1480.006	1214.066
-22.779	26.989	1479.134	1212.234
-21.765	27.221	1477.572	1212.454
-20.750	27.155	1477.209	1211.664
-19.736	27.216	1475.810	1210.877
-18.721	27.162	1475.051	1209.850
-17.706	27.154	1473.458	1208.436
-16.692	27.169	1472.698	1207.867
-15.677	27.203	1471.228	1206.838
-14.663	27.141	1470.792	1206.020
-13.648	27.087	1470.044	1205.005
-12.633	27.179	1469.168	1204.847
-11.619	27.104	1468.588	1203.829
-10.604	27.069	1467.174	1202.387
-9.590	27.119	1466.537	1202.151
-8.575	27.134	1465.041	1200.972
-7.560	27.116	1464.262	1200.167
-6.546	27.107	1463.693	1199.593
-5.531	27.052	1462.825	1198.473
-4.517	27.016	1462.167	1197.652
-3.502	27.080	1460.929	1197.009
-2.487	27.130	1459.575	1196.181
-1.473	27.175	1458.568	1195.602
-0.458	27.070	1457.791	1194.232
0.556	29.087	1447.568	1184.180
1.571	26.101	1423.226	1145.248
2.586	22.803	1362.828	1076.470
3.600	21.034	1279.137	1000.144
4.615	19.673	1233.681	956.981
5.629	17.087	1176.481	898.855
6.644	10.402	1094.121	802.836
7.659	5.165	1057.367	750.669
8.673	4.509	1051.721	743.456
9.688	4.285	1048.618	740.130
10.702	4.044	1046.974	737.755
11.717	4.232	1044.729	737.002
12.731	6.781	1046.685	750.440
13.746	13.816	1056.975	791.406
14.761	20.190	1064.491	827.478
15.775	22.230	1066.265	838.524
16.790	21.690	1065.538	835.305
17.804	20.783	1063.253	829.120
18.819	19.970	1061.568	823.866
19.834	19.609	1060.051	820.900
20.848	19.450	1059.412	819.580
21.863	19.509	1059.057	819.512
22.877	19.317	1058.473	818.076
23.892	19.108	1057.823	816.509
24.907	19.109	1056.671	815.552
25.921	18.946	1056.069	814.246
26.936	18.935	1055.639	813.788
27.950	18.962	1054.068	812.634
28.965	18.963	1053.320	811.992
29.980	19.013	1052.132	811.239
30.994	19.121	1051.272	811.012
32.009	19.443	1050.134	811.579
33.023	19.445	1049.266	810.846
34.038	19.432	1048.554	810.162
35.053	19.271	1047.797	808.750
36.067	19.157	1046.842	807.405
37.082	19.209	1045.515	806.552
38.096	19.087	1045.035	805.541
39.111	19.139	1044.360	805.192
40.126	19.276	1043.487	805.088
41.140	19.208	1042.077	803.611
42.155	19.043	1040.829	801.810
43.169	18.647	1039.978	799.240
44.184	18.654	1038.881	798.361
45.199	18.648	1037.528	797.218
46.213	18.700	1036.685	796.742
47.228	18.780	1036.739	797.083
48.242	18.935	1035.486	796.771
49.257	19.236	1034.427	797.275
50.271	19.090	1033.650	795.933
51.286	19.108	1033.027	795.467
52.301	19.190	1032.414	795.303
53.315	19.193	1031.701	794.697
54.330	19.041	1031.015	793.397
55.344	18.993	1029.915	792.258
56.359	18.876	1028.953	790.910
57.374	18.830	1027.954	789.863
58.388	18.851	1027.102	789.234
59.403	18.770	1026.211	788.107
60.417	18.618	1025.464	786.765
61.432	18.768	1024.385	786.557
62.447	18.551	1024.352	785.469
63.461	18.469	1023.796	784.597
64.476	18.458	1022.307	783.337
65.490	18.473	1021.445	782.675
66.505	18.492	1020.243	781.770
67.520	18.516	1020.056	781.670
68.534	18.469	1019.756	781.153
69.549	18.673	1017.880	780.576
70.563	18.535	1017.273	779.414
71.578	18.518	1016.560	778.723
72.593	18.341	1016.061	777.469
73.607	18.261	1014.345	775.725
74.622	18.255	1013.692	775.130
75.636	18.226	1012.859	774.291
76.651	18.270	1012.817	774.390
77.666	18.332	1011.740	773.776
78.680	18.435	1010.723	773.396
79.695	18.363	1010.709	772.993
80.709	18.521	1009.633	772.815
81.724	18.559	1009.260	772.629
82.739	18.692	1008.714	772.744
83.753	18.727	1007.521	771.916
84.768	18.980	1007.114	772.676
85.782	19.242	1006.637	773.419
86.797	19.498	1006.176	774.143
87.812	19.381	1005.174	772.779
88.826	19.154	1004.075	770.847
89.841	19.219	1003.064	770.297
90.855	19.277	1002.342	769.932
91.870	19.398	1001.740	769.944
92.884	19.471	1001.321	769.879
93.899	19.367	1000.609	768.799
94.914	19.531	999.427	768.555
95.928	19.496	998.931	767.949
96.943	19.472	998.287	767.278
97.957	19.353	997.570	766.130
98.972	19.384	996.074	765.052
99.987	19.277	995.254	763.880
101.001	19.457	994.304	763.878
102.016	19.319	993.859	762.858
103.030	19.253	993.209	762.001
104.045	19.348	992.261	761.627
105.060	19.364	991.397	760.964
106.074	19.267	990.170	759.530
107.089	19.079	988.913	757.671
108.103	18.637	988.551	755.378
109.118	18.580	987.227	754.052
110.133	18.617	985.948	753.170
111.147	18.576	985.373	752.486
112.162	18.519	984.022	751.135
113.176	18.483	983.739	750.696
114.191	18.640	982.813	750.610
115.206	18.919	981.913	751.076
116.220	18.699	981.269	749.555
117.235	18.720	979.837	748.487
118.249	18.671	979.398	747.874
119.264	18.619	978.303	746.744
120.279	18.575	977.205	745.647
121.293	18.601	976.327	745.026
122.308	18.438	976.162	744.124
123.322	18.301	974.809	742.433
124.337	18.264	974.058	741.634
125.352	18.269	972.907	740.713
126.366	18.098	972.048	739.259
127.381	18.308	970.987	739.293
128.395	18.244	969.903	738.127
129.410	18.255	969.419	737.738
130.424	18.316	968.267	737.060
131.439	18.284	967.729	736.448
132.454	18.473	967.010	736.648
133.468	18.785	965.738	736.951
134.483	18.688	965.497	736.286
135.497	18.644	964.996	735.652
136.512	18.705	964.379	735.378
137.527	18.750	963.492	734.828
138.541	18.733	962.785	734.151
139.556	18.696	962.268	733.534
140.570	18.829	961.252	733.261
141.585	18.944	961.270	733.701
142.600	19.108	960.557	733.791
143.614	19.257	959.373	733.455
144.629	19.408	958.649	733.482
145.643	19.391	958.160	732.968
146.658	19.351	957.246	732.035
147.673	19.188	956.120	730.420
148.687	18.975	955.421	728.916
149.702	18.778	954.535	727.341
150.716	18.727	953.703	726.430
151.731	18.731	952.299	725.313
152.746	18.754	951.708	724.892
153.760	18.869	950.737	724.575
154.775	18.961	950.107	724.417
155.789	18.936	949.682	723.923
156.804	18.988	948.907	723.489
157.819	19.067	947.793	722.908
158.833	19.163	947.425	722.964
159.848	19.251	946.867	722.846
160.862	19.377	946.540	723.059
161.877	19.410	945.224	722.129
162.892	19.063	944.389	719.976
163.906	18.790	943.251	717.902
164.921	18.552	943.037	716.681
165.935	18.762	941.524	716.347
166.950	18.712	940.857	715.568
167.964	19.042	939.645	715.953
168.979	19.016	938.683	715.051
169.994	18.836	937.597	713.413
171.008	18.843	936.629	712.640
172.023	18.890	935.808	712.151
173.037	19.139	935.467	712.855
174.052	19.416	934.916	713.521
175.067	19.362	933.936	712.485
176.081	19.033	932.516	709.985
177.096	18.686	931.965	708.068
178.110	18.791	930.896	707.627
179.125	18.843	930.583	707.539
180.140	18.734	929.923	706.526
181.154	18.897	929.038	706.464
182.169	18.953	929.449	706.941
183.183	19.131	928.742	707.075
184.198	19.216	927.856	706.687
185.213	19.224	926.681	705.758
186.227	19.269	926.199	705.517
187.242	19.237	926.083	705.235
188.256	19.371	925.066	704.943
189.271	19.553	924.547	705.232
190.286	19.595	923.542	704.573
191.300	19.375	922.632	702.918
192.315	18.860	921.869	700.177
193.329	18.535	921.030	698.156
194.344	18.738	919.648	697.871
195.359	18.758	919.390	697.695
196.373	19.070	919.175	698.738
197.388	19.103	918.690	698.441
198.402	19.435	918.235	699.379
199.417	19.651	918.267	700.217
200.432	19.671	917.722	699.823
201.446	19.784	917.323	699.912
202.461	19.936	917.017	700.232
203.475	19.894	917.173	700.120
204.490	19.914	915.857	699.131
205.504	19.651	914.717	697.141
206.519	19.397	913.925	695.449
207.534	19.301	913.156	694.418
208.548	19.356	912.347	693.960
209.563	19.469	911.609	693.793
210.577	19.348	911.123	692.874
211.592	19.499	910.188	692.707
212.607	19.615	910.274	693.178
213.621	19.840	909.427	693.376
214.636	19.694	908.874	692.306
215.650	19.586	908.304	691.381
216.665	19.708	907.208	690.973
217.680	19.791	907.025	691.104
218.694	19.857	906.961	691.255
219.709	19.858	906.374	690.750
220.723	19.716	905.921	689.779
221.738	19.793	904.752	689.134
222.753	19.766	904.023	688.411
223.767	19.756	903.243	687.717
224.782	19.775	902.866	687.446
225.796	19.947	902.137	687.511
226.811	19.904	901.551	686.833
227.826	20.059	900.318	686.446
228.840	19.810	899.762	684.976
229.855	19.655	899.252	683.914
230.869	19.699	898.463	683.426
231.884	19.741	897.650	682.913
232.899	19.604	897.109	681.903
233.913	19.601	896.427	681.312
234.928	19.342	895.917	679.841
235.942	19.370	894.761	679.016
236.957	19.258	894.573	678.372
237.972	19.479	893.329	678.238
238.986	19.426	892.697	677.490
240.001	19.205	892.653	676.529
241.015	19.527	891.404	676.785
242.030	19.674	890.587	676.680
243.045	19.658	890.681	676.627
244.059	19.687	890.071	676.220
245.074	19.681	889.580	675.762
246.088	19.652	888.941	675.102
247.103	20.012	888.198	675.883
248.117	20.000	887.645	675.358
249.132	20.048	887.329	675.243
250.147	20.355	887.096	676.204
251.161	20.681	886.646	677.070
252.176	20.728	885.925	676.642
253.190	20.774	885.452	676.397
254.205	20.652	885.226	675.691
255.220	20.696	884.606	675.331
256.234	20.722	883.656	674.645
257.249	20.692	882.826	673.837
258.263	20.818	882.599	674.091
259.278	20.625	881.553	672.485
260.293	20.619	881.201	672.135
261.307	20.728	880.839	672.221
262.322	20.872	880.330	672.329
263.336	20.893	879.798	671.943
264.351	20.824	879.364	671.285
265.366	20.781	878.521	670.418
266.380	20.830	877.744	669.955
267.395	20.939	877.156	669.865
268.409	20.724	876.414	668.415
269.424	20.603	875.734	667.370
270.439	20.610	875.102	666.856
271.453	20.678	874.506	666.604
272.468	20.521	873.170	664.926
273.482	20.446	872.948	664.414
274.497	20.540	872.440	664.326
275.512	20.482	871.930	663.656
276.526	20.355	871.158	662.526
277.541	20.438	870.343	662.166
278.555	20.549	869.649	662.000
279.570	20.860	869.019	662.646
280.585	20.925	868.777	662.648
281.599	20.897	868.611	662.359
282.614	20.760	868.001	661.314
283.628	20.639	866.770	659.860
284.643	20.625	866.313	659.400
285.657	20.711	866.039	659.458
286.672	20.495	865.226	657.962
287.687	20.735	864.601	658.337
288.701	20.785	864.293	658.234
289.716	20.723	863.087	657.022
290.730	20.684	863.240	656.934
291.745	20.746	862.681	656.683
292.760	20.724	861.849	655.910
293.774	20.886	861.059	655.860
294.789	20.903	861.492	656.196
295.803	21.028	860.578	655.914
296.818	20.814	859.346	654.112
297.833	20.787	858.537	653.338
298.847	20.769	857.757	652.617
299.862	20.838	857.426	652.568
300.876	20.865	856.862	652.183
301.891	20.929	856.578	652.146
302.906	21.056	855.639	651.851
303.920	21.206	855.106	651.946
304.935	21.404	854.919	652.483
305.949	21.506	854.479	652.469
306.964	21.371	853.165	650.909
307.979	21.116	852.512	649.401
308.993	21.053	852.417	649.040
310.008	20.980	852.284	648.609
311.022	21.141	851.533	648.575
312.037	21.208	850.875	648.268
313.052	21.082	850.143	647.185
314.066	20.900	849.731	646.140
315.081	20.701	848.792	644.632
316.095	20.804	848.080	644.413
317.110	20.718	847.530	643.621
318.125	20.885	846.900	643.704
319.139	20.783	846.531	642.991
320.154	20.769	846.135	642.581
321.168	20.822	845.413	642.169
322.183	20.990	844.829	642.288
323.197	20.774	844.503	641.188
324.212	21.017	843.681	641.401
325.227	21.003	842.936	640.725
326.241	20.947	842.778	640.344
327.256	20.860	842.332	639.628
328.270	20.873	841.523	639.004
329.285	20.801	840.899	638.211
330.300	20.897	840.465	638.178
331.314	20.824	839.844	637.384
332.329	20.932	839.090	637.149
333.343	21.070	839.041	637.560
334.358	21.291	838.377	637.804
335.373	21.162	837.997	636.990
336.387	21.277	837.556	637.017
337.402	21.375	836.984	636.881
338.416	21.348	836.386	636.272
339.431	21.539	835.963	636.589
340.446	21.639	835.576	636.604
341.460	21.599	835.236	636.140
342.475	21.667	834.876	636.057
343.489	21.731	834.189	635.710
344.504	21.666	833.989	635.265
345.519	21.867	833.093	635.257
346.533	21.827	832.883	634.893
347.548	22.028	832.129	634.991
348.562	21.762	831.116	633.200
349.577	21.495	830.549	631.748
350.592	21.495	829.519	630.908
351.606	21.379	829.077	630.098
352.621	21.219	829.061	629.453
353.635	21.225	828.419	628.933
354.650	21.202	828.497	628.851
355.665	21.205	827.809	628.285
356.679	21.536	827.165	628.932
357.694	21.549	826.874	628.700
358.708	21.698	826.197	628.664
359.723	21.657	825.586	628.000
360.738	21.425	825.441	627.002
361.752	21.529	824.683	626.742
362.767	21.601	824.285	626.642
363.781	21.693	824.090	626.768
364.796	21.930	823.638	627.216
365.810	22.121	823.395	627.656
366.825	22.192	823.306	627.788
367.840	22.140	822.932	627.261
368.854	22.131	822.368	626.744
369.869	22.100	821.647	626.028
370.883	22.108	820.713	625.290
371.898	21.843	820.752	624.321
372.913	22.038	819.770	624.212
373.927	22.137	819.314	624.159
374.942	22.099	818.717	623.515
375.956	22.034	818.125	622.779
376.971	22.134	817.637	622.707
377.986	22.215	817.087	622.520
379.000	22.335	816.774	622.651
380.015	22.350	816.128	622.156
381.029	22.332	815.810	621.796
382.044	22.331	814.780	620.953
383.059	22.461	813.966	620.734
384.073	22.384	813.546	620.089
385.088	22.311	813.245	619.546
386.102	22.150	812.344	618.239
387.117	22.045	811.588	617.239
388.132	22.077	811.239	617.034
389.146	22.000	810.512	616.157
390.161	21.869	810.473	615.613
391.175	22.150	810.172	616.315
392.190	22.266	810.121	616.625
393.205	22.259	809.561	616.123
394.219	22.002	808.979	614.725
395.234	21.993	808.297	614.119
396.248	21.840	807.865	613.202
397.263	21.868	807.229	612.762
398.278	21.713	806.742	611.798
399.292	21.757	805.773	611.163
400.307	21.700	805.483	610.692
401.321	21.619	805.308	610.222
402.336	21.789	805.437	610.857
403.350	21.863	804.725	610.521
404.365	21.952	804.308	610.461
405.380	22.062	804.086	610.620
406.394	22.303	803.331	610.829
407.409	22.444	803.093	611.086
408.423	22.497	802.959	611.114
409.438	22.556	802.396	610.835
410.453	22.749	801.577	610.824
411.467	22.747	801.750	610.894
412.482	22.814	800.750	610.309
413.496	22.794	800.793	610.222
414.511	22.694	800.620	609.690
415.526	22.751	799.923	609.302
416.540	22.862	799.557	609.353
417.555	22.762	799.150	608.644
418.569	22.691	798.740	608.031
419.584	22.788	797.820	607.612
420.599	22.723	797.615	607.178
421.613	164.379	1370.063	1794.917
422.628	142.766	1453.415	1794.982
