DTS Sentinel unit serial number:	SN413079Multiplexer serial number:	ORYXHardware model number:	OX4-SRSoftware version number:	ORYX F/W v4.00 Oryx Data Collector v3.7.2.0data status	okinstallation	princeton_trtdifferential loss correction	single-endedforward channel	channel 3reverse channel	N/Adate	2019/09/12time	19:03:03forward acquisition time	15.00reverse acquisition time	0.00gamma	496.2192k internal	0.2319k external	0.2319temperature offset calibration	1.0090default loss term (dB/km)	0.3790temperature slope calibration	1.0000multiplexer offset coefficient	1.0000multiplexer slope coefficient	1.0000fibre end	0.00T internal ref (°C)	32.69T ext. ref 1 (°C)	3.02T ext. ref 2 (°C)	27.28length (m)	temperature (°C)	Stokes	anti-Stokes-747.200	1.526	-0.426	-0.310
-746.185	-61.434	-0.837	0.356
-745.171	800.000	0.089	-0.377
-744.156	360.054	0.360	-0.730
-743.142	582.737	0.209	0.520
-742.127	800.000	0.130	-0.511
-741.112	217.906	0.162	-0.261
-740.098	11.259	-0.239	0.185
-739.083	-14.912	-0.726	-0.471
-738.069	-24.523	0.387	-0.233
-737.054	-91.236	-0.316	0.091
-736.039	-109.375	0.261	0.056
-735.025	28.857	0.441	-0.378
-734.010	144.585	-0.080	0.108
-732.996	531.902	-0.203	-0.485
-731.981	140.577	-0.055	-0.074
-730.966	32.820	0.235	-0.205
-729.952	169.341	-0.486	-0.701
-728.937	-132.166	0.135	0.018
-727.923	594.634	-0.062	-0.156
-726.908	-14.430	-0.528	0.344
-725.894	800.000	0.190	0.575
-724.879	-13.216	-0.448	-0.294
-723.864	301.905	0.294	-0.549
-722.850	107.965	-0.153	-0.184
-721.835	-61.383	-0.114	-0.048
-720.821	286.397	-0.524	-0.956
-719.806	800.000	0.192	0.639
-718.791	58.297	-0.167	0.166
-717.777	-200.000	-0.036	0.163
-716.762	-8.307	-0.381	0.259
-715.748	-60.468	0.274	0.117
-714.733	176.276	0.295	-0.432
-713.718	-89.880	0.264	0.078
-712.704	800.000	-0.182	-0.758
-711.689	304.800	0.379	0.712
-710.675	588.687	0.145	-0.362
-709.660	-42.842	-0.447	-0.230
-708.645	-164.710	0.448	-0.020
-707.631	-200.000	0.168	-0.982
-706.616	-200.000	0.020	-0.242
-705.602	-85.531	0.344	0.108
-704.587	-132.902	-0.695	-0.089
-703.572	131.654	-0.290	-0.377
-702.558	800.000	0.053	-0.154
-701.543	-80.188	0.525	-0.177
-700.529	800.000	-0.386	-1.110
-699.514	-200.000	-0.012	-1.024
-698.499	-156.982	0.697	0.043
-697.485	-200.000	0.037	-0.676
-696.470	800.000	0.320	1.301
-695.456	-111.622	-0.467	-0.096
-694.441	7.515	-0.313	0.237
-693.426	774.434	-0.085	0.233
-692.412	64.682	-0.249	-0.254
-691.397	96.786	0.372	0.431
-690.383	550.559	0.139	0.336
-689.368	331.797	0.311	0.605
-688.354	-39.239	-0.536	0.284
-687.339	-67.839	0.669	0.264
-686.324	108.820	0.691	0.834
-685.310	40.803	-0.260	0.237
-684.295	782.848	0.203	0.562
-683.281	-61.875	-0.763	0.322
-682.266	800.000	0.125	-0.477
-681.251	303.670	-0.231	0.432
-680.237	148.619	-0.242	0.330
-679.222	800.000	0.083	-0.305
-678.208	108.222	-0.350	0.421
-677.193	-200.000	0.057	-0.394
-676.178	5.689	-0.169	0.126
-675.164	-67.762	-1.019	-0.402
-674.149	-80.669	0.029	0.010
-673.135	-200.000	-0.024	0.411
-672.120	-200.000	-0.106	0.494
-671.105	-69.204	0.444	-0.172
-670.091	-200.000	0.099	-0.767
-669.076	70.795	0.488	0.510
-668.062	-200.000	0.083	-0.461
-667.047	-45.465	0.522	-0.261
-666.032	800.000	0.008	0.028
-665.018	-40.349	-0.281	-0.147
-664.003	400.857	-0.422	-0.894
-662.989	-102.520	-0.286	0.069
-661.974	800.000	-0.105	-0.319
-660.959	223.779	0.307	-0.499
-659.945	-2.812	0.434	-0.306
-658.930	120.593	0.198	-0.248
-657.916	-200.000	-0.049	0.421
-656.901	8.826	-0.484	0.368
-655.886	-29.809	-0.802	-0.461
-654.872	-200.000	-0.171	1.013
-653.857	-153.129	0.993	-0.070
-652.843	65.668	0.414	-0.422
-651.828	50.033	-0.455	-0.432
-650.814	-200.000	0.037	0.559
-649.799	-200.000	-0.078	0.575
-648.784	-145.309	-0.602	-0.055
-647.770	-200.000	-0.058	-0.379
-646.755	-114.044	1.192	-0.233
-645.741	21.715	0.700	-0.574
-644.726	-71.489	-0.248	0.093
-643.711	-120.139	-0.774	-0.133
-642.697	201.092	0.103	0.160
-641.682	-200.000	0.060	-0.326
-640.668	51.605	-0.430	0.412
-639.653	-60.526	-0.428	-0.183
-638.638	118.535	0.508	-0.631
-637.624	232.491	-0.086	-0.143
-636.609	-200.000	-0.110	-0.632
-635.595	-44.370	-0.326	-0.165
-634.580	-200.000	0.072	0.449
-633.565	315.581	0.110	-0.209
-632.551	-106.434	0.354	0.080
-631.536	-51.216	0.691	0.326
-630.522	-80.022	0.444	0.150
-629.507	45.016	0.050	-0.047
-628.492	-173.958	1.023	0.030
-627.478	-200.000	0.167	-0.973
-626.463	800.000	-0.272	0.921
-625.449	-169.693	-0.627	-0.023
-624.434	-82.212	0.085	0.028
-623.419	48.076	-0.130	0.122
-622.405	90.559	0.106	-0.120
-621.390	-200.000	-0.054	-0.589
-620.376	109.102	-0.250	-0.301
-619.361	-200.000	0.018	-0.132
-618.346	-10.577	-0.263	0.175
-617.332	-104.021	0.750	-0.176
-616.317	384.658	-0.124	0.258
-615.303	-200.000	-0.006	0.032
-614.288	572.068	-0.284	-0.697
-613.273	800.000	-0.058	-0.254
-612.259	1.436	-0.185	-0.134
-611.244	-75.111	-0.757	0.273
-610.230	328.350	0.120	-0.232
-609.215	-18.010	-0.204	0.129
-608.201	256.351	-0.343	-0.593
-607.186	169.538	0.241	0.347
-606.171	-104.658	0.380	-0.088
-605.157	-84.956	-0.805	0.254
-604.142	56.012	1.035	-1.011
-603.128	670.582	-0.165	-0.430
-602.113	-114.043	0.189	-0.037
-601.098	215.422	-0.206	0.329
-600.084	-115.344	0.255	0.048
-599.069	-200.000	0.111	0.634
-598.055	138.451	0.266	-0.351
-597.040	220.911	-0.645	1.041
-596.025	80.658	-0.193	-0.209
-595.011	800.000	-0.068	0.289
-593.996	800.000	0.224	-0.737
-592.982	-33.377	-0.230	-0.128
-591.967	-140.242	0.760	-0.080
-590.952	-84.791	0.473	-0.150
-589.938	-129.851	0.235	-0.032
-588.923	38.769	-0.262	0.235
-587.909	122.754	0.040	-0.050
-586.894	77.738	-0.437	0.468
-585.879	118.822	-0.648	0.806
-584.865	-200.000	-0.167	-1.092
-583.850	162.163	0.222	-0.313
-582.836	790.073	-0.161	-0.446
-581.821	160.783	-0.281	0.394
-580.806	101.998	0.137	-0.161
-579.792	211.668	0.205	-0.325
-578.777	71.280	0.422	0.440
-577.763	-18.322	-1.219	0.766
-576.748	-137.305	0.884	0.101
-575.733	464.892	0.285	0.641
-574.719	495.137	0.074	0.171
-573.704	89.617	0.294	0.330
-572.690	244.205	0.193	0.325
-571.675	-200.000	0.035	-0.279
-570.661	34.112	0.534	0.467
-569.646	176.400	0.687	-1.004
-568.631	-127.041	-0.513	-0.076
-567.617	-200.000	0.011	-0.132
-566.602	41.438	0.506	-0.460
-565.588	342.014	-0.241	0.474
-564.573	-103.894	1.175	0.276
-563.558	-53.833	-0.626	0.287
-562.544	75.546	0.135	0.143
-561.529	-121.097	-0.240	-0.040
-560.515	-25.737	0.542	-0.321
-559.500	-58.910	1.021	-0.443
-558.485	-200.000	-0.105	0.579
-557.471	176.214	-0.157	0.230
-556.456	487.784	0.301	-0.690
-555.442	-25.243	-0.237	-0.141
-554.427	-200.000	-0.164	0.865
-553.412	800.000	-0.119	-0.383
-552.398	282.779	0.258	0.464
-551.383	119.825	0.222	0.276
-550.369	71.833	0.427	-0.446
-549.354	-82.852	-0.807	-0.262
-548.339	22.621	0.345	-0.284
-547.325	-200.000	0.088	-0.464
-546.310	24.807	0.320	-0.266
-545.296	119.053	-0.234	-0.290
-544.281	726.096	-0.304	0.813
-543.266	800.000	-0.267	0.876
-542.252	505.995	0.463	1.076
-541.237	-33.008	0.221	0.123
-540.223	84.873	-0.341	-0.376
-539.208	168.895	-0.351	-0.503
-538.193	-90.118	-0.210	-0.061
-537.179	800.000	-0.127	0.415
-536.164	-19.699	0.315	0.196
-535.150	100.288	0.339	-0.394
-534.135	-64.402	-0.507	0.207
-533.121	732.327	0.375	-1.008
-532.106	-200.000	-0.044	0.276
-531.091	81.482	-0.158	-0.172
-530.077	-84.390	0.310	0.098
-529.062	-129.823	0.689	0.095
-528.048	-141.421	0.053	-0.005
-527.033	423.648	-0.494	1.066
-526.018	15.174	-0.330	-0.259
-525.004	-27.428	-0.811	0.473
-523.989	110.488	-0.082	0.099
-522.975	56.713	-0.497	-0.486
-521.960	800.000	-0.098	-0.389
-520.945	-47.145	0.120	0.058
-519.931	-180.355	0.360	0.008
-518.916	-98.678	-0.295	-0.075
-517.902	-171.241	-0.843	0.028
-516.887	-31.518	-0.431	-0.243
-515.872	26.235	0.368	0.308
-514.858	169.729	-0.569	0.816
-513.843	800.000	0.158	-0.461
-512.829	-200.000	0.080	0.693
-511.814	1.641	-0.077	0.056
-510.799	489.448	-0.153	0.351
-509.785	-173.131	0.504	-0.016
-508.770	-140.922	0.847	-0.087
-507.756	800.000	-0.244	-1.006
-506.741	391.712	0.045	-0.094
-505.726	138.869	-0.289	0.381
-504.712	-132.424	-0.101	0.013
-503.697	-152.515	0.154	0.011
-502.683	260.178	0.276	0.478
-501.668	329.629	0.225	-0.434
-500.653	800.000	-0.087	0.248
-499.639	43.478	0.535	0.490
-498.624	-200.000	-0.040	0.402
-497.610	-96.357	-0.830	0.220
-496.595	49.784	0.415	-0.392
-495.581	-87.853	-0.488	-0.147
-494.566	-200.000	-0.016	-0.432
-493.551	317.845	0.435	0.824
-492.537	623.586	-0.060	0.152
-491.522	403.777	0.210	0.442
-490.508	741.394	0.055	-0.148
-489.493	-26.082	0.319	0.188
-488.478	176.456	-0.160	-0.234
-487.464	-61.679	0.561	-0.235
-486.449	800.000	0.231	0.874
-485.435	-165.650	0.296	0.013
-484.420	800.000	-0.242	-1.005
-483.405	274.876	-0.386	-0.685
-482.391	-200.000	-0.068	-0.667
-481.376	36.243	0.221	0.195
-480.362	210.515	-0.129	0.202
-479.347	-112.755	0.898	-0.179
-478.332	800.000	-0.182	-0.797
-477.318	8.893	0.481	-0.363
-476.303	-60.975	0.340	-0.144
-475.289	-121.942	-0.370	0.061
-474.274	47.000	0.318	-0.296
-473.259	2.007	0.732	0.529
-472.245	-200.000	0.013	0.123
-471.230	-80.044	0.415	0.139
-470.216	116.396	-0.148	0.181
-469.201	350.663	-0.404	-0.799
-468.186	-102.226	-0.338	-0.081
-467.172	-85.337	0.589	-0.184
-466.157	122.715	0.726	-0.908
-465.143	-76.294	0.670	0.236
-464.128	-200.000	-0.004	0.503
-463.113	272.946	-0.246	0.434
-462.099	-200.000	-0.079	0.477
-461.084	-98.683	-0.128	0.033
-460.070	-26.036	0.523	0.308
-459.055	-46.750	0.501	0.245
-458.040	52.133	-0.535	0.510
-457.026	-200.000	0.029	-0.936
-456.011	800.000	-0.109	0.419
-454.997	800.000	-0.080	0.273
-453.982	800.000	-0.404	-1.248
-452.968	-186.949	-0.276	-0.004
-451.953	198.924	0.048	0.074
-450.938	44.781	0.178	-0.164
-449.924	800.000	-0.140	0.525
-448.909	2.001	-0.314	-0.226
-447.895	-3.992	0.237	0.165
-446.880	-200.000	0.085	0.786
-445.865	-21.918	0.087	0.053
-444.851	22.856	-0.723	-0.592
-443.836	800.000	0.084	0.250
-442.822	-66.993	0.748	0.295
-441.807	-65.538	-0.721	0.289
-440.792	800.000	-0.153	0.462
-439.778	800.000	0.100	0.317
-438.763	-195.092	0.756	0.006
-437.749	-29.639	-0.131	0.075
-436.734	199.004	0.315	-0.483
-435.719	117.646	-0.360	-0.443
-434.705	-62.043	0.711	0.297
-433.690	16.505	-0.103	-0.082
-432.676	-8.954	-0.248	0.166
-431.661	365.158	-0.047	-0.094
-430.646	733.366	-0.168	0.448
-429.632	-200.000	-0.001	-0.943
-428.617	-129.248	0.385	-0.054
-427.603	800.000	0.163	-0.488
-426.588	-122.661	-0.987	0.160
-425.573	-104.307	-0.681	-0.158
-424.559	11.929	-0.255	-0.195
-423.544	115.455	-0.067	0.082
-422.530	71.660	-0.716	0.743
-421.515	441.632	0.126	0.276
-420.500	-200.000	0.023	-0.786
-419.486	800.000	-0.323	-1.067
-418.471	28.504	-0.997	-0.842
-417.457	28.598	0.626	0.529
-416.442	-75.332	-0.407	-0.145
-415.428	-200.000	-0.005	0.782
-414.413	800.000	0.093	0.314
-413.398	-200.000	-0.053	-0.542
-412.384	-17.722	0.603	-0.378
-411.369	-9.500	-0.061	0.041
-410.355	29.941	0.091	0.077
-409.340	-50.356	0.619	0.292
-408.325	-176.869	-0.487	0.012
-407.311	-76.918	0.602	-0.210
-406.296	-200.000	0.096	-0.575
-405.282	-66.433	0.495	0.197
-404.267	-32.817	0.687	-0.381
-403.252	2.205	-0.477	-0.344
-402.238	74.773	0.356	0.374
-401.223	-120.249	-0.642	-0.109
-400.209	-130.899	-0.337	-0.045
-399.194	-19.978	-0.087	0.054
-398.179	319.547	-0.564	-1.067
-397.165	-99.575	0.704	-0.177
-396.150	-147.200	-0.621	0.053
-395.136	800.000	-0.163	-0.663
-394.121	335.910	0.266	-0.516
-393.106	-200.000	0.468	0.001
-392.092	-98.675	-0.829	0.211
-391.077	72.083	-0.207	0.215
-390.063	86.939	0.168	-0.185
-389.048	-128.030	0.257	0.037
-388.033	-69.446	0.393	0.150
-387.019	-200.000	-0.047	0.362
-386.004	-200.000	0.055	0.344
-384.990	-71.325	-0.652	0.244
-383.975	-200.000	0.001	-0.311
-382.960	-200.000	0.104	-0.595
-381.946	21.539	-0.517	-0.420
-380.931	800.000	-0.128	0.482
-379.917	-175.260	0.375	0.010
-378.902	-64.724	0.776	-0.314
-377.888	-200.000	-0.160	-0.796
-376.873	35.285	0.457	-0.400
-375.858	8.466	-0.426	-0.320
-374.844	-172.713	0.732	0.023
-373.829	237.405	0.097	-0.160
-372.815	496.176	-0.415	-0.950
-371.800	-0.873	-0.426	-0.301
-370.785	58.058	0.181	-0.177
-369.771	-31.212	-0.566	-0.318
-368.756	-48.734	-0.425	0.203
-367.742	-0.350	-0.275	-0.195
-366.727	-161.211	0.050	-0.003
-365.712	-90.851	0.181	-0.052
-364.698	-19.984	-0.801	0.493
-363.683	728.916	-0.237	-0.632
-362.669	800.000	0.292	1.084
-361.654	62.647	0.202	0.202
-360.639	800.000	-0.152	-0.481
-359.625	136.055	0.332	0.431
-358.610	-77.200	-0.451	-0.157
-357.596	-57.464	0.377	0.165
-356.581	-125.476	0.607	0.092
-355.566	-6.528	-0.287	-0.195
-354.552	34.399	0.749	0.651
-353.537	185.001	0.214	0.316
-352.523	18.967	0.887	-0.708
-351.508	253.569	0.216	0.367
-350.493	-122.523	-0.715	0.116
-349.479	-200.000	0.033	0.411
-348.464	237.257	0.478	-0.790
-347.450	-200.000	-0.034	-0.709
-346.435	105.269	-0.295	-0.347
-345.420	-132.812	0.625	-0.080
-344.406	-200.000	0.080	1.148
-343.391	-33.197	-0.607	0.335
-342.377	-34.384	0.698	-0.381
-341.362	407.004	0.489	1.028
-340.348	292.837	0.122	0.221
-339.333	-200.000	-0.022	0.176
-338.318	147.951	-0.354	-0.475
-337.304	-120.963	0.183	-0.031
-336.289	32.034	0.382	-0.328
-335.275	-17.108	-0.559	-0.351
-334.260	38.887	0.778	-0.692
-333.245	-200.000	0.043	-0.520
-332.231	-123.620	0.591	-0.093
-331.216	762.116	-0.293	0.792
-330.202	25.502	0.402	0.333
-329.187	244.817	0.286	0.479
-328.172	-52.799	0.289	0.132
-327.158	368.096	-0.205	0.412
-326.143	-169.751	-0.221	-0.008
-325.129	73.479	-0.652	-0.679
-324.114	-123.999	0.484	-0.076
-323.099	-30.862	-0.635	-0.357
-322.085	-136.213	-1.104	-0.128
-321.070	524.351	-0.473	-1.106
-320.056	238.020	0.218	-0.360
-319.041	742.483	-0.307	0.820
-318.026	62.371	-0.451	-0.448
-317.012	102.028	0.527	-0.612
-315.997	529.480	0.135	0.316
-314.983	-200.000	0.071	0.385
-313.968	619.346	-0.077	-0.192
-312.953	-58.673	-0.401	-0.173
-311.939	800.000	0.149	-0.508
-310.924	436.956	-0.403	0.872
-309.910	-72.648	-0.583	-0.214
-308.895	-77.957	-0.066	-0.023
-307.880	141.799	0.162	-0.214
-306.866	-56.323	0.284	0.125
-305.851	3.352	0.157	0.114
-304.837	12.096	-0.573	-0.438
-303.822	-200.000	0.074	1.206
-302.807	231.809	-0.314	0.513
-301.793	-200.000	-0.000	0.070
-300.778	-140.329	-0.523	0.054
-299.764	800.000	-0.099	-0.410
-298.749	98.507	0.255	0.293
-297.735	-38.908	-0.870	0.456
-296.720	-76.104	0.477	0.168
-295.705	474.637	0.249	-0.558
-294.691	800.000	0.081	0.242
-293.676	-84.502	-1.026	0.322
-292.662	-87.227	0.747	-0.226
-291.647	-200.000	0.032	0.260
-290.632	115.693	0.391	0.475
-289.618	0.587	-0.225	-0.160
-288.603	-17.845	-0.768	-0.479
-287.589	-24.883	0.227	0.134
-286.574	-81.155	0.735	0.242
-285.559	10.549	-0.529	0.401
-284.545	800.000	0.045	0.137
-283.530	12.517	0.273	0.209
-282.516	239.153	0.146	0.241
-281.501	-41.189	-0.464	-0.238
-280.486	-19.209	0.208	-0.128
-279.472	225.491	0.268	-0.431
-278.457	-18.177	0.480	-0.298
-277.443	6.114	0.457	-0.337
-276.428	-15.131	-0.499	-0.318
-275.413	245.367	-0.243	0.406
-274.399	52.490	0.333	0.315
-273.384	-68.360	-0.355	0.137
-272.370	122.777	-0.297	-0.369
-271.355	-183.138	-0.352	-0.006
-270.340	-30.672	0.663	0.373
-269.326	-92.215	0.399	0.112
-268.311	-200.000	-0.135	-1.013
-267.297	-200.000	-0.029	-0.171
-266.282	-20.310	-0.399	0.244
-265.267	102.829	-0.669	-0.778
-264.253	-96.357	0.312	0.082
-263.238	-200.000	-0.056	0.327
-262.224	-200.000	0.024	-0.263
-261.209	-89.798	-0.542	0.157
-260.195	-102.186	-1.102	0.263
-259.180	-137.836	-0.754	-0.084
-258.165	79.284	0.556	-0.591
-257.151	263.223	0.229	-0.395
-256.136	-125.865	-0.700	-0.105
-255.122	38.959	-0.368	0.326
-254.107	-26.105	-0.794	0.463
-253.092	373.752	-0.258	0.522
-252.078	-120.851	-0.754	0.126
-251.063	-46.135	0.323	0.158
-250.049	-120.462	0.664	-0.112
-249.034	11.916	0.328	-0.250
-248.019	-200.000	-0.004	-0.492
-247.005	446.847	0.237	-0.518
-245.990	-200.000	0.082	0.704
-244.976	-200.000	-0.033	0.416
-243.961	-0.745	-0.375	-0.264
-242.946	-81.803	0.408	0.133
-241.932	-113.636	1.239	-0.240
-240.917	-46.272	-0.393	-0.192
-239.903	-72.508	0.671	0.246
-238.888	-200.000	0.206	-0.000
-237.873	800.000	-0.231	0.667
-236.859	17.166	0.145	-0.114
-235.844	-200.000	-0.129	1.007
-234.830	-90.517	0.768	0.220
-233.815	-95.719	0.238	0.063
-232.800	39.125	-0.391	-0.347
-231.786	-46.782	-0.111	-0.054
-230.771	160.215	-0.311	0.429
-229.757	272.262	0.238	0.416
-228.742	-200.000	0.020	0.304
-227.727	157.168	-0.284	0.389
-226.713	-148.809	0.737	0.059
-225.698	-200.000	-0.475	-0.002
-224.684	182.866	0.395	0.577
-223.669	-30.091	0.350	-0.198
-222.655	-24.379	0.183	-0.108
-221.640	-40.346	0.632	0.326
-220.625	-44.062	1.012	0.504
-219.611	-200.000	-0.040	0.194
-218.596	800.000	-0.226	-0.677
-217.582	-84.857	-1.096	-0.341
-216.567	186.896	0.193	-0.285
-215.552	-120.880	-0.182	-0.030
-214.538	-146.590	0.217	-0.019
-213.523	68.334	-0.149	0.151
-212.509	-4.097	0.456	0.313
-211.494	603.411	0.177	0.436
-210.479	-38.556	-0.102	0.054
-209.465	-200.000	0.187	1.119
-208.450	-200.000	0.108	0.746
-207.436	83.336	0.635	0.685
-206.421	-103.552	-0.957	0.223
-205.406	45.848	-0.403	-0.370
-204.392	5.219	-0.455	-0.332
-203.377	-157.039	-0.623	0.038
-202.363	-83.225	0.513	-0.163
-201.348	-2.227	-0.532	-0.370
-200.333	14.053	0.253	-0.195
-199.319	-35.522	-0.238	0.128
-198.304	-104.602	-0.294	-0.067
-197.290	119.718	-0.177	-0.217
-196.275	770.810	-0.072	0.194
-195.260	581.666	-0.116	-0.281
-194.246	800.000	0.098	0.296
-193.231	800.000	-0.047	-0.136
-192.217	515.400	-0.251	0.579
-191.202	-200.000	0.036	-0.420
-190.187	-140.289	-0.803	0.083
-189.173	-158.670	-0.383	0.022
-188.158	260.188	-0.076	-0.130
-187.144	119.299	-0.215	0.264
-186.129	-11.053	-0.317	0.207
-185.114	321.755	-0.192	-0.361
-184.100	-200.000	-0.106	-0.559
-183.085	-185.183	-0.156	0.002
-182.071	314.327	0.300	0.559
-181.056	800.000	-0.248	0.779
-180.042	800.000	-0.119	0.407
-179.027	394.089	0.255	0.526
-178.012	35.941	-0.783	-0.682
-176.998	-32.171	0.977	0.540
-175.983	-200.000	0.065	0.396
-174.969	263.228	0.386	-0.664
-173.954	130.507	0.188	0.239
-172.939	-77.003	-0.635	0.219
-171.925	99.568	0.456	0.522
-170.910	-200.000	-0.105	-0.702
-169.896	-142.215	-0.308	0.030
-168.881	800.000	-0.198	-0.798
-167.866	19.884	0.440	0.351
-166.852	800.000	-0.140	-0.547
-165.837	-200.000	0.050	0.649
-164.823	-200.000	-0.055	0.566
-163.808	630.140	-0.413	1.034
-162.793	-85.256	0.524	0.162
-161.779	69.049	-0.589	0.599
-160.764	279.219	-0.075	-0.132
-159.750	288.467	0.173	0.310
-158.735	800.000	-0.156	-0.546
-157.720	-41.987	-0.984	-0.498
-156.706	-147.793	0.536	-0.044
-155.691	-154.159	-0.242	-0.016
-154.677	356.700	0.206	-0.406
-153.662	800.000	0.053	-0.206
-152.647	-102.689	0.620	-0.146
-151.633	-200.000	-0.017	0.230
-150.618	-200.000	0.110	1.188
-149.604	-67.924	0.496	-0.191
-148.589	-106.001	0.203	-0.045
-147.574	43.339	0.375	0.339
-146.560	-65.083	-0.356	-0.142
-145.545	356.229	0.193	-0.380
-144.531	800.000	-0.150	-0.459
-143.516	-137.585	0.677	0.075
-142.502	800.000	0.138	-0.553
-141.487	800.000	-0.077	0.275
-140.472	800.000	0.247	-0.840
-139.458	96.644	-0.295	-0.334
-138.443	800.000	-0.083	-0.340
-137.429	-124.764	0.427	-0.065
-136.414	24.647	-1.135	0.929
-135.399	-83.962	0.438	-0.138
-134.385	800.000	-0.087	-0.326
-133.370	244.631	-0.418	-0.694
-132.356	-30.724	0.646	-0.361
-131.341	6.415	-0.155	0.114
-130.326	-200.000	-0.006	0.332
-129.312	-200.000	-0.079	-0.738
-128.297	288.066	-0.091	-0.164
-127.283	55.491	0.479	0.458
-126.268	800.000	-0.075	-0.257
-125.253	101.485	0.159	-0.183
-124.239	102.250	0.325	0.375
-123.224	-142.538	0.692	0.067
-122.210	-200.000	0.123	-0.919
-121.195	-200.000	-0.012	-0.088
-120.180	72.601	0.369	-0.380
-119.166	21.668	0.139	-0.112
-118.151	131.018	0.612	-0.776
-117.137	73.331	-0.384	-0.397
-116.122	-36.448	-1.029	-0.547
-115.107	800.000	0.198	0.697
-114.093	100.768	-0.195	-0.224
-113.078	800.000	-0.170	0.647
-112.064	-200.000	-0.023	0.286
-111.049	-137.469	-0.300	-0.033
-110.034	127.572	-0.557	0.698
-109.020	236.661	0.280	-0.457
-108.005	-26.328	0.329	0.191
-106.991	-156.372	-0.875	0.054
-105.976	-74.353	0.550	-0.196
-104.962	-122.796	0.316	0.050
-103.947	-200.000	0.041	0.378
-102.932	511.841	-0.108	0.248
-101.918	800.000	0.223	0.947
-100.903	130.814	-0.502	0.636
-99.889	-96.892	-0.318	0.082
-98.874	186.794	0.327	-0.481
-97.859	-3.254	-0.232	-0.159
-96.845	-200.000	-0.040	-0.243
-95.830	-41.208	0.442	0.225
-94.816	800.000	-0.218	-0.881
-93.801	-200.000	0.123	0.704
-92.786	220.449	-0.198	0.314
-91.772	-9.210	-0.384	0.253
-90.757	-200.000	0.046	-0.680
-89.743	-200.000	-0.039	-0.701
-88.728	-106.875	-0.558	0.122
-87.713	125.060	-0.422	-0.524
-86.699	-54.281	0.715	0.320
-85.684	212.467	-0.279	-0.434
-84.670	800.000	0.163	-0.495
-83.655	396.240	0.145	-0.299
-82.640	-133.384	-0.494	-0.061
-81.626	12.982	0.481	0.367
-80.611	-200.000	0.169	0.869
-79.597	-124.932	-0.346	0.053
-78.582	65.873	0.390	0.390
-77.567	-200.000	-0.006	-0.306
-76.553	-200.000	0.044	-0.411
-75.538	-12.542	-0.848	0.546
-74.524	33.844	0.301	0.258
-73.509	160.084	-0.231	0.318
-72.494	-101.465	-0.618	-0.148
-71.480	422.991	0.274	0.581
-70.465	159.619	-0.353	0.485
-69.451	-200.000	0.134	1.498
-68.436	27.594	0.233	-0.193
-67.422	-200.000	0.002	0.042
-66.407	-70.379	0.975	-0.364
-65.392	-200.000	0.015	0.076
-64.378	-200.000	-0.043	0.203
-63.363	800.000	-0.201	-0.739
-62.349	-33.115	-0.130	0.071
-61.334	-9.297	-0.877	-0.578
-60.319	-80.716	-0.243	-0.080
-59.305	-200.000	-0.118	-1.351
-58.290	-200.000	0.128	0.998
-57.276	100.994	1.055	1.208
-56.261	-200.000	95.553	583.060
-55.246	667.160	1356.917	3454.599
-54.232	203.370	2519.767	3838.178
-53.217	118.196	2143.912	2603.305
-52.203	43.277	1695.544	1524.858
-51.188	35.921	1509.624	1307.863
-50.173	33.514	1482.988	1268.644
-49.159	53.552	1533.796	1448.954
-48.144	54.282	1552.591	1471.626
-47.130	35.871	1511.313	1308.780
-46.115	32.884	1496.626	1275.851
-45.100	32.588	1493.631	1271.255
-44.086	32.631	1492.290	1270.350
-43.071	32.473	1490.837	1267.999
-42.057	32.674	1488.063	1266.939
-41.042	32.632	1487.206	1265.881
-40.027	32.706	1485.336	1264.732
-39.013	32.482	1485.187	1263.052
-37.998	32.566	1483.369	1262.021
-36.984	32.640	1481.825	1261.153
-35.969	32.710	1479.710	1259.771
-34.954	32.808	1478.452	1259.303
-33.940	32.632	1477.724	1257.455
-32.925	32.676	1476.354	1256.535
-31.911	32.790	1474.080	1255.312
-30.896	32.753	1472.832	1253.950
-29.881	32.790	1472.240	1253.645
-28.867	32.825	1470.738	1252.543
-27.852	32.875	1468.170	1250.638
-26.838	32.671	1468.064	1249.152
-25.823	32.597	1466.462	1247.246
-24.809	32.878	1463.915	1246.884
-23.794	32.792	1462.657	1245.199
-22.779	32.729	1461.163	1243.459
-21.765	32.684	1461.239	1243.182
-20.750	32.555	1460.070	1241.285
-19.736	32.812	1458.690	1241.754
-18.721	32.671	1457.767	1239.995
-17.706	32.656	1456.363	1238.651
-16.692	32.485	1455.852	1237.041
-15.677	32.644	1454.196	1236.634
-14.663	32.661	1453.239	1235.882
-13.648	32.841	1451.692	1235.692
-12.633	32.817	1450.952	1234.859
-11.619	32.534	1451.010	1233.008
-10.604	32.831	1449.612	1233.709
-9.590	32.615	1449.827	1232.430
-8.575	32.810	1447.190	1231.413
-7.560	32.744	1447.447	1231.153
-6.546	32.486	1447.805	1229.727
-5.531	32.546	1445.671	1228.252
-4.517	32.777	1443.129	1227.550
-3.502	32.230	1444.048	1224.721
-2.487	32.414	1442.898	1224.892
-1.473	32.608	1441.239	1224.700
-0.458	32.519	1441.035	1223.896
0.556	33.582	1430.181	1212.448
1.571	30.450	1405.319	1171.548
2.586	26.867	1346.731	1100.905
3.600	24.994	1266.865	1024.822
4.615	23.718	1219.976	979.767
5.629	19.923	1165.032	915.527
6.644	11.312	1079.183	805.622
7.659	4.327	1038.364	741.780
8.673	3.319	1031.443	731.983
9.688	2.884	1029.666	728.593
10.702	3.049	1027.323	727.652
11.717	2.830	1024.943	724.870
12.731	6.043	1029.155	743.000
13.746	15.090	1041.983	795.346
14.761	22.872	1050.827	839.159
15.775	24.411	1052.626	847.841
16.790	24.255	1052.513	846.932
17.804	24.338	1050.517	845.645
18.819	23.872	1050.553	843.389
19.834	23.757	1049.692	842.080
20.848	23.939	1048.675	842.048
21.863	23.817	1048.337	841.130
22.877	24.007	1047.857	841.568
23.892	23.444	1048.412	839.272
24.907	24.098	1046.837	841.028
25.921	23.644	1046.345	838.412
26.936	23.402	1045.052	836.160
27.950	23.498	1043.633	835.406
28.965	23.355	1042.786	833.983
29.980	23.519	1042.479	834.433
30.994	23.726	1039.745	833.140
32.009	23.941	1040.086	834.352
33.023	23.864	1038.773	832.861
34.038	23.506	1037.997	830.490
35.053	23.750	1037.376	831.062
36.067	23.587	1037.181	830.067
37.082	23.491	1035.594	828.277
38.096	23.307	1035.051	826.911
39.111	23.860	1033.494	828.169
40.126	23.657	1033.503	827.160
41.140	23.795	1032.221	826.702
42.155	23.412	1031.136	823.979
43.169	23.184	1029.520	821.555
44.184	23.121	1029.041	820.808
45.199	23.360	1027.035	820.245
46.213	23.241	1026.749	819.393
47.228	23.335	1026.025	819.176
48.242	23.639	1025.301	819.932
49.257	23.595	1026.163	820.344
50.271	23.973	1024.020	820.303
51.286	23.933	1023.283	819.455
52.301	24.020	1022.856	819.441
53.315	24.251	1022.134	819.852
54.330	24.101	1021.490	818.575
55.344	23.794	1021.364	816.989
56.359	23.577	1019.525	814.452
57.374	23.683	1018.480	814.030
58.388	23.432	1017.912	812.352
59.403	23.410	1017.183	811.599
60.417	23.461	1015.312	810.269
61.432	23.175	1015.702	809.200
62.447	23.554	1014.987	810.291
63.461	23.518	1014.228	809.445
64.476	23.328	1014.328	808.588
65.490	23.430	1012.474	807.503
66.505	23.242	1011.389	805.709
67.520	23.169	1011.355	805.281
68.534	23.339	1010.888	805.610
69.549	23.244	1009.424	803.941
70.563	22.923	1009.563	802.524
71.578	22.808	1008.077	800.748
72.593	22.592	1007.060	798.893
73.607	22.601	1006.061	798.066
74.622	22.574	1004.572	796.693
75.636	23.135	1003.616	798.400
76.651	22.801	1003.382	796.634
77.666	22.843	1003.344	796.724
78.680	23.021	1002.854	797.065
79.695	22.875	1001.611	795.350
80.709	23.009	1001.918	796.129
81.724	22.926	1001.519	795.365
82.739	23.293	999.053	794.987
83.753	23.032	999.448	794.059
84.768	23.319	997.650	793.843
85.782	24.316	997.439	798.073
86.797	24.168	997.328	797.249
87.812	24.027	996.753	796.088
88.826	23.760	996.590	794.694
89.841	23.943	995.521	794.587
90.855	24.246	994.189	794.806
91.870	24.239	993.414	794.084
92.884	24.154	993.501	793.707
93.899	23.862	992.954	791.898
94.914	23.994	990.992	790.850
95.928	24.161	989.761	790.541
96.943	24.124	989.956	790.462
97.957	24.021	988.729	788.953
98.972	23.883	987.532	787.317
99.987	23.669	987.161	786.006
101.001	24.046	985.823	786.539
102.016	24.108	985.827	786.746
103.030	23.847	984.649	784.582
104.045	23.807	984.044	783.853
105.060	24.157	983.317	784.748
106.074	23.494	983.488	781.895
107.089	23.740	981.361	781.217
108.103	23.624	981.121	780.445
109.118	23.711	978.353	778.556
110.133	23.262	978.191	776.389
111.147	23.029	977.646	774.870
112.162	23.069	976.133	773.777
113.176	22.779	975.384	771.845
114.191	23.117	974.484	772.539
115.206	23.409	973.614	773.058
116.220	23.307	973.018	772.070
117.235	23.195	972.309	770.954
118.249	23.150	971.084	769.718
119.264	22.950	970.124	768.020
120.279	22.863	969.068	766.735
121.293	22.665	969.099	765.832
122.308	22.921	967.164	765.347
123.322	22.668	967.619	764.540
124.337	22.753	965.969	763.540
125.352	22.563	965.287	762.107
126.366	22.522	964.268	761.059
127.381	22.768	962.808	760.900
128.395	22.938	962.561	761.372
129.410	23.244	961.877	762.082
130.424	23.148	960.963	760.877
131.439	23.308	960.232	760.920
132.454	23.368	959.390	760.443
133.468	23.440	959.062	760.423
134.483	23.310	958.596	759.428
135.497	23.352	957.442	758.628
136.512	23.635	956.847	759.298
137.527	23.721	955.219	758.305
138.541	23.539	955.188	757.439
139.556	23.583	954.431	756.958
140.570	23.574	953.621	756.210
141.585	23.844	952.562	756.454
142.600	23.794	953.883	757.224
143.614	23.719	952.078	755.403
144.629	24.082	950.723	755.803
145.643	24.578	950.400	757.584
146.658	24.346	950.086	756.284
147.673	23.742	948.771	752.612
148.687	23.479	947.226	750.204
149.702	23.619	946.492	750.152
150.716	23.620	945.600	749.381
151.731	23.222	944.883	747.067
152.746	23.562	944.258	747.940
153.760	23.744	942.852	747.527
154.775	23.810	942.292	747.296
155.789	23.703	942.114	746.639
156.804	23.983	940.592	746.540
157.819	24.113	938.932	745.699
158.833	24.050	938.820	745.282
159.848	24.160	938.098	745.103
160.862	24.213	937.554	744.826
161.877	24.109	937.478	744.266
162.892	23.969	935.566	742.100
163.906	23.631	934.886	740.083
164.921	23.492	934.456	739.097
165.935	23.577	932.968	738.210
166.950	23.536	932.434	737.551
167.964	23.759	931.671	737.810
168.979	23.593	930.895	736.442
169.994	23.774	928.752	735.432
171.008	23.448	929.131	734.313
172.023	23.583	927.799	733.756
173.037	23.868	927.988	735.020
174.052	24.280	926.326	735.337
175.067	23.767	927.275	733.907
176.081	23.859	924.117	731.720
177.096	23.597	923.379	729.995
178.110	23.071	922.895	727.383
179.125	22.923	922.102	726.085
180.140	23.218	920.949	726.326
181.154	23.043	921.100	725.661
182.169	23.289	920.625	726.230
183.183	23.792	919.099	727.021
184.198	23.916	919.170	727.520
185.213	23.798	918.100	726.127
186.227	23.627	918.917	726.012
187.242	23.799	917.461	725.500
188.256	24.061	917.209	726.303
189.271	23.989	916.410	725.315
190.286	23.956	915.322	724.253
191.300	23.840	914.849	723.343
192.315	23.612	912.867	720.788
193.329	22.885	912.122	717.185
194.344	22.825	911.585	716.454
195.359	23.211	912.019	718.297
196.373	23.644	911.250	719.385
197.388	23.963	911.684	720.956
198.402	24.314	910.962	721.741
199.417	24.242	909.244	720.027
200.432	24.163	910.028	720.264
201.446	24.358	909.854	720.851
202.461	24.415	909.309	720.585
203.475	24.285	908.697	719.513
204.490	24.007	908.451	718.133
205.504	23.851	906.132	715.606
206.519	23.541	905.537	713.827
207.534	23.869	905.459	715.023
208.548	23.782	904.394	713.769
209.563	23.598	904.229	712.836
210.577	23.701	903.962	712.976
211.592	23.814	902.052	711.859
212.607	23.934	903.184	713.172
213.621	24.203	902.408	713.570
214.636	24.147	901.367	712.463
215.650	24.368	900.526	712.616
216.665	23.708	900.703	710.057
217.680	23.942	899.830	710.239
218.694	23.995	898.808	709.582
219.709	24.438	898.025	710.666
220.723	24.172	898.016	709.535
221.738	23.873	897.251	707.677
222.753	24.134	895.351	707.156
223.767	24.108	894.528	706.340
224.782	23.828	895.063	705.586
225.796	24.336	893.408	706.231
226.811	24.234	893.974	706.214
227.826	24.048	893.678	705.180
228.840	23.600	892.061	702.070
229.855	23.803	890.698	701.734
230.869	23.750	890.541	701.341
231.884	23.867	889.416	700.853
232.899	23.651	888.614	699.308
233.913	23.617	889.151	699.538
234.928	23.896	887.900	699.586
235.942	23.592	886.923	697.560
236.957	23.534	885.684	696.297
237.972	23.343	885.992	695.730
238.986	23.273	885.098	694.689
240.001	23.518	884.308	694.971
241.015	23.393	883.236	693.574
242.030	23.447	883.331	693.801
243.045	23.526	882.408	693.324
244.059	23.588	882.730	693.756
245.074	23.769	882.099	693.906
246.088	23.660	881.657	693.072
247.103	23.800	880.632	692.750
248.117	23.878	880.755	693.089
249.132	24.029	881.234	693.994
250.147	24.716	880.243	695.828
251.161	25.215	879.791	697.350
252.176	25.031	879.347	696.219
253.190	24.959	878.818	695.462
254.205	25.137	877.413	694.978
255.220	25.000	877.751	694.650
256.234	24.761	877.865	693.753
257.249	25.145	875.293	693.145
258.263	25.083	875.357	692.896
259.278	24.926	875.207	692.108
260.293	24.493	875.310	690.455
261.307	24.676	873.866	689.957
262.322	24.850	873.116	689.977
263.336	24.851	873.479	690.205
264.351	24.467	872.591	687.963
265.366	24.153	871.915	686.162
266.380	24.285	870.326	685.359
267.395	25.019	869.748	687.659
268.409	24.869	868.900	686.354
269.424	24.929	869.002	686.603
270.439	24.944	867.800	685.652
271.453	24.734	867.798	684.783
272.468	24.775	866.597	683.932
273.482	24.630	866.291	683.074
274.497	24.764	866.600	683.770
275.512	24.630	865.070	681.994
276.526	24.686	865.294	682.321
277.541	24.970	862.892	681.449
278.555	24.809	863.120	680.957
279.570	25.045	862.755	681.508
280.585	25.213	862.424	681.823
281.599	25.187	861.269	680.750
282.614	25.069	861.169	680.164
283.628	24.396	861.129	677.517
284.643	24.310	859.480	675.833
285.657	24.679	858.456	676.364
286.672	24.630	858.547	676.192
287.687	24.244	858.199	674.397
288.701	24.796	857.184	675.624
289.716	24.886	857.130	675.861
290.730	24.875	856.994	675.654
291.745	24.621	856.323	674.108
292.760	24.440	855.507	672.722
293.774	24.583	854.863	672.695
294.789	25.147	854.958	674.836
295.803	25.193	854.950	674.942
296.818	25.154	853.111	673.283
297.833	24.831	852.833	671.792
298.847	24.623	852.351	670.573
299.862	25.070	850.510	670.738
300.876	24.833	851.099	670.257
301.891	25.284	849.449	670.584
302.906	25.431	850.371	671.800
303.920	25.378	849.596	670.931
304.935	25.559	848.625	670.781
305.949	25.630	849.262	671.488
306.964	25.554	848.546	670.580
307.979	25.339	846.025	667.729
308.993	25.051	846.258	666.782
310.008	24.719	846.729	665.860
311.022	25.390	845.158	667.059
312.037	25.175	845.188	666.223
313.052	25.107	843.407	664.508
314.066	24.953	843.667	664.083
315.081	24.659	842.195	661.777
316.095	24.351	841.548	660.072
317.110	24.219	842.697	660.427
318.125	24.753	841.539	661.432
319.139	24.254	840.973	659.087
320.154	24.420	839.300	658.330
321.168	24.039	839.188	656.779
322.183	24.106	839.175	656.956
323.197	24.358	838.672	657.435
324.212	24.592	838.001	657.711
325.227	24.257	837.947	656.376
326.241	24.602	837.107	656.928
327.256	24.155	837.205	655.305
328.270	24.620	835.215	655.396
329.285	24.361	835.027	654.240
330.300	23.866	834.157	651.685
331.314	23.925	833.585	651.399
332.329	24.145	832.938	651.638
333.343	24.654	832.379	653.003
334.358	25.229	833.161	655.663
335.373	24.583	832.171	652.467
336.387	24.636	831.563	652.126
337.402	25.024	830.684	652.794
338.416	25.442	830.363	654.005
339.431	25.086	831.048	653.187
340.446	25.277	830.767	653.605
341.460	25.393	829.862	653.258
342.475	25.737	830.192	654.710
343.489	25.566	828.735	652.884
344.504	25.871	827.531	652.984
345.519	25.525	828.666	652.565
346.533	25.937	827.131	652.790
347.548	25.456	827.817	651.530
348.562	26.101	825.661	652.106
349.577	25.671	824.763	649.788
350.592	25.207	825.399	648.554
351.606	25.251	824.397	647.869
352.621	25.087	823.630	646.618
353.635	25.127	822.603	645.898
354.650	25.147	822.653	645.953
355.665	25.067	821.449	644.660
356.679	25.075	821.531	644.697
357.694	25.026	820.031	643.288
358.708	25.321	819.299	643.713
359.723	24.923	819.866	642.673
360.738	24.766	818.812	641.228
361.752	25.349	818.147	642.739
362.767	24.939	818.106	641.183
363.781	25.095	818.610	642.079
364.796	25.697	818.361	643.982
365.810	25.683	818.841	644.253
366.825	25.613	817.336	642.762
367.840	26.053	817.023	644.030
368.854	25.887	815.961	642.544
369.869	25.506	815.883	641.068
370.883	25.517	814.968	640.329
371.898	25.306	813.915	638.697
372.913	25.002	814.662	638.141
373.927	25.501	814.354	639.621
374.942	25.775	812.329	638.947
375.956	25.545	811.897	637.734
376.971	25.257	811.864	636.631
377.986	25.834	811.380	638.241
379.000	26.105	810.381	638.354
380.015	25.699	810.527	636.976
381.029	25.709	809.959	636.511
382.044	25.961	808.555	636.238
383.059	25.906	808.574	636.003
384.073	26.011	807.282	635.300
385.088	25.947	808.020	635.599
386.102	25.555	806.910	633.291
387.117	25.398	805.939	631.922
388.132	24.964	805.665	630.122
389.146	25.063	805.724	630.464
390.161	25.348	804.388	630.362
391.175	25.523	804.404	630.932
392.190	26.239	804.123	633.168
393.205	25.815	803.342	631.010
394.219	25.908	801.670	629.968
395.234	24.893	801.689	626.375
396.248	24.517	800.194	623.841
397.263	24.856	799.829	624.682
398.278	25.470	800.691	627.447
399.292	24.964	799.870	624.981
400.307	24.307	800.003	622.738
401.321	24.983	798.762	624.071
402.336	25.148	798.060	624.042
403.350	25.059	798.831	624.282
404.365	25.613	798.020	625.517
405.380	26.061	797.718	626.782
406.394	25.968	798.272	626.841
407.409	26.328	797.256	627.237
408.423	26.344	796.696	626.796
409.438	26.198	796.502	626.083
410.453	26.165	796.609	625.994
411.467	26.124	796.291	625.546
412.482	26.232	795.038	624.882
413.496	26.129	794.252	623.852
414.511	25.971	794.240	623.240
415.526	26.169	793.952	623.646
416.540	26.304	793.238	623.494
417.555	25.825	792.924	621.540
418.569	26.115	792.275	621.976
419.584	26.091	792.212	621.789
420.599	25.961	792.185	621.264
421.613	159.405	1369.667	1791.837
422.628	138.085	1453.801	1791.927
