DTS Sentinel unit serial number:	SN413079Multiplexer serial number:	ORYXHardware model number:	OX4-SRSoftware version number:	ORYX F/W v4.00 Oryx Data Collector v3.7.2.0data status	okinstallation	princeton_trtdifferential loss correction	single-endedforward channel	channel 3reverse channel	N/Adate	2019/09/18time	17:12:34forward acquisition time	60.00reverse acquisition time	0.00gamma	496.2192k internal	0.2294k external	0.2294temperature offset calibration	0.9984default loss term (dB/km)	0.3790temperature slope calibration	1.0000multiplexer offset coefficient	1.0000multiplexer slope coefficient	1.0000fibre end	0.00T internal ref (°C)	39.87T ext. ref 1 (°C)	0.88T ext. ref 2 (°C)	35.10length (m)	temperature (°C)	Stokes	anti-Stokes-747.200	-79.995	0.101	-0.035
-746.185	-200.000	-0.006	-0.129
-745.171	-142.603	-0.111	0.011
-744.156	-200.000	-0.079	0.442
-743.142	317.427	0.072	-0.140
-742.127	-200.000	-0.055	0.297
-741.112	-103.970	-0.138	0.033
-740.098	-200.000	0.031	0.357
-739.083	-105.051	-0.118	0.028
-738.069	68.473	0.085	0.089
-737.054	-107.442	0.069	0.015
-736.039	-148.936	-0.238	-0.020
-735.025	800.000	0.137	0.543
-734.010	-144.648	-0.111	0.010
-732.996	-200.000	0.044	0.252
-731.981	-200.000	-0.033	-0.216
-730.966	77.278	-0.222	-0.242
-729.952	-140.801	0.422	0.044
-728.937	-150.632	-0.354	0.028
-727.923	392.282	-0.111	0.236
-726.908	-138.426	-0.196	-0.022
-725.894	40.428	0.072	-0.066
-724.879	-200.000	-0.046	-0.272
-723.864	-200.000	0.025	0.129
-722.850	800.000	0.045	-0.150
-721.835	195.585	-0.077	-0.119
-720.821	800.000	0.004	-0.014
-719.806	-200.000	0.025	0.289
-718.791	-93.813	0.206	-0.058
-717.777	534.116	0.118	-0.285
-716.762	800.000	-0.078	-0.276
-715.748	235.406	-0.035	-0.058
-714.733	46.985	0.130	0.123
-713.718	800.000	0.093	-0.275
-712.704	-100.163	-0.210	-0.053
-711.689	18.137	0.156	0.127
-710.675	68.370	-0.170	0.177
-709.660	-200.000	0.017	0.089
-708.645	-200.000	0.029	0.143
-707.631	385.039	0.202	0.425
-706.616	61.497	-0.211	-0.214
-705.602	-200.000	-0.001	0.044
-704.587	-99.634	-0.209	-0.054
-703.572	153.885	-0.038	-0.053
-702.558	-164.683	0.325	-0.015
-701.543	800.000	0.075	0.253
-700.529	73.761	-0.185	-0.198
-699.514	-93.775	0.268	0.075
-698.499	-96.364	0.069	0.019
-697.485	-37.815	-0.246	0.134
-696.470	247.312	0.124	-0.214
-695.456	-80.778	0.281	-0.095
-694.441	11.494	-0.287	-0.224
-693.426	-200.000	-0.003	-0.111
-692.412	-195.885	0.246	-0.002
-691.397	-200.000	-0.044	-0.259
-690.383	-88.608	-0.265	-0.080
-689.368	-30.038	-0.118	0.068
-688.354	509.965	-0.063	0.149
-687.339	513.938	0.129	-0.308
-686.324	-200.000	-0.038	-0.184
-685.310	-35.399	0.062	0.034
-684.295	-200.000	-0.015	0.257
-683.281	765.235	-0.152	0.423
-682.266	-200.000	-0.015	0.219
-681.251	800.000	-0.068	-0.297
-680.237	-71.752	0.072	0.027
-679.222	-141.889	-0.327	0.033
-678.208	800.000	0.032	0.129
-677.193	260.329	-0.159	-0.281
-676.178	-106.497	0.097	0.022
-675.164	-91.213	0.311	0.091
-674.149	800.000	-0.021	0.083
-673.135	-71.900	-0.112	-0.042
-672.120	10.461	0.197	-0.153
-671.105	-31.666	-0.221	0.127
-670.091	64.251	-0.219	0.225
-669.076	231.963	-0.081	0.136
-668.062	-120.439	0.211	0.037
-667.047	504.262	-0.023	-0.054
-666.032	-29.411	-0.194	-0.113
-665.018	-200.000	-0.004	-0.375
-664.003	-200.000	-0.042	-0.281
-662.989	800.000	0.032	0.094
-661.974	-32.899	-0.144	-0.081
-660.959	-200.000	0.012	-0.212
-659.945	-73.087	0.177	0.066
-658.930	-118.693	0.068	0.012
-657.916	204.496	0.081	0.129
-656.901	-156.555	-0.320	0.020
-655.886	800.000	-0.059	-0.175
-654.872	-161.295	-0.122	-0.006
-653.857	-39.137	-0.094	-0.051
-652.843	374.679	-0.102	-0.211
-651.828	-60.834	-0.217	-0.093
-650.814	225.448	-0.134	-0.221
-649.799	179.908	0.062	-0.093
-648.784	800.000	-0.059	0.184
-647.770	-93.455	-0.113	-0.032
-646.755	254.972	0.150	-0.262
-645.741	41.681	-0.271	0.250
-644.726	-200.000	-0.033	0.154
-643.711	152.271	-0.139	-0.193
-642.697	800.000	-0.040	0.117
-641.682	-200.000	-0.070	-0.315
-640.668	-45.845	-0.232	-0.117
-639.653	-180.346	0.174	0.004
-638.638	-48.127	0.225	-0.111
-637.624	270.558	0.078	-0.139
-636.609	-15.383	0.302	0.197
-635.595	-200.000	-0.008	0.193
-634.580	-148.424	-0.249	-0.021
-633.565	-29.784	-0.227	0.132
-632.551	419.463	0.142	-0.309
-631.536	51.035	0.131	-0.127
-630.522	-69.988	0.183	0.071
-629.507	35.054	0.175	-0.156
-628.492	-200.000	-0.008	-0.093
-627.478	337.610	0.155	0.307
-626.463	-92.165	-0.099	0.029
-625.449	-64.984	-0.312	-0.128
-624.434	-60.426	-0.281	-0.122
-623.419	800.000	0.107	-0.322
-622.405	-42.240	-0.183	-0.095
-621.390	282.422	-0.091	0.166
-620.376	-172.604	-0.290	0.009
-619.361	-140.992	-0.247	0.026
-618.346	-93.303	0.186	0.052
-617.332	132.012	0.028	0.037
-616.317	42.690	-0.317	0.294
-615.303	8.391	-0.064	0.049
-614.288	-98.135	-0.165	-0.043
-613.273	271.235	0.006	-0.010
-612.259	85.806	-0.166	-0.186
-611.244	-168.012	-0.116	-0.005
-610.230	-100.116	-0.151	0.038
-609.215	-47.246	0.199	0.099
-608.201	-57.169	0.098	0.044
-607.186	147.637	0.020	-0.027
-606.171	-34.868	0.323	-0.179
-605.157	-29.229	0.035	-0.021
-604.142	-93.566	0.236	0.066
-603.128	-136.613	-0.160	-0.019
-602.113	800.000	-0.037	-0.146
-601.098	493.442	0.197	-0.460
-600.084	-105.175	-0.206	0.048
-599.069	-200.000	-0.032	-0.321
-598.055	-178.549	0.198	-0.005
-597.040	-100.869	0.319	-0.080
-596.025	89.954	0.294	-0.334
-595.011	-151.049	-0.246	-0.019
-593.996	-200.000	0.015	0.076
-592.982	-118.748	-0.438	-0.078
-591.967	91.376	0.063	0.073
-590.952	128.856	0.164	-0.212
-589.938	148.511	-0.227	-0.312
-588.923	430.128	-0.195	-0.428
-587.909	322.795	0.078	0.152
-586.894	-39.706	0.210	0.111
-585.879	-200.000	0.019	0.191
-584.865	177.055	0.081	0.120
-583.850	-36.311	-0.245	-0.134
-582.836	-200.000	-0.020	-0.227
-581.821	-131.715	-0.287	-0.038
-580.806	-125.029	-0.080	0.012
-579.792	800.000	-0.139	-0.406
-578.777	-200.000	0.056	-0.287
-577.763	-118.157	-0.153	-0.028
-576.748	-98.741	0.140	0.036
-575.733	-200.000	0.063	-0.430
-574.719	-159.160	-0.334	0.019
-573.704	144.220	-0.161	-0.219
-572.690	-5.311	-0.244	0.170
-571.675	113.262	-0.092	-0.113
-570.661	-110.739	0.374	0.078
-569.646	160.749	-0.125	-0.178
-568.631	-86.977	0.191	-0.059
-567.617	117.023	0.300	-0.375
-566.602	-200.000	-0.008	0.135
-565.588	800.000	0.067	-0.238
-564.573	800.000	-0.014	0.047
-563.558	-74.026	-0.150	-0.055
-562.544	-200.000	-0.071	0.366
-561.529	800.000	-0.008	-0.037
-560.515	-147.331	-0.258	-0.022
-559.500	15.070	0.248	-0.197
-558.485	-200.000	-0.047	-0.317
-557.471	800.000	-0.056	-0.215
-556.456	-200.000	0.010	0.070
-555.442	2.774	-0.127	-0.094
-554.427	-200.000	-0.015	0.272
-553.412	-66.077	-0.073	-0.030
-552.398	287.965	-0.220	0.405
-551.383	243.754	-0.071	0.121
-550.369	22.652	0.166	-0.138
-549.354	326.993	0.132	-0.257
-548.339	54.954	-0.094	0.092
-547.325	-100.037	-0.038	-0.010
-546.310	442.270	0.203	-0.450
-545.296	35.441	-0.178	0.159
-544.281	94.993	-0.336	-0.388
-543.266	-200.000	-0.020	-0.126
-542.252	285.038	-0.064	-0.116
-541.237	-168.323	0.348	0.014
-540.223	138.707	-0.066	-0.088
-539.208	-133.733	-0.126	-0.016
-538.193	-22.578	0.179	0.110
-537.179	800.000	0.089	0.341
-536.164	-108.341	0.235	-0.051
-535.150	-34.845	-0.030	-0.016
-534.135	-127.324	0.101	0.015
-533.121	-134.429	0.111	-0.014
-532.106	468.098	-0.065	-0.147
-531.091	800.000	0.008	0.034
-530.077	12.971	-0.208	0.163
-529.062	-94.447	0.184	0.051
-528.048	292.693	0.106	0.196
-527.033	-23.240	0.160	0.098
-526.018	-152.823	0.134	0.010
-525.004	42.406	0.351	0.324
-523.989	800.000	0.017	-0.064
-522.975	-45.726	-0.144	-0.072
-521.960	183.263	0.060	0.090
-520.945	-90.672	0.453	0.133
-519.931	-115.369	0.474	-0.091
-518.916	280.464	-0.038	0.070
-517.902	-200.000	0.021	-0.191
-516.887	-200.000	-0.019	-0.183
-515.872	-200.000	0.049	-0.295
-514.858	-100.353	0.100	0.025
-513.843	68.682	-0.102	0.106
-512.829	-98.777	-0.093	-0.024
-511.814	98.536	-0.115	0.134
-510.799	-65.692	-0.117	-0.048
-509.785	800.000	-0.097	-0.304
-508.770	-170.311	-0.128	0.005
-507.756	81.738	-0.227	0.249
-506.741	-200.000	-0.040	-0.241
-505.726	-66.747	-0.238	-0.096
-504.712	698.717	0.058	-0.155
-503.697	-49.559	0.075	0.036
-502.683	800.000	0.093	0.279
-501.668	514.221	0.086	-0.204
-500.653	124.144	-0.071	0.090
-499.639	71.210	-0.233	-0.245
-498.624	-149.261	-0.353	-0.029
-497.610	254.474	-0.122	0.211
-496.595	-127.711	-0.137	0.020
-495.581	800.000	0.063	-0.265
-494.566	-200.000	-0.020	-0.183
-493.551	-67.767	0.210	-0.083
-492.537	800.000	-0.053	-0.233
-491.522	-92.184	-0.199	-0.057
-490.508	375.780	-0.125	-0.257
-489.493	163.967	0.167	0.238
-488.478	800.000	-0.150	-0.483
-487.464	2.432	-0.190	-0.139
-486.449	-165.950	0.073	-0.003
-485.435	95.858	0.099	0.115
-484.420	-175.114	0.236	0.007
-483.405	-141.636	0.199	0.020
-482.391	-91.605	-0.216	-0.062
-481.376	103.681	0.228	0.271
-480.362	364.798	0.082	0.167
-479.347	134.854	-0.136	-0.179
-478.332	-61.728	0.273	-0.116
-477.318	270.935	-0.162	-0.289
-476.303	-51.781	0.398	-0.187
-475.289	-80.290	-0.239	-0.081
-474.274	-200.000	0.001	-0.220
-473.259	-124.272	-0.222	0.035
-472.245	-111.070	0.143	0.030
-471.230	-87.881	0.286	0.087
-470.216	-200.000	0.012	0.147
-469.201	-200.000	0.015	0.103
-468.186	-200.000	-0.334	-0.001
-467.172	176.216	0.101	-0.148
-466.157	45.266	-0.277	-0.258
-465.143	-200.000	-0.015	0.242
-464.128	-200.000	-0.012	0.350
-463.113	-113.175	0.147	-0.029
-462.099	-138.588	0.179	0.020
-461.084	25.177	-0.063	-0.053
-460.070	-96.212	0.141	0.038
-459.055	800.000	-0.025	0.081
-458.040	350.862	-0.078	0.156
-457.026	-42.682	-0.383	-0.197
-456.011	-200.000	0.021	0.143
-454.997	-27.603	0.367	-0.215
-453.982	-66.295	-0.100	0.040
-452.968	-200.000	-0.023	-0.226
-451.953	-16.434	0.233	0.149
-450.938	800.000	0.076	-0.273
-449.924	-200.000	0.013	0.069
-448.909	-200.000	-0.081	-0.389
-447.895	800.000	0.070	-0.285
-446.880	257.062	0.005	-0.008
-445.865	800.000	-0.044	0.136
-444.851	146.277	0.174	0.235
-443.836	12.590	0.428	-0.334
-442.822	110.576	-0.116	-0.141
-441.807	-200.000	0.018	0.261
-440.792	-200.000	-0.054	0.350
-439.778	-8.821	-0.261	0.177
-438.763	107.027	-0.045	0.054
-437.749	355.860	-0.100	-0.202
-436.734	-115.881	0.197	-0.037
-435.719	-200.000	-0.070	-0.360
-434.705	-136.185	0.345	0.041
-433.690	-86.688	0.177	-0.055
-432.676	-81.836	-0.237	0.078
-431.661	-88.353	0.191	-0.058
-430.646	-60.062	-0.383	0.165
-429.632	-182.155	0.483	0.009
-428.617	-200.000	-0.057	0.387
-427.603	59.630	0.180	0.179
-426.588	-200.000	-0.037	-0.214
-425.573	-200.000	0.012	0.099
-424.559	-35.809	0.207	0.113
-423.544	-51.106	0.238	0.113
-422.530	-13.471	-0.357	-0.234
-421.515	174.376	-0.060	0.087
-420.500	-14.713	0.091	0.059
-419.486	576.896	0.026	0.065
-418.471	800.000	0.105	-0.339
-417.457	-70.487	-0.081	0.031
-416.442	-200.000	0.095	0.428
-415.428	-6.139	0.164	-0.113
-414.413	-124.294	-0.068	-0.011
-413.398	320.451	0.068	-0.130
-412.384	-95.506	0.065	-0.018
-411.369	41.963	-0.165	0.151
-410.355	196.662	-0.061	-0.094
-409.340	-73.847	0.105	0.039
-408.325	219.989	-0.101	-0.164
-407.311	-95.604	0.308	0.083
-406.296	-115.404	0.195	-0.037
-405.282	-93.755	0.051	0.014
-404.267	800.000	-0.097	-0.350
-403.252	605.432	0.058	-0.147
-402.238	-28.682	-0.127	0.074
-401.223	503.869	0.143	0.333
-400.209	-200.000	-0.020	-0.282
-399.194	-200.000	-0.029	-0.400
-398.179	-200.000	0.028	-0.274
-397.165	-136.277	-0.163	0.019
-396.150	-110.820	-0.360	0.075
-395.136	-200.000	0.043	-0.291
-394.121	-88.486	0.137	-0.041
-393.106	65.954	-0.074	0.076
-392.092	-47.158	0.060	0.030
-391.077	-200.000	0.029	-0.396
-390.063	454.323	-0.085	0.191
-389.048	-50.492	-0.502	0.239
-388.033	-105.958	-0.080	-0.018
-387.019	-23.292	0.121	0.073
-386.004	78.241	0.243	0.261
-384.990	-200.000	0.062	0.323
-383.975	800.000	-0.070	0.223
-382.960	-114.178	-0.078	-0.015
-381.946	103.843	-0.086	-0.101
-380.931	-13.615	-0.102	0.067
-379.917	49.464	-0.319	0.302
-378.902	40.596	0.151	0.137
-377.888	377.484	-0.108	-0.222
-376.873	-200.000	-0.024	0.353
-375.858	-200.000	-0.010	-0.088
-374.844	-35.920	0.164	-0.090
-373.829	-113.154	0.170	-0.034
-372.815	266.056	0.220	0.387
-371.800	-145.271	-0.306	0.028
-370.785	-74.866	-0.314	-0.114
-369.771	-77.083	-0.132	0.046
-368.756	-200.000	0.038	0.212
-367.742	-110.174	-0.381	-0.080
-366.727	-200.000	0.032	0.367
-365.712	800.000	0.109	0.357
-364.698	-10.734	-0.028	0.018
-363.683	-7.748	-0.242	0.165
-362.669	21.832	-0.307	-0.252
-361.654	-200.000	-0.012	0.164
-360.639	-200.000	0.017	0.185
-359.625	-200.000	0.059	0.355
-358.610	-200.000	0.015	0.356
-357.596	-28.634	-0.186	-0.108
-356.581	-122.491	-0.351	0.058
-355.566	-43.639	-0.144	-0.073
-354.552	-116.855	0.064	0.012
-353.537	-7.632	0.292	0.199
-352.523	175.836	-0.110	0.160
-351.508	170.817	-0.075	-0.108
-350.493	-147.751	0.182	0.015
-349.479	-143.931	0.405	0.038
-348.464	372.974	-0.091	-0.187
-347.450	-164.580	0.490	0.022
-346.435	-52.210	-0.098	-0.046
-345.420	281.873	0.194	-0.350
-344.406	-77.810	-0.010	0.004
-343.391	-200.000	-0.013	-0.136
-342.377	-92.322	0.333	-0.094
-341.362	-147.482	-0.028	-0.002
-340.348	-200.000	0.013	0.346
-339.333	132.702	0.193	0.250
-338.318	149.011	-0.296	0.403
-337.304	-40.084	-0.197	0.103
-336.289	-100.390	0.127	-0.032
-335.275	-40.120	0.402	-0.211
-334.260	91.888	0.150	0.169
-333.245	-11.617	0.170	0.113
-332.231	800.000	-0.027	0.085
-331.216	-150.152	0.070	-0.005
-330.202	-195.392	0.352	0.003
-329.187	-102.681	0.199	0.048
-328.172	-200.000	0.042	0.363
-327.158	32.185	-0.098	0.085
-326.143	62.667	-0.128	-0.129
-325.129	103.109	0.265	0.313
-324.114	-200.000	-0.002	0.029
-323.099	40.253	-0.165	-0.149
-322.085	800.000	-0.049	0.167
-321.070	-113.143	0.102	0.020
-320.056	-149.660	0.326	-0.026
-319.041	-200.000	0.020	0.312
-318.026	-140.090	0.319	-0.034
-317.012	-17.064	0.214	-0.136
-315.997	800.000	0.147	-0.553
-314.983	324.461	0.096	-0.184
-313.968	-200.000	-0.064	-0.319
-312.953	546.267	0.099	-0.238
-311.939	-100.341	-0.096	0.024
-310.924	800.000	-0.015	-0.050
-309.910	-115.844	0.181	0.034
-308.895	168.668	-0.095	-0.136
-307.880	-200.000	-0.000	-0.197
-306.866	-133.632	-0.410	-0.051
-305.851	383.245	-0.158	-0.327
-304.837	298.847	0.042	-0.077
-303.822	-60.370	-0.327	-0.140
-302.807	-200.000	-0.060	0.325
-301.793	-64.873	-0.077	-0.032
-300.778	-93.594	-0.251	-0.070
-299.764	168.708	-0.090	0.129
-298.749	-124.478	-0.086	0.013
-297.735	787.428	-0.045	-0.124
-296.720	-57.515	0.153	-0.067
-295.705	-116.282	0.121	-0.023
-294.691	151.250	-0.105	0.143
-293.676	800.000	0.117	0.411
-292.662	51.771	0.100	-0.095
-291.647	28.535	0.459	-0.390
-290.632	17.758	0.214	-0.172
-289.618	315.083	-0.183	-0.347
-288.603	-29.099	0.117	-0.068
-287.589	-164.858	0.232	-0.010
-286.574	37.423	-0.085	0.076
-285.559	31.441	0.109	0.094
-284.545	-59.547	-0.318	0.137
-283.530	183.719	0.058	-0.086
-282.516	194.993	0.158	0.242
-281.501	108.908	-0.121	0.145
-280.486	50.671	0.402	-0.382
-279.472	206.144	-0.066	-0.104
-278.457	132.882	0.181	-0.235
-277.443	-200.000	-0.032	0.210
-276.428	-64.863	-0.251	-0.102
-275.413	-39.347	-0.320	0.169
-274.399	419.711	-0.133	0.285
-273.384	44.665	0.127	-0.117
-272.370	-200.000	0.088	0.416
-271.355	-25.492	0.468	0.278
-270.340	-180.477	-0.314	-0.007
-269.326	96.027	0.056	0.064
-268.311	800.000	0.032	0.106
-267.297	-200.000	0.004	0.122
-266.282	134.378	0.068	0.088
-265.267	-41.653	-0.220	-0.113
-264.253	-80.846	0.176	0.059
-263.238	-56.643	-0.327	0.146
-262.224	-107.785	0.195	0.043
-261.209	-160.016	-0.284	0.016
-260.195	310.294	-0.057	0.108
-259.180	800.000	0.095	-0.264
-258.165	-77.743	0.074	-0.026
-257.151	47.100	0.107	-0.100
-256.136	-11.115	0.073	0.048
-255.122	70.770	0.209	0.218
-254.107	233.272	-0.190	0.313
-253.092	-78.621	0.267	0.092
-252.078	-200.000	0.014	0.275
-251.063	-119.571	-0.241	-0.042
-250.049	52.054	-0.129	-0.123
-249.034	26.985	-0.142	-0.119
-248.019	455.958	-0.076	-0.170
-247.005	12.275	0.188	-0.145
-245.990	-200.000	0.045	-0.217
-244.976	193.851	0.188	0.285
-243.961	-200.000	0.006	0.266
-242.946	724.958	0.006	0.016
-241.932	-71.025	-0.034	0.013
-240.917	25.027	0.087	0.072
-239.903	-150.406	0.469	0.036
-238.888	-200.000	0.049	-0.314
-237.873	-200.000	0.021	0.107
-236.859	-23.970	0.021	-0.012
-235.844	12.321	0.036	-0.027
-234.830	800.000	0.055	-0.235
-233.815	37.983	0.159	0.142
-232.800	128.661	-0.188	0.240
-231.786	176.759	0.059	-0.086
-230.771	-120.223	0.257	0.044
-229.757	397.279	-0.173	0.362
-228.742	800.000	-0.080	0.240
-227.727	800.000	-0.019	0.082
-226.713	675.371	-0.176	0.458
-225.698	722.393	0.147	0.392
-224.684	-11.264	-0.458	0.302
-223.669	800.000	-0.112	-0.364
-222.655	100.768	-0.115	-0.134
-221.640	-86.895	0.179	-0.055
-220.625	333.011	0.062	-0.120
-219.611	-200.000	0.031	-0.165
-218.596	-111.120	-0.164	-0.034
-217.582	446.746	0.028	-0.061
-216.567	226.847	0.061	0.099
-215.552	43.456	0.172	0.157
-214.538	-13.931	0.346	0.224
-213.523	-180.724	-0.138	-0.003
-212.509	-200.000	0.005	0.096
-211.494	278.423	-0.055	-0.097
-210.479	130.831	-0.101	0.129
-209.465	-200.000	-0.010	-0.111
-208.450	-142.691	0.198	0.019
-207.436	-60.509	-0.193	-0.082
-206.421	212.041	0.212	-0.334
-205.406	65.911	-0.072	-0.073
-204.392	-50.746	-0.311	-0.147
-203.377	-148.833	-0.080	0.007
-202.363	-86.224	-0.384	0.118
-201.348	-200.000	0.003	-0.109
-200.333	25.566	-0.094	0.078
-199.319	800.000	-0.045	0.154
-198.304	138.588	-0.164	0.216
-197.290	309.686	0.178	-0.333
-196.275	-123.456	-0.361	0.058
-195.260	380.005	0.114	0.234
-194.246	-200.000	-0.084	0.436
-193.231	-184.391	-0.054	0.001
-192.217	-116.148	-0.420	0.078
-191.202	-172.445	-0.322	-0.010
-190.187	-200.000	-0.004	0.047
-189.173	150.668	-0.202	0.275
-188.158	19.776	0.129	0.104
-187.144	-200.000	-0.057	0.362
-186.129	-200.000	0.030	-0.202
-185.114	38.388	-0.162	-0.145
-184.100	800.000	0.023	0.065
-183.085	-168.091	-0.370	-0.014
-182.071	87.642	-0.166	-0.184
-181.056	-108.440	0.282	-0.061
-180.042	34.149	-0.169	0.147
-179.027	-93.816	-0.131	0.036
-178.012	-152.899	-0.163	0.012
-176.998	-200.000	-0.075	0.557
-175.983	155.116	-0.291	0.401
-174.969	-200.000	0.017	0.296
-173.954	14.505	0.111	0.086
-172.939	-144.571	0.188	-0.017
-171.925	-200.000	-0.023	0.175
-170.910	-152.780	0.207	-0.015
-169.896	646.093	0.174	-0.444
-168.881	-95.392	0.040	0.011
-167.866	-26.149	-0.106	0.062
-166.852	-55.054	0.223	0.101
-165.837	270.636	-0.047	-0.082
-164.823	800.000	0.068	-0.232
-163.808	233.357	0.164	-0.270
-162.793	347.714	0.089	-0.176
-161.779	451.132	-0.101	-0.224
-160.764	10.469	0.181	0.138
-159.750	765.271	0.049	-0.134
-158.735	194.414	0.101	0.154
-157.720	427.705	-0.133	0.287
-156.706	510.998	0.095	0.221
-155.691	800.000	-0.027	-0.080
-154.677	-200.000	0.005	0.188
-153.662	168.957	0.209	0.299
-152.647	-110.581	-0.024	-0.005
-151.633	-200.000	0.030	0.282
-150.618	107.615	0.160	0.190
-149.604	-110.913	-0.050	0.010
-148.589	-200.000	0.011	-0.137
-147.574	-11.286	0.150	0.099
-146.560	-98.683	-0.382	-0.097
-145.545	-57.854	0.321	0.140
-144.531	66.025	-0.213	-0.216
-143.516	212.548	0.097	0.153
-142.502	-200.000	-0.001	0.115
-141.487	-200.000	-0.006	0.055
-140.472	-107.813	0.226	-0.049
-139.458	800.000	-0.107	-0.327
-138.443	-106.177	0.313	-0.070
-137.429	-200.000	0.017	-0.245
-136.414	94.583	0.185	0.210
-135.399	74.223	0.104	-0.110
-134.385	41.384	0.041	-0.037
-133.370	800.000	-0.103	0.324
-132.356	-200.000	0.073	0.357
-131.341	-200.000	-0.048	-0.356
-130.326	-81.650	0.337	-0.111
-129.312	84.560	0.104	0.113
-128.297	-121.151	0.371	-0.062
-127.283	412.154	-0.138	-0.292
-126.268	-68.140	-0.241	-0.094
-125.253	132.267	-0.284	0.365
-124.239	-163.657	-0.227	-0.011
-123.224	151.023	-0.058	-0.078
-122.210	-200.000	0.070	0.430
-121.195	800.000	0.042	0.176
-120.180	37.708	-0.084	0.075
-119.166	-37.992	-0.287	-0.152
-118.151	-200.000	0.021	-0.114
-117.137	5.046	-0.185	-0.136
-116.122	20.879	-0.067	0.054
-115.107	-127.523	0.152	-0.022
-114.093	-200.000	-0.039	-0.292
-113.078	-41.719	0.221	-0.113
-112.064	-200.000	0.004	-0.077
-111.049	689.039	0.058	0.152
-110.034	209.500	-0.098	0.154
-109.020	-139.517	0.219	-0.023
-108.005	-78.394	0.128	-0.044
-106.991	632.132	0.020	-0.049
-105.976	56.085	0.138	-0.134
-104.962	-200.000	0.011	-0.099
-103.947	-125.041	-0.239	-0.037
-102.932	-200.000	0.026	-0.118
-101.918	155.349	0.135	0.185
-100.903	164.825	0.126	0.177
-99.889	-92.502	0.226	0.063
-98.874	800.000	0.078	-0.335
-97.859	-64.776	-0.063	-0.025
-96.845	26.805	-0.147	-0.123
-95.830	152.523	-0.176	-0.240
-94.816	39.516	0.213	-0.190
-93.801	7.168	-0.166	0.124
-92.786	-159.912	-0.126	-0.007
-91.772	-138.519	0.264	0.029
-90.757	800.000	-0.052	-0.211
-89.743	-200.000	-0.009	-0.044
-88.728	-186.774	0.326	0.005
-87.713	-37.406	0.405	0.216
-86.699	-134.944	0.113	0.014
-85.684	38.680	0.155	-0.138
-84.670	164.616	0.071	-0.100
-83.655	800.000	0.119	-0.414
-82.640	-86.860	-0.131	0.040
-81.626	-141.124	-0.220	0.022
-80.611	56.428	0.245	0.237
-79.597	151.599	-0.255	-0.346
-78.582	-137.049	-0.132	-0.015
-77.567	45.068	0.246	0.226
-76.553	-200.000	0.023	0.117
-75.538	-200.000	-0.084	0.423
-74.524	-186.510	-0.035	-0.000
-73.509	-128.115	0.114	-0.016
-72.494	-96.153	-0.185	0.049
-71.480	-200.000	0.273	-0.000
-70.465	154.060	0.029	-0.040
-69.451	-7.581	-0.216	0.145
-68.436	-200.000	-0.025	0.143
-67.422	-200.000	-0.019	-0.171
-66.407	-61.802	0.207	0.086
-65.392	517.115	-0.115	0.268
-64.378	-37.994	-0.331	0.175
-63.363	800.000	-0.032	-0.096
-62.349	219.698	-0.038	-0.061
-61.334	-64.522	-1.163	-0.470
-60.319	401.015	0.227	0.474
-59.305	-200.000	-0.030	-1.144
-58.290	694.208	0.221	0.578
-57.276	800.000	0.502	1.594
-56.261	-200.000	78.687	513.430
-55.246	495.666	1348.325	3084.844
-54.232	144.188	2590.714	3441.658
-53.217	112.398	2274.779	2739.631
-52.203	50.131	1798.664	1690.541
-51.188	43.149	1597.618	1451.501
-50.173	40.622	1566.808	1405.573
-49.159	56.756	1605.249	1555.800
-48.144	61.547	1625.399	1609.545
-47.130	43.615	1588.199	1446.047
-46.115	40.177	1573.462	1408.153
-45.100	40.080	1569.582	1403.936
-44.086	39.960	1567.184	1400.891
-43.071	39.854	1565.355	1398.444
-42.057	39.887	1563.678	1397.125
-41.042	39.948	1561.670	1395.706
-40.027	39.836	1560.401	1393.725
-39.013	39.823	1558.813	1392.166
-37.998	39.818	1557.774	1391.146
-36.984	39.801	1556.029	1389.407
-35.969	39.817	1555.090	1388.626
-34.954	39.942	1553.314	1387.865
-33.940	40.001	1551.894	1386.958
-32.925	39.827	1550.707	1384.620
-31.911	39.888	1549.266	1383.708
-30.896	39.973	1547.822	1382.954
-29.881	39.918	1546.544	1381.378
-28.867	39.928	1545.022	1380.030
-27.852	39.984	1543.659	1379.149
-26.838	39.991	1541.845	1377.521
-25.823	40.014	1540.144	1376.109
-24.809	39.907	1538.810	1374.119
-23.794	39.860	1537.577	1372.638
-22.779	39.913	1536.347	1371.848
-21.765	39.971	1535.097	1371.081
-20.750	39.881	1533.908	1369.339
-19.736	39.900	1532.699	1368.338
-18.721	39.919	1531.178	1367.059
-17.706	39.900	1530.383	1366.166
-16.692	40.015	1529.133	1365.790
-15.677	39.893	1527.881	1363.775
-14.663	39.800	1527.351	1362.604
-13.648	39.919	1525.354	1361.589
-12.633	39.803	1525.014	1360.432
-11.619	39.865	1524.278	1360.151
-10.604	39.888	1523.319	1359.401
-9.590	39.748	1522.738	1357.861
-8.575	39.790	1521.422	1356.923
-7.560	39.844	1520.572	1356.484
-6.546	39.753	1519.728	1355.053
-5.531	39.713	1519.215	1354.266
-4.517	39.811	1518.207	1353.984
-3.502	39.721	1516.736	1352.004
-2.487	39.923	1515.180	1351.945
-1.473	39.818	1514.549	1350.613
-0.458	39.841	1512.975	1349.312
0.556	38.972	1503.960	1339.474
1.571	36.012	1476.534	1295.072
2.586	31.430	1410.211	1207.284
3.600	28.063	1320.669	1110.124
4.615	25.084	1270.256	1050.228
5.629	20.776	1210.535	976.652
6.644	10.658	1118.937	849.946
7.659	2.514	1072.508	773.598
8.673	1.049	1066.468	761.808
9.688	0.919	1063.351	758.862
10.702	0.742	1062.138	757.043
11.717	0.801	1060.114	755.832
12.731	3.357	1062.841	770.501
13.746	11.626	1075.144	821.039
14.761	17.600	1081.648	856.037
15.775	17.832	1081.254	856.819
16.790	17.165	1078.861	851.502
17.804	16.049	1076.871	844.269
18.819	15.219	1074.997	838.576
19.834	14.746	1073.441	834.923
20.848	14.439	1072.373	832.484
21.863	14.075	1071.863	830.197
22.877	13.854	1070.773	828.179
23.892	13.689	1069.798	826.529
24.907	13.661	1069.194	825.850
25.921	13.578	1068.753	825.023
26.936	13.618	1067.401	824.102
27.950	13.585	1067.313	823.799
28.965	13.719	1066.229	823.557
29.980	13.692	1065.652	822.902
30.994	13.747	1064.732	822.392
32.009	13.893	1063.600	822.167
33.023	13.774	1063.198	821.196
34.038	13.867	1061.723	820.441
35.053	13.718	1061.088	819.144
36.067	13.810	1060.048	818.723
37.082	13.791	1058.944	817.702
38.096	13.776	1058.263	817.033
39.111	13.826	1057.457	816.580
40.126	13.808	1056.729	815.862
41.140	13.804	1055.386	814.731
42.155	13.612	1054.856	813.309
43.169	13.614	1054.355	812.858
44.184	13.598	1053.423	811.990
45.199	13.580	1051.890	810.649
46.213	13.629	1050.595	809.819
47.228	13.488	1050.372	808.887
48.242	13.658	1048.639	808.308
49.257	13.779	1047.587	808.018
50.271	13.742	1046.790	807.151
51.286	13.798	1045.802	806.590
52.301	13.740	1045.357	805.890
53.315	13.707	1044.182	804.758
54.330	13.875	1043.186	804.733
55.344	13.724	1042.737	803.582
56.359	13.603	1041.517	801.987
57.374	13.571	1040.877	801.264
58.388	13.612	1039.658	800.457
59.403	13.535	1039.218	799.672
60.417	13.524	1038.545	799.031
61.432	13.582	1037.699	798.588
62.447	13.521	1037.138	797.792
63.461	13.554	1036.219	797.175
64.476	13.490	1035.499	796.245
65.490	13.576	1034.334	795.692
66.505	13.666	1033.001	795.025
67.520	13.447	1033.048	793.939
68.534	13.539	1032.112	793.591
69.549	13.610	1031.174	793.142
70.563	13.741	1030.140	792.900
71.578	13.618	1029.610	791.835
72.593	13.455	1028.764	790.337
73.607	13.521	1027.747	789.799
74.622	13.363	1027.066	788.453
75.636	13.397	1026.565	788.160
76.651	13.501	1025.189	787.532
77.666	13.531	1024.491	787.069
78.680	13.511	1023.638	786.246
79.695	13.402	1023.701	785.708
80.709	13.546	1022.577	785.459
81.724	13.486	1022.015	784.672
82.739	13.565	1021.006	784.202
83.753	13.605	1020.288	783.771
84.768	13.567	1019.143	782.643
85.782	13.770	1018.603	783.117
86.797	13.832	1017.597	782.569
87.812	13.780	1016.804	781.643
88.826	13.714	1016.091	780.713
89.841	13.740	1015.432	780.263
90.855	13.719	1014.772	779.585
91.870	13.667	1013.647	778.408
92.884	13.698	1013.270	778.198
93.899	13.825	1012.062	777.796
94.914	13.725	1011.615	776.917
95.928	13.866	1010.731	776.825
96.943	13.763	1010.112	775.799
97.957	13.797	1009.287	775.259
98.972	13.793	1008.377	774.469
99.987	13.757	1007.663	773.686
101.001	13.756	1006.968	773.078
102.016	13.762	1006.389	772.593
103.030	13.721	1005.522	771.671
104.045	13.647	1004.493	770.468
105.060	13.813	1003.247	770.212
106.074	13.737	1002.200	768.989
107.089	13.725	1001.586	768.396
108.103	13.585	1001.116	767.318
109.118	13.729	999.721	766.850
110.133	13.570	998.988	765.485
111.147	13.677	997.755	764.962
112.162	13.633	997.521	764.513
113.176	13.693	996.349	763.825
114.191	13.657	995.553	762.982
115.206	13.670	994.515	762.178
116.220	13.654	993.898	761.562
117.235	13.652	993.044	760.835
118.249	13.622	991.964	759.802
119.264	13.666	990.841	759.077
120.279	13.633	990.162	758.337
121.293	13.673	989.835	758.202
122.308	13.610	989.182	757.346
123.322	13.578	988.330	756.483
124.337	13.654	987.126	755.842
125.352	13.512	986.084	754.328
126.366	13.636	984.891	753.915
127.381	13.692	983.712	753.196
128.395	13.602	982.947	752.137
129.410	13.583	982.090	751.328
130.424	13.731	980.707	750.876
131.439	13.608	980.414	750.026
132.454	13.788	979.465	750.050
133.468	13.698	978.906	749.146
134.483	13.705	978.067	748.471
135.497	13.787	977.152	748.071
136.512	13.699	976.464	747.084
137.527	13.739	975.766	746.664
138.541	13.907	974.690	746.529
139.556	13.779	974.185	745.502
140.570	13.846	973.217	744.998
141.585	13.772	972.588	744.119
142.600	13.803	972.100	743.818
143.614	13.924	970.725	743.240
144.629	13.866	970.282	742.575
145.643	13.872	969.524	741.956
146.658	13.966	968.738	741.711
147.673	13.897	968.041	740.804
148.687	13.700	967.216	739.227
149.702	13.791	965.912	738.571
150.716	13.781	964.680	737.520
151.731	13.833	964.215	737.327
152.746	13.865	963.528	736.881
153.760	13.792	962.711	735.868
154.775	13.855	962.159	735.660
155.789	13.824	961.285	734.789
156.804	13.869	960.415	734.257
157.819	13.905	959.535	733.677
158.833	13.808	959.304	733.010
159.848	13.930	958.118	732.576
160.862	13.935	958.026	732.463
161.877	14.078	957.174	732.378
162.892	13.860	956.351	730.721
163.906	13.830	955.590	729.946
164.921	13.936	954.570	729.565
165.935	13.968	953.322	728.687
166.950	13.966	952.527	728.006
167.964	14.030	951.390	727.353
168.979	13.960	950.789	726.526
169.994	13.951	949.849	725.701
171.008	13.917	949.306	725.076
172.023	13.889	948.375	724.176
173.037	13.969	947.580	723.857
174.052	13.867	947.317	723.144
175.067	14.037	946.001	722.818
176.081	13.915	945.372	721.744
177.096	13.976	944.674	721.412
178.110	13.929	943.673	720.377
179.125	14.013	943.295	720.392
180.140	13.884	942.535	719.185
181.154	13.991	941.449	718.756
182.169	14.090	940.672	718.527
183.183	14.141	940.057	718.214
184.198	14.182	939.014	717.531
185.213	14.211	938.579	717.262
186.227	14.155	937.865	716.410
187.242	14.098	937.622	715.915
188.256	14.109	936.942	715.379
189.271	14.247	936.199	715.344
190.286	14.219	935.307	714.478
191.300	14.215	934.404	713.708
192.315	14.292	933.787	713.504
193.329	14.146	933.348	712.479
194.344	14.116	932.234	711.439
195.359	14.079	932.035	711.064
196.373	14.194	931.090	710.774
197.388	14.185	930.798	710.450
198.402	14.297	930.136	710.358
199.417	14.390	929.916	710.526
200.432	14.446	929.847	710.646
201.446	14.392	928.885	709.620
202.461	14.349	928.564	709.129
203.475	14.427	927.868	708.867
204.490	14.405	927.085	708.111
205.504	14.434	926.518	707.740
206.519	14.557	925.565	707.471
207.534	14.416	925.293	706.600
208.548	14.434	923.946	705.585
209.563	14.404	923.436	705.006
210.577	14.393	922.457	704.149
211.592	14.431	922.065	703.950
212.607	14.455	921.639	703.665
213.621	14.539	920.736	703.266
214.636	14.596	920.204	703.036
215.650	14.517	919.827	702.357
216.665	14.533	919.028	701.749
217.680	14.589	918.529	701.543
218.694	14.668	917.933	701.356
219.709	14.793	917.239	701.288
220.723	14.682	916.560	700.241
221.738	14.686	916.128	699.867
222.753	14.668	915.182	699.008
223.767	14.694	914.387	698.446
224.782	14.730	913.801	698.087
225.796	14.659	913.427	697.443
226.811	14.818	912.279	697.169
227.826	14.791	911.674	696.534
228.840	14.773	910.813	695.738
229.855	14.640	910.579	694.945
230.869	14.722	910.015	694.793
231.884	14.812	909.176	694.465
232.899	14.704	908.271	693.263
233.913	14.685	907.813	692.774
234.928	14.753	907.093	692.447
235.942	14.533	906.694	691.167
236.957	14.788	905.656	691.373
237.972	14.823	904.890	690.872
238.986	14.702	904.491	690.005
240.001	14.728	903.645	689.404
241.015	14.776	902.682	688.807
242.030	14.797	902.094	688.384
243.045	14.936	901.456	688.409
244.059	14.901	901.096	687.927
245.074	14.780	900.607	686.997
246.088	14.892	899.963	686.904
247.103	14.956	899.430	686.700
248.117	14.985	898.449	686.009
249.132	14.816	898.206	685.071
250.147	14.995	897.736	685.384
251.161	15.226	896.476	685.307
252.176	15.086	896.086	684.377
253.190	15.240	894.992	684.110
254.205	15.180	894.461	683.396
255.220	15.157	894.377	683.178
256.234	15.376	893.148	683.071
257.249	15.284	892.892	682.438
258.263	15.308	892.296	682.020
259.278	15.132	891.833	680.895
260.293	15.297	891.118	680.957
261.307	15.190	890.827	680.238
262.322	15.344	890.321	680.419
263.336	15.390	889.159	679.657
264.351	15.426	888.611	679.324
265.366	15.402	887.983	678.684
266.380	15.340	887.761	678.206
267.395	15.458	886.499	677.659
268.409	15.419	885.943	677.016
269.424	15.502	885.304	676.800
270.439	15.617	884.437	676.542
271.453	15.545	883.724	675.646
272.468	15.464	883.037	674.738
273.482	15.506	882.380	674.343
274.497	15.467	881.715	673.619
275.512	15.497	881.200	673.287
276.526	15.388	880.953	672.602
277.541	15.455	880.069	672.134
278.555	15.541	879.151	671.719
279.570	15.619	878.577	671.533
280.585	15.716	877.782	671.253
281.599	15.623	877.566	670.658
282.614	15.560	877.010	669.921
283.628	15.551	876.852	669.704
284.643	15.590	875.567	668.821
285.657	15.615	875.280	668.642
286.672	15.545	875.044	668.123
287.687	15.618	874.525	667.956
288.701	15.628	874.011	667.546
289.716	15.645	873.381	667.075
290.730	15.832	872.374	666.987
291.745	15.553	872.146	665.646
292.760	15.777	871.302	665.830
293.774	15.839	870.568	665.457
294.789	15.764	870.260	664.864
295.803	15.831	869.264	664.310
296.818	15.811	869.062	664.020
297.833	15.824	868.268	663.402
298.847	15.708	867.447	662.263
299.862	15.957	866.511	662.465
300.876	15.849	865.965	661.566
301.891	15.944	865.336	661.399
302.906	16.019	864.785	661.216
303.920	15.989	863.824	660.306
304.935	16.005	863.189	659.824
305.949	16.119	862.542	659.715
306.964	16.177	861.944	659.427
307.979	16.138	861.228	658.669
308.993	16.076	860.983	658.183
310.008	16.031	860.755	657.773
311.022	16.044	860.249	657.380
312.037	16.174	859.510	657.263
313.052	16.139	859.216	656.844
314.066	16.140	858.267	656.065
315.081	16.014	858.048	655.346
316.095	16.047	857.158	654.740
317.110	16.143	856.757	654.745
318.125	16.128	855.956	654.017
319.139	16.082	855.834	653.689
320.154	16.113	855.069	653.169
321.168	16.129	854.320	652.601
322.183	16.302	853.780	652.799
323.197	16.225	853.655	652.348
324.212	16.276	852.754	651.798
325.227	16.185	852.465	651.168
326.241	16.269	851.842	650.957
327.256	16.192	851.268	650.167
328.270	16.310	850.335	649.847
329.285	16.226	850.020	649.230
330.300	16.361	849.187	649.052
331.314	16.210	848.966	648.245
332.329	16.215	848.244	647.658
333.343	16.358	847.592	647.651
334.358	16.336	847.034	647.080
335.373	16.537	846.443	647.342
336.387	16.465	845.868	646.570
337.402	16.433	845.550	646.147
338.416	16.359	844.749	645.196
339.431	16.455	844.456	645.280
340.446	16.399	844.152	644.779
341.460	16.444	843.022	644.031
342.475	16.562	842.332	643.895
343.489	16.616	841.990	643.781
344.504	16.649	841.733	643.653
345.519	16.622	840.756	642.746
346.533	16.613	840.194	642.226
347.548	16.693	839.958	642.293
348.562	16.679	839.395	641.753
349.577	16.681	838.894	641.320
350.592	16.693	838.092	640.697
351.606	16.639	837.632	640.084
352.621	16.649	837.237	639.762
353.635	16.634	836.913	639.403
354.650	16.682	836.291	639.051
355.665	16.748	836.037	639.049
356.679	16.748	835.463	638.555
357.694	16.731	834.926	638.025
358.708	16.838	834.359	637.937
359.723	16.728	833.792	637.033
360.738	16.701	833.197	636.420
361.752	16.675	832.857	636.008
362.767	16.656	832.473	635.586
363.781	16.937	831.959	636.193
364.796	16.949	831.378	635.737
365.810	16.890	831.228	635.345
366.825	16.929	830.746	635.065
367.840	17.000	830.310	634.943
368.854	16.962	829.561	634.172
369.869	16.828	829.608	633.648
370.883	16.913	828.864	633.344
371.898	17.071	827.943	633.174
372.913	17.057	827.489	632.717
373.927	17.111	827.254	632.682
374.942	17.152	826.350	632.087
375.956	17.149	825.480	631.357
376.971	17.057	825.370	630.873
377.986	17.181	824.866	630.891
379.000	17.150	824.205	630.217
380.015	17.284	823.524	630.138
381.029	17.312	823.054	629.823
382.044	17.067	822.987	628.810
383.059	17.302	821.804	628.721
384.073	17.279	821.600	628.425
385.088	17.196	821.276	627.813
386.102	17.175	820.856	627.358
387.117	17.135	819.923	626.445
388.132	17.102	819.758	626.138
389.146	17.167	818.977	625.725
390.161	17.261	818.551	625.694
391.175	17.240	818.299	625.366
392.190	17.283	817.844	625.120
393.205	17.260	817.440	624.673
394.219	17.248	817.232	624.417
395.234	17.234	816.694	623.896
396.248	17.242	815.948	623.303
397.263	17.266	815.377	622.899
398.278	17.201	814.910	622.250
399.292	17.142	814.913	621.978
400.307	17.306	814.018	621.841
401.321	17.290	813.951	621.675
402.336	17.261	813.555	621.213
403.350	17.229	813.093	620.688
404.365	17.505	812.341	621.068
405.380	17.464	811.998	620.599
406.394	17.444	811.625	620.187
407.409	17.512	810.799	619.748
408.423	17.599	810.493	619.774
409.438	17.791	809.831	619.911
410.453	17.617	809.861	619.248
411.467	17.614	809.098	618.599
412.482	17.588	808.933	618.323
413.496	17.723	808.149	618.159
414.511	17.844	807.452	618.010
415.526	17.684	807.756	617.607
416.540	17.530	807.535	616.828
417.555	17.732	807.174	617.226
418.569	17.831	806.071	616.687
419.584	17.711	805.586	615.830
420.599	17.633	805.577	615.485
421.613	95.764	1270.895	1393.608
422.628	82.080	1338.720	1393.736
