DTS Sentinel unit serial number:	SN413079Multiplexer serial number:	ORYXHardware model number:	OX4-SRSoftware version number:	ORYX F/W v4.00 Oryx Data Collector v3.7.2.0data status	okinstallation	princeton_trtdifferential loss correction	single-endedforward channel	channel 3reverse channel	N/Adate	2019/09/18time	10:00:34forward acquisition time	60.00reverse acquisition time	0.00gamma	496.2192k internal	0.2333k external	0.2333temperature offset calibration	0.9950default loss term (dB/km)	0.3790temperature slope calibration	1.0000multiplexer offset coefficient	1.0000multiplexer slope coefficient	1.0000fibre end	0.00T internal ref (°C)	27.44T ext. ref 1 (°C)	0.31T ext. ref 2 (°C)	23.98length (m)	temperature (°C)	Stokes	anti-Stokes-747.200	-11.378	-0.164	0.109
-746.185	800.000	0.053	0.226
-745.171	-90.971	-0.191	-0.055
-744.156	-101.354	-0.201	-0.049
-743.142	-200.000	-0.012	0.412
-742.127	128.265	-0.169	-0.216
-741.112	343.997	-0.193	0.380
-740.098	-117.775	0.216	-0.039
-739.083	-144.124	-0.492	0.046
-738.069	-200.000	0.021	0.335
-737.054	156.190	0.209	-0.290
-736.039	46.601	-0.109	0.101
-735.025	153.385	0.092	0.127
-734.010	140.481	-0.198	-0.262
-732.996	190.798	-0.134	-0.202
-731.981	800.000	0.029	-0.123
-730.966	-200.000	0.019	-0.185
-729.952	-200.000	-0.261	0.001
-728.937	501.249	0.074	0.171
-727.923	108.361	0.095	-0.114
-726.908	800.000	-0.076	0.298
-725.894	-83.005	-0.348	-0.113
-724.879	152.883	0.186	-0.255
-723.864	32.203	-0.088	-0.076
-722.850	-200.000	-0.027	0.311
-721.835	-200.000	0.019	0.185
-720.821	-3.640	-0.141	0.099
-719.806	594.989	0.023	0.056
-718.791	39.902	0.025	-0.022
-717.777	-100.282	-0.116	-0.029
-716.762	-200.000	-0.009	-0.150
-715.748	6.508	-0.164	0.122
-714.733	-200.000	0.012	0.324
-713.718	-122.068	-0.200	-0.033
-712.704	198.540	-0.081	-0.124
-711.689	800.000	-0.081	-0.247
-710.675	-135.200	-0.567	0.068
-709.660	-122.930	0.076	0.012
-708.645	-200.000	0.045	-0.242
-707.631	-65.332	0.320	0.129
-706.616	-158.675	0.151	-0.009
-705.602	471.664	-0.152	-0.343
-704.587	38.599	-0.233	0.209
-703.572	-88.460	-0.309	0.093
-702.558	-200.000	-0.022	-0.168
-701.543	800.000	0.096	-0.302
-700.529	-200.000	-0.015	0.206
-699.514	-200.000	0.044	-0.316
-698.499	800.000	-0.129	-0.360
-697.485	-197.878	0.296	-0.002
-696.470	148.497	-0.263	0.357
-695.456	-200.000	0.040	0.242
-694.441	-15.134	0.221	-0.142
-693.426	331.114	-0.090	-0.175
-692.412	29.607	-0.127	-0.108
-691.397	-58.991	-0.157	-0.068
-690.383	-129.941	0.230	0.032
-689.368	0.984	-0.018	0.013
-688.354	-200.000	0.015	-0.284
-687.339	614.988	0.062	-0.155
-686.324	112.547	-0.155	-0.188
-685.310	-100.770	0.228	0.056
-684.295	800.000	0.040	0.116
-683.281	69.631	-0.138	-0.142
-682.266	-10.961	0.111	-0.073
-681.251	61.346	-0.197	0.196
-680.237	800.000	0.048	0.191
-679.222	-103.581	-0.387	0.091
-678.208	-200.000	0.010	0.292
-677.193	-25.953	0.068	-0.040
-676.178	-33.725	-0.093	-0.052
-675.164	-86.998	0.172	-0.053
-674.149	-14.873	-0.177	0.114
-673.135	49.490	-0.343	0.323
-672.120	47.370	0.455	-0.425
-671.105	-63.902	0.274	0.113
-670.091	-38.722	-0.296	-0.157
-669.076	126.752	-0.069	0.088
-668.062	-27.461	-0.120	0.070
-667.047	-61.650	-0.182	0.077
-666.032	-68.925	-0.178	0.069
-665.018	-200.000	0.106	-0.515
-664.003	536.836	-0.171	0.407
-662.989	292.237	0.028	-0.051
-661.974	285.329	-0.111	-0.200
-660.959	-55.989	-0.123	0.055
-659.945	89.174	0.113	-0.126
-658.930	-84.082	-0.160	-0.051
-657.916	537.690	-0.196	0.468
-656.901	-200.000	0.001	0.017
-655.886	-200.000	0.020	0.156
-654.872	182.783	0.253	0.374
-653.857	46.173	-0.126	-0.117
-652.843	-200.000	-0.012	-0.089
-651.828	-64.798	0.082	-0.033
-650.814	-200.000	-0.025	-0.222
-649.799	800.000	0.089	-0.309
-648.784	-110.739	-0.212	-0.044
-647.770	-175.526	-0.176	0.005
-646.755	800.000	-0.023	0.084
-645.741	-3.840	0.091	0.063
-644.726	-81.412	-0.227	-0.075
-643.711	-142.275	0.364	0.036
-642.697	-116.911	0.144	-0.026
-641.682	800.000	-0.065	-0.199
-640.668	-58.047	0.226	-0.099
-639.653	-85.900	-0.223	-0.069
-638.638	-109.799	0.304	0.064
-637.624	114.320	-0.203	-0.248
-636.609	-57.170	-0.112	-0.049
-635.595	-62.470	-0.028	-0.012
-634.580	-124.755	0.122	0.019
-633.565	800.000	-0.077	0.295
-632.551	-37.194	-0.163	0.087
-631.536	-83.895	-0.048	0.015
-630.522	653.758	-0.060	-0.153
-629.507	84.035	0.200	-0.219
-628.492	-54.163	-0.271	-0.123
-627.478	5.555	0.122	0.090
-626.463	399.759	-0.083	-0.175
-625.449	-200.000	0.002	-0.170
-624.434	-117.355	-0.261	0.047
-623.419	45.706	-0.264	0.244
-622.405	565.797	-0.131	0.319
-621.390	313.795	-0.140	-0.263
-620.376	0.865	-0.102	0.073
-619.361	18.597	0.275	0.220
-618.346	565.240	0.189	-0.459
-617.332	-49.085	-0.203	0.097
-616.317	175.273	0.195	-0.282
-615.303	81.829	0.142	-0.154
-614.288	12.471	-0.121	-0.094
-613.273	800.000	0.018	0.068
-612.259	800.000	0.015	-0.049
-611.244	5.893	-0.442	0.327
-610.230	99.147	0.024	0.028
-609.215	170.418	0.221	0.317
-608.201	217.273	-0.137	0.219
-607.186	-200.000	0.011	-0.184
-606.171	-200.000	-0.002	0.178
-605.157	-86.874	0.416	-0.127
-604.142	-200.000	0.025	0.150
-603.128	597.842	-0.078	0.193
-602.113	-200.000	0.021	-0.141
-601.098	-156.857	-0.033	-0.002
-600.084	-200.000	0.042	-0.254
-599.069	-200.000	-0.021	0.148
-598.055	-61.256	0.401	-0.169
-597.040	800.000	0.052	-0.209
-596.025	2.702	-0.171	0.124
-595.011	-200.000	-0.033	-0.216
-593.996	-18.069	-0.406	-0.254
-592.982	-200.000	-0.036	-0.287
-591.967	-50.309	-0.704	0.333
-590.952	10.527	0.156	0.119
-589.938	-15.680	-0.170	-0.108
-588.923	224.411	0.073	-0.119
-587.909	148.214	0.173	0.233
-586.894	-78.122	-0.240	0.083
-585.879	188.768	-0.038	0.057
-584.865	-40.664	-0.147	-0.076
-583.850	-7.717	0.141	0.095
-582.836	14.332	0.100	0.078
-581.821	-125.364	-0.163	-0.025
-580.806	-200.000	0.008	-0.107
-579.792	478.189	-0.072	0.163
-578.777	-103.148	0.103	-0.024
-577.763	-100.518	-0.049	-0.012
-576.748	97.052	0.112	-0.128
-575.733	226.010	-0.056	0.091
-574.719	-200.000	0.106	-0.517
-573.704	138.871	-0.044	0.057
-572.690	-200.000	-0.021	0.186
-571.675	144.057	-0.046	-0.062
-570.661	-23.972	-0.187	0.112
-569.646	14.873	0.020	0.016
-568.631	31.805	0.147	-0.127
-567.617	431.212	0.111	-0.241
-566.602	-5.042	0.140	0.096
-565.588	-43.395	-0.449	-0.227
-564.573	130.442	-0.173	0.222
-563.558	141.552	0.021	0.027
-562.544	-71.276	-0.081	-0.030
-561.529	-120.563	0.218	0.037
-560.515	-200.000	0.054	-0.297
-559.500	284.120	-0.060	-0.108
-558.485	78.688	0.119	0.127
-557.471	-200.000	-0.064	0.299
-556.456	-200.000	-0.033	0.202
-555.442	-98.668	0.317	-0.081
-554.427	42.043	0.146	0.132
-553.412	-200.000	-0.046	-0.253
-552.398	-186.997	-0.148	-0.002
-551.383	-26.133	-0.202	-0.119
-550.369	800.000	-0.067	-0.242
-549.354	-200.000	0.005	-0.031
-548.339	99.026	0.155	-0.179
-547.325	462.221	-0.166	0.369
-546.310	800.000	0.009	0.029
-545.296	800.000	-0.018	0.073
-544.281	124.704	0.053	0.066
-543.266	-115.159	-0.367	-0.069
-542.252	54.178	-0.054	0.052
-541.237	-31.320	-0.259	0.145
-540.223	102.466	-0.232	0.271
-539.208	-101.606	-0.125	0.030
-538.193	218.382	-0.116	-0.185
-537.179	-82.092	0.314	0.102
-536.164	15.440	-0.252	-0.197
-535.150	800.000	0.065	0.219
-534.135	40.805	0.248	0.223
-533.121	144.681	0.288	0.384
-532.106	-200.000	-0.015	0.258
-531.091	162.607	-0.252	0.352
-530.077	184.849	0.131	0.193
-529.062	82.746	-0.044	-0.048
-528.048	137.323	-0.094	0.122
-527.033	-9.402	-0.197	0.131
-526.018	201.411	0.131	0.201
-525.004	-137.777	-0.235	-0.026
-523.989	-91.016	0.416	-0.119
-522.975	-200.000	-0.019	0.198
-521.960	254.570	-0.154	0.262
-520.945	-92.825	0.449	0.125
-519.931	-200.000	-0.024	-0.194
-518.916	-128.547	0.169	0.024
-517.902	-94.398	-0.068	0.018
-516.887	231.601	-0.116	-0.189
-515.872	20.657	0.046	-0.037
-514.858	50.109	0.197	-0.185
-513.843	244.737	0.067	0.113
-512.829	99.214	-0.176	-0.203
-511.814	82.564	-0.233	-0.253
-510.799	439.902	-0.026	0.056
-509.785	201.677	0.106	-0.162
-508.770	215.247	-0.066	0.105
-507.756	-85.998	-0.086	0.026
-506.741	-3.949	-0.148	0.102
-505.726	261.378	0.149	-0.257
-504.712	50.574	0.280	0.264
-503.697	-82.232	-0.172	0.056
-502.683	-200.000	-0.021	-0.213
-501.668	-200.000	-0.022	-0.106
-500.653	-200.000	0.014	-0.104
-499.639	-200.000	-0.018	0.186
-498.624	-144.032	0.040	0.004
-497.610	-200.000	0.034	0.186
-496.595	800.000	0.012	0.043
-495.581	754.627	0.040	0.108
-494.566	800.000	0.010	-0.037
-493.551	568.579	-0.185	-0.448
-492.537	-200.000	0.030	0.190
-491.522	-200.000	0.015	0.209
-490.508	305.741	-0.081	0.150
-489.493	-157.314	0.099	0.006
-488.478	800.000	-0.061	0.178
-487.464	800.000	0.034	-0.146
-486.449	-13.029	-0.172	0.111
-485.435	800.000	0.085	-0.239
-484.420	800.000	-0.055	-0.186
-483.405	-200.000	0.030	0.191
-482.391	-51.338	0.058	-0.027
-481.376	-52.496	0.194	0.089
-480.362	9.274	0.391	0.294
-479.347	800.000	-0.041	-0.161
-478.332	127.618	0.264	0.334
-477.318	325.822	-0.093	-0.176
-476.303	-65.899	-0.032	0.013
-475.289	-200.000	0.006	0.186
-474.274	9.846	0.011	-0.009
-473.259	-50.623	-0.214	0.100
-472.245	-135.696	0.116	0.014
-471.230	-200.000	0.020	0.223
-470.216	-49.492	0.578	-0.274
-469.201	-14.703	-0.060	-0.038
-468.186	-194.693	-0.303	0.002
-467.172	83.756	0.222	0.240
-466.157	292.487	0.083	0.150
-465.143	-56.688	-0.189	-0.083
-464.128	-131.015	0.051	-0.007
-463.113	-200.000	0.021	0.126
-462.099	-83.068	-0.170	0.055
-461.084	116.886	0.182	-0.223
-460.070	-200.000	-0.347	0.002
-459.055	28.600	0.260	-0.219
-458.040	-131.729	0.242	-0.032
-457.026	-97.702	-0.307	0.079
-456.011	45.883	-0.104	0.095
-454.997	-29.498	0.244	0.138
-453.982	180.998	0.171	0.249
-452.968	-200.000	0.024	-0.109
-451.953	-60.180	-0.197	-0.084
-450.938	-131.622	0.149	0.019
-449.924	-124.504	-0.374	-0.058
-448.909	-51.953	-0.261	-0.120
-447.895	-188.730	-0.232	-0.003
-446.880	800.000	0.077	0.285
-445.865	69.022	-0.091	-0.093
-444.851	495.491	0.081	-0.186
-443.836	117.435	0.092	-0.113
-442.822	-200.000	0.028	-0.236
-441.807	-200.000	0.013	-0.375
-440.792	389.886	0.111	-0.228
-439.778	693.207	-0.162	-0.423
-438.763	140.604	-0.105	-0.137
-437.749	-7.049	0.086	-0.058
-436.734	-127.105	-0.154	0.022
-435.719	-200.000	0.015	-0.323
-434.705	800.000	-0.073	-0.245
-433.690	-34.878	-0.056	-0.030
-432.676	-100.122	-0.066	0.016
-431.661	-162.850	-0.116	0.006
-430.646	-0.370	0.233	-0.164
-429.632	-13.211	-0.179	0.115
-428.617	-190.378	0.072	0.001
-427.603	-200.000	-0.001	0.046
-426.588	288.256	0.142	0.256
-425.573	-50.833	0.212	-0.099
-424.559	1.218	0.213	0.152
-423.544	-183.594	-0.530	-0.009
-422.530	38.400	0.312	-0.276
-421.515	-37.264	0.239	-0.127
-420.500	357.769	-0.082	0.162
-419.486	-63.047	0.301	0.123
-418.471	800.000	0.081	0.246
-417.457	-126.937	0.230	0.034
-416.442	-200.000	-0.003	-0.015
-415.428	-200.000	0.020	-0.164
-414.413	46.376	-0.050	-0.046
-413.398	800.000	-0.028	-0.103
-412.384	-200.000	0.021	0.146
-411.369	208.897	-0.226	0.351
-410.355	-27.743	0.154	-0.089
-409.340	46.046	-0.230	0.211
-408.325	-200.000	0.034	0.165
-407.311	-96.209	0.087	0.023
-406.296	-49.803	-0.402	-0.189
-405.282	-194.315	0.128	0.001
-404.267	-98.639	0.154	0.039
-403.252	-76.693	0.118	-0.041
-402.238	-21.582	-0.307	-0.185
-401.223	366.269	0.059	0.118
-400.209	-128.363	-0.269	-0.038
-399.194	-27.569	-0.094	0.054
-398.179	324.397	-0.134	0.254
-397.165	-145.377	-0.396	0.035
-396.150	157.067	0.119	-0.164
-395.136	-200.000	0.021	-0.144
-394.121	83.194	0.020	-0.021
-393.106	800.000	0.069	0.229
-392.092	-30.618	0.189	0.106
-391.077	80.693	0.155	0.166
-390.063	106.318	-0.301	-0.353
-389.048	-48.942	0.371	-0.176
-388.033	123.326	0.101	-0.125
-387.019	-36.467	0.117	-0.062
-386.004	-101.374	-0.049	0.012
-384.990	-164.923	0.137	0.006
-383.975	22.768	0.217	-0.176
-382.960	800.000	0.114	0.411
-381.946	108.667	-0.127	0.150
-380.931	-60.344	-0.207	-0.087
-379.917	-153.214	0.160	-0.011
-378.902	-4.943	-0.039	0.027
-377.888	-200.000	-0.003	0.122
-376.873	250.244	-0.060	0.101
-375.858	562.476	-0.054	0.128
-374.844	-120.417	-0.219	0.037
-373.829	-72.765	0.161	-0.059
-372.815	188.009	-0.163	-0.241
-371.800	-200.000	-0.008	0.430
-370.785	-124.097	0.223	-0.035
-369.771	-98.340	-0.104	-0.026
-368.756	701.092	0.061	-0.160
-367.742	364.055	0.060	0.119
-366.727	54.429	-0.091	0.087
-365.712	247.725	-0.207	0.346
-364.698	-82.838	-0.064	0.020
-363.683	435.282	-0.027	-0.058
-362.669	-200.000	-0.011	-0.183
-361.654	141.192	0.134	-0.175
-360.639	-153.510	-0.195	-0.013
-359.625	704.450	-0.070	-0.184
-358.610	53.931	-0.099	-0.094
-357.596	21.069	-0.207	0.166
-356.581	165.686	0.258	-0.362
-355.566	20.633	0.158	-0.126
-354.552	67.197	-0.184	-0.186
-353.537	-109.637	0.260	-0.054
-352.523	-200.000	-0.030	0.255
-351.508	-77.973	-0.164	-0.056
-350.493	-200.000	-0.017	-0.076
-349.479	-6.129	0.323	0.218
-348.464	-200.000	0.006	0.175
-347.450	-39.639	-0.295	0.153
-346.435	-200.000	0.046	0.237
-345.420	-45.649	0.235	0.115
-344.406	-94.738	-0.087	0.023
-343.391	128.088	0.070	-0.088
-342.377	-18.891	-0.189	-0.117
-341.362	116.916	-0.236	-0.286
-340.348	-140.352	-0.037	0.004
-339.333	-93.277	-0.341	0.094
-338.318	583.619	0.105	0.255
-337.304	-53.954	0.174	-0.078
-336.289	-96.030	-0.281	-0.074
-335.275	-79.282	0.116	0.039
-334.260	-200.000	-0.037	-0.284
-333.245	66.017	-0.157	-0.158
-332.231	-200.000	-0.019	-0.303
-331.216	-200.000	-0.076	-0.338
-330.202	-44.686	-0.110	-0.054
-329.187	5.250	0.264	0.193
-328.172	-46.981	-0.185	0.090
-327.158	-99.459	0.114	0.028
-326.143	247.130	0.216	-0.361
-325.129	176.732	-0.046	-0.066
-324.114	215.604	-0.042	-0.066
-323.099	118.018	-0.149	0.182
-322.085	-147.630	0.105	0.009
-321.070	-200.000	0.039	-0.467
-320.056	150.739	0.146	0.196
-319.041	800.000	0.106	-0.301
-318.026	-147.729	0.229	-0.019
-317.012	356.054	-0.090	-0.177
-315.997	-177.933	0.288	0.007
-314.983	190.515	0.041	0.061
-313.968	-35.429	0.148	-0.079
-312.953	-101.597	-0.469	0.113
-311.939	92.915	0.043	0.048
-310.924	800.000	0.030	0.090
-309.910	-109.766	-0.268	-0.056
-308.895	-200.000	0.008	-0.288
-307.880	563.304	0.077	-0.184
-306.866	800.000	0.085	0.270
-305.851	-184.257	-0.054	0.001
-304.837	800.000	0.048	0.178
-303.822	209.246	0.175	0.271
-302.807	-101.846	-0.273	0.065
-301.793	200.379	0.236	0.358
-300.778	-105.251	0.246	0.055
-299.764	-200.000	0.026	-0.264
-298.749	-110.478	-0.183	0.037
-297.735	-174.331	-0.255	-0.007
-296.720	-200.000	0.038	0.340
-295.705	145.601	0.138	-0.182
-294.691	82.209	-0.131	-0.140
-293.676	81.781	0.216	0.231
-292.662	545.316	-0.050	-0.118
-291.647	507.258	0.025	-0.057
-290.632	335.914	0.168	0.322
-289.618	-72.820	-0.091	0.033
-288.603	177.618	-0.122	-0.176
-287.589	800.000	0.177	0.496
-286.574	141.502	-0.304	-0.397
-285.559	-140.648	0.226	0.023
-284.545	-30.899	0.185	0.103
-283.530	-200.000	-0.006	-0.068
-282.516	-187.965	0.073	0.001
-281.501	-61.648	-0.069	-0.029
-280.486	-29.214	-0.199	-0.113
-279.472	-122.453	0.162	0.026
-278.457	800.000	-0.167	-0.533
-277.443	-33.386	0.164	0.090
-276.428	-43.105	-0.163	-0.082
-275.413	-123.742	0.194	0.030
-274.399	178.687	-0.066	0.095
-273.384	-44.938	0.185	-0.091
-272.370	-3.032	0.171	-0.118
-271.355	727.527	0.050	0.132
-270.340	190.279	0.179	0.265
-269.326	55.415	0.191	0.182
-268.311	-132.200	-0.382	0.049
-267.297	-200.000	-0.004	0.052
-266.282	800.000	-0.117	0.405
-265.267	800.000	0.057	-0.176
-264.253	-200.000	-0.079	-0.360
-263.238	323.654	0.131	-0.246
-262.224	800.000	0.100	0.276
-261.209	-101.457	0.109	-0.026
-260.195	-57.856	0.240	-0.104
-259.180	137.775	-0.155	0.201
-258.165	258.811	-0.079	-0.134
-257.151	-103.919	-0.348	0.080
-256.136	-200.000	0.015	0.278
-255.122	-21.000	0.196	0.118
-254.107	89.445	0.213	0.234
-253.092	56.573	0.095	-0.091
-252.078	-183.158	0.126	-0.002
-251.063	141.430	0.123	-0.161
-250.049	-64.766	0.150	0.060
-249.034	-200.000	0.018	-0.190
-248.019	481.488	0.115	-0.257
-247.005	71.760	-0.130	0.133
-245.990	-77.068	-0.130	0.045
-244.976	800.000	0.111	-0.446
-243.961	-200.000	-0.004	0.040
-242.946	-200.000	0.055	-0.350
-241.932	-76.253	0.318	-0.111
-240.917	-106.306	0.099	0.022
-239.903	125.386	-0.030	0.037
-238.888	-200.000	0.004	0.167
-237.873	200.776	-0.155	0.234
-236.859	800.000	-0.051	-0.206
-235.844	-69.375	-0.020	0.007
-234.830	227.826	-0.133	0.213
-233.815	265.636	-0.139	-0.240
-232.800	800.000	-0.019	-0.070
-231.786	143.423	0.062	0.082
-230.771	92.628	-0.151	0.168
-229.757	786.818	0.066	-0.178
-228.742	77.979	-0.143	0.150
-227.727	141.161	0.344	0.448
-226.713	-12.063	-0.417	0.269
-225.698	-125.037	0.129	-0.020
-224.684	394.019	-0.091	0.187
-223.669	800.000	0.089	0.358
-222.655	-106.335	0.229	0.051
-221.640	-200.000	-0.003	0.044
-220.625	-4.931	0.398	0.270
-219.611	800.000	-0.058	-0.181
-218.596	84.330	-0.075	-0.081
-217.582	438.341	-0.085	-0.183
-216.567	-172.138	0.196	0.006
-215.552	800.000	-0.112	0.338
-214.538	800.000	0.022	-0.069
-213.523	-19.031	-0.061	-0.037
-212.509	736.224	0.116	-0.306
-211.494	365.998	0.030	0.060
-210.479	-200.000	-0.064	-0.377
-209.465	159.056	0.034	0.046
-208.450	-200.000	-0.011	-0.075
-207.436	-200.000	-0.005	0.064
-206.421	800.000	0.079	-0.243
-205.406	800.000	-0.028	0.084
-204.392	296.276	-0.012	0.022
-203.377	134.333	-0.155	0.198
-202.363	-50.479	0.305	0.141
-201.348	-7.368	-0.265	0.177
-200.333	-144.395	0.180	-0.016
-199.319	-200.000	-0.009	0.148
-198.304	207.473	-0.155	-0.238
-197.290	31.379	0.127	0.108
-196.275	-68.994	0.203	0.077
-195.260	-81.123	0.210	-0.068
-194.246	140.187	-0.270	0.351
-193.231	-200.000	0.010	0.104
-192.217	-62.693	0.089	0.036
-191.202	21.133	0.174	-0.139
-190.187	-7.650	-0.258	0.171
-189.173	623.775	0.004	-0.011
-188.158	800.000	-0.050	0.140
-187.144	2.620	-0.101	0.072
-186.129	-75.327	-0.118	0.041
-185.114	119.378	0.093	-0.113
-184.100	-95.860	0.202	-0.053
-183.085	800.000	0.015	-0.062
-182.071	-116.293	0.316	-0.058
-181.056	-139.097	0.064	-0.007
-180.042	800.000	0.141	0.412
-179.027	-62.445	0.276	-0.113
-178.012	-200.000	-0.039	-0.210
-176.998	800.000	-0.092	-0.290
-175.983	480.352	0.027	0.059
-174.969	-144.860	-0.252	0.023
-173.954	-200.000	0.024	0.165
-172.939	74.703	0.086	0.089
-171.925	-200.000	-0.001	-0.105
-170.910	393.122	-0.116	0.237
-169.896	93.744	0.241	-0.269
-168.881	-57.710	-0.215	-0.092
-167.866	800.000	0.101	0.276
-166.852	-63.510	0.132	0.053
-165.837	231.955	0.181	-0.292
-164.823	-131.287	-0.457	0.060
-163.808	7.699	0.213	-0.157
-162.793	-81.912	-0.084	0.027
-161.779	800.000	-0.091	-0.271
-160.764	-200.000	0.006	-0.127
-159.750	-86.467	-0.357	0.108
-158.735	627.932	0.110	0.274
-157.720	800.000	0.100	-0.330
-156.706	-20.525	-0.160	0.096
-155.691	-118.878	-0.105	-0.018
-154.677	208.133	0.137	-0.210
-153.662	-12.497	-0.351	-0.225
-152.647	-200.000	0.016	-0.077
-151.633	-79.286	0.218	0.073
-150.618	-81.409	-0.370	0.120
-149.604	750.445	-0.080	0.211
-148.589	21.991	-0.051	0.041
-147.574	-15.765	-0.287	-0.179
-146.560	-70.383	0.167	0.062
-145.545	800.000	0.060	0.237
-144.531	800.000	-0.032	0.110
-143.516	-155.486	0.150	-0.009
-142.502	-79.559	-0.114	0.038
-141.487	-200.000	-0.007	-0.041
-140.472	131.520	-0.228	0.288
-139.458	163.565	0.042	0.058
-138.443	-200.000	0.019	0.358
-137.429	38.781	-0.281	0.247
-136.414	-62.183	-0.318	0.130
-135.399	-92.028	0.221	0.061
-134.385	-132.366	-0.238	-0.030
-133.370	199.020	-0.154	-0.231
-132.356	-15.916	-0.196	0.123
-131.341	-200.000	-0.053	0.239
-130.326	-23.313	0.321	-0.189
-129.312	800.000	-0.171	-0.466
-128.297	2.121	-0.153	0.109
-127.283	-200.000	0.009	-0.143
-126.268	104.628	-0.168	-0.194
-125.253	-194.913	0.197	-0.001
-124.239	-64.629	-0.083	0.033
-123.224	2.171	-0.090	-0.064
-122.210	-31.420	0.342	-0.189
-121.195	737.906	0.068	0.180
-120.180	69.301	-0.203	-0.205
-119.166	-200.000	-0.079	-0.407
-118.151	-200.000	0.005	-0.157
-117.137	347.119	-0.074	-0.143
-116.122	-146.904	-0.377	-0.032
-115.107	-200.000	0.015	0.101
-114.093	22.784	-0.134	-0.108
-113.078	12.538	0.269	-0.204
-112.064	-27.988	0.195	-0.111
-111.049	121.799	0.179	-0.219
-110.034	229.881	-0.103	0.165
-109.020	-71.475	0.134	-0.049
-108.005	800.000	-0.052	-0.170
-106.991	-146.374	-0.318	0.027
-105.976	165.202	0.154	0.213
-104.962	-124.673	0.223	-0.034
-103.947	-150.889	0.127	-0.009
-102.932	10.302	0.128	-0.095
-101.918	-200.000	0.009	-0.294
-100.903	800.000	-0.066	-0.193
-99.889	196.674	0.146	0.218
-98.874	-164.964	-0.024	-0.001
-97.859	-97.412	0.144	0.037
-96.845	177.022	-0.047	-0.066
-95.830	-61.128	0.098	0.041
-94.816	81.759	0.289	0.307
-93.801	-170.816	0.530	0.018
-92.786	-64.218	-0.180	0.072
-91.772	800.000	0.049	-0.186
-90.757	682.595	0.087	0.222
-89.743	625.016	0.173	0.428
-88.728	12.095	-0.175	0.132
-87.713	-82.693	-0.291	0.092
-86.699	-200.000	-0.054	0.532
-85.684	747.923	0.056	0.148
-84.670	-200.000	0.016	0.114
-83.655	130.888	0.153	-0.192
-82.640	109.093	0.080	0.094
-81.626	-200.000	0.053	-0.375
-80.611	-123.875	-0.103	0.016
-79.597	-49.016	0.121	0.057
-78.582	-200.000	-0.030	0.176
-77.567	432.064	-0.105	0.223
-76.553	-162.131	0.241	0.012
-75.538	226.136	-0.048	0.076
-74.524	105.597	0.199	-0.230
-73.509	-110.846	-0.323	-0.065
-72.494	507.913	0.133	-0.301
-71.480	399.071	0.247	0.507
-70.465	-200.000	-0.005	0.144
-69.451	-8.307	-0.142	-0.094
-68.436	77.679	0.305	-0.318
-67.422	277.794	0.075	-0.131
-66.407	156.854	-0.234	-0.316
-65.392	-18.484	-0.202	0.124
-64.378	-94.557	0.131	-0.035
-63.363	-101.726	-0.402	-0.095
-62.349	800.000	-0.114	-0.376
-61.334	582.626	-0.525	-1.260
-60.319	-21.766	0.602	0.359
-59.305	-200.000	-0.050	-1.049
-58.290	147.939	0.870	1.149
-57.276	240.778	0.756	1.235
-56.261	-200.000	110.814	605.118
-55.246	436.601	1519.926	3239.312
-54.232	144.306	2699.536	3526.170
-53.217	100.971	2204.780	2509.373
-52.203	37.742	1728.354	1501.973
-51.188	30.451	1543.983	1291.245
-50.173	28.162	1519.734	1255.231
-49.159	50.275	1575.817	1456.619
-48.144	49.697	1591.531	1467.051
-47.130	30.740	1548.868	1297.136
-46.115	27.702	1533.605	1263.299
-45.100	27.565	1530.592	1259.825
-44.086	27.587	1528.381	1258.105
-43.071	27.566	1526.451	1256.324
-42.057	27.398	1524.793	1253.752
-41.042	27.428	1523.161	1252.564
-40.027	27.413	1522.188	1251.612
-39.013	27.370	1520.294	1249.713
-37.998	27.289	1519.267	1248.263
-36.984	27.413	1517.445	1247.562
-35.969	27.440	1515.998	1246.512
-34.954	27.415	1514.733	1245.246
-33.940	27.387	1513.516	1244.009
-32.925	27.474	1512.016	1243.320
-31.911	27.510	1510.393	1242.181
-30.896	27.479	1509.397	1241.099
-29.881	27.490	1508.530	1240.412
-28.867	27.499	1506.544	1238.792
-27.852	27.482	1505.467	1237.745
-26.838	27.437	1504.226	1236.371
-25.823	27.463	1502.650	1235.198
-24.809	27.621	1500.261	1234.255
-23.794	27.504	1499.495	1232.784
-22.779	27.440	1498.186	1231.232
-21.765	27.451	1497.631	1230.798
-20.750	27.512	1496.069	1229.876
-19.736	27.459	1495.033	1228.616
-18.721	27.416	1493.678	1227.164
-17.706	27.363	1493.070	1226.263
-16.692	27.459	1491.668	1225.706
-15.677	27.500	1490.715	1225.152
-14.663	27.460	1489.970	1224.221
-13.648	27.447	1488.674	1223.020
-12.633	27.376	1488.009	1221.947
-11.619	27.435	1487.465	1221.851
-10.604	27.435	1486.523	1221.028
-9.590	27.403	1485.241	1219.715
-8.575	27.425	1484.390	1219.112
-7.560	27.391	1483.998	1218.515
-6.546	27.444	1482.678	1217.735
-5.531	27.409	1481.913	1216.827
-4.517	27.346	1480.896	1215.520
-3.502	27.403	1479.515	1214.720
-2.487	27.389	1478.248	1213.535
-1.473	27.422	1477.385	1213.003
-0.458	27.389	1476.111	1211.687
0.556	25.993	1466.593	1202.468
1.571	23.520	1441.578	1165.620
2.586	20.395	1380.069	1096.096
3.600	18.909	1295.224	1019.810
4.615	17.604	1250.565	977.080
5.629	15.424	1193.379	920.371
6.644	7.711	1107.653	814.783
7.659	1.425	1067.417	753.995
8.673	0.457	1062.111	745.402
9.688	0.264	1058.956	742.168
10.702	0.268	1057.487	741.093
11.717	0.271	1055.291	739.502
12.731	2.625	1057.975	752.892
13.746	10.366	1068.176	798.358
14.761	16.074	1075.063	831.673
15.775	16.894	1075.529	836.003
16.790	16.432	1073.871	832.365
17.804	15.473	1071.785	825.961
18.819	14.460	1070.367	819.816
19.834	14.135	1068.942	817.054
20.848	13.891	1067.533	814.706
21.863	13.795	1066.402	813.303
22.877	13.489	1065.844	811.304
23.892	13.266	1064.995	809.497
24.907	13.101	1064.462	808.209
25.921	13.097	1063.757	807.583
26.936	13.185	1062.883	807.278
27.950	13.233	1062.166	806.898
28.965	13.283	1061.490	806.557
29.980	13.217	1060.648	805.525
30.994	13.252	1059.722	804.919
32.009	13.353	1058.797	804.637
33.023	13.401	1058.070	804.246
34.038	13.319	1057.142	803.072
35.053	13.289	1056.675	802.499
36.067	13.265	1055.557	801.466
37.082	13.371	1054.665	801.232
38.096	13.192	1054.310	800.022
39.111	13.287	1053.587	799.866
40.126	13.211	1052.323	798.466
41.140	13.194	1051.136	797.413
42.155	13.104	1050.436	796.375
43.169	13.245	1048.994	795.891
44.184	13.148	1048.065	794.651
45.199	13.038	1047.531	793.648
46.213	13.031	1046.356	792.654
47.228	13.132	1045.090	792.106
48.242	13.207	1044.202	791.721
49.257	13.258	1043.295	791.208
50.271	13.305	1042.029	790.404
51.286	13.280	1041.512	789.824
52.301	13.355	1040.533	789.366
53.315	13.407	1039.725	788.933
54.330	13.319	1038.665	787.640
55.344	13.127	1037.896	786.072
56.359	13.178	1036.935	785.517
57.374	13.107	1036.462	784.755
58.388	13.150	1035.434	784.109
59.403	13.166	1034.341	783.289
60.417	13.146	1033.989	782.858
61.432	13.063	1033.238	781.826
62.447	12.966	1032.650	780.856
63.461	13.192	1031.351	780.872
64.476	13.049	1030.514	779.494
65.490	13.038	1030.160	779.102
66.505	13.202	1028.714	778.715
67.520	13.039	1028.526	777.735
68.534	13.150	1027.391	777.332
69.549	13.148	1026.472	776.559
70.563	13.025	1026.072	775.607
71.578	13.165	1025.403	775.690
72.593	13.050	1024.346	774.282
73.607	12.987	1023.477	773.260
74.622	13.063	1021.930	772.379
75.636	13.099	1021.383	772.070
76.651	13.047	1020.792	771.308
77.666	13.043	1020.237	770.803
78.680	13.159	1018.922	770.282
79.695	13.010	1018.764	769.402
80.709	13.015	1017.785	768.615
81.724	13.063	1017.019	768.192
82.739	13.154	1016.559	768.203
83.753	13.110	1015.734	767.304
84.768	13.219	1014.737	766.990
85.782	13.145	1014.392	766.318
86.797	13.304	1013.324	766.180
87.812	13.341	1012.158	765.403
88.826	13.304	1011.612	764.752
89.841	13.274	1010.683	763.840
90.855	13.267	1009.807	763.079
91.870	13.356	1009.003	762.816
92.884	13.345	1008.575	762.374
93.899	13.322	1007.921	761.707
94.914	13.231	1007.471	760.880
95.928	13.340	1006.337	760.457
96.943	13.506	1005.108	760.221
97.957	13.228	1005.036	758.825
98.972	13.313	1003.897	758.289
99.987	13.252	1003.467	757.617
101.001	13.315	1002.467	757.084
102.016	13.272	1001.933	756.418
103.030	13.384	1000.646	755.891
104.045	13.380	999.805	755.168
105.060	13.339	998.726	754.101
106.074	13.248	997.865	752.970
107.089	13.179	997.426	752.257
108.103	13.129	996.547	751.299
109.118	13.192	995.562	750.776
110.133	13.296	994.228	750.178
111.147	13.246	993.258	749.150
112.162	13.228	992.483	748.418
113.176	13.170	992.044	747.759
114.191	13.284	990.893	747.339
115.206	13.235	990.154	746.497
116.220	13.284	989.190	745.924
117.235	13.235	988.549	745.154
118.249	13.417	987.168	744.867
119.264	13.228	986.459	743.415
120.279	13.207	986.205	743.066
121.293	13.203	984.988	742.063
122.308	13.212	984.049	741.328
123.322	13.157	983.591	740.672
124.337	13.213	982.296	739.885
125.352	13.267	980.961	739.054
126.366	13.211	980.201	738.166
127.381	13.110	979.531	737.144
128.395	13.175	978.536	736.621
129.410	13.221	977.402	735.905
130.424	13.168	976.155	734.667
131.439	13.292	975.319	734.522
132.454	13.179	974.585	733.404
133.468	13.294	974.124	733.504
134.483	13.298	973.285	732.824
135.497	13.313	972.347	732.121
136.512	13.344	971.372	731.459
137.527	13.307	970.797	730.794
138.541	13.261	969.872	729.834
139.556	13.120	969.986	729.230
140.570	13.238	968.787	728.785
141.585	13.465	967.513	728.762
142.600	13.381	967.278	728.152
143.614	13.441	966.291	727.606
144.629	13.344	965.896	726.818
145.643	13.399	965.053	726.363
146.658	13.520	963.849	725.920
147.673	13.307	963.397	724.583
148.687	13.372	962.309	723.987
149.702	13.320	961.516	723.096
150.716	13.210	960.902	722.091
151.731	13.436	959.771	722.164
152.746	13.321	958.850	720.904
153.760	13.298	958.386	720.392
154.775	13.388	957.604	720.135
155.789	13.449	956.659	719.622
156.804	13.380	956.091	718.835
157.819	13.485	955.519	718.796
158.833	13.436	954.690	717.895
159.848	13.491	953.795	717.398
160.862	13.535	953.610	717.384
161.877	13.562	952.392	716.521
162.892	13.607	950.957	715.572
163.906	13.479	950.628	714.710
164.921	13.451	949.923	713.995
165.935	13.478	948.620	713.072
166.950	13.524	947.470	712.341
167.964	13.565	946.748	711.910
168.979	13.634	945.782	711.420
169.994	13.532	945.046	710.361
171.008	13.550	944.219	709.758
172.023	13.537	943.250	708.910
173.037	13.497	942.833	708.363
174.052	13.596	941.920	708.035
175.067	13.568	941.354	707.427
176.081	13.503	940.536	706.476
177.096	13.589	939.585	706.062
178.110	13.517	938.781	705.093
179.125	13.559	937.947	704.581
180.140	13.735	937.152	704.670
181.154	13.684	936.715	704.060
182.169	13.542	936.095	702.930
183.183	13.686	935.326	702.903
184.198	13.657	934.777	702.304
185.213	13.775	933.729	701.954
186.227	13.715	933.564	701.514
187.242	13.833	933.078	701.587
188.256	13.811	932.000	700.620
189.271	13.890	931.354	700.406
190.286	13.833	930.479	699.446
191.300	13.703	929.662	698.220
192.315	13.730	928.870	697.679
193.329	13.580	928.617	696.796
194.344	13.628	927.853	696.362
195.359	13.658	927.086	695.852
196.373	13.800	926.416	695.881
197.388	13.815	926.063	695.621
198.402	13.906	925.132	695.237
199.417	13.871	925.122	695.022
200.432	13.970	924.620	695.000
201.446	13.972	924.078	694.538
202.461	14.010	923.744	694.383
203.475	14.039	923.298	694.111
204.490	14.014	922.610	693.425
205.504	13.982	921.887	692.690
206.519	13.938	921.004	691.781
207.534	14.006	920.060	691.292
208.548	13.989	919.504	690.742
209.563	14.064	918.701	690.392
210.577	14.042	918.078	689.770
211.592	14.027	917.573	689.265
212.607	14.141	917.034	689.274
213.621	14.162	916.065	688.572
214.636	14.246	915.523	688.451
215.650	14.055	914.983	687.194
216.665	14.128	914.611	687.154
217.680	14.159	913.583	686.450
218.694	14.226	913.516	686.615
219.709	14.231	912.693	685.956
220.723	14.216	911.931	685.260
221.738	14.346	911.162	685.158
222.753	14.299	910.671	684.535
223.767	14.411	909.644	684.161
224.782	14.245	909.354	683.204
225.796	14.383	908.754	683.257
226.811	14.332	907.935	682.370
227.826	14.398	907.090	681.947
228.840	14.284	906.678	681.109
229.855	14.231	905.880	680.233
230.869	14.322	905.496	680.257
231.884	14.354	904.658	679.698
232.899	14.344	903.928	679.049
233.913	14.383	902.973	678.428
234.928	14.306	902.351	677.589
235.942	14.273	902.007	677.137
236.957	14.233	901.103	676.234
237.972	14.372	900.270	676.115
238.986	14.400	899.360	675.486
240.001	14.528	899.055	675.717
241.015	14.418	898.514	674.805
242.030	14.354	897.861	673.993
243.045	14.498	897.036	673.896
244.059	14.596	896.324	673.699
245.074	14.376	896.011	672.514
246.088	14.565	895.405	672.762
247.103	14.543	894.661	672.057
248.117	14.527	894.066	671.487
249.132	14.583	893.473	671.206
250.147	14.590	893.097	670.892
251.161	14.692	892.337	670.673
252.176	14.760	891.647	670.367
253.190	14.839	890.740	669.942
254.205	14.787	890.293	669.336
255.220	14.899	889.614	669.216
256.234	14.826	888.974	668.386
257.249	14.862	888.213	667.895
258.263	14.836	888.325	667.818
259.278	14.842	887.603	667.238
260.293	14.962	886.753	667.022
261.307	14.880	886.383	666.356
262.322	14.969	885.790	666.206
263.336	14.949	885.027	665.495
264.351	15.048	884.317	665.297
265.366	15.090	883.793	665.008
266.380	15.033	883.348	664.388
267.395	15.038	882.643	663.821
268.409	15.068	881.432	662.966
269.424	14.920	881.089	662.067
270.439	15.069	880.462	662.124
271.453	14.955	879.643	660.999
272.468	15.165	878.473	660.893
273.482	15.008	878.186	659.998
274.497	15.039	878.021	659.936
275.512	15.166	877.043	659.644
276.526	14.991	876.185	658.253
277.541	15.023	875.644	657.913
278.555	15.114	874.874	657.634
279.570	15.226	874.499	657.733
280.585	15.198	873.905	657.119
281.599	15.335	873.170	657.046
282.614	15.323	872.416	656.373
283.628	15.424	871.607	656.102
284.643	15.279	871.163	655.142
285.657	15.111	871.030	654.326
286.672	15.236	870.185	654.121
287.687	15.216	870.257	654.039
288.701	15.275	869.616	653.732
289.716	15.397	868.407	653.240
290.730	15.288	868.149	652.561
291.745	15.309	867.578	652.160
292.760	15.306	866.840	651.534
293.774	15.390	865.982	651.156
294.789	15.504	865.704	651.333
295.803	15.507	865.057	650.799
296.818	15.405	864.573	649.981
297.833	15.390	863.794	649.281
298.847	15.409	863.049	648.736
299.862	15.405	862.476	648.236
300.876	15.447	861.417	647.545
301.891	15.519	860.937	647.403
302.906	15.560	860.335	647.051
303.920	15.554	859.625	646.436
304.935	15.675	858.738	646.176
305.949	15.610	858.630	645.789
306.964	15.673	857.620	645.215
307.979	15.700	857.065	644.843
308.993	15.707	856.727	644.559
310.008	15.598	856.343	643.796
311.022	15.628	855.800	643.445
312.037	15.772	855.019	643.352
313.052	15.683	854.751	642.751
314.066	15.737	853.992	642.333
315.081	15.585	853.435	641.276
316.095	15.550	852.733	640.557
317.110	15.743	852.400	640.987
318.125	15.800	851.515	640.483
319.139	15.698	851.217	639.814
320.154	15.756	850.499	639.436
321.168	15.671	850.073	638.736
322.183	15.714	849.371	638.318
323.197	15.871	848.861	638.473
324.212	15.745	848.479	637.651
325.227	15.790	847.670	637.155
326.241	15.777	847.424	636.867
327.256	15.767	846.983	636.440
328.270	15.821	846.304	636.077
329.285	15.682	845.944	635.224
330.300	15.742	845.254	634.877
331.314	15.838	844.499	634.617
332.329	15.784	844.152	634.097
333.343	15.889	843.413	633.881
334.358	15.882	842.739	633.290
335.373	15.944	842.305	633.141
336.387	16.063	841.269	632.755
337.402	15.925	841.172	632.107
338.416	16.014	840.470	631.858
339.431	16.061	840.140	631.731
340.446	16.207	839.445	631.698
341.460	16.319	838.305	631.203
342.475	16.315	837.930	630.851
343.489	16.265	837.430	630.229
344.504	16.097	837.481	629.585
345.519	16.299	836.470	629.523
346.533	16.271	835.988	628.999
347.548	16.212	835.997	628.731
348.562	16.282	835.064	628.236
349.577	16.217	834.602	627.591
350.592	16.219	833.736	626.890
351.606	16.163	833.625	626.544
352.621	16.074	833.165	625.812
353.635	16.238	832.771	626.069
354.650	16.246	832.499	625.839
355.665	16.120	831.994	624.937
356.679	16.275	831.566	625.136
357.694	16.242	830.920	624.473
358.708	16.205	830.325	623.834
359.723	16.364	829.526	623.764
360.738	16.383	829.119	623.472
361.752	16.446	828.360	623.079
362.767	16.499	827.835	622.823
363.781	16.481	827.664	622.573
364.796	16.439	827.248	622.052
365.810	16.330	827.007	621.415
366.825	16.534	826.906	622.035
367.840	16.493	826.516	621.533
368.854	16.477	826.037	621.062
369.869	16.549	825.239	620.670
370.883	16.504	824.721	620.059
371.898	16.464	824.409	619.623
372.913	16.701	823.514	619.765
373.927	16.843	822.735	619.645
374.942	16.657	822.331	618.602
375.956	16.634	821.480	617.825
376.971	16.761	820.973	617.852
377.986	16.758	820.595	617.504
379.000	16.696	819.734	616.572
380.015	16.812	819.479	616.751
381.029	16.745	819.090	616.159
382.044	16.772	818.374	615.665
383.059	16.864	817.800	615.510
384.073	16.835	817.247	614.935
385.088	16.907	816.706	614.736
386.102	16.834	816.041	613.916
387.117	16.839	815.769	613.676
388.132	16.608	815.421	612.524
389.146	16.757	814.947	612.651
390.161	16.937	814.571	612.965
391.175	16.957	813.971	612.533
392.190	17.071	813.721	612.703
393.205	16.925	813.285	611.791
394.219	16.997	812.608	611.486
395.234	16.933	812.225	610.915
396.248	16.841	811.747	610.171
397.263	16.866	811.246	609.831
398.278	16.897	810.899	609.626
399.292	16.881	810.415	609.153
400.307	16.822	810.057	608.617
401.321	16.897	809.592	608.482
402.336	16.994	808.860	608.225
403.350	16.800	808.811	607.441
404.365	17.002	808.530	607.900
405.380	16.987	807.801	607.244
406.394	17.114	807.208	607.197
407.409	17.135	806.830	606.935
408.423	17.348	806.150	607.130
409.438	17.188	805.592	606.085
410.453	17.225	805.519	606.109
411.467	17.278	805.351	606.119
412.482	17.213	804.706	605.348
413.496	17.321	804.168	605.275
414.511	17.487	803.541	605.337
415.526	17.359	803.483	604.786
416.540	17.325	803.198	604.398
417.555	17.266	802.594	603.678
418.569	17.333	802.180	603.554
419.584	17.561	801.403	603.724
420.599	17.369	801.074	602.743
421.613	111.086	1295.607	1478.495
422.628	95.669	1367.670	1478.582
