DTS Sentinel unit serial number:	SN413079Multiplexer serial number:	ORYXHardware model number:	OX4-SRSoftware version number:	ORYX F/W v4.00 Oryx Data Collector v3.7.2.0data status	okinstallation	princeton_trtdifferential loss correction	single-endedforward channel	channel 3reverse channel	N/Adate	2019/09/16time	05:44:34forward acquisition time	60.00reverse acquisition time	0.00gamma	496.2192k internal	0.2335k external	0.2335temperature offset calibration	0.9952default loss term (dB/km)	0.3790temperature slope calibration	1.0000multiplexer offset coefficient	1.0000multiplexer slope coefficient	1.0000fibre end	0.00T internal ref (°C)	27.37T ext. ref 1 (°C)	11.19T ext. ref 2 (°C)	22.26length (m)	temperature (°C)	Stokes	anti-Stokes-747.200	-131.250	-0.354	0.047
-746.185	182.983	0.209	0.310
-745.171	-200.000	0.004	0.170
-744.156	800.000	-0.045	-0.126
-743.142	763.398	-0.161	0.439
-742.127	-200.000	0.010	0.071
-741.112	800.000	0.047	0.147
-740.098	-40.275	-0.148	0.077
-739.083	765.025	-0.119	0.324
-738.069	-106.108	0.044	0.010
-737.054	-122.142	-0.267	-0.044
-736.039	-149.809	-0.575	-0.045
-735.025	503.408	0.167	0.388
-734.010	-153.249	-0.175	0.012
-732.996	-82.969	-0.318	0.103
-731.981	-200.000	0.022	0.156
-730.966	-46.600	-0.307	0.151
-729.952	-41.764	-0.092	-0.047
-728.937	-46.662	-0.102	0.050
-727.923	175.742	0.114	0.166
-726.908	304.457	0.119	0.221
-725.894	-159.800	-0.359	0.020
-724.879	379.540	-0.056	-0.115
-723.864	309.330	-0.004	-0.008
-722.850	-129.252	-0.230	0.032
-721.835	175.178	-0.048	0.070
-720.821	800.000	-0.037	0.119
-719.806	123.612	0.135	-0.170
-718.791	-88.501	-0.232	-0.069
-717.777	589.814	0.057	-0.140
-716.762	-150.724	0.048	0.004
-715.748	-128.868	0.230	0.032
-714.733	-16.284	0.315	-0.201
-713.718	-159.910	-0.118	0.006
-712.704	220.672	0.172	-0.276
-711.689	109.665	0.259	-0.312
-710.675	467.895	0.056	0.126
-709.660	-11.332	-0.284	-0.188
-708.645	-149.366	-0.171	-0.014
-707.631	-5.823	0.154	-0.106
-706.616	-200.000	-0.072	-0.395
-705.602	800.000	0.138	-0.442
-704.587	179.813	0.074	-0.108
-703.572	-55.434	0.078	0.035
-702.558	127.478	0.162	0.206
-701.543	-133.346	-0.207	0.026
-700.529	269.395	-0.041	-0.073
-699.514	-83.366	0.227	-0.073
-698.499	-104.165	-0.295	0.069
-697.485	-51.669	0.112	0.052
-696.470	-200.000	0.003	0.050
-695.456	800.000	0.135	-0.392
-694.441	540.413	0.140	-0.335
-693.426	-137.574	0.112	0.013
-692.412	30.314	0.133	0.114
-691.397	-109.509	-0.288	-0.061
-690.383	68.095	-0.046	-0.048
-689.368	-19.877	-0.042	0.026
-688.354	-138.609	-0.054	-0.006
-687.339	-81.617	0.186	0.061
-686.324	800.000	0.039	0.153
-685.310	-35.464	-0.210	0.115
-684.295	17.019	-0.228	-0.181
-683.281	-54.926	0.435	0.197
-682.266	-200.000	-0.027	0.265
-681.251	800.000	0.133	-0.409
-680.237	-139.212	-0.059	-0.006
-679.222	800.000	0.024	0.088
-678.208	43.697	-0.209	-0.191
-677.193	260.842	-0.181	-0.313
-676.178	-127.564	-0.308	0.045
-675.164	800.000	-0.050	-0.184
-674.149	23.621	-0.344	-0.284
-673.135	-30.341	-0.320	-0.182
-672.120	46.886	-0.043	0.040
-671.105	-139.829	-0.486	0.052
-670.091	49.463	-0.153	0.144
-669.076	86.964	-0.104	0.115
-668.062	-200.000	-0.025	0.128
-667.047	116.823	0.105	0.129
-666.032	21.336	0.114	-0.093
-665.018	29.769	0.191	-0.163
-664.003	407.637	-0.022	0.046
-662.989	-14.476	0.330	0.212
-661.974	-200.000	-0.005	0.103
-660.959	122.695	-0.042	-0.053
-659.945	233.156	0.233	0.384
-658.930	-86.359	-0.290	-0.089
-657.916	800.000	-0.035	0.116
-656.901	-18.052	-0.160	-0.100
-655.886	632.169	0.055	-0.140
-654.872	-1.696	-0.191	-0.135
-653.857	-107.116	-0.073	-0.016
-652.843	-126.933	0.076	0.011
-651.828	152.833	0.202	0.277
-650.814	800.000	-0.012	-0.047
-649.799	-38.201	-0.339	-0.180
-648.784	58.151	-0.158	-0.155
-647.770	-71.977	-0.205	-0.076
-646.755	-64.980	0.032	0.013
-645.741	-36.075	-0.275	0.149
-644.726	338.267	0.115	0.224
-643.711	2.634	0.260	-0.188
-642.697	800.000	0.053	0.176
-641.682	92.442	0.016	-0.018
-640.668	29.446	0.221	-0.188
-639.653	-113.678	-0.182	0.036
-638.638	-200.000	0.025	0.425
-637.624	-108.057	0.435	-0.094
-636.609	14.036	-0.452	-0.352
-635.595	-85.069	-0.390	-0.122
-634.580	108.508	-0.231	0.276
-633.565	-151.865	-0.192	-0.014
-632.551	61.578	-0.173	-0.172
-631.536	800.000	-0.052	0.144
-630.522	99.801	0.033	-0.038
-629.507	-58.498	0.135	0.058
-628.492	-11.163	0.192	0.126
-627.478	-41.221	-0.145	0.075
-626.463	-200.000	0.020	0.294
-625.449	-92.760	-0.245	0.069
-624.434	-48.424	0.029	-0.014
-623.419	361.986	-0.083	-0.166
-622.405	230.388	-0.112	0.183
-621.390	50.751	0.248	-0.235
-620.376	32.364	0.222	0.192
-619.361	-62.572	-0.115	0.048
-618.346	212.417	0.184	-0.290
-617.332	-49.993	-0.156	-0.074
-616.317	499.909	0.007	0.015
-615.303	105.120	0.139	-0.164
-614.288	519.849	-0.236	0.553
-613.273	-200.000	0.040	-0.191
-612.259	139.065	0.213	-0.280
-611.244	-38.480	0.190	-0.100
-610.230	-111.121	-0.080	0.016
-609.215	800.000	-0.056	-0.198
-608.201	-61.856	0.076	0.032
-607.186	378.638	0.108	-0.222
-606.171	14.000	0.177	-0.138
-605.157	333.501	0.101	0.196
-604.142	113.079	0.139	0.168
-603.128	149.365	-0.257	-0.347
-602.113	-15.047	0.128	0.082
-601.098	269.266	-0.083	-0.146
-600.084	-67.504	-0.106	-0.042
-599.069	182.289	-0.162	-0.239
-598.055	-103.946	0.124	-0.029
-597.040	-196.704	0.159	-0.001
-596.025	146.181	-0.063	0.085
-595.011	248.307	0.113	0.192
-593.996	740.646	-0.057	0.153
-592.982	166.588	0.157	-0.222
-591.967	-200.000	0.001	-0.150
-590.952	40.849	0.235	-0.212
-589.938	-200.000	-0.000	-0.050
-588.923	-165.373	0.274	0.012
-587.909	-8.499	0.162	-0.109
-586.894	800.000	-0.176	-0.525
-585.879	655.031	0.205	0.525
-584.865	-120.233	0.093	0.016
-583.850	288.636	-0.075	0.135
-582.836	-49.592	0.084	-0.040
-581.821	-50.813	0.085	0.040
-580.806	176.021	-0.044	0.063
-579.792	-125.642	-0.065	-0.010
-578.777	-136.646	-0.121	0.014
-577.763	-17.213	0.251	0.158
-576.748	-200.000	-0.012	0.193
-575.733	631.138	0.063	-0.160
-574.719	56.201	0.212	-0.206
-573.704	800.000	-0.039	-0.133
-572.690	-60.648	-0.076	-0.032
-571.675	149.358	-0.094	-0.126
-570.661	74.668	0.086	0.090
-569.646	800.000	-0.038	-0.119
-568.631	-200.000	-0.046	-0.267
-567.617	-61.870	-0.226	-0.094
-566.602	-200.000	-0.006	-0.064
-565.588	472.171	-0.038	-0.086
-564.573	367.579	0.138	-0.278
-563.558	-200.000	0.021	-0.390
-562.544	-66.792	-0.163	0.064
-561.529	800.000	-0.030	0.111
-560.515	-200.000	-0.002	0.125
-559.500	-111.220	0.154	0.031
-558.485	800.000	0.098	0.304
-557.471	336.861	0.080	-0.155
-556.456	36.539	0.167	-0.147
-555.442	-168.705	-0.296	-0.011
-554.427	339.831	0.089	-0.173
-553.412	-147.436	0.203	-0.017
-552.398	8.476	0.058	0.043
-551.383	-90.233	0.137	0.040
-550.369	-14.187	0.082	0.053
-549.354	298.975	0.051	0.093
-548.339	-51.699	-0.156	0.072
-547.325	92.342	-0.201	-0.225
-546.310	186.227	0.185	-0.274
-545.296	110.251	0.136	0.162
-544.281	82.790	-0.210	0.227
-543.266	-122.143	0.139	0.023
-542.252	-86.321	-0.133	-0.041
-541.237	44.275	0.062	-0.057
-540.223	409.178	-0.134	0.284
-539.208	-78.007	-0.053	0.018
-538.193	358.866	0.071	-0.142
-537.179	-55.199	0.237	-0.106
-536.164	-136.505	-0.344	-0.040
-535.150	46.637	0.142	-0.131
-534.135	-200.000	-0.003	0.328
-533.121	265.979	0.090	0.156
-532.106	-66.549	-0.300	0.119
-531.091	-2.709	0.188	-0.131
-530.077	-122.764	-0.310	-0.050
-529.062	65.950	0.319	-0.323
-528.048	-200.000	-0.059	0.268
-527.033	-200.000	-0.067	-0.357
-526.018	477.834	0.060	0.135
-525.004	172.536	-0.123	-0.176
-523.989	-200.000	-0.038	0.354
-522.975	95.283	-0.218	0.248
-521.960	-191.046	0.428	0.004
-520.945	65.275	0.299	-0.301
-519.931	-30.205	0.260	0.147
-518.916	-64.336	0.239	0.097
-517.902	133.250	0.125	-0.160
-516.887	-22.818	-0.064	-0.038
-515.872	2.631	0.045	0.033
-514.858	101.920	0.026	-0.030
-513.843	-106.452	0.173	0.039
-512.829	-40.627	-0.077	-0.040
-511.814	-152.552	-0.412	0.029
-510.799	525.214	0.066	-0.154
-509.785	-57.783	0.129	-0.056
-508.770	239.975	0.087	0.144
-507.756	-120.386	-0.176	0.030
-506.741	-200.000	0.040	0.367
-505.726	800.000	0.104	0.291
-504.712	800.000	-0.021	-0.084
-503.697	551.692	-0.038	-0.090
-502.683	-200.000	0.016	-0.085
-501.668	31.841	-0.110	0.094
-500.653	-200.000	-0.035	0.156
-499.639	66.833	-0.127	-0.129
-498.624	-6.843	0.235	0.159
-497.610	-59.110	-0.377	0.162
-496.595	-175.043	0.147	-0.004
-495.581	749.296	-0.091	0.243
-494.566	-14.015	0.211	-0.136
-493.551	-186.187	0.101	0.001
-492.537	-200.000	0.048	0.481
-491.522	107.953	-0.090	-0.106
-490.508	-79.560	-0.252	0.084
-489.493	1.008	0.124	-0.089
-488.478	-163.341	-0.454	-0.022
-487.464	100.450	0.093	-0.107
-486.449	-182.264	-0.429	0.008
-485.435	-100.986	0.148	-0.036
-484.420	-200.000	0.052	-0.364
-483.405	-200.000	0.038	0.206
-482.391	106.325	-0.147	0.173
-481.376	-200.000	0.001	0.066
-480.362	-24.408	-0.128	-0.076
-479.347	-200.000	-0.016	-0.140
-478.332	162.619	0.160	0.224
-477.318	261.093	-0.173	0.297
-476.303	-162.279	-0.190	-0.009
-475.289	453.887	0.103	-0.227
-474.274	29.699	0.133	-0.112
-473.259	800.000	-0.111	-0.351
-472.245	258.893	-0.176	0.301
-471.230	-123.092	-0.182	0.029
-470.216	-200.000	0.018	-0.250
-469.201	-104.765	-0.136	-0.031
-468.186	156.774	-0.108	-0.148
-467.172	-200.000	0.008	-0.447
-466.157	-132.559	0.358	0.046
-465.143	743.830	-0.054	-0.145
-464.128	51.987	-0.306	-0.290
-463.113	-200.000	-0.005	-0.329
-462.099	227.498	0.068	-0.110
-461.084	230.294	0.152	0.247
-460.070	-32.572	0.227	-0.126
-459.055	23.383	0.080	-0.065
-458.040	103.599	-0.173	-0.202
-457.026	-102.423	0.178	-0.042
-456.011	-21.271	-0.051	0.031
-454.997	-43.783	-0.276	0.138
-453.982	734.871	0.037	0.099
-452.968	-26.223	-0.095	0.055
-451.953	-200.000	-0.004	0.135
-450.938	800.000	-0.072	0.207
-449.924	-200.000	-0.008	-0.039
-448.909	88.173	-0.308	-0.340
-447.895	800.000	0.049	-0.143
-446.880	-40.574	0.218	0.112
-445.865	-49.700	0.238	-0.112
-444.851	-68.808	-0.289	-0.111
-443.836	-200.000	-0.033	0.193
-442.822	-200.000	-0.005	-0.053
-441.807	-20.298	0.099	0.061
-440.792	-161.907	-0.088	0.004
-439.778	-29.487	0.112	0.064
-438.763	251.964	0.060	0.102
-437.749	-85.939	-0.288	-0.088
-436.734	-36.500	0.130	-0.069
-435.719	245.327	0.111	-0.185
-434.705	-65.340	0.312	0.125
-433.690	143.657	-0.252	0.333
-432.676	33.777	0.131	0.113
-431.661	-70.094	-0.347	0.131
-430.646	225.985	-0.047	-0.075
-429.632	800.000	0.073	0.265
-428.617	3.823	0.191	0.138
-427.603	-200.000	0.016	-0.154
-426.588	800.000	0.013	0.050
-425.573	255.594	-0.051	0.086
-424.559	800.000	-0.075	0.215
-423.544	329.662	-0.086	0.165
-422.530	140.648	-0.059	-0.077
-421.515	-97.430	-0.130	0.034
-420.500	-200.000	0.042	0.190
-419.486	800.000	-0.062	-0.216
-418.471	531.485	-0.136	0.319
-417.457	100.016	0.063	-0.072
-416.442	13.028	-0.161	0.124
-415.428	9.870	0.235	0.177
-414.413	237.570	0.041	-0.067
-413.398	-200.000	0.023	-0.291
-412.384	-200.000	-0.040	-0.271
-411.369	800.000	0.065	0.274
-410.355	-200.000	-0.031	-0.417
-409.340	-44.372	0.308	-0.153
-408.325	192.307	0.153	-0.229
-407.311	10.780	-0.132	-0.100
-406.296	-200.000	0.044	-0.222
-405.282	-17.964	-0.130	0.081
-404.267	-200.000	0.091	0.404
-403.252	31.588	-0.094	-0.080
-402.238	211.811	-0.143	0.223
-401.223	800.000	0.141	0.427
-400.209	666.715	-0.184	0.472
-399.194	-129.916	0.335	-0.046
-398.179	64.030	0.142	-0.142
-397.165	543.644	0.034	0.081
-396.150	800.000	-0.058	-0.248
-395.136	-200.000	-0.031	0.239
-394.121	-60.209	-0.114	0.048
-393.106	289.112	-0.112	0.202
-392.092	453.226	-0.199	-0.436
-391.077	800.000	0.040	-0.143
-390.063	190.812	-0.197	0.294
-389.048	106.763	0.086	0.101
-388.033	39.203	-0.235	-0.208
-387.019	-200.000	0.007	0.209
-386.004	233.204	0.159	0.260
-384.990	329.754	-0.163	-0.311
-383.975	129.496	0.267	-0.338
-382.960	-115.082	-0.091	-0.017
-381.946	-50.166	-0.352	-0.165
-380.931	-200.000	-0.069	0.391
-379.917	800.000	-0.062	0.211
-378.902	68.726	0.185	0.188
-377.888	651.834	0.080	-0.203
-376.873	800.000	0.023	-0.077
-375.858	99.897	0.074	-0.085
-374.844	70.133	-0.156	-0.159
-373.829	-200.000	0.005	-0.084
-372.815	697.196	0.071	0.184
-371.800	-53.119	-0.253	0.115
-370.785	-200.000	-0.088	-0.487
-369.771	354.973	0.096	-0.188
-368.756	14.721	-0.035	0.027
-367.742	-13.339	0.144	-0.093
-366.727	-200.000	-0.009	-0.091
-365.712	800.000	-0.015	-0.061
-364.698	-21.108	-0.150	-0.091
-363.683	795.083	-0.049	0.134
-362.669	-191.419	0.125	-0.001
-361.654	-132.396	-0.055	-0.007
-360.639	800.000	0.060	-0.235
-359.625	31.251	0.242	0.205
-358.610	-91.330	-0.221	-0.062
-357.596	-43.338	-0.154	0.077
-356.581	66.443	0.113	-0.114
-355.566	65.413	0.123	-0.123
-354.552	-125.718	0.126	0.019
-353.537	-84.793	0.157	-0.049
-352.523	800.000	-0.032	-0.093
-351.508	-129.142	0.257	-0.035
-350.493	61.345	-0.145	0.143
-349.479	57.092	-0.143	0.138
-348.464	-95.990	-0.252	0.066
-347.450	218.994	0.159	-0.252
-346.435	-185.933	-0.105	-0.002
-345.420	-14.123	0.164	-0.105
-344.406	207.668	0.074	0.114
-343.391	-200.000	-0.010	0.183
-342.377	-80.545	0.233	-0.077
-341.362	285.693	-0.091	0.162
-340.348	-10.566	-0.100	0.066
-339.333	432.536	-0.012	-0.025
-338.318	-143.288	0.424	-0.040
-337.304	604.001	-0.058	0.143
-336.289	-48.263	0.353	0.168
-335.275	-72.476	-0.372	-0.136
-334.260	-32.770	0.104	-0.057
-333.245	156.198	-0.048	-0.066
-332.231	66.712	-0.167	0.168
-331.216	-200.000	-0.011	0.133
-330.202	194.470	0.024	-0.036
-329.187	232.676	0.177	-0.288
-328.172	800.000	-0.123	-0.518
-327.158	207.992	0.026	0.040
-326.143	-118.910	0.240	-0.042
-325.129	10.981	-0.106	0.080
-324.114	-200.000	-0.005	-0.042
-323.099	-175.363	-0.180	0.005
-322.085	-139.642	-0.088	-0.009
-321.070	-200.000	0.003	0.085
-320.056	-200.000	-0.008	-0.115
-319.041	-153.216	-0.116	0.008
-318.026	15.410	-0.035	-0.027
-317.012	-200.000	0.053	0.276
-315.997	-200.000	0.049	-0.246
-314.983	-200.000	-0.001	-0.089
-313.968	800.000	-0.017	-0.054
-312.953	103.870	0.079	-0.092
-311.939	-200.000	0.026	-0.322
-310.924	250.251	0.101	0.169
-309.910	-200.000	-0.046	0.385
-308.895	-200.000	-0.039	0.303
-307.880	-200.000	0.089	0.388
-306.866	800.000	0.051	0.149
-305.851	112.478	-0.110	-0.131
-304.837	8.139	0.111	0.082
-303.822	-169.182	0.177	0.006
-302.807	67.162	0.173	0.174
-301.793	800.000	0.082	-0.252
-300.778	-11.494	0.245	0.159
-299.764	-142.215	0.148	0.014
-298.749	800.000	-0.068	-0.188
-297.735	14.707	-0.157	0.121
-296.720	-92.600	-0.318	-0.088
-295.705	-52.839	-0.175	0.080
-294.691	-70.312	-0.117	0.044
-293.676	-45.560	0.145	0.071
-292.662	800.000	0.056	-0.241
-291.647	-27.619	-0.139	-0.080
-290.632	-98.458	0.139	0.035
-289.618	7.128	0.121	0.089
-288.603	684.523	0.139	0.357
-287.589	-155.689	0.327	0.021
-286.574	624.824	-0.112	0.278
-285.559	293.906	-0.084	0.152
-284.545	-97.763	0.066	0.017
-283.530	-5.760	0.325	0.220
-282.516	-128.878	-0.215	-0.030
-281.501	62.941	-0.078	-0.077
-280.486	34.655	0.123	0.106
-279.472	-1.117	-0.140	-0.098
-278.457	322.134	-0.152	0.285
-277.443	-131.770	-0.095	0.012
-276.428	-130.978	0.069	0.009
-275.413	-7.308	-0.011	-0.007
-274.399	-148.451	-0.283	-0.023
-273.384	-66.698	-0.333	-0.130
-272.370	32.240	-0.231	0.197
-271.355	800.000	-0.140	0.395
-270.340	800.000	0.025	-0.106
-269.326	97.602	-0.184	-0.209
-268.311	450.179	0.062	0.135
-267.297	331.278	-0.019	-0.036
-266.282	44.931	-0.330	-0.299
-265.267	800.000	0.112	0.370
-264.253	-200.000	0.010	-0.268
-263.238	87.667	-0.040	0.043
-262.224	79.621	-0.087	0.092
-261.209	800.000	-0.091	-0.299
-260.195	-52.021	0.143	-0.065
-259.180	-83.429	-0.311	-0.098
-258.165	-94.327	0.302	0.081
-257.151	-12.136	0.173	-0.112
-256.136	134.253	0.040	0.052
-255.122	-142.553	-0.292	0.028
-254.107	800.000	-0.160	0.525
-253.092	-56.411	0.262	0.115
-252.078	800.000	-0.013	-0.045
-251.063	-131.973	-0.260	0.033
-250.049	800.000	-0.060	-0.211
-249.034	741.420	-0.077	0.203
-248.019	3.937	-0.206	0.148
-247.005	318.530	-0.069	0.129
-245.990	-23.174	-0.159	-0.094
-244.976	-200.000	-0.009	-0.081
-243.961	800.000	-0.024	0.079
-242.946	11.341	0.226	0.171
-241.932	92.791	0.265	-0.295
-240.917	263.583	0.031	-0.054
-239.903	-128.504	0.278	-0.039
-238.888	-109.071	0.061	0.013
-237.873	-28.400	-0.120	-0.068
-236.859	800.000	0.046	0.145
-235.844	800.000	0.054	-0.233
-234.830	379.320	-0.032	0.065
-233.815	760.049	-0.064	0.170
-232.800	800.000	-0.063	-0.188
-231.786	-50.793	-0.153	0.071
-230.771	665.339	0.102	0.259
-229.757	-184.304	0.146	0.002
-228.742	-79.922	0.085	0.028
-227.727	-65.789	0.225	-0.089
-226.713	-141.565	-0.292	0.029
-225.698	-19.873	0.056	-0.034
-224.684	800.000	0.028	-0.080
-223.669	76.441	0.192	0.200
-222.655	-65.775	-0.276	0.109
-221.640	713.758	-0.020	-0.051
-220.625	-87.199	0.299	-0.089
-219.611	-200.000	0.019	-0.328
-218.596	245.125	-0.075	0.123
-217.582	-200.000	-0.008	0.039
-216.567	-200.000	-0.059	-0.377
-215.552	113.681	-0.120	0.143
-214.538	-57.208	0.292	-0.127
-213.523	-45.656	0.103	0.050
-212.509	172.882	0.172	-0.244
-211.494	-97.570	0.263	-0.067
-210.479	671.858	0.020	-0.051
-209.465	-123.658	0.025	0.004
-208.450	224.668	-0.012	0.019
-207.436	-200.000	-0.049	0.259
-206.421	800.000	-0.015	0.051
-205.406	800.000	-0.015	-0.046
-204.392	-113.513	-0.258	0.050
-203.377	-143.529	-0.149	-0.014
-202.363	-200.000	0.074	-0.393
-201.348	-30.002	0.120	0.067
-200.333	-192.037	-0.150	0.001
-199.319	87.983	-0.195	0.212
-198.304	71.746	-0.077	-0.078
-197.290	-33.110	0.214	0.117
-196.275	-200.000	0.003	-0.285
-195.260	-166.291	-0.165	-0.007
-194.246	-147.697	-0.269	0.022
-193.231	-90.086	0.059	0.017
-192.217	-200.000	0.010	-0.081
-191.202	-200.000	0.006	-0.180
-190.187	403.251	-0.077	0.160
-189.173	-115.805	0.322	0.059
-188.158	-54.542	-0.178	0.079
-187.144	126.761	-0.024	0.029
-186.129	-58.758	-0.480	0.204
-185.114	259.210	0.092	-0.155
-184.100	-200.000	0.075	0.390
-183.085	-154.335	0.137	0.009
-182.071	-56.468	-0.255	-0.111
-181.056	-128.274	0.394	-0.055
-180.042	-127.329	0.198	0.028
-179.027	14.637	-0.133	0.102
-178.012	-200.000	0.007	-0.149
-176.998	-28.136	0.548	0.311
-175.983	-109.632	0.126	-0.026
-174.969	37.407	-0.067	0.058
-173.954	-157.134	0.101	0.006
-172.939	-16.341	0.145	0.090
-171.925	218.565	0.109	-0.171
-170.910	-41.330	0.338	-0.171
-169.896	800.000	0.058	0.207
-168.881	-102.337	0.205	0.048
-167.866	-72.523	-0.157	0.057
-166.852	-118.048	0.082	-0.014
-165.837	-126.694	-0.163	-0.024
-164.823	-200.000	-0.047	0.287
-163.808	215.801	0.213	-0.332
-162.793	-23.101	0.267	-0.158
-161.779	-70.796	0.290	0.107
-160.764	-200.000	-0.019	-0.292
-159.750	-73.753	-0.186	0.066
-158.735	371.008	0.070	-0.140
-157.720	800.000	-0.075	0.278
-156.706	16.459	-0.166	-0.128
-155.691	272.627	-0.120	-0.207
-154.677	800.000	-0.103	0.312
-153.662	95.414	-0.198	-0.222
-152.647	339.384	-0.179	0.343
-151.633	-69.127	-0.049	-0.019
-150.618	800.000	-0.030	-0.102
-149.604	-69.214	-0.489	0.184
-148.589	-200.000	-0.009	0.171
-147.574	-200.000	-0.461	-0.001
-146.560	-151.240	0.146	-0.011
-145.545	800.000	-0.078	0.265
-144.531	-200.000	0.090	0.398
-143.516	-98.822	-0.149	0.037
-142.502	-25.604	0.047	-0.027
-141.487	-29.449	0.152	0.085
-140.472	142.419	0.338	0.440
-139.458	132.412	-0.208	0.263
-138.443	-97.717	-0.271	0.069
-137.429	58.160	-0.070	0.068
-136.414	-200.000	-0.005	-0.028
-135.399	113.397	0.103	-0.123
-134.385	-200.000	-0.019	0.094
-133.370	35.571	0.102	0.088
-132.356	-48.398	0.191	-0.090
-131.341	-172.607	-0.017	0.001
-130.326	-200.000	-0.011	-0.069
-129.312	2.688	-0.072	-0.051
-128.297	321.410	-0.143	0.267
-127.283	-80.204	0.106	-0.035
-126.268	-145.561	-0.307	0.027
-125.253	124.632	0.290	0.358
-124.239	800.000	-0.054	-0.221
-123.224	-200.000	0.055	0.237
-122.210	164.963	-0.028	-0.039
-121.195	101.996	-0.124	0.142
-120.180	800.000	0.021	-0.058
-119.166	-29.760	-0.384	-0.215
-118.151	800.000	-0.061	0.238
-117.137	-69.836	-0.400	-0.150
-116.122	120.343	-0.329	0.400
-115.107	31.106	-0.276	0.232
-114.093	178.061	0.124	0.178
-113.078	-24.783	0.254	0.148
-112.064	65.713	-0.148	0.147
-111.049	-108.218	0.134	-0.028
-110.034	682.200	0.078	0.199
-109.020	208.452	-0.025	-0.039
-108.005	-197.304	0.070	0.000
-106.991	538.534	0.088	-0.205
-105.976	-200.000	0.011	0.146
-104.962	-200.000	0.059	-0.416
-103.947	27.582	0.114	-0.094
-102.932	43.224	-0.250	-0.223
-101.918	48.293	0.066	-0.061
-100.903	312.286	-0.052	0.095
-99.889	-107.246	-0.257	0.055
-98.874	408.878	0.031	0.065
-97.859	-200.000	0.019	0.143
-96.845	704.528	-0.082	-0.211
-95.830	91.611	-0.122	0.134
-94.816	56.002	-0.037	0.035
-93.801	-97.979	0.077	-0.019
-92.786	165.783	0.255	-0.353
-91.772	159.412	-0.084	-0.114
-90.757	-148.585	0.194	0.016
-89.743	327.156	-0.144	-0.269
-88.728	-45.915	-0.211	0.102
-87.713	128.642	0.266	0.332
-86.699	-51.040	-0.212	-0.097
-85.684	0.444	-0.215	0.151
-84.670	77.520	-0.375	-0.391
-83.655	-183.631	0.361	0.006
-82.640	260.886	0.112	0.189
-81.626	-200.000	0.011	-0.196
-80.611	45.219	0.136	-0.123
-79.597	-118.539	-0.336	0.058
-78.582	199.134	0.160	-0.240
-77.567	800.000	-0.097	-0.301
-76.553	-20.487	-0.072	0.043
-75.538	20.486	-0.196	0.155
-74.524	-102.581	-0.139	0.032
-73.509	-184.256	0.341	-0.006
-72.494	244.391	-0.088	0.145
-71.480	13.035	0.337	0.255
-70.465	-60.629	0.306	0.127
-69.451	-131.498	0.219	0.028
-68.436	-200.000	0.006	-0.158
-67.422	743.676	0.104	-0.272
-66.407	-44.281	0.287	-0.141
-65.392	-200.000	-0.018	0.159
-64.378	-53.893	-0.058	-0.026
-63.363	-112.137	-0.382	-0.075
-62.349	-128.609	0.110	-0.015
-61.334	94.512	-0.918	-1.020
-60.319	302.606	0.467	0.845
-59.305	800.000	-0.355	-1.092
-58.290	800.000	0.439	1.433
-57.276	800.000	0.560	1.932
-56.261	-200.000	113.587	642.055
-55.246	464.594	1511.907	3306.451
-54.232	147.106	2678.151	3523.489
-53.217	102.791	2176.740	2491.613
-52.203	37.729	1704.978	1480.488
-51.188	30.355	1522.726	1271.887
-50.173	28.268	1498.380	1237.413
-49.159	52.277	1555.032	1449.987
-48.144	50.778	1570.991	1454.507
-47.130	30.776	1527.521	1278.581
-46.115	27.708	1512.064	1244.696
-45.100	27.434	1509.361	1240.557
-44.086	27.413	1507.126	1238.527
-43.071	27.322	1505.697	1236.685
-42.057	27.344	1503.865	1235.283
-41.042	27.371	1501.728	1233.659
-40.027	27.397	1500.291	1232.602
-39.013	27.352	1499.109	1231.283
-37.998	27.263	1498.341	1230.002
-36.984	27.305	1496.704	1228.890
-35.969	27.392	1494.801	1227.867
-34.954	27.425	1493.831	1227.240
-33.940	27.278	1492.701	1225.275
-32.925	27.368	1491.311	1224.694
-31.911	27.343	1489.827	1223.259
-30.896	27.407	1488.701	1222.712
-29.881	27.382	1487.065	1221.152
-28.867	27.406	1486.351	1220.677
-27.852	27.414	1485.233	1219.769
-26.838	27.470	1483.660	1218.804
-25.823	27.347	1482.161	1216.696
-24.809	27.431	1479.737	1215.225
-23.794	27.417	1478.834	1214.337
-22.779	27.349	1477.948	1213.110
-21.765	27.473	1476.702	1212.866
-20.750	27.490	1475.224	1211.713
-19.736	27.451	1474.335	1210.681
-18.721	27.407	1473.769	1209.872
-17.706	27.369	1472.758	1208.745
-16.692	27.412	1471.052	1207.583
-15.677	27.436	1470.066	1206.882
-14.663	27.360	1469.633	1205.972
-13.648	27.314	1468.713	1204.869
-12.633	27.350	1467.814	1204.322
-11.619	27.360	1467.238	1203.868
-10.604	27.382	1465.872	1202.845
-9.590	27.406	1465.107	1202.323
-8.575	27.392	1464.027	1201.296
-7.560	27.347	1463.438	1200.468
-6.546	27.400	1462.027	1199.618
-5.531	27.291	1461.998	1198.827
-4.517	27.435	1460.591	1198.574
-3.502	27.421	1459.453	1197.498
-2.487	27.351	1458.905	1196.539
-1.473	27.250	1457.917	1195.021
-0.458	27.401	1455.913	1194.323
0.556	25.715	1446.154	1182.802
1.571	22.938	1422.034	1144.999
2.586	19.689	1362.957	1077.119
3.600	18.232	1280.997	1003.717
4.615	17.395	1235.512	963.255
5.629	16.853	1183.084	919.359
6.644	14.286	1106.741	846.918
7.659	11.598	1072.324	807.241
8.673	11.256	1067.656	801.976
9.688	11.259	1064.085	799.237
10.702	11.137	1062.732	797.551
11.717	11.108	1060.521	795.683
12.731	12.090	1060.628	800.486
13.746	14.984	1064.246	817.303
14.761	17.312	1066.708	830.506
15.775	17.831	1065.957	832.379
16.790	16.963	1064.354	826.827
17.804	15.974	1061.784	819.945
18.819	14.975	1060.244	813.824
19.834	14.494	1058.414	810.013
20.848	14.249	1057.357	807.946
21.863	13.942	1056.595	805.798
22.877	13.763	1055.872	804.312
23.892	13.591	1055.104	802.821
24.907	13.457	1054.440	801.594
25.921	13.451	1053.610	800.865
26.936	13.537	1052.757	800.560
27.950	13.483	1052.224	799.826
28.965	13.662	1050.472	799.288
29.980	13.667	1049.664	798.624
30.994	13.785	1048.257	798.051
32.009	13.777	1047.569	797.417
33.023	13.685	1047.250	796.662
34.038	13.780	1046.024	796.114
35.053	13.725	1044.976	794.981
36.067	13.583	1044.101	793.564
37.082	13.481	1043.389	792.468
38.096	13.622	1042.385	792.307
39.111	13.687	1041.616	791.965
40.126	13.810	1040.773	791.840
41.140	13.719	1039.358	790.260
42.155	13.502	1038.609	788.585
43.169	13.530	1037.440	787.763
44.184	13.487	1036.351	786.660
45.199	13.309	1035.693	785.247
46.213	13.488	1034.842	785.385
47.228	13.347	1033.913	783.940
48.242	13.499	1032.840	783.774
49.257	13.411	1032.156	782.773
50.271	13.612	1030.341	782.277
51.286	13.568	1029.748	781.546
52.301	13.572	1029.198	781.081
53.315	13.676	1028.118	780.681
54.330	13.507	1027.532	779.372
55.344	13.630	1026.269	778.922
56.359	13.514	1025.518	777.739
57.374	13.552	1024.702	777.230
58.388	13.645	1023.497	776.682
59.403	13.453	1023.081	775.400
60.417	13.536	1021.859	774.793
61.432	13.398	1021.585	773.872
62.447	13.520	1020.352	773.438
63.461	13.425	1019.984	772.647
64.476	13.374	1018.900	771.521
65.490	13.337	1018.319	770.839
66.505	13.347	1017.121	769.910
67.520	13.385	1016.560	769.597
68.534	13.332	1016.115	768.946
69.549	13.326	1015.221	768.170
70.563	13.503	1013.845	767.883
71.578	13.426	1013.357	767.090
72.593	13.300	1012.596	765.862
73.607	13.301	1011.865	765.245
74.622	13.262	1011.028	764.364
75.636	13.342	1009.858	763.781
76.651	13.341	1008.573	762.736
77.666	13.291	1008.302	762.235
78.680	13.309	1007.692	761.790
79.695	13.270	1007.198	761.167
80.709	13.256	1006.261	760.329
81.724	13.462	1005.233	760.433
82.739	13.456	1004.933	760.108
83.753	13.371	1004.334	759.198
84.768	13.535	1003.469	759.232
85.782	13.547	1002.515	758.494
86.797	13.743	1001.748	758.744
87.812	13.714	1001.053	758.020
88.826	13.625	1000.373	757.029
89.841	13.617	999.407	756.198
90.855	13.609	998.586	755.472
91.870	13.706	997.228	754.820
92.884	13.768	996.589	754.550
93.899	13.765	995.890	753.940
94.914	13.732	995.494	753.424
95.928	13.921	994.350	753.348
96.943	13.822	993.938	752.524
97.957	13.643	993.303	751.164
98.972	13.664	992.618	750.674
99.987	13.759	991.349	750.078
101.001	13.739	990.839	749.537
102.016	13.722	990.258	748.953
103.030	13.667	988.820	747.550
104.045	13.764	987.871	747.206
105.060	13.719	986.855	746.168
106.074	13.598	986.256	745.105
107.089	13.550	985.216	744.037
108.103	13.584	984.337	743.458
109.118	13.561	983.358	742.550
110.133	13.477	982.852	741.727
111.147	13.424	981.941	740.738
112.162	13.495	981.096	740.352
113.176	13.567	980.015	739.793
114.191	13.553	978.892	738.816
115.206	13.554	978.464	738.431
116.220	13.576	977.391	737.653
117.235	13.553	976.862	737.089
118.249	13.577	975.602	736.180
119.264	13.638	975.056	735.972
120.279	13.583	973.922	734.806
121.293	13.502	973.356	733.958
122.308	13.463	972.755	733.267
123.322	13.636	971.454	732.985
124.337	13.401	970.978	731.523
125.352	13.558	969.659	731.157
126.366	13.446	968.594	729.798
127.381	13.576	967.151	729.217
128.395	13.452	966.385	728.028
129.410	13.441	965.456	727.217
130.424	13.496	964.813	726.910
131.439	13.591	963.727	726.444
132.454	13.443	963.011	725.189
133.468	13.551	962.364	725.113
134.483	13.639	961.464	724.756
135.497	13.579	961.043	724.109
136.512	13.569	960.330	723.464
137.527	13.593	959.463	722.852
138.541	13.677	958.549	722.467
139.556	13.604	957.894	721.591
140.570	13.620	957.095	720.995
141.585	13.708	956.187	720.629
142.600	13.669	956.123	720.347
143.614	13.739	955.677	720.251
144.629	13.828	954.655	719.803
145.643	13.882	953.492	719.097
146.658	13.789	952.878	718.167
147.673	13.750	951.909	717.207
148.687	13.848	950.891	716.800
149.702	13.820	950.033	715.969
150.716	13.570	949.702	714.578
151.731	13.660	948.584	714.062
152.746	13.479	948.252	712.968
153.760	13.765	946.740	712.995
154.775	13.584	946.661	712.095
155.789	13.611	945.883	711.563
156.804	13.662	945.210	711.215
157.819	13.804	944.135	710.949
158.833	13.807	943.505	710.426
159.848	13.850	942.935	710.117
160.862	13.874	942.248	709.641
161.877	13.833	941.330	708.712
162.892	13.711	940.774	707.708
163.906	13.844	939.795	707.477
164.921	13.762	938.797	706.316
165.935	13.803	937.878	705.734
166.950	13.783	936.771	704.756
167.964	13.884	935.660	704.286
168.979	13.836	934.894	703.442
169.994	13.936	933.716	702.916
171.008	13.844	933.257	702.121
172.023	13.794	932.538	701.305
173.037	13.791	931.805	700.681
174.052	13.956	930.914	700.645
175.067	13.905	930.463	700.029
176.081	13.896	929.593	699.272
177.096	13.835	928.728	698.304
178.110	13.822	928.020	697.654
179.125	13.906	927.175	697.313
180.140	13.913	926.439	696.724
181.154	13.941	925.763	696.272
182.169	13.966	925.221	695.910
183.183	14.064	924.337	695.591
184.198	13.906	924.399	694.915
185.213	14.123	923.080	694.769
186.227	14.065	922.745	694.215
187.242	14.056	922.130	693.651
188.256	14.126	921.723	693.577
189.271	14.269	920.461	693.163
190.286	14.046	920.095	691.897
191.300	13.915	919.530	690.865
192.315	13.973	918.384	690.184
193.329	13.891	917.411	689.051
194.344	13.930	916.929	688.789
195.359	13.935	916.286	688.266
196.373	14.059	915.485	688.115
197.388	14.045	915.771	688.214
198.402	14.228	914.752	688.145
199.417	14.226	914.644	687.994
200.432	14.305	914.178	687.907
201.446	14.390	913.198	687.459
202.461	14.405	912.993	687.308
203.475	14.540	912.780	687.643
204.490	14.398	911.954	686.375
205.504	14.193	911.327	684.998
206.519	14.475	910.160	685.217
207.534	14.167	909.809	683.630
208.548	14.434	908.549	683.719
209.563	14.432	907.722	683.026
210.577	14.328	907.271	682.200
211.592	14.436	906.641	682.108
212.607	14.531	906.108	682.035
213.621	14.407	905.680	681.144
214.636	14.634	904.510	681.134
215.650	14.547	904.087	680.399
216.665	14.571	903.534	680.018
217.680	14.518	903.048	679.380
218.694	14.645	902.748	679.609
219.709	14.626	902.050	678.945
220.723	14.645	901.091	678.244
221.738	14.523	900.706	677.395
222.753	14.676	899.450	677.013
223.767	14.698	898.674	676.458
224.782	14.637	898.394	675.942
225.796	14.556	897.991	675.249
226.811	14.705	897.275	675.255
227.826	14.652	896.292	674.241
228.840	14.689	895.490	673.728
229.855	14.599	895.145	673.045
230.869	14.583	894.423	672.376
231.884	14.607	893.470	671.699
232.899	14.627	892.851	671.252
233.913	14.688	892.236	670.979
234.928	14.763	890.993	670.283
235.942	14.677	890.797	669.731
236.957	14.579	890.118	668.771
237.972	14.537	889.580	668.137
238.986	14.548	889.283	667.900
240.001	14.607	888.517	667.500
241.015	14.506	888.267	666.850
242.030	14.725	887.019	666.728
243.045	14.832	886.264	666.530
244.059	14.746	885.804	665.784
245.074	14.838	884.893	665.406
246.088	14.869	884.253	664.987
247.103	14.930	884.022	664.999
248.117	14.737	883.646	663.891
249.132	14.919	882.911	664.002
250.147	14.959	882.535	663.817
251.161	15.029	881.683	663.398
252.176	15.153	880.844	663.197
253.190	15.236	880.220	662.998
254.205	15.190	879.247	662.022
255.220	15.210	878.921	661.798
256.234	15.272	878.252	661.480
257.249	15.205	878.129	661.066
258.263	15.172	877.350	660.289
259.278	15.313	876.757	660.341
260.293	15.226	876.217	659.535
261.307	15.190	875.709	658.951
262.322	15.351	874.879	658.901
263.336	15.412	874.207	658.574
264.351	15.326	873.992	658.019
265.366	15.367	873.235	657.551
266.380	15.435	872.268	657.030
267.395	15.349	871.919	656.373
268.409	15.430	871.040	655.969
269.424	15.440	870.446	655.504
270.439	15.441	869.975	655.095
271.453	15.460	868.895	654.297
272.468	15.363	867.825	653.056
273.482	15.354	867.686	652.860
274.497	15.446	867.188	652.785
275.512	15.440	866.382	652.095
276.526	15.506	865.659	651.750
277.541	15.318	865.349	650.729
278.555	15.482	864.498	650.669
279.570	15.526	863.785	650.246
280.585	15.560	863.321	649.968
281.599	15.638	862.918	649.910
282.614	15.528	861.880	648.648
283.628	15.537	861.779	648.547
284.643	15.453	861.156	647.698
285.657	15.631	860.326	647.702
286.672	15.595	859.972	647.239
287.687	15.730	859.469	647.322
288.701	15.746	858.853	646.864
289.716	15.740	858.141	646.245
290.730	15.723	857.686	645.780
291.745	15.762	857.346	645.616
292.760	15.592	856.453	644.235
293.774	15.780	855.855	644.450
294.789	15.763	855.731	644.234
295.803	15.745	854.844	643.441
296.818	15.787	854.564	643.334
297.833	15.588	853.877	641.999
298.847	15.682	852.590	641.332
299.862	15.787	851.777	641.066
300.876	15.678	851.704	640.539
301.891	15.811	850.985	640.446
302.906	15.636	850.540	639.389
303.920	15.793	849.987	639.515
304.935	15.894	849.260	639.293
305.949	16.077	848.252	639.175
306.964	15.986	847.985	638.571
307.979	16.047	846.733	637.804
308.993	15.969	846.870	637.552
310.008	16.096	845.909	637.255
311.022	16.083	845.453	636.804
312.037	16.105	845.281	636.701
313.052	16.057	844.578	635.936
314.066	16.038	843.901	635.296
315.081	15.967	843.624	634.764
316.095	16.049	843.173	634.676
317.110	15.911	842.540	633.624
318.125	15.872	841.883	632.929
319.139	15.892	841.418	632.598
320.154	16.291	840.659	633.470
321.168	16.033	840.321	632.193
322.183	16.089	839.748	631.915
323.197	16.210	839.117	631.837
324.212	16.182	838.531	631.236
325.227	16.142	837.962	630.600
326.241	16.026	837.710	629.923
327.256	16.081	836.985	629.526
328.270	16.122	836.786	629.472
329.285	16.112	836.137	628.893
330.300	16.275	835.097	628.662
331.314	16.190	834.596	627.914
332.329	16.162	834.109	627.387
333.343	16.269	833.658	627.391
334.358	16.258	833.026	626.818
335.373	16.329	832.574	626.685
336.387	16.244	832.071	625.938
337.402	16.249	831.531	625.494
338.416	16.320	830.967	625.276
339.431	16.294	830.494	624.768
340.446	16.449	829.876	624.823
341.460	16.466	829.029	624.192
342.475	16.429	829.012	623.985
343.489	16.459	828.388	623.574
344.504	16.505	827.386	622.933
345.519	16.566	827.228	622.984
346.533	16.711	826.593	622.983
347.548	16.584	826.393	622.310
348.562	16.615	825.861	621.969
349.577	16.407	825.199	620.650
350.592	16.578	824.439	620.651
351.606	16.513	824.361	620.300
352.621	16.602	823.537	619.950
353.635	16.342	823.332	618.789
354.650	16.604	822.841	619.327
355.665	16.559	822.426	618.793
356.679	16.724	821.559	618.689
357.694	16.571	821.898	618.330
358.708	16.735	820.666	617.948
359.723	16.615	820.493	617.325
360.738	16.709	819.462	616.838
361.752	16.641	819.246	616.371
362.767	16.789	818.902	616.598
363.781	16.712	818.499	615.961
364.796	16.899	818.109	616.291
365.810	16.990	817.369	616.010
366.825	16.869	817.240	615.418
367.840	16.946	816.732	615.262
368.854	16.880	816.370	614.696
369.869	16.903	815.764	614.268
370.883	16.980	815.241	614.097
371.898	16.934	814.652	613.433
372.913	16.939	814.255	613.100
373.927	17.003	813.546	612.740
374.942	17.087	812.883	612.491
375.956	16.976	812.159	611.491
376.971	17.046	811.677	611.327
377.986	16.996	811.043	610.613
379.000	17.209	810.681	611.055
380.015	17.116	810.284	610.368
381.029	17.127	809.575	609.818
382.044	17.175	809.327	609.751
383.059	17.110	808.352	608.729
384.073	17.227	807.926	608.771
385.088	17.284	807.667	608.727
386.102	17.115	807.177	607.698
387.117	17.117	806.468	607.119
388.132	17.046	806.344	606.717
389.146	17.112	805.651	606.378
390.161	17.244	805.142	606.415
391.175	17.232	804.868	606.110
392.190	17.323	804.565	606.152
393.205	17.395	803.666	605.677
394.219	17.159	803.677	604.792
395.234	17.159	803.018	604.244
396.248	17.189	802.531	603.930
397.263	17.212	801.826	603.429
398.278	17.267	801.434	603.276
399.292	17.058	801.111	602.236
400.307	17.121	800.769	602.148
401.321	17.128	800.139	601.647
402.336	17.343	799.635	601.975
403.350	17.142	799.717	601.273
404.365	17.328	799.113	601.422
405.380	17.499	797.956	601.103
406.394	17.576	797.779	601.187
407.409	17.489	797.353	600.507
408.423	17.597	796.960	600.539
409.438	17.643	796.582	600.363
410.453	17.476	796.448	599.620
411.467	17.689	795.806	599.832
412.482	17.657	795.253	599.253
413.496	17.635	794.916	598.869
414.511	17.668	794.826	598.864
415.526	17.675	794.554	598.629
416.540	17.666	793.948	598.090
417.555	17.759	793.280	597.858
418.569	17.681	792.967	597.297
419.584	17.737	792.522	597.103
420.599	17.656	792.096	596.446
421.613	111.282	1293.612	1475.843
422.628	95.618	1366.661	1475.868
