DTS Sentinel unit serial number:	SN413079Multiplexer serial number:	ORYXHardware model number:	OX4-SRSoftware version number:	ORYX F/W v4.00 Oryx Data Collector v3.7.2.0data status	okinstallation	princeton_trtdifferential loss correction	single-endedforward channel	channel 3reverse channel	N/Adate	2019/09/19time	11:08:34forward acquisition time	60.00reverse acquisition time	0.00gamma	496.2192k internal	0.2342k external	0.2342temperature offset calibration	0.9983default loss term (dB/km)	0.3790temperature slope calibration	1.0000multiplexer offset coefficient	1.0000multiplexer slope coefficient	1.0000fibre end	0.00T internal ref (°C)	25.02T ext. ref 1 (°C)	0.77T ext. ref 2 (°C)	20.62length (m)	temperature (°C)	Stokes	anti-Stokes-747.200	-120.089	0.047	-0.008
-746.185	-6.931	0.151	-0.103
-745.171	17.412	-0.164	0.130
-744.156	105.012	-0.201	0.237
-743.142	34.000	-0.021	-0.018
-742.127	74.572	-0.067	0.071
-741.112	800.000	0.119	0.419
-740.098	103.326	0.063	0.074
-739.083	-200.000	-0.009	0.579
-738.069	128.133	0.213	-0.271
-737.054	-60.276	-0.123	0.052
-736.039	-55.612	-0.312	0.140
-735.025	23.376	-0.060	-0.050
-734.010	265.062	-0.198	-0.346
-732.996	-20.654	-0.097	-0.060
-731.981	-91.055	-0.280	0.080
-730.966	-57.379	0.223	-0.098
-729.952	519.443	-0.110	0.258
-728.937	274.119	0.151	-0.267
-727.923	-4.761	-0.347	-0.240
-726.908	617.239	0.062	-0.155
-725.894	300.630	0.065	0.120
-724.879	124.876	0.150	-0.189
-723.864	-112.257	-0.101	-0.020
-722.850	-73.553	-0.296	0.108
-721.835	133.832	0.216	0.280
-720.821	-64.314	-0.114	-0.046
-719.806	394.772	0.069	0.143
-718.791	131.728	-0.121	-0.155
-717.777	-200.000	0.005	0.108
-716.762	-152.323	-0.259	0.019
-715.748	251.063	-0.126	0.214
-714.733	27.497	0.104	0.087
-713.718	-22.546	0.111	-0.067
-712.704	92.910	-0.137	0.155
-711.689	-200.000	0.024	0.108
-710.675	-91.215	-0.145	0.041
-709.660	-75.029	-0.231	-0.083
-708.645	45.924	-0.074	0.069
-707.631	-62.109	-0.134	-0.056
-706.616	470.360	-0.084	-0.189
-705.602	-200.000	-0.013	-0.354
-704.587	16.637	0.078	-0.062
-703.572	-27.973	-0.263	0.153
-702.558	344.489	-0.125	0.245
-701.543	-200.000	-0.017	-0.154
-700.529	-200.000	-0.030	-0.686
-699.514	-62.382	-0.278	-0.116
-698.499	-130.856	-0.256	-0.034
-697.485	-55.350	-0.232	0.104
-696.470	603.681	0.082	0.204
-695.456	78.930	-0.065	-0.069
-694.441	-87.360	0.144	-0.044
-693.426	186.581	-0.138	-0.206
-692.412	35.072	0.023	-0.020
-691.397	-59.246	0.374	0.161
-690.383	55.430	0.055	0.053
-689.368	-45.047	0.058	-0.029
-688.354	-30.694	-0.192	-0.109
-687.339	-179.635	-0.326	0.007
-686.324	72.995	0.192	-0.200
-685.310	259.685	-0.065	0.112
-684.295	113.885	0.093	0.113
-683.281	290.425	0.099	-0.181
-682.266	60.932	-0.070	-0.069
-681.251	-200.000	0.062	-0.336
-680.237	-200.000	0.006	0.268
-679.222	-88.266	-0.262	-0.078
-678.208	-200.000	-0.012	-0.089
-677.193	48.278	0.072	0.068
-676.178	259.519	-0.124	0.214
-675.164	-200.000	0.008	0.056
-674.149	-64.111	-0.134	-0.055
-673.135	-158.722	-0.296	-0.017
-672.120	-200.000	-0.060	-0.508
-671.105	800.000	-0.092	-0.269
-670.091	-198.193	-0.554	0.003
-669.076	517.140	0.144	-0.337
-668.062	-135.969	0.107	-0.013
-667.047	-82.765	-0.258	0.083
-666.032	-75.987	-0.215	-0.076
-665.018	-60.328	0.090	-0.038
-664.003	-134.639	-0.177	0.021
-662.989	-107.287	-0.411	-0.090
-661.974	-71.439	0.215	0.080
-660.959	178.567	-0.057	0.084
-659.945	-83.025	-0.263	0.085
-658.930	80.318	-0.111	-0.119
-657.916	-67.489	-0.197	-0.077
-656.901	-158.553	-0.200	0.012
-655.886	-200.000	0.009	-0.166
-654.872	16.076	-0.392	-0.308
-653.857	60.086	0.174	-0.172
-652.843	800.000	-0.068	-0.228
-651.828	-70.419	0.220	-0.083
-650.814	-20.178	-0.249	-0.153
-649.799	-11.512	-0.234	-0.154
-648.784	44.544	0.225	0.206
-647.770	73.587	-0.065	-0.068
-646.755	125.546	-0.141	0.177
-645.741	-138.469	0.625	0.069
-644.726	197.860	-0.198	0.302
-643.711	-132.731	0.293	-0.037
-642.697	-32.744	0.149	0.082
-641.682	129.187	-0.127	-0.162
-640.668	-200.000	-0.043	0.304
-639.653	-88.716	0.241	0.072
-638.638	188.622	-0.090	0.134
-637.624	211.701	-0.027	-0.042
-636.609	321.376	-0.105	-0.199
-635.595	-200.000	0.101	-0.454
-634.580	-40.820	0.099	-0.051
-633.565	-75.658	-0.083	0.029
-632.551	-200.000	-0.030	-0.148
-631.536	-137.560	0.417	-0.047
-630.522	-49.689	0.119	-0.056
-629.507	-142.167	-0.337	0.033
-628.492	-200.000	-0.038	0.165
-627.478	132.798	0.120	-0.155
-626.463	-200.000	-0.013	-0.165
-625.449	800.000	0.056	-0.230
-624.434	-57.321	-0.252	-0.110
-623.419	138.513	-0.045	0.059
-622.405	109.493	-0.096	-0.115
-621.390	-115.174	-0.179	-0.034
-620.376	29.327	0.040	-0.034
-619.361	-147.503	-0.260	0.022
-618.346	-75.124	0.129	-0.046
-617.332	-200.000	0.032	-0.168
-616.317	-131.505	0.349	0.046
-615.303	-200.000	-0.319	-0.001
-614.288	-163.356	-0.180	0.009
-613.273	-83.741	0.088	-0.028
-612.259	22.444	0.082	-0.067
-611.244	2.190	0.058	-0.042
-610.230	800.000	0.151	-0.457
-609.215	45.889	0.245	0.226
-608.201	-94.361	-0.267	-0.073
-607.186	52.774	-0.057	0.055
-606.171	-112.984	0.194	-0.038
-605.157	-84.131	0.151	0.048
-604.142	-200.000	0.010	-0.559
-603.128	800.000	-0.117	0.372
-602.113	-52.574	0.097	-0.045
-601.098	-7.744	0.335	0.226
-600.084	-51.313	-0.387	0.181
-599.069	-154.845	-0.036	0.002
-598.055	-48.360	0.185	-0.089
-597.040	800.000	0.062	0.217
-596.025	-79.170	-0.202	-0.068
-595.011	-91.723	-0.222	0.063
-593.996	800.000	-0.052	0.210
-592.982	-79.543	0.311	-0.105
-591.967	131.910	0.057	-0.073
-590.952	800.000	-0.063	-0.187
-589.938	-9.397	-0.256	-0.170
-588.923	273.611	-0.030	-0.053
-587.909	-200.000	-0.011	-0.305
-586.894	374.003	-0.187	0.380
-585.879	-200.000	0.061	0.284
-584.865	401.783	-0.056	0.117
-583.850	739.409	-0.082	0.219
-582.836	219.076	-0.184	0.292
-581.821	-132.440	-0.254	0.033
-580.806	421.995	0.061	0.131
-579.792	-54.338	-0.279	-0.126
-578.777	800.000	0.020	0.080
-577.763	-118.830	0.163	0.029
-576.748	800.000	-0.141	0.416
-575.733	-154.716	-0.216	-0.014
-574.719	-118.948	0.169	0.029
-573.704	-93.214	0.196	0.054
-572.690	396.783	0.129	-0.268
-571.675	-74.449	-0.089	0.032
-570.661	800.000	0.042	-0.141
-569.646	-40.991	-0.416	0.214
-568.631	-130.616	0.294	-0.039
-567.617	-29.596	0.111	0.063
-566.602	400.334	0.096	0.201
-565.588	-72.156	-0.286	0.105
-564.573	96.755	0.179	-0.204
-563.558	800.000	0.035	0.108
-562.544	-35.212	-0.124	0.067
-561.529	38.342	-0.205	0.182
-560.515	-102.106	-0.030	-0.007
-559.500	-65.176	-0.091	0.037
-558.485	26.847	0.125	0.104
-557.471	800.000	0.068	-0.192
-556.456	106.000	-0.056	-0.066
-555.442	-200.000	-0.000	-0.163
-554.427	-200.000	0.014	0.117
-553.412	149.409	0.309	-0.417
-552.398	-200.000	-0.014	0.081
-551.383	-4.593	0.454	-0.312
-550.369	401.341	-0.215	-0.449
-549.354	-27.612	0.078	0.045
-548.339	-200.000	-0.009	-0.142
-547.325	-95.206	-0.454	-0.122
-546.310	666.430	-0.035	0.091
-545.296	-200.000	-0.034	-0.228
-544.281	-200.000	-0.010	0.252
-543.266	317.820	-0.071	0.134
-542.252	800.000	-0.056	-0.178
-541.237	-200.000	-0.059	-0.374
-540.223	-27.336	0.094	-0.054
-539.208	800.000	0.171	0.473
-538.193	465.141	0.029	0.065
-537.179	345.925	0.025	-0.048
-536.164	-12.314	-0.095	-0.062
-535.150	800.000	-0.034	-0.108
-534.135	23.330	0.222	0.181
-533.121	-158.158	0.199	-0.012
-532.106	-180.059	-0.177	-0.004
-531.091	-200.000	0.035	-0.161
-530.077	-100.836	-0.049	-0.012
-529.062	328.526	-0.164	-0.313
-528.048	-137.293	0.313	-0.035
-527.033	170.213	0.291	-0.413
-526.018	521.172	-0.063	0.146
-525.004	-99.121	0.196	-0.049
-523.989	-34.886	0.289	0.157
-522.975	119.904	-0.168	-0.207
-521.960	-27.369	-0.227	0.131
-520.945	-200.000	-0.022	-0.107
-519.931	-91.372	0.360	0.102
-518.916	10.330	0.218	0.165
-517.902	800.000	-0.018	0.072
-516.887	-5.583	-0.150	0.102
-515.872	-197.972	-0.171	0.001
-514.858	-193.596	-0.126	-0.001
-513.843	-141.970	0.164	-0.016
-512.829	51.000	0.157	-0.148
-511.814	266.347	-0.099	0.172
-510.799	110.050	-0.105	0.125
-509.785	0.850	-0.174	0.124
-508.770	-43.235	0.241	-0.121
-507.756	-200.000	0.013	-0.127
-506.741	-37.524	0.192	-0.101
-505.726	-22.494	-0.209	-0.126
-504.712	-200.000	-0.009	-0.066
-503.697	27.195	-0.083	0.069
-502.683	-200.000	-0.007	-0.247
-501.668	-200.000	-0.011	-0.252
-500.653	-95.144	0.400	0.107
-499.639	-117.149	0.052	-0.009
-498.624	800.000	-0.029	0.115
-497.610	800.000	0.189	0.521
-496.595	323.148	0.064	-0.121
-495.581	-200.000	-0.054	-0.435
-494.566	-116.930	-0.524	-0.095
-493.551	800.000	-0.062	-0.198
-492.537	-48.377	-0.158	-0.076
-491.522	-200.000	0.016	0.088
-490.508	-28.596	-0.141	0.081
-489.493	800.000	0.111	-0.349
-488.478	-187.827	0.209	-0.003
-487.464	-200.000	0.035	-0.231
-486.449	-30.620	-0.233	-0.131
-485.435	-13.669	0.030	-0.019
-484.420	-200.000	0.028	-0.142
-483.405	-69.784	-0.080	-0.030
-482.391	105.362	0.057	0.067
-481.376	460.443	-0.116	0.256
-480.362	-59.897	0.157	-0.067
-479.347	55.101	-0.132	0.127
-478.332	223.734	0.152	0.243
-477.318	166.469	0.162	-0.228
-476.303	-200.000	-0.000	0.281
-475.289	212.992	-0.107	-0.167
-474.274	150.454	-0.090	0.121
-473.259	800.000	0.037	0.106
-472.245	800.000	-0.063	0.212
-471.230	-16.111	-0.131	0.082
-470.216	-19.337	0.150	0.092
-469.201	-104.915	0.219	0.050
-468.186	0.768	-0.313	-0.222
-467.172	800.000	-0.088	0.250
-466.157	-200.000	0.017	0.241
-465.143	79.469	0.107	-0.114
-464.128	405.948	-0.106	0.221
-463.113	13.979	-0.166	-0.128
-462.099	131.023	0.233	0.296
-461.084	-115.554	-0.262	0.049
-460.070	-200.000	0.057	0.248
-459.055	-200.000	0.029	-0.217
-458.040	290.293	0.153	0.275
-457.026	80.856	0.215	-0.230
-456.011	-157.185	-0.098	0.006
-454.997	-161.595	0.076	-0.004
-453.982	323.211	-0.177	-0.334
-452.968	36.302	-0.183	0.160
-451.953	-27.071	-0.265	-0.153
-450.938	-200.000	0.039	0.209
-449.924	-75.041	0.157	-0.056
-448.909	42.730	-0.229	0.206
-447.895	165.322	0.012	0.017
-446.880	506.555	-0.090	0.206
-445.865	262.063	-0.071	0.122
-444.851	101.686	-0.046	0.053
-443.836	285.239	-0.055	0.098
-442.822	-130.063	-0.526	0.071
-441.807	204.789	0.052	-0.079
-440.792	141.220	0.060	0.079
-439.778	108.051	0.073	0.086
-438.763	-99.675	-0.214	0.053
-437.749	37.630	-0.034	0.030
-436.734	121.151	-0.211	-0.261
-435.719	215.004	-0.123	-0.193
-434.705	275.806	-0.234	-0.412
-433.690	-183.002	0.338	-0.006
-432.676	-179.047	-0.395	-0.009
-431.661	81.547	-0.178	-0.191
-430.646	-159.083	0.225	0.013
-429.632	131.872	-0.239	0.305
-428.617	-26.096	-0.278	-0.162
-427.603	16.811	0.061	-0.048
-426.588	-86.131	-0.195	0.060
-425.573	-200.000	0.029	0.382
-424.559	-200.000	-0.026	0.307
-423.544	-200.000	0.005	0.041
-422.530	-200.000	0.054	0.260
-421.515	269.098	0.168	-0.292
-420.500	-4.222	-0.279	-0.191
-419.486	-185.415	0.184	0.003
-418.471	800.000	-0.102	0.307
-417.457	4.791	0.216	-0.157
-416.442	87.697	0.106	-0.116
-415.428	16.308	-0.040	0.031
-414.413	-83.913	-0.212	-0.067
-413.398	163.423	-0.080	-0.111
-412.384	-30.093	-0.188	0.106
-411.369	-97.245	-0.145	-0.037
-410.355	800.000	0.098	0.399
-409.340	591.295	-0.019	-0.046
-408.325	-73.128	0.061	-0.022
-407.311	800.000	0.060	0.235
-406.296	-133.131	-0.328	0.041
-405.282	-200.000	0.038	-0.251
-404.267	377.615	0.141	-0.285
-403.252	37.373	0.128	-0.113
-402.238	57.075	-0.139	-0.134
-401.223	-19.520	0.126	-0.077
-400.209	200.033	-0.170	0.257
-399.194	-14.069	-0.087	0.056
-398.179	-138.472	0.087	0.009
-397.165	107.189	0.084	-0.099
-396.150	25.646	0.142	-0.117
-395.136	-169.251	-0.373	0.014
-394.121	232.228	0.110	-0.178
-393.106	-52.337	-0.304	0.139
-392.092	-192.518	-0.309	-0.003
-391.077	100.932	0.092	-0.106
-390.063	-39.408	-0.157	0.082
-389.048	-5.974	0.026	-0.017
-388.033	691.539	-0.070	0.182
-387.019	-99.293	-0.134	0.033
-386.004	-168.319	0.404	0.015
-384.990	214.664	0.075	-0.118
-383.975	58.648	-0.163	-0.158
-382.960	104.110	0.092	-0.106
-381.946	-200.000	0.025	-0.230
-380.931	190.221	-0.119	-0.177
-379.917	-200.000	0.029	-0.131
-378.902	-200.000	-0.018	0.177
-377.888	-200.000	-0.035	0.273
-376.873	-31.905	0.392	-0.217
-375.858	-82.391	-0.190	-0.061
-374.844	226.868	0.034	-0.055
-373.829	4.550	0.307	-0.223
-372.815	-186.034	0.202	0.003
-371.800	-200.000	0.026	-0.121
-370.785	206.684	-0.103	0.159
-369.771	19.540	0.103	-0.082
-368.756	-200.000	0.057	-0.364
-367.742	-145.912	0.193	0.017
-366.727	-200.000	0.011	-0.076
-365.712	-113.807	-0.136	-0.026
-364.698	-169.504	-0.172	0.006
-363.683	-96.178	0.262	0.069
-362.669	-136.421	0.292	0.033
-361.654	62.321	0.230	0.227
-360.639	-200.000	0.056	0.296
-359.625	67.021	0.082	0.082
-358.610	-42.747	0.170	0.085
-357.596	124.673	0.283	0.352
-356.581	-118.180	0.464	-0.082
-355.566	-71.751	-0.268	-0.098
-354.552	92.310	0.096	-0.107
-353.537	263.193	0.114	-0.195
-352.523	800.000	-0.075	0.268
-351.508	3.578	-0.073	0.053
-350.493	-85.287	0.101	-0.031
-349.479	-200.000	-0.014	0.071
-348.464	261.045	-0.118	-0.202
-347.450	296.578	-0.205	0.370
-346.435	2.185	0.025	-0.018
-345.420	-200.000	-0.003	-0.386
-344.406	-82.571	0.226	0.072
-343.391	36.902	-0.250	-0.218
-342.377	364.144	0.046	0.092
-341.362	173.046	0.143	0.204
-340.348	800.000	-0.033	0.100
-339.333	163.148	0.269	0.372
-338.318	-21.629	0.174	0.105
-337.304	7.906	-0.145	0.107
-336.289	197.210	-0.032	-0.048
-335.275	-200.000	-0.022	0.106
-334.260	-124.795	-0.143	0.022
-333.245	-109.827	0.222	-0.046
-332.231	-200.000	-0.060	0.310
-331.216	595.592	-0.088	-0.215
-330.202	72.794	-0.075	-0.077
-329.187	96.704	-0.055	0.062
-328.172	149.956	-0.098	-0.131
-327.158	-200.000	-0.020	0.340
-326.143	800.000	-0.089	0.251
-325.129	-153.444	0.260	0.018
-324.114	-172.735	0.287	0.009
-323.099	-200.000	0.002	0.301
-322.085	36.906	0.205	-0.179
-321.070	-25.292	-0.059	-0.034
-320.056	800.000	0.067	0.270
-319.041	-51.965	0.292	0.134
-318.026	-54.061	0.268	-0.120
-317.012	-99.958	-0.361	-0.089
-315.997	217.023	0.150	0.235
-314.983	81.301	0.263	-0.280
-313.968	47.101	0.089	-0.082
-312.953	-98.048	-0.335	-0.085
-311.939	-152.498	0.513	-0.036
-310.924	-99.956	-0.148	-0.037
-309.910	78.721	-0.140	0.147
-308.895	-133.159	0.308	-0.038
-307.880	-66.524	-0.114	0.045
-306.866	-29.776	-0.257	-0.145
-305.851	549.218	-0.098	0.230
-304.837	-200.000	0.013	0.560
-303.822	-80.354	-0.134	-0.044
-302.807	800.000	0.089	-0.251
-301.793	104.640	0.147	0.170
-300.778	800.000	0.069	-0.196
-299.764	-74.310	-0.272	0.097
-298.749	65.380	0.208	-0.207
-297.735	-200.000	0.061	0.361
-296.720	441.647	-0.069	-0.149
-295.705	-73.036	0.274	0.099
-294.691	-0.625	0.048	-0.034
-293.676	90.359	-0.349	0.384
-292.662	-200.000	0.042	0.201
-291.647	-69.099	0.301	-0.114
-290.632	-170.334	0.104	-0.004
-289.618	-2.899	-0.293	-0.202
-288.603	-188.400	0.338	-0.004
-287.589	207.131	0.252	0.387
-286.574	-134.130	0.264	-0.032
-285.559	431.631	0.109	-0.233
-284.545	-200.000	0.018	-0.094
-283.530	-200.000	-0.005	0.135
-282.516	42.451	0.104	-0.093
-281.501	63.880	0.070	-0.069
-280.486	-3.913	-0.141	-0.096
-279.472	-200.000	-0.005	-0.029
-278.457	-87.039	0.204	0.061
-277.443	-200.000	0.032	0.190
-276.428	134.316	-0.149	0.190
-275.413	92.956	-0.220	0.245
-274.399	61.357	-0.046	-0.045
-273.384	28.935	-0.065	0.054
-272.370	800.000	-0.022	-0.074
-271.355	-106.560	0.284	0.062
-270.340	106.762	-0.197	0.230
-269.326	-200.000	-0.044	-0.444
-268.311	160.968	0.124	-0.170
-267.297	37.907	-0.277	0.242
-266.282	800.000	-0.081	0.267
-265.267	-8.922	0.293	-0.193
-264.253	800.000	0.056	0.191
-263.238	800.000	-0.127	0.417
-262.224	-88.123	-0.195	0.057
-261.209	54.933	-0.148	0.141
-260.195	-98.743	0.367	0.092
-259.180	403.582	0.054	-0.113
-258.165	-96.145	0.133	0.035
-257.151	-88.373	-0.177	0.052
-256.136	442.497	0.022	-0.047
-255.122	-55.080	-0.009	0.004
-254.107	384.354	0.080	0.161
-253.092	-200.000	0.061	0.288
-252.078	537.644	0.129	-0.300
-251.063	800.000	-0.065	-0.269
-250.049	-26.051	-0.334	-0.193
-249.034	-76.569	-0.141	-0.049
-248.019	-87.173	0.252	0.075
-247.005	-188.737	-0.433	-0.005
-245.990	-25.053	0.327	-0.190
-244.976	158.318	0.174	-0.237
-243.961	61.585	-0.138	-0.135
-242.946	-88.843	0.119	0.035
-241.932	-200.000	0.034	-0.324
-240.917	-184.752	-0.140	0.002
-239.903	59.696	0.013	-0.012
-238.888	-12.843	-0.154	-0.099
-237.873	723.127	-0.105	0.274
-236.859	-44.867	0.135	-0.066
-235.844	800.000	0.084	-0.350
-234.830	-100.259	0.224	-0.055
-233.815	800.000	-0.100	-0.315
-232.800	-59.069	0.148	-0.063
-231.786	-104.282	0.206	0.047
-230.771	158.010	0.063	0.086
-229.757	-200.000	0.017	0.309
-228.742	246.604	-0.055	-0.091
-227.727	229.369	0.019	0.030
-226.713	-104.387	-0.523	-0.119
-225.698	-92.658	0.113	0.031
-224.684	-103.372	0.136	0.031
-223.669	800.000	-0.030	0.090
-222.655	-115.576	-0.095	0.017
-221.640	353.087	-0.030	0.058
-220.625	-45.425	-0.216	-0.105
-219.611	-43.263	-0.129	-0.064
-218.596	800.000	0.079	0.238
-217.582	-74.783	0.095	-0.034
-216.567	77.637	-0.213	-0.223
-215.552	-15.049	-0.251	-0.158
-214.538	800.000	-0.041	-0.167
-213.523	-170.627	0.044	-0.002
-212.509	-200.000	0.052	-0.261
-211.494	800.000	0.101	-0.420
-210.479	-200.000	-0.009	0.069
-209.465	477.690	-0.048	-0.106
-208.450	20.979	0.143	0.114
-207.436	170.064	0.082	-0.115
-206.421	-91.723	-0.114	0.032
-205.406	-75.525	-0.169	-0.059
-204.392	-10.415	0.126	-0.082
-203.377	800.000	0.066	-0.237
-202.363	447.753	-0.131	0.283
-201.348	-65.141	-0.213	0.084
-200.333	21.783	-0.028	-0.023
-199.319	72.402	-0.255	-0.260
-198.304	-16.854	0.170	0.105
-197.290	-115.923	-0.177	0.032
-196.275	549.031	-0.033	-0.078
-195.260	800.000	-0.053	0.199
-194.246	257.313	-0.204	-0.344
-193.231	-200.000	0.031	-0.213
-192.217	-200.000	0.005	0.291
-191.202	-45.749	-0.195	0.094
-190.187	29.959	0.053	-0.045
-189.173	-200.000	-0.003	-0.169
-188.158	-90.209	-0.052	0.015
-187.144	-26.004	-0.114	-0.066
-186.129	-191.733	-0.187	-0.002
-185.114	-53.425	0.354	0.159
-184.100	-31.596	-0.164	-0.090
-183.085	143.530	-0.160	-0.209
-182.071	153.094	-0.196	-0.263
-181.056	431.875	-0.076	-0.162
-180.042	800.000	-0.081	0.281
-179.027	-15.566	0.376	0.235
-178.012	-200.000	0.012	0.151
-176.998	26.296	0.170	-0.139
-175.983	-164.230	0.348	0.016
-174.969	-124.391	-0.190	-0.029
-173.954	251.487	0.005	0.008
-172.939	-121.447	-0.136	0.022
-171.925	-105.847	0.262	-0.058
-170.910	-22.021	0.097	0.058
-169.896	84.900	-0.207	-0.223
-168.881	-140.435	0.362	-0.037
-167.866	-200.000	0.027	-0.127
-166.852	-74.152	-0.311	0.110
-165.837	587.026	0.048	0.115
-164.823	-27.929	-0.113	-0.064
-163.808	-92.857	-0.181	-0.049
-162.793	-200.000	-0.022	0.119
-161.779	237.862	-0.058	0.095
-160.764	674.748	-0.061	0.156
-159.750	165.120	0.121	0.168
-158.735	-88.684	0.286	0.083
-157.720	209.148	0.063	-0.096
-156.706	-150.612	0.214	0.016
-155.691	800.000	-0.071	0.206
-154.677	165.119	-0.060	0.083
-153.662	38.671	-0.050	-0.043
-152.647	-39.911	-0.042	-0.021
-151.633	320.145	0.065	0.121
-150.618	-200.000	-0.027	-0.179
-149.604	-17.378	0.304	0.188
-148.589	89.177	0.089	-0.097
-147.574	800.000	-0.036	0.127
-146.560	514.106	-0.085	-0.195
-145.545	-123.738	-0.219	0.034
-144.531	800.000	0.032	-0.130
-143.516	-48.976	-0.140	-0.066
-142.502	-61.164	0.118	0.049
-141.487	-192.089	-0.224	-0.002
-140.472	-147.515	-0.251	0.021
-139.458	393.196	-0.061	0.124
-138.443	93.056	0.042	0.047
-137.429	-45.819	0.132	0.064
-136.414	-159.639	-0.529	-0.029
-135.399	139.953	0.111	-0.143
-134.385	34.305	-0.255	-0.217
-133.370	-80.482	-0.230	0.075
-132.356	800.000	-0.073	0.233
-131.341	106.479	-0.104	-0.120
-130.326	-94.059	0.123	-0.033
-129.312	-111.217	-0.330	-0.066
-128.297	-200.000	0.004	0.064
-127.283	16.298	-0.149	0.115
-126.268	-200.000	-0.001	0.011
-125.253	800.000	-0.034	0.109
-124.239	-200.000	-0.093	-0.510
-123.224	-89.735	-0.246	0.071
-122.210	729.157	0.078	0.205
-121.195	-134.509	0.256	-0.031
-120.180	-55.259	-0.312	0.137
-119.166	-200.000	0.038	-0.180
-118.151	800.000	0.035	0.099
-117.137	800.000	0.067	-0.194
-116.122	-200.000	-0.007	0.045
-115.107	34.239	0.113	-0.096
-114.093	-200.000	0.055	-0.246
-113.078	800.000	-0.027	0.104
-112.064	217.777	0.076	-0.119
-111.049	-22.455	-0.136	-0.080
-110.034	126.418	-0.198	0.245
-109.020	-148.769	0.217	-0.017
-108.005	-200.000	-0.034	0.197
-106.991	11.619	-0.065	-0.049
-105.976	32.455	0.097	-0.082
-104.962	144.481	0.308	-0.402
-103.947	800.000	-0.103	-0.349
-102.932	-53.401	-0.212	-0.095
-101.918	-54.003	-0.106	-0.047
-100.903	-63.501	-0.191	0.077
-99.889	-200.000	-0.067	-0.325
-98.874	56.458	0.141	0.134
-97.859	-200.000	0.016	-0.254
-96.845	53.448	0.174	-0.163
-95.830	-133.811	0.346	0.042
-94.816	-93.529	0.152	-0.041
-93.801	-128.165	0.128	-0.018
-92.786	-200.000	0.010	0.111
-91.772	-10.234	-0.117	-0.076
-90.757	380.967	0.230	0.461
-89.743	17.586	0.068	-0.053
-88.728	6.011	-0.103	0.075
-87.713	800.000	-0.060	0.184
-86.699	374.020	-0.061	0.122
-85.684	-137.770	0.153	-0.017
-84.670	-200.000	0.022	-0.187
-83.655	-200.000	-0.002	0.075
-82.640	9.274	-0.182	0.134
-81.626	-200.000	0.174	0.001
-80.611	-74.890	-0.313	0.109
-79.597	-200.000	0.005	0.202
-78.582	81.611	-0.103	-0.108
-77.567	-93.788	-0.089	-0.024
-76.553	-200.000	0.041	-0.365
-75.538	87.064	0.025	0.027
-74.524	800.000	-0.044	0.180
-73.509	800.000	0.123	-0.422
-72.494	-149.435	0.178	-0.014
-71.480	559.387	0.169	0.399
-70.465	-200.000	0.063	0.467
-69.451	689.449	0.147	-0.376
-68.436	800.000	0.051	-0.186
-67.422	-73.459	0.261	0.093
-66.407	-148.597	-0.207	0.016
-65.392	626.375	0.077	0.190
-64.378	-157.322	-0.155	0.009
-63.363	48.425	-0.130	-0.119
-62.349	175.596	0.080	-0.113
-61.334	39.813	-1.307	-1.144
-60.319	73.985	0.672	0.687
-59.305	800.000	-0.259	-1.081
-58.290	224.358	0.843	1.328
-57.276	347.710	0.613	1.178
-56.261	-200.000	122.007	623.055
-55.246	386.618	1584.530	3191.302
-54.232	139.531	2753.448	3534.743
-53.217	95.893	2210.328	2461.333
-52.203	35.692	1720.307	1473.925
-51.188	28.149	1534.732	1263.032
-50.173	25.990	1509.461	1227.510
-49.159	48.184	1575.842	1437.000
-48.144	46.449	1590.109	1437.849
-47.130	28.095	1541.443	1267.984
-46.115	25.294	1525.371	1235.466
-45.100	24.982	1522.236	1230.735
-44.086	25.032	1520.240	1229.409
-43.071	24.959	1517.988	1227.039
-42.057	25.056	1516.304	1226.293
-41.042	25.009	1515.448	1225.235
-40.027	25.045	1513.244	1223.649
-39.013	25.016	1511.811	1222.246
-37.998	24.920	1510.993	1220.880
-36.984	24.947	1509.689	1219.958
-35.969	24.947	1508.339	1218.820
-34.954	25.020	1506.796	1218.025
-33.940	24.959	1506.078	1216.982
-32.925	24.974	1504.442	1215.709
-31.911	25.071	1502.889	1215.068
-30.896	25.061	1501.576	1213.886
-29.881	25.007	1500.566	1212.660
-28.867	25.064	1498.754	1211.530
-27.852	25.146	1497.363	1210.911
-26.838	25.069	1496.161	1209.376
-25.823	25.078	1494.137	1207.752
-24.809	24.895	1493.217	1205.724
-23.794	25.024	1491.220	1204.933
-22.779	24.955	1490.869	1204.136
-21.765	25.089	1489.221	1203.656
-20.750	25.167	1487.950	1203.104
-19.736	25.097	1486.950	1201.782
-18.721	25.012	1486.592	1200.876
-17.706	25.066	1485.187	1200.055
-16.692	25.026	1484.079	1198.842
-15.677	25.037	1482.953	1197.958
-14.663	24.980	1482.363	1197.052
-13.648	25.027	1481.163	1196.349
-12.633	25.017	1480.373	1195.598
-11.619	24.971	1479.352	1194.421
-10.604	25.016	1478.583	1194.055
-9.590	25.074	1477.151	1193.233
-8.575	25.049	1476.642	1192.611
-7.560	25.010	1475.782	1191.609
-6.546	24.964	1475.060	1190.671
-5.531	25.008	1473.958	1190.026
-4.517	25.060	1472.507	1189.154
-3.502	25.094	1471.749	1188.716
-2.487	25.086	1471.092	1188.091
-1.473	25.030	1470.016	1186.802
-0.458	24.935	1468.854	1185.190
0.556	23.995	1459.385	1175.073
1.571	21.170	1434.340	1136.445
2.586	17.813	1370.772	1065.062
3.600	16.181	1285.269	988.978
4.615	15.022	1240.318	947.747
5.629	13.133	1183.555	894.078
6.644	6.788	1100.226	799.037
7.659	1.653	1063.186	746.917
8.673	0.848	1057.743	739.094
9.688	0.686	1054.600	736.042
10.702	0.757	1053.254	735.384
11.717	0.780	1050.972	733.837
12.731	2.879	1052.333	744.917
13.746	9.259	1061.383	782.392
14.761	15.198	1068.784	816.809
15.775	17.041	1070.727	827.217
16.790	16.866	1069.913	825.661
17.804	15.923	1067.970	819.501
18.819	15.031	1065.634	813.302
19.834	14.650	1064.069	810.187
20.848	14.493	1063.174	808.675
21.863	14.187	1062.066	806.277
22.877	13.841	1061.607	804.182
23.892	13.784	1060.649	803.109
24.907	13.648	1059.861	801.783
25.921	13.644	1058.950	801.001
26.936	13.625	1058.451	800.463
27.950	13.666	1057.785	800.085
28.965	13.580	1057.523	799.401
29.980	13.704	1056.014	798.790
30.994	13.796	1054.984	798.383
32.009	13.840	1054.206	797.934
33.023	13.862	1053.679	797.569
34.038	13.902	1052.718	796.962
35.053	13.920	1051.539	796.087
36.067	13.902	1050.723	795.314
37.082	13.774	1050.015	794.095
38.096	13.649	1049.515	793.048
39.111	13.858	1048.271	793.035
40.126	13.752	1047.239	791.678
41.140	13.665	1046.458	790.604
42.155	13.660	1045.441	789.739
43.169	13.576	1044.554	788.603
44.184	13.645	1043.913	788.374
45.199	13.610	1042.604	787.153
46.213	13.637	1041.539	786.407
47.228	13.602	1040.506	785.392
48.242	13.733	1039.432	785.131
49.257	13.727	1038.692	784.472
50.271	13.702	1037.832	783.639
51.286	13.722	1036.687	782.796
52.301	13.715	1036.029	782.197
53.315	13.818	1035.354	782.103
54.330	13.767	1034.397	781.070
55.344	13.718	1033.735	780.272
56.359	13.783	1032.566	779.627
57.374	13.826	1031.491	778.950
58.388	13.613	1031.317	777.747
59.403	13.713	1030.213	777.314
60.417	13.624	1029.457	776.258
61.432	13.616	1028.964	775.780
62.447	13.715	1027.929	775.394
63.461	13.647	1027.214	774.471
64.476	13.580	1026.291	773.395
65.490	13.608	1025.297	772.706
66.505	13.608	1024.707	772.192
67.520	13.635	1023.440	771.294
68.534	13.637	1022.756	770.722
69.549	13.692	1021.864	770.237
70.563	13.646	1021.514	769.689
71.578	13.582	1021.037	768.967
72.593	13.628	1019.774	768.161
73.607	13.598	1019.057	767.414
74.622	13.518	1018.194	766.325
75.636	13.596	1016.850	765.605
76.651	13.488	1016.228	764.573
77.666	13.504	1015.625	764.123
78.680	13.565	1014.914	763.801
79.695	13.558	1014.835	763.643
80.709	13.527	1013.928	762.750
81.724	13.659	1012.840	762.474
82.739	13.614	1011.844	761.447
83.753	13.748	1011.308	761.591
84.768	13.768	1010.291	760.852
85.782	13.701	1009.679	760.015
86.797	13.737	1009.414	759.916
87.812	13.744	1007.961	758.786
88.826	13.765	1007.271	758.292
89.841	13.742	1006.390	757.461
90.855	13.724	1005.980	757.001
91.870	13.882	1004.954	756.884
92.884	13.730	1004.384	755.694
93.899	13.747	1003.688	755.182
94.914	13.902	1002.707	755.079
95.928	13.986	1002.046	754.899
96.943	13.867	1001.839	754.135
97.957	13.874	1000.355	752.983
98.972	13.999	999.459	752.809
99.987	13.849	999.329	751.963
101.001	13.894	998.325	751.344
102.016	13.729	997.568	749.962
103.030	13.805	996.222	749.230
104.045	13.879	995.096	748.647
105.060	13.856	994.669	748.156
106.074	13.803	993.738	747.154
107.089	13.839	992.647	746.429
108.103	13.796	991.918	745.619
109.118	13.695	990.901	744.338
110.133	13.634	990.299	743.546
111.147	13.831	989.194	743.532
112.162	13.736	988.134	742.244
113.176	13.617	987.660	741.290
114.191	13.823	986.623	741.368
115.206	13.872	985.401	740.602
116.220	13.723	984.956	739.538
117.235	13.724	984.281	738.970
118.249	13.790	983.517	738.623
119.264	13.902	982.097	737.991
120.279	13.852	981.375	737.159
121.293	13.772	980.612	736.168
122.308	13.603	979.841	734.776
123.322	13.721	978.875	734.505
124.337	13.717	977.853	733.659
125.352	13.729	976.603	732.708
126.366	13.754	975.803	732.152
127.381	13.845	974.467	731.486
128.395	13.597	973.466	729.580
129.410	13.670	972.534	729.136
130.424	13.678	971.540	728.361
131.439	13.882	970.370	728.317
132.454	13.826	969.515	727.367
133.468	13.775	968.954	726.658
134.483	13.941	968.202	726.753
135.497	13.850	967.689	725.909
136.512	13.762	966.650	724.680
137.527	13.724	966.553	724.376
138.541	13.841	965.462	724.004
139.556	13.749	964.713	722.980
140.570	13.875	963.506	722.559
141.585	13.821	963.263	722.077
142.600	13.840	962.534	721.548
143.614	13.902	961.686	721.118
144.629	13.892	961.069	720.548
145.643	13.934	959.856	719.759
146.658	13.898	959.360	719.165
147.673	13.943	958.433	718.602
148.687	13.952	957.264	717.700
149.702	13.915	956.454	716.873
150.716	13.965	955.660	716.429
151.731	13.936	954.728	715.542
152.746	13.934	954.092	714.993
153.760	13.951	953.476	714.542
154.775	13.942	952.654	713.824
155.789	13.990	952.062	713.522
156.804	13.955	951.560	712.932
157.819	13.996	950.700	712.402
158.833	14.037	949.732	711.790
159.848	14.203	948.806	711.742
160.862	14.013	948.634	710.736
161.877	14.132	947.774	710.539
162.892	14.200	946.918	710.123
163.906	13.846	946.220	708.028
164.921	14.168	945.005	708.429
165.935	13.931	944.198	706.753
166.950	14.065	943.423	706.679
167.964	13.990	942.565	705.655
168.979	14.107	941.511	705.301
169.994	14.093	940.351	704.306
171.008	14.063	939.460	703.454
172.023	14.097	938.988	703.181
173.037	14.178	937.968	702.697
174.052	14.245	937.113	702.275
175.067	14.175	936.886	701.748
176.081	14.153	936.031	700.955
177.096	14.089	934.947	699.808
178.110	14.162	934.211	699.503
179.125	14.257	933.576	699.366
180.140	14.096	932.839	698.076
181.154	14.080	932.296	697.542
182.169	14.175	931.782	697.492
183.183	14.313	930.808	697.282
184.198	14.316	930.112	696.709
185.213	14.245	929.478	695.877
186.227	14.281	929.092	695.677
187.242	14.343	928.506	695.433
188.256	14.416	927.771	695.128
189.271	14.306	927.266	694.230
190.286	14.393	926.239	693.761
191.300	14.364	925.493	693.019
192.315	14.331	924.831	692.325
193.329	14.407	924.151	692.072
194.344	14.164	923.608	690.594
195.359	14.447	922.782	691.090
196.373	14.442	922.092	690.492
197.388	14.451	922.004	690.401
198.402	14.409	921.479	689.771
199.417	14.349	921.065	689.153
200.432	14.451	920.141	688.824
201.446	14.555	919.614	688.796
202.461	14.482	919.680	688.485
203.475	14.564	919.053	688.292
204.490	14.764	917.935	688.219
205.504	14.610	917.395	687.120
206.519	14.611	916.750	686.579
207.534	14.546	915.755	685.505
208.548	14.610	914.998	685.140
209.563	14.702	914.318	684.949
210.577	14.675	913.932	684.487
211.592	14.576	913.140	683.429
212.607	14.732	913.008	683.910
213.621	14.698	912.305	683.181
214.636	14.727	911.603	682.712
215.650	14.810	910.472	682.146
216.665	14.789	910.081	681.708
217.680	14.877	909.487	681.559
218.694	14.890	909.215	681.347
219.709	14.701	908.924	680.302
220.723	14.793	907.930	679.872
221.738	14.896	907.367	679.807
222.753	14.831	906.508	678.839
223.767	14.844	905.762	678.277
224.782	14.961	904.892	678.035
225.796	14.775	904.531	676.955
226.811	14.913	903.863	676.951
227.826	14.964	902.932	676.400
228.840	14.812	902.554	675.444
229.855	14.863	901.752	674.988
230.869	14.896	901.209	674.657
231.884	14.941	900.516	674.260
232.899	15.087	899.336	673.904
233.913	14.976	899.029	673.169
234.928	15.023	897.991	672.518
235.942	14.957	897.518	671.841
236.957	14.932	896.751	671.107
237.972	14.959	896.053	670.634
238.986	15.083	895.140	670.388
240.001	14.943	894.847	669.548
241.015	15.046	894.290	669.483
242.030	15.117	893.351	669.006
243.045	15.216	892.780	668.915
244.059	15.144	891.990	667.978
245.074	15.166	891.215	667.425
246.088	15.231	891.280	667.672
247.103	15.262	890.418	667.091
248.117	15.332	889.625	666.717
249.132	15.107	889.665	665.793
250.147	15.285	888.744	665.753
251.161	15.198	887.966	664.763
252.176	15.330	887.194	664.651
253.190	15.380	886.826	664.514
254.205	15.377	886.228	663.996
255.220	15.371	885.544	663.403
256.234	15.500	884.703	663.221
257.249	15.464	884.181	662.632
258.263	15.412	883.825	662.098
259.278	15.608	882.448	661.780
260.293	15.521	882.339	661.297
261.307	15.503	882.160	661.033
262.322	15.465	881.204	660.109
263.336	15.584	880.414	659.927
264.351	15.607	880.341	659.904
265.366	15.594	879.807	659.396
266.380	15.693	878.895	659.043
267.395	15.591	878.277	658.121
268.409	15.594	877.662	657.611
269.424	15.598	876.785	656.915
270.439	15.610	876.179	656.447
271.453	15.644	875.621	656.105
272.468	15.709	874.415	655.398
273.482	15.579	874.539	654.924
274.497	15.749	873.285	654.588
275.512	15.705	872.716	653.932
276.526	15.702	872.050	653.363
277.541	15.731	871.538	653.037
278.555	15.677	871.039	652.394
279.570	15.674	870.194	651.691
280.585	15.828	869.481	651.696
281.599	15.799	869.149	651.281
282.614	15.935	868.195	651.033
283.628	15.894	867.516	650.308
284.643	15.940	867.035	650.068
285.657	15.975	866.619	649.834
286.672	15.943	865.988	649.179
287.687	15.999	865.731	649.145
288.701	15.899	865.366	648.427
289.716	15.988	864.458	648.032
290.730	16.057	864.010	647.905
291.745	16.023	863.323	647.200
292.760	15.942	862.808	646.446
293.774	15.873	861.848	645.408
294.789	15.995	861.791	645.775
295.803	15.993	861.085	645.179
296.818	16.142	860.098	644.953
297.833	16.003	859.515	643.927
298.847	16.161	859.033	644.112
299.862	16.201	857.919	643.375
300.876	16.174	857.424	642.842
301.891	16.042	856.801	641.814
302.906	16.142	856.008	641.547
303.920	16.131	855.570	641.118
304.935	16.296	854.419	640.827
305.949	16.322	853.889	640.469
306.964	16.336	853.389	640.090
307.979	16.239	852.927	639.322
308.993	16.480	852.069	639.533
310.008	16.303	852.012	638.763
311.022	16.308	851.398	638.267
312.037	16.381	850.927	638.132
313.052	16.404	850.382	637.753
314.066	16.488	849.428	637.301
315.081	16.425	848.984	636.672
316.095	16.339	848.466	635.903
317.110	16.364	848.161	635.713
318.125	16.430	847.404	635.336
319.139	16.469	846.712	634.908
320.154	16.287	846.997	634.383
321.168	16.397	846.244	634.173
322.183	16.407	845.522	633.616
323.197	16.285	845.286	632.924
324.212	16.594	844.364	633.335
325.227	16.422	844.009	632.370
326.241	16.568	843.680	632.614
327.256	16.476	842.763	631.525
328.270	16.538	842.455	631.470
329.285	16.575	841.203	630.613
330.300	16.651	840.770	630.517
331.314	16.487	840.553	629.687
332.329	16.468	840.091	629.214
333.343	16.435	839.455	628.559
334.358	16.553	838.820	628.468
335.373	16.738	837.810	628.340
336.387	16.618	837.698	627.757
337.402	16.547	837.315	627.151
338.416	16.619	836.809	626.982
339.431	16.752	836.133	626.914
340.446	16.853	835.267	626.584
341.460	16.806	834.786	625.994
342.475	16.730	834.396	625.364
343.489	16.943	833.713	625.581
344.504	16.969	833.236	625.267
345.519	16.787	832.925	624.307
346.533	16.919	832.145	624.153
347.548	16.981	831.830	624.091
348.562	16.882	831.318	623.284
349.577	16.969	830.634	623.038
350.592	16.889	829.762	622.034
351.606	16.851	829.672	621.773
352.621	16.866	828.995	621.265
353.635	16.854	829.068	621.219
354.650	16.900	828.534	620.934
355.665	16.875	828.201	620.539
356.679	16.881	827.942	620.313
357.694	17.008	826.863	619.912
358.708	16.938	826.097	619.028
359.723	16.945	825.887	618.841
360.738	16.913	825.395	618.301
361.752	17.115	824.542	618.341
362.767	17.019	824.734	618.080
363.781	17.015	824.161	617.585
364.796	17.129	823.882	617.733
365.810	17.089	823.299	617.096
366.825	17.102	822.611	616.573
367.840	17.286	822.287	616.947
368.854	17.293	821.769	616.526
369.869	17.308	820.899	615.874
370.883	17.081	821.328	615.319
371.898	17.088	820.511	614.676
372.913	17.260	819.471	614.465
373.927	17.315	819.064	614.305
374.942	17.334	818.589	613.964
375.956	17.391	818.058	613.716
376.971	17.384	816.898	612.765
377.986	17.476	816.562	612.792
379.000	17.442	816.156	612.310
380.015	17.532	815.619	612.178
381.029	17.479	815.161	611.587
382.044	17.371	814.806	610.880
383.059	17.489	813.972	610.626
384.073	17.369	813.582	609.847
385.088	17.510	813.169	609.990
386.102	17.520	812.451	609.434
387.117	17.603	811.954	609.302
388.132	17.467	811.736	608.599
389.146	17.531	811.309	608.452
390.161	17.616	810.921	608.410
391.175	17.488	810.417	607.521
392.190	17.615	809.977	607.591
393.205	17.535	809.513	606.906
394.219	17.513	809.233	606.564
395.234	17.565	808.777	606.352
396.248	17.577	808.268	605.959
397.263	17.496	807.841	605.298
398.278	17.507	806.997	604.652
399.292	17.692	806.537	604.911
400.307	17.495	806.448	604.092
401.321	17.635	805.806	604.054
402.336	17.571	805.550	603.582
403.350	17.567	805.459	603.443
404.365	17.714	804.975	603.548
405.380	17.796	804.112	603.139
406.394	17.841	803.664	602.909
407.409	17.897	803.057	602.596
408.423	17.698	803.088	601.866
409.438	17.839	802.217	601.655
410.453	17.810	801.654	601.078
411.467	17.784	801.143	600.552
412.482	17.797	800.890	600.352
413.496	17.915	800.486	600.414
414.511	17.886	800.377	600.176
415.526	18.023	799.592	600.014
416.540	18.048	799.125	599.699
417.555	18.041	798.655	599.269
418.569	17.978	798.569	598.929
419.584	17.997	798.063	598.565
420.599	18.125	797.389	598.454
421.613	114.797	1296.352	1487.346
422.628	98.976	1368.996	1487.425
