DTS Sentinel unit serial number:	SN413079Multiplexer serial number:	ORYXHardware model number:	OX4-SRSoftware version number:	ORYX F/W v4.00 Oryx Data Collector v3.7.2.0data status	okinstallation	princeton_trtdifferential loss correction	single-endedforward channel	channel 3reverse channel	N/Adate	2019/09/17time	07:20:35forward acquisition time	60.00reverse acquisition time	0.00gamma	496.2192k internal	0.2335k external	0.2335temperature offset calibration	0.9943default loss term (dB/km)	0.3790temperature slope calibration	1.0000multiplexer offset coefficient	1.0000multiplexer slope coefficient	1.0000fibre end	0.00T internal ref (°C)	27.25T ext. ref 1 (°C)	0.12T ext. ref 2 (°C)	21.43length (m)	temperature (°C)	Stokes	anti-Stokes-747.200	356.732	-0.080	-0.160
-746.185	-34.604	-0.237	0.130
-745.171	-52.191	0.303	-0.141
-744.156	-31.961	0.357	-0.201
-743.142	-173.895	0.422	-0.013
-742.127	-103.909	-0.241	-0.056
-741.112	-134.130	-0.047	-0.006
-740.098	-48.795	-0.194	0.093
-739.083	-47.372	-0.118	0.058
-738.069	-126.619	-0.306	0.046
-737.054	-155.670	-0.262	0.017
-736.039	87.673	0.041	0.046
-735.025	-140.191	-0.138	-0.015
-734.010	-69.333	-0.347	-0.134
-732.996	800.000	-0.061	0.254
-731.981	-200.000	-0.058	-0.283
-730.966	-188.727	0.268	-0.003
-729.952	-200.000	-0.057	-0.405
-728.937	-17.207	-0.274	-0.173
-727.923	-146.852	0.187	0.016
-726.908	56.364	-0.213	0.208
-725.894	-111.259	0.223	-0.046
-724.879	233.033	0.093	0.153
-723.864	-200.000	0.067	-0.370
-722.850	11.132	-0.018	-0.014
-721.835	-200.000	0.006	-0.132
-720.821	-101.899	-0.107	0.026
-719.806	792.546	-0.110	0.303
-718.791	-200.000	-0.041	-0.279
-717.777	398.348	0.022	0.047
-716.762	-10.386	-0.172	0.114
-715.748	-111.674	-0.228	0.046
-714.733	-140.018	-0.459	-0.049
-713.718	304.893	0.088	-0.164
-712.704	-200.000	0.023	0.123
-711.689	800.000	-0.027	-0.103
-710.675	-26.223	0.175	0.103
-709.660	674.321	-0.006	-0.015
-708.645	5.789	-0.152	0.113
-707.631	504.841	0.075	0.175
-706.616	125.075	-0.100	-0.127
-705.602	36.578	-0.174	-0.154
-704.587	598.660	-0.065	-0.161
-703.572	800.000	0.068	0.228
-702.558	127.102	-0.035	-0.044
-701.543	510.830	-0.110	-0.257
-700.529	86.789	-0.213	0.235
-699.514	44.583	-0.218	0.201
-698.499	144.600	0.117	0.156
-697.485	-145.372	0.281	0.025
-696.470	-81.468	-0.093	0.031
-695.456	-98.821	0.390	-0.099
-694.441	-154.014	0.337	0.023
-693.426	-192.020	-0.291	0.003
-692.412	800.000	-0.043	0.152
-691.397	49.340	-0.104	0.098
-690.383	-9.299	-0.153	-0.102
-689.368	382.131	-0.136	-0.281
-688.354	800.000	-0.057	-0.244
-687.339	70.501	-0.162	-0.168
-686.324	-145.827	0.229	-0.020
-685.310	-90.444	-0.159	-0.046
-684.295	800.000	-0.078	-0.258
-683.281	531.621	-0.117	-0.277
-682.266	91.786	0.100	-0.113
-681.251	-200.000	0.006	-0.475
-680.237	453.880	-0.085	-0.189
-679.222	173.040	0.174	-0.251
-678.208	406.983	-0.112	-0.238
-677.193	-131.474	0.128	0.017
-676.178	-95.336	-0.037	0.010
-675.164	-15.099	-0.125	-0.080
-674.149	-149.368	-0.217	-0.017
-673.135	-200.000	-0.015	-0.162
-672.120	-97.988	-0.311	-0.080
-671.105	71.278	-0.053	-0.055
-670.091	-86.115	-0.151	-0.047
-669.076	109.241	-0.119	-0.143
-668.062	546.094	0.029	0.070
-667.047	380.566	0.167	0.342
-666.032	-17.156	0.062	0.039
-665.018	-132.236	0.213	-0.028
-664.003	-59.484	-0.129	0.055
-662.989	23.880	-0.271	-0.223
-661.974	27.421	-0.116	0.098
-660.959	17.038	0.106	0.084
-659.945	-200.000	-0.059	-0.266
-658.930	149.924	-0.243	-0.330
-657.916	-200.000	0.023	-0.183
-656.901	101.646	0.123	-0.144
-655.886	-127.774	-0.069	-0.010
-654.872	167.030	-0.070	-0.099
-653.857	-23.306	0.093	0.056
-652.843	-113.261	-0.346	-0.068
-651.828	269.509	0.182	-0.320
-650.814	43.292	-0.258	-0.236
-649.799	202.006	0.172	-0.266
-648.784	-3.244	0.085	-0.059
-647.770	130.491	0.198	-0.254
-646.755	-78.114	-0.049	0.017
-645.741	-23.642	0.099	-0.059
-644.726	-200.000	0.026	-0.337
-643.711	800.000	0.053	0.152
-642.697	19.546	0.307	0.247
-641.682	135.740	0.254	0.331
-640.668	800.000	-0.044	0.188
-639.653	101.500	-0.054	-0.063
-638.638	-145.920	0.018	-0.002
-637.624	-200.000	-0.012	-0.176
-636.609	800.000	0.006	-0.022
-635.595	-131.742	0.140	0.018
-634.580	103.636	-0.076	0.089
-633.565	209.730	-0.031	-0.048
-632.551	20.585	0.315	0.255
-631.536	-200.000	0.012	0.136
-630.522	-200.000	0.013	-0.243
-629.507	154.349	-0.107	0.147
-628.492	800.000	0.037	-0.144
-627.478	800.000	0.059	-0.220
-626.463	-51.281	-0.109	0.051
-625.449	800.000	0.139	0.443
-624.434	800.000	-0.052	0.161
-623.419	-200.000	0.024	0.203
-622.405	52.560	-0.076	-0.072
-621.390	-157.969	-0.424	-0.025
-620.376	-200.000	-0.031	0.307
-619.361	-143.704	-0.338	0.032
-618.346	782.694	-0.053	0.144
-617.332	800.000	0.113	0.372
-616.317	-44.428	-0.423	-0.211
-615.303	-200.000	0.014	0.154
-614.288	127.714	-0.230	-0.293
-613.273	288.376	-0.145	-0.262
-612.259	-200.000	0.011	0.056
-611.244	-200.000	0.078	0.397
-610.230	-200.000	0.004	0.188
-609.215	-200.000	0.015	-0.258
-608.201	53.996	-0.125	-0.120
-607.186	0.457	0.214	-0.153
-606.171	-23.933	0.150	0.090
-605.157	164.959	-0.188	-0.266
-604.142	58.158	0.149	-0.146
-603.128	-142.938	0.267	-0.026
-602.113	-8.599	0.083	-0.056
-601.098	-82.038	0.420	-0.137
-600.084	281.421	-0.111	0.199
-599.069	2.751	0.273	0.198
-598.055	-200.000	0.046	-0.294
-597.040	-153.662	0.064	0.004
-596.025	41.622	-0.344	-0.312
-595.011	800.000	-0.013	0.047
-593.996	423.454	-0.021	0.046
-592.982	181.437	-0.028	0.042
-591.967	-200.000	-0.011	0.112
-590.952	-200.000	-0.007	-0.107
-589.938	419.670	-0.023	-0.048
-588.923	159.892	0.153	-0.213
-587.909	-122.472	0.147	-0.024
-586.894	113.706	0.121	0.146
-585.879	-11.720	-0.166	0.109
-584.865	-200.000	-0.020	-0.122
-583.850	-105.463	-0.167	0.038
-582.836	-131.632	0.212	-0.028
-581.821	-119.406	0.168	-0.029
-580.806	-83.087	0.187	0.060
-579.792	-144.268	0.113	0.011
-578.777	670.357	-0.108	0.279
-577.763	-200.000	-0.039	0.557
-576.748	393.198	0.110	-0.229
-575.733	-131.501	-0.117	0.015
-574.719	3.763	-0.229	0.167
-573.704	-40.962	0.345	-0.178
-572.690	148.368	0.108	-0.145
-571.675	-19.600	-0.143	-0.088
-570.661	-28.546	-0.229	0.132
-569.646	-82.928	0.178	0.057
-568.631	-200.000	-0.018	-0.366
-567.617	130.802	-0.302	-0.386
-566.602	-3.105	-0.347	-0.242
-565.588	234.484	-0.156	0.256
-564.573	193.851	-0.184	-0.278
-563.558	-108.088	0.097	-0.021
-562.544	-9.562	-0.056	0.037
-561.529	-127.412	-0.083	0.012
-560.515	92.260	0.097	-0.109
-559.500	46.773	0.200	-0.186
-558.485	-50.078	-0.111	-0.052
-557.471	280.809	-0.149	0.267
-556.456	-83.008	-0.273	-0.088
-555.442	33.244	0.109	-0.094
-554.427	800.000	-0.024	-0.068
-553.412	172.850	-0.141	0.202
-552.398	-17.447	-0.095	-0.060
-551.383	-80.441	-0.247	-0.082
-550.369	-200.000	0.035	-0.164
-549.354	-56.905	0.116	0.051
-548.339	199.658	-0.215	-0.329
-547.325	-200.000	0.028	-0.197
-546.310	-153.375	-0.229	0.016
-545.296	-200.000	0.008	-0.173
-544.281	364.078	0.097	-0.194
-543.266	187.185	0.086	-0.128
-542.252	115.849	-0.127	0.155
-541.237	-121.761	0.163	-0.027
-540.223	476.294	-0.047	-0.105
-539.208	-23.764	0.132	-0.079
-538.193	793.545	-0.107	-0.293
-537.179	800.000	-0.005	-0.015
-536.164	-200.000	-0.008	-0.205
-535.150	-153.195	0.196	0.014
-534.135	42.794	0.166	-0.151
-533.121	-69.936	-0.384	0.146
-532.106	-200.000	0.003	0.053
-531.091	248.816	-0.137	-0.232
-530.077	-93.285	0.100	0.028
-529.062	-59.262	0.158	-0.068
-528.048	-200.000	0.029	-0.149
-527.033	-103.042	0.262	-0.062
-526.018	87.940	-0.025	-0.028
-525.004	-16.532	0.109	0.069
-523.989	-20.998	0.166	0.101
-522.975	292.015	0.207	-0.376
-521.960	800.000	-0.120	-0.384
-520.945	-161.925	0.136	0.007
-519.931	27.167	0.104	-0.087
-518.916	-9.023	0.229	0.153
-517.902	430.578	-0.061	-0.132
-516.887	800.000	-0.102	-0.411
-515.872	-200.000	-0.005	-0.112
-514.858	-200.000	0.103	0.455
-513.843	800.000	0.009	-0.026
-512.829	-106.431	-0.407	-0.091
-511.814	-200.000	-0.041	-0.271
-510.799	-117.424	0.254	-0.046
-509.785	-113.023	0.106	0.021
-508.770	-106.211	0.413	0.092
-507.756	-142.922	-0.086	0.008
-506.741	108.517	-0.211	0.251
-505.726	-200.000	0.049	0.302
-504.712	2.960	-0.177	0.128
-503.697	-71.568	-0.038	0.014
-502.683	-23.747	-0.081	0.048
-501.668	-38.212	0.275	0.145
-500.653	240.059	0.074	-0.123
-499.639	357.273	-0.203	0.403
-498.624	25.020	0.041	0.034
-497.610	59.035	-0.219	-0.214
-496.595	52.674	0.102	-0.097
-495.581	420.391	-0.106	0.226
-494.566	-200.000	0.001	0.169
-493.551	-100.863	0.240	0.059
-492.537	-36.242	0.263	0.141
-491.522	137.645	0.062	-0.080
-490.508	800.000	0.060	-0.173
-489.493	375.020	0.061	-0.124
-488.478	800.000	-0.074	0.225
-487.464	70.680	-0.042	0.043
-486.449	800.000	0.052	0.180
-485.435	-131.419	-0.238	0.031
-484.420	118.097	-0.072	0.089
-483.405	-85.326	-0.142	0.044
-482.391	-20.863	-0.174	0.106
-481.376	-18.777	-0.284	0.176
-480.362	-200.000	0.030	-0.174
-479.347	800.000	0.170	-0.582
-478.332	-200.000	0.045	-0.360
-477.318	-200.000	-0.034	-0.352
-476.303	-200.000	-0.034	-0.397
-475.289	379.533	0.138	-0.282
-474.274	-200.000	-0.019	-0.105
-473.259	-156.420	0.144	-0.009
-472.245	344.511	0.117	0.228
-471.230	-79.272	-0.284	-0.096
-470.216	-108.994	0.139	-0.030
-469.201	323.902	-0.094	0.178
-468.186	628.263	0.093	-0.233
-467.172	176.488	0.054	0.077
-466.157	337.613	0.156	-0.301
-465.143	-117.610	0.461	0.083
-464.128	-103.767	-0.343	-0.080
-463.113	-200.000	-0.015	-0.169
-462.099	99.023	-0.250	0.287
-461.084	800.000	0.040	-0.164
-460.070	-28.659	0.308	0.176
-459.055	5.591	-0.059	-0.043
-458.040	-200.000	0.004	-0.085
-457.026	-200.000	0.028	-0.539
-456.011	-173.499	0.243	0.007
-454.997	-103.116	0.181	0.043
-453.982	-113.583	-0.366	-0.071
-452.968	800.000	-0.037	-0.152
-451.953	140.324	0.098	0.128
-450.938	62.743	0.251	-0.250
-449.924	181.956	-0.060	0.087
-448.909	119.038	0.149	0.183
-447.895	368.972	0.017	-0.034
-446.880	-200.000	-0.008	-0.057
-445.865	70.797	0.053	-0.054
-444.851	800.000	-0.069	0.214
-443.836	-19.403	0.359	-0.221
-442.822	-200.000	-0.112	0.498
-441.807	-57.440	0.341	0.149
-440.792	84.863	-0.253	0.275
-439.778	713.286	0.071	0.186
-438.763	-200.000	-0.047	-0.263
-437.749	-200.000	0.014	0.520
-436.734	-158.920	0.106	-0.006
-435.719	-200.000	-0.012	-0.188
-434.705	-113.103	-0.109	-0.021
-433.690	253.118	-0.127	-0.215
-432.676	160.530	0.059	0.082
-431.661	-109.437	-0.246	0.052
-430.646	800.000	0.069	-0.226
-429.632	800.000	0.030	-0.099
-428.617	112.818	-0.171	0.205
-427.603	-136.675	-0.132	0.015
-426.588	-48.740	0.255	0.121
-425.573	98.490	0.046	0.053
-424.559	133.716	0.069	0.089
-423.544	49.357	0.069	-0.064
-422.530	753.827	0.121	0.325
-421.515	685.182	-0.060	-0.156
-420.500	-134.736	-0.039	0.005
-419.486	-39.496	-0.270	-0.140
-418.471	-200.000	0.036	0.167
-417.457	-105.129	0.220	0.050
-416.442	-60.172	-0.137	-0.058
-415.428	187.407	0.080	0.118
-414.413	-153.649	0.296	-0.020
-413.398	-49.088	-0.271	0.128
-412.384	439.954	0.082	0.179
-411.369	340.297	0.128	-0.248
-410.355	280.718	0.066	0.117
-409.340	-200.000	-0.043	-0.202
-408.325	-185.263	-0.312	-0.005
-407.311	368.668	0.087	-0.174
-406.296	-123.049	0.369	0.059
-405.282	800.000	-0.058	0.183
-404.267	-200.000	0.045	-0.202
-403.252	205.939	-0.113	0.175
-402.238	27.556	-0.189	0.158
-401.223	-137.123	0.255	0.029
-400.209	-200.000	0.053	0.232
-399.194	-21.073	-0.086	-0.052
-398.179	-119.371	-0.423	-0.073
-397.165	-200.000	-0.011	0.322
-396.150	795.563	0.082	-0.224
-395.136	-146.570	0.190	0.016
-394.121	-200.000	-0.008	-0.344
-393.106	-200.000	-0.004	-0.025
-392.092	311.412	0.091	0.170
-391.077	181.480	0.184	0.268
-390.063	35.444	0.231	0.201
-389.048	384.847	0.099	-0.201
-388.033	800.000	0.080	-0.276
-387.019	8.311	-0.138	0.103
-386.004	800.000	0.093	0.323
-384.990	-200.000	0.034	0.230
-383.975	14.963	-0.176	-0.137
-382.960	613.943	0.088	-0.219
-381.946	-200.000	-0.040	-0.357
-380.931	-73.923	-0.140	-0.050
-379.917	-200.000	-0.023	-0.231
-378.902	-200.000	-0.025	-0.112
-377.888	-82.021	0.251	-0.081
-376.873	-78.234	0.265	0.090
-375.858	-179.049	0.372	0.008
-374.844	-65.246	0.025	0.010
-373.829	-42.261	0.216	-0.109
-372.815	-200.000	-0.001	0.083
-371.800	12.907	-0.181	0.139
-370.785	51.561	0.257	-0.242
-369.771	-52.956	-0.423	0.193
-368.756	101.851	0.251	0.290
-367.742	101.681	0.343	-0.396
-366.727	-62.097	-0.491	-0.203
-365.712	-141.385	-0.347	0.035
-364.698	-200.000	0.004	0.335
-363.683	-200.000	-0.044	0.202
-362.669	-200.000	0.010	0.098
-361.654	246.756	-0.169	-0.283
-360.639	-89.242	-0.142	-0.042
-359.625	-200.000	0.001	0.267
-358.610	-200.000	-0.123	-0.626
-357.596	-105.385	-0.201	0.045
-356.581	428.531	-0.087	-0.187
-355.566	-200.000	-0.048	-0.228
-354.552	85.342	0.084	0.092
-353.537	-22.846	-0.206	-0.123
-352.523	800.000	0.058	-0.211
-351.508	171.839	-0.073	0.104
-350.493	168.924	0.072	0.101
-349.479	647.096	-0.083	-0.210
-348.464	11.456	0.133	-0.101
-347.450	19.622	0.103	0.082
-346.435	420.468	-0.099	-0.211
-345.420	249.084	-0.084	-0.141
-344.406	800.000	-0.023	-0.078
-343.391	-111.142	0.231	0.047
-342.377	28.837	-0.064	0.054
-341.362	-200.000	-0.035	0.479
-340.348	800.000	-0.079	-0.234
-339.333	103.883	-0.151	-0.176
-338.318	299.313	-0.061	-0.110
-337.304	-65.931	0.302	0.119
-336.289	-102.794	-0.357	-0.084
-335.275	-34.062	-0.366	-0.199
-334.260	51.207	-0.120	-0.113
-333.245	-42.173	0.150	0.076
-332.231	149.055	0.026	0.035
-331.216	84.446	-0.190	0.206
-330.202	-80.796	-0.422	0.139
-329.187	436.259	0.097	-0.209
-328.172	-200.000	-0.021	0.352
-327.158	61.636	-0.079	0.078
-326.143	-200.000	0.286	0.000
-325.129	117.893	-0.173	-0.211
-324.114	342.545	-0.086	-0.166
-323.099	800.000	-0.090	0.348
-322.085	465.446	-0.030	-0.067
-321.070	-34.653	-0.181	0.098
-320.056	800.000	-0.149	0.451
-319.041	47.990	0.091	0.084
-318.026	-85.758	0.158	-0.049
-317.012	-78.892	0.166	0.056
-315.997	-148.192	-0.158	0.013
-314.983	36.878	-0.170	0.148
-313.968	-200.000	-0.016	0.093
-312.953	122.241	-0.134	-0.166
-311.939	261.063	0.113	0.193
-310.924	284.833	-0.057	0.102
-309.910	697.785	0.059	0.153
-308.895	-200.000	0.045	0.239
-307.880	-39.055	-0.258	0.134
-306.866	800.000	-0.103	0.386
-305.851	52.245	-0.222	0.209
-304.837	800.000	-0.054	-0.225
-303.822	42.157	0.217	-0.195
-302.807	-200.000	0.012	-0.126
-301.793	-27.033	0.163	0.094
-300.778	-200.000	-0.007	0.288
-299.764	-96.925	0.523	0.135
-298.749	-186.056	0.233	0.003
-297.735	-21.196	0.133	0.080
-296.720	448.119	0.196	0.426
-295.705	-200.000	0.049	0.327
-294.691	488.899	-0.083	0.187
-293.676	-84.647	-0.093	-0.029
-292.662	-199.934	0.158	-0.001
-291.647	75.343	-0.126	-0.131
-290.632	100.687	-0.033	-0.038
-289.618	-7.721	-0.280	0.187
-288.603	527.513	-0.003	-0.007
-287.589	758.865	-0.079	-0.210
-286.574	800.000	0.041	0.157
-285.559	-23.290	0.022	-0.013
-284.545	-11.774	-0.074	0.048
-283.530	27.924	-0.466	-0.388
-282.516	800.000	-0.066	-0.240
-281.501	-81.427	0.135	-0.044
-280.486	633.510	0.065	0.164
-279.472	5.583	-0.159	-0.116
-278.457	732.592	-0.037	-0.099
-277.443	-81.982	0.258	-0.083
-276.428	-153.521	0.179	-0.012
-275.413	-7.022	0.161	0.108
-274.399	188.768	-0.108	-0.160
-273.384	-74.250	-0.079	0.028
-272.370	-33.008	0.293	-0.161
-271.355	251.939	-0.130	0.218
-270.340	288.600	0.173	0.308
-269.326	-200.000	-0.009	-0.257
-268.311	-53.768	0.294	0.132
-267.297	-174.070	0.113	0.003
-266.282	-23.842	-0.113	0.066
-265.267	-200.000	0.055	0.459
-264.253	-37.492	-0.140	0.074
-263.238	800.000	-0.064	-0.219
-262.224	220.076	-0.067	-0.106
-261.209	156.903	-0.193	0.263
-260.195	89.559	-0.065	0.071
-259.180	-166.933	-0.375	-0.015
-258.165	200.660	0.037	-0.057
-257.151	-73.974	-0.230	0.082
-256.136	300.588	-0.044	0.081
-255.122	26.804	0.062	0.051
-254.107	-127.789	0.300	-0.043
-253.092	-200.000	-0.015	0.090
-252.078	112.599	0.074	0.088
-251.063	800.000	0.045	-0.158
-250.049	-200.000	-0.029	-0.180
-249.034	583.036	-0.072	-0.174
-248.019	-200.000	0.046	0.000
-247.005	-60.069	-0.225	-0.095
-245.990	21.096	0.056	-0.045
-244.976	-200.000	0.009	0.205
-243.961	6.040	0.094	-0.068
-242.946	-149.858	-0.279	-0.022
-241.932	117.279	0.265	0.321
-240.917	-200.000	0.037	0.193
-239.903	800.000	0.025	0.082
-238.888	-117.645	-0.301	-0.053
-237.873	-101.285	-0.483	0.116
-236.859	-200.000	-0.003	-0.084
-235.844	87.513	0.128	-0.139
-234.830	38.284	-0.252	-0.221
-233.815	357.435	-0.142	0.280
-232.800	-7.024	0.128	-0.085
-231.786	-200.000	0.027	0.318
-230.771	-28.916	0.279	-0.158
-229.757	-155.800	-0.290	0.018
-228.742	800.000	-0.005	-0.018
-227.727	-0.244	-0.105	-0.073
-226.713	800.000	-0.084	0.247
-225.698	613.125	0.030	0.073
-224.684	-135.278	0.277	-0.033
-223.669	640.642	-0.116	0.290
-222.655	-60.244	0.258	-0.108
-221.640	-3.049	-0.123	0.085
-220.625	154.240	0.221	0.299
-219.611	61.583	0.063	0.062
-218.596	-74.289	-0.058	0.020
-217.582	51.605	-0.160	-0.149
-216.567	245.082	0.155	0.256
-215.552	1.224	0.133	0.094
-214.538	26.144	-0.178	0.146
-213.523	439.261	0.218	0.468
-212.509	-110.867	-0.136	0.028
-211.494	710.855	0.092	0.240
-210.479	49.329	0.111	-0.103
-209.465	-30.784	0.097	0.054
-208.450	539.796	0.050	0.118
-207.436	-117.538	-0.047	0.008
-206.421	262.340	0.101	-0.173
-205.406	-200.000	-0.011	-0.135
-204.392	800.000	0.080	-0.279
-203.377	157.200	-0.083	0.113
-202.363	312.945	-0.103	-0.190
-201.348	-140.204	-0.156	-0.016
-200.333	-11.609	0.374	0.242
-199.319	-74.769	0.279	-0.098
-198.304	800.000	0.071	-0.245
-197.290	800.000	0.067	-0.206
-196.275	540.932	-0.139	0.325
-195.260	114.467	0.215	0.257
-194.246	17.983	0.123	0.096
-193.231	-49.945	-0.445	-0.207
-192.217	-101.823	0.307	0.073
-191.202	49.579	-0.152	-0.141
-190.187	595.907	0.117	0.286
-189.173	-79.551	-0.113	0.038
-188.158	800.000	0.120	-0.371
-187.144	-85.653	-0.137	0.042
-186.129	-200.000	0.010	-0.065
-185.114	336.037	0.179	-0.341
-184.100	-65.385	-0.213	0.084
-183.085	-67.657	0.038	0.015
-182.071	81.817	-0.164	-0.175
-181.056	113.891	-0.275	-0.329
-180.042	457.932	0.189	-0.414
-179.027	-123.038	-0.469	-0.074
-178.012	9.214	-0.153	0.114
-176.998	-113.372	-0.238	-0.046
-175.983	45.978	0.211	-0.192
-174.969	-200.000	0.029	0.153
-173.954	-9.976	0.166	0.109
-172.939	-98.260	0.161	0.041
-171.925	-80.971	0.158	-0.051
-170.910	800.000	0.033	-0.124
-169.896	-200.000	-0.095	0.540
-168.881	-34.117	0.225	-0.122
-167.866	83.694	-0.256	-0.274
-166.852	32.647	0.268	-0.227
-165.837	-69.045	-0.260	-0.098
-164.823	-84.284	-0.118	0.037
-163.808	-200.000	-0.026	0.514
-162.793	-120.425	0.151	0.025
-161.779	40.999	-0.157	-0.139
-160.764	-200.000	0.037	0.275
-159.750	-108.731	-0.229	-0.048
-158.735	-58.544	0.175	0.075
-157.720	-119.869	0.142	-0.024
-156.706	-200.000	-0.029	0.338
-155.691	70.532	0.068	-0.069
-154.677	800.000	0.004	-0.015
-153.662	-26.536	-0.160	0.092
-152.647	18.764	-0.246	0.193
-151.633	-198.190	0.078	-0.000
-150.618	91.917	-0.156	0.173
-149.604	-84.116	-0.243	-0.076
-148.589	-109.312	0.246	-0.051
-147.574	224.306	0.099	0.158
-146.560	-55.692	0.599	-0.263
-145.545	-140.062	0.335	-0.035
-144.531	-200.000	-0.022	-0.118
-143.516	-200.000	-0.004	-0.377
-142.502	405.814	0.026	-0.053
-141.487	96.539	0.125	-0.141
-140.472	328.856	-0.196	0.369
-139.458	282.437	0.075	0.133
-138.443	65.254	0.314	0.311
-137.429	230.372	-0.156	0.251
-136.414	-125.298	-0.135	0.020
-135.399	9.445	0.283	0.210
-134.385	323.700	-0.257	0.481
-133.370	-200.000	0.030	0.206
-132.356	-141.597	-0.146	-0.014
-131.341	-50.672	0.176	0.081
-130.326	-52.009	-0.059	0.027
-129.312	-120.951	0.169	-0.028
-128.297	800.000	-0.035	-0.105
-127.283	235.443	0.048	-0.078
-126.268	507.231	-0.076	0.172
-125.253	133.791	0.058	0.074
-124.239	46.628	-0.166	-0.151
-123.224	-66.606	-0.180	-0.070
-122.210	492.838	0.032	0.072
-121.195	387.633	-0.135	-0.275
-120.180	-200.000	0.024	0.112
-119.166	145.784	-0.080	-0.105
-118.151	-130.849	0.274	0.036
-117.137	-200.000	-0.016	-0.260
-116.122	800.000	0.103	0.380
-115.107	31.331	-0.185	0.156
-114.093	-121.388	0.204	0.033
-113.078	-69.860	-0.128	0.048
-112.064	35.624	0.290	0.250
-111.049	-47.924	-0.061	-0.029
-110.034	-115.343	0.048	-0.009
-109.020	536.843	0.211	-0.491
-108.005	-200.000	0.051	0.355
-106.991	121.016	0.093	-0.113
-105.976	-200.000	0.011	0.104
-104.962	-89.709	0.156	0.045
-103.947	62.689	-0.144	0.141
-102.932	11.618	-0.558	-0.419
-101.918	387.761	0.106	0.215
-100.903	-3.865	0.086	-0.059
-99.889	189.794	0.122	0.180
-98.874	-64.869	0.120	0.047
-97.859	-200.000	0.024	0.144
-96.845	296.054	-0.042	-0.075
-95.830	800.000	0.102	-0.299
-94.816	-181.850	-0.111	-0.002
-93.801	41.386	0.175	-0.155
-92.786	-200.000	-0.002	0.065
-91.772	198.901	0.077	-0.116
-90.757	409.633	0.060	-0.124
-89.743	-87.716	0.468	0.138
-88.728	-123.399	0.127	0.020
-87.713	86.427	0.028	0.031
-86.699	-165.901	0.350	0.015
-85.684	136.749	0.162	0.207
-84.670	657.149	0.099	0.250
-83.655	800.000	-0.148	0.419
-82.640	-154.057	0.493	-0.033
-81.626	800.000	0.092	-0.374
-80.611	-171.532	-0.128	-0.004
-79.597	226.986	0.117	-0.186
-78.582	-200.000	0.027	-0.217
-77.567	270.783	0.055	-0.095
-76.553	-26.477	-0.113	0.065
-75.538	55.707	0.238	0.226
-74.524	37.460	0.302	-0.262
-73.509	-200.000	-0.005	0.340
-72.494	-171.143	-0.198	0.007
-71.480	-14.033	0.241	0.152
-70.465	-200.000	-0.040	-0.385
-69.451	85.204	-0.084	-0.091
-68.436	756.842	0.064	-0.169
-67.422	-49.413	0.229	0.107
-66.407	-200.000	0.013	0.236
-65.392	-44.480	-0.147	-0.072
-64.378	800.000	0.131	0.379
-63.363	-30.626	-0.150	0.083
-62.349	800.000	0.076	0.227
-61.334	133.242	-0.901	-1.139
-60.319	800.000	0.254	1.037
-59.305	680.316	-0.467	-1.189
-58.290	172.617	0.732	1.031
-57.276	585.127	0.672	1.616
-56.261	-200.000	114.517	644.454
-55.246	470.684	1508.378	3316.923
-54.232	148.437	2670.464	3526.469
-53.217	102.399	2168.733	2479.010
-52.203	37.591	1695.383	1471.103
-51.188	30.302	1512.792	1263.221
-50.173	28.052	1488.460	1227.760
-49.159	52.051	1546.436	1440.431
-48.144	50.485	1561.394	1443.608
-47.130	30.523	1518.330	1269.150
-46.115	27.471	1503.332	1235.891
-45.100	27.267	1499.629	1231.415
-44.086	27.280	1497.492	1229.698
-43.071	27.233	1495.698	1227.863
-42.057	27.269	1494.084	1226.729
-41.042	27.228	1492.795	1225.349
-40.027	27.300	1491.106	1224.395
-39.013	27.289	1489.265	1222.760
-37.998	27.177	1488.516	1221.347
-36.984	27.147	1487.326	1220.117
-35.969	27.234	1485.935	1219.516
-34.954	27.249	1484.335	1218.253
-33.940	27.171	1483.105	1216.673
-32.925	27.229	1482.116	1216.201
-31.911	27.309	1480.198	1215.115
-30.896	27.295	1479.220	1214.171
-29.881	27.230	1478.040	1212.718
-28.867	27.365	1476.628	1212.408
-27.852	27.287	1475.496	1210.917
-26.838	27.276	1474.073	1209.625
-25.823	27.301	1472.517	1208.465
-24.809	27.265	1471.288	1207.169
-23.794	27.288	1469.494	1205.806
-22.779	27.300	1468.176	1204.753
-21.765	27.289	1467.136	1203.783
-20.750	27.286	1466.011	1202.788
-19.736	27.221	1464.971	1201.462
-18.721	27.259	1464.196	1201.025
-17.706	27.154	1463.321	1199.569
-16.692	27.256	1461.905	1199.032
-15.677	27.414	1460.766	1199.094
-14.663	27.282	1459.580	1197.202
-13.648	27.251	1458.934	1196.420
-12.633	27.271	1458.071	1195.798
-11.619	27.266	1457.846	1195.533
-10.604	27.164	1456.937	1194.072
-9.590	27.231	1455.731	1193.472
-8.575	27.174	1454.669	1192.179
-7.560	27.293	1453.648	1192.079
-6.546	27.270	1452.559	1190.986
-5.531	27.247	1451.735	1190.113
-4.517	27.191	1451.256	1189.309
-3.502	27.252	1450.055	1188.676
-2.487	27.182	1449.228	1187.494
-1.473	27.299	1447.836	1187.066
-0.458	27.224	1446.861	1185.733
0.556	25.338	1437.171	1173.989
1.571	22.214	1411.781	1133.051
2.586	18.638	1350.192	1061.440
3.600	16.799	1267.749	985.849
4.615	15.741	1223.190	945.171
5.629	13.741	1167.082	891.006
6.644	6.870	1084.177	793.245
7.659	1.164	1045.852	737.448
8.673	0.235	1040.099	728.835
9.688	0.126	1037.461	726.395
10.702	0.091	1035.640	724.884
11.717	0.018	1033.296	722.830
12.731	2.394	1035.354	735.638
13.746	9.726	1044.921	777.847
14.761	15.790	1053.116	813.271
15.775	17.169	1053.920	820.486
16.790	16.596	1051.410	815.697
17.804	15.419	1049.750	808.669
18.819	14.588	1047.659	802.988
19.834	14.160	1046.707	800.129
20.848	13.906	1045.304	797.769
21.863	13.697	1044.545	796.112
22.877	13.399	1043.752	794.012
23.892	13.067	1043.345	792.038
24.907	13.103	1042.427	791.444
25.921	13.055	1041.838	790.696
26.936	13.132	1041.542	790.771
27.950	13.276	1040.394	790.517
28.965	13.222	1039.442	789.464
29.980	13.264	1038.725	789.051
30.994	13.322	1038.016	788.720
32.009	13.460	1037.089	788.605
33.023	13.403	1036.443	787.770
34.038	13.435	1035.576	787.194
35.053	13.373	1034.646	786.124
36.067	13.349	1033.558	785.112
37.082	13.281	1032.855	784.185
38.096	13.282	1032.406	783.782
39.111	13.390	1031.502	783.536
40.126	13.553	1030.796	783.704
41.140	13.354	1029.582	781.769
42.155	13.321	1028.519	780.738
43.169	13.138	1027.460	779.004
44.184	13.196	1026.611	778.562
45.199	13.127	1025.407	777.254
46.213	13.134	1024.636	776.634
47.228	13.244	1023.769	776.427
48.242	13.271	1022.425	775.465
49.257	13.174	1021.851	774.506
50.271	13.204	1021.086	774.000
51.286	13.325	1020.015	773.685
52.301	13.318	1018.910	772.748
53.315	13.334	1018.108	772.142
54.330	13.264	1017.354	771.176
55.344	13.209	1016.687	770.349
56.359	13.411	1014.931	769.887
57.374	13.184	1014.797	768.662
58.388	13.198	1013.821	767.920
59.403	13.168	1013.091	767.158
60.417	13.243	1012.482	766.981
61.432	13.146	1011.581	765.780
62.447	13.189	1010.830	765.343
63.461	13.202	1009.839	764.584
64.476	13.023	1009.215	763.216
65.490	13.008	1008.288	762.376
66.505	13.116	1007.523	762.230
67.520	13.168	1006.251	761.440
68.534	13.223	1005.915	761.371
69.549	13.228	1004.785	760.473
70.563	13.168	1004.431	759.862
71.578	13.147	1003.888	759.286
72.593	13.037	1002.861	757.939
73.607	13.227	1001.844	757.976
74.622	13.055	1001.084	756.544
75.636	12.883	1000.505	755.253
76.651	13.034	998.865	754.639
77.666	13.015	998.588	754.275
78.680	13.128	997.217	753.688
79.695	13.130	996.954	753.430
80.709	13.082	996.706	752.957
81.724	13.166	995.931	752.688
82.739	13.114	995.012	751.692
83.753	13.096	994.766	751.358
84.768	13.217	993.903	751.187
85.782	13.324	993.083	750.987
86.797	13.420	992.069	750.592
87.812	13.303	991.492	749.555
88.826	13.298	990.467	748.691
89.841	13.252	989.835	747.941
90.855	13.197	989.071	747.050
91.870	13.377	988.091	747.055
92.884	13.226	987.818	746.101
93.899	13.398	986.743	745.999
94.914	13.321	985.819	744.889
95.928	13.581	984.907	745.304
96.943	13.476	984.410	744.388
97.957	13.404	983.900	743.612
98.972	13.384	982.825	742.644
99.987	13.445	981.720	742.017
101.001	13.445	981.729	741.957
102.016	13.462	980.796	741.266
103.030	13.486	979.465	740.299
104.045	13.370	978.850	739.253
105.060	13.449	977.925	738.839
106.074	13.385	976.972	737.770
107.089	13.332	975.896	736.656
108.103	13.358	975.377	736.312
109.118	13.215	974.713	735.110
110.133	13.307	973.644	734.650
111.147	13.202	972.831	733.505
112.162	13.163	972.004	732.644
113.176	13.292	971.149	732.507
114.191	13.353	970.164	731.966
115.206	13.270	969.509	731.042
116.220	13.300	968.718	730.514
117.235	13.340	967.823	729.950
118.249	13.356	967.019	729.352
119.264	13.275	966.468	728.511
120.279	13.212	965.731	727.616
121.293	13.247	964.705	726.932
122.308	13.141	964.169	725.997
123.322	13.268	962.877	725.521
124.337	13.282	962.009	724.862
125.352	13.264	960.839	723.837
126.366	13.300	959.634	723.023
127.381	13.247	958.729	722.044
128.395	13.172	958.036	721.131
129.410	13.172	957.001	720.290
130.424	13.206	956.207	719.778
131.439	13.339	954.778	719.217
132.454	13.337	954.344	718.816
133.468	13.348	953.691	718.309
134.483	13.307	953.065	717.597
135.497	13.193	952.828	716.861
136.512	13.391	951.132	716.379
137.527	13.271	950.769	715.519
138.541	13.415	949.588	715.192
139.556	13.382	949.308	714.774
140.570	13.228	948.773	713.644
141.585	13.371	947.813	713.473
142.600	13.366	947.203	712.931
143.614	13.408	946.020	712.160
144.629	13.359	946.038	711.899
145.643	13.593	944.552	711.721
146.658	13.512	943.785	710.734
147.673	13.621	942.713	710.330
148.687	13.484	942.281	709.355
149.702	13.355	941.374	708.058
150.716	13.314	940.675	707.294
151.731	13.488	939.423	707.032
152.746	13.457	938.850	706.407
153.760	13.492	937.962	705.823
154.775	13.502	937.632	705.559
155.789	13.536	936.496	704.786
156.804	13.626	935.812	704.592
157.819	13.533	935.520	703.911
158.833	13.634	934.408	703.443
159.848	13.646	933.857	703.016
160.862	13.581	933.339	702.287
161.877	13.623	932.433	701.724
162.892	13.456	932.155	700.744
163.906	13.503	931.187	700.155
164.921	13.500	930.074	699.244
165.935	13.520	928.927	698.401
166.950	13.532	928.474	698.049
167.964	13.486	927.266	696.887
168.979	13.575	926.396	696.546
169.994	13.661	924.932	695.743
171.008	13.535	924.754	695.020
172.023	13.592	923.829	694.504
173.037	13.600	923.338	694.104
174.052	13.740	922.575	694.057
175.067	13.681	921.560	692.987
176.081	13.687	920.672	692.280
177.096	13.652	920.007	691.572
178.110	13.634	919.163	690.804
179.125	13.553	918.751	690.093
180.140	13.530	918.088	689.442
181.154	13.677	917.412	689.481
182.169	13.655	916.835	688.898
183.183	13.758	916.281	688.846
184.198	13.603	915.583	687.619
185.213	13.769	914.647	687.541
186.227	13.623	914.455	686.733
187.242	13.704	914.097	686.739
188.256	13.900	913.268	686.864
189.271	13.849	912.619	686.104
190.286	14.069	911.370	686.016
191.300	13.821	910.974	684.632
192.315	13.647	910.130	683.219
193.329	13.728	909.562	683.065
194.344	13.669	908.890	682.258
195.359	13.795	908.425	682.366
196.373	13.790	907.580	681.652
197.388	13.950	907.201	681.962
198.402	13.748	906.990	680.918
199.417	14.016	906.354	681.477
200.432	14.121	905.791	681.422
201.446	13.952	905.816	680.692
202.461	14.104	905.058	680.682
203.475	14.186	904.166	680.285
204.490	14.152	903.993	679.959
205.504	14.022	903.158	678.739
206.519	14.101	901.926	678.073
207.534	14.038	901.475	677.419
208.548	14.055	900.925	677.016
209.563	14.157	899.857	676.566
210.577	14.012	899.474	675.632
211.592	14.142	898.546	675.403
212.607	14.164	898.323	675.261
213.621	14.239	897.880	675.174
214.636	14.196	896.809	674.137
215.650	14.218	896.320	673.797
216.665	14.272	895.512	673.349
217.680	14.164	895.432	672.792
218.694	14.198	895.056	672.588
219.709	14.188	894.498	672.068
220.723	14.156	893.723	671.299
221.738	14.500	892.586	671.772
222.753	14.257	892.172	670.420
223.767	14.345	891.303	670.060
224.782	14.369	890.493	669.490
225.796	14.425	890.024	669.302
226.811	14.441	889.277	668.746
227.826	14.312	888.872	667.864
228.840	14.446	888.006	667.694
229.855	14.414	887.343	667.007
230.869	14.421	886.719	666.506
231.884	14.518	885.842	666.177
232.899	14.408	885.243	665.227
233.913	14.407	884.710	664.763
234.928	14.403	884.212	664.314
235.942	14.438	883.620	663.949
236.957	14.545	882.328	663.348
237.972	14.566	881.865	663.025
238.986	14.494	881.566	662.456
240.001	14.443	881.125	661.861
241.015	14.378	880.623	661.169
242.030	14.476	879.200	660.428
243.045	14.510	878.732	660.155
244.059	14.601	878.276	660.111
245.074	14.560	877.338	659.189
246.088	14.697	876.852	659.306
247.103	14.591	876.723	658.730
248.117	14.744	875.901	658.659
249.132	14.594	875.613	657.794
250.147	14.796	874.630	657.792
251.161	14.920	874.209	657.903
252.176	14.963	873.522	657.498
253.190	14.772	872.835	656.173
254.205	14.921	872.272	656.277
255.220	14.986	871.681	656.028
256.234	14.860	871.665	655.463
257.249	14.966	870.275	654.777
258.263	15.054	870.061	654.903
259.278	15.098	869.102	654.293
260.293	15.080	868.571	653.765
261.307	15.052	868.573	653.598
262.322	15.109	867.726	653.127
263.336	15.171	866.891	652.682
264.351	15.220	866.276	652.354
265.366	15.109	865.529	651.299
266.380	15.151	865.116	651.095
267.395	15.283	864.465	651.060
268.409	15.289	863.688	650.440
269.424	15.184	863.195	649.604
270.439	15.135	862.666	648.960
271.453	15.078	861.810	648.038
272.468	15.289	860.542	647.840
273.482	15.135	860.355	647.048
274.497	15.306	859.522	647.027
275.512	15.262	858.642	646.136
276.526	15.277	857.989	645.646
277.541	15.258	857.542	645.179
278.555	15.224	857.181	644.721
279.570	15.164	856.772	644.126
280.585	15.449	856.153	644.698
281.599	15.198	856.022	643.577
282.614	15.349	855.156	643.449
283.628	15.393	854.103	642.768
284.643	15.301	853.682	642.041
285.657	15.442	853.170	642.140
286.672	15.270	853.027	641.315
287.687	15.316	852.307	640.893
288.701	15.467	851.692	640.951
289.716	15.493	851.020	640.487
290.730	15.426	850.562	639.832
291.745	15.437	850.115	639.479
292.760	15.402	849.292	638.673
293.774	15.447	849.078	638.624
294.789	15.515	848.297	638.242
295.803	15.623	847.463	637.966
296.818	15.610	847.001	637.513
297.833	15.564	845.926	636.472
298.847	15.583	845.600	636.243
299.862	15.531	844.927	635.485
300.876	15.659	843.847	635.099
301.891	15.612	843.373	634.507
302.906	15.698	843.088	634.562
303.920	15.656	842.654	634.022
304.935	15.586	841.830	633.079
305.949	15.731	841.498	633.321
306.964	15.794	840.513	632.762
307.979	15.715	839.833	631.895
308.993	15.862	839.498	632.142
310.008	15.803	838.462	631.082
311.022	15.722	838.495	630.750
312.037	15.831	837.847	630.615
313.052	15.799	837.153	629.918
314.066	15.723	836.841	629.340
315.081	15.811	836.252	629.170
316.095	15.859	835.537	628.757
317.110	15.796	835.051	628.099
318.125	15.766	834.649	627.631
319.139	15.909	833.501	627.246
320.154	15.756	833.716	626.781
321.168	15.893	832.892	626.615
322.183	15.842	832.573	626.128
323.197	15.933	831.931	625.930
324.212	16.068	830.989	625.668
325.227	15.983	830.999	625.306
326.241	15.876	830.658	624.596
327.256	15.857	830.125	624.068
328.270	15.982	828.943	623.587
329.285	15.741	828.846	622.569
330.300	15.998	828.156	622.944
331.314	15.889	827.445	621.953
332.329	15.854	826.946	621.393
333.343	15.988	826.254	621.311
334.358	16.064	825.825	621.216
335.373	16.042	825.160	620.578
336.387	16.049	824.916	620.365
337.402	16.129	824.356	620.182
338.416	16.203	823.428	619.702
339.431	16.268	822.963	619.535
340.446	16.240	822.452	618.994
341.460	16.227	822.048	618.587
342.475	16.234	821.503	618.149
343.489	16.127	821.239	617.505
344.504	16.374	820.427	617.741
345.519	16.411	819.677	617.256
346.533	16.468	819.155	617.018
347.548	16.476	818.609	616.580
348.562	16.359	818.363	615.915
349.577	16.386	817.589	615.376
350.592	16.358	817.458	615.121
351.606	16.376	816.753	614.600
352.621	16.327	816.273	614.009
353.635	16.309	815.693	613.453
354.650	16.288	815.715	613.339
355.665	16.269	815.211	612.836
356.679	16.436	814.408	612.781
357.694	16.399	814.211	612.447
358.708	16.454	813.776	612.265
359.723	16.489	812.797	611.600
360.738	16.397	812.941	611.322
361.752	16.494	812.074	610.966
362.767	16.484	811.533	610.468
363.781	16.552	811.092	610.330
364.796	16.553	810.639	609.936
365.810	16.609	810.184	609.744
366.825	16.658	809.723	609.517
367.840	16.638	809.544	609.257
368.854	16.626	809.196	608.899
369.869	16.632	808.570	608.395
370.883	16.664	808.315	608.264
371.898	16.746	807.624	607.984
372.913	16.898	806.841	607.886
373.927	16.713	806.263	606.735
374.942	16.706	805.708	606.238
375.956	16.789	804.923	605.893
376.971	16.900	804.143	605.647
377.986	16.834	803.871	605.151
379.000	16.901	802.990	604.675
380.015	16.946	802.843	604.672
381.029	16.896	802.473	604.162
382.044	16.872	801.779	603.500
383.059	16.872	801.515	603.247
384.073	16.960	800.575	602.798
385.088	17.030	800.189	602.704
386.102	16.845	800.094	601.920
387.117	16.886	799.192	601.337
388.132	16.900	799.052	601.227
389.146	16.919	798.439	600.781
390.161	16.870	798.325	600.467
391.175	16.815	798.038	600.003
392.190	17.054	797.167	600.141
393.205	17.016	796.952	599.792
394.219	17.048	796.258	599.328
395.234	16.987	795.873	598.772
396.248	16.847	795.683	598.082
397.263	16.881	794.857	597.528
398.278	16.960	794.258	597.301
399.292	16.830	794.171	596.725
400.307	16.977	793.581	596.749
401.321	16.937	793.153	596.230
402.336	17.049	792.752	596.272
403.350	17.149	792.299	596.229
404.365	17.096	791.877	595.673
405.380	17.124	791.531	595.457
406.394	17.129	791.305	595.252
407.409	17.032	791.045	594.665
408.423	17.208	790.260	594.639
409.438	17.162	789.804	594.082
410.453	17.221	789.422	593.946
411.467	17.457	788.872	594.305
412.482	17.418	788.467	593.810
413.496	17.428	787.839	593.319
414.511	17.457	787.326	592.983
415.526	17.344	787.358	592.562
416.540	17.459	786.964	592.612
417.555	17.414	786.417	591.991
418.569	17.265	786.058	591.150
419.584	17.385	785.500	591.094
420.599	17.407	784.935	590.696
421.613	111.689	1293.388	1478.866
422.628	95.797	1367.451	1478.945
