DTS Sentinel unit serial number:	SN413079Multiplexer serial number:	ORYXHardware model number:	OX4-SRSoftware version number:	ORYX F/W v4.00 Oryx Data Collector v3.7.2.0data status	okinstallation	princeton_trtdifferential loss correction	single-endedforward channel	channel 3reverse channel	N/Adate	2019/09/10time	23:42:10forward acquisition time	60.00reverse acquisition time	0.00gamma	496.2192k internal	0.2331k external	0.2331temperature offset calibration	0.9922default loss term (dB/km)	0.3790temperature slope calibration	1.0000multiplexer offset coefficient	1.0000multiplexer slope coefficient	1.0000fibre end	0.00T internal ref (°C)	29.56T ext. ref 1 (°C)	-0.31T ext. ref 2 (°C)	23.02length (m)	temperature (°C)	Stokes	anti-Stokes-747.200	39.804	0.227	-0.205
-746.185	-79.999	-0.327	-0.110
-745.171	-91.975	-0.110	-0.031
-744.156	86.926	-0.173	0.192
-743.142	-11.966	0.279	0.184
-742.127	-169.802	-0.073	-0.003
-741.112	-25.782	0.159	-0.094
-740.098	275.162	-0.233	0.416
-739.083	328.671	-0.031	-0.059
-738.069	-156.174	-0.367	-0.023
-737.054	-29.446	-0.219	-0.126
-736.039	-50.716	-0.171	-0.081
-735.025	-76.702	0.082	-0.029
-734.010	-70.812	0.108	-0.041
-732.996	-5.419	-0.142	0.098
-731.981	-200.000	-0.022	0.130
-730.966	-56.188	0.437	0.196
-729.952	144.561	-0.102	-0.137
-728.937	-32.076	0.140	-0.079
-727.923	-200.000	-0.020	0.287
-726.908	-12.433	-0.178	0.117
-725.894	36.708	0.175	-0.155
-724.879	-200.000	-0.007	-0.141
-723.864	-107.670	0.195	0.043
-722.850	11.729	0.072	-0.055
-721.835	-190.263	0.291	-0.003
-720.821	744.654	-0.046	-0.123
-719.806	-5.994	0.171	-0.118
-718.791	329.313	0.070	0.135
-717.777	-200.000	0.020	0.111
-716.762	16.380	0.267	0.212
-715.748	-200.000	0.026	0.128
-714.733	-112.050	-0.300	-0.061
-713.718	800.000	-0.094	0.327
-712.704	-33.709	-0.243	0.135
-711.689	-1.441	0.145	-0.103
-710.675	318.508	-0.177	0.338
-709.660	-50.930	0.223	-0.105
-708.645	225.852	0.078	-0.127
-707.631	38.081	-0.195	-0.175
-706.616	-41.985	0.183	-0.094
-705.602	-150.304	0.151	-0.012
-704.587	163.296	-0.174	0.246
-703.572	554.204	0.088	-0.213
-702.558	602.732	0.074	-0.185
-701.543	-106.817	-0.275	-0.061
-700.529	-77.163	0.116	0.041
-699.514	140.013	-0.207	0.274
-698.499	223.813	0.268	0.434
-697.485	39.402	0.401	0.361
-696.470	54.701	-0.192	0.186
-695.456	220.970	0.142	0.230
-694.441	-200.000	0.021	-0.116
-693.426	9.906	0.214	-0.163
-692.412	13.639	0.134	-0.104
-691.397	24.557	0.104	0.086
-690.383	-158.575	-0.191	0.011
-689.368	-34.186	-0.117	-0.064
-688.354	-38.675	0.171	0.091
-687.339	-157.282	-0.231	-0.014
-686.324	583.688	-0.065	0.161
-685.310	-200.000	0.001	-0.384
-684.295	-162.794	-0.192	0.009
-683.281	800.000	-0.069	-0.231
-682.266	-200.000	0.028	0.139
-681.251	800.000	-0.089	-0.252
-680.237	87.324	0.174	-0.194
-679.222	-113.172	-0.158	0.031
-678.208	-141.805	-0.144	-0.014
-677.193	-121.118	-0.023	-0.004
-676.178	-101.772	0.317	-0.077
-675.164	-104.557	0.185	0.043
-674.149	-98.170	-0.334	0.086
-673.135	-162.500	-0.162	0.008
-672.120	178.440	-0.086	0.126
-671.105	-167.806	0.059	-0.002
-670.091	54.128	-0.069	-0.067
-669.076	520.322	-0.138	-0.324
-668.062	-186.914	0.059	0.001
-667.047	-20.912	-0.160	0.099
-666.032	-14.155	0.169	-0.110
-665.018	213.035	0.112	-0.177
-664.003	543.023	0.010	0.023
-662.989	800.000	-0.096	-0.295
-661.974	-124.489	-0.244	-0.038
-660.959	-81.105	0.240	0.080
-659.945	58.501	0.076	0.075
-658.930	110.158	0.111	-0.133
-657.916	289.666	0.066	0.121
-656.901	262.543	-0.257	-0.447
-655.886	37.132	0.126	-0.112
-654.872	-200.000	0.004	0.289
-653.857	-200.000	-0.013	0.206
-652.843	90.978	0.109	0.123
-651.828	-200.000	-0.012	-0.146
-650.814	-159.072	0.195	-0.011
-649.799	-97.563	0.107	0.028
-648.784	335.729	-0.057	-0.111
-647.770	-83.999	0.065	-0.021
-646.755	-44.511	-0.179	0.090
-645.741	109.558	0.047	0.057
-644.726	-200.000	0.004	0.166
-643.711	5.772	0.217	-0.161
-642.697	-200.000	0.038	-0.441
-641.682	65.128	0.282	-0.285
-640.668	-140.232	-0.238	0.025
-639.653	799.607	0.080	-0.222
-638.638	800.000	-0.020	-0.076
-637.624	162.828	-0.138	-0.195
-636.609	-67.680	-0.127	-0.050
-635.595	-200.000	-0.001	0.094
-634.580	33.942	0.122	-0.106
-633.565	800.000	-0.117	-0.498
-632.551	-85.447	-0.140	-0.044
-631.536	647.156	0.161	-0.413
-630.522	445.855	-0.094	-0.207
-629.507	-136.938	0.232	-0.027
-628.492	74.465	-0.121	0.127
-627.478	-84.089	-0.418	-0.133
-626.463	-200.000	-0.024	0.284
-625.449	-68.903	0.246	-0.095
-624.434	800.000	-0.023	-0.074
-623.419	355.440	0.187	0.373
-622.405	-60.221	0.080	-0.034
-621.390	515.557	0.106	0.249
-620.376	800.000	-0.022	0.078
-619.361	69.486	0.247	0.254
-618.346	-184.979	-0.120	-0.002
-617.332	-200.000	-0.032	0.156
-616.317	49.723	0.143	-0.135
-615.303	-49.154	0.162	0.078
-614.288	-200.000	0.005	0.233
-613.273	305.128	-0.054	-0.100
-612.259	71.391	-0.109	-0.113
-611.244	12.366	-0.190	0.147
-610.230	122.566	-0.334	0.418
-609.215	800.000	-0.172	-0.495
-608.201	-200.000	0.019	-0.211
-607.186	-200.000	-0.026	0.278
-606.171	115.000	-0.038	0.047
-605.157	269.577	-0.053	-0.092
-604.142	-59.778	-0.285	-0.122
-603.128	800.000	0.019	0.063
-602.113	74.564	-0.038	0.040
-601.098	-200.000	-0.045	0.297
-600.084	24.373	-0.212	0.175
-599.069	-102.471	0.453	-0.108
-598.055	-200.000	0.013	-0.073
-597.040	-187.810	-0.254	-0.003
-596.025	-200.000	0.021	-0.402
-595.011	14.373	-0.224	0.175
-593.996	-27.744	0.074	-0.043
-592.982	-55.910	-0.295	0.132
-591.967	-200.000	-0.000	-0.003
-590.952	-14.174	0.275	0.178
-589.938	800.000	-0.172	0.480
-588.923	53.223	-0.232	0.222
-587.909	-33.492	0.123	0.068
-586.894	581.676	-0.022	-0.055
-585.879	-200.000	0.016	0.127
-584.865	-37.013	0.234	0.126
-583.850	-16.115	-0.263	0.167
-582.836	-144.642	-0.200	-0.018
-581.821	-200.000	-0.017	-0.435
-580.806	-38.241	-0.447	-0.237
-579.792	81.611	0.045	-0.048
-578.777	43.701	-0.166	0.152
-577.763	800.000	0.114	-0.450
-576.748	143.926	0.102	0.137
-575.733	-8.482	0.273	0.183
-574.719	728.357	0.094	0.250
-573.704	800.000	0.014	-0.061
-572.690	-74.467	0.193	-0.069
-571.675	-188.170	0.253	-0.003
-570.661	-98.397	-0.239	-0.061
-569.646	89.638	0.141	0.158
-568.631	-113.064	0.150	-0.030
-567.617	195.766	0.210	0.319
-566.602	-48.257	-0.339	0.164
-565.588	-45.991	0.068	0.034
-564.573	432.418	0.101	-0.220
-563.558	-105.903	0.390	0.088
-562.544	-200.000	-0.018	0.332
-561.529	-200.000	0.065	0.379
-560.515	35.103	0.283	-0.248
-559.500	50.388	-0.384	-0.362
-558.485	494.415	-0.084	-0.192
-557.471	-156.268	-0.179	-0.011
-556.456	37.141	-0.152	0.134
-555.442	-159.937	0.262	-0.014
-554.427	-77.833	0.370	-0.128
-553.412	-200.000	0.026	0.532
-552.398	45.882	-0.102	-0.094
-551.383	-87.653	-0.313	0.095
-550.369	-148.693	0.158	-0.013
-549.354	-107.845	0.241	0.052
-548.339	-143.324	0.304	0.029
-547.325	-64.871	-0.297	-0.120
-546.310	-140.635	-0.191	0.020
-545.296	-92.111	0.313	-0.088
-544.281	-143.959	-0.305	-0.029
-543.266	199.203	0.165	-0.253
-542.252	800.000	-0.023	-0.083
-541.237	-108.600	-0.398	0.085
-540.223	126.228	-0.193	0.244
-539.208	0.192	0.495	0.352
-538.193	504.065	0.162	-0.374
-537.179	-200.000	0.019	-0.203
-536.164	21.869	0.147	0.120
-535.150	-200.000	-0.055	0.314
-534.135	-14.304	0.230	0.148
-533.121	-117.143	-0.264	-0.048
-532.106	321.267	-0.058	-0.110
-531.091	-87.334	-0.304	-0.092
-530.077	800.000	-0.128	-0.380
-529.062	-85.598	0.356	-0.111
-528.048	115.279	-0.070	0.086
-527.033	73.847	-0.315	-0.330
-526.018	33.389	0.162	0.140
-525.004	-60.292	0.037	0.016
-523.989	-64.590	-0.193	0.078
-522.975	-48.433	0.128	-0.062
-521.960	800.000	-0.055	-0.212
-520.945	115.060	-0.188	0.229
-519.931	184.321	-0.223	0.329
-518.916	19.988	-0.306	-0.246
-517.902	800.000	-0.039	-0.135
-516.887	68.704	0.346	-0.354
-515.872	800.000	-0.092	-0.290
-514.858	800.000	0.061	0.219
-513.843	-200.000	-0.032	0.336
-512.829	800.000	-0.029	0.083
-511.814	-24.906	-0.170	0.101
-510.799	-200.000	-0.004	-0.025
-509.785	-87.556	0.196	0.059
-508.770	-4.824	0.254	0.175
-507.756	-57.895	0.198	-0.086
-506.741	-200.000	-0.081	-0.449
-505.726	-37.621	0.128	-0.068
-504.712	17.839	0.287	-0.228
-503.697	-147.119	0.231	-0.020
-502.683	-74.259	0.142	-0.051
-501.668	179.129	0.099	-0.144
-500.653	565.092	-0.141	0.341
-499.639	-102.115	-0.102	0.025
-498.624	-121.455	0.262	-0.043
-497.610	373.730	-0.012	0.025
-496.595	219.352	0.100	0.160
-495.581	159.848	-0.082	0.113
-494.566	-28.979	0.082	0.047
-493.551	-200.000	-0.036	0.616
-492.537	-119.815	-0.117	0.020
-491.522	-200.000	-0.046	0.231
-490.508	-200.000	0.018	-0.287
-489.493	-132.006	-0.219	0.028
-488.478	-84.556	0.162	0.051
-487.464	500.723	-0.098	-0.226
-486.449	-32.147	-0.249	0.139
-485.435	-200.000	-0.042	-0.475
-484.420	-200.000	-0.009	-0.322
-483.405	-200.000	-0.030	-0.217
-482.391	800.000	-0.056	0.205
-481.376	48.644	-0.283	-0.265
-480.362	800.000	-0.060	0.171
-479.347	-200.000	-0.004	0.137
-478.332	157.817	0.054	0.075
-477.318	800.000	0.054	0.153
-476.303	295.593	0.159	-0.290
-475.289	230.895	-0.191	-0.311
-474.274	-145.311	0.178	-0.016
-473.259	800.000	-0.037	0.109
-472.245	-148.475	-0.148	0.012
-471.230	800.000	0.013	-0.043
-470.216	-2.173	0.100	0.070
-469.201	-0.039	0.103	-0.073
-468.186	-66.696	-0.125	0.049
-467.172	30.138	-0.244	-0.207
-466.157	-28.115	0.423	-0.243
-465.143	-133.474	-0.033	-0.004
-464.128	60.097	0.064	0.063
-463.113	-36.943	-0.174	-0.093
-462.099	26.889	-0.086	0.072
-461.084	800.000	-0.059	-0.185
-460.070	-37.435	0.112	-0.059
-459.055	156.814	0.139	-0.192
-458.040	-4.897	0.162	-0.111
-457.026	10.184	-0.310	0.235
-456.011	-164.666	0.331	0.015
-454.997	7.917	0.175	0.130
-453.982	-68.261	-0.255	0.099
-452.968	287.494	0.053	0.095
-451.953	-200.000	0.070	0.309
-450.938	-67.813	0.177	-0.069
-449.924	579.796	0.085	-0.206
-448.909	-200.000	0.008	0.095
-447.895	-15.359	0.252	-0.160
-446.880	-200.000	-0.022	-0.168
-445.865	-82.820	0.117	-0.037
-444.851	200.470	-0.024	0.036
-443.836	-14.845	0.154	-0.098
-442.822	-114.870	0.193	0.037
-441.807	-20.494	-0.066	0.041
-440.792	-200.000	-0.012	-0.091
-439.778	265.605	-0.112	0.195
-438.763	-200.000	0.033	0.245
-437.749	113.208	-0.092	0.111
-436.734	-58.521	-0.189	0.082
-435.719	-200.000	0.015	-0.138
-434.705	-51.856	0.124	0.057
-433.690	-69.271	-0.115	-0.044
-432.676	-77.205	-0.196	0.068
-431.661	-96.453	0.081	0.021
-430.646	66.325	-0.176	0.178
-429.632	-59.919	-0.193	0.082
-428.617	43.773	-0.167	-0.152
-427.603	52.557	0.321	-0.305
-426.588	800.000	-0.029	-0.127
-425.573	41.071	0.141	-0.127
-424.559	-112.723	-0.157	0.031
-423.544	105.005	-0.060	0.070
-422.530	-200.000	-0.028	-0.165
-421.515	-66.859	-0.013	-0.005
-420.500	-200.000	0.015	-0.229
-419.486	800.000	-0.060	-0.247
-418.471	-109.779	0.169	0.035
-417.457	-200.000	-0.000	0.051
-416.442	-74.256	-0.306	-0.110
-415.428	-200.000	-0.030	0.165
-414.413	800.000	-0.014	0.059
-413.398	64.708	0.137	0.138
-412.384	124.204	-0.058	0.072
-411.369	-162.965	-0.273	-0.013
-410.355	-51.086	0.192	0.090
-409.340	73.826	0.136	0.142
-408.325	800.000	-0.119	-0.343
-407.311	29.283	-0.241	0.203
-406.296	10.560	0.151	0.115
-405.282	613.973	-0.030	0.074
-404.267	-89.571	0.127	-0.037
-403.252	-136.504	-0.350	-0.040
-402.238	-120.021	-0.300	0.051
-401.223	95.828	-0.172	-0.196
-400.209	-81.437	0.248	0.081
-399.194	285.562	0.071	-0.127
-398.179	800.000	0.041	0.141
-397.165	-200.000	0.016	-0.163
-396.150	800.000	-0.035	-0.102
-395.136	-46.827	0.189	0.092
-394.121	800.000	0.050	-0.148
-393.106	137.114	-0.163	0.212
-392.092	58.369	0.214	0.208
-391.077	-102.620	0.081	-0.019
-390.063	-200.000	0.007	-0.080
-389.048	-56.427	-0.187	0.082
-388.033	-25.198	0.088	-0.052
-387.019	-200.000	-0.010	0.210
-386.004	2.876	0.145	0.104
-384.990	800.000	-0.071	0.220
-383.975	-89.513	-0.171	0.050
-382.960	-112.434	-0.136	0.027
-381.946	231.025	0.144	-0.234
-380.931	298.225	-0.102	0.186
-379.917	-78.137	0.352	0.120
-378.902	3.552	-0.166	0.120
-377.888	-177.017	0.116	-0.003
-376.873	-130.905	-0.105	0.014
-375.858	11.355	-0.110	0.084
-374.844	274.393	0.094	0.166
-373.829	800.000	0.077	0.258
-372.815	197.066	0.136	-0.206
-371.800	-47.086	0.238	0.115
-370.785	182.370	-0.118	0.173
-369.771	101.339	-0.064	-0.074
-368.756	340.270	-0.077	0.149
-367.742	71.830	-0.113	0.117
-366.727	-200.000	0.038	0.189
-365.712	-92.270	-0.113	0.032
-364.698	-200.000	-0.002	-0.086
-363.683	-157.411	-0.215	0.013
-362.669	10.071	0.103	0.077
-361.654	-13.167	0.191	-0.123
-360.639	-190.265	-0.072	0.001
-359.625	213.452	0.122	-0.192
-358.610	800.000	0.036	-0.136
-357.596	-63.193	0.145	0.059
-356.581	405.026	-0.082	-0.172
-355.566	227.768	-0.172	-0.278
-354.552	-54.232	0.326	-0.147
-353.537	-105.607	0.142	-0.032
-352.523	-46.246	-0.296	-0.144
-351.508	508.788	0.076	0.175
-350.493	-139.476	0.090	-0.010
-349.479	800.000	0.046	0.162
-348.464	-200.000	0.004	0.182
-347.450	-200.000	0.001	0.261
-346.435	91.884	0.225	0.251
-345.420	-133.744	0.153	0.019
-344.406	136.158	0.101	-0.131
-343.391	-200.000	0.047	-0.218
-342.377	-130.369	-0.250	0.034
-341.362	-140.591	-0.053	-0.005
-340.348	122.016	0.228	-0.282
-339.333	-200.000	-0.016	0.325
-338.318	800.000	-0.031	0.096
-337.304	-59.668	0.039	-0.017
-336.289	115.146	-0.137	-0.165
-335.275	-33.056	-0.082	0.045
-334.260	800.000	0.060	0.217
-333.245	-100.054	-0.260	-0.064
-332.231	145.710	0.193	-0.256
-331.216	117.398	-0.110	0.134
-330.202	-200.000	-0.017	-0.117
-329.187	-24.261	-0.030	0.018
-328.172	-200.000	0.022	0.144
-327.158	71.738	0.061	0.063
-326.143	-86.933	-0.022	0.007
-325.129	5.981	0.103	-0.076
-324.114	112.692	-0.121	0.145
-323.099	28.737	0.124	-0.104
-322.085	283.076	-0.112	0.199
-321.070	39.096	-0.192	-0.170
-320.056	-87.609	0.057	0.017
-319.041	-200.000	-0.049	-0.320
-318.026	-4.338	0.084	-0.058
-317.012	-105.761	0.226	0.051
-315.997	-9.367	-0.088	0.058
-314.983	253.557	0.113	0.191
-313.968	-200.000	0.010	0.357
-312.953	-200.000	-0.023	-0.163
-311.939	130.186	0.145	-0.184
-310.924	25.210	-0.070	-0.058
-309.910	-60.162	0.300	-0.127
-308.895	-200.000	-0.003	0.128
-307.880	800.000	-0.076	-0.248
-306.866	-123.074	0.340	0.054
-305.851	233.745	-0.163	0.266
-304.837	657.213	0.070	-0.178
-303.822	319.388	0.249	-0.467
-302.807	74.356	0.169	0.176
-301.793	-49.180	0.147	0.069
-300.778	800.000	-0.071	0.216
-299.764	-48.596	0.169	0.080
-298.749	-57.852	0.090	0.039
-297.735	-163.942	0.236	0.011
-296.720	800.000	-0.056	-0.239
-295.705	-200.000	0.008	-0.059
-294.691	28.792	0.124	0.104
-293.676	636.487	0.065	0.163
-292.662	-19.277	-0.189	-0.116
-291.647	-65.136	-0.184	-0.073
-290.632	-133.387	0.188	0.023
-289.618	-115.632	0.073	-0.014
-288.603	-200.000	0.071	0.349
-287.589	13.255	-0.144	0.110
-286.574	233.316	-0.049	0.080
-285.559	686.171	0.061	-0.157
-284.545	89.894	-0.200	0.221
-283.530	-19.003	-0.146	-0.090
-282.516	-120.945	-0.233	-0.039
-281.501	109.008	-0.219	0.259
-280.486	13.495	0.153	0.117
-279.472	-200.000	0.015	-0.293
-278.457	-58.154	0.087	-0.038
-277.443	77.289	-0.196	0.206
-276.428	460.325	-0.030	-0.067
-275.413	-87.749	0.316	0.094
-274.399	-50.501	-0.225	0.105
-273.384	508.112	-0.093	-0.213
-272.370	316.778	0.025	0.046
-271.355	246.079	-0.158	-0.263
-270.340	800.000	0.122	-0.375
-269.326	85.898	-0.075	-0.081
-268.311	159.872	-0.120	0.165
-267.297	204.800	-0.078	-0.120
-266.282	85.406	-0.150	-0.163
-265.267	139.126	0.057	0.074
-264.253	617.859	-0.067	0.166
-263.238	-115.699	-0.341	0.063
-262.224	282.353	-0.010	-0.017
-261.209	435.242	-0.062	0.132
-260.195	-166.559	0.203	-0.008
-259.180	-161.978	-0.123	0.006
-258.165	68.000	-0.238	-0.240
-257.151	800.000	-0.052	-0.166
-256.136	-163.166	0.129	-0.006
-255.122	-200.000	-0.009	-0.151
-254.107	-200.000	0.008	-0.216
-253.092	469.736	-0.033	-0.074
-252.078	456.443	0.103	-0.225
-251.063	-26.875	-0.276	-0.159
-250.049	800.000	0.077	0.260
-249.034	29.109	-0.159	0.133
-248.019	-97.395	0.204	-0.052
-247.005	-174.606	-0.202	0.006
-245.990	800.000	-0.017	0.063
-244.976	-112.418	-0.140	0.028
-243.961	-200.000	0.083	0.456
-242.946	800.000	-0.104	-0.347
-241.932	-37.765	-0.332	-0.174
-240.917	399.032	-0.088	-0.183
-239.903	-200.000	0.002	0.048
-238.888	-44.383	0.403	-0.199
-237.873	177.983	0.070	0.101
-236.859	-65.922	0.147	0.058
-235.844	298.015	0.086	-0.156
-234.830	-147.330	-0.311	-0.026
-233.815	308.160	-0.065	0.120
-232.800	-113.400	0.371	0.072
-231.786	-200.000	-0.030	-0.479
-230.771	46.517	-0.064	0.059
-229.757	-200.000	0.005	0.152
-228.742	-136.685	0.386	0.044
-227.727	-14.414	-0.329	0.209
-226.713	800.000	-0.126	0.392
-225.698	44.730	0.157	-0.142
-224.684	800.000	0.094	-0.339
-223.669	-111.390	0.158	-0.032
-222.655	800.000	0.042	-0.144
-221.640	-200.000	-0.016	-0.502
-220.625	412.218	-0.076	0.159
-219.611	-200.000	0.010	-0.249
-218.596	297.187	0.131	-0.237
-217.582	-101.721	-0.065	0.016
-216.567	800.000	0.060	0.218
-215.552	402.024	0.119	0.247
-214.538	36.094	-0.181	-0.157
-213.523	-200.000	-0.039	0.200
-212.509	187.858	0.131	-0.193
-211.494	78.629	-0.195	-0.205
-210.479	-183.468	0.163	-0.003
-209.465	68.378	-0.116	0.117
-208.450	-124.868	0.087	0.013
-207.436	-125.162	0.076	0.012
-206.421	-200.000	-0.020	-0.234
-205.406	-66.972	0.075	-0.029
-204.392	800.000	-0.040	0.123
-203.377	-200.000	-0.001	0.173
-202.363	488.493	-0.091	0.206
-201.348	67.253	0.063	0.064
-200.333	-200.000	-0.046	-0.216
-199.319	800.000	0.079	-0.242
-198.304	20.296	-0.185	-0.148
-197.290	-41.035	0.102	-0.052
-196.275	104.180	-0.050	0.058
-195.260	-25.969	-0.137	0.079
-194.246	-200.000	0.011	0.056
-193.231	128.917	-0.131	-0.165
-192.217	-15.546	0.141	-0.089
-191.202	-200.000	0.012	0.108
-190.187	-163.119	-0.190	-0.009
-189.173	-38.743	0.444	-0.231
-188.158	-20.587	-0.106	-0.064
-187.144	800.000	-0.033	-0.107
-186.129	185.570	-0.102	-0.150
-185.114	-147.072	-0.066	0.006
-184.100	46.942	-0.208	0.191
-183.085	72.721	-0.133	0.137
-182.071	-200.000	-0.016	-0.303
-181.056	-12.110	-0.094	0.060
-180.042	320.050	0.194	0.362
-179.027	800.000	-0.047	0.129
-178.012	-3.788	0.107	0.073
-176.998	-200.000	-0.008	0.320
-175.983	296.750	0.109	-0.197
-174.969	332.873	0.022	0.041
-173.954	523.928	-0.040	0.093
-172.939	-200.000	-0.026	0.149
-171.925	-66.958	0.194	0.075
-170.910	159.930	0.115	-0.158
-169.896	800.000	0.144	0.459
-168.881	1.062	0.120	-0.085
-167.866	145.165	-0.074	0.098
-166.852	-200.000	0.039	0.292
-165.837	-200.000	-0.024	0.223
-164.823	-200.000	0.032	0.183
-163.808	-100.675	-0.464	0.113
-162.793	-200.000	0.003	0.060
-161.779	408.830	0.096	-0.200
-160.764	-160.441	0.156	-0.008
-159.750	-70.505	0.111	0.041
-158.735	800.000	-0.015	-0.047
-157.720	63.920	0.180	-0.178
-156.706	-61.580	-0.242	0.100
-155.691	151.991	0.160	0.214
-154.677	-152.630	-0.310	0.022
-153.662	556.600	0.142	0.336
-152.647	284.409	-0.096	-0.171
-151.633	408.857	0.015	-0.032
-150.618	459.456	0.106	-0.231
-149.604	166.836	0.193	-0.269
-148.589	-76.200	-0.088	0.030
-147.574	217.866	-0.119	0.187
-146.560	122.144	0.303	0.372
-145.545	-188.358	-0.147	0.002
-144.531	372.528	-0.174	0.349
-143.516	342.205	0.197	0.380
-142.502	-127.973	0.016	-0.002
-141.487	56.387	0.209	-0.199
-140.472	-150.084	0.180	0.014
-139.458	80.816	-0.136	0.145
-138.443	800.000	-0.066	-0.182
-137.429	-200.000	0.031	-0.426
-136.414	-92.025	-0.276	-0.077
-135.399	45.314	0.055	0.050
-134.385	50.914	-0.160	-0.149
-133.370	-104.499	-0.397	-0.090
-132.356	-41.800	0.066	0.033
-131.341	-48.684	0.180	-0.085
-130.326	-100.393	-0.348	0.085
-129.312	-48.147	-0.330	-0.157
-128.297	-45.335	-0.226	-0.110
-127.283	-200.000	0.048	0.238
-126.268	-200.000	-0.039	0.187
-125.253	32.651	-0.132	0.112
-124.239	-29.241	0.178	0.100
-123.224	-2.791	0.129	0.089
-122.210	361.491	-0.066	0.131
-121.195	-54.889	0.263	0.116
-120.180	-54.491	-0.181	-0.081
-119.166	800.000	0.158	0.435
-118.151	-200.000	-0.026	0.138
-117.137	104.551	-0.118	-0.137
-116.122	-89.681	0.072	-0.021
-115.107	95.083	-0.205	0.229
-114.093	800.000	0.019	0.063
-113.078	-83.753	0.240	0.075
-112.064	-159.244	-0.257	0.014
-111.049	145.079	-0.271	-0.356
-110.034	-200.000	0.047	-0.302
-109.020	386.053	-0.081	0.163
-108.005	26.181	0.092	-0.076
-106.991	-30.687	-0.207	-0.115
-105.976	-99.976	0.657	0.161
-104.962	24.012	-0.213	-0.173
-103.947	-38.555	0.337	-0.175
-102.932	-164.437	0.085	-0.004
-101.918	685.092	0.202	-0.519
-100.903	-200.000	-0.055	-0.436
-99.889	-87.490	-0.535	-0.159
-98.874	-200.000	-0.007	-0.110
-97.859	-20.231	0.124	-0.075
-96.845	-200.000	-0.010	0.092
-95.830	-153.131	-0.180	0.012
-94.816	213.374	-0.121	-0.188
-93.801	-118.216	-0.069	0.012
-92.786	-119.902	0.339	-0.057
-91.772	35.413	-0.117	0.101
-90.757	-9.898	0.288	-0.188
-89.743	27.612	-0.209	-0.173
-88.728	-66.198	0.197	-0.077
-87.713	68.264	-0.059	0.059
-86.699	-200.000	0.021	-0.188
-85.684	134.206	-0.194	-0.247
-84.670	-200.000	0.011	0.127
-83.655	-200.000	0.001	-0.035
-82.640	379.941	0.093	-0.187
-81.626	302.680	-0.099	-0.181
-80.611	-200.000	-0.012	0.078
-79.597	47.859	-0.327	-0.299
-78.582	276.936	0.107	-0.187
-77.567	-200.000	0.015	0.155
-76.553	800.000	0.064	0.253
-75.538	106.996	-0.136	-0.158
-74.524	-37.882	0.043	-0.022
-73.509	-28.941	0.327	-0.184
-72.494	42.000	-0.063	-0.056
-71.480	2.270	-0.150	-0.106
-70.465	-39.801	0.093	-0.047
-69.451	-160.611	0.285	0.015
-68.436	-200.000	-0.016	-0.136
-67.422	-100.424	0.500	-0.122
-66.407	144.110	0.072	0.095
-65.392	22.548	-0.216	0.173
-64.378	-109.235	0.203	0.042
-63.363	168.448	0.046	0.064
-62.349	800.000	0.101	-0.307
-61.334	9.636	-1.249	-0.928
-60.319	222.027	0.349	0.550
-59.305	800.000	-0.345	-1.244
-58.290	297.305	0.802	1.444
-57.276	453.621	0.841	1.825
-56.261	-200.000	105.552	620.960
-55.246	525.479	1499.596	3458.747
-54.232	177.998	2690.458	3845.171
-53.217	112.212	2176.624	2578.158
-52.203	40.375	1698.529	1497.779
-51.188	32.783	1509.914	1280.121
-50.173	30.380	1483.155	1241.342
-49.159	51.592	1539.685	1433.827
-48.144	51.640	1555.948	1449.243
-47.130	32.904	1511.980	1282.497
-46.115	29.886	1496.817	1249.248
-45.100	29.695	1493.478	1245.123
-44.086	29.664	1491.050	1242.844
-43.071	29.542	1488.829	1240.124
-42.057	29.405	1487.949	1238.417
-41.042	29.669	1485.469	1238.077
-40.027	29.622	1484.852	1237.194
-39.013	29.530	1483.303	1235.240
-37.998	29.447	1482.308	1233.811
-36.984	29.498	1481.213	1233.193
-35.969	29.486	1480.066	1232.108
-34.954	29.511	1478.423	1230.854
-33.940	29.414	1476.994	1228.975
-32.925	29.602	1475.174	1228.661
-31.911	29.639	1473.883	1227.778
-30.896	29.651	1473.005	1227.079
-29.881	29.625	1471.667	1225.742
-28.867	29.633	1470.359	1224.659
-27.852	29.591	1468.919	1223.134
-26.838	29.628	1467.758	1222.361
-25.823	29.625	1466.176	1220.976
-24.809	29.649	1463.931	1219.219
-23.794	29.663	1463.091	1218.561
-22.779	29.622	1461.812	1217.178
-21.765	29.672	1460.697	1216.531
-20.750	29.608	1459.930	1215.419
-19.736	29.618	1458.828	1214.525
-18.721	29.616	1457.057	1212.986
-17.706	29.587	1456.741	1212.482
-16.692	29.708	1454.685	1211.521
-15.677	29.599	1454.640	1210.722
-14.663	29.489	1453.614	1209.097
-13.648	29.520	1452.477	1208.309
-12.633	29.498	1451.943	1207.672
-11.619	29.495	1451.126	1206.924
-10.604	29.447	1450.441	1205.992
-9.590	29.514	1449.056	1205.231
-8.575	29.554	1447.759	1204.367
-7.560	29.496	1447.016	1203.319
-6.546	29.636	1446.476	1203.737
-5.531	29.479	1446.095	1202.350
-4.517	29.524	1444.984	1201.668
-3.502	29.427	1443.984	1200.161
-2.487	29.529	1442.584	1199.609
-1.473	29.538	1441.465	1198.692
-0.458	29.576	1440.356	1197.967
0.556	27.285	1431.140	1186.544
1.571	24.322	1405.272	1145.990
2.586	20.761	1346.091	1075.667
3.600	19.329	1264.568	1002.112
4.615	18.223	1220.279	960.726
5.629	15.795	1165.456	904.447
6.644	7.617	1082.483	798.996
7.659	0.888	1042.516	736.749
8.673	-0.012	1036.625	728.165
9.688	-0.383	1033.829	724.342
10.702	-0.362	1032.200	723.243
11.717	-0.502	1030.307	721.177
12.731	2.465	1033.174	737.425
13.746	11.188	1045.603	788.609
14.761	18.185	1054.152	829.013
15.775	19.874	1055.265	838.004
16.790	19.947	1054.677	837.813
17.804	19.724	1054.666	836.652
18.819	19.561	1053.709	835.030
19.834	19.680	1053.060	835.017
20.848	19.800	1052.675	835.220
21.863	19.801	1052.459	834.980
22.877	19.863	1051.735	834.629
23.892	19.882	1050.687	833.817
24.907	19.646	1050.203	832.222
25.921	19.688	1049.915	832.120
26.936	19.745	1049.419	831.927
27.950	19.679	1047.852	830.295
28.965	19.669	1046.684	829.249
29.980	19.524	1044.680	826.895
30.994	19.558	1043.196	825.808
32.009	19.811	1042.320	826.248
33.023	19.877	1041.565	825.894
34.038	19.615	1040.675	823.867
35.053	19.667	1039.647	823.226
36.067	19.682	1039.226	822.893
37.082	19.775	1038.509	822.694
38.096	19.847	1037.895	822.479
39.111	19.933	1036.994	822.097
40.126	20.065	1035.847	821.745
41.140	20.190	1034.229	820.980
42.155	19.694	1032.968	817.559
43.169	19.566	1031.539	815.751
44.184	19.532	1030.235	814.489
45.199	19.614	1029.431	814.165
46.213	19.540	1027.913	812.547
47.228	19.487	1026.860	811.391
48.242	19.566	1026.499	811.406
49.257	19.571	1025.785	810.792
50.271	19.640	1024.766	810.240
51.286	19.775	1024.510	810.600
52.301	19.815	1023.098	809.596
53.315	19.879	1022.223	809.132
54.330	19.837	1021.430	808.237
55.344	19.847	1020.320	807.332
56.359	19.746	1019.684	806.290
57.374	19.775	1019.169	805.945
58.388	19.562	1017.954	803.921
59.403	19.621	1016.914	803.301
60.417	19.672	1016.079	802.809
61.432	19.448	1015.235	801.029
62.447	19.456	1014.550	800.459
63.461	19.559	1014.225	800.610
64.476	19.638	1013.200	800.095
65.490	19.639	1011.962	799.050
66.505	19.474	1011.045	797.491
67.520	19.460	1010.669	797.058
68.534	19.688	1009.234	796.912
69.549	19.413	1008.745	795.187
70.563	19.148	1007.640	793.023
71.578	19.196	1006.463	792.248
72.593	19.202	1006.066	791.892
73.607	19.127	1004.636	790.355
74.622	19.165	1003.471	789.540
75.636	19.443	1003.004	790.377
76.651	19.548	1002.077	790.058
77.666	19.306	1001.463	788.399
78.680	19.299	1000.287	787.369
79.695	19.319	999.701	786.932
80.709	19.527	998.821	787.116
81.724	19.501	998.633	786.778
82.739	19.436	997.397	785.440
83.753	19.342	996.779	784.455
84.768	19.712	995.864	785.348
85.782	19.905	995.623	785.966
86.797	20.121	993.858	785.482
87.812	19.991	993.487	784.528
88.826	19.906	992.547	783.335
89.841	19.907	992.184	782.984
90.855	19.922	991.437	782.389
91.870	20.033	990.367	781.977
92.884	20.048	989.361	781.182
93.899	19.853	988.664	779.688
94.914	19.690	987.610	778.050
95.928	19.895	987.511	778.827
96.943	20.086	985.744	778.222
97.957	19.744	985.048	776.067
98.972	19.536	983.675	773.988
99.987	19.163	982.483	771.308
101.001	19.283	982.149	771.515
102.016	19.597	981.676	772.481
103.030	19.780	980.584	772.373
104.045	19.745	978.956	770.865
105.060	19.509	977.858	768.881
106.074	19.389	976.504	767.212
107.089	19.337	976.042	766.550
108.103	19.811	975.520	768.181
109.118	19.886	974.903	767.959
110.133	19.553	973.682	765.451
111.147	19.610	972.767	764.920
112.162	19.513	971.286	763.260
113.176	19.460	969.989	761.935
114.191	19.324	969.424	760.827
115.206	19.614	968.521	761.329
116.220	19.185	967.424	758.508
117.235	19.032	966.468	757.018
118.249	19.290	965.412	757.260
119.264	19.463	964.392	757.152
120.279	19.239	963.689	755.551
121.293	19.188	962.874	754.621
122.308	19.374	962.150	754.799
123.322	19.374	961.212	753.997
124.337	19.352	960.448	753.236
125.352	19.334	958.684	751.708
126.366	18.924	956.975	748.514
127.381	18.672	955.614	746.289
128.395	19.132	955.517	748.149
129.410	19.696	955.234	750.310
130.424	19.797	954.115	749.801
131.439	19.819	953.336	749.217
132.454	19.747	952.379	748.089
133.468	19.565	951.543	746.580
134.483	19.651	950.079	745.737
135.497	19.591	950.208	745.512
136.512	19.906	949.517	746.261
137.527	19.994	948.480	745.759
138.541	19.950	947.493	744.727
139.556	20.001	946.961	744.462
140.570	19.926	946.137	743.428
141.585	19.916	944.945	742.384
142.600	19.826	944.690	741.731
143.614	19.847	943.298	740.663
144.629	19.976	942.405	740.447
145.643	20.099	942.048	740.628
146.658	20.098	940.500	739.340
147.673	19.970	939.316	737.796
148.687	19.967	938.398	737.000
149.702	19.840	937.392	735.604
150.716	19.819	936.141	734.470
151.731	19.700	935.292	733.232
152.746	19.798	935.029	733.379
153.760	20.041	934.411	733.855
154.775	20.037	933.645	733.173
155.789	20.074	932.596	732.440
156.804	20.141	931.824	732.053
157.819	20.089	930.863	731.014
158.833	20.031	929.810	729.879
159.848	20.190	929.019	729.860
160.862	20.217	928.110	729.195
161.877	19.910	927.500	727.364
162.892	20.037	926.630	727.149
163.906	20.198	925.566	726.926
164.921	20.113	925.201	726.216
165.935	20.181	923.062	724.759
166.950	20.253	922.479	724.539
167.964	20.235	921.547	723.664
168.979	20.087	920.864	722.450
169.994	20.022	919.162	720.779
171.008	19.896	918.858	719.954
172.023	20.024	917.925	719.691
173.037	20.111	917.558	719.701
174.052	20.102	915.805	718.223
175.067	19.679	915.524	716.188
176.081	19.761	914.273	715.487
177.096	20.061	913.220	715.837
178.110	20.096	912.504	715.357
179.125	19.715	911.256	712.746
180.140	19.468	910.520	711.089
181.154	19.571	909.793	710.883
182.169	19.516	909.359	710.255
183.183	19.820	909.072	711.217
184.198	20.011	908.536	711.520
185.213	19.933	907.681	710.466
186.227	19.992	907.209	710.276
187.242	19.964	906.814	709.791
188.256	20.065	905.782	709.330
189.271	20.048	904.744	708.387
190.286	20.248	904.075	708.617
191.300	20.082	903.352	707.309
192.315	19.509	902.440	704.197
193.329	19.102	900.482	700.949
194.344	18.579	899.563	698.043
195.359	19.174	899.570	700.409
196.373	19.838	900.414	703.704
197.388	20.130	899.433	704.064
198.402	19.983	899.071	703.122
199.417	19.785	898.865	702.093
200.432	19.837	898.148	701.682
201.446	19.863	896.651	700.554
202.461	19.430	896.231	698.415
203.475	19.500	895.919	698.390
204.490	19.192	894.060	695.636
205.504	18.040	892.611	689.800
206.519	18.526	892.430	691.562
207.534	19.469	892.738	695.539
208.548	19.588	892.162	695.510
209.563	19.949	891.618	696.479
210.577	20.152	890.744	696.548
211.592	19.608	890.459	694.080
212.607	20.115	889.987	695.686
213.621	20.039	889.549	694.976
214.636	20.130	888.694	694.610
215.650	20.206	888.095	694.384
216.665	20.079	887.339	693.226
217.680	20.164	886.973	693.218
218.694	20.169	886.604	692.888
219.709	19.884	885.732	691.005
220.723	19.486	884.564	688.447
221.738	19.789	884.023	689.173
222.753	19.910	883.625	689.285
223.767	19.965	882.889	688.865
224.782	19.987	882.230	688.379
225.796	20.244	881.783	688.990
226.811	20.324	880.571	688.301
227.826	19.746	880.164	685.628
228.840	19.168	878.320	681.845
229.855	18.983	877.858	680.693
230.869	19.331	877.312	681.587
231.884	19.074	876.140	679.600
232.899	19.078	875.971	679.424
233.913	19.979	876.135	683.048
234.928	20.015	875.254	682.443
235.942	19.982	874.448	681.622
236.957	19.999	873.864	681.175
237.972	19.689	873.365	679.507
238.986	19.705	872.294	678.676
240.001	19.664	872.129	678.328
241.015	19.713	871.270	677.790
242.030	19.907	870.236	677.688
243.045	19.977	869.629	677.428
244.059	20.027	869.620	677.558
245.074	20.124	869.096	677.468
246.088	20.135	868.035	676.624
247.103	19.579	867.443	673.933
248.117	19.774	866.579	673.963
249.132	20.149	866.849	675.576
250.147	20.541	866.505	676.774
251.161	20.537	865.884	676.212
252.176	20.715	865.079	676.216
253.190	20.599	864.686	675.396
254.205	20.719	863.771	675.090
255.220	20.931	863.321	675.501
256.234	20.971	862.510	674.958
257.249	20.877	862.045	674.172
258.263	20.837	861.410	673.460
259.278	20.770	860.783	672.653
260.293	20.769	860.271	672.190
261.307	20.820	860.043	672.149
262.322	20.845	858.490	670.970
263.336	20.743	857.960	670.104
264.351	20.216	856.795	667.110
265.366	18.983	854.788	660.752
266.380	18.501	854.122	658.330
267.395	19.467	854.570	662.325
268.409	20.250	854.825	665.470
269.424	20.285	853.892	664.820
270.439	20.423	853.478	664.966
271.453	20.729	852.631	665.417
272.468	20.604	851.975	664.368
273.482	20.822	851.693	664.924
274.497	20.928	851.108	664.813
275.512	20.791	849.676	663.115
276.526	20.272	848.369	660.062
277.541	20.306	848.365	660.129
278.555	20.624	848.094	661.068
279.570	20.488	847.299	659.874
280.585	20.230	846.688	658.361
281.599	20.307	846.178	658.196
282.614	20.525	845.678	658.577
283.628	20.160	844.345	656.099
284.643	19.878	843.309	654.169
285.657	20.068	843.778	655.195
286.672	20.154	842.756	654.667
287.687	19.820	841.321	652.234
288.701	19.925	842.090	653.170
289.716	20.310	841.488	654.096
290.730	19.903	840.470	651.717
291.745	19.950	839.816	651.327
292.760	19.846	838.632	649.963
293.774	19.699	838.381	649.158
294.789	20.480	838.610	652.209
295.803	21.161	838.706	654.782
296.818	21.149	838.128	654.229
297.833	21.321	837.772	654.535
298.847	21.038	836.447	652.384
299.862	20.691	835.140	650.012
300.876	21.022	834.833	650.950
301.891	21.114	834.934	651.318
302.906	21.119	834.200	650.704
303.920	20.673	833.134	648.156
304.935	20.694	832.149	647.407
305.949	21.062	832.211	648.769
306.964	21.151	831.450	648.448
307.979	20.967	831.141	647.468
308.993	20.935	830.493	646.785
310.008	21.124	830.172	647.181
311.022	21.339	830.001	647.786
312.037	21.256	828.950	646.600
313.052	20.910	828.515	644.924
314.066	20.857	827.735	644.063
315.081	20.294	826.622	641.061
316.095	19.478	825.418	637.059
317.110	20.260	825.099	639.642
318.125	20.991	825.371	642.491
319.139	20.461	824.761	640.007
320.154	19.543	822.695	634.974
321.168	18.938	821.930	632.102
322.183	19.771	821.830	635.031
323.197	20.450	822.401	637.912
324.212	20.730	822.098	638.645
325.227	20.964	821.509	638.991
326.241	21.102	821.304	639.278
327.256	20.972	820.621	638.214
328.270	20.718	820.163	636.873
329.285	20.954	819.139	636.884
330.300	20.726	818.295	635.338
331.314	20.616	817.514	634.275
332.329	20.542	817.162	633.678
333.343	21.032	816.892	635.198
334.358	21.133	816.250	635.009
335.373	20.995	816.194	634.407
336.387	21.156	815.212	634.172
337.402	21.278	815.332	634.653
338.416	21.483	814.736	634.875
339.431	21.381	814.044	633.911
340.446	21.362	813.458	633.330
341.460	21.583	812.953	633.681
342.475	21.726	812.132	633.501
343.489	21.364	811.905	631.959
344.504	21.384	811.522	631.678
345.519	21.492	810.999	631.606
346.533	21.726	810.721	632.176
347.548	21.690	810.425	631.761
348.562	21.807	809.412	631.336
349.577	21.765	809.156	630.930
350.592	21.738	808.538	630.294
351.606	21.824	808.175	630.266
352.621	21.740	807.852	629.656
353.635	21.622	807.190	628.660
354.650	21.628	806.391	628.005
355.665	21.199	805.354	625.602
356.679	20.393	803.705	621.385
357.694	20.108	803.813	620.394
358.708	20.867	803.167	622.554
359.723	20.819	802.534	621.835
360.738	20.950	802.710	622.384
361.752	21.377	802.596	623.765
362.767	21.604	802.062	624.103
363.781	21.784	801.591	624.326
364.796	22.034	801.545	625.125
365.810	22.174	800.908	625.070
366.825	22.147	800.778	624.817
367.840	22.069	800.586	624.334
368.854	21.913	800.158	623.392
369.869	21.565	799.013	621.210
370.883	21.483	798.094	620.150
371.898	21.473	797.964	619.959
372.913	21.380	796.865	618.721
373.927	21.546	796.281	618.797
374.942	21.707	795.716	618.874
375.956	21.710	795.703	618.819
376.971	21.861	794.784	618.582
377.986	21.933	794.278	618.387
379.000	21.971	794.208	618.411
380.015	22.018	793.638	618.080
381.029	21.937	792.875	617.145
382.044	21.890	792.102	616.323
383.059	22.068	791.837	616.689
384.073	22.030	791.488	616.227
385.088	21.980	790.974	615.596
386.102	22.031	790.623	615.451
387.117	21.926	790.140	614.650
388.132	21.923	789.103	613.778
389.146	21.714	788.332	612.394
390.161	21.174	787.787	610.031
391.175	21.144	787.433	609.599
392.190	21.759	787.450	611.706
393.205	21.736	786.755	611.031
394.219	20.831	785.198	606.616
395.234	19.428	783.133	600.091
396.248	18.648	782.116	596.550
397.263	19.863	783.187	601.539
398.278	21.447	784.422	607.945
399.292	21.988	784.015	609.454
400.307	21.633	783.263	607.586
401.321	21.566	782.944	607.050
402.336	21.454	782.456	606.232
403.350	21.734	782.386	607.092
404.365	22.274	782.209	608.772
405.380	22.690	781.564	609.654
406.394	22.576	781.965	609.518
407.409	22.742	781.294	609.516
408.423	22.773	781.015	609.352
409.438	22.746	780.262	608.617
410.453	22.743	779.942	608.302
411.467	22.816	779.549	608.192
412.482	22.741	778.841	607.328
413.496	22.585	778.394	606.389
414.511	22.815	778.141	606.931
415.526	22.771	777.346	606.106
416.540	22.928	777.315	606.567
417.555	22.788	776.446	605.356
418.569	22.479	776.023	603.911
419.584	22.266	775.535	602.749
420.599	22.510	775.217	603.284
421.613	158.602	1361.856	1798.647
422.628	136.933	1447.330	1798.737
