DTS Sentinel unit serial number:	SN413079Multiplexer serial number:	ORYXHardware model number:	OX4-SRSoftware version number:	ORYX F/W v4.00 Oryx Data Collector v3.7.2.0data status	okinstallation	princeton_trtdifferential loss correction	single-endedforward channel	channel 3reverse channel	N/Adate	2019/09/17time	12:52:35forward acquisition time	60.00reverse acquisition time	0.00gamma	496.2192k internal	0.2313k external	0.2313temperature offset calibration	0.9959default loss term (dB/km)	0.3790temperature slope calibration	1.0000multiplexer offset coefficient	1.0000multiplexer slope coefficient	1.0000fibre end	0.00T internal ref (°C)	32.94T ext. ref 1 (°C)	0.43T ext. ref 2 (°C)	31.22length (m)	temperature (°C)	Stokes	anti-Stokes-747.200	-137.093	0.118	-0.014
-746.185	-9.115	-0.186	0.126
-745.171	388.329	0.156	0.327
-744.156	800.000	-0.030	0.116
-743.142	-163.609	-0.240	-0.011
-742.127	193.030	-0.069	0.105
-741.112	-87.732	-0.049	0.015
-740.098	148.392	-0.165	0.226
-739.083	-97.839	-0.140	-0.037
-738.069	-134.800	-0.084	-0.010
-737.054	35.178	-0.077	-0.068
-736.039	184.369	-0.184	-0.276
-735.025	-188.526	0.336	0.004
-734.010	-200.000	-0.009	0.050
-732.996	193.270	-0.134	-0.205
-731.981	-134.525	0.329	-0.041
-730.966	122.242	0.082	-0.103
-729.952	87.907	0.063	0.071
-728.937	-200.000	0.038	-0.260
-727.923	63.884	-0.092	0.093
-726.908	-137.395	0.325	-0.037
-725.894	43.117	0.058	-0.054
-724.879	14.426	-0.175	-0.138
-723.864	139.160	0.285	-0.379
-722.850	261.397	-0.124	0.217
-721.835	-200.000	0.099	0.443
-720.821	216.213	-0.123	-0.198
-719.806	-200.000	-0.023	0.157
-718.791	-64.081	0.246	-0.102
-717.777	-37.608	-0.128	-0.069
-716.762	39.645	-0.157	-0.142
-715.748	346.379	0.052	0.104
-714.733	-46.498	0.271	0.135
-713.718	0.659	-0.116	0.084
-712.704	-200.000	-0.066	0.422
-711.689	12.980	0.330	-0.258
-710.675	-200.000	-0.048	-0.260
-709.660	-200.000	0.021	-0.232
-708.645	2.791	0.097	-0.071
-707.631	-22.795	0.206	0.126
-706.616	296.757	0.049	-0.091
-705.602	347.525	-0.066	0.133
-704.587	45.825	-0.116	-0.109
-703.572	31.342	0.128	-0.111
-702.558	-82.155	-0.185	-0.061
-701.543	-62.536	0.092	-0.038
-700.529	-200.000	-0.010	-0.313
-699.514	212.647	0.098	-0.157
-698.499	594.453	-0.160	-0.401
-697.485	467.060	-0.038	-0.087
-696.470	800.000	0.006	0.020
-695.456	-147.510	-0.265	0.023
-694.441	4.806	-0.352	-0.262
-693.426	-109.668	0.242	-0.052
-692.412	-118.888	0.237	0.042
-691.397	-2.803	-0.029	-0.020
-690.383	-130.626	-0.354	0.048
-689.368	-109.440	-0.226	-0.048
-688.354	800.000	0.094	-0.314
-687.339	763.991	0.134	-0.368
-686.324	264.635	-0.298	-0.525
-685.310	-64.938	-0.108	-0.044
-684.295	-200.000	-0.044	-0.265
-683.281	12.599	0.066	0.052
-682.266	-17.820	-0.052	0.033
-681.251	429.774	-0.078	-0.170
-680.237	-153.936	-0.246	0.017
-679.222	319.511	0.050	0.097
-678.208	-30.419	-0.038	0.022
-677.193	-3.274	-0.047	-0.033
-676.178	72.282	0.184	0.194
-675.164	440.563	-0.178	-0.394
-674.149	204.172	-0.139	-0.217
-673.135	71.633	-0.063	-0.066
-672.120	-200.000	-0.060	-0.304
-671.105	31.353	0.041	0.036
-670.091	249.282	-0.062	-0.107
-669.076	-79.656	-0.314	-0.107
-668.062	360.731	0.016	-0.033
-667.047	298.509	0.046	0.086
-666.032	-38.749	-0.307	0.164
-665.018	61.608	-0.208	-0.210
-664.003	64.577	0.035	-0.036
-662.989	226.633	0.225	0.369
-661.974	800.000	-0.052	0.206
-660.959	356.731	-0.077	-0.156
-659.945	-200.000	-0.006	0.032
-658.930	-89.143	0.175	-0.052
-657.916	-200.000	0.038	0.199
-656.901	251.093	0.164	-0.281
-655.886	-130.342	-0.238	-0.033
-654.872	62.869	-0.165	0.167
-653.857	800.000	-0.037	0.139
-652.843	-200.000	-0.004	-0.189
-651.828	-44.380	-0.378	-0.191
-650.814	-147.242	0.216	-0.019
-649.799	-148.598	0.393	0.032
-648.784	4.623	-0.153	0.114
-647.770	110.892	-0.255	-0.310
-646.755	-200.000	0.004	0.098
-645.741	800.000	-0.116	0.338
-644.726	288.343	0.081	-0.149
-643.711	-42.327	0.049	0.025
-642.697	800.000	0.125	-0.387
-641.682	-200.000	0.004	0.337
-640.668	800.000	-0.048	-0.141
-639.653	-36.417	0.179	0.097
-638.638	66.326	0.202	-0.208
-637.624	0.903	0.316	0.229
-636.609	-145.119	-0.040	-0.004
-635.595	800.000	-0.082	-0.342
-634.580	273.533	-0.126	-0.225
-633.565	109.908	0.084	-0.102
-632.551	148.995	0.129	0.176
-631.536	-130.736	-0.187	-0.025
-630.522	-200.000	-0.041	0.367
-629.507	-200.000	0.052	-0.240
-628.492	-89.294	0.286	0.085
-627.478	-9.262	-0.329	0.222
-626.463	-76.228	0.091	0.032
-625.449	85.608	-0.124	-0.137
-624.434	-21.550	0.287	-0.177
-623.419	-40.863	-0.029	-0.015
-622.405	617.827	-0.075	-0.190
-621.390	-200.000	0.007	-0.144
-620.376	50.139	-0.096	0.091
-619.361	800.000	-0.084	0.238
-618.346	-180.726	0.097	-0.002
-617.332	-129.707	-0.068	0.009
-616.317	560.628	0.136	-0.333
-615.303	-200.000	0.010	-0.081
-614.288	65.587	-0.120	-0.122
-613.273	800.000	-0.158	0.534
-612.259	207.362	0.096	0.151
-611.244	-164.283	-0.267	-0.012
-610.230	-144.107	-0.062	-0.006
-609.215	-76.077	-0.182	-0.065
-608.201	48.165	0.217	0.204
-607.186	75.013	0.294	-0.313
-606.171	-90.315	0.048	0.014
-605.157	-51.835	-0.253	0.119
-604.142	-146.065	0.264	0.024
-603.128	-11.490	-0.463	-0.307
-602.113	188.013	0.098	0.147
-601.098	-35.856	-0.178	0.097
-600.084	-114.825	-0.219	0.042
-599.069	-20.660	0.276	-0.171
-598.055	57.964	0.158	-0.155
-597.040	26.150	0.193	0.163
-596.025	-52.573	-0.375	0.175
-595.011	-200.000	0.018	-0.111
-593.996	-75.976	0.217	-0.077
-592.982	64.539	0.189	0.192
-591.967	-200.000	-0.007	0.371
-590.952	-200.000	-0.005	-0.199
-589.938	-200.000	-0.035	0.179
-588.923	369.712	-0.123	0.252
-587.909	660.368	-0.079	0.204
-586.894	-130.387	-0.157	0.021
-585.879	-16.918	0.031	-0.020
-584.865	70.733	-0.170	0.177
-583.850	-40.730	-0.081	-0.042
-582.836	710.920	-0.062	0.165
-581.821	-84.543	0.108	-0.034
-580.806	-200.000	0.013	0.209
-579.792	102.620	0.123	0.145
-578.777	36.487	0.302	0.269
-577.763	-200.000	-0.012	0.106
-576.748	-177.670	-0.737	-0.018
-575.733	-144.223	-0.234	-0.022
-574.719	-196.020	-0.284	0.002
-573.704	349.337	-0.073	0.145
-572.690	-20.181	0.059	0.037
-571.675	211.599	0.175	0.278
-570.661	800.000	0.059	0.248
-569.646	-200.000	0.019	0.241
-568.631	-142.832	-0.408	-0.040
-567.617	-8.823	-0.240	-0.162
-566.602	-95.643	0.157	-0.042
-565.588	-131.247	0.186	-0.025
-564.573	800.000	0.074	0.257
-563.558	368.399	0.129	0.264
-562.544	12.710	-0.122	0.095
-561.529	-145.218	0.230	-0.021
-560.515	47.426	0.208	0.195
-559.500	181.391	0.113	-0.167
-558.485	800.000	0.022	0.065
-557.471	-127.544	-0.037	0.005
-556.456	9.164	-0.150	-0.114
-555.442	-200.000	-0.033	-0.204
-554.427	-49.066	-0.156	-0.075
-553.412	612.688	-0.032	-0.082
-552.398	174.320	0.030	0.044
-551.383	-70.055	-0.141	-0.054
-550.369	-200.000	-0.045	0.225
-549.354	-19.774	-0.148	-0.092
-548.339	799.181	-0.079	-0.219
-547.325	-23.234	0.127	0.077
-546.310	-200.000	-0.076	-0.341
-545.296	-125.648	0.455	-0.069
-544.281	80.327	0.105	0.114
-543.266	68.049	-0.048	0.049
-542.252	-200.000	0.000	0.123
-541.237	-49.574	0.085	-0.041
-540.223	-93.368	0.084	0.023
-539.208	68.243	-0.183	-0.189
-538.193	-68.724	0.187	0.073
-537.179	271.200	0.056	0.100
-536.164	376.616	0.083	0.170
-535.150	-16.943	0.284	-0.181
-534.135	-60.653	0.123	0.052
-533.121	800.000	0.040	-0.133
-532.106	68.314	-0.133	-0.137
-531.091	711.537	0.023	0.062
-530.077	-4.752	0.139	0.096
-529.062	72.257	0.201	-0.211
-528.048	440.955	0.097	0.214
-527.033	-43.805	-0.307	-0.155
-526.018	800.000	0.015	-0.062
-525.004	479.697	0.076	0.172
-523.989	202.055	-0.061	0.095
-522.975	800.000	0.018	0.061
-521.960	79.969	-0.148	-0.159
-520.945	210.077	-0.333	-0.525
-519.931	297.412	-0.048	0.088
-518.916	800.000	0.086	0.364
-517.902	7.689	-0.147	-0.111
-516.887	307.912	-0.018	0.034
-515.872	-80.235	-0.249	-0.084
-514.858	47.638	0.051	-0.048
-513.843	594.305	-0.156	0.388
-512.829	272.904	0.104	-0.184
-511.814	-125.515	0.378	-0.058
-510.799	-34.452	0.396	0.218
-509.785	-200.000	0.036	0.216
-508.770	-16.003	-0.371	-0.237
-507.756	800.000	-0.088	0.320
-506.741	-42.739	0.330	-0.169
-505.726	-51.201	-0.074	-0.035
-504.712	-41.519	-0.155	0.080
-503.697	-83.822	-0.071	-0.023
-502.683	91.049	-0.164	0.185
-501.668	-45.770	-0.125	0.062
-500.653	798.365	-0.053	-0.147
-499.639	-31.089	-0.175	-0.099
-498.624	-118.599	0.420	-0.075
-497.610	38.833	0.137	0.123
-496.595	348.822	-0.117	0.232
-495.581	231.946	0.168	-0.278
-494.566	134.610	0.142	0.185
-493.551	-200.000	-0.042	-0.219
-492.537	161.624	0.017	-0.023
-491.522	704.879	-0.147	-0.390
-490.508	800.000	-0.027	0.098
-489.493	-7.369	0.135	-0.092
-488.478	-86.769	0.309	0.095
-487.464	-72.721	-0.059	-0.022
-486.449	101.289	0.100	-0.116
-485.435	-200.000	0.027	-0.299
-484.420	-27.284	0.230	-0.134
-483.405	390.014	-0.053	0.111
-482.391	800.000	-0.116	-0.389
-481.376	800.000	0.141	-0.469
-480.362	15.628	0.106	0.083
-479.347	81.144	-0.041	-0.045
-478.332	-12.902	-0.094	-0.062
-477.318	-58.315	-0.286	-0.125
-476.303	-200.000	-0.055	0.421
-475.289	168.663	-0.119	0.171
-474.274	-21.522	0.150	-0.092
-473.259	147.113	-0.195	0.263
-472.245	-11.643	0.071	-0.047
-471.230	-198.491	0.141	-0.001
-470.216	154.700	0.146	0.201
-469.201	18.778	-0.074	0.060
-468.186	-40.270	-0.358	-0.187
-467.172	456.365	0.117	0.261
-466.157	162.723	0.074	-0.105
-465.143	-200.000	-0.003	0.132
-464.128	-28.099	0.252	-0.146
-463.113	-200.000	0.000	0.071
-462.099	102.818	-0.028	0.033
-461.084	394.608	0.057	0.120
-460.070	24.654	0.202	0.168
-459.055	-200.000	-0.018	0.191
-458.040	-200.000	-0.018	0.194
-457.026	149.312	0.198	-0.269
-456.011	-90.886	-0.330	0.095
-454.997	-90.040	-0.471	0.138
-453.982	30.156	-0.327	0.280
-452.968	-14.030	-0.110	-0.071
-451.953	-61.443	0.255	-0.108
-450.938	-101.573	0.187	-0.046
-449.924	-1.275	0.098	0.070
-448.909	-34.795	-0.068	-0.037
-447.895	558.767	0.164	-0.396
-446.880	-128.963	0.370	-0.052
-445.865	-77.987	-0.335	-0.116
-444.851	-138.014	-0.167	-0.019
-443.836	40.488	-0.153	-0.138
-442.822	-113.399	0.525	0.103
-441.807	-130.935	-0.174	-0.023
-440.792	152.449	-0.077	0.106
-439.778	-166.982	0.020	-0.001
-438.763	800.000	0.053	0.192
-437.749	-179.968	0.462	0.010
-436.734	-200.000	-0.011	-0.358
-435.719	105.183	0.127	-0.150
-434.705	-115.824	0.354	0.066
-433.690	791.626	-0.069	-0.189
-432.676	176.574	-0.218	-0.318
-431.661	-200.000	-0.083	0.364
-430.646	-130.274	0.110	-0.015
-429.632	-200.000	-0.016	-0.258
-428.617	-200.000	0.028	-0.158
-427.603	42.919	-0.250	-0.228
-426.588	62.775	-0.098	-0.098
-425.573	-200.000	0.037	0.230
-424.559	271.768	-0.093	-0.164
-423.544	-16.698	-0.022	-0.014
-422.530	-200.000	0.003	0.435
-421.515	93.103	-0.049	-0.055
-420.500	581.899	-0.087	0.213
-419.486	-62.517	-0.105	0.044
-418.471	59.078	0.115	-0.113
-417.457	116.765	-0.239	0.294
-416.442	-32.346	-0.082	-0.046
-415.428	241.743	0.016	-0.026
-414.413	223.969	0.113	-0.182
-413.398	-200.000	-0.074	0.324
-412.384	-118.745	0.127	0.022
-411.369	-200.000	-0.016	0.131
-410.355	800.000	0.056	0.213
-409.340	-131.682	-0.210	-0.028
-408.325	-200.000	-0.011	0.331
-407.311	215.629	0.162	-0.257
-406.296	-200.000	-0.031	-0.220
-405.282	-74.679	0.258	-0.093
-404.267	-109.628	0.183	-0.039
-403.252	60.982	-0.266	-0.265
-402.238	-55.948	-0.029	0.013
-401.223	-165.277	0.069	-0.003
-400.209	18.032	0.164	-0.131
-399.194	-3.813	0.103	0.072
-398.179	-200.000	0.011	0.351
-397.165	251.472	0.165	0.281
-396.150	-200.000	0.007	0.052
-395.136	657.531	0.055	-0.142
-394.121	800.000	0.114	-0.462
-393.106	524.762	0.094	-0.221
-392.092	-200.000	-0.046	-0.347
-391.077	-200.000	-0.019	-0.158
-390.063	-200.000	-0.021	0.181
-389.048	-200.000	0.024	0.164
-388.033	227.997	-0.158	-0.258
-387.019	-200.000	-0.010	-0.047
-386.004	20.131	0.259	-0.209
-384.990	-200.000	-0.034	-0.584
-383.975	-170.518	-0.304	-0.011
-382.960	134.813	-0.103	0.134
-381.946	28.681	0.135	-0.114
-380.931	659.272	0.160	-0.412
-379.917	-48.217	-0.145	-0.070
-378.902	505.012	-0.126	-0.291
-377.888	-87.986	0.190	-0.057
-376.873	800.000	-0.024	0.105
-375.858	-200.000	0.051	0.307
-374.844	269.466	0.069	-0.121
-373.829	-126.347	0.106	0.016
-372.815	-200.000	0.051	0.238
-371.800	25.805	-0.168	0.140
-370.785	-143.134	-0.321	0.031
-369.771	-86.764	-0.219	-0.067
-368.756	9.964	-0.398	-0.302
-367.742	-200.000	0.072	0.322
-366.727	11.036	-0.332	0.254
-365.712	-99.650	0.246	-0.062
-364.698	800.000	0.022	0.073
-363.683	-200.000	-0.018	-0.230
-362.669	-200.000	0.024	0.124
-361.654	800.000	-0.014	-0.044
-360.639	-147.121	0.390	0.033
-359.625	481.161	-0.112	-0.253
-358.610	-156.128	-0.448	0.028
-357.596	-200.000	0.016	0.200
-356.581	585.060	-0.131	0.322
-355.566	-44.122	-0.369	0.185
-354.552	96.296	-0.170	0.195
-353.537	-200.000	-0.030	-0.161
-352.523	800.000	-0.075	0.237
-351.508	-24.933	-0.186	0.110
-350.493	105.351	0.163	0.192
-349.479	-111.743	0.212	0.043
-348.464	-200.000	-0.016	0.185
-347.450	376.036	0.059	0.121
-346.435	-79.016	0.131	0.044
-345.420	393.439	-0.148	-0.308
-344.406	-200.000	-0.037	0.241
-343.391	-130.171	-0.324	-0.044
-342.377	478.124	-0.124	0.279
-341.362	-200.000	-0.012	0.083
-340.348	-200.000	-0.020	-0.263
-339.333	291.652	0.031	0.056
-338.318	-127.734	0.121	0.017
-337.304	-93.887	-0.417	-0.115
-336.289	800.000	0.047	0.195
-335.275	800.000	-0.036	-0.130
-334.260	-200.000	0.020	-0.191
-333.245	-41.897	-0.154	0.079
-332.231	-44.601	0.394	0.197
-331.216	177.381	0.103	-0.150
-330.202	-200.000	0.024	-0.121
-329.187	445.491	-0.117	0.256
-328.172	-133.765	-0.246	-0.031
-327.158	214.572	-0.128	-0.203
-326.143	-200.000	0.009	0.191
-325.129	-73.366	-0.139	-0.051
-324.114	-200.000	-0.047	-0.243
-323.099	-75.137	-0.129	-0.046
-322.085	-54.950	-0.259	-0.117
-321.070	-200.000	0.019	-0.112
-320.056	153.455	0.080	0.109
-319.041	52.372	0.127	-0.121
-318.026	-72.524	0.144	-0.053
-317.012	-142.186	-0.031	0.003
-315.997	-38.554	0.085	0.045
-314.983	-59.090	-0.171	-0.074
-313.968	16.293	-0.055	0.043
-312.953	-43.323	0.142	0.072
-311.939	-81.497	-0.210	0.069
-310.924	36.640	-0.193	0.170
-309.910	-200.000	0.003	-0.135
-308.895	-200.000	0.040	-0.230
-307.880	-23.655	0.132	-0.079
-306.866	-74.313	0.155	0.056
-305.851	27.197	0.247	-0.207
-304.837	543.160	-0.051	0.121
-303.822	120.387	-0.191	-0.236
-302.807	-200.000	0.029	-0.259
-301.793	145.302	-0.156	-0.208
-300.778	-136.692	0.238	-0.027
-299.764	-165.493	-0.312	0.014
-298.749	-168.191	-0.128	-0.005
-297.735	-44.865	-0.181	0.090
-296.720	143.980	-0.112	0.149
-295.705	-116.404	0.361	0.067
-294.691	-112.402	0.319	-0.064
-293.676	0.699	-0.163	-0.116
-292.662	-25.713	0.167	-0.098
-291.647	-0.437	-0.109	0.077
-290.632	-100.087	0.196	0.049
-289.618	227.267	-0.148	-0.239
-288.603	61.519	-0.160	-0.159
-287.589	28.128	-0.091	0.076
-286.574	223.768	0.035	-0.057
-285.559	-200.000	0.022	-0.122
-284.545	60.309	-0.079	-0.078
-283.530	761.551	0.089	0.240
-282.516	-7.214	-0.250	-0.169
-281.501	-81.297	0.192	0.063
-280.486	-200.000	0.015	0.091
-279.472	-46.923	-0.200	-0.097
-278.457	308.609	0.075	0.139
-277.443	34.395	0.175	0.152
-276.428	-161.614	-0.054	-0.003
-275.413	-200.000	-0.023	-0.296
-274.399	279.468	0.186	0.330
-273.384	-14.051	-0.265	0.170
-272.370	800.000	-0.076	0.241
-271.355	96.187	0.137	-0.156
-270.340	-72.712	-0.041	-0.015
-269.326	21.136	0.244	-0.197
-268.311	-90.287	0.168	0.049
-267.297	-23.933	-0.122	-0.073
-266.282	216.501	0.229	-0.362
-265.267	110.659	-0.021	-0.026
-264.253	4.217	0.137	0.100
-263.238	26.547	0.252	-0.210
-262.224	244.337	0.103	-0.173
-261.209	341.261	-0.140	0.272
-260.195	-190.385	0.361	-0.004
-259.180	19.828	-0.128	-0.103
-258.165	-86.944	0.135	-0.041
-257.151	-60.390	-0.065	-0.027
-256.136	-200.000	0.001	-0.045
-255.122	116.001	-0.046	0.056
-254.107	218.252	0.053	-0.085
-253.092	-76.033	-0.379	0.133
-252.078	-59.971	0.330	0.140
-251.063	85.933	-0.159	0.174
-250.049	5.546	-0.048	-0.035
-249.034	-47.203	0.156	0.076
-248.019	-52.083	-0.179	-0.083
-247.005	-136.725	-0.195	0.022
-245.990	-21.293	0.330	0.200
-244.976	51.956	-0.276	0.261
-243.961	611.570	-0.214	0.531
-242.946	-75.381	-0.278	-0.098
-241.932	-138.074	-0.273	-0.030
-240.917	-111.496	0.324	0.065
-239.903	-165.442	0.363	0.016
-238.888	273.234	0.116	-0.204
-237.873	380.138	0.085	0.173
-236.859	643.997	-0.085	0.216
-235.844	800.000	0.054	0.190
-234.830	67.383	-0.036	-0.037
-233.815	-99.770	0.216	-0.054
-232.800	97.129	-0.060	-0.068
-231.786	-34.595	0.123	0.067
-230.771	-70.180	0.092	0.035
-229.757	491.316	0.166	0.378
-228.742	-125.059	0.610	-0.093
-227.727	45.919	-0.158	-0.145
-226.713	-178.174	-0.339	0.008
-225.698	-64.985	-0.334	-0.134
-224.684	-2.574	0.109	0.076
-223.669	-200.000	-0.012	-0.153
-222.655	-159.118	-0.104	-0.006
-221.640	129.443	0.167	0.212
-220.625	-48.641	0.208	-0.099
-219.611	39.830	0.043	0.038
-218.596	-37.998	0.206	-0.109
-217.582	418.983	0.082	0.173
-216.567	-135.142	0.275	-0.033
-215.552	-146.840	-0.274	-0.023
-214.538	800.000	-0.125	-0.394
-213.523	-48.629	0.138	-0.066
-212.509	99.003	-0.093	0.107
-211.494	-70.282	0.173	0.065
-210.479	276.976	-0.133	-0.234
-209.465	26.871	0.156	-0.130
-208.450	800.000	0.033	-0.107
-207.436	348.819	-0.033	-0.064
-206.421	-200.000	-0.004	0.212
-205.406	4.645	0.158	-0.115
-204.392	-200.000	-0.034	0.291
-203.377	301.911	-0.079	-0.146
-202.363	105.496	-0.201	0.236
-201.348	236.152	0.127	0.209
-200.333	225.381	0.214	0.344
-199.319	-63.373	-0.110	0.045
-198.304	257.938	0.155	0.265
-197.290	143.354	-0.176	-0.232
-196.275	-22.723	-0.425	-0.255
-195.260	88.798	-0.174	-0.192
-194.246	207.631	-0.194	-0.301
-193.231	-91.341	0.265	-0.075
-192.217	-200.000	-0.011	0.090
-191.202	323.526	0.183	-0.347
-190.187	-3.654	-0.057	-0.039
-189.173	179.775	0.083	-0.120
-188.158	-200.000	-0.003	-0.279
-187.144	-116.786	0.209	0.038
-186.129	-200.000	0.022	0.180
-185.114	116.795	0.211	-0.258
-184.100	-87.170	0.280	-0.084
-183.085	95.697	-0.079	-0.089
-182.071	-140.332	0.170	-0.018
-181.056	10.559	0.184	-0.139
-180.042	800.000	0.079	0.235
-179.027	97.014	0.054	0.061
-178.012	455.092	0.085	-0.186
-176.998	117.136	-0.057	0.069
-175.983	-200.000	0.008	0.391
-174.969	-200.000	0.007	0.040
-173.954	-162.444	-0.198	-0.010
-172.939	118.675	0.058	-0.071
-171.925	202.885	-0.035	-0.054
-170.910	-118.069	-0.185	-0.033
-169.896	-200.000	0.006	-0.111
-168.881	-200.000	-0.004	0.240
-167.866	484.106	0.087	-0.196
-166.852	-106.287	0.128	0.028
-165.837	-83.337	-0.118	0.038
-164.823	33.337	0.315	-0.271
-163.808	58.263	-0.071	0.069
-162.793	-200.000	0.009	0.113
-161.779	133.239	-0.184	0.236
-160.764	-200.000	0.027	-0.205
-159.750	-71.870	-0.301	0.111
-158.735	198.739	-0.095	-0.144
-157.720	-71.451	0.111	0.041
-156.706	-34.678	0.109	-0.059
-155.691	104.931	-0.051	0.060
-154.677	-79.886	-0.124	0.041
-153.662	108.863	-0.093	-0.110
-152.647	-32.161	-0.077	0.043
-151.633	731.188	0.037	0.097
-150.618	-34.489	-0.170	0.092
-149.604	800.000	0.055	0.156
-148.589	-25.675	-0.319	-0.186
-147.574	104.132	-0.027	-0.031
-146.560	-100.627	0.278	0.068
-145.545	-116.116	0.134	0.025
-144.531	381.405	-0.036	0.073
-143.516	11.119	-0.089	0.067
-142.502	-28.207	0.147	0.084
-141.487	-200.000	0.046	-0.247
-140.472	109.197	0.071	0.084
-139.458	-109.784	-0.188	0.039
-138.443	-100.657	-0.065	0.016
-137.429	-37.301	0.081	-0.043
-136.414	-69.707	-0.187	-0.071
-135.399	800.000	0.113	0.334
-134.385	121.286	-0.118	0.145
-133.370	-200.000	0.021	0.139
-132.356	138.243	-0.141	0.183
-131.341	165.645	0.262	0.367
-130.326	618.055	-0.030	0.075
-129.312	-120.648	-0.308	0.052
-128.297	-95.441	0.070	-0.019
-127.283	-76.765	0.265	-0.092
-126.268	-200.000	0.021	-0.158
-125.253	17.342	-0.162	0.128
-124.239	-35.496	-0.194	0.104
-123.224	696.153	0.061	-0.158
-122.210	-200.000	0.035	0.239
-121.195	-191.500	0.246	-0.002
-120.180	-106.756	-0.213	-0.047
-119.166	-113.221	-0.185	0.036
-118.151	41.474	0.059	-0.053
-117.137	-200.000	0.018	0.161
-116.122	-200.000	0.088	0.447
-115.107	284.211	0.195	-0.347
-114.093	-25.950	-0.085	-0.050
-113.078	800.000	-0.003	-0.010
-112.064	605.268	-0.039	0.095
-111.049	-200.000	0.092	-0.501
-110.034	558.607	-0.087	-0.209
-109.020	-145.037	0.179	0.016
-108.005	34.744	0.125	-0.108
-106.991	-40.864	-0.044	0.023
-105.976	-157.079	0.419	-0.025
-104.962	208.212	0.163	0.252
-103.947	-94.861	0.179	-0.048
-102.932	-138.942	-0.176	0.019
-101.918	677.885	-0.058	0.150
-100.903	-11.649	-0.382	-0.248
-99.889	131.704	-0.091	-0.115
-98.874	-73.301	-0.168	0.061
-97.859	48.740	0.229	0.213
-96.845	-75.266	-0.213	-0.075
-95.830	-43.898	0.217	0.108
-94.816	780.647	0.060	0.163
-93.801	-60.340	0.327	-0.137
-92.786	-52.535	-0.380	0.174
-91.772	-111.597	0.388	0.078
-90.757	674.916	0.045	-0.116
-89.743	-200.000	0.010	0.091
-88.728	394.760	0.079	0.164
-87.713	38.008	-0.250	-0.220
-86.699	38.683	-0.144	0.127
-85.684	69.808	0.131	0.133
-84.670	-101.212	0.204	-0.049
-83.655	417.669	-0.096	-0.203
-82.640	207.724	-0.163	0.251
-81.626	-200.000	0.020	0.127
-80.611	207.323	0.152	0.234
-79.597	800.000	-0.040	0.133
-78.582	471.634	0.112	0.250
-77.567	-90.038	-0.229	-0.066
-76.553	-200.000	-0.028	-0.293
-75.538	-200.000	0.009	-0.095
-74.524	11.463	0.300	0.227
-73.509	-142.618	0.021	-0.002
-72.494	-94.020	-0.229	0.062
-71.480	313.412	0.096	-0.178
-70.465	-107.355	0.065	-0.014
-69.451	-45.754	0.188	-0.092
-68.436	800.000	-0.046	-0.125
-67.422	529.438	-0.036	-0.083
-66.407	800.000	-0.044	0.182
-65.392	100.775	0.223	0.256
-64.378	-200.000	-0.042	0.476
-63.363	-31.052	0.276	-0.154
-62.349	121.533	0.246	0.303
-61.334	52.155	-0.836	-0.787
-60.319	148.479	0.340	0.453
-59.305	-200.000	-0.154	-1.308
-58.290	675.052	0.335	0.860
-57.276	800.000	0.516	1.712
-56.261	-200.000	95.981	566.446
-55.246	507.311	1432.973	3282.080
-54.232	147.201	2634.149	3499.300
-53.217	109.515	2221.256	2626.830
-52.203	43.282	1746.525	1574.386
-51.188	36.154	1555.936	1352.751
-50.173	33.735	1529.263	1312.799
-49.159	52.023	1578.024	1483.565
-48.144	54.374	1597.266	1518.134
-47.130	36.412	1555.049	1353.573
-46.115	33.210	1539.643	1317.840
-45.100	33.017	1536.341	1313.622
-44.086	33.074	1534.133	1312.076
-43.071	32.898	1532.510	1309.419
-42.057	32.824	1530.959	1307.529
-41.042	32.935	1529.410	1306.922
-40.027	32.988	1527.672	1305.749
-39.013	32.889	1526.407	1303.937
-37.998	32.996	1525.486	1303.831
-36.984	32.952	1524.649	1302.761
-35.969	32.953	1523.297	1301.566
-34.954	33.008	1520.872	1299.818
-33.940	32.978	1519.709	1298.565
-32.925	32.957	1518.302	1297.170
-31.911	33.011	1517.066	1296.432
-30.896	32.932	1515.917	1294.855
-29.881	32.890	1514.738	1293.507
-28.867	33.025	1512.762	1292.695
-27.852	32.983	1511.714	1291.461
-26.838	33.041	1510.124	1290.445
-25.823	33.079	1508.568	1289.328
-24.809	33.015	1506.680	1287.228
-23.794	33.023	1504.973	1285.771
-22.779	32.865	1504.157	1283.944
-21.765	32.942	1502.686	1283.162
-20.750	32.947	1502.240	1282.764
-19.736	32.899	1501.376	1281.652
-18.721	32.920	1500.110	1280.659
-17.706	32.924	1498.892	1279.595
-16.692	32.882	1497.854	1278.375
-15.677	32.923	1496.583	1277.518
-14.663	33.001	1495.482	1277.056
-13.648	32.814	1494.994	1275.322
-12.633	32.903	1494.025	1275.048
-11.619	32.888	1493.201	1274.191
-10.604	32.870	1492.373	1273.312
-9.590	32.889	1491.006	1272.225
-8.575	32.915	1490.840	1272.211
-7.560	32.866	1490.105	1271.201
-6.546	32.973	1488.467	1270.474
-5.531	32.951	1487.936	1269.825
-4.517	32.906	1486.819	1268.517
-3.502	32.754	1485.918	1266.676
-2.487	32.826	1484.784	1266.141
-1.473	32.934	1483.263	1265.517
-0.458	32.947	1482.186	1264.634
0.556	31.813	1473.606	1256.821
1.571	29.440	1448.241	1219.413
2.586	26.324	1386.373	1147.471
3.600	24.431	1301.878	1066.147
4.615	22.481	1255.700	1016.992
5.629	19.341	1197.115	952.145
6.644	9.845	1108.450	832.765
7.659	1.914	1064.612	760.327
8.673	0.672	1058.455	749.705
9.688	0.357	1056.074	746.392
10.702	0.284	1054.488	744.846
11.717	0.397	1052.479	743.916
12.731	3.328	1055.333	760.349
13.746	11.988	1067.965	812.486
14.761	17.859	1074.697	846.751
15.775	17.710	1073.584	845.056
16.790	16.737	1071.436	838.480
17.804	15.695	1069.033	831.372
18.819	14.822	1067.002	825.410
19.834	14.499	1065.413	822.517
20.848	14.189	1064.408	820.140
21.863	13.730	1064.668	818.004
22.877	13.489	1063.514	815.859
23.892	13.386	1062.274	814.327
24.907	13.380	1061.248	813.438
25.921	13.222	1061.158	812.520
26.936	13.240	1060.597	812.109
27.950	13.295	1059.660	811.590
28.965	13.308	1059.053	811.114
29.980	13.407	1057.709	810.502
30.994	13.562	1056.849	810.525
32.009	13.530	1055.811	809.504
33.023	13.442	1055.797	808.991
34.038	13.461	1054.635	808.120
35.053	13.504	1053.789	807.612
36.067	13.615	1052.075	806.764
37.082	13.287	1052.129	805.140
38.096	13.396	1050.767	804.554
39.111	13.583	1050.112	804.894
40.126	13.450	1049.318	803.565
41.140	13.436	1047.895	802.339
42.155	13.403	1047.003	801.426
43.169	13.320	1046.515	800.577
44.184	13.335	1045.164	799.547
45.199	13.371	1044.000	798.758
46.213	13.295	1042.892	797.472
47.228	13.423	1041.732	797.134
48.242	13.402	1040.915	796.335
49.257	13.314	1040.446	795.486
50.271	13.467	1039.214	795.208
51.286	13.510	1038.402	794.719
52.301	13.448	1037.920	793.986
53.315	13.494	1037.051	793.470
54.330	13.398	1035.909	792.068
55.344	13.268	1035.343	790.942
56.359	13.344	1034.034	790.233
57.374	13.429	1033.021	789.795
58.388	13.224	1032.426	788.296
59.403	13.213	1031.895	787.767
60.417	13.185	1030.919	786.817
61.432	13.361	1030.028	786.907
62.447	13.206	1029.355	785.583
63.461	13.239	1028.449	784.979
64.476	13.135	1027.362	783.588
65.490	13.184	1026.481	783.080
66.505	13.127	1026.075	782.432
67.520	13.337	1024.791	782.373
68.534	13.206	1024.354	781.354
69.549	13.331	1023.338	781.100
70.563	13.204	1023.115	780.261
71.578	13.206	1022.146	779.464
72.593	13.189	1021.158	778.561
73.607	13.280	1019.902	777.961
74.622	13.170	1019.406	776.996
75.636	13.059	1018.582	775.777
76.651	13.125	1017.710	775.358
77.666	13.251	1016.920	775.275
78.680	13.210	1015.932	774.264
79.695	13.233	1015.587	774.039
80.709	13.200	1014.922	773.307
81.724	13.101	1014.636	772.558
82.739	13.325	1013.140	772.399
83.753	13.366	1012.332	771.903
84.768	13.326	1011.656	771.135
85.782	13.438	1010.825	770.957
86.797	13.388	1010.428	770.352
87.812	13.376	1009.181	769.276
88.826	13.453	1008.580	769.108
89.841	13.426	1008.052	768.514
90.855	13.478	1006.696	767.652
91.870	13.382	1006.403	766.913
92.884	13.445	1006.037	766.858
93.899	13.438	1004.964	765.942
94.914	13.466	1003.878	765.174
95.928	13.430	1003.744	764.840
96.943	13.554	1002.667	764.524
97.957	13.577	1001.654	763.789
98.972	13.439	1000.955	762.552
99.987	13.494	1000.000	762.011
101.001	13.457	999.333	761.266
102.016	13.470	998.779	760.837
103.030	13.482	997.675	759.980
104.045	13.427	996.313	758.628
105.060	13.539	995.765	758.654
106.074	13.504	994.440	757.419
107.089	13.455	993.882	756.700
108.103	13.296	993.314	755.475
109.118	13.209	992.350	754.279
110.133	13.320	991.272	753.900
111.147	13.401	990.123	753.326
112.162	13.343	989.559	752.565
113.176	13.308	988.625	751.633
114.191	13.345	987.804	751.109
115.206	13.313	987.135	750.388
116.220	13.370	985.928	749.662
117.235	13.471	984.982	749.336
118.249	13.319	984.350	748.099
119.264	13.344	983.467	747.477
120.279	13.303	982.903	746.797
121.293	13.367	981.963	746.303
122.308	13.409	981.213	745.856
123.322	13.301	980.424	744.704
124.337	13.315	979.505	744.004
125.352	13.290	978.312	742.920
126.366	13.325	977.002	742.018
127.381	13.309	976.348	741.381
128.395	13.303	975.264	740.468
129.410	13.358	974.244	739.875
130.424	13.427	973.029	739.192
131.439	13.208	972.613	737.832
132.454	13.284	971.921	737.584
133.468	13.337	971.366	737.330
134.483	13.419	970.449	736.934
135.497	13.345	969.801	736.050
136.512	13.344	968.955	735.340
137.527	13.374	967.896	734.601
138.541	13.477	967.257	734.511
139.556	13.397	966.365	733.411
140.570	13.365	965.801	732.776
141.585	13.468	964.670	732.308
142.600	13.597	964.154	732.423
143.614	13.509	963.295	731.318
144.629	13.501	962.737	730.794
145.643	13.578	961.737	730.310
146.658	13.662	961.118	730.147
147.673	13.546	960.286	728.939
148.687	13.425	959.404	727.674
149.702	13.511	957.962	726.891
150.716	13.558	957.394	726.602
151.731	13.289	956.979	725.043
152.746	13.409	956.059	724.808
153.760	13.443	955.489	724.461
154.775	13.481	954.556	723.857
155.789	13.598	953.336	723.377
156.804	13.576	952.972	722.940
157.819	13.472	952.117	721.774
158.833	13.519	951.805	721.679
159.848	13.532	951.074	721.120
160.862	13.705	950.242	721.177
161.877	13.563	949.816	720.171
162.892	13.570	948.663	719.267
163.906	13.565	947.974	718.656
164.921	13.619	947.100	718.163
165.935	13.673	945.496	717.120
166.950	13.664	944.953	716.605
167.964	13.556	944.262	715.552
168.979	13.743	943.007	715.341
169.994	13.617	942.592	714.423
171.008	13.697	941.412	713.808
172.023	13.668	940.539	712.958
173.037	13.687	940.122	712.662
174.052	13.665	938.907	711.582
175.067	13.619	938.526	711.031
176.081	13.670	937.798	710.636
177.096	13.755	936.504	709.956
178.110	13.780	935.784	709.457
179.125	13.699	935.903	709.139
180.140	13.691	934.514	707.987
181.154	13.850	933.922	708.156
182.169	13.730	933.152	706.998
183.183	13.774	932.785	706.842
184.198	14.007	931.690	706.941
185.213	13.937	931.143	706.169
186.227	13.775	930.602	705.006
187.242	13.880	930.294	705.155
188.256	14.007	929.516	705.043
189.271	13.894	928.537	703.758
190.286	14.082	927.519	703.723
191.300	13.925	926.852	702.487
192.315	13.720	926.370	701.194
193.329	13.736	925.566	700.590
194.344	13.763	925.164	700.338
195.359	13.755	924.296	699.586
196.373	13.849	923.699	699.469
197.388	13.917	923.400	699.467
198.402	13.937	923.023	699.205
199.417	13.940	922.706	698.917
200.432	14.057	922.047	698.848
201.446	14.166	921.236	698.625
202.461	14.066	921.341	698.223
203.475	14.096	920.684	697.791
204.490	14.170	919.327	697.009
205.504	14.023	918.831	695.960
206.519	14.100	918.213	695.751
207.534	14.176	917.568	695.519
208.548	14.022	916.674	694.136
209.563	14.192	916.114	694.358
210.577	14.245	915.199	693.824
211.592	14.181	914.608	693.049
212.607	14.196	914.211	692.750
213.621	14.422	913.618	693.177
214.636	14.255	912.817	691.816
215.650	14.200	912.311	691.144
216.665	14.274	911.647	690.887
217.680	14.370	911.112	690.816
218.694	14.272	910.786	690.104
219.709	14.473	909.668	690.027
220.723	14.259	909.494	688.949
221.738	14.356	908.478	688.520
222.753	14.507	907.518	688.354
223.767	14.136	907.599	686.823
224.782	14.568	906.119	687.423
225.796	14.373	905.753	686.282
226.811	14.380	904.785	685.514
227.826	14.306	904.481	684.920
228.840	14.397	903.484	684.480
229.855	14.413	903.021	684.133
230.869	14.451	902.174	683.585
231.884	14.342	901.890	682.863
232.899	14.394	901.009	682.348
233.913	14.511	899.827	681.871
234.928	14.457	899.506	681.348
235.942	14.393	898.873	680.548
236.957	14.479	897.936	680.126
237.972	14.546	897.063	679.678
238.986	14.397	896.789	678.805
240.001	14.433	895.976	678.273
241.015	14.483	895.124	677.773
242.030	14.491	894.327	677.142
243.045	14.526	894.047	677.014
244.059	14.557	893.244	676.471
245.074	14.578	892.567	675.983
246.088	14.637	892.225	675.903
247.103	14.720	891.444	675.588
248.117	14.628	891.062	674.867
249.132	14.790	890.286	674.874
250.147	14.707	889.866	674.162
251.161	14.936	889.005	674.373
252.176	14.832	888.597	673.584
253.190	14.891	887.779	673.140
254.205	14.902	887.075	672.592
255.220	14.998	886.858	672.753
256.234	14.974	885.825	671.815
257.249	14.886	885.683	671.296
258.263	14.977	884.936	671.034
259.278	14.952	884.126	670.261
260.293	14.867	884.145	669.876
261.307	14.956	883.499	669.681
262.322	15.096	882.748	669.612
263.336	15.140	882.083	669.226
264.351	15.129	881.467	668.654
265.366	15.079	881.076	668.098
266.380	15.123	880.091	667.471
267.395	15.051	879.464	666.646
268.409	15.208	878.217	666.269
269.424	15.109	877.966	665.626
270.439	15.084	877.381	665.023
271.453	15.233	876.218	664.676
272.468	15.268	875.506	664.216
273.482	15.174	875.427	663.723
274.497	15.155	875.046	663.299
275.512	15.157	874.330	662.706
276.526	15.171	873.236	661.874
277.541	15.212	872.710	661.580
278.555	15.083	872.335	660.726
279.570	15.252	871.475	660.681
280.585	15.257	871.048	660.320
281.599	15.358	870.308	660.096
282.614	15.235	870.034	659.346
283.628	15.300	869.373	659.047
284.643	15.226	868.913	658.348
285.657	15.315	867.955	657.914
286.672	15.387	867.755	657.983
287.687	15.248	867.295	657.034
288.701	15.431	866.430	657.035
289.716	15.375	866.152	656.548
290.730	15.304	865.734	655.897
291.745	15.337	865.215	655.572
292.760	15.491	864.225	655.367
293.774	15.521	863.406	654.803
294.789	15.476	863.335	654.515
295.803	15.622	861.915	653.949
296.818	15.520	862.074	653.617
297.833	15.560	861.135	653.003
298.847	15.618	860.230	652.481
299.862	15.585	859.507	651.750
300.876	15.565	858.866	651.127
301.891	15.656	858.050	650.802
302.906	15.623	857.709	650.360
303.920	15.651	857.007	649.877
304.935	15.652	856.668	649.566
305.949	15.737	855.971	649.308
306.964	15.899	854.836	649.016
307.979	15.873	854.215	648.386
308.993	15.745	854.049	647.710
310.008	15.885	853.349	647.660
311.022	15.856	852.989	647.218
312.037	15.897	852.497	646.945
313.052	15.843	851.947	646.262
314.066	15.736	851.153	645.196
315.081	15.835	850.481	645.007
316.095	15.762	849.948	644.267
317.110	15.710	849.658	643.792
318.125	15.820	848.784	643.491
319.139	15.723	848.861	643.123
320.154	15.846	847.877	642.789
321.168	15.863	847.355	642.403
322.183	15.945	846.789	642.227
323.197	15.858	845.980	641.228
324.212	15.968	845.867	641.505
325.227	15.775	845.657	640.553
326.241	15.695	845.011	639.703
327.256	15.931	844.226	639.948
328.270	15.905	843.660	639.364
329.285	15.924	842.933	638.828
330.300	15.802	842.884	638.271
331.314	15.888	841.992	637.864
332.329	15.929	841.192	637.357
333.343	16.064	840.481	637.272
334.358	16.075	839.876	636.800
335.373	16.133	839.442	636.635
336.387	16.089	838.730	635.871
337.402	16.027	838.322	635.273
338.416	16.036	837.830	634.878
339.431	16.133	837.351	634.823
340.446	16.232	836.573	634.549
341.460	16.218	836.015	634.018
342.475	16.289	835.440	633.790
343.489	16.314	835.035	633.523
344.504	16.147	834.847	632.696
345.519	16.435	833.793	632.920
346.533	16.531	833.160	632.743
347.548	16.445	832.998	632.244
348.562	16.365	832.461	631.479
349.577	16.334	832.036	630.986
350.592	16.262	831.691	630.398
351.606	16.216	831.193	629.794
352.621	16.299	830.506	629.528
353.635	16.073	830.633	628.726
354.650	16.201	829.637	628.392
355.665	16.238	829.085	628.059
356.679	16.327	829.313	628.507
357.694	16.417	828.464	628.140
358.708	16.358	827.673	627.267
359.723	16.342	827.822	627.266
360.738	16.453	826.529	626.642
361.752	16.502	825.835	626.241
362.767	16.488	825.563	625.925
363.781	16.560	825.059	625.756
364.796	16.597	824.841	625.672
365.810	16.618	824.468	625.410
366.825	16.628	823.758	624.854
367.840	16.713	823.148	624.651
368.854	16.824	822.883	624.802
369.869	16.673	822.437	623.854
370.883	16.539	822.074	623.030
371.898	16.729	821.350	623.125
372.913	16.789	820.791	622.864
373.927	16.772	820.378	622.434
374.942	16.754	819.909	621.958
375.956	16.713	819.187	621.206
376.971	16.845	818.635	621.214
377.986	16.969	817.761	620.952
379.000	16.831	817.389	620.109
380.015	16.855	817.096	619.919
381.029	16.901	816.486	619.570
382.044	16.918	815.692	618.972
383.059	16.910	815.088	618.431
384.073	17.031	814.484	618.358
385.088	16.994	814.133	617.905
386.102	16.987	813.547	617.379
387.117	17.026	812.730	616.844
388.132	16.832	812.909	616.221
389.146	16.815	812.781	616.008
390.161	16.816	812.004	615.369
391.175	17.027	811.313	615.555
392.190	17.074	811.251	615.624
393.205	17.107	810.623	615.212
394.219	17.055	810.235	614.678
395.234	17.033	809.616	614.071
396.248	16.888	809.103	613.104
397.263	16.976	808.613	612.998
398.278	16.891	808.204	612.324
399.292	17.007	807.686	612.297
400.307	16.885	807.561	611.709
401.321	17.015	806.901	611.624
402.336	16.848	806.926	610.986
403.350	16.969	806.480	611.029
404.365	17.075	805.957	610.963
405.380	17.144	805.605	610.891
406.394	17.246	804.981	610.730
407.409	17.313	804.537	610.579
408.423	17.246	804.041	609.908
409.438	17.280	803.488	609.555
410.453	17.280	802.912	609.066
411.467	17.448	802.335	609.174
412.482	17.291	802.012	608.311
413.496	17.424	801.370	608.246
414.511	17.449	801.176	608.137
415.526	17.455	800.812	607.828
416.540	17.349	800.777	607.368
417.555	17.432	800.300	607.249
418.569	17.376	799.659	606.510
419.584	17.504	798.916	606.349
420.599	17.584	798.724	606.435
421.613	105.550	1285.939	1451.268
422.628	90.680	1356.928	1451.402
