DTS Sentinel unit serial number:	SN413079Multiplexer serial number:	ORYXHardware model number:	OX4-SRSoftware version number:	ORYX F/W v4.00 Oryx Data Collector v3.7.2.0data status	okinstallation	princeton_trtdifferential loss correction	single-endedforward channel	channel 3reverse channel	N/Adate	2019/09/12time	04:34:11forward acquisition time	60.00reverse acquisition time	0.00gamma	496.2192k internal	0.2324k external	0.2324temperature offset calibration	1.0105default loss term (dB/km)	0.3790temperature slope calibration	1.0000multiplexer offset coefficient	1.0000multiplexer slope coefficient	1.0000fibre end	0.00T internal ref (°C)	31.61T ext. ref 1 (°C)	2.67T ext. ref 2 (°C)	26.77length (m)	temperature (°C)	Stokes	anti-Stokes-747.200	-41.537	-0.236	-0.123
-746.185	146.108	0.080	0.108
-745.171	36.285	0.147	-0.130
-744.156	800.000	-0.096	0.386
-743.142	-95.405	-0.098	0.026
-742.127	-51.696	-0.306	0.144
-741.112	335.962	0.040	-0.078
-740.098	-200.000	0.006	0.629
-739.083	-200.000	-0.022	-0.139
-738.069	-94.586	-0.085	0.023
-737.054	-200.000	-0.102	0.461
-736.039	800.000	0.070	0.230
-735.025	31.219	0.233	0.202
-734.010	-17.925	-0.239	-0.151
-732.996	-80.418	0.136	0.046
-731.981	-132.017	0.006	-0.001
-730.966	231.628	-0.044	-0.073
-729.952	800.000	0.052	-0.168
-728.937	211.264	0.147	-0.234
-727.923	-82.440	-0.209	-0.069
-726.908	139.949	-0.132	0.176
-725.894	303.205	-0.054	0.102
-724.879	-16.425	0.078	-0.050
-723.864	325.550	-0.179	0.345
-722.850	30.823	0.094	0.082
-721.835	-200.000	-0.042	-0.229
-720.821	419.609	-0.161	-0.347
-719.806	-37.718	-0.133	0.071
-718.791	155.551	-0.127	-0.177
-717.777	33.187	0.154	0.135
-716.762	115.645	-0.187	-0.231
-715.748	-200.000	-0.062	0.494
-714.733	-200.000	-0.057	0.384
-713.718	800.000	-0.123	0.377
-712.704	-65.690	0.275	-0.111
-711.689	125.742	0.060	-0.076
-710.675	-200.000	0.029	-0.293
-709.660	-87.854	-0.093	-0.028
-708.645	-36.244	-0.084	0.046
-707.631	524.372	0.054	0.128
-706.616	208.740	0.148	0.234
-705.602	-200.000	-0.070	0.370
-704.587	34.108	0.239	-0.210
-703.572	-145.883	-0.183	0.016
-702.558	53.914	-0.119	-0.115
-701.543	432.760	0.149	-0.326
-700.529	-156.441	0.194	-0.012
-699.514	132.547	-0.135	-0.176
-698.499	252.331	0.100	-0.172
-697.485	-30.595	-0.132	0.076
-696.470	-17.657	-0.191	-0.121
-695.456	-79.034	-0.247	-0.085
-694.441	-8.840	0.357	-0.241
-693.426	736.859	-0.081	-0.220
-692.412	-67.723	-0.254	0.100
-691.397	-164.092	-0.093	0.004
-690.383	429.061	-0.135	-0.293
-689.368	132.328	0.105	0.137
-688.354	-143.541	-0.196	0.019
-687.339	149.170	0.275	-0.375
-686.324	-200.000	-0.081	-0.370
-685.310	22.440	-0.187	0.154
-684.295	-71.135	-0.198	0.075
-683.281	-118.398	0.214	0.038
-682.266	149.740	0.269	-0.367
-681.251	-84.069	0.164	0.053
-680.237	-200.000	0.002	0.027
-679.222	-104.806	-0.248	-0.058
-678.208	731.894	0.037	0.099
-677.193	800.000	0.132	0.404
-676.178	-200.000	0.022	-0.173
-675.164	143.260	-0.226	-0.303
-674.149	-35.320	0.225	-0.123
-673.135	800.000	0.057	-0.163
-672.120	37.831	-0.160	-0.143
-671.105	35.823	-0.123	-0.109
-670.091	164.972	0.184	-0.261
-669.076	-111.699	0.360	0.073
-668.062	800.000	-0.137	-0.415
-667.047	-122.404	0.058	-0.009
-666.032	-102.176	-0.099	0.024
-665.018	76.411	-0.129	-0.137
-664.003	-159.033	-0.149	-0.009
-662.989	202.770	0.078	-0.122
-661.974	-200.000	0.042	0.248
-660.959	-95.668	0.091	-0.025
-659.945	-157.592	0.196	-0.012
-658.930	-200.000	0.081	-0.411
-657.916	-131.936	0.325	-0.043
-656.901	-65.917	0.355	0.143
-655.886	61.362	-0.136	0.136
-654.872	-200.000	0.002	0.222
-653.857	-133.860	-0.250	-0.031
-652.843	-61.983	-0.257	-0.108
-651.828	-53.482	0.192	-0.088
-650.814	800.000	0.058	-0.191
-649.799	-10.844	-0.245	0.163
-648.784	342.954	-0.088	0.174
-647.770	73.899	-0.208	-0.220
-646.755	-200.000	0.020	-0.125
-645.741	175.665	-0.054	-0.079
-644.726	-99.700	0.111	-0.028
-643.711	92.418	-0.104	0.118
-642.697	-200.000	-0.020	-0.167
-641.682	-200.000	0.040	-0.297
-640.668	84.422	0.148	0.163
-639.653	44.931	0.251	-0.232
-638.638	800.000	0.052	0.226
-637.624	-64.185	-0.060	0.024
-636.609	154.728	-0.067	0.092
-635.595	55.992	-0.048	0.047
-634.580	88.990	-0.137	-0.153
-633.565	100.105	0.132	-0.154
-632.551	-200.000	-0.057	-0.370
-631.536	114.881	0.074	-0.090
-630.522	-104.432	-0.175	-0.041
-629.507	152.612	-0.187	0.257
-628.492	-108.497	-0.233	-0.050
-627.478	-43.682	-0.104	-0.053
-626.463	46.919	0.073	0.068
-625.449	800.000	-0.077	0.278
-624.434	41.218	-0.080	-0.073
-623.419	-200.000	-0.008	0.164
-622.405	-78.601	-0.078	-0.027
-621.390	463.156	-0.107	0.241
-620.376	121.094	0.074	-0.092
-619.361	-165.670	-0.142	0.006
-618.346	-200.000	0.002	0.254
-617.332	-9.154	0.118	0.079
-616.317	-35.643	-0.393	-0.214
-615.303	-200.000	0.021	0.296
-614.288	-123.767	-0.197	0.031
-613.273	-200.000	-0.047	0.282
-612.259	25.544	-0.046	0.038
-611.244	-200.000	0.021	0.185
-610.230	146.843	0.041	0.056
-609.215	18.715	-0.141	-0.114
-608.201	-200.000	-0.027	0.178
-607.186	-50.670	-0.154	0.073
-606.171	-124.085	0.129	0.020
-605.157	-200.000	-0.022	0.286
-604.142	18.395	-0.207	-0.166
-603.128	19.753	-0.194	-0.157
-602.113	-200.000	0.028	-0.246
-601.098	-9.119	0.056	-0.038
-600.084	-93.772	-0.223	0.062
-599.069	-200.000	0.085	-0.450
-598.055	167.342	0.165	0.235
-597.040	114.822	0.078	-0.096
-596.025	74.815	0.042	-0.044
-595.011	-84.629	-0.162	0.051
-593.996	282.458	-0.123	-0.221
-592.982	136.906	-0.134	0.176
-591.967	-74.526	0.278	-0.101
-590.952	-71.683	0.248	0.093
-589.938	756.805	0.027	-0.073
-588.923	67.424	-0.091	-0.093
-587.909	322.214	0.165	0.316
-586.894	41.848	-0.046	0.042
-585.879	-200.000	0.025	-0.182
-584.865	-52.347	-0.011	0.005
-583.850	696.861	0.043	-0.114
-582.836	-200.000	-0.023	-0.169
-581.821	-182.356	-0.345	0.006
-580.806	553.328	0.017	0.041
-579.792	-129.497	0.035	-0.005
-578.777	50.967	0.188	0.179
-577.763	-132.088	-0.259	0.034
-576.748	614.870	0.138	-0.348
-575.733	42.183	-0.097	-0.089
-574.719	-200.000	0.041	-0.335
-573.704	800.000	0.082	-0.235
-572.690	133.144	-0.149	-0.193
-571.675	531.588	0.018	-0.044
-570.661	117.964	0.056	-0.069
-569.646	-96.698	0.121	0.032
-568.631	-10.597	-0.332	0.221
-567.617	-104.457	-0.336	-0.078
-566.602	-99.719	0.094	0.024
-565.588	86.086	-0.125	0.138
-564.573	-77.311	0.325	-0.113
-563.558	95.457	-0.284	-0.324
-562.544	-200.000	-0.017	0.096
-561.529	-83.613	-0.348	0.111
-560.515	-200.000	-0.061	0.314
-559.500	-200.000	0.018	-0.212
-558.485	-48.611	0.280	0.135
-557.471	800.000	0.028	-0.094
-556.456	236.984	-0.091	0.151
-555.442	285.005	-0.109	-0.197
-554.427	107.789	0.173	0.206
-553.412	390.744	0.023	-0.048
-552.398	-73.849	-0.287	-0.105
-551.383	32.164	0.036	-0.031
-550.369	-9.881	-0.239	0.160
-549.354	-154.263	-0.142	-0.010
-548.339	-175.821	0.169	0.005
-547.325	-54.028	-0.127	-0.058
-546.310	102.993	0.206	0.242
-545.296	29.597	-0.223	0.190
-544.281	250.040	0.024	0.041
-543.266	341.711	0.094	-0.184
-542.252	25.267	0.255	0.212
-541.237	-19.168	-0.087	0.054
-540.223	93.298	0.186	0.210
-539.208	-129.899	0.331	0.045
-538.193	75.147	-0.192	0.203
-537.179	-143.616	0.188	-0.018
-536.164	-140.036	0.055	-0.006
-535.150	800.000	0.068	0.199
-534.135	-72.581	-0.163	-0.060
-533.121	800.000	0.101	-0.332
-532.106	-200.000	0.006	0.112
-531.091	611.699	-0.153	0.384
-530.077	-72.466	0.245	-0.091
-529.062	34.508	-0.022	-0.019
-528.048	145.749	-0.195	0.262
-527.033	92.576	0.184	-0.207
-526.018	800.000	0.070	0.285
-525.004	-125.178	0.232	-0.036
-523.989	270.116	0.054	-0.096
-522.975	-200.000	-0.029	-0.236
-521.960	22.145	0.121	0.099
-520.945	-85.708	0.222	0.069
-519.931	-157.090	-0.130	-0.008
-518.916	-27.389	0.169	0.098
-517.902	-200.000	0.034	-0.244
-516.887	-112.210	-0.125	-0.025
-515.872	1.380	0.159	0.115
-514.858	-132.312	0.224	-0.029
-513.843	-84.741	0.277	-0.087
-512.829	238.171	0.087	-0.144
-511.814	20.862	0.073	0.059
-510.799	-158.305	0.122	-0.007
-509.785	323.971	-0.018	-0.034
-508.770	800.000	-0.075	0.214
-507.756	-200.000	-0.007	0.262
-506.741	174.877	0.300	-0.434
-505.726	-69.525	0.313	0.120
-504.712	-200.000	0.061	0.320
-503.697	200.183	-0.126	-0.193
-502.683	-200.000	0.052	-0.304
-501.668	156.056	-0.191	-0.263
-500.653	47.054	-0.114	-0.106
-499.639	-33.038	0.168	0.093
-498.624	115.609	0.186	0.227
-497.610	-22.423	-0.156	0.094
-496.595	-145.483	-0.157	0.014
-495.581	168.334	-0.342	0.486
-494.566	-60.538	0.308	0.131
-493.551	-59.512	-0.228	0.098
-492.537	387.292	0.065	0.134
-491.522	0.546	0.090	-0.065
-490.508	121.002	-0.059	0.073
-489.493	-200.000	0.012	0.299
-488.478	800.000	-0.029	0.121
-487.464	-110.972	-0.217	-0.045
-486.449	-90.555	0.315	-0.091
-485.435	409.460	-0.135	0.286
-484.420	-200.000	-0.010	-0.251
-483.405	-50.069	0.117	0.056
-482.391	-42.449	0.257	0.131
-481.376	226.135	0.097	-0.157
-480.362	-200.000	-0.026	0.191
-479.347	-96.664	-0.084	0.022
-478.332	800.000	0.008	-0.029
-477.318	-111.828	0.458	-0.093
-476.303	-117.103	0.445	-0.081
-475.289	-200.000	-0.004	-0.324
-474.274	-141.984	0.246	0.025
-473.259	144.281	0.022	-0.030
-472.245	-200.000	-0.041	-0.186
-471.230	-45.407	-0.465	-0.230
-470.216	-62.769	0.261	0.108
-469.201	-103.253	-0.210	-0.049
-468.186	-19.984	0.186	0.115
-467.172	-200.000	-0.040	-0.196
-466.157	-45.222	0.152	0.076
-465.143	-32.870	-0.255	-0.141
-464.128	-77.803	-0.313	0.108
-463.113	-119.812	-0.040	-0.007
-462.099	91.489	-0.353	0.396
-461.084	-200.000	-0.015	-0.135
-460.070	330.873	-0.172	-0.331
-459.055	145.265	-0.229	-0.306
-458.040	98.922	-0.126	0.146
-457.026	352.753	0.095	-0.188
-456.011	-38.218	0.191	-0.101
-454.997	800.000	0.044	-0.147
-453.982	171.378	-0.056	-0.080
-452.968	-151.850	0.269	0.020
-451.953	-116.541	0.219	0.040
-450.938	-200.000	-0.091	0.000
-449.924	-200.000	-0.049	0.268
-448.909	88.953	-0.130	-0.144
-447.895	-75.429	0.311	0.111
-446.880	120.445	-0.129	-0.160
-445.865	-190.546	0.134	-0.001
-444.851	15.546	-0.063	-0.050
-443.836	-110.589	-0.463	-0.096
-442.822	-127.952	0.307	0.044
-441.807	-200.000	0.009	0.267
-440.792	-160.897	0.199	0.010
-439.778	26.222	0.103	-0.086
-438.763	73.451	0.151	-0.158
-437.749	-166.695	0.116	0.005
-436.734	102.537	-0.045	-0.053
-435.719	-51.103	0.218	0.102
-434.705	-82.677	-0.188	0.061
-433.690	30.930	0.243	-0.207
-432.676	254.373	-0.122	0.209
-431.661	-78.607	0.457	0.156
-430.646	306.073	0.253	0.470
-429.632	22.487	-0.198	0.161
-428.617	-102.556	-0.102	-0.024
-427.603	-93.556	0.109	0.030
-426.588	25.159	0.260	0.215
-425.573	286.021	-0.136	0.245
-424.559	-53.227	-0.124	-0.057
-423.544	-200.000	0.071	-0.330
-422.530	-93.208	-0.191	0.053
-421.515	179.745	0.090	0.132
-420.500	-200.000	0.032	0.279
-419.486	438.748	0.107	0.232
-418.471	238.221	-0.201	-0.333
-417.457	-200.000	-0.028	-0.207
-416.442	77.279	-0.109	-0.115
-415.428	81.870	-0.271	-0.292
-414.413	-115.394	-0.147	-0.028
-413.398	-102.832	-0.346	0.082
-412.384	263.871	0.136	0.236
-411.369	519.671	0.188	-0.439
-410.355	-125.563	-0.163	-0.025
-409.340	692.590	-0.080	0.209
-408.325	800.000	-0.047	0.175
-407.311	-200.000	-0.014	0.294
-406.296	340.575	0.043	-0.085
-405.282	34.540	-0.172	0.150
-404.267	-20.782	0.127	-0.078
-403.252	-10.803	-0.082	0.054
-402.238	-84.403	0.205	0.064
-401.223	-200.000	0.064	0.337
-400.209	366.291	0.137	-0.276
-399.194	-26.868	-0.174	0.101
-398.179	433.852	0.086	0.185
-397.165	-131.792	0.183	-0.024
-396.150	-23.608	0.264	-0.158
-395.136	8.327	-0.185	0.139
-394.121	239.542	0.116	0.192
-393.106	-31.726	-0.115	-0.064
-392.092	64.517	-0.073	-0.073
-391.077	266.406	0.125	0.217
-390.063	-59.960	-0.241	0.103
-389.048	-200.000	0.043	0.236
-388.033	96.660	0.208	-0.237
-387.019	3.460	-0.343	-0.249
-386.004	514.039	0.054	0.125
-384.990	-85.000	0.232	0.072
-383.975	800.000	-0.072	-0.243
-382.960	7.203	0.140	-0.104
-381.946	-112.374	0.145	0.029
-380.931	544.821	0.135	-0.322
-379.917	-92.733	-0.101	-0.028
-378.902	-180.612	0.201	-0.004
-377.888	57.988	-0.254	0.247
-376.873	-187.327	-0.091	0.001
-375.858	-149.975	-0.057	0.004
-374.844	-0.629	0.187	-0.132
-373.829	-130.816	0.293	0.039
-372.815	800.000	0.043	-0.129
-371.800	368.835	-0.073	-0.146
-370.785	-115.508	0.195	-0.036
-369.771	800.000	0.042	-0.178
-368.756	-45.057	-0.127	0.063
-367.742	-200.000	-0.007	0.148
-366.727	-101.461	-0.096	0.023
-365.712	236.683	0.044	0.072
-364.698	-108.311	-0.423	0.091
-363.683	61.577	0.211	-0.209
-362.669	800.000	-0.089	0.298
-361.654	387.912	0.218	-0.449
-360.639	-126.714	0.319	-0.047
-359.625	800.000	-0.089	0.257
-358.610	-200.000	0.096	0.452
-357.596	-200.000	0.044	-0.346
-356.581	800.000	0.057	0.161
-355.566	-200.000	0.068	-0.340
-354.552	90.097	-0.183	0.203
-353.537	-67.800	-0.038	-0.015
-352.523	-200.000	0.013	-0.112
-351.508	800.000	0.050	0.216
-350.493	-98.113	-0.385	0.099
-349.479	354.175	-0.227	-0.448
-348.464	-200.000	0.044	-0.195
-347.450	48.030	-0.074	-0.068
-346.435	-200.000	-0.001	-0.128
-345.420	222.997	-0.062	-0.099
-344.406	-48.264	-0.164	-0.079
-343.391	-104.118	-0.219	-0.051
-342.377	13.371	0.252	-0.194
-341.362	469.902	-0.177	0.396
-340.348	-67.846	0.450	-0.175
-339.333	-87.866	0.089	0.026
-338.318	92.783	0.093	0.105
-337.304	-81.050	0.311	0.102
-336.289	226.792	-0.156	0.252
-335.275	-79.095	-0.221	-0.075
-334.260	164.964	0.073	-0.102
-333.245	-0.592	0.269	-0.190
-332.231	-107.637	0.121	-0.026
-331.216	-59.183	-0.153	0.065
-330.202	397.275	-0.073	-0.151
-329.187	-64.048	-0.148	-0.060
-328.172	47.316	-0.031	-0.028
-327.158	-11.664	0.185	0.121
-326.143	-200.000	-0.022	0.109
-325.129	70.293	0.248	0.254
-324.114	-200.000	0.016	0.230
-323.099	-73.882	0.455	0.164
-322.085	-200.000	-0.005	0.272
-321.070	229.647	-0.067	0.109
-320.056	-40.594	0.182	-0.094
-319.041	143.485	0.101	-0.133
-318.026	16.570	0.133	-0.104
-317.012	-200.000	-0.057	0.410
-315.997	152.684	0.138	0.187
-314.983	-200.000	-0.014	0.068
-313.968	-58.722	-0.228	-0.098
-312.953	179.604	0.083	-0.121
-311.939	-10.342	-0.168	0.111
-310.924	-200.000	0.041	0.290
-309.910	800.000	0.024	0.097
-308.895	-71.829	-0.185	-0.069
-307.880	-69.999	0.161	0.061
-306.866	-136.838	-0.142	0.016
-305.851	63.173	0.231	-0.230
-304.837	363.103	-0.043	-0.085
-303.822	36.988	-0.246	0.216
-302.807	265.609	0.061	-0.105
-301.793	-5.826	-0.178	0.121
-300.778	-48.220	-0.076	-0.037
-299.764	553.125	-0.036	0.085
-298.749	527.270	-0.184	-0.430
-297.735	18.089	0.173	0.137
-296.720	-64.766	0.111	0.045
-295.705	646.680	-0.024	-0.061
-294.691	473.726	0.206	-0.461
-293.676	-61.714	0.442	-0.184
-292.662	-200.000	0.019	0.117
-291.647	-174.017	0.330	-0.010
-290.632	-142.483	0.232	0.023
-289.618	-48.178	0.091	-0.044
-288.603	14.750	0.236	0.183
-287.589	504.921	-0.066	0.153
-286.574	679.648	-0.060	-0.155
-285.559	-140.281	-0.199	0.021
-284.545	524.849	0.026	0.061
-283.530	122.577	-0.055	0.068
-282.516	-200.000	-0.010	-0.072
-281.501	-136.893	-0.213	0.024
-280.486	143.845	0.126	0.166
-279.472	-163.015	-0.104	-0.005
-278.457	111.620	0.058	-0.070
-277.443	-41.229	0.258	-0.132
-276.428	800.000	-0.146	-0.414
-275.413	-60.622	-0.272	0.114
-274.399	-200.000	-0.035	-0.170
-273.384	163.333	-0.054	0.076
-272.370	31.963	0.164	0.140
-271.355	800.000	0.095	0.395
-270.340	90.673	-0.152	-0.169
-269.326	-78.535	0.155	0.053
-268.311	-200.000	0.084	0.367
-267.297	-200.000	0.287	-0.000
-266.282	-79.660	-0.102	-0.034
-265.267	122.479	0.174	-0.216
-264.253	177.776	-0.166	0.240
-263.238	56.270	0.079	-0.076
-262.224	472.683	-0.063	-0.140
-261.209	-200.000	0.005	-0.098
-260.195	157.050	0.188	0.258
-259.180	-200.000	-0.031	-0.235
-258.165	137.210	-0.024	-0.031
-257.151	-83.683	0.068	-0.021
-256.136	316.037	0.174	-0.325
-255.122	-190.051	0.291	-0.003
-254.107	-131.896	-0.378	-0.049
-253.092	800.000	0.070	0.206
-252.078	10.225	0.115	-0.086
-251.063	73.661	-0.294	0.304
-250.049	-91.427	0.224	0.063
-249.034	427.182	-0.173	-0.369
-248.019	73.683	0.156	0.162
-247.005	-171.642	0.176	-0.006
-245.990	-200.000	-0.035	-0.184
-244.976	-3.823	0.084	-0.058
-243.961	-157.860	0.155	-0.009
-242.946	-93.815	-0.251	-0.068
-241.932	161.903	-0.064	-0.089
-240.917	472.596	-0.117	0.262
-239.903	163.117	0.166	-0.231
-238.888	-98.054	-0.233	-0.059
-237.873	-2.404	-0.162	0.112
-236.859	759.571	-0.112	-0.300
-235.844	-78.958	-0.147	0.049
-234.830	-45.739	-0.216	-0.106
-233.815	-34.708	-0.183	-0.099
-232.800	525.150	-0.078	-0.181
-231.786	168.066	0.252	0.354
-230.771	47.351	-0.278	0.257
-229.757	-46.662	-0.537	-0.260
-228.742	-90.572	-0.368	-0.105
-227.727	238.298	0.146	0.240
-226.713	-125.120	0.345	-0.052
-225.698	-24.744	-0.101	0.059
-224.684	-131.075	-0.089	-0.012
-223.669	439.680	-0.111	0.240
-222.655	-73.626	0.292	-0.105
-221.640	-200.000	0.031	-0.180
-220.625	-200.000	-0.020	0.169
-219.611	800.000	0.083	-0.277
-218.596	127.106	-0.067	-0.084
-217.582	-200.000	-0.035	-0.173
-216.567	81.320	0.240	-0.257
-215.552	-67.498	0.022	-0.008
-214.538	-15.878	0.127	-0.080
-213.523	-145.187	0.280	-0.025
-212.509	-200.000	-0.025	-0.288
-211.494	-73.015	0.308	0.112
-210.479	464.501	0.014	-0.030
-209.465	429.592	0.193	0.412
-208.450	-193.596	0.136	-0.001
-207.436	247.715	0.094	0.157
-206.421	800.000	0.085	0.315
-205.406	-72.175	-0.271	-0.099
-204.392	-111.929	-0.268	0.053
-203.377	84.397	-0.214	-0.231
-202.363	143.543	0.120	-0.158
-201.348	11.589	0.498	0.377
-200.333	458.416	0.111	-0.243
-199.319	-200.000	0.006	0.199
-198.304	-39.129	-0.310	0.161
-197.290	36.821	-0.238	-0.208
-196.275	800.000	0.030	0.096
-195.260	-45.972	-0.098	-0.048
-194.246	-200.000	-0.100	-0.459
-193.231	-200.000	0.023	-0.231
-192.217	-147.343	0.213	0.018
-191.202	504.507	0.134	-0.307
-190.187	48.335	0.098	-0.091
-189.173	-63.012	-0.123	-0.050
-188.158	-36.364	0.107	-0.057
-187.144	-95.060	-0.181	-0.048
-186.129	117.738	-0.260	0.316
-185.114	46.225	0.218	-0.200
-184.100	800.000	0.053	-0.175
-183.085	-142.254	-0.222	-0.022
-182.071	-135.920	-0.277	0.032
-181.056	-78.672	0.243	0.082
-180.042	16.766	-0.292	0.228
-179.027	48.288	-0.239	-0.220
-178.012	-130.980	-0.107	-0.014
-176.998	-42.565	-0.260	-0.131
-175.983	-93.658	0.158	0.043
-174.969	-44.571	-0.084	0.041
-173.954	800.000	0.034	-0.099
-172.939	393.264	0.101	-0.207
-171.925	-200.000	-0.050	0.234
-170.910	-80.858	-0.220	0.072
-169.896	69.741	-0.248	0.253
-168.881	336.055	-0.117	0.223
-167.866	-30.937	0.196	-0.109
-166.852	-117.081	0.346	0.062
-165.837	-200.000	0.003	-0.220
-164.823	-200.000	-0.004	-0.314
-163.808	98.030	-0.312	-0.354
-162.793	-134.817	-0.165	-0.020
-161.779	-191.151	-0.317	-0.003
-160.764	-10.582	-0.456	0.298
-159.750	-99.423	-0.250	0.062
-158.735	-105.541	-0.142	0.032
-157.720	329.681	-0.127	-0.242
-156.706	-10.759	0.190	-0.124
-155.691	-184.330	0.185	0.003
-154.677	800.000	0.075	0.289
-153.662	-103.396	-0.255	0.059
-152.647	-120.073	0.160	-0.027
-151.633	631.552	-0.124	0.309
-150.618	-118.235	-0.104	-0.018
-149.604	-74.069	0.148	0.053
-148.589	-200.000	-0.028	0.279
-147.574	-200.000	0.024	-0.296
-146.560	-157.996	-0.121	-0.007
-145.545	84.795	0.101	0.109
-144.531	-200.000	0.049	0.342
-143.516	-21.210	-0.195	-0.118
-142.502	-200.000	0.011	0.311
-141.487	275.110	-0.100	-0.174
-140.472	-200.000	0.058	-0.305
-139.458	354.480	0.110	0.215
-138.443	61.634	-0.149	0.146
-137.429	-10.196	0.015	0.010
-136.414	-200.000	0.018	-0.426
-135.399	438.885	0.053	0.113
-134.385	262.862	-0.064	-0.110
-133.370	550.504	-0.097	-0.228
-132.356	-83.517	-0.079	-0.025
-131.341	-200.000	0.002	0.094
-130.326	-96.897	-0.406	-0.105
-129.312	470.834	-0.102	-0.227
-128.297	800.000	0.059	-0.162
-127.283	598.584	-0.110	-0.269
-126.268	-18.730	-0.167	-0.103
-125.253	-32.115	-0.158	0.087
-124.239	-109.247	-0.291	-0.061
-123.224	424.733	0.144	0.306
-122.210	-200.000	0.009	0.043
-121.195	-200.000	0.043	0.194
-120.180	46.826	-0.144	0.132
-119.166	-66.629	-0.228	0.089
-118.151	124.218	-0.093	0.115
-117.137	-5.518	-0.174	0.118
-116.122	29.901	0.397	-0.333
-115.107	-130.000	-0.224	0.030
-114.093	-200.000	-0.013	-0.061
-113.078	-133.232	0.263	-0.033
-112.064	-200.000	0.007	0.138
-111.049	-118.769	0.452	0.078
-110.034	347.061	-0.116	-0.224
-109.020	225.336	-0.058	0.092
-108.005	104.895	0.394	-0.458
-106.991	420.911	-0.067	-0.142
-105.976	96.796	0.226	-0.255
-104.962	404.318	-0.049	-0.101
-103.947	678.447	0.084	0.215
-102.932	800.000	0.095	-0.319
-101.918	-200.000	0.020	-0.197
-100.903	-200.000	-0.001	-0.016
-99.889	63.225	-0.069	-0.068
-98.874	68.269	0.127	-0.129
-97.859	-200.000	-0.019	0.091
-96.845	499.003	0.072	0.163
-95.830	396.176	0.111	0.229
-94.816	247.213	0.140	-0.233
-93.801	354.415	0.113	0.222
-92.786	-200.000	-0.205	-0.001
-91.772	457.954	-0.070	-0.153
-90.757	800.000	-0.057	0.216
-89.743	-99.058	0.302	-0.075
-88.728	-13.083	0.107	0.069
-87.713	-60.029	0.251	-0.105
-86.699	128.813	-0.057	0.072
-85.684	-148.991	-0.405	-0.032
-84.670	-72.620	0.203	-0.074
-83.655	-105.160	-0.318	0.072
-82.640	-200.000	-0.038	-0.225
-81.626	-113.806	0.184	0.035
-80.611	800.000	-0.078	0.223
-79.597	-200.000	0.054	-0.306
-78.582	78.029	0.141	0.148
-77.567	333.782	-0.036	-0.069
-76.553	81.657	0.129	0.137
-75.538	-41.240	-0.069	0.035
-74.524	658.841	0.074	-0.188
-73.509	-104.435	-0.209	-0.048
-72.494	101.159	-0.080	0.092
-71.480	-200.000	0.023	0.296
-70.465	-119.122	-0.302	0.052
-69.451	322.646	-0.047	-0.087
-68.436	-200.000	-0.011	0.420
-67.422	-31.030	-0.042	-0.023
-66.407	5.685	0.137	-0.099
-65.392	-25.752	0.247	-0.143
-64.378	-200.000	0.241	-0.001
-63.363	-0.976	-0.087	-0.060
-62.349	-200.000	-0.004	0.060
-61.334	61.357	-1.055	-1.031
-60.319	152.134	0.345	0.463
-59.305	615.479	-0.263	-0.649
-58.290	800.000	0.382	1.109
-57.276	800.000	0.627	1.731
-56.261	-200.000	97.154	595.581
-55.246	546.356	1373.592	3227.645
-54.232	161.626	2551.787	3508.771
-53.217	111.809	2153.944	2554.957
-52.203	42.325	1696.717	1515.099
-51.188	34.831	1509.625	1297.366
-50.173	32.429	1482.995	1258.391
-49.159	51.858	1532.962	1433.339
-48.144	53.718	1550.277	1462.117
-47.130	34.995	1510.205	1298.773
-46.115	31.906	1494.996	1264.846
-45.100	31.761	1491.766	1261.086
-44.086	31.616	1490.162	1258.708
-43.071	31.605	1488.098	1256.835
-42.057	31.595	1486.303	1255.209
-41.042	31.677	1484.954	1254.565
-40.027	31.680	1483.606	1253.400
-39.013	31.639	1482.089	1251.792
-37.998	31.619	1480.731	1250.463
-36.984	31.539	1479.866	1249.147
-35.969	31.618	1478.568	1248.527
-34.954	31.583	1476.756	1246.719
-33.940	31.627	1476.013	1246.335
-32.925	31.678	1474.030	1244.945
-31.911	31.697	1473.193	1244.317
-30.896	31.631	1471.826	1242.675
-29.881	31.789	1469.773	1241.941
-28.867	31.662	1469.069	1240.452
-27.852	31.596	1467.885	1238.970
-26.838	31.656	1466.075	1237.787
-25.823	31.614	1464.895	1236.464
-24.809	31.649	1462.798	1234.881
-23.794	31.726	1461.415	1234.167
-22.779	31.661	1460.337	1232.781
-21.765	31.702	1459.081	1231.942
-20.750	31.646	1457.958	1230.579
-19.736	31.630	1457.183	1229.772
-18.721	31.603	1456.062	1228.594
-17.706	31.594	1454.951	1227.550
-16.692	31.555	1453.818	1226.290
-15.677	31.531	1452.701	1225.146
-14.663	31.642	1451.468	1224.780
-13.648	31.646	1450.525	1223.960
-12.633	31.546	1449.890	1222.728
-11.619	31.558	1449.217	1222.190
-10.604	31.553	1448.286	1221.322
-9.590	31.601	1447.440	1220.872
-8.575	31.593	1446.320	1219.827
-7.560	31.503	1445.894	1218.832
-6.546	31.535	1444.480	1217.798
-5.531	31.535	1443.875	1217.242
-4.517	31.512	1443.172	1216.455
-3.502	31.554	1441.630	1215.380
-2.487	31.539	1440.975	1214.681
-1.473	31.593	1439.701	1213.906
-0.458	31.600	1438.549	1212.936
0.556	32.793	1429.327	1202.026
1.571	30.127	1404.845	1164.611
2.586	27.282	1348.589	1100.686
3.600	26.050	1269.866	1029.321
4.615	24.708	1224.251	984.870
5.629	21.080	1166.724	919.428
6.644	11.258	1080.472	803.212
7.659	3.935	1039.735	738.029
8.673	2.933	1034.391	729.415
9.688	2.634	1031.290	725.751
10.702	2.530	1029.545	723.967
11.717	2.593	1027.975	723.095
12.731	5.643	1030.837	739.458
13.746	15.382	1044.248	795.393
14.761	23.493	1054.994	842.191
15.775	25.894	1057.121	855.224
16.790	26.134	1056.942	856.144
17.804	25.943	1056.640	854.916
18.819	25.772	1055.442	853.062
19.834	25.916	1054.712	853.078
20.848	26.067	1054.515	853.558
21.863	26.280	1053.998	854.071
22.877	26.135	1053.773	853.128
23.892	26.126	1053.053	852.424
24.907	26.055	1052.221	851.341
25.921	26.066	1051.728	850.918
26.936	25.912	1051.309	849.779
27.950	26.092	1049.534	849.116
28.965	26.074	1048.793	848.356
29.980	25.937	1046.801	846.026
30.994	26.036	1045.663	845.497
32.009	26.129	1045.299	845.565
33.023	26.279	1044.299	845.381
34.038	26.107	1043.309	843.701
35.053	25.934	1042.549	842.206
36.067	26.240	1041.961	843.086
37.082	26.154	1041.209	841.999
38.096	26.218	1040.658	841.775
39.111	26.220	1039.934	841.125
40.126	26.358	1039.435	841.293
41.140	26.519	1037.651	840.519
42.155	25.980	1036.662	837.144
43.169	25.727	1035.124	834.654
44.184	25.798	1034.081	834.067
45.199	25.797	1033.166	833.252
46.213	25.653	1032.211	831.743
47.228	25.666	1031.942	831.512
48.242	25.793	1031.067	831.319
49.257	25.938	1030.376	831.358
50.271	26.096	1029.280	831.128
51.286	26.250	1028.382	831.039
52.301	26.206	1027.992	830.447
53.315	26.211	1027.112	829.685
54.330	26.074	1026.536	828.516
55.344	25.926	1025.759	827.140
56.359	26.047	1024.796	826.843
57.374	26.179	1023.889	826.640
58.388	25.855	1022.914	824.300
59.403	25.933	1021.999	823.848
60.417	25.820	1021.692	823.010
61.432	25.677	1020.510	821.331
62.447	25.632	1020.109	820.730
63.461	25.953	1019.147	821.346
64.476	25.980	1018.541	820.910
65.490	25.812	1017.774	819.456
66.505	25.711	1016.851	818.182
67.520	25.758	1015.997	817.634
68.534	25.907	1015.500	817.836
69.549	25.883	1013.860	816.337
70.563	25.433	1013.077	813.594
71.578	25.292	1012.617	812.518
72.593	25.319	1011.751	811.873
73.607	25.236	1010.311	810.268
74.622	25.269	1009.329	809.557
75.636	25.620	1008.781	810.631
76.651	25.660	1008.261	810.321
77.666	25.543	1007.255	808.914
78.680	25.442	1006.349	807.660
79.695	25.531	1005.870	807.604
80.709	25.600	1005.082	807.209
81.724	25.699	1004.446	807.070
82.739	25.695	1003.684	806.369
83.753	25.571	1002.883	805.099
84.768	26.062	1002.150	806.637
85.782	26.274	1001.895	807.307
86.797	26.434	1001.280	807.456
87.812	26.451	999.758	806.230
88.826	26.252	998.896	804.578
89.841	26.247	998.060	803.812
90.855	26.383	997.916	804.231
91.870	26.474	996.490	803.416
92.884	26.275	996.291	802.300
93.899	26.292	995.071	801.319
94.914	26.114	994.289	799.829
95.928	26.350	993.373	800.068
96.943	26.275	993.263	799.578
97.957	25.854	991.736	796.416
98.972	25.724	990.426	794.722
99.987	25.597	989.244	793.140
101.001	25.718	988.872	793.305
102.016	26.039	988.426	794.292
103.030	26.068	987.409	793.531
104.045	26.001	986.414	792.368
105.060	25.835	984.850	790.316
106.074	25.686	984.181	789.055
107.089	25.692	983.665	788.597
108.103	26.058	983.229	789.779
109.118	26.125	982.273	789.236
110.133	25.783	981.465	787.023
111.147	25.805	980.566	786.328
112.162	25.691	979.098	784.585
113.176	25.572	977.907	783.041
114.191	25.595	977.554	782.790
115.206	25.840	976.530	782.963
116.220	25.427	975.592	780.352
117.235	25.263	974.904	779.021
118.249	25.593	973.862	779.548
119.264	25.570	972.919	778.623
120.279	25.409	972.336	777.391
121.293	25.452	971.398	776.759
122.308	25.460	971.109	776.497
123.322	25.374	969.909	775.097
124.337	25.442	969.043	774.627
125.352	25.436	967.618	773.395
126.366	24.923	966.091	769.902
127.381	24.676	965.103	767.983
128.395	25.146	964.902	769.774
129.410	25.767	964.739	772.238
130.424	26.025	963.644	772.399
131.439	26.078	962.164	771.373
132.454	25.980	961.674	770.490
133.468	25.884	960.874	769.374
134.483	25.906	960.000	768.701
135.497	25.971	959.232	768.292
136.512	26.139	958.963	768.727
137.527	26.218	958.173	768.361
138.541	26.209	957.372	767.611
139.556	26.211	956.438	766.802
140.570	26.183	955.890	766.179
141.585	26.347	954.648	765.811
142.600	26.276	954.082	764.988
143.614	26.178	953.393	763.952
144.629	26.391	952.846	764.348
145.643	26.552	952.155	764.403
146.658	26.395	951.138	762.858
147.673	26.338	949.595	761.314
148.687	26.043	949.194	759.684
149.702	26.053	947.920	758.637
150.716	25.918	946.755	757.071
151.731	25.861	946.074	756.221
152.746	26.129	945.361	756.705
153.760	26.209	944.941	756.638
154.775	26.456	944.019	756.866
155.789	26.542	943.011	756.351
156.804	26.422	942.368	755.267
157.819	26.322	941.270	753.902
158.833	26.436	940.392	753.611
159.848	26.412	940.003	753.132
160.862	26.575	939.122	753.035
161.877	26.478	937.897	751.586
162.892	26.424	937.159	750.701
163.906	26.350	936.830	750.066
164.921	26.351	935.944	749.293
165.935	26.373	934.086	747.833
166.950	26.348	933.927	747.533
167.964	26.392	933.101	746.990
168.979	26.382	931.981	745.986
169.994	26.207	930.986	744.401
171.008	26.199	930.093	743.587
172.023	26.394	929.383	743.757
173.037	26.443	928.697	743.342
174.052	26.328	927.710	742.014
175.067	26.062	926.366	739.785
176.081	26.114	925.893	739.555
177.096	26.153	925.151	739.058
178.110	26.027	924.654	738.079
179.125	26.017	923.059	736.700
180.140	25.812	922.330	735.215
181.154	25.683	921.526	733.984
182.169	25.950	920.982	734.575
183.183	26.211	920.947	735.544
184.198	26.378	920.415	735.734
185.213	26.274	919.766	734.727
186.227	26.278	919.163	734.197
187.242	26.349	918.703	734.052
188.256	26.322	917.993	733.309
189.271	26.458	917.194	733.159
190.286	26.541	916.295	732.710
191.300	26.287	915.749	731.183
192.315	25.714	914.412	727.732
193.329	25.008	912.625	723.396
194.344	24.541	911.417	720.494
195.359	25.261	911.928	723.737
196.373	26.150	912.295	727.549
197.388	26.425	911.693	728.112
198.402	26.205	911.073	726.666
199.417	26.195	910.575	726.168
200.432	26.226	910.662	726.298
201.446	26.261	909.637	725.554
202.461	25.875	908.686	723.182
203.475	25.941	908.538	723.263
204.490	25.399	906.938	719.756
205.504	24.457	904.583	714.057
206.519	24.801	904.513	715.315
207.534	25.651	904.991	719.029
208.548	25.893	904.078	719.204
209.563	26.186	904.512	720.657
210.577	26.204	903.636	719.966
211.592	25.837	902.883	717.841
212.607	26.286	902.639	719.372
213.621	26.418	902.152	719.444
214.636	26.523	901.559	719.325
215.650	26.484	900.666	718.396
216.665	26.281	900.286	717.220
217.680	26.437	900.137	717.661
218.694	26.629	899.025	717.470
219.709	26.038	898.449	714.607
220.723	25.918	897.427	713.254
221.738	26.082	896.785	713.332
222.753	26.212	896.995	713.947
223.767	26.288	895.866	713.286
224.782	26.290	894.930	712.484
225.796	26.396	894.692	712.651
226.811	26.736	893.729	713.160
227.826	26.175	892.734	710.098
228.840	25.331	891.689	705.884
229.855	25.303	890.808	705.016
230.869	25.491	890.325	705.308
231.884	25.196	889.412	703.368
232.899	25.161	889.073	702.900
233.913	26.043	889.114	706.325
234.928	26.197	888.857	706.660
235.942	26.026	888.382	705.552
236.957	26.043	887.303	704.699
237.972	25.805	886.350	702.949
238.986	25.897	885.312	702.424
240.001	25.927	885.144	702.344
241.015	25.940	884.686	701.970
242.030	25.994	884.244	701.768
243.045	26.033	883.973	701.644
244.059	26.267	883.094	701.791
245.074	26.496	882.348	702.024
246.088	26.345	882.147	701.215
247.103	25.947	881.185	698.848
248.117	25.919	880.742	698.326
249.132	26.593	880.539	700.714
250.147	26.744	880.529	701.227
251.161	26.977	879.747	701.441
252.176	27.329	879.249	702.345
253.190	27.095	878.867	701.073
254.205	27.257	878.203	701.106
255.220	27.407	877.806	701.306
256.234	27.367	877.174	700.582
257.249	27.064	876.965	699.190
258.263	27.081	875.777	698.244
259.278	27.028	875.459	697.724
260.293	27.212	875.150	698.124
261.307	27.235	874.355	697.517
262.322	27.202	873.795	696.883
263.336	27.050	873.064	695.655
264.351	26.548	871.970	692.802
265.366	25.569	869.607	687.123
266.380	25.209	868.673	684.950
267.395	25.896	869.874	688.464
268.409	26.738	869.575	691.379
269.424	26.738	869.243	691.054
270.439	26.766	868.414	690.439
271.453	27.010	867.884	690.886
272.468	26.908	867.311	689.981
273.482	26.964	867.056	689.930
274.497	27.143	866.944	690.458
275.512	27.079	865.240	688.798
276.526	26.483	864.029	685.518
277.541	26.670	863.667	685.878
278.555	27.003	863.695	687.096
279.570	26.938	862.710	686.007
280.585	26.700	862.331	684.746
281.599	26.863	861.479	684.627
282.614	26.764	861.555	684.253
283.628	26.326	860.244	681.498
284.643	25.989	859.226	679.363
285.657	26.456	859.484	681.264
286.672	26.414	858.610	680.354
287.687	25.786	857.712	677.220
288.701	26.197	857.330	678.405
289.716	26.623	857.143	679.795
290.730	26.299	856.017	677.630
291.745	26.038	855.658	676.306
292.760	26.057	854.311	675.252
293.774	26.049	853.603	674.604
294.789	26.890	854.773	678.617
295.803	27.465	854.571	680.546
296.818	27.470	854.287	680.278
297.833	27.482	854.045	680.068
298.847	27.180	853.004	678.054
299.862	26.932	851.976	676.253
300.876	27.151	851.483	676.615
301.891	27.515	850.975	677.505
302.906	27.567	850.220	677.040
303.920	27.252	849.278	675.058
304.935	26.951	848.751	673.464
305.949	27.476	848.515	675.164
306.964	27.505	848.362	675.090
307.979	27.273	847.445	673.440
308.993	27.147	846.882	672.468
310.008	27.558	846.556	673.670
311.022	27.716	846.374	674.051
312.037	27.676	845.466	673.119
313.052	27.100	845.109	670.652
314.066	27.229	844.214	670.357
315.081	26.392	842.707	666.018
316.095	25.805	841.359	662.735
317.110	26.180	841.756	664.369
318.125	27.117	842.171	668.086
319.139	26.627	840.906	665.223
320.154	25.502	839.311	659.776
321.168	24.875	838.691	656.929
322.183	25.698	838.587	659.808
323.197	26.623	839.156	663.591
324.212	27.112	838.586	664.869
325.227	27.129	838.588	664.874
326.241	27.238	838.194	664.903
327.256	27.033	837.242	663.340
328.270	26.995	836.490	662.545
329.285	27.073	835.689	662.139
330.300	26.904	834.978	660.898
331.314	26.721	834.084	659.468
332.329	26.733	833.988	659.375
333.343	27.117	833.426	660.270
334.358	27.300	833.393	660.850
335.373	27.464	832.608	660.766
336.387	27.523	831.858	660.324
337.402	27.724	831.667	660.842
338.416	27.858	831.402	661.060
339.431	27.842	830.919	660.557
340.446	27.749	830.235	659.619
341.460	28.000	830.166	660.415
342.475	27.901	829.263	659.280
343.489	27.855	828.350	658.329
344.504	27.627	828.229	657.353
345.519	27.982	828.008	658.399
346.533	28.152	827.556	658.593
347.548	28.157	827.256	658.313
348.562	28.216	827.020	658.281
349.577	28.000	826.324	656.891
350.592	28.099	825.487	656.526
351.606	28.051	825.123	656.006
352.621	28.018	824.648	655.450
353.635	27.835	824.344	654.495
354.650	27.845	823.766	654.014
355.665	27.525	822.917	652.139
356.679	26.628	820.582	647.027
357.694	26.514	820.379	646.401
358.708	27.095	820.140	648.230
359.723	27.117	819.565	647.796
360.738	27.236	819.645	648.227
361.752	27.707	819.627	649.832
362.767	27.734	819.228	649.555
363.781	28.044	819.066	650.474
364.796	28.357	818.959	651.445
365.810	28.337	818.682	651.094
366.825	28.479	818.131	651.101
367.840	28.584	817.712	651.086
368.854	28.427	816.900	649.825
369.869	27.955	815.861	647.268
370.883	27.694	815.501	646.001
371.898	27.864	815.013	646.159
372.913	27.741	814.178	645.005
373.927	27.882	813.529	644.930
374.942	27.963	813.075	644.800
375.956	28.277	812.471	645.370
376.971	28.096	812.269	644.515
377.986	28.237	811.779	644.567
379.000	28.459	811.275	644.889
380.015	28.495	810.682	644.489
381.029	28.345	810.200	643.520
382.044	28.163	809.512	642.278
383.059	28.441	809.013	642.801
384.073	28.592	808.325	642.726
385.088	28.534	808.113	642.299
386.102	28.468	807.383	641.432
387.117	28.276	806.838	640.269
388.132	28.078	806.107	638.939
389.146	27.949	805.484	637.941
390.161	27.481	804.813	635.721
391.175	27.644	804.415	635.916
392.190	28.141	804.154	637.386
393.205	28.142	804.048	637.249
394.219	27.150	802.127	632.222
395.234	25.426	799.685	624.257
396.248	24.557	799.110	620.734
397.263	25.799	799.556	625.339
398.278	27.660	800.952	632.843
399.292	28.085	800.923	634.238
400.307	27.930	800.087	632.983
401.321	27.697	799.729	631.836
402.336	27.766	799.784	632.064
403.350	27.986	799.561	632.592
404.365	28.556	799.517	634.473
405.380	28.776	799.109	634.854
406.394	29.181	798.781	635.936
407.409	29.345	798.307	636.069
408.423	29.372	797.583	635.529
409.438	29.099	797.396	634.383
410.453	29.220	796.713	634.199
411.467	29.286	796.667	634.335
412.482	29.293	795.642	633.486
413.496	29.116	795.705	632.871
414.511	29.291	795.547	633.289
415.526	29.246	794.891	632.559
416.540	29.262	794.258	632.053
417.555	29.119	794.176	631.443
418.569	28.759	793.438	629.565
419.584	28.736	792.630	628.791
420.599	28.911	792.518	629.243
421.613	112.930	1286.954	1460.821
422.628	97.286	1358.950	1460.917
