DTS Sentinel unit serial number:	SN413079Multiplexer serial number:	ORYXHardware model number:	OX4-SRSoftware version number:	ORYX F/W v4.00 Oryx Data Collector v3.7.2.0data status	okinstallation	princeton_trtdifferential loss correction	single-endedforward channel	channel 3reverse channel	N/Adate	2019/09/14time	04:16:35forward acquisition time	60.00reverse acquisition time	0.00gamma	496.2192k internal	0.2338k external	0.2338temperature offset calibration	1.0054default loss term (dB/km)	0.3790temperature slope calibration	1.0000multiplexer offset coefficient	1.0000multiplexer slope coefficient	1.0000fibre end	0.00T internal ref (°C)	26.73T ext. ref 1 (°C)	3.33T ext. ref 2 (°C)	21.86length (m)	temperature (°C)	Stokes	anti-Stokes-747.200	-14.460	-0.074	-0.048
-746.185	-139.356	-0.148	-0.016
-745.171	-57.591	0.256	0.113
-744.156	-182.802	-0.244	0.004
-743.142	-28.821	-0.028	-0.016
-742.127	189.578	0.185	0.279
-741.112	192.852	0.064	0.098
-740.098	207.775	0.214	0.335
-739.083	-113.619	-0.079	-0.016
-738.069	800.000	-0.023	-0.089
-737.054	-186.899	-0.131	0.002
-736.039	-37.951	-0.415	-0.221
-735.025	800.000	-0.158	0.587
-734.010	582.546	0.058	-0.143
-732.996	-200.000	0.023	-0.233
-731.981	-34.685	0.109	0.060
-730.966	-166.763	-0.253	-0.010
-729.952	147.860	-0.248	-0.335
-728.937	-200.000	-0.046	0.256
-727.923	-200.000	0.002	0.066
-726.908	-200.000	-0.067	-0.434
-725.894	35.566	0.317	-0.279
-724.879	464.080	-0.089	-0.200
-723.864	-200.000	-0.003	0.025
-722.850	457.973	0.087	-0.193
-721.835	-29.263	-0.254	-0.146
-720.821	800.000	-0.038	-0.164
-719.806	-5.673	0.104	0.072
-718.791	-44.791	-0.179	-0.090
-717.777	-147.533	-0.261	0.022
-716.762	115.556	-0.100	-0.122
-715.748	-108.892	0.264	0.056
-714.733	800.000	0.011	0.035
-713.718	91.633	0.175	0.197
-712.704	-200.000	-0.006	0.083
-711.689	161.572	0.031	-0.044
-710.675	731.574	-0.026	0.071
-709.660	-43.393	0.074	-0.037
-708.645	-61.123	0.154	0.065
-707.631	-200.000	0.036	0.165
-706.616	111.856	0.167	-0.202
-705.602	800.000	0.089	-0.349
-704.587	28.582	0.095	-0.080
-703.572	213.795	-0.129	-0.204
-702.558	77.103	-0.193	0.206
-701.543	0.916	0.191	-0.137
-700.529	-200.000	0.000	0.154
-699.514	800.000	0.061	-0.217
-698.499	2.166	-0.221	-0.160
-697.485	800.000	0.027	-0.114
-696.470	405.464	-0.193	-0.407
-695.456	358.335	0.148	-0.296
-694.441	611.504	0.029	-0.073
-693.426	-47.646	-0.115	-0.056
-692.412	-37.910	-0.328	-0.175
-691.397	800.000	-0.073	0.286
-690.383	436.256	-0.096	0.208
-689.368	178.666	0.176	-0.257
-688.354	264.027	-0.063	0.110
-687.339	-200.000	0.033	-0.418
-686.324	-200.000	-0.019	-0.322
-685.310	800.000	-0.084	-0.329
-684.295	311.342	-0.238	-0.447
-683.281	55.626	0.207	0.201
-682.266	-28.951	-0.213	0.123
-681.251	-10.907	0.179	0.118
-680.237	-33.045	-0.370	-0.205
-679.222	-83.879	0.177	-0.057
-678.208	800.000	-0.093	0.373
-677.193	68.892	0.081	-0.083
-676.178	-173.860	0.174	-0.005
-675.164	-200.000	-0.002	0.133
-674.149	33.692	0.131	-0.114
-673.135	-200.000	0.006	-0.261
-672.120	-90.228	-0.353	-0.103
-671.105	335.894	0.113	-0.219
-670.091	456.170	-0.100	0.223
-669.076	-129.804	0.153	-0.021
-668.062	52.617	0.052	0.050
-667.047	-152.300	0.250	0.018
-666.032	800.000	-0.045	0.136
-665.018	-96.773	0.282	0.074
-664.003	188.007	-0.258	0.385
-662.989	16.623	-0.132	0.105
-661.974	-79.670	0.428	0.144
-660.959	110.341	0.101	0.122
-659.945	-171.860	0.003	-0.000
-658.930	-112.427	-0.464	-0.093
-657.916	172.097	-0.106	-0.153
-656.901	800.000	0.104	0.301
-655.886	219.809	-0.224	0.359
-654.872	360.631	0.097	0.194
-653.857	157.124	0.115	-0.159
-652.843	-99.251	-0.300	-0.076
-651.828	-62.437	0.048	-0.020
-650.814	-200.000	0.156	-0.001
-649.799	310.862	0.053	0.100
-648.784	286.107	-0.258	0.465
-647.770	378.415	-0.072	0.147
-646.755	-200.000	-0.032	-0.184
-645.741	300.800	-0.029	0.053
-644.726	485.309	0.045	-0.102
-643.711	-139.412	0.344	0.037
-642.697	-200.000	-0.009	0.068
-641.682	-100.700	-0.062	0.015
-640.668	800.000	-0.116	-0.408
-639.653	-8.546	0.179	0.120
-638.638	563.204	-0.038	0.091
-637.624	97.527	0.165	-0.189
-636.609	180.850	-0.214	-0.315
-635.595	-125.031	0.238	-0.037
-634.580	479.272	0.017	0.039
-633.565	-97.240	0.304	0.079
-632.551	118.090	-0.168	-0.208
-631.536	-32.936	-0.105	0.058
-630.522	-64.732	0.131	-0.053
-629.507	-200.000	0.081	0.368
-628.492	-60.933	-0.220	0.093
-627.478	800.000	0.037	-0.113
-626.463	15.800	-0.134	0.105
-625.449	603.477	0.074	0.185
-624.434	-200.000	0.045	0.217
-623.419	-20.488	0.114	0.070
-622.405	800.000	0.029	0.095
-621.390	183.277	0.228	0.337
-620.376	800.000	0.089	-0.295
-619.361	-200.000	-0.008	-0.160
-618.346	-200.000	-0.061	0.352
-617.332	598.736	0.009	0.023
-616.317	-94.509	0.173	0.047
-615.303	-39.642	-0.271	-0.141
-614.288	-60.044	0.099	0.042
-613.273	-15.744	0.181	0.115
-612.259	-50.129	-0.239	0.113
-611.244	-200.000	-0.052	-0.302
-610.230	70.496	0.194	-0.200
-609.215	-170.071	-0.049	-0.002
-608.201	-10.325	0.366	0.242
-607.186	320.887	-0.047	-0.089
-606.171	429.248	-0.104	0.224
-605.157	-59.774	0.148	-0.063
-604.142	565.518	-0.193	-0.468
-603.128	-200.000	-0.119	-0.557
-602.113	40.937	0.121	-0.109
-601.098	-200.000	-0.015	0.145
-600.084	-56.270	-0.101	0.045
-599.069	-200.000	-0.265	0.001
-598.055	53.737	0.160	0.154
-597.040	800.000	0.098	0.327
-596.025	-91.847	-0.149	0.042
-595.011	-128.695	0.199	0.028
-593.996	490.535	-0.134	-0.305
-592.982	-200.000	-0.001	0.130
-591.967	120.428	0.140	0.174
-590.952	199.474	0.074	-0.113
-589.938	800.000	0.050	0.173
-588.923	-193.909	0.077	0.001
-587.909	-200.000	-0.003	0.039
-586.894	-200.000	0.016	0.116
-585.879	471.851	-0.074	-0.167
-584.865	-7.676	0.228	-0.153
-583.850	201.711	-0.167	-0.257
-582.836	-112.694	-0.275	0.055
-581.821	800.000	0.097	-0.332
-580.806	-58.621	-0.094	0.041
-579.792	144.922	0.134	-0.179
-578.777	800.000	0.072	0.233
-577.763	-106.395	0.024	0.005
-576.748	-61.675	-0.226	-0.095
-575.733	-42.208	0.183	-0.093
-574.719	49.265	0.207	0.194
-573.704	-200.000	0.026	0.351
-572.690	241.279	0.067	-0.111
-571.675	-200.000	0.055	-0.292
-570.661	-44.564	0.327	-0.163
-569.646	140.328	0.027	-0.036
-568.631	-118.729	0.313	0.055
-567.617	-68.108	-0.188	-0.073
-566.602	-113.514	-0.233	-0.045
-565.588	90.097	0.078	-0.087
-564.573	155.089	-0.228	-0.312
-563.558	-200.000	0.004	0.084
-562.544	-17.865	0.191	0.120
-561.529	52.096	-0.073	-0.069
-560.515	141.868	-0.014	0.018
-559.500	94.879	-0.131	0.148
-558.485	403.036	-0.078	-0.164
-557.471	-36.939	-0.159	0.085
-556.456	-21.082	0.197	0.120
-555.442	-64.152	0.216	0.088
-554.427	14.454	-0.396	0.308
-553.412	-75.535	-0.190	-0.067
-552.398	-95.893	-0.306	-0.081
-551.383	48.975	0.204	0.191
-550.369	-170.043	-0.191	-0.007
-549.354	-200.000	-0.012	-0.292
-548.339	-191.481	-0.069	-0.001
-547.325	-124.469	-0.122	0.019
-546.310	-10.084	0.226	0.150
-545.296	103.350	0.187	-0.218
-544.281	-150.929	0.184	0.014
-543.266	-121.559	0.184	-0.030
-542.252	219.408	-0.113	0.181
-541.237	-136.256	-0.398	0.046
-540.223	-28.209	-0.216	0.124
-539.208	-200.000	-0.002	0.189
-538.193	-200.000	-0.038	-0.193
-537.179	128.820	-0.199	-0.252
-536.164	-87.906	0.103	-0.031
-535.150	-200.000	0.023	0.103
-534.135	-200.000	0.033	-0.235
-533.121	-78.631	-0.221	-0.075
-532.106	800.000	-0.088	-0.249
-531.091	-9.730	0.034	0.023
-530.077	-56.634	-0.037	-0.016
-529.062	800.000	0.062	-0.183
-528.048	-200.000	0.037	0.202
-527.033	-101.589	-0.400	0.097
-526.018	220.522	0.110	-0.176
-525.004	-53.691	0.328	-0.149
-523.989	105.163	-0.171	-0.200
-522.975	-79.360	-0.307	-0.104
-521.960	238.439	-0.065	-0.108
-520.945	-200.000	0.012	-0.147
-519.931	-58.727	0.115	0.050
-518.916	406.230	0.125	0.262
-517.902	-97.162	-0.287	-0.075
-516.887	-146.288	-0.257	-0.022
-515.872	-17.129	0.363	0.228
-514.858	-14.661	0.159	0.102
-513.843	196.110	-0.131	0.199
-512.829	-5.785	-0.149	-0.101
-511.814	81.673	0.252	0.271
-510.799	78.534	-0.139	0.147
-509.785	50.009	-0.095	-0.089
-508.770	-121.678	-0.091	0.015
-507.756	85.492	0.112	-0.123
-506.741	800.000	0.036	-0.123
-505.726	-82.298	-0.183	-0.059
-504.712	-1.852	0.062	-0.043
-503.697	-76.831	-0.391	0.136
-502.683	-59.192	0.070	0.030
-501.668	-60.305	-0.093	-0.040
-500.653	205.266	0.035	-0.054
-499.639	73.392	0.160	0.166
-498.624	106.469	0.098	0.115
-497.610	-200.000	-0.005	-0.234
-496.595	540.354	0.109	-0.259
-495.581	-144.333	-0.150	0.014
-494.566	-110.770	-0.075	0.015
-493.551	57.971	-0.222	-0.216
-492.537	-175.697	-0.353	0.009
-491.522	-200.000	-0.021	0.276
-490.508	593.914	-0.209	0.513
-489.493	-148.407	0.531	-0.043
-488.478	126.226	-0.124	-0.155
-487.464	45.603	0.056	-0.052
-486.449	-200.000	-0.060	-0.441
-485.435	603.393	-0.125	-0.309
-484.420	746.439	0.134	-0.358
-483.405	65.839	0.051	0.051
-482.391	-147.706	0.070	-0.006
-481.376	-200.000	0.056	0.697
-480.362	-200.000	-0.020	0.090
-479.347	174.149	-0.106	0.152
-478.332	729.053	-0.054	0.142
-477.318	-200.000	-0.017	-0.076
-476.303	82.289	0.136	0.146
-475.289	-200.000	-0.021	0.102
-474.274	-36.602	-0.264	-0.141
-473.259	-180.139	-0.083	-0.002
-472.245	34.837	-0.163	0.142
-471.230	-93.119	-0.159	0.044
-470.216	-45.527	-0.222	-0.109
-469.201	596.461	-0.111	0.274
-468.186	168.655	-0.095	-0.134
-467.172	800.000	-0.051	-0.182
-466.157	-64.199	0.256	-0.103
-465.143	-103.315	-0.393	0.092
-464.128	-78.511	0.178	0.060
-463.113	-200.000	-0.081	-0.389
-462.099	203.039	0.082	-0.126
-461.084	450.084	-0.087	-0.191
-460.070	-101.948	-0.115	0.028
-459.055	156.036	0.206	-0.282
-458.040	-128.188	-0.361	0.051
-457.026	341.376	0.191	-0.370
-456.011	89.200	-0.241	-0.266
-454.997	198.180	0.060	0.091
-453.982	-200.000	-0.012	-0.336
-452.968	-127.019	-0.067	0.010
-451.953	-81.458	0.320	0.105
-450.938	-66.607	-0.115	0.045
-449.924	-134.727	0.181	-0.022
-448.909	233.720	-0.156	0.254
-447.895	800.000	-0.015	0.056
-446.880	-11.160	-0.106	-0.069
-445.865	-113.742	-0.362	-0.070
-444.851	-62.976	0.243	0.100
-443.836	800.000	-0.014	-0.055
-442.822	4.911	0.025	-0.018
-441.807	-200.000	0.028	-0.300
-440.792	-79.908	-0.254	0.085
-439.778	-200.000	0.029	0.252
-438.763	-92.753	-0.403	-0.112
-437.749	-200.000	0.063	0.318
-436.734	-146.962	0.111	-0.009
-435.719	-119.322	-0.190	0.033
-434.705	0.000	0.117	0.083
-433.690	-105.857	0.449	-0.100
-432.676	-200.000	0.031	-0.257
-431.661	97.200	0.266	-0.303
-430.646	800.000	0.047	-0.201
-429.632	388.705	0.075	-0.153
-428.617	125.100	0.082	0.103
-427.603	68.798	0.150	0.152
-426.588	-77.881	-0.484	-0.165
-425.573	-194.528	-0.108	0.001
-424.559	-200.000	0.071	0.318
-423.544	81.332	-0.102	0.109
-422.530	10.466	-0.204	0.154
-421.515	-152.562	-0.227	0.016
-420.500	435.313	0.074	0.159
-419.486	159.445	-0.150	0.207
-418.471	383.357	0.070	0.144
-417.457	-17.064	0.017	-0.011
-416.442	-50.232	-0.112	0.053
-415.428	395.535	0.048	0.100
-414.413	-161.045	-0.445	-0.023
-413.398	613.964	-0.098	-0.243
-412.384	187.409	-0.288	-0.426
-411.369	199.625	-0.065	-0.099
-410.355	-200.000	-0.093	-0.651
-409.340	-102.494	0.194	-0.046
-408.325	225.246	0.150	0.241
-407.311	157.024	-0.049	-0.067
-406.296	0.633	-0.165	0.117
-405.282	-200.000	-0.017	0.227
-404.267	249.550	-0.072	-0.122
-403.252	800.000	0.020	-0.063
-402.238	80.405	-0.221	-0.235
-401.223	188.927	-0.126	0.187
-400.209	-142.280	0.179	0.018
-399.194	183.733	-0.101	0.149
-398.179	32.240	-0.265	0.226
-397.165	-200.000	-0.017	0.097
-396.150	-109.872	-0.283	-0.059
-395.136	-35.685	0.173	-0.093
-394.121	-14.729	0.166	0.106
-393.106	195.704	-0.160	0.242
-392.092	-19.308	0.237	-0.145
-391.077	440.070	0.144	-0.312
-390.063	-172.584	0.336	-0.010
-389.048	84.845	0.103	0.112
-388.033	-57.078	0.048	0.021
-387.019	-70.880	0.071	0.027
-386.004	-69.964	0.364	-0.137
-384.990	195.212	0.163	0.245
-383.975	-77.951	-0.374	0.128
-382.960	300.459	-0.045	-0.082
-381.946	-200.000	0.003	0.110
-380.931	768.475	0.077	-0.208
-379.917	-39.542	0.185	-0.096
-378.902	-51.368	-0.321	-0.149
-377.888	-158.277	-0.361	0.021
-376.873	-133.072	-0.076	-0.010
-375.858	-174.764	0.283	0.008
-374.844	168.493	0.044	-0.062
-373.829	-200.000	0.004	0.309
-372.815	309.692	0.087	0.161
-371.800	-23.614	0.186	0.110
-370.785	145.080	-0.111	0.147
-369.771	-198.135	0.187	0.001
-368.756	81.692	0.125	-0.134
-367.742	57.808	0.325	-0.314
-366.727	800.000	-0.027	-0.080
-365.712	194.875	0.275	0.413
-364.698	-185.019	0.208	0.003
-363.683	-146.324	-0.343	0.030
-362.669	-98.503	-0.105	-0.026
-361.654	-88.128	0.221	-0.066
-360.639	139.689	-0.171	-0.222
-359.625	800.000	0.054	-0.166
-358.610	-200.000	0.056	0.257
-357.596	-120.178	-0.424	0.072
-356.581	123.121	0.128	0.158
-355.566	77.326	0.075	-0.078
-354.552	-159.722	0.311	-0.017
-353.537	800.000	0.034	-0.119
-352.523	800.000	-0.108	-0.330
-351.508	800.000	-0.045	0.134
-350.493	-23.987	0.203	-0.120
-349.479	701.620	-0.147	-0.381
-348.464	-11.257	-0.101	0.066
-347.450	4.665	0.100	0.072
-346.435	-71.864	-0.169	-0.062
-345.420	-61.674	0.162	-0.067
-344.406	328.585	-0.049	-0.093
-343.391	-19.921	-0.260	0.159
-342.377	-200.000	0.015	-0.081
-341.362	567.276	0.087	-0.209
-340.348	800.000	-0.077	0.257
-339.333	-72.588	-0.085	-0.031
-338.318	106.551	0.291	0.341
-337.304	-200.000	0.099	0.433
-336.289	-72.297	0.278	-0.102
-335.275	800.000	-0.071	-0.225
-334.260	800.000	0.096	0.291
-333.245	-10.942	-0.028	0.018
-332.231	-200.000	0.031	0.193
-331.216	-200.000	-0.029	-0.265
-330.202	20.220	-0.113	0.090
-329.187	-200.000	-0.022	-0.099
-328.172	-200.000	-0.003	-0.637
-327.158	81.498	-0.169	0.181
-326.143	287.379	0.185	0.330
-325.129	24.294	-0.147	-0.120
-324.114	-61.264	-0.168	-0.070
-323.099	-57.239	0.070	0.031
-322.085	-200.000	-0.397	0.000
-321.070	800.000	0.089	0.304
-320.056	238.552	0.059	-0.097
-319.041	-200.000	-0.044	0.213
-318.026	-160.803	-0.161	0.008
-317.012	-87.924	0.175	0.052
-315.997	-158.610	-0.330	-0.019
-314.983	765.559	0.074	0.198
-313.968	800.000	0.078	0.256
-312.953	-113.020	0.140	-0.027
-311.939	53.608	0.303	0.286
-310.924	-53.407	0.116	0.053
-309.910	-60.303	0.114	0.048
-308.895	-197.912	0.033	0.000
-307.880	-200.000	0.032	-0.328
-306.866	800.000	-0.138	0.397
-305.851	345.148	0.190	0.367
-304.837	-200.000	0.017	0.396
-303.822	-95.919	0.285	-0.075
-302.807	92.344	0.236	0.263
-301.793	-40.000	-0.176	-0.091
-300.778	51.084	-0.061	-0.057
-299.764	-200.000	0.030	0.315
-298.749	-200.000	-0.002	-0.022
-297.735	71.899	-0.119	0.122
-296.720	-200.000	0.044	-0.238
-295.705	18.782	0.045	0.036
-294.691	800.000	0.059	-0.166
-293.676	293.882	-0.101	0.182
-292.662	577.266	0.086	0.208
-291.647	-76.393	0.141	-0.049
-290.632	109.533	-0.148	-0.174
-289.618	-122.616	0.320	0.051
-288.603	36.714	0.063	0.055
-287.589	-130.570	0.208	-0.028
-286.574	-200.000	0.007	-0.220
-285.559	-48.700	0.152	-0.072
-284.545	242.240	0.018	-0.030
-283.530	71.187	0.243	-0.248
-282.516	-181.715	0.401	0.008
-281.501	-131.136	0.493	0.065
-280.486	800.000	-0.074	0.219
-279.472	590.993	0.039	-0.096
-278.457	-200.000	-0.030	-0.279
-277.443	-11.621	0.144	0.093
-276.428	-74.805	-0.183	0.065
-275.413	-8.601	0.326	-0.216
-274.399	56.506	-0.122	-0.117
-273.384	775.458	-0.104	-0.279
-272.370	-103.047	-0.237	-0.055
-271.355	-72.856	-0.179	0.065
-270.340	-131.233	0.209	-0.027
-269.326	-75.019	0.113	0.040
-268.311	-152.078	0.382	0.027
-267.297	-97.262	0.043	0.011
-266.282	-44.705	0.164	0.081
-265.267	-104.323	-0.349	0.080
-264.253	60.798	0.118	0.115
-263.238	800.000	0.078	-0.274
-262.224	-200.000	0.007	0.128
-261.209	-153.388	0.062	0.004
-260.195	241.277	0.041	-0.068
-259.180	-155.562	-0.091	0.006
-258.165	233.628	-0.137	-0.222
-257.151	-92.681	-0.284	-0.078
-256.136	-139.317	0.178	0.019
-255.122	240.686	0.097	0.159
-254.107	-34.728	-0.225	-0.121
-253.092	-87.667	0.253	-0.075
-252.078	-200.000	-0.033	-0.227
-251.063	800.000	0.047	-0.187
-250.049	800.000	0.023	-0.072
-249.034	-200.000	0.035	-0.276
-248.019	191.580	0.182	-0.269
-247.005	-200.000	-0.005	0.180
-245.990	81.984	0.180	-0.192
-244.976	-116.060	0.293	0.054
-243.961	260.283	0.137	-0.234
-242.946	565.804	-0.128	0.306
-241.932	-200.000	-0.075	0.375
-240.917	-200.000	0.003	-0.061
-239.903	-3.496	-0.170	0.116
-238.888	-92.842	-0.142	-0.039
-237.873	58.197	-0.111	0.107
-236.859	-32.971	-0.537	0.293
-235.844	670.211	-0.069	0.175
-234.830	-200.000	-0.075	0.342
-233.815	-77.688	0.210	0.072
-232.800	800.000	-0.061	0.170
-231.786	42.709	-0.220	-0.197
-230.771	-70.028	0.406	0.152
-229.757	800.000	0.138	0.444
-228.742	17.403	-0.410	0.320
-227.727	-54.532	0.237	-0.105
-226.713	163.693	0.117	0.162
-225.698	-172.985	-0.153	0.005
-224.684	-106.929	-0.202	0.044
-223.669	722.902	-0.064	0.168
-222.655	-23.711	0.089	0.053
-221.640	420.319	0.143	-0.302
-220.625	800.000	-0.099	-0.343
-219.611	-22.958	-0.248	-0.147
-218.596	800.000	-0.014	-0.039
-217.582	-200.000	-0.090	-0.449
-216.567	-200.000	-0.012	0.240
-215.552	-80.728	-0.227	-0.074
-214.538	-90.805	-0.293	-0.083
-213.523	-38.301	-0.239	0.124
-212.509	-200.000	0.035	-0.295
-211.494	-39.516	0.201	-0.103
-210.479	-27.893	0.181	-0.103
-209.465	-200.000	0.012	0.177
-208.450	291.460	0.048	-0.086
-207.436	800.000	0.089	-0.257
-206.421	100.744	0.215	0.245
-205.406	4.279	-0.374	0.269
-204.392	89.364	0.085	0.093
-203.377	-200.000	-0.023	-0.202
-202.363	-58.720	-0.191	0.081
-201.348	-200.000	0.024	-0.142
-200.333	-24.446	-0.027	0.016
-199.319	-155.148	-0.086	0.006
-198.304	191.215	-0.099	0.147
-197.290	-55.732	0.316	0.139
-196.275	800.000	-0.049	0.137
-195.260	800.000	0.031	-0.109
-194.246	-133.027	-0.253	0.032
-193.231	-129.746	-0.079	-0.011
-192.217	-200.000	-0.005	0.102
-191.202	266.047	0.155	0.265
-190.187	8.774	-0.283	-0.209
-189.173	-200.000	0.001	-0.179
-188.158	-59.206	0.336	0.142
-187.144	-200.000	-0.000	0.084
-186.129	112.200	0.212	-0.252
-185.114	-49.262	0.264	0.124
-184.100	-167.756	0.318	-0.012
-183.085	76.342	-0.227	0.236
-182.071	-149.935	-0.237	0.018
-181.056	382.962	0.022	-0.045
-180.042	-144.802	0.121	0.011
-179.027	126.580	0.240	0.298
-178.012	71.172	0.061	-0.062
-176.998	-146.331	0.039	-0.003
-175.983	-96.416	-0.085	-0.022
-174.969	164.860	0.177	-0.245
-173.954	-83.524	-0.174	0.055
-172.939	-123.649	-0.371	0.058
-171.925	-200.000	-0.016	0.191
-170.910	-200.000	-0.028	-0.196
-169.896	-82.315	0.134	-0.043
-168.881	-200.000	0.047	-0.260
-167.866	173.197	0.213	-0.301
-166.852	-200.000	0.023	0.110
-165.837	2.179	0.263	0.187
-164.823	441.630	-0.078	0.167
-163.808	107.164	0.180	0.210
-162.793	-200.000	-0.025	0.312
-161.779	-200.000	-0.223	-0.000
-160.764	392.059	0.099	-0.203
-159.750	-96.698	0.077	-0.020
-158.735	-43.369	-0.081	0.040
-157.720	-83.535	0.204	0.064
-156.706	51.100	-0.128	-0.119
-155.691	695.876	0.031	0.081
-154.677	800.000	-0.067	-0.226
-153.662	22.294	-0.121	-0.097
-152.647	-23.587	0.230	-0.135
-151.633	-200.000	0.032	0.145
-150.618	-200.000	0.024	0.184
-149.604	-52.512	0.148	-0.067
-148.589	108.664	-0.088	-0.103
-147.574	0.145	-0.193	-0.135
-146.560	-72.386	0.296	0.107
-145.545	70.677	-0.140	0.142
-144.531	800.000	-0.114	-0.342
-143.516	-200.000	0.003	0.116
-142.502	-90.363	0.225	0.064
-141.487	146.788	-0.097	0.128
-140.472	27.142	0.264	-0.217
-139.458	140.669	0.202	-0.261
-138.443	800.000	0.047	0.131
-137.429	-2.794	0.257	-0.176
-136.414	162.640	0.157	0.217
-135.399	533.085	0.165	0.383
-134.385	-70.121	0.222	-0.083
-133.370	546.715	0.089	-0.208
-132.356	430.147	-0.137	-0.292
-131.341	-135.867	0.290	-0.034
-130.326	7.287	0.182	-0.133
-129.312	89.918	0.154	0.168
-128.297	-168.270	0.080	0.003
-127.283	355.481	-0.048	0.094
-126.268	4.712	0.125	0.090
-125.253	-143.403	0.307	0.029
-124.239	-200.000	-0.211	0.000
-123.224	-73.168	0.193	-0.069
-122.210	-18.294	-0.049	0.030
-121.195	354.800	-0.035	0.068
-120.180	-200.000	0.002	0.193
-119.166	-61.812	0.050	0.020
-118.151	-133.325	-0.460	-0.057
-117.137	800.000	-0.046	-0.143
-116.122	-200.000	-0.053	-0.345
-115.107	18.087	0.015	-0.011
-114.093	-68.204	0.232	-0.088
-113.078	55.339	-0.324	0.307
-112.064	-139.075	-0.303	-0.032
-111.049	193.497	0.041	0.060
-110.034	223.536	-0.062	-0.097
-109.020	-200.000	0.040	0.238
-108.005	800.000	-0.029	0.113
-106.991	368.301	-0.192	0.380
-105.976	800.000	-0.058	0.202
-104.962	-31.490	0.137	0.075
-103.947	132.285	-0.105	0.133
-102.932	512.922	-0.123	-0.280
-101.918	-80.997	-0.362	0.117
-100.903	98.772	0.083	0.094
-99.889	80.470	0.290	0.305
-98.874	2.294	0.326	0.231
-97.859	452.429	-0.114	0.247
-96.845	-97.863	-0.384	-0.097
-95.830	-100.751	0.142	-0.034
-94.816	-19.093	0.127	-0.077
-93.801	-200.000	0.278	-0.000
-92.786	800.000	-0.064	-0.187
-91.772	-50.877	0.082	-0.038
-90.757	33.415	0.248	0.211
-89.743	-128.592	0.534	-0.074
-88.728	-200.000	0.000	-0.057
-87.713	-181.468	-0.041	0.001
-86.699	167.889	-0.097	0.135
-85.684	800.000	0.053	0.158
-84.670	241.842	-0.142	-0.232
-83.655	-88.640	-0.135	0.039
-82.640	-87.934	-0.174	-0.051
-81.626	-25.449	-0.230	-0.133
-80.611	-200.000	0.008	0.224
-79.597	-43.563	-0.156	-0.077
-78.582	76.513	-0.100	0.104
-77.567	800.000	-0.041	-0.152
-76.553	-200.000	-0.011	0.121
-75.538	-47.485	-0.270	0.128
-74.524	-147.421	0.209	0.017
-73.509	1.677	0.193	0.136
-72.494	-180.839	-0.260	0.005
-71.480	-75.044	-0.155	-0.054
-70.465	-200.000	-0.038	-0.319
-69.451	-90.814	0.311	0.088
-68.436	-200.000	0.012	0.068
-67.422	-121.255	0.080	0.013
-66.407	800.000	-0.052	-0.195
-65.392	76.792	-0.138	-0.143
-64.378	-138.193	-0.383	0.041
-63.363	-40.306	0.248	0.126
-62.349	-57.871	0.185	0.079
-61.334	147.251	-0.897	-1.179
-60.319	30.320	0.896	0.748
-59.305	389.587	-0.534	-1.081
-58.290	295.045	0.621	1.110
-57.276	800.000	0.663	2.080
-56.261	-200.000	116.279	653.588
-55.246	521.743	1537.819	3526.076
-54.232	175.955	2710.814	3843.491
-53.217	106.985	2180.971	2530.442
-52.203	37.641	1697.739	1472.006
-51.188	29.789	1513.609	1259.106
-50.173	27.551	1488.992	1223.573
-49.159	51.449	1548.494	1436.790
-48.144	49.676	1563.333	1438.371
-47.130	30.047	1518.848	1265.023
-46.115	26.981	1503.986	1231.826
-45.100	26.854	1500.157	1227.784
-44.086	26.781	1498.190	1225.634
-43.071	26.656	1496.806	1223.605
-42.057	26.648	1495.105	1222.110
-41.042	26.682	1493.554	1221.023
-40.027	26.593	1492.241	1219.302
-39.013	26.660	1490.667	1218.417
-37.998	26.608	1489.498	1217.070
-36.984	26.679	1488.472	1216.658
-35.969	26.718	1486.949	1215.628
-34.954	26.692	1485.480	1214.205
-33.940	26.660	1484.428	1213.083
-32.925	26.630	1482.809	1211.511
-31.911	26.752	1481.165	1210.930
-30.896	26.749	1480.272	1210.132
-29.881	26.777	1478.690	1208.979
-28.867	26.782	1477.783	1208.226
-27.852	26.645	1476.512	1206.222
-26.838	26.741	1476.075	1206.457
-25.823	26.832	1473.456	1204.874
-24.809	26.811	1471.695	1203.248
-23.794	26.785	1470.188	1201.795
-22.779	26.807	1469.357	1201.215
-21.765	26.750	1468.285	1199.912
-20.750	26.820	1466.613	1198.961
-19.736	26.806	1465.824	1198.174
-18.721	26.750	1465.056	1197.131
-17.706	26.838	1463.265	1196.202
-16.692	26.747	1462.700	1195.088
-15.677	26.761	1461.767	1194.375
-14.663	26.687	1460.815	1193.058
-13.648	26.682	1459.969	1192.292
-12.633	26.778	1458.856	1191.965
-11.619	26.832	1458.237	1191.765
-10.604	26.787	1456.895	1190.329
-9.590	26.696	1455.928	1188.892
-8.575	26.750	1455.544	1188.884
-7.560	26.789	1454.053	1187.876
-6.546	26.718	1453.223	1186.688
-5.531	26.688	1452.982	1186.243
-4.517	26.757	1451.492	1185.436
-3.502	26.666	1451.435	1184.744
-2.487	26.714	1450.267	1184.056
-1.473	26.748	1448.972	1183.176
-0.458	26.698	1447.657	1181.729
0.556	26.958	1438.131	1171.117
1.571	24.019	1412.893	1131.802
2.586	20.698	1352.042	1062.711
3.600	19.040	1269.452	988.196
4.615	17.992	1224.980	947.678
5.629	15.483	1168.689	890.754
6.644	9.021	1086.975	796.419
7.659	3.884	1050.676	745.059
8.673	3.422	1044.983	738.744
9.688	3.247	1042.150	735.839
10.702	3.273	1040.101	734.451
11.717	3.358	1038.690	733.793
12.731	5.033	1039.415	742.217
13.746	11.559	1048.379	779.795
14.761	17.738	1056.878	815.693
15.775	19.556	1058.018	825.200
16.790	18.999	1057.002	821.673
17.804	18.156	1054.232	815.430
18.819	17.186	1053.367	810.063
19.834	16.787	1051.465	806.628
20.848	16.652	1050.411	805.108
21.863	16.417	1050.223	803.775
22.877	16.169	1049.400	801.894
23.892	16.043	1048.449	800.501
24.907	16.043	1047.508	799.707
25.921	16.105	1046.822	799.411
26.936	16.132	1045.775	798.667
27.950	16.037	1045.068	797.608
28.965	15.999	1044.307	796.776
29.980	16.143	1043.105	796.469
30.994	16.338	1041.763	796.293
32.009	16.346	1040.834	795.548
33.023	16.347	1040.260	795.047
34.038	16.322	1039.213	794.059
35.053	16.146	1038.589	792.681
36.067	16.287	1037.439	792.396
37.082	16.158	1036.384	790.915
38.096	16.171	1035.912	790.548
39.111	16.334	1034.936	790.495
40.126	16.504	1033.574	790.180
41.140	16.178	1033.359	788.420
42.155	16.021	1032.158	786.704
43.169	15.781	1031.166	784.758
44.184	15.866	1030.162	784.322
45.199	15.780	1028.965	782.942
46.213	15.898	1027.700	782.457
47.228	15.877	1026.737	781.555
48.242	16.026	1026.076	781.674
49.257	16.251	1024.932	781.778
50.271	16.236	1024.048	780.966
51.286	16.170	1023.389	780.086
52.301	16.144	1022.606	779.300
53.315	16.207	1021.949	779.020
54.330	16.128	1020.825	777.731
55.344	15.977	1019.804	776.189
56.359	15.966	1018.758	775.276
57.374	15.963	1018.053	774.657
58.388	15.942	1017.094	773.759
59.403	15.839	1016.354	772.655
60.417	15.857	1015.497	772.019
61.432	15.836	1014.677	771.232
62.447	15.894	1014.301	771.141
63.461	15.783	1013.298	769.805
64.476	15.738	1011.994	768.539
65.490	15.690	1011.483	767.864
66.505	15.801	1010.056	767.221
67.520	15.738	1009.707	766.600
68.534	15.879	1008.796	766.482
69.549	15.853	1008.343	765.951
70.563	15.839	1007.678	765.315
71.578	15.830	1006.665	764.439
72.593	15.684	1005.921	763.140
73.607	15.578	1005.209	762.053
74.622	15.646	1003.923	761.318
75.636	15.632	1003.229	760.662
76.651	15.573	1002.654	759.890
77.666	15.653	1001.545	759.348
78.680	15.664	1000.753	758.728
79.695	15.673	1000.344	758.390
80.709	15.773	999.811	758.371
81.724	15.866	999.240	758.289
82.739	15.881	998.252	757.541
83.753	15.953	997.508	757.230
84.768	16.048	996.625	756.920
85.782	16.203	996.385	757.368
86.797	16.453	995.289	757.588
87.812	16.466	994.383	756.888
88.826	16.266	994.038	755.665
89.841	16.174	993.011	754.407
90.855	16.177	992.107	753.667
91.870	16.190	991.758	753.390
92.884	16.307	990.975	753.254
93.899	16.355	990.124	752.752
94.914	16.409	989.353	752.342
95.928	16.410	988.789	751.852
96.943	16.469	987.967	751.419
97.957	16.388	986.724	750.049
98.972	16.328	986.089	749.235
99.987	16.413	985.355	748.987
101.001	16.378	984.325	747.984
102.016	16.190	984.038	746.866
103.030	16.226	983.048	746.207
104.045	16.192	982.192	745.341
105.060	16.368	980.955	745.116
106.074	16.297	979.689	743.773
107.089	16.142	978.912	742.436
108.103	15.886	978.272	740.761
109.118	15.970	977.041	740.129
110.133	15.866	976.227	738.990
111.147	15.822	975.424	738.127
112.162	15.933	974.273	737.676
113.176	15.710	974.182	736.562
114.191	15.927	973.195	736.702
115.206	16.101	971.961	736.463
116.220	16.029	971.066	735.407
117.235	16.031	970.265	734.743
118.249	16.086	969.361	734.233
119.264	15.831	968.698	732.556
120.279	15.810	968.170	732.001
121.293	15.898	967.310	731.670
122.308	15.841	966.029	730.386
123.322	15.819	965.496	729.825
124.337	15.761	964.608	728.838
125.352	15.678	963.034	727.222
126.366	15.779	962.202	726.969
127.381	15.810	960.957	726.096
128.395	15.617	960.346	724.739
129.410	15.731	959.485	724.516
130.424	15.734	958.208	723.502
131.439	15.846	957.676	723.515
132.454	15.858	956.606	722.693
133.468	15.958	956.174	722.733
134.483	15.892	955.782	722.088
135.497	16.080	954.656	721.981
136.512	15.968	953.830	720.816
137.527	15.993	953.401	720.531
138.541	15.959	952.484	719.630
139.556	15.928	952.077	719.129
140.570	15.903	951.336	718.396
141.585	15.991	950.864	718.351
142.600	16.087	950.343	718.305
143.614	16.313	949.029	718.208
144.629	16.262	948.765	717.730
145.643	16.382	947.997	717.595
146.658	16.308	947.130	716.558
147.673	16.402	945.665	715.787
148.687	16.082	945.023	713.884
149.702	16.110	944.214	713.328
150.716	16.084	942.952	712.199
151.731	16.088	942.718	711.976
152.746	16.137	941.403	711.128
153.760	16.119	940.772	710.511
154.775	16.146	940.112	710.066
155.789	16.121	939.768	709.638
156.804	16.346	938.808	709.794
157.819	16.337	937.736	708.885
158.833	16.217	937.799	708.364
159.848	16.372	936.924	708.293
160.862	16.296	936.688	707.730
161.877	16.519	935.401	707.631
162.892	16.197	934.343	705.421
163.906	16.049	933.738	704.284
164.921	15.939	933.007	703.210
165.935	16.054	931.697	702.639
166.950	16.177	930.885	702.476
167.964	16.248	930.011	702.050
168.979	16.366	928.768	701.542
169.994	16.292	927.771	700.421
171.008	16.107	927.229	699.182
172.023	16.129	926.797	698.883
173.037	16.211	925.939	698.515
174.052	16.489	924.944	698.853
175.067	16.506	924.359	698.420
176.081	16.226	923.876	696.835
177.096	16.093	922.735	695.364
178.110	16.209	921.811	695.084
179.125	16.214	921.133	694.533
180.140	16.266	920.372	694.111
181.154	16.255	919.731	693.522
182.169	16.414	919.253	693.752
183.183	16.321	919.006	693.123
184.198	16.581	918.124	693.461
185.213	16.568	917.433	692.827
186.227	16.518	917.192	692.377
187.242	16.483	916.523	691.669
188.256	16.610	915.764	691.552
189.271	16.616	915.000	690.940
190.286	16.795	914.643	691.339
191.300	16.511	913.577	689.313
192.315	16.254	912.734	687.571
193.329	16.128	911.451	686.031
194.344	16.121	910.930	685.552
195.359	16.418	910.357	686.265
196.373	16.287	910.291	685.624
197.388	16.439	909.949	685.920
198.402	16.660	909.206	686.195
199.417	16.691	909.341	686.364
200.432	16.759	908.964	686.293
201.446	16.919	908.444	686.486
202.461	16.978	907.783	686.167
203.475	17.056	907.405	686.135
204.490	16.976	906.431	685.014
205.504	16.856	905.719	683.934
206.519	16.819	904.709	682.961
207.534	16.731	903.834	681.885
208.548	16.627	903.135	680.878
209.563	16.629	902.628	680.443
210.577	16.756	901.886	680.336
211.592	16.711	901.417	679.740
212.607	16.901	900.951	680.090
213.621	17.024	900.191	679.950
214.636	16.857	899.568	678.750
215.650	16.887	898.782	678.216
216.665	16.894	898.515	677.983
217.680	16.957	897.945	677.744
218.694	17.085	897.398	677.782
219.709	17.136	897.008	677.632
220.723	17.090	896.400	676.930
221.738	17.136	895.685	676.512
222.753	17.026	894.553	675.160
223.767	16.966	894.450	674.786
224.782	16.989	893.583	674.162
225.796	17.215	892.611	674.264
226.811	17.213	892.098	673.813
227.826	17.239	890.913	672.959
228.840	17.132	890.465	672.139
229.855	17.112	889.849	671.535
230.869	17.008	889.232	670.600
231.884	16.899	888.531	669.580
232.899	16.990	888.001	669.479
233.913	17.035	887.177	668.976
234.928	16.781	886.704	667.561
235.942	16.883	885.878	667.280
236.957	16.882	885.154	666.674
237.972	16.857	884.354	665.912
238.986	16.849	883.854	665.446
240.001	16.996	883.342	665.578
241.015	16.902	882.585	664.582
242.030	16.929	882.125	664.281
243.045	17.066	881.588	664.354
244.059	17.082	881.054	663.955
245.074	17.155	880.249	663.575
246.088	17.084	879.745	662.859
247.103	17.178	879.305	662.838
248.117	17.286	878.164	662.341
249.132	17.430	877.777	662.548
250.147	17.486	877.619	662.588
251.161	17.551	877.303	662.546
252.176	17.839	876.116	662.709
253.190	17.633	875.565	661.432
254.205	17.747	875.343	661.649
255.220	17.683	874.845	660.966
256.234	17.740	873.852	660.377
257.249	17.728	873.403	659.935
258.263	17.828	872.914	659.893
259.278	17.753	872.371	659.136
260.293	17.840	871.757	658.949
261.307	17.935	871.109	658.766
262.322	18.031	870.534	658.643
263.336	17.948	870.092	657.931
264.351	17.983	869.607	657.642
265.366	17.900	868.992	656.799
266.380	18.022	868.303	656.688
267.395	17.865	867.784	655.633
268.409	17.947	866.659	655.042
269.424	17.917	865.905	654.296
270.439	17.925	865.252	653.778
271.453	17.893	864.444	652.986
272.468	17.768	863.971	652.093
273.482	17.761	863.325	651.522
274.497	17.772	862.735	651.061
275.512	17.815	862.229	650.786
276.526	17.729	861.585	649.913
277.541	17.754	860.573	649.187
278.555	17.704	860.670	649.013
279.570	17.992	859.757	649.364
280.585	18.027	859.213	649.029
281.599	18.086	858.995	649.027
282.614	17.943	858.200	647.829
283.628	18.013	857.481	647.495
284.643	17.716	857.186	646.087
285.657	17.934	855.995	645.959
286.672	17.940	856.072	645.983
287.687	17.965	855.622	645.678
288.701	18.043	854.725	645.240
289.716	17.972	854.240	644.552
290.730	18.038	853.547	644.220
291.745	17.991	853.290	643.792
292.760	18.031	852.416	643.225
293.774	18.106	851.772	642.963
294.789	18.198	851.327	642.916
295.803	18.295	850.755	642.793
296.818	18.288	849.522	641.779
297.833	17.955	849.220	640.244
298.847	17.951	848.764	639.830
299.862	18.108	847.914	639.721
300.876	18.277	847.067	639.654
301.891	18.213	846.677	639.067
302.906	18.268	846.093	638.774
303.920	18.368	845.652	638.755
304.935	18.373	844.960	638.196
305.949	18.617	844.558	638.746
306.964	18.499	843.775	637.658
307.979	18.415	843.249	636.892
308.993	18.371	842.963	636.456
310.008	18.379	842.294	635.922
311.022	18.563	841.611	636.034
312.037	18.494	841.616	635.727
313.052	18.343	840.616	634.355
314.066	18.247	839.978	633.463
315.081	18.280	838.934	632.739
316.095	18.202	838.490	632.060
317.110	18.339	837.942	632.097
318.125	18.257	837.594	631.475
319.139	18.157	837.162	630.726
320.154	18.321	836.514	630.786
321.168	18.178	836.386	630.106
322.183	18.285	835.635	629.880
323.197	18.308	835.023	629.448
324.212	18.220	834.498	628.674
325.227	18.538	833.491	629.025
326.241	18.462	833.229	628.494
327.256	18.232	832.735	627.222
328.270	18.294	832.494	627.210
329.285	18.217	831.824	626.371
330.300	18.502	830.966	626.710
331.314	18.418	830.636	626.098
332.329	18.453	829.701	625.466
333.343	18.554	829.149	625.365
334.358	18.475	829.080	624.968
335.373	18.707	828.416	625.259
336.387	18.606	827.821	624.386
337.402	18.734	827.267	624.378
338.416	18.695	827.366	624.257
339.431	18.794	826.646	624.016
340.446	18.920	826.062	623.979
341.460	18.935	825.047	623.209
342.475	18.870	824.883	622.797
343.489	18.947	824.170	622.481
344.504	19.155	823.341	622.552
345.519	19.053	823.137	621.975
346.533	19.087	822.841	621.818
347.548	19.150	822.426	621.679
348.562	18.981	821.935	620.639
349.577	18.894	821.116	619.653
350.592	18.820	820.364	618.767
351.606	18.677	819.932	617.870
352.621	18.814	819.598	618.057
353.635	18.850	818.881	617.591
354.650	18.887	818.718	617.545
355.665	18.782	818.357	616.841
356.679	18.920	817.911	616.945
357.694	18.828	817.367	616.153
358.708	19.084	816.905	616.667
359.723	18.934	816.485	615.757
360.738	18.997	815.831	615.434
361.752	18.926	815.301	614.727
362.767	18.979	815.308	614.868
363.781	19.081	814.529	614.589
364.796	19.173	814.135	614.568
365.810	19.165	813.685	614.144
366.825	19.369	813.322	614.543
367.840	19.404	813.472	614.727
368.854	19.455	812.810	614.354
369.869	19.356	812.049	613.372
370.883	19.344	811.255	612.676
371.898	19.288	810.927	612.176
372.913	19.383	810.107	611.837
373.927	19.371	809.833	611.534
374.942	19.325	809.162	610.809
375.956	19.293	808.411	610.077
376.971	19.536	807.823	610.439
377.986	19.537	807.615	610.231
379.000	19.587	807.405	610.195
380.015	19.630	806.709	609.765
381.029	19.612	806.275	609.320
382.044	19.538	805.841	608.677
383.059	19.677	804.395	608.020
384.073	19.641	804.473	607.898
385.088	19.694	803.859	607.569
386.102	19.495	803.238	606.346
387.117	19.270	802.717	605.107
388.132	19.406	802.082	605.054
389.146	19.313	801.844	604.494
390.161	19.329	801.601	604.314
391.175	19.454	801.394	604.541
392.190	19.509	800.941	604.338
393.205	19.542	800.270	603.896
394.219	19.444	800.112	603.381
395.234	19.340	799.326	602.371
396.248	19.583	798.869	602.820
397.263	19.401	797.965	601.453
398.278	19.044	797.894	600.098
399.292	19.340	797.207	600.562
400.307	19.229	797.054	600.006
401.321	19.440	796.134	599.995
402.336	19.391	796.196	599.816
403.350	19.283	796.266	599.442
404.365	19.474	795.361	599.370
405.380	19.561	794.680	599.106
406.394	19.567	794.380	598.847
407.409	19.838	793.612	599.154
408.423	19.743	793.808	598.920
409.438	19.842	793.168	598.727
410.453	20.038	792.383	598.760
411.467	19.903	792.395	598.248
412.482	20.107	791.757	598.417
413.496	20.190	791.352	598.345
414.511	20.163	791.292	598.155
415.526	20.234	790.745	597.934
416.540	19.998	790.121	596.597
417.555	20.054	789.800	596.492
418.569	20.070	789.016	595.901
419.584	20.003	789.155	595.723
420.599	19.990	788.439	595.088
421.613	161.939	1371.191	1797.709
422.628	140.212	1456.090	1797.784
