DTS Sentinel unit serial number:	SN413079Multiplexer serial number:	ORYXHardware model number:	OX4-SRSoftware version number:	ORYX F/W v4.00 Oryx Data Collector v3.7.2.0data status	okinstallation	princeton_trtdifferential loss correction	single-endedforward channel	channel 3reverse channel	N/Adate	2019/09/18time	06:48:35forward acquisition time	60.00reverse acquisition time	0.00gamma	496.2192k internal	0.2343k external	0.2343temperature offset calibration	0.9953default loss term (dB/km)	0.3790temperature slope calibration	1.0000multiplexer offset coefficient	1.0000multiplexer slope coefficient	1.0000fibre end	0.00T internal ref (°C)	23.25T ext. ref 1 (°C)	0.20T ext. ref 2 (°C)	16.99length (m)	temperature (°C)	Stokes	anti-Stokes-747.200	45.231	-0.139	0.128
-746.185	10.379	0.129	0.099
-745.171	-135.371	-0.391	-0.047
-744.156	-200.000	-0.038	0.173
-743.142	-131.201	0.081	-0.011
-742.127	800.000	0.104	0.403
-741.112	160.430	-0.019	0.026
-740.098	216.234	-0.182	0.290
-739.083	-131.345	0.210	0.028
-738.069	27.978	0.037	-0.032
-737.054	-200.000	-0.019	-0.196
-736.039	-200.000	-0.048	-0.283
-735.025	22.962	0.087	0.071
-734.010	220.013	-0.118	-0.189
-732.996	-148.790	-0.440	-0.036
-731.981	-29.578	-0.224	0.128
-730.966	615.386	-0.017	-0.042
-729.952	-171.214	-0.171	-0.006
-728.937	124.982	-0.186	-0.235
-727.923	-200.000	0.081	-0.368
-726.908	800.000	-0.027	-0.082
-725.894	8.409	-0.105	0.079
-724.879	71.003	0.174	0.180
-723.864	35.885	-0.121	0.107
-722.850	-200.000	-0.010	-0.270
-721.835	53.780	0.122	-0.118
-720.821	227.991	-0.127	-0.207
-719.806	106.877	0.151	-0.179
-718.791	5.510	-0.084	0.062
-717.777	461.390	-0.238	-0.532
-716.762	-15.470	-0.071	-0.045
-715.748	293.448	-0.087	-0.159
-714.733	-102.318	0.319	-0.077
-713.718	169.098	0.182	0.260
-712.704	544.374	-0.104	-0.249
-711.689	-200.000	0.070	-0.326
-710.675	-184.003	-0.463	-0.008
-709.660	800.000	-0.020	-0.074
-708.645	-16.664	-0.226	-0.143
-707.631	13.090	-0.209	0.162
-706.616	-67.173	0.537	0.212
-705.602	-200.000	-0.009	-0.056
-704.587	273.697	-0.088	0.155
-703.572	-20.347	-0.150	0.093
-702.558	-200.000	0.011	0.092
-701.543	217.199	-0.165	-0.262
-700.529	363.687	-0.066	0.133
-699.514	167.809	0.020	-0.029
-698.499	439.867	0.131	-0.286
-697.485	-93.953	0.349	-0.096
-696.470	333.812	-0.209	-0.403
-695.456	144.513	0.061	0.082
-694.441	4.272	-0.008	-0.006
-693.426	37.263	0.243	0.215
-692.412	-52.967	-0.247	0.114
-691.397	-200.000	0.019	-0.105
-690.383	134.355	0.199	0.257
-689.368	-200.000	0.011	-0.165
-688.354	203.213	-0.173	-0.268
-687.339	115.816	-0.040	0.049
-686.324	-10.016	0.271	0.180
-685.310	613.846	0.146	0.365
-684.295	-145.480	-0.211	0.019
-683.281	800.000	-0.057	-0.224
-682.266	-137.638	0.191	-0.021
-681.251	-67.836	-0.149	-0.058
-680.237	-139.077	0.232	0.025
-679.222	-68.398	-0.327	-0.127
-678.208	-200.000	-0.028	0.214
-677.193	259.927	0.079	-0.136
-676.178	-200.000	-0.024	-0.139
-675.164	-83.800	0.189	0.060
-674.149	-200.000	-0.045	0.277
-673.135	65.984	-0.136	-0.137
-672.120	-145.238	0.241	0.022
-671.105	61.755	-0.148	0.147
-670.091	63.864	0.046	0.047
-669.076	-23.947	0.256	0.153
-668.062	325.224	0.087	-0.165
-667.047	800.000	0.056	0.157
-666.032	-130.970	0.207	0.028
-665.018	-200.000	0.029	-0.248
-664.003	-114.298	-0.177	-0.034
-662.989	-77.442	0.249	-0.086
-661.974	800.000	0.059	0.235
-660.959	-121.020	-0.257	-0.043
-659.945	-31.263	0.133	-0.075
-658.930	-200.000	-0.001	0.028
-657.916	390.906	-0.020	-0.042
-656.901	76.973	-0.150	0.159
-655.886	28.409	-0.417	-0.351
-654.872	800.000	-0.104	-0.299
-653.857	184.462	0.108	-0.160
-652.843	-200.000	-0.034	-0.215
-651.828	800.000	-0.067	0.187
-650.814	-200.000	-0.037	-0.324
-649.799	126.183	-0.084	-0.106
-648.784	-139.056	0.108	-0.012
-647.770	215.235	0.144	-0.229
-646.755	800.000	-0.024	0.105
-645.741	-200.000	-0.010	0.159
-644.726	470.412	-0.053	0.119
-643.711	-139.246	0.107	-0.011
-642.697	-160.421	-0.331	0.018
-641.682	-200.000	-0.017	-0.432
-640.668	-32.207	-0.155	-0.086
-639.653	-78.450	-0.304	0.104
-638.638	800.000	-0.020	0.067
-637.624	667.919	0.058	0.148
-636.609	241.783	-0.115	-0.191
-635.595	-114.379	0.270	-0.052
-634.580	37.708	0.132	0.117
-633.565	159.689	0.018	0.024
-632.551	800.000	-0.056	-0.241
-631.536	-103.347	0.118	0.028
-630.522	434.988	-0.201	0.435
-629.507	-13.825	-0.137	0.088
-628.492	234.692	-0.080	-0.132
-627.478	-162.836	-0.389	-0.019
-626.463	0.841	-0.203	0.145
-625.449	22.172	0.011	0.009
-624.434	-88.418	0.155	0.046
-623.419	-200.000	0.032	-0.240
-622.405	-92.705	0.074	-0.021
-621.390	-55.995	0.165	-0.073
-620.376	-1.252	0.333	-0.234
-619.361	-81.256	-0.208	-0.068
-618.346	800.000	0.103	-0.287
-617.332	-87.489	-0.246	0.074
-616.317	-200.000	-0.006	-0.090
-615.303	68.529	0.223	-0.228
-614.288	1.395	-0.396	-0.283
-613.273	-53.535	0.317	-0.145
-612.259	395.685	-0.080	0.166
-611.244	91.355	0.080	0.090
-610.230	212.103	0.090	0.141
-609.215	-98.524	-0.337	-0.086
-608.201	201.444	0.202	-0.310
-607.186	-129.265	-0.358	-0.050
-606.171	17.848	0.044	-0.035
-605.157	7.165	0.237	0.176
-604.142	622.367	-0.057	0.143
-603.128	-93.566	0.364	-0.100
-602.113	402.361	-0.084	-0.176
-601.098	-16.126	0.094	0.059
-600.084	125.077	0.152	-0.191
-599.069	-67.734	-0.305	-0.119
-598.055	800.000	-0.055	-0.208
-597.040	800.000	0.142	-0.423
-596.025	-104.980	0.059	0.014
-595.011	8.964	-0.029	-0.022
-593.996	800.000	0.041	0.121
-592.982	-172.403	0.187	0.006
-591.967	-96.425	-0.023	0.006
-590.952	800.000	0.089	-0.313
-589.938	-163.066	0.038	0.002
-588.923	-17.248	-0.347	0.218
-587.909	-82.660	0.418	0.135
-586.894	-12.648	-0.076	0.050
-585.879	-102.123	-0.150	0.036
-584.865	260.446	-0.215	-0.370
-583.850	226.416	-0.060	-0.097
-582.836	-129.011	0.230	0.032
-581.821	-151.487	-0.189	-0.014
-580.806	800.000	-0.059	-0.208
-579.792	56.804	0.111	-0.108
-578.777	773.299	0.036	-0.098
-577.763	430.877	0.057	-0.122
-576.748	-74.398	0.065	-0.023
-575.733	-200.000	-0.031	0.312
-574.719	83.135	0.213	-0.231
-573.704	-200.000	-0.005	-0.067
-572.690	-200.000	-0.019	0.096
-571.675	117.237	-0.213	-0.261
-570.661	-200.000	0.011	-0.411
-569.646	302.733	0.136	0.250
-568.631	-18.209	-0.172	0.107
-567.617	-63.280	-0.156	0.064
-566.602	192.435	0.118	-0.177
-565.588	34.748	-0.268	0.233
-564.573	-116.947	-0.326	-0.059
-563.558	-128.038	-0.363	-0.052
-562.544	-84.870	0.353	0.110
-561.529	-200.000	0.021	-0.108
-560.515	-179.744	-0.144	0.003
-559.500	-61.116	-0.163	-0.068
-558.485	-98.742	-0.159	-0.040
-557.471	-200.000	-0.015	0.196
-556.456	-108.152	0.346	0.074
-555.442	-58.235	0.161	0.070
-554.427	296.411	-0.052	0.096
-553.412	32.325	-0.166	0.142
-552.398	140.567	-0.226	0.297
-551.383	12.881	-0.098	-0.075
-550.369	-200.000	0.008	-0.152
-549.354	800.000	-0.023	0.093
-548.339	-200.000	-0.027	-0.320
-547.325	303.965	0.221	-0.408
-546.310	800.000	0.080	-0.348
-545.296	720.630	-0.043	0.114
-544.281	474.465	0.041	0.091
-543.266	-103.999	-0.267	-0.062
-542.252	9.827	-0.232	0.175
-541.237	-29.339	-0.224	0.128
-540.223	20.580	-0.146	-0.117
-539.208	-37.399	0.206	0.109
-538.193	568.759	0.052	-0.125
-537.179	-200.000	-0.033	0.361
-536.164	108.975	-0.140	0.166
-535.150	209.361	-0.076	0.119
-534.135	-200.000	-0.048	-0.307
-533.121	800.000	0.122	0.420
-532.106	25.089	-0.157	-0.130
-531.091	60.084	-0.086	0.085
-530.077	-200.000	-0.002	0.276
-529.062	-200.000	-0.008	0.190
-528.048	750.384	0.039	0.103
-527.033	-117.876	-0.116	0.021
-526.018	-93.842	-0.186	0.051
-525.004	-200.000	0.028	0.172
-523.989	-36.942	0.225	-0.120
-522.975	800.000	-0.085	-0.290
-521.960	-200.000	-0.044	-0.371
-520.945	171.371	0.195	-0.278
-519.931	-98.362	0.256	-0.065
-518.916	461.086	-0.048	0.107
-517.902	520.335	0.018	-0.042
-516.887	146.098	-0.136	0.182
-515.872	-43.023	-0.206	0.104
-514.858	-44.415	-0.103	0.051
-513.843	40.882	0.269	-0.241
-512.829	-200.000	-0.034	-0.331
-511.814	125.826	0.103	0.129
-510.799	762.538	-0.071	-0.192
-509.785	-130.941	0.157	-0.021
-508.770	50.237	0.049	0.046
-507.756	-200.000	0.057	0.362
-506.741	-25.798	0.265	0.155
-505.726	-34.943	-0.142	-0.077
-504.712	-186.786	0.104	-0.001
-503.697	-200.000	-0.022	0.101
-502.683	-83.501	0.329	0.105
-501.668	59.707	-0.363	-0.355
-500.653	636.795	-0.080	-0.201
-499.639	-155.202	0.181	0.012
-498.624	102.024	-0.138	0.159
-497.610	-104.333	0.136	0.031
-496.595	-200.000	-0.028	0.174
-495.581	-25.532	-0.039	-0.023
-494.566	-18.980	-0.361	0.223
-493.551	220.183	0.145	0.230
-492.537	258.785	0.033	-0.056
-491.522	110.512	0.302	-0.360
-490.508	-93.165	0.258	-0.071
-489.493	800.000	-0.119	-0.455
-488.478	89.362	-0.198	-0.218
-487.464	362.533	-0.123	-0.245
-486.449	-143.753	-0.336	0.032
-485.435	-70.878	0.138	-0.051
-484.420	-200.000	-0.048	-0.302
-483.405	263.359	0.043	0.073
-482.391	-81.864	0.308	0.100
-481.376	-200.000	-0.025	-0.162
-480.362	-109.939	0.168	0.035
-479.347	63.108	0.100	0.099
-478.332	232.314	0.222	-0.361
-477.318	-200.000	0.054	0.413
-476.303	-45.561	-0.179	-0.088
-475.289	-176.523	-0.098	0.002
-474.274	21.728	0.227	0.183
-473.259	25.796	0.060	0.049
-472.245	-200.000	0.039	-0.322
-471.230	-65.618	-0.352	0.140
-470.216	-7.421	-0.289	0.194
-469.201	-200.000	0.012	0.410
-468.186	-109.362	-0.189	0.040
-467.172	-200.000	0.034	0.154
-466.157	-13.464	0.125	-0.080
-465.143	135.216	-0.201	-0.259
-464.128	-179.906	-0.285	-0.006
-463.113	-105.368	-0.182	-0.041
-462.099	581.608	-0.078	0.190
-461.084	137.232	-0.121	0.157
-460.070	-119.215	-0.348	0.060
-459.055	-73.057	-0.267	0.097
-458.040	-11.979	-0.249	0.162
-457.026	180.504	-0.077	-0.111
-456.011	132.383	-0.331	0.422
-454.997	-12.027	-0.052	-0.034
-453.982	-28.129	-0.148	-0.085
-452.968	772.630	0.059	0.160
-451.953	-200.000	-0.013	-0.186
-450.938	50.841	0.116	-0.108
-449.924	33.869	-0.115	0.099
-448.909	-200.000	0.014	-0.254
-447.895	-141.578	0.293	0.029
-446.880	-200.000	0.020	0.138
-445.865	143.605	0.060	0.079
-444.851	509.765	0.053	0.121
-443.836	-3.866	0.268	0.184
-442.822	-200.000	0.032	0.256
-441.807	-66.913	-0.037	-0.015
-440.792	731.828	-0.113	-0.298
-439.778	-46.336	0.198	-0.096
-438.763	800.000	-0.075	0.253
-437.749	122.826	-0.116	-0.143
-436.734	-13.986	-0.234	-0.149
-435.719	122.395	-0.321	0.396
-434.705	-61.489	0.156	0.065
-433.690	-200.000	0.035	0.174
-432.676	800.000	0.118	0.412
-431.661	-200.000	-0.001	0.061
-430.646	-91.898	-0.482	0.135
-429.632	800.000	-0.121	-0.335
-428.617	-13.132	-0.425	0.273
-427.603	800.000	-0.036	0.120
-426.588	15.898	0.469	-0.365
-425.573	-132.168	-0.181	0.023
-424.559	800.000	-0.075	-0.291
-423.544	-68.958	-0.288	0.110
-422.530	-75.524	0.149	0.053
-421.515	3.000	0.077	0.056
-420.500	-20.136	0.056	-0.034
-419.486	197.816	-0.174	-0.262
-418.471	71.881	-0.134	0.138
-417.457	136.986	-0.163	-0.211
-416.442	-36.874	0.134	-0.071
-415.428	800.000	0.087	-0.267
-414.413	-200.000	-0.015	0.091
-413.398	14.954	-0.139	-0.108
-412.384	-26.326	-0.085	0.049
-411.369	538.538	0.074	0.174
-410.355	205.992	0.156	-0.239
-409.340	-200.000	0.040	0.441
-408.325	-40.780	0.358	-0.183
-407.311	-100.248	0.033	0.008
-406.296	130.273	0.268	-0.339
-405.282	800.000	0.074	-0.270
-404.267	-62.226	0.506	0.208
-403.252	-131.654	0.234	-0.030
-402.238	-200.000	-0.020	-0.207
-401.223	28.253	-0.106	0.088
-400.209	37.592	-0.168	0.147
-399.194	612.995	-0.080	0.198
-398.179	-80.276	-0.149	0.049
-397.165	-51.298	0.306	0.142
-396.150	125.749	-0.228	0.285
-395.136	-200.000	0.003	-0.046
-394.121	111.178	0.060	-0.071
-393.106	-200.000	0.029	-0.145
-392.092	-139.265	0.384	0.041
-391.077	-200.000	-0.022	-0.105
-390.063	135.322	0.239	-0.306
-389.048	-200.000	0.021	0.143
-388.033	800.000	0.092	0.310
-387.019	50.704	0.153	-0.143
-386.004	147.460	-0.038	0.051
-384.990	800.000	0.043	-0.154
-383.975	800.000	-0.044	0.143
-382.960	-117.469	-0.236	-0.042
-381.946	149.089	0.100	0.134
-380.931	-38.785	-0.279	0.145
-379.917	-25.905	-0.106	0.062
-378.902	26.846	-0.198	0.163
-377.888	404.494	-0.116	0.242
-376.873	26.127	-0.146	0.120
-375.858	-104.837	-0.077	-0.018
-374.844	-88.952	-0.210	-0.061
-373.829	800.000	-0.077	0.226
-372.815	-200.000	-0.070	-0.402
-371.800	-200.000	0.048	-0.223
-370.785	-165.297	0.239	-0.010
-369.771	-84.129	-0.114	-0.036
-368.756	-8.747	0.183	-0.121
-367.742	-200.000	0.031	-0.273
-366.727	-152.504	0.174	-0.012
-365.712	-184.248	-0.281	0.005
-364.698	-110.573	0.214	-0.044
-363.683	701.638	-0.077	0.201
-362.669	800.000	-0.101	0.303
-361.654	-87.291	0.005	0.001
-360.639	-10.601	-0.134	0.088
-359.625	215.691	0.125	0.196
-358.610	-90.280	-0.310	-0.089
-357.596	-3.619	-0.266	-0.183
-356.581	-77.425	-0.246	-0.084
-355.566	-200.000	0.001	0.257
-354.552	110.360	0.080	0.094
-353.537	-103.573	0.058	0.013
-352.523	-98.800	-0.166	0.042
-351.508	713.038	0.118	-0.309
-350.493	-142.966	0.427	-0.041
-349.479	532.155	-0.074	0.172
-348.464	541.702	-0.072	0.169
-347.450	23.095	-0.074	0.060
-346.435	-135.872	0.224	-0.026
-345.420	-63.549	0.237	0.096
-344.406	-177.044	-0.392	0.010
-343.391	111.054	0.111	0.132
-342.377	-200.000	-0.035	-0.372
-341.362	32.301	0.190	0.162
-340.348	-103.667	0.159	-0.037
-339.333	-200.000	-0.064	0.366
-338.318	-136.857	-0.430	0.049
-337.304	266.556	0.062	0.106
-336.289	-57.543	-0.162	-0.070
-335.275	800.000	-0.116	0.321
-334.260	-138.030	0.318	0.035
-333.245	61.770	0.079	0.077
-332.231	-200.000	0.005	-0.251
-331.216	81.836	-0.120	-0.128
-330.202	200.721	0.241	-0.365
-329.187	-15.266	-0.220	0.139
-328.172	422.815	-0.071	-0.151
-327.158	-200.000	-0.001	-0.461
-326.143	4.308	-0.316	-0.228
-325.129	-64.408	0.338	-0.135
-324.114	-200.000	-0.010	-0.179
-323.099	80.523	-0.332	0.353
-322.085	27.653	0.277	0.230
-321.070	800.000	-0.061	-0.176
-320.056	-200.000	0.061	-0.356
-319.041	-200.000	-0.043	-0.311
-318.026	44.688	0.208	-0.188
-317.012	319.718	0.207	0.387
-315.997	-200.000	0.002	0.198
-314.983	119.208	-0.297	-0.362
-313.968	735.149	0.111	-0.293
-312.953	-80.642	0.088	-0.029
-311.939	462.539	0.117	0.257
-310.924	-188.696	0.267	0.003
-309.910	-36.468	0.219	-0.116
-308.895	-200.000	-0.004	-0.046
-307.880	678.951	0.079	0.204
-306.866	171.260	-0.133	0.188
-305.851	-151.359	-0.119	-0.009
-304.837	-37.706	0.150	-0.079
-303.822	539.246	-0.135	0.317
-302.807	-200.000	0.026	0.133
-301.793	19.725	0.191	0.151
-300.778	-149.864	-0.043	-0.003
-299.764	565.630	0.051	-0.121
-298.749	-0.228	-0.365	0.255
-297.735	-56.707	-0.179	-0.078
-296.720	353.231	-0.046	0.090
-295.705	-200.000	0.048	-0.586
-294.691	-34.029	-0.146	-0.079
-293.676	54.139	0.153	-0.145
-292.662	800.000	-0.023	0.062
-291.647	571.075	0.086	-0.205
-290.632	-200.000	0.051	-0.243
-289.618	95.049	-0.121	-0.136
-288.603	-81.845	-0.224	0.072
-287.589	100.261	0.240	-0.274
-286.574	-200.000	-0.042	0.240
-285.559	-200.000	-0.005	-0.193
-284.545	17.320	-0.340	0.266
-283.530	-2.068	-0.338	-0.233
-282.516	-137.555	0.256	-0.028
-281.501	-122.040	0.132	0.021
-280.486	-19.858	0.167	-0.101
-279.472	-122.883	0.096	-0.015
-278.457	-200.000	-0.022	-0.230
-277.443	114.689	0.006	-0.007
-276.428	-200.000	-0.015	-0.131
-275.413	174.661	0.037	-0.052
-274.399	74.075	-0.074	-0.077
-273.384	-200.000	0.042	-0.373
-272.370	-150.185	-0.155	-0.012
-271.355	43.706	0.119	0.107
-270.340	-200.000	0.063	0.453
-269.326	800.000	0.091	-0.273
-268.311	-200.000	0.012	0.116
-267.297	800.000	-0.017	0.060
-266.282	-200.000	0.075	-0.334
-265.267	-200.000	0.011	0.323
-264.253	149.777	-0.065	0.087
-263.238	-86.507	0.345	0.104
-262.224	10.296	0.117	-0.087
-261.209	800.000	0.079	-0.259
-260.195	34.097	-0.052	-0.044
-259.180	92.393	0.190	-0.210
-258.165	-53.392	0.380	-0.171
-257.151	55.579	-0.176	0.168
-256.136	-17.978	0.293	-0.180
-255.122	-128.875	0.351	-0.049
-254.107	-44.433	-0.228	0.112
-253.092	-22.192	0.098	0.058
-252.078	410.533	0.236	0.491
-251.063	-106.463	-0.332	0.073
-250.049	168.007	-0.136	-0.190
-249.034	-18.251	0.225	-0.138
-248.019	-84.206	-0.260	-0.081
-247.005	65.864	0.092	0.092
-245.990	-200.000	-0.076	0.342
-244.976	390.891	0.128	-0.261
-243.961	-117.449	-0.092	-0.016
-242.946	16.298	0.134	0.104
-241.932	740.073	0.088	0.233
-240.917	19.220	0.161	0.127
-239.903	67.627	0.129	-0.129
-238.888	800.000	-0.055	-0.221
-237.873	-17.766	-0.282	-0.174
-236.859	-35.322	0.288	-0.154
-235.844	613.020	0.072	0.178
-234.830	634.930	0.132	0.330
-233.815	-52.196	-0.225	-0.103
-232.800	-123.542	-0.089	-0.014
-231.786	-99.094	0.064	0.016
-230.771	800.000	-0.065	-0.210
-229.757	800.000	0.132	-0.487
-228.742	-200.000	-0.026	-0.263
-227.727	800.000	-0.059	-0.162
-226.713	-161.802	-0.185	0.009
-225.698	-129.332	-0.227	0.031
-224.684	-74.352	0.102	-0.036
-223.669	231.453	0.079	-0.127
-222.655	93.850	0.073	0.081
-221.640	754.328	0.089	0.237
-220.625	-200.000	-0.017	0.123
-219.611	-44.908	-0.097	0.047
-218.596	345.390	-0.011	-0.021
-217.582	7.736	-0.161	-0.118
-216.567	-170.138	-0.206	0.007
-215.552	20.864	-0.138	0.110
-214.538	-88.613	-0.540	-0.158
-213.523	800.000	0.092	-0.268
-212.509	-200.000	0.017	0.182
-211.494	316.235	0.197	0.364
-210.479	-183.370	-0.189	-0.003
-209.465	345.285	-0.049	-0.094
-208.450	800.000	-0.140	0.433
-207.436	-121.376	0.060	0.010
-206.421	353.067	0.170	0.330
-205.406	800.000	-0.077	0.311
-204.392	-4.641	0.146	0.099
-203.377	-102.580	-0.085	0.020
-202.363	39.282	0.406	0.356
-201.348	515.746	0.139	0.317
-200.333	50.241	0.123	-0.114
-199.319	800.000	-0.053	0.145
-198.304	105.711	0.074	-0.085
-197.290	-200.000	-0.023	0.236
-196.275	-137.284	0.438	-0.049
-195.260	-2.277	-0.059	-0.041
-194.246	-200.000	-0.013	0.235
-193.231	241.956	0.261	-0.428
-192.217	624.088	0.063	-0.154
-191.202	2.389	0.159	0.113
-190.187	-147.875	0.127	-0.010
-189.173	-86.217	0.167	-0.051
-188.158	-200.000	0.034	0.259
-187.144	487.949	0.102	-0.227
-186.129	-14.186	0.322	0.204
-185.114	-3.470	-0.111	0.076
-184.100	39.951	0.227	0.200
-183.085	-200.000	-0.034	-0.164
-182.071	-104.911	-0.237	0.053
-181.056	800.000	-0.081	0.224
-180.042	345.032	-0.065	0.125
-179.027	-200.000	-0.006	0.069
-178.012	24.311	0.078	0.063
-176.998	800.000	0.112	-0.423
-175.983	-90.236	-0.163	-0.046
-174.969	774.564	0.110	-0.293
-173.954	-64.140	0.037	0.015
-172.939	-5.494	0.383	0.257
-171.925	-200.000	-0.008	-0.214
-170.910	-112.467	0.138	-0.027
-169.896	-159.290	0.424	-0.023
-168.881	-200.000	0.008	0.335
-167.866	-58.458	0.325	0.138
-166.852	118.837	0.155	-0.187
-165.837	-3.016	-0.026	0.018
-164.823	237.909	-0.031	-0.051
-163.808	777.764	-0.023	0.062
-162.793	-200.000	0.054	0.353
-161.779	-175.253	-0.414	0.011
-160.764	800.000	-0.136	0.452
-159.750	-200.000	0.008	0.073
-158.735	800.000	0.083	0.301
-157.720	624.615	0.119	0.293
-156.706	77.343	0.048	0.050
-155.691	-85.979	0.102	0.031
-154.677	-80.857	0.105	0.034
-153.662	14.247	0.358	0.273
-152.647	-200.000	-0.021	0.124
-151.633	788.638	-0.155	0.416
-150.618	287.080	0.039	-0.069
-149.604	-200.000	-0.031	0.402
-148.589	-84.970	-0.142	0.043
-147.574	-82.015	0.285	0.091
-146.560	800.000	-0.029	0.090
-145.545	112.008	-0.149	0.176
-144.531	-59.533	0.193	0.081
-143.516	182.832	0.146	-0.211
-142.502	37.686	-0.302	0.262
-141.487	800.000	-0.070	0.194
-140.472	-80.843	0.351	-0.114
-139.458	-156.385	0.183	0.011
-138.443	800.000	-0.069	-0.218
-137.429	-170.264	-0.331	-0.011
-136.414	800.000	-0.098	0.332
-135.399	441.995	0.074	0.159
-134.385	-200.000	-0.033	0.141
-133.370	256.625	-0.303	-0.508
-132.356	-60.762	0.083	0.034
-131.341	182.621	0.083	-0.119
-130.326	-105.147	0.168	0.038
-129.312	151.304	-0.157	-0.209
-128.297	-200.000	0.079	-0.454
-127.283	189.724	-0.172	-0.252
-126.268	-39.220	-0.034	-0.017
-125.253	-200.000	-0.047	0.373
-124.239	-137.816	0.407	0.045
-123.224	-83.918	-0.128	-0.040
-122.210	-200.000	0.001	-0.034
-121.195	82.166	-0.122	-0.129
-120.180	420.250	-0.042	0.087
-119.166	68.238	-0.345	-0.345
-118.151	-63.304	-0.347	0.139
-117.137	115.895	0.085	-0.101
-116.122	-27.889	0.250	-0.142
-115.107	-117.268	-0.187	-0.033
-114.093	39.384	0.253	-0.222
-113.078	-135.904	-0.215	-0.025
-112.064	105.879	-0.123	-0.142
-111.049	261.717	0.186	-0.315
-110.034	438.493	-0.126	0.268
-109.020	479.171	-0.112	-0.248
-108.005	175.666	-0.161	0.229
-106.991	156.700	0.215	-0.290
-105.976	-200.000	-0.077	0.349
-104.962	-128.108	-0.124	-0.017
-103.947	-90.080	0.070	0.020
-102.932	800.000	-0.080	0.266
-101.918	-151.776	-0.021	-0.002
-100.903	-125.517	-0.364	0.054
-99.889	597.866	-0.054	0.130
-98.874	635.676	-0.080	0.197
-97.859	-144.302	-0.410	0.037
-96.845	-31.606	0.095	0.052
-95.830	142.583	-0.070	0.091
-94.816	24.091	0.360	-0.290
-93.801	178.624	-0.096	0.136
-92.786	26.553	0.104	0.085
-91.772	73.500	-0.026	-0.027
-90.757	74.170	-0.022	-0.023
-89.743	-166.911	-0.307	0.012
-88.728	-32.504	-0.079	-0.043
-87.713	-12.981	0.106	0.067
-86.699	438.871	-0.147	0.312
-85.684	-74.800	0.237	0.083
-84.670	23.809	-0.199	0.160
-83.655	82.079	-0.204	-0.215
-82.640	350.646	-0.052	0.101
-81.626	640.712	-0.105	0.262
-80.611	364.947	0.109	-0.214
-79.597	-109.949	-0.134	0.027
-78.582	157.099	0.088	0.118
-77.567	800.000	0.118	0.385
-76.553	-145.565	-0.118	0.010
-75.538	-35.419	0.318	-0.168
-74.524	-66.113	0.150	0.058
-73.509	-138.138	0.081	-0.009
-72.494	-153.502	0.089	0.006
-71.480	101.720	-0.103	0.117
-70.465	800.000	-0.069	-0.214
-69.451	175.493	0.176	-0.249
-68.436	-95.574	0.046	-0.012
-67.422	209.038	0.193	0.294
-66.407	-33.021	0.042	-0.023
-65.392	422.698	-0.148	-0.310
-64.378	22.556	0.182	0.145
-63.363	-121.600	0.391	0.063
-62.349	-186.332	-0.599	-0.008
-61.334	39.776	-1.284	-1.123
-60.319	3.202	0.605	0.429
-59.305	601.578	-0.501	-1.213
-58.290	578.971	0.591	1.409
-57.276	800.000	0.495	1.381
-56.261	-200.000	125.172	650.348
-55.246	404.140	1578.606	3240.317
-54.232	141.478	2740.010	3535.740
-53.217	93.850	2190.535	2419.967
-52.203	33.726	1706.013	1446.030
-51.188	26.259	1523.335	1240.110
-50.173	24.318	1500.145	1208.047
-49.159	49.156	1571.416	1438.975
-48.144	46.095	1584.205	1429.374
-47.130	26.391	1533.068	1248.743
-46.115	23.514	1516.881	1215.822
-45.100	23.322	1513.373	1211.644
-44.086	23.237	1511.802	1209.759
-43.071	23.277	1509.282	1207.966
-42.057	23.234	1508.064	1206.651
-41.042	23.174	1506.051	1204.584
-40.027	23.233	1504.629	1203.800
-39.013	23.251	1503.388	1202.883
-37.998	23.169	1502.639	1201.681
-36.984	23.203	1501.106	1200.637
-35.969	23.127	1500.139	1199.299
-34.954	23.275	1497.825	1198.406
-33.940	23.151	1497.219	1197.035
-32.925	23.181	1495.498	1195.810
-31.911	23.293	1494.362	1195.614
-30.896	23.327	1492.385	1194.212
-29.881	23.290	1491.799	1193.447
-28.867	23.346	1490.203	1192.500
-27.852	23.260	1488.799	1190.749
-26.838	23.316	1487.481	1190.023
-25.823	23.269	1485.628	1188.183
-24.809	23.325	1484.111	1187.297
-23.794	23.274	1482.741	1185.813
-22.779	23.212	1482.101	1184.838
-21.765	23.376	1480.092	1184.278
-20.750	23.290	1479.453	1183.144
-19.736	23.280	1478.273	1182.087
-18.721	23.281	1477.009	1181.035
-17.706	23.239	1476.230	1180.086
-16.692	23.187	1475.843	1179.387
-15.677	23.221	1474.315	1178.344
-14.663	23.259	1473.198	1177.655
-13.648	23.230	1472.356	1176.747
-12.633	23.233	1471.745	1176.228
-11.619	23.238	1470.654	1175.345
-10.604	23.217	1469.420	1174.174
-9.590	23.290	1468.616	1173.969
-8.575	23.270	1467.715	1173.070
-7.560	23.288	1466.835	1172.439
-6.546	23.259	1466.388	1171.842
-5.531	23.305	1465.207	1171.155
-4.517	23.190	1464.696	1169.942
-3.502	23.219	1463.447	1169.087
-2.487	23.234	1462.461	1168.349
-1.473	23.135	1461.910	1167.209
-0.458	23.237	1460.184	1166.459
0.556	21.569	1450.029	1154.606
1.571	18.497	1425.503	1115.024
2.586	14.880	1363.942	1044.228
3.600	13.375	1280.242	971.233
4.615	12.485	1236.414	932.849
5.629	10.918	1180.054	881.761
6.644	5.374	1098.449	792.663
7.659	1.001	1062.713	745.324
8.673	0.287	1057.520	738.119
9.688	0.124	1054.737	735.312
10.702	0.250	1052.870	734.562
11.717	0.149	1050.491	732.349
12.731	1.991	1051.616	742.032
13.746	7.979	1059.845	777.054
14.761	14.252	1067.347	813.220
15.775	16.558	1070.118	826.540
16.790	16.388	1068.793	824.613
17.804	15.491	1066.898	818.705
18.819	14.727	1064.817	813.319
19.834	14.294	1063.321	810.001
20.848	13.997	1062.581	807.919
21.863	13.676	1061.937	805.800
22.877	13.585	1060.774	804.402
23.892	13.239	1060.223	802.235
24.907	13.275	1059.504	801.793
25.921	13.183	1058.867	800.794
26.936	13.238	1058.207	800.490
27.950	13.305	1057.339	800.089
28.965	13.306	1056.745	799.572
29.980	13.361	1055.642	798.934
30.994	13.328	1054.994	798.214
32.009	13.407	1053.905	797.699
33.023	13.500	1053.188	797.534
34.038	13.489	1052.018	796.524
35.053	13.427	1051.615	795.853
36.067	13.412	1050.782	795.080
37.082	13.313	1049.683	793.700
38.096	13.391	1049.031	793.510
39.111	13.479	1048.683	793.599
40.126	13.394	1048.047	792.643
41.140	13.478	1046.670	791.932
42.155	13.219	1045.618	789.827
43.169	13.262	1044.962	789.469
44.184	13.254	1043.812	788.489
45.199	13.273	1042.220	787.310
46.213	13.263	1042.043	787.059
47.228	13.336	1040.390	786.087
48.242	13.304	1039.744	785.377
49.257	13.340	1038.902	784.841
50.271	13.291	1037.617	783.570
51.286	13.402	1036.888	783.474
52.301	13.389	1035.922	782.616
53.315	13.439	1035.146	782.196
54.330	13.299	1034.764	781.178
55.344	13.330	1033.778	780.508
56.359	13.291	1032.398	779.217
57.374	13.295	1031.707	778.646
58.388	13.314	1030.299	777.600
59.403	13.213	1030.236	777.008
60.417	13.351	1029.005	776.659
61.432	13.281	1028.464	775.854
62.447	13.158	1027.899	774.782
63.461	13.194	1026.762	774.027
64.476	13.260	1025.948	773.653
65.490	13.238	1025.045	772.799
66.505	13.247	1024.148	772.100
67.520	13.175	1023.560	771.249
68.534	13.212	1023.238	771.113
69.549	13.194	1022.008	770.036
70.563	13.337	1021.002	769.872
71.578	13.251	1020.193	768.796
72.593	13.356	1019.215	768.479
73.607	13.219	1018.312	767.095
74.622	13.173	1017.670	766.329
75.636	13.232	1017.054	766.069
76.651	13.053	1016.226	764.549
77.666	13.173	1015.768	764.692
78.680	13.199	1014.672	763.920
79.695	13.222	1014.360	763.727
80.709	13.181	1013.412	762.756
81.724	13.103	1012.731	761.815
82.739	13.331	1011.579	761.930
83.753	13.200	1011.170	760.950
84.768	13.331	1010.175	760.736
85.782	13.453	1009.556	760.766
86.797	13.465	1008.708	760.114
87.812	13.358	1008.162	759.144
88.826	13.424	1007.008	758.510
89.841	13.345	1006.490	757.691
90.855	13.307	1005.856	756.976
91.870	13.430	1004.740	756.631
92.884	13.507	1004.065	756.403
93.899	13.491	1003.379	755.747
94.914	13.574	1002.458	755.365
95.928	13.435	1002.486	754.689
96.943	13.504	1001.235	753.994
97.957	13.394	1000.795	753.096
98.972	13.392	999.763	752.243
99.987	13.523	998.955	752.162
101.001	13.383	998.442	751.076
102.016	13.422	997.196	750.249
103.030	13.448	996.294	749.622
104.045	13.400	995.433	748.689
105.060	13.501	994.275	748.210
106.074	13.447	993.355	747.205
107.089	13.331	992.800	746.199
108.103	13.387	992.027	745.806
109.118	13.268	990.791	744.272
110.133	13.350	990.442	744.312
111.147	13.343	989.387	743.425
112.162	13.375	988.471	742.815
113.176	13.304	987.670	741.829
114.191	13.332	986.760	741.202
115.206	13.425	986.193	741.128
116.220	13.464	985.090	740.411
117.235	13.354	984.285	739.246
118.249	13.370	983.232	738.463
119.264	13.494	982.131	738.125
120.279	13.419	981.708	737.405
121.293	13.355	980.715	736.309
122.308	13.404	980.180	736.062
123.322	13.302	979.269	734.857
124.337	13.371	977.968	734.123
125.352	13.406	976.546	733.145
126.366	13.335	975.798	732.203
127.381	13.291	975.086	731.412
128.395	13.338	974.025	730.756
129.410	13.335	972.874	729.818
130.424	13.270	972.061	728.857
131.439	13.310	971.319	728.413
132.454	13.414	970.055	727.855
133.468	13.405	969.447	727.297
134.483	13.470	968.882	727.094
135.497	13.363	968.474	726.251
136.512	13.384	967.542	725.581
137.527	13.439	966.635	725.079
138.541	13.447	965.744	724.382
139.556	13.386	964.979	723.477
140.570	13.546	964.053	723.417
141.585	13.405	963.794	722.543
142.600	13.345	963.690	722.141
143.614	13.626	962.209	722.191
144.629	13.568	961.657	721.461
145.643	13.615	960.950	721.069
146.658	13.642	960.219	720.576
147.673	13.594	959.093	719.458
148.687	13.506	957.813	718.051
149.702	13.486	957.409	717.599
150.716	13.547	956.518	717.133
151.731	13.648	955.729	716.912
152.746	13.590	954.733	715.851
153.760	13.463	953.954	714.657
154.775	13.591	953.557	714.847
155.789	13.583	952.631	714.059
156.804	13.540	952.049	713.374
157.819	13.658	950.647	712.768
158.833	13.619	950.646	712.534
159.848	13.726	949.938	712.400
160.862	13.709	949.319	711.801
161.877	13.675	948.302	710.829
162.892	13.640	947.834	710.266
163.906	13.639	946.900	709.497
164.921	13.627	946.199	708.857
165.935	13.667	944.948	708.030
166.950	13.686	944.091	707.405
167.964	13.707	943.007	706.620
168.979	13.715	941.899	705.761
169.994	13.748	941.090	705.236
171.008	13.724	940.660	704.747
172.023	13.709	939.635	703.854
173.037	13.634	939.139	703.103
174.052	13.902	938.229	703.492
175.067	13.820	937.587	702.603
176.081	13.706	936.625	701.340
177.096	13.562	936.368	700.475
178.110	13.681	935.064	699.938
179.125	13.833	934.488	700.088
180.140	13.757	933.776	699.171
181.154	13.799	933.191	698.850
182.169	13.850	932.329	698.355
183.183	13.752	931.981	697.621
184.198	14.017	930.675	697.694
185.213	14.021	930.232	697.318
186.227	13.996	929.838	696.854
187.242	13.947	929.325	696.204
188.256	13.864	929.011	695.561
189.271	14.084	927.619	695.374
190.286	14.054	926.849	694.614
191.300	13.975	925.996	693.580
192.315	13.958	925.241	692.885
193.329	13.722	924.778	691.494
194.344	13.810	924.348	691.476
195.359	13.984	923.658	691.625
196.373	14.066	923.021	691.426
197.388	13.964	922.162	690.299
198.402	14.155	921.420	690.472
199.417	14.110	921.725	690.456
200.432	14.110	920.991	689.841
201.446	14.122	920.785	689.677
202.461	14.344	920.083	690.011
203.475	14.229	919.770	689.237
204.490	14.254	918.912	688.638
205.504	14.289	918.056	688.079
206.519	14.156	917.354	686.946
207.534	14.170	916.381	686.212
208.548	14.243	915.599	685.866
209.563	14.182	915.137	685.207
210.577	14.284	914.508	685.096
211.592	14.286	913.693	684.434
212.607	14.303	913.222	684.092
213.621	14.447	912.346	683.965
214.636	14.443	911.778	683.460
215.650	14.255	911.632	682.520
216.665	14.362	911.122	682.519
217.680	14.328	910.300	681.701
218.694	14.553	909.619	682.051
219.709	14.467	909.434	681.501
220.723	14.454	908.604	680.765
221.738	14.536	908.090	680.657
222.753	14.386	907.161	679.285
223.767	14.509	906.278	679.066
224.782	14.563	905.558	678.686
225.796	14.525	904.967	678.028
226.811	14.498	904.135	677.237
227.826	14.539	903.422	676.810
228.840	14.501	902.946	676.240
229.855	14.656	902.157	676.216
230.869	14.515	901.410	675.026
231.884	14.650	901.092	675.275
232.899	14.472	900.268	673.876
233.913	14.467	899.691	673.366
234.928	14.572	899.094	673.282
235.942	14.512	898.180	672.296
236.957	14.590	897.407	671.972
237.972	14.602	896.817	671.521
238.986	14.582	896.318	671.008
240.001	14.511	895.823	670.291
241.015	14.507	895.290	669.818
242.030	14.623	894.349	669.520
243.045	14.706	893.376	669.064
244.059	14.722	893.055	668.829
245.074	14.806	892.103	668.392
246.088	14.751	891.695	667.807
247.103	14.645	891.441	667.135
248.117	14.720	890.897	666.969
249.132	14.695	889.853	666.027
250.147	14.869	889.550	666.433
251.161	15.002	888.510	666.126
252.176	14.993	887.852	665.540
253.190	14.987	887.193	664.960
254.205	15.049	886.972	664.982
255.220	15.034	885.984	664.126
256.234	15.056	885.814	664.027
257.249	14.962	885.377	663.266
258.263	15.078	884.302	662.861
259.278	15.029	883.914	662.318
260.293	15.102	883.449	662.202
261.307	15.173	882.773	661.916
262.322	15.256	882.043	661.638
263.336	15.111	881.840	660.855
264.351	15.256	880.875	660.646
265.366	15.287	880.415	660.363
266.380	15.463	879.487	660.300
267.395	15.259	879.179	659.209
268.409	15.202	878.286	658.256
269.424	15.157	877.692	657.575
270.439	15.212	876.621	656.932
271.453	15.361	875.724	656.787
272.468	15.312	875.212	656.152
273.482	15.382	874.307	655.690
274.497	15.266	874.068	654.998
275.512	15.297	873.548	654.670
276.526	15.273	872.561	653.779
277.541	15.311	872.093	653.520
278.555	15.390	871.464	653.299
279.570	15.389	871.112	652.973
280.585	15.350	870.930	652.628
281.599	15.336	870.193	651.960
282.614	15.441	869.345	651.677
283.628	15.468	868.748	651.277
284.643	15.506	867.886	650.719
285.657	15.499	867.509	650.354
286.672	15.556	867.154	650.248
287.687	15.470	866.609	649.450
288.701	15.464	866.559	649.334
289.716	15.665	865.383	649.169
290.730	15.592	864.658	648.288
291.745	15.730	863.828	648.138
292.760	15.618	863.145	647.138
293.774	15.646	862.817	646.943
294.789	15.701	862.356	646.753
295.803	15.797	861.116	646.132
296.818	15.681	861.142	645.650
297.833	15.590	860.120	644.478
298.847	15.489	859.974	643.923
299.862	15.689	859.154	644.021
300.876	15.652	858.388	643.247
301.891	15.849	857.520	643.293
302.906	15.747	857.202	642.608
303.920	15.856	856.347	642.326
304.935	15.774	855.978	641.680
305.949	15.826	855.236	641.263
306.964	15.910	854.668	641.101
307.979	15.876	853.794	640.259
308.993	15.908	853.451	640.067
310.008	16.016	852.765	639.905
311.022	15.920	852.411	639.221
312.037	16.003	851.666	638.919
313.052	15.955	851.116	638.267
314.066	15.932	850.695	637.808
315.081	15.990	849.982	637.437
316.095	15.871	849.840	636.826
317.110	15.941	848.773	636.232
318.125	15.970	848.139	635.809
319.139	15.899	848.007	635.389
320.154	16.008	847.308	635.218
321.168	16.017	847.198	635.112
322.183	16.006	846.463	634.465
323.197	16.000	845.954	634.004
324.212	16.113	845.331	633.907
325.227	15.965	844.938	632.998
326.241	16.044	843.998	632.537
327.256	16.111	843.320	632.222
328.270	16.183	842.835	632.075
329.285	16.057	842.797	631.516
330.300	16.166	841.427	630.843
331.314	16.064	841.273	630.290
332.329	16.071	840.958	630.022
333.343	16.046	840.064	629.205
334.358	16.166	839.408	629.107
335.373	16.310	838.957	629.247
336.387	16.253	838.125	628.356
337.402	16.364	838.103	628.699
338.416	16.172	837.556	627.516
339.431	16.394	836.577	627.555
340.446	16.400	836.137	627.190
341.460	16.364	835.789	626.740
342.475	16.448	835.041	626.435
343.489	16.455	834.440	625.954
344.504	16.407	833.924	625.334
345.519	16.564	833.178	625.299
346.533	16.506	833.388	625.189
347.548	16.579	832.623	624.830
348.562	16.462	832.219	624.037
349.577	16.390	831.701	623.328
350.592	16.457	831.165	623.117
351.606	16.471	830.841	622.872
352.621	16.309	830.329	621.837
353.635	16.474	829.902	622.069
354.650	16.529	829.635	622.017
355.665	16.564	828.681	621.373
356.679	16.534	828.559	621.117
357.694	16.553	828.017	620.726
358.708	16.775	827.092	620.791
359.723	16.617	826.771	619.916
360.738	16.492	826.274	619.034
361.752	16.455	826.094	618.707
362.767	16.701	825.617	619.193
363.781	16.608	825.071	618.390
364.796	16.620	824.545	617.987
365.810	16.666	824.251	617.879
366.825	16.859	823.176	617.720
367.840	16.728	823.282	617.267
368.854	16.754	822.883	617.012
369.869	16.809	822.463	616.841
370.883	16.835	821.967	616.507
371.898	16.832	821.172	615.848
372.913	16.959	820.140	615.480
373.927	16.860	820.057	615.002
374.942	17.073	818.931	614.875
375.956	16.883	818.402	613.736
376.971	16.994	817.896	613.705
377.986	16.986	817.428	613.270
379.000	16.991	817.523	613.305
380.015	17.142	816.613	613.112
381.029	17.082	816.001	612.382
382.044	17.224	815.363	612.361
383.059	17.114	814.834	611.513
384.073	17.024	814.596	610.957
385.088	17.122	813.727	610.606
386.102	17.075	813.563	610.257
387.117	17.095	813.104	609.933
388.132	16.949	812.944	609.234
389.146	17.014	812.168	608.830
390.161	17.171	811.994	609.210
391.175	17.108	811.136	608.285
392.190	17.023	810.993	607.823
393.205	17.196	810.613	608.104
394.219	17.167	810.118	607.574
395.234	17.226	809.175	607.022
396.248	17.215	808.718	606.589
397.263	17.008	808.738	605.810
398.278	17.154	808.010	605.732
399.292	17.051	807.497	604.927
400.307	17.220	807.150	605.214
401.321	17.174	806.885	604.799
402.336	17.052	806.842	604.278
403.350	17.265	805.976	604.333
404.365	17.176	805.742	603.790
405.380	17.164	805.264	603.335
406.394	17.201	804.724	603.006
407.409	17.543	803.707	603.404
408.423	17.393	803.741	602.845
409.438	17.543	802.954	602.732
410.453	17.513	802.377	602.140
411.467	17.535	802.073	601.937
412.482	17.533	801.990	601.813
413.496	17.619	801.227	601.491
414.511	17.549	800.930	600.968
415.526	17.474	800.461	600.299
416.540	17.619	800.209	600.566
417.555	17.732	799.695	600.527
418.569	17.504	799.319	599.387
419.584	17.578	798.750	599.169
420.599	17.653	798.216	598.979
421.613	113.944	1297.847	1488.744
422.628	98.183	1370.625	1488.834
