DTS Sentinel unit serial number:	SN413079Multiplexer serial number:	ORYXHardware model number:	OX4-SRSoftware version number:	ORYX F/W v4.00 Oryx Data Collector v3.7.2.0data status	okinstallation	princeton_trtdifferential loss correction	single-endedforward channel	channel 3reverse channel	N/Adate	2019/09/18time	02:16:35forward acquisition time	60.00reverse acquisition time	0.00gamma	496.2192k internal	0.2344k external	0.2344temperature offset calibration	0.9952default loss term (dB/km)	0.3790temperature slope calibration	1.0000multiplexer offset coefficient	1.0000multiplexer slope coefficient	1.0000fibre end	0.00T internal ref (°C)	22.81T ext. ref 1 (°C)	0.16T ext. ref 2 (°C)	16.75length (m)	temperature (°C)	Stokes	anti-Stokes-747.200	-72.837	-0.284	-0.104
-746.185	264.843	-0.050	0.087
-745.171	488.403	0.053	-0.122
-744.156	-4.483	-0.290	0.201
-743.142	12.281	-0.057	-0.044
-742.127	80.150	-0.110	0.119
-741.112	455.688	0.232	-0.514
-740.098	-43.887	-0.200	0.101
-739.083	203.977	0.048	0.074
-738.069	257.055	-0.204	0.351
-737.054	-200.000	-0.012	0.089
-736.039	800.000	0.049	-0.177
-735.025	-91.923	0.247	0.070
-734.010	107.523	-0.125	0.149
-732.996	8.546	-0.073	-0.055
-731.981	-200.000	0.048	-0.213
-730.966	-162.567	-0.192	0.009
-729.952	334.864	0.201	-0.389
-728.937	-64.325	-0.242	-0.099
-727.923	274.905	-0.140	-0.249
-726.908	-14.046	-0.082	0.053
-725.894	214.225	0.124	-0.197
-724.879	5.590	0.190	-0.141
-723.864	-200.000	0.048	0.265
-722.850	-32.427	-0.274	-0.153
-721.835	73.168	-0.095	-0.099
-720.821	-200.000	-0.061	-0.287
-719.806	12.941	-0.197	0.152
-718.791	-54.548	0.156	0.071
-717.777	337.867	0.207	-0.402
-716.762	11.636	-0.270	0.207
-715.748	-76.747	0.220	-0.077
-714.733	-157.943	-0.379	-0.022
-713.718	302.692	0.161	-0.297
-712.704	-200.000	-0.331	-0.000
-711.689	-70.983	0.073	-0.028
-710.675	800.000	0.034	-0.134
-709.660	452.443	0.095	-0.209
-708.645	800.000	0.094	0.355
-707.631	206.080	-0.154	-0.239
-706.616	-200.000	-0.016	-0.285
-705.602	-200.000	0.020	-0.110
-704.587	-200.000	0.007	-0.106
-703.572	-200.000	-0.042	-0.195
-702.558	192.363	-0.110	0.165
-701.543	79.019	0.072	0.077
-700.529	-200.000	-0.022	0.100
-699.514	423.261	0.193	0.414
-698.499	-200.000	0.004	-0.053
-697.485	-161.449	-0.157	0.008
-696.470	-61.015	0.112	0.047
-695.456	98.260	0.177	-0.203
-694.441	-200.000	-0.002	0.122
-693.426	381.861	0.109	-0.223
-692.412	176.030	-0.099	-0.144
-691.397	-184.469	-0.125	-0.002
-690.383	47.062	-0.177	-0.164
-689.368	-200.000	0.029	-0.185
-688.354	-135.588	-0.339	0.040
-687.339	-32.690	-0.087	0.048
-686.324	-166.512	0.087	-0.004
-685.310	126.418	0.148	0.187
-684.295	-200.000	-0.051	-0.229
-683.281	-80.928	-0.179	0.059
-682.266	-200.000	0.074	-0.377
-681.251	-200.000	-0.019	-0.241
-680.237	168.409	-0.100	0.143
-679.222	-24.346	-0.167	-0.099
-678.208	800.000	-0.062	0.242
-677.193	-164.780	-0.445	-0.020
-676.178	70.991	0.094	0.097
-675.164	-6.028	-0.119	-0.081
-674.149	5.758	-0.141	-0.104
-673.135	-200.000	0.052	0.274
-672.120	693.915	-0.011	-0.030
-671.105	-134.866	-0.223	0.027
-670.091	-47.192	-0.266	0.129
-669.076	508.435	0.049	-0.114
-668.062	-200.000	0.015	0.225
-667.047	19.369	0.048	-0.038
-666.032	546.392	-0.069	0.164
-665.018	-44.426	0.079	0.039
-664.003	-155.764	0.055	0.004
-662.989	130.280	0.064	-0.081
-661.974	-125.011	-0.280	0.043
-660.959	200.754	0.034	0.052
-659.945	800.000	0.013	-0.038
-658.930	800.000	0.137	-0.402
-657.916	-75.990	-0.258	-0.091
-656.901	800.000	0.053	0.155
-655.886	25.940	0.214	0.178
-654.872	379.073	0.020	0.040
-653.857	53.600	0.233	-0.223
-652.843	-200.000	0.015	0.196
-651.828	236.973	0.004	-0.006
-650.814	-200.000	-0.002	-0.077
-649.799	-40.210	-0.126	0.065
-648.784	-43.401	-0.622	-0.313
-647.770	-20.021	0.194	-0.119
-646.755	273.773	-0.055	-0.097
-645.741	-200.000	-0.013	0.160
-644.726	29.249	-0.056	-0.047
-643.711	-200.000	-0.030	0.280
-642.697	189.416	-0.106	-0.158
-641.682	3.902	0.046	-0.033
-640.668	54.967	-0.107	-0.103
-639.653	-200.000	-0.012	0.129
-638.638	578.917	-0.080	-0.196
-637.624	-74.982	-0.164	-0.058
-636.609	84.928	-0.061	-0.067
-635.595	-200.000	0.014	0.231
-634.580	20.247	0.201	0.162
-633.565	266.727	-0.117	-0.205
-632.551	715.715	0.026	0.068
-631.536	-83.802	0.351	0.111
-630.522	-45.077	-0.099	0.049
-629.507	97.702	0.002	-0.003
-628.492	29.387	-0.137	0.116
-627.478	-110.248	-0.340	-0.070
-626.463	-86.857	-0.293	0.089
-625.449	128.859	0.116	-0.148
-624.434	800.000	0.050	-0.193
-623.419	613.811	0.066	0.165
-622.405	-200.000	-0.073	0.361
-621.390	800.000	0.006	0.020
-620.376	486.883	0.060	-0.136
-619.361	-107.152	-0.159	0.035
-618.346	800.000	0.073	0.202
-617.332	800.000	0.041	-0.157
-616.317	12.280	-0.288	0.221
-615.303	-144.393	0.280	0.026
-614.288	-200.000	0.000	-0.200
-613.273	209.394	-0.049	0.076
-612.259	98.080	0.055	0.063
-611.244	-200.000	-0.079	-0.401
-610.230	-40.083	0.135	0.070
-609.215	-163.264	-0.120	-0.006
-608.201	-92.276	0.212	-0.060
-607.186	452.868	-0.116	-0.255
-606.171	-200.000	0.044	-0.259
-605.157	-8.832	-0.199	-0.133
-604.142	-73.983	0.175	0.063
-603.128	-31.160	-0.059	-0.033
-602.113	-108.610	0.244	-0.052
-601.098	-162.282	-0.077	0.004
-600.084	-113.467	-0.327	-0.064
-599.069	48.711	-0.310	-0.289
-598.055	102.706	0.134	-0.156
-597.040	126.702	0.147	0.185
-596.025	326.520	-0.133	-0.254
-595.011	254.449	0.123	-0.209
-593.996	65.153	0.140	-0.141
-592.982	120.416	0.104	0.129
-591.967	-200.000	0.042	0.302
-590.952	800.000	0.053	0.230
-589.938	287.842	0.052	-0.094
-588.923	650.050	-0.035	-0.090
-587.909	452.886	0.029	0.065
-586.894	-91.057	-0.031	-0.009
-585.879	75.783	-0.079	-0.083
-584.865	-104.466	-0.173	0.040
-583.850	-131.247	0.261	0.035
-582.836	255.901	-0.066	0.113
-581.821	-93.649	0.212	-0.058
-580.806	-194.736	-0.183	0.001
-579.792	149.421	-0.093	-0.125
-578.777	-30.833	0.119	-0.067
-577.763	-142.588	0.209	0.020
-576.748	209.364	-0.162	-0.252
-575.733	-168.175	-0.210	-0.008
-574.719	-86.825	-0.192	-0.058
-573.704	14.549	0.220	-0.170
-572.690	-71.122	-0.085	-0.032
-571.675	533.045	0.088	-0.207
-570.661	-61.409	-0.120	0.050
-569.646	406.568	-0.008	0.016
-568.631	132.860	-0.047	0.060
-567.617	10.197	0.053	0.040
-566.602	800.000	-0.049	-0.137
-565.588	-10.524	0.163	-0.107
-564.573	-97.619	-0.286	-0.074
-563.558	-58.023	-0.054	0.023
-562.544	49.981	-0.103	0.096
-561.529	-200.000	-0.001	-0.200
-560.515	-200.000	-0.037	0.294
-559.500	800.000	-0.132	0.424
-558.485	-137.680	-0.046	-0.005
-557.471	69.078	0.140	0.143
-556.456	800.000	-0.064	-0.198
-555.442	-24.684	0.119	-0.070
-554.427	800.000	0.065	-0.245
-553.412	309.116	0.080	0.148
-552.398	232.001	-0.088	-0.143
-551.383	-200.000	-0.004	0.207
-550.369	93.569	0.074	-0.084
-549.354	-78.983	-0.234	0.079
-548.339	-200.000	0.109	-0.583
-547.325	-65.166	-0.296	0.118
-546.310	800.000	0.081	-0.248
-545.296	37.141	-0.295	-0.259
-544.281	-40.643	-0.396	0.204
-543.266	-140.279	0.229	0.024
-542.252	-200.000	-0.008	0.261
-541.237	-140.937	-0.098	0.010
-540.223	126.479	-0.092	0.116
-539.208	-148.836	-0.534	-0.043
-538.193	370.862	0.200	0.403
-537.179	-200.000	0.027	-0.262
-536.164	-25.308	0.073	0.043
-535.150	-42.572	-0.262	-0.132
-534.135	800.000	-0.079	0.335
-533.121	328.619	0.036	0.068
-532.106	11.179	0.332	-0.252
-531.091	309.183	0.095	-0.177
-530.077	345.621	0.151	-0.294
-529.062	-200.000	-0.033	0.176
-528.048	-200.000	-0.029	-0.222
-527.033	-200.000	0.001	-0.032
-526.018	-92.148	0.237	-0.066
-525.004	162.180	0.211	-0.294
-523.989	800.000	-0.135	-0.429
-522.975	800.000	0.116	0.340
-521.960	-104.354	0.228	-0.052
-520.945	-121.964	-0.156	-0.025
-519.931	800.000	-0.027	-0.115
-518.916	-56.131	-0.142	-0.063
-517.902	629.458	-0.164	-0.410
-516.887	-200.000	-0.005	-0.211
-515.872	-103.838	0.069	0.016
-514.858	800.000	0.030	0.104
-513.843	64.935	-0.253	-0.253
-512.829	-200.000	-0.007	0.151
-511.814	-200.000	0.058	-0.306
-510.799	-112.334	0.074	0.015
-509.785	553.203	0.075	0.178
-508.770	-149.327	-0.236	-0.019
-507.756	684.151	0.081	0.209
-506.741	170.957	0.068	0.097
-505.726	-120.306	0.321	0.054
-504.712	-123.614	0.427	-0.067
-503.697	800.000	-0.079	0.228
-502.683	6.301	-0.130	-0.096
-501.668	800.000	-0.029	-0.112
-500.653	675.077	0.104	0.269
-499.639	-76.372	-0.178	0.062
-498.624	184.848	0.106	-0.155
-497.610	-115.292	0.312	-0.058
-496.595	-200.000	-0.018	0.217
-495.581	-30.660	-0.247	0.139
-494.566	800.000	-0.080	0.344
-493.551	800.000	-0.049	-0.199
-492.537	0.907	0.478	0.339
-491.522	-2.111	-0.254	-0.177
-490.508	-85.685	0.373	0.115
-489.493	800.000	-0.030	0.124
-488.478	-80.424	-0.272	0.090
-487.464	148.337	0.242	0.323
-486.449	-99.395	0.293	-0.073
-485.435	-139.593	-0.181	0.019
-484.420	800.000	-0.037	0.157
-483.405	16.799	0.121	-0.095
-482.391	43.201	0.152	-0.137
-481.376	21.859	0.192	0.155
-480.362	613.317	0.010	-0.025
-479.347	-200.000	-0.033	-0.167
-478.332	48.770	0.062	-0.058
-477.318	-200.000	0.051	0.254
-476.303	-91.423	0.121	-0.034
-475.289	800.000	-0.026	-0.081
-474.274	517.366	0.104	-0.240
-473.259	-200.000	-0.101	0.443
-472.245	-200.000	-0.030	0.240
-471.230	-119.346	0.245	-0.042
-470.216	5.593	-0.267	0.195
-469.201	212.440	0.142	0.221
-468.186	187.752	-0.190	0.281
-467.172	-7.023	0.109	-0.073
-466.157	800.000	-0.093	-0.282
-465.143	-62.006	0.059	-0.024
-464.128	174.435	0.098	0.140
-463.113	-200.000	0.033	-0.164
-462.099	266.947	-0.096	-0.166
-461.084	-200.000	0.075	-0.369
-460.070	344.853	-0.077	-0.149
-459.055	-85.439	0.170	-0.052
-458.040	-75.842	0.165	0.058
-457.026	-28.705	0.065	0.037
-456.011	15.727	0.065	0.051
-454.997	-200.000	0.036	0.241
-453.982	-200.000	0.051	-0.321
-452.968	-38.809	0.172	0.090
-451.953	800.000	0.096	0.310
-450.938	-50.740	-0.071	0.033
-449.924	-69.855	-0.181	-0.068
-448.909	218.244	-0.030	0.048
-447.895	-30.501	0.140	0.078
-446.880	-8.436	-0.266	0.177
-445.865	712.693	0.062	0.162
-444.851	305.282	-0.084	0.154
-443.836	-169.690	-0.065	-0.002
-442.822	800.000	0.081	0.325
-441.807	-15.765	0.067	-0.042
-440.792	-110.997	0.199	0.040
-439.778	-55.334	0.090	0.040
-438.763	-119.155	-0.048	0.008
-437.749	-200.000	-0.008	0.052
-436.734	-75.637	-0.044	0.015
-435.719	627.783	0.072	0.179
-434.705	-6.168	0.269	-0.182
-433.690	33.633	-0.201	-0.173
-432.676	800.000	-0.082	-0.302
-431.661	-19.044	-0.284	-0.175
-430.646	132.847	-0.093	-0.118
-429.632	61.218	0.050	0.049
-428.617	-22.281	0.154	0.092
-427.603	497.322	-0.056	0.128
-426.588	-116.091	-0.070	-0.013
-425.573	-200.000	-0.004	0.388
-424.559	-108.795	-0.150	0.032
-423.544	-64.685	0.156	-0.062
-422.530	191.838	-0.142	-0.211
-421.515	-91.358	0.142	-0.040
-420.500	-200.000	-0.028	0.433
-419.486	-154.623	-0.023	0.002
-418.471	-200.000	0.047	0.314
-417.457	-34.501	-0.393	0.213
-416.442	-120.860	0.287	0.048
-415.428	-145.114	0.054	-0.005
-414.413	800.000	-0.108	-0.311
-413.398	-200.000	-0.045	0.266
-412.384	32.732	0.180	0.154
-411.369	-200.000	-0.021	-0.135
-410.355	-72.923	-0.417	-0.151
-409.340	-129.881	-0.096	0.013
-408.325	286.217	0.114	-0.203
-407.311	-200.000	0.040	-0.187
-406.296	-200.000	0.021	-0.159
-405.282	800.000	0.052	-0.157
-404.267	-112.865	-0.516	-0.101
-403.252	-200.000	0.019	0.090
-402.238	-200.000	0.043	0.334
-401.223	388.412	-0.138	-0.282
-400.209	300.836	0.078	-0.143
-399.194	-200.000	-0.003	-0.134
-398.179	800.000	0.040	0.148
-397.165	460.557	-0.132	0.290
-396.150	514.610	0.142	-0.328
-395.136	125.243	0.225	-0.280
-394.121	800.000	-0.057	0.244
-393.106	-7.130	0.118	0.079
-392.092	-15.596	-0.382	0.241
-391.077	97.503	0.192	0.218
-390.063	-14.475	0.157	0.100
-389.048	-137.204	0.323	0.036
-388.033	305.961	-0.173	-0.318
-387.019	-0.103	0.080	-0.056
-386.004	302.620	-0.077	0.141
-384.990	-86.881	0.246	0.074
-383.975	-88.573	0.141	-0.041
-382.960	-64.743	0.298	-0.119
-381.946	-89.718	0.160	0.046
-380.931	-29.795	-0.239	-0.135
-379.917	28.736	-0.082	0.068
-378.902	-100.620	-0.163	0.040
-377.888	-57.969	0.126	0.054
-376.873	-200.000	-0.006	-0.279
-375.858	143.168	0.216	0.284
-374.844	110.048	-0.180	0.213
-373.829	-133.704	-0.017	-0.002
-372.815	201.959	0.127	0.193
-371.800	-18.241	-0.078	0.048
-370.785	-136.672	-0.346	0.039
-369.771	7.509	-0.102	0.075
-368.756	83.677	-0.257	0.276
-367.742	306.411	0.108	0.198
-366.727	-89.948	0.339	0.098
-365.712	66.191	-0.230	0.231
-364.698	-118.905	-0.056	0.010
-363.683	12.723	0.069	0.052
-362.669	-90.649	-0.194	-0.055
-361.654	800.000	0.067	0.262
-360.639	50.946	-0.179	0.167
-359.625	-102.374	0.224	-0.053
-358.610	-200.000	-0.001	-0.168
-357.596	-119.067	0.142	-0.024
-356.581	800.000	-0.072	-0.196
-355.566	779.137	-0.055	-0.149
-354.552	-48.124	0.255	-0.121
-353.537	-27.019	-0.098	-0.056
-352.523	339.713	0.156	0.300
-351.508	-18.873	-0.292	0.179
-350.493	-200.000	-0.017	0.126
-349.479	-29.984	-0.272	-0.153
-348.464	-55.963	-0.110	-0.048
-347.450	-200.000	-0.077	0.357
-346.435	800.000	-0.076	-0.218
-345.420	69.221	-0.217	-0.220
-344.406	23.919	-0.098	0.079
-343.391	69.748	-0.189	0.192
-342.377	-140.906	0.432	0.044
-341.362	-92.179	0.276	-0.077
-340.348	800.000	-0.081	0.315
-339.333	87.755	0.059	0.065
-338.318	800.000	-0.067	0.207
-337.304	-170.010	0.234	-0.008
-336.289	-200.000	0.050	-0.243
-335.275	-200.000	0.003	0.051
-334.260	-129.204	-0.232	0.032
-333.245	57.901	0.192	-0.185
-332.231	-12.086	-0.364	-0.235
-331.216	-151.139	0.057	0.004
-330.202	-123.382	-0.419	-0.066
-329.187	800.000	0.035	-0.140
-328.172	126.360	-0.121	-0.151
-327.158	265.969	0.154	0.265
-326.143	42.496	0.062	-0.056
-325.129	136.527	0.049	0.063
-324.114	800.000	0.050	0.178
-323.099	-31.535	-0.211	-0.117
-322.085	472.496	-0.107	0.237
-321.070	93.028	0.104	-0.115
-320.056	-170.849	0.139	-0.005
-319.041	800.000	0.031	0.088
-318.026	775.821	-0.095	-0.255
-317.012	42.462	-0.243	-0.218
-315.997	-87.527	0.088	-0.026
-314.983	-10.875	0.195	0.127
-313.968	-126.677	0.168	0.024
-312.953	29.977	-0.222	-0.186
-311.939	508.617	-0.127	-0.291
-310.924	-78.431	0.087	0.029
-309.910	11.527	0.164	0.124
-308.895	294.858	-0.095	0.171
-307.880	427.343	-0.042	-0.088
-306.866	41.024	0.349	0.310
-305.851	319.831	0.097	0.182
-304.837	-200.000	0.015	-0.073
-303.822	-200.000	0.013	-0.129
-302.807	-200.000	-0.056	-0.358
-301.793	392.130	-0.035	-0.072
-300.778	-62.723	-0.175	0.071
-299.764	-186.178	0.421	-0.006
-298.749	800.000	0.098	0.282
-297.735	-200.000	-0.016	0.278
-296.720	-131.573	-0.315	0.041
-295.705	-84.133	-0.239	-0.075
-294.691	3.402	-0.092	0.066
-293.676	181.508	-0.177	-0.256
-292.662	130.073	-0.241	-0.303
-291.647	-200.000	-0.003	-0.122
-290.632	-200.000	0.043	-0.219
-289.618	800.000	-0.029	0.119
-288.603	-200.000	-0.033	-0.319
-287.589	-56.949	-0.102	0.044
-286.574	-139.877	-0.041	-0.004
-285.559	74.673	0.162	-0.167
-284.545	604.868	-0.038	-0.093
-283.530	163.979	0.048	0.067
-282.516	-200.000	0.049	-0.283
-281.501	97.155	-0.201	-0.227
-280.486	-200.000	0.001	0.418
-279.472	-88.619	-0.187	-0.055
-278.457	-51.524	0.201	-0.092
-277.443	487.665	-0.050	0.113
-276.428	800.000	0.064	0.201
-275.413	-200.000	-0.029	-0.199
-274.399	-200.000	0.023	0.100
-273.384	-200.000	-0.035	-0.428
-272.370	7.142	0.237	0.174
-271.355	-200.000	0.023	0.146
-270.340	800.000	0.028	-0.103
-269.326	-124.676	0.230	0.035
-268.311	-200.000	0.004	-0.096
-267.297	268.204	-0.017	0.030
-266.282	-104.463	0.259	0.059
-265.267	-142.526	0.243	-0.023
-264.253	-84.205	-0.129	0.040
-263.238	-126.432	-0.354	-0.052
-262.224	-200.000	0.011	0.191
-261.209	800.000	0.051	-0.200
-260.195	-57.373	0.439	0.189
-259.180	-145.849	-0.236	0.021
-258.165	111.206	-0.150	-0.178
-257.151	708.061	0.046	0.120
-256.136	152.969	0.180	0.242
-255.122	23.412	0.060	-0.048
-254.107	224.919	-0.052	0.083
-253.092	4.775	0.170	0.123
-252.078	-63.904	-0.180	-0.072
-251.063	-54.608	0.305	0.136
-250.049	28.402	-0.197	0.164
-249.034	-200.000	0.032	-0.168
-248.019	-200.000	-0.002	0.051
-247.005	-159.850	-0.222	0.012
-245.990	261.831	0.218	-0.371
-244.976	-3.339	-0.076	0.052
-243.961	-35.362	-0.395	0.211
-242.946	17.970	0.240	-0.187
-241.932	-187.783	0.525	-0.007
-240.917	182.934	0.121	-0.175
-239.903	800.000	0.101	-0.296
-238.888	-160.784	-0.187	0.010
-237.873	-200.000	0.023	-0.236
-236.859	487.496	-0.153	-0.342
-235.844	77.432	0.225	-0.235
-234.830	43.078	0.178	0.160
-233.815	-130.821	-0.371	-0.049
-232.800	275.271	-0.155	-0.270
-231.786	-200.000	0.013	0.376
-230.771	235.198	0.201	-0.325
-229.757	65.208	0.222	-0.220
-228.742	-200.000	0.049	0.263
-227.727	800.000	-0.026	-0.073
-226.713	-162.519	-0.096	0.005
-225.698	67.852	0.084	0.085
-224.684	-104.855	0.201	0.045
-223.669	-200.000	0.016	-0.076
-222.655	-200.000	-0.017	0.176
-221.640	-5.427	-0.129	0.087
-220.625	9.988	-0.285	-0.212
-219.611	800.000	-0.030	0.125
-218.596	551.251	-0.173	0.408
-217.582	-113.052	-0.121	-0.023
-216.567	-189.416	0.458	0.005
-215.552	241.463	0.071	0.116
-214.538	179.267	0.110	-0.157
-213.523	-200.000	0.004	0.180
-212.509	-51.728	0.297	-0.136
-211.494	-94.759	-0.450	-0.120
-210.479	-200.000	0.038	-0.331
-209.465	61.595	0.093	0.090
-208.450	800.000	-0.056	-0.186
-207.436	-22.369	0.266	-0.158
-206.421	-137.358	0.394	-0.044
-205.406	384.865	-0.147	-0.296
-204.392	800.000	0.105	0.311
-203.377	191.935	0.089	-0.131
-202.363	-38.776	-0.223	0.115
-201.348	-143.457	-0.150	-0.014
-200.333	519.868	0.101	-0.231
-199.319	15.886	-0.274	-0.211
-198.304	-79.238	0.096	0.032
-197.290	345.758	-0.031	-0.059
-196.275	-66.137	0.116	0.045
-195.260	-5.895	0.173	0.116
-194.246	-118.854	-0.084	0.014
-193.231	61.667	-0.173	0.169
-192.217	358.558	-0.193	0.378
-191.202	238.914	-0.057	-0.093
-190.187	-0.794	0.051	0.036
-189.173	-15.008	-0.017	-0.011
-188.158	-101.930	-0.102	-0.024
-187.144	178.096	0.200	0.285
-186.129	-200.000	0.001	0.183
-185.114	-40.704	0.253	0.128
-184.100	262.262	-0.048	0.081
-183.085	-54.505	0.216	-0.096
-182.071	284.043	-0.075	-0.133
-181.056	-200.000	-0.044	-0.215
-180.042	-103.375	-0.214	-0.049
-179.027	-154.190	0.169	-0.011
-178.012	-68.015	-0.231	-0.088
-176.998	-153.338	-0.341	-0.023
-175.983	60.249	0.069	-0.067
-174.969	24.898	-0.186	-0.151
-173.954	-200.000	0.021	0.371
-172.939	-32.585	-0.129	0.070
-171.925	568.860	-0.031	0.073
-170.910	-136.351	0.088	0.010
-169.896	505.829	-0.096	0.217
-168.881	800.000	0.080	0.331
-167.866	-97.857	0.266	0.067
-166.852	-85.226	0.062	0.019
-165.837	47.422	-0.147	0.134
-164.823	753.781	0.020	-0.054
-163.808	-134.062	-0.085	-0.010
-162.793	-96.763	0.224	-0.058
-161.779	-1.384	0.159	0.110
-160.764	-90.596	-0.067	-0.019
-159.750	-173.175	-0.345	-0.010
-158.735	-103.896	0.158	0.036
-157.720	-7.684	0.130	-0.086
-156.706	160.852	0.157	0.215
-155.691	-86.918	0.134	0.040
-154.677	-66.437	-0.082	0.032
-153.662	-63.564	0.178	0.072
-152.647	-26.964	0.229	0.130
-151.633	34.713	0.027	0.023
-150.618	741.436	-0.075	-0.198
-149.604	581.005	0.149	0.358
-148.589	505.270	-0.203	-0.461
-147.574	-152.981	-0.396	-0.027
-146.560	344.356	-0.028	0.053
-145.545	191.737	0.098	0.144
-144.531	44.077	0.423	0.379
-143.516	494.304	0.083	-0.186
-142.502	-53.532	-0.096	-0.043
-141.487	-32.102	0.353	0.193
-140.472	59.401	-0.199	0.191
-139.458	-200.000	0.007	0.134
-138.443	-76.537	0.366	-0.126
-137.429	-109.141	-0.096	0.020
-136.414	16.247	-0.048	-0.037
-135.399	-124.199	0.165	-0.025
-134.385	299.846	0.107	-0.193
-133.370	-36.023	-0.161	0.085
-132.356	219.206	-0.233	0.364
-131.341	-132.336	-0.266	-0.034
-130.326	-125.322	0.192	0.029
-129.312	494.232	0.140	0.314
-128.297	98.906	-0.100	-0.113
-127.283	-200.000	-0.036	0.164
-126.268	94.612	-0.135	0.150
-125.253	49.994	0.118	0.108
-124.239	-200.000	-0.018	-0.227
-123.224	-200.000	0.046	-0.395
-122.210	367.287	0.115	-0.227
-121.195	72.606	-0.111	-0.113
-120.180	110.634	0.149	-0.175
-119.166	-119.822	0.271	0.046
-118.151	-111.935	-0.422	0.083
-117.137	-200.000	-0.079	-0.366
-116.122	-67.138	-0.220	0.085
-115.107	49.122	0.178	0.163
-114.093	166.365	-0.089	-0.122
-113.078	-19.013	0.138	-0.084
-112.064	17.947	-0.167	0.130
-111.049	-51.343	0.322	0.147
-110.034	-194.688	-0.201	-0.002
-109.020	-200.000	0.061	-0.279
-108.005	800.000	0.009	0.038
-106.991	243.936	-0.106	0.173
-105.976	24.445	-0.142	0.115
-104.962	93.883	0.231	0.256
-103.947	800.000	0.072	-0.194
-102.932	-200.000	-0.017	0.097
-101.918	-135.882	-0.073	-0.008
-100.903	-181.685	0.155	-0.003
-99.889	-200.000	-0.043	0.299
-98.874	195.444	-0.184	-0.273
-97.859	104.688	0.116	0.133
-96.845	-200.000	-0.005	-0.166
-95.830	584.141	-0.095	-0.227
-94.816	165.133	-0.237	0.327
-93.801	-157.145	-0.377	0.022
-92.786	157.403	0.099	0.133
-91.772	-70.528	-0.135	0.050
-90.757	-1.763	-0.110	-0.076
-89.743	-4.058	0.064	-0.043
-88.728	-200.000	0.004	-0.193
-87.713	-200.000	-0.005	-0.136
-86.699	28.408	0.145	-0.120
-85.684	-82.302	-0.280	0.089
-84.670	-99.279	0.185	0.046
-83.655	-162.261	0.078	0.004
-82.640	277.701	0.095	-0.165
-81.626	-63.352	-0.225	-0.090
-80.611	16.842	0.141	0.109
-79.597	140.518	-0.105	-0.135
-78.582	-200.000	-0.012	0.190
-77.567	16.165	0.209	0.161
-76.553	-21.843	-0.081	0.048
-75.538	409.513	-0.090	-0.186
-74.524	145.371	0.049	-0.064
-73.509	5.350	0.244	0.176
-72.494	-200.000	0.009	0.070
-71.480	-113.165	0.184	-0.035
-70.465	-11.188	-0.172	0.111
-69.451	-83.430	-0.068	-0.021
-68.436	215.054	-0.103	0.159
-67.422	-200.000	-0.045	0.238
-66.407	233.437	0.086	-0.138
-65.392	42.165	0.004	0.004
-64.378	233.722	0.121	-0.193
-63.363	800.000	0.105	-0.349
-62.349	110.262	0.114	-0.134
-61.334	40.847	-1.533	-1.347
-60.319	79.229	0.948	0.990
-59.305	627.464	-0.569	-1.400
-58.290	114.532	1.038	1.233
-57.276	800.000	0.288	1.136
-56.261	-200.000	127.996	675.611
-55.246	410.141	1608.181	3320.474
-54.232	139.028	2761.255	3535.922
-53.217	95.263	2182.366	2422.118
-52.203	33.320	1697.856	1435.230
-51.188	25.823	1515.468	1230.039
-50.173	23.968	1491.995	1198.453
-49.159	48.548	1564.223	1427.428
-48.144	45.386	1576.207	1416.449
-47.130	26.029	1524.869	1238.881
-46.115	23.077	1508.871	1205.745
-45.100	22.857	1505.276	1201.324
-44.086	22.867	1503.443	1199.880
-43.071	22.791	1502.079	1198.232
-42.057	22.782	1499.920	1196.397
-41.042	22.804	1498.743	1195.560
-40.027	22.840	1497.021	1194.389
-39.013	22.716	1496.030	1192.707
-37.998	22.755	1494.582	1191.773
-36.984	22.780	1493.423	1190.971
-35.969	22.798	1491.881	1189.813
-34.954	22.762	1490.649	1188.538
-33.940	22.786	1489.021	1187.354
-32.925	22.820	1487.655	1186.448
-31.911	22.900	1486.192	1185.773
-30.896	22.683	1485.779	1183.937
-29.881	22.764	1484.810	1183.662
-28.867	22.924	1482.774	1183.064
-27.852	22.889	1481.700	1181.926
-26.838	22.854	1480.455	1180.650
-25.823	22.829	1478.554	1178.921
-24.809	22.844	1476.953	1177.699
-23.794	22.861	1475.792	1176.838
-22.779	22.766	1474.896	1175.448
-21.765	22.804	1473.306	1174.388
-20.750	22.941	1471.898	1174.128
-19.736	22.762	1471.288	1172.401
-18.721	22.801	1469.994	1171.585
-17.706	22.791	1469.021	1170.696
-16.692	22.896	1467.922	1170.472
-15.677	22.864	1466.598	1169.155
-14.663	22.840	1466.042	1168.508
-13.648	22.889	1464.627	1167.658
-12.633	22.727	1464.645	1166.557
-11.619	22.861	1463.328	1166.342
-10.604	22.811	1462.871	1165.602
-9.590	22.773	1462.063	1164.666
-8.575	22.845	1460.843	1164.123
-7.560	22.831	1459.829	1163.174
-6.546	22.845	1459.129	1162.663
-5.531	22.833	1458.229	1161.821
-4.517	22.745	1457.380	1160.521
-3.502	22.825	1455.985	1159.886
-2.487	22.863	1454.772	1159.127
-1.473	22.790	1454.109	1158.073
-0.458	22.794	1452.616	1156.860
0.556	21.132	1443.514	1145.959
1.571	18.104	1419.162	1106.953
2.586	14.849	1358.053	1038.994
3.600	13.286	1274.515	965.869
4.615	12.403	1231.194	927.971
5.629	10.780	1174.883	876.700
6.644	5.233	1093.882	788.253
7.659	0.871	1058.307	741.214
8.673	0.200	1053.191	734.296
9.688	0.217	1050.127	732.175
10.702	0.122	1048.399	730.447
11.717	0.102	1046.416	728.901
12.731	1.914	1046.845	737.912
13.746	8.204	1054.950	774.162
14.761	14.363	1063.342	810.295
15.775	16.732	1065.560	823.442
16.790	16.394	1064.347	820.793
17.804	15.420	1062.760	814.771
18.819	14.712	1060.695	809.680
19.834	14.192	1059.107	805.879
20.848	13.987	1058.146	804.088
21.863	13.667	1057.232	801.771
22.877	13.421	1056.796	800.184
23.892	13.297	1056.066	798.961
24.907	13.213	1055.036	797.706
25.921	13.193	1054.146	796.866
26.936	13.224	1054.044	796.865
27.950	13.266	1053.121	796.298
28.965	13.251	1052.687	795.830
29.980	13.447	1051.251	795.615
30.994	13.419	1050.574	794.897
32.009	13.369	1049.896	794.078
33.023	13.414	1048.947	793.501
34.038	13.430	1048.280	793.005
35.053	13.397	1047.231	791.983
36.067	13.444	1045.741	791.012
37.082	13.435	1045.587	790.781
38.096	13.372	1044.970	789.943
39.111	13.379	1044.068	789.225
40.126	13.362	1043.379	788.554
41.140	13.305	1042.337	787.424
42.155	13.297	1041.411	786.616
43.169	13.162	1040.773	785.425
44.184	13.273	1038.912	784.477
45.199	13.231	1037.943	783.476
46.213	13.152	1037.295	782.546
47.228	13.240	1036.356	782.185
48.242	13.277	1035.077	781.321
49.257	13.397	1034.145	781.118
50.271	13.303	1033.213	779.900
51.286	13.145	1032.828	778.795
52.301	13.332	1031.837	778.860
53.315	13.285	1030.922	777.879
54.330	13.269	1030.379	777.327
55.344	13.269	1029.253	776.407
56.359	13.180	1028.272	775.180
57.374	13.344	1027.259	775.117
58.388	13.226	1027.023	774.317
59.403	13.302	1025.570	773.510
60.417	13.205	1025.067	772.611
61.432	13.273	1024.741	772.612
62.447	13.288	1023.553	771.722
63.461	13.302	1022.629	771.020
64.476	13.188	1021.790	769.787
65.490	13.222	1020.825	769.151
66.505	13.106	1020.086	767.985
67.520	13.200	1019.439	767.867
68.534	13.232	1018.892	767.537
69.549	13.258	1017.939	766.874
70.563	13.222	1017.255	766.123
71.578	13.316	1016.422	765.864
72.593	13.222	1015.800	764.891
73.607	13.139	1014.779	763.671
74.622	13.102	1013.995	762.844
75.636	13.091	1013.417	762.290
76.651	13.138	1012.258	761.564
77.666	13.163	1011.504	761.045
78.680	13.142	1010.711	760.286
79.695	13.209	1010.060	760.038
80.709	13.176	1009.623	759.490
81.724	13.277	1008.532	759.064
82.739	13.453	1007.835	759.283
83.753	13.227	1007.590	757.993
84.768	13.231	1006.837	757.379
85.782	13.400	1005.771	757.282
86.797	13.390	1005.341	756.847
87.812	13.451	1004.318	756.286
88.826	13.414	1003.098	755.135
89.841	13.279	1002.774	754.208
90.855	13.323	1001.849	753.646
91.870	13.332	1001.457	753.323
92.884	13.406	1000.642	752.981
93.899	13.483	999.773	752.611
94.914	13.471	998.789	751.747
95.928	13.464	998.320	751.295
96.943	13.501	997.475	750.760
97.957	13.463	996.987	750.156
98.972	13.458	995.489	748.940
99.987	13.410	995.407	748.593
101.001	13.466	994.393	748.022
102.016	13.461	993.673	747.389
103.030	13.498	992.703	746.761
104.045	13.508	991.668	745.961
105.060	13.455	991.125	745.247
106.074	13.436	990.309	744.483
107.089	13.281	989.677	743.248
108.103	13.300	988.721	742.546
109.118	13.312	987.594	741.688
110.133	13.292	986.582	740.773
111.147	13.306	986.038	740.363
112.162	13.282	984.778	739.245
113.176	13.221	984.193	738.469
114.191	13.444	983.008	738.506
115.206	13.345	982.231	737.418
116.220	13.396	981.980	737.387
117.235	13.442	980.857	736.688
118.249	13.346	980.227	735.719
119.264	13.368	978.915	734.767
120.279	13.389	978.057	734.154
121.293	13.413	977.598	733.852
122.308	13.313	977.072	732.946
123.322	13.403	975.664	732.222
124.337	13.308	974.605	730.943
125.352	13.281	973.887	730.221
126.366	13.271	972.909	729.380
127.381	13.360	971.954	728.994
128.395	13.332	970.320	727.579
129.410	13.300	969.844	727.017
130.424	13.356	968.752	726.380
131.439	13.378	967.691	725.616
132.454	13.348	967.412	725.211
133.468	13.311	966.984	724.664
134.483	13.300	965.767	723.639
135.497	13.275	965.563	723.316
136.512	13.425	964.567	723.160
137.527	13.285	963.613	721.770
138.541	13.439	962.796	721.767
139.556	13.346	962.169	720.827
140.570	13.339	961.296	720.076
141.585	13.449	960.477	719.877
142.600	13.542	960.095	719.934
143.614	13.587	959.064	719.294
144.629	13.652	958.190	718.856
145.643	13.612	957.821	718.341
146.658	13.507	957.258	717.402
147.673	13.535	955.782	716.349
148.687	13.589	955.140	716.042
149.702	13.533	954.446	715.216
150.716	13.472	953.786	714.395
151.731	13.522	952.692	713.727
152.746	13.502	952.179	713.192
153.760	13.585	951.135	712.705
154.775	13.606	950.224	712.051
155.789	13.579	949.968	711.677
156.804	13.523	949.301	710.877
157.819	13.616	948.294	710.455
158.833	13.736	947.593	710.385
159.848	13.715	947.186	709.928
160.862	13.761	946.405	709.474
161.877	13.659	946.024	708.689
162.892	13.669	945.026	707.921
163.906	13.588	944.038	706.773
164.921	13.619	943.096	706.138
165.935	13.580	942.053	705.131
166.950	13.599	941.172	704.488
167.964	13.721	940.764	704.636
168.979	13.603	939.631	703.225
169.994	13.652	938.877	702.809
171.008	13.646	938.191	702.208
172.023	13.689	937.134	701.535
173.037	13.943	936.082	701.759
174.052	13.774	935.605	700.625
175.067	13.755	935.077	700.088
176.081	13.705	933.977	698.992
177.096	13.703	933.579	698.626
178.110	13.658	932.450	697.529
179.125	13.651	931.744	696.909
180.140	13.779	930.658	696.571
181.154	13.823	930.033	696.226
182.169	13.816	929.830	695.986
183.183	13.924	929.130	695.849
184.198	13.880	928.577	695.190
185.213	14.016	927.370	694.796
186.227	14.051	926.890	694.518
187.242	13.919	926.780	693.826
188.256	13.966	926.051	693.412
189.271	14.063	925.161	693.091
190.286	13.926	924.489	691.955
191.300	13.920	923.542	691.160
192.315	13.894	922.859	690.479
193.329	13.748	922.315	689.406
194.344	13.817	921.636	689.122
195.359	13.829	921.324	688.877
196.373	13.891	920.336	688.334
197.388	13.923	920.202	688.305
198.402	14.059	919.297	688.133
199.417	14.127	918.954	688.097
200.432	14.150	918.418	687.731
201.446	14.183	917.992	687.486
202.461	14.142	917.838	687.141
203.475	14.236	917.046	686.874
204.490	14.284	915.968	686.202
205.504	14.300	915.166	685.607
206.519	14.291	914.391	684.929
207.534	14.173	913.850	683.978
208.548	14.326	912.892	683.830
209.563	14.186	912.591	682.968
210.577	14.238	911.688	682.445
211.592	14.307	910.832	682.027
212.607	14.253	910.801	681.721
213.621	14.516	909.696	681.912
214.636	14.221	909.468	680.473
215.650	14.203	909.183	680.127
216.665	14.191	908.399	679.430
217.680	14.382	907.434	679.426
218.694	14.489	906.807	679.334
219.709	14.390	906.865	678.914
220.723	14.648	905.840	679.139
221.738	14.482	905.024	677.792
222.753	14.440	904.582	677.227
223.767	14.415	903.815	676.494
224.782	14.429	903.066	675.927
225.796	14.382	902.373	675.160
226.811	14.516	901.615	675.076
227.826	14.532	900.704	674.398
228.840	14.693	900.125	674.556
229.855	14.574	899.270	673.376
230.869	14.675	898.759	673.341
231.884	14.462	898.131	671.951
232.899	14.491	897.420	671.475
233.913	14.341	897.154	670.615
234.928	14.547	896.004	670.523
235.942	14.563	895.432	670.101
236.957	14.771	894.358	670.071
237.972	14.442	894.048	668.462
238.986	14.456	893.064	667.723
240.001	14.590	892.839	668.034
241.015	14.646	891.842	667.453
242.030	14.655	891.209	666.954
243.045	14.700	890.563	666.590
244.059	14.550	890.353	665.776
245.074	14.647	889.812	665.700
246.088	14.795	888.852	665.512
247.103	14.738	888.529	664.986
248.117	14.804	887.920	664.732
249.132	14.770	887.270	664.051
250.147	14.918	886.647	664.114
251.161	14.985	885.895	663.757
252.176	14.934	884.962	662.799
253.190	15.022	884.199	662.519
254.205	15.015	883.882	662.194
255.220	15.056	883.444	661.967
256.234	14.991	882.989	661.312
257.249	15.030	882.616	661.127
258.263	15.210	881.694	661.089
259.278	14.991	881.129	659.742
260.293	15.034	880.526	659.404
261.307	15.145	880.018	659.402
262.322	15.187	879.554	659.161
263.336	15.208	878.803	658.623
264.351	15.201	878.299	658.159
265.366	15.065	877.810	657.199
266.380	15.288	877.158	657.527
267.395	15.182	876.223	656.353
268.409	15.243	875.743	656.174
269.424	15.288	874.942	655.694
270.439	15.225	874.315	654.917
271.453	15.339	873.215	654.482
272.468	15.284	872.576	653.731
273.482	15.312	872.254	653.540
274.497	15.242	871.863	652.919
275.512	15.313	870.792	652.335
276.526	15.254	870.121	651.543
277.541	15.282	869.533	651.153
278.555	15.214	869.284	650.647
279.570	15.362	868.420	650.515
280.585	15.387	867.733	650.041
281.599	15.488	866.924	649.770
282.614	15.443	866.583	649.279
283.628	15.486	865.740	648.760
284.643	15.512	865.371	648.525
285.657	15.453	864.740	647.767
286.672	15.637	863.929	647.812
287.687	15.533	863.914	647.344
288.701	15.486	863.382	646.706
289.716	15.481	862.503	645.969
290.730	15.593	862.199	646.118
291.745	15.658	861.404	645.711
292.760	15.559	860.655	644.715
293.774	15.518	859.909	643.941
294.789	15.549	859.872	643.976
295.803	15.545	859.058	643.293
296.818	15.733	858.131	643.260
297.833	15.644	857.371	642.295
298.847	15.583	857.126	641.822
299.862	15.674	856.235	641.445
300.876	15.699	855.701	641.083
301.891	15.803	855.031	640.923
302.906	15.783	854.628	640.485
303.920	15.879	853.717	640.113
304.935	15.754	853.163	639.165
305.949	15.871	852.546	639.089
306.964	15.785	852.439	638.627
307.979	15.909	851.358	638.228
308.993	15.954	850.796	637.921
310.008	15.956	850.489	637.645
311.022	16.046	849.801	637.411
312.037	15.978	849.298	636.723
313.052	15.929	848.614	635.966
314.066	15.833	848.276	635.295
315.081	15.975	847.463	635.165
316.095	15.865	846.951	634.310
317.110	15.837	846.681	633.948
318.125	15.840	846.097	633.464
319.139	15.848	845.610	633.075
320.154	15.902	844.904	632.692
321.168	15.932	844.339	632.328
322.183	16.013	843.675	632.079
323.197	16.060	843.370	631.970
324.212	16.028	842.732	631.317
325.227	15.949	842.350	630.678
326.241	15.993	842.084	630.586
327.256	16.031	841.334	630.112
328.270	16.161	840.618	630.007
329.285	16.000	840.129	628.981
330.300	16.065	839.577	628.757
331.314	16.014	839.199	628.227
332.329	16.156	838.389	628.095
333.343	16.171	837.839	627.683
334.358	16.119	837.504	627.184
335.373	16.107	836.500	626.329
336.387	16.127	836.174	626.105
337.402	16.224	835.716	626.065
338.416	16.288	835.276	625.919
339.431	16.302	834.281	625.169
340.446	16.176	834.051	624.477
341.460	16.437	833.552	625.014
342.475	16.396	833.385	624.679
343.489	16.431	832.295	623.938
344.504	16.445	831.726	623.507
345.519	16.549	831.092	623.359
346.533	16.622	830.228	622.924
347.548	16.537	829.978	622.372
348.562	16.424	829.690	621.684
349.577	16.445	829.330	621.433
350.592	16.532	828.521	621.093
351.606	16.346	828.290	620.181
352.621	16.409	827.769	619.970
353.635	16.597	827.326	620.273
354.650	16.532	827.010	619.740
355.665	16.544	826.300	619.199
356.679	16.502	826.007	618.772
357.694	16.664	825.145	618.663
358.708	16.496	824.807	617.740
359.723	16.569	824.457	617.692
360.738	16.564	823.943	617.230
361.752	16.696	822.876	616.860
362.767	16.709	822.850	616.833
363.781	16.501	822.895	616.054
364.796	16.591	822.058	615.702
365.810	16.750	821.353	615.697
366.825	16.707	821.225	615.389
367.840	16.758	820.701	615.128
368.854	16.879	820.108	615.069
369.869	16.852	819.970	614.810
370.883	16.790	819.636	614.280
371.898	16.890	818.548	613.774
372.913	16.845	817.936	613.100
373.927	16.873	817.370	612.720
374.942	16.981	816.608	612.486
375.956	16.946	816.192	611.994
376.971	16.958	815.626	611.558
377.986	16.889	815.076	610.844
379.000	16.969	814.893	610.941
380.015	17.107	814.088	610.779
381.029	17.050	813.501	610.079
382.044	17.097	812.742	609.623
383.059	17.035	812.564	609.214
384.073	17.121	812.344	609.304
385.088	17.066	811.301	608.271
386.102	17.150	810.815	608.155
387.117	17.059	810.538	607.565
388.132	17.001	809.964	606.874
389.146	17.244	809.392	607.260
390.161	17.178	809.044	606.711
391.175	17.170	808.779	606.431
392.190	17.268	808.337	606.394
393.205	17.110	808.116	605.612
394.219	17.080	807.792	605.209
395.234	17.116	807.147	604.799
396.248	17.109	806.559	604.281
397.263	17.273	805.648	604.125
398.278	17.187	805.444	603.615
399.292	17.119	805.098	603.059
400.307	16.991	804.802	602.330
401.321	17.087	804.441	602.350
402.336	17.231	803.848	602.361
403.350	17.202	803.407	601.875
404.365	17.209	802.906	601.472
405.380	17.303	802.450	601.409
406.394	17.296	802.005	600.998
407.409	17.453	801.636	601.222
408.423	17.401	801.432	600.832
409.438	17.492	800.588	600.466
410.453	17.534	800.251	600.310
411.467	17.566	799.745	599.989
412.482	17.497	799.368	599.410
413.496	17.602	798.723	599.243
414.511	17.546	798.144	598.558
415.526	17.390	798.673	598.356
416.540	17.574	797.976	598.427
417.555	17.729	797.012	598.195
418.569	17.714	796.846	597.965
419.584	17.657	796.233	597.250
420.599	17.733	795.750	597.103
421.613	114.025	1298.098	1488.665
422.628	98.180	1371.257	1488.743
