DTS Sentinel unit serial number:	SN413079Multiplexer serial number:	ORYXHardware model number:	OX4-SRSoftware version number:	ORYX F/W v4.00 Oryx Data Collector v3.7.2.0data status	okinstallation	princeton_trtdifferential loss correction	single-endedforward channel	channel 3reverse channel	N/Adate	2019/09/11time	22:10:11forward acquisition time	60.00reverse acquisition time	0.00gamma	496.2192k internal	0.2312k external	0.2312temperature offset calibration	1.0043default loss term (dB/km)	0.3790temperature slope calibration	1.0000multiplexer offset coefficient	1.0000multiplexer slope coefficient	1.0000fibre end	0.00T internal ref (°C)	35.37T ext. ref 1 (°C)	1.77T ext. ref 2 (°C)	29.57length (m)	temperature (°C)	Stokes	anti-Stokes-747.200	105.103	-0.123	-0.147
-746.185	-68.436	-0.164	0.065
-745.171	-88.314	0.173	-0.052
-744.156	-91.459	0.088	0.026
-743.142	-200.000	-0.283	-0.001
-742.127	320.864	0.225	0.434
-741.112	25.648	0.148	-0.125
-740.098	-90.191	0.120	0.035
-739.083	-180.224	0.218	-0.005
-738.069	-43.694	0.347	-0.177
-737.054	340.951	-0.022	0.044
-736.039	-84.353	0.266	0.085
-735.025	-186.505	0.331	-0.005
-734.010	-200.000	-0.042	-0.514
-732.996	-40.820	-0.332	0.174
-731.981	-21.590	-0.363	0.224
-730.966	103.828	-0.134	0.160
-729.952	-121.762	-0.084	0.014
-728.937	19.034	-0.252	0.205
-727.923	205.316	0.238	0.375
-726.908	162.407	-0.094	0.134
-725.894	-200.000	-0.036	-0.236
-724.879	-200.000	-0.001	0.260
-723.864	3.644	-0.111	-0.082
-722.850	-9.532	0.222	0.150
-721.835	59.987	-0.354	-0.355
-720.821	-51.505	0.368	-0.174
-719.806	800.000	-0.056	-0.198
-718.791	-95.516	-0.213	0.058
-717.777	73.183	-0.125	0.133
-716.762	-200.000	-0.070	-0.361
-715.748	281.268	0.122	0.221
-714.733	195.101	-0.086	-0.132
-713.718	-200.000	-0.045	0.247
-712.704	-88.363	0.109	-0.033
-711.689	-37.663	-0.128	-0.069
-710.675	99.663	0.190	0.223
-709.660	287.352	0.107	0.196
-708.645	484.839	0.116	-0.267
-707.631	242.911	-0.065	-0.110
-706.616	-13.500	0.112	-0.074
-705.602	214.464	-0.173	-0.278
-704.587	-76.860	0.184	0.065
-703.572	82.523	-0.197	0.217
-702.558	-200.000	-0.031	-0.382
-701.543	317.312	0.184	0.353
-700.529	-35.043	-0.223	-0.123
-699.514	-200.000	-0.009	0.351
-698.499	800.000	-0.042	-0.127
-697.485	98.600	0.268	0.313
-696.470	204.533	0.087	-0.137
-695.456	-200.000	-0.033	0.181
-694.441	256.241	-0.102	0.178
-693.426	122.607	0.097	-0.122
-692.412	209.922	0.175	-0.277
-691.397	53.240	-0.047	0.046
-690.383	-190.387	0.272	-0.003
-689.368	130.985	0.062	0.081
-688.354	-112.400	-0.265	0.054
-687.339	130.220	0.126	0.164
-686.324	800.000	0.039	0.133
-685.310	-28.100	-0.132	0.077
-684.295	-200.000	0.041	-0.353
-683.281	88.828	-0.115	0.129
-682.266	-52.440	-0.295	-0.138
-681.251	352.968	-0.180	-0.361
-680.237	514.506	-0.045	-0.107
-679.222	-200.000	-0.032	-0.218
-678.208	55.584	-0.190	-0.187
-677.193	125.694	-0.301	0.384
-676.178	-200.000	-0.004	0.232
-675.164	-18.179	-0.107	-0.068
-674.149	-131.029	-0.182	-0.025
-673.135	-200.000	-0.018	-0.310
-672.120	-85.734	-0.182	0.057
-671.105	247.147	-0.148	-0.253
-670.091	-0.683	0.259	-0.186
-669.076	-81.935	0.166	-0.055
-668.062	-34.624	0.172	-0.095
-667.047	8.064	-0.156	-0.118
-666.032	268.964	0.196	0.348
-665.018	92.061	-0.213	0.243
-664.003	-72.772	-0.172	-0.064
-662.989	-87.279	0.198	-0.061
-661.974	-128.146	0.253	-0.037
-660.959	234.595	0.047	0.078
-659.945	133.895	0.177	0.232
-658.930	-200.000	-0.013	0.057
-657.916	-88.299	0.420	0.127
-656.901	85.102	-0.103	-0.114
-655.886	-200.000	-0.018	0.084
-654.872	-139.880	-0.101	0.011
-653.857	-135.760	-0.490	-0.059
-652.843	-91.868	0.101	0.029
-651.828	292.774	0.030	-0.056
-650.814	-7.730	-0.239	0.163
-649.799	-16.517	-0.080	-0.051
-648.784	-200.000	-0.003	0.114
-647.770	10.596	0.104	-0.080
-646.755	-65.556	0.107	0.043
-645.741	-27.515	-0.092	-0.054
-644.726	-52.700	0.131	-0.061
-643.711	-146.570	-0.093	-0.008
-642.697	-43.888	-0.165	-0.084
-641.682	-169.078	0.098	0.004
-640.668	-120.419	-0.320	0.055
-639.653	800.000	-0.018	0.053
-638.638	370.008	-0.064	0.130
-637.624	-75.806	-0.284	0.102
-636.609	-35.107	-0.396	-0.218
-635.595	-200.000	0.046	-0.279
-634.580	174.134	0.151	0.220
-633.565	404.652	0.043	0.092
-632.551	84.728	0.132	0.146
-631.536	-200.000	-0.015	0.181
-630.522	361.349	-0.084	0.171
-629.507	346.975	0.059	0.117
-628.492	35.016	0.101	0.089
-627.478	633.592	-0.066	-0.169
-626.463	-120.487	-0.306	0.053
-625.449	-90.658	0.148	-0.043
-624.434	146.928	0.125	0.170
-623.419	547.110	-0.113	0.273
-622.405	209.725	0.114	0.181
-621.390	-200.000	0.013	0.527
-620.376	8.178	-0.204	0.155
-619.361	-103.336	0.103	0.025
-618.346	800.000	0.065	0.195
-617.332	19.177	-0.114	-0.092
-616.317	-45.632	0.062	-0.031
-615.303	-62.744	0.023	0.010
-614.288	-200.000	0.004	-0.099
-613.273	-200.000	0.030	0.251
-612.259	76.876	-0.147	-0.157
-611.244	108.216	0.136	-0.164
-610.230	15.039	0.030	0.024
-609.215	410.686	0.157	0.336
-608.201	-64.585	-0.123	0.050
-607.186	-16.636	0.234	-0.149
-606.171	-200.000	0.010	0.162
-605.157	21.330	0.084	-0.069
-604.142	-46.975	0.154	0.076
-603.128	-95.763	0.064	-0.017
-602.113	304.052	0.200	-0.374
-601.098	-87.358	-0.129	0.039
-600.084	129.768	0.227	0.293
-599.069	125.085	-0.109	0.138
-598.055	-24.920	0.382	-0.229
-597.040	504.061	-0.058	-0.135
-596.025	-200.000	0.007	-0.159
-595.011	764.246	-0.084	0.229
-593.996	-200.000	0.000	-0.007
-592.982	-88.019	0.205	0.062
-591.967	-200.000	0.009	0.113
-590.952	559.781	-0.142	-0.347
-589.938	-200.000	-0.010	0.058
-588.923	391.576	0.091	-0.190
-587.909	23.688	-0.190	-0.158
-586.894	-108.656	-0.145	0.031
-585.879	-102.518	0.093	-0.022
-584.865	800.000	0.101	0.283
-583.850	552.394	0.069	0.166
-582.836	81.293	0.297	0.323
-581.821	-121.206	-0.065	-0.011
-580.806	24.134	0.173	-0.144
-579.792	478.072	-0.041	0.093
-578.777	-200.000	0.010	-0.146
-577.763	37.226	-0.176	-0.158
-576.748	153.082	-0.165	0.227
-575.733	800.000	0.067	-0.191
-574.719	800.000	0.050	-0.174
-573.704	-200.000	-0.010	-0.326
-572.690	-176.068	-0.478	0.013
-571.675	-107.990	-0.349	-0.076
-570.661	-200.000	-0.006	-0.287
-569.646	-44.288	-0.334	-0.169
-568.631	377.285	0.098	-0.201
-567.617	799.544	-0.038	-0.105
-566.602	130.708	-0.240	-0.310
-565.588	800.000	0.071	-0.239
-564.573	-168.651	-0.125	-0.005
-563.558	800.000	-0.021	0.088
-562.544	-200.000	0.006	0.263
-561.529	-143.695	0.171	0.016
-560.515	-92.975	-0.451	-0.127
-559.500	613.402	0.113	-0.286
-558.485	-102.400	-0.167	0.040
-557.471	49.441	0.175	0.166
-556.456	-200.000	0.011	-0.172
-555.442	-133.244	-0.157	-0.020
-554.427	329.770	-0.035	0.068
-553.412	-20.880	-0.152	0.094
-552.398	317.797	-0.101	-0.193
-551.383	-200.000	-0.003	-0.398
-550.369	11.009	-0.100	0.077
-549.354	39.110	0.149	0.134
-548.339	-200.000	-0.008	-0.191
-547.325	139.980	0.318	-0.422
-546.310	-117.425	0.243	0.044
-545.296	-200.000	0.029	0.348
-544.281	-200.000	0.072	-0.343
-543.266	-122.613	-0.307	0.050
-542.252	-67.483	0.082	0.032
-541.237	800.000	-0.070	-0.272
-540.223	-126.217	0.212	0.032
-539.208	317.225	-0.055	0.105
-538.193	260.316	-0.139	-0.241
-537.179	20.787	-0.242	0.197
-536.164	133.558	0.186	0.242
-535.150	-116.190	0.138	-0.026
-534.135	167.428	0.051	-0.073
-533.121	-200.000	0.001	0.038
-532.106	-200.000	0.052	-0.420
-531.091	33.134	0.246	0.215
-530.077	50.555	0.117	-0.111
-529.062	800.000	0.067	-0.227
-528.048	800.000	0.032	0.116
-527.033	32.333	0.244	0.212
-526.018	-30.193	-0.196	0.112
-525.004	-55.643	-0.309	-0.139
-523.989	-200.000	-0.000	-0.374
-522.975	-97.175	0.194	-0.051
-521.960	347.857	0.114	0.225
-520.945	68.972	-0.154	0.159
-519.931	746.478	0.017	-0.045
-518.916	339.324	0.045	0.089
-517.902	-25.889	-0.251	-0.148
-516.887	116.114	-0.163	-0.200
-515.872	-9.113	-0.225	0.151
-514.858	208.880	-0.086	-0.136
-513.843	422.038	0.048	0.104
-512.829	485.637	-0.142	0.326
-511.814	256.952	-0.119	0.205
-510.799	-200.000	0.003	-0.291
-509.785	336.867	0.103	0.201
-508.770	-91.321	0.255	0.073
-507.756	-200.000	0.002	-0.415
-506.741	-200.000	-0.043	-0.270
-505.726	-200.000	-0.035	-0.306
-504.712	-200.000	-0.013	-0.117
-503.697	-89.341	-0.076	-0.022
-502.683	24.568	-0.134	0.111
-501.668	-116.823	0.279	0.051
-500.653	-46.325	0.194	0.096
-499.639	-200.000	-0.007	-0.145
-498.624	-200.000	0.035	-0.476
-497.610	800.000	0.087	-0.289
-496.595	29.430	-0.134	0.114
-495.581	-110.657	-0.389	0.081
-494.566	-58.844	-0.391	-0.170
-493.551	800.000	0.080	0.326
-492.537	800.000	-0.039	-0.122
-491.522	423.864	-0.011	-0.023
-490.508	-200.000	-0.062	-0.334
-489.493	-94.797	-0.040	-0.011
-488.478	251.028	0.164	-0.280
-487.464	-72.956	-0.354	0.131
-486.449	93.368	0.151	-0.171
-485.435	-167.329	0.102	0.004
-484.420	-150.043	0.169	0.013
-483.405	-200.000	-0.008	0.061
-482.391	423.321	0.144	-0.310
-481.376	127.673	-0.198	-0.252
-480.362	85.713	-0.031	-0.034
-479.347	148.976	-0.271	-0.369
-478.332	-66.699	0.280	0.111
-477.318	56.353	-0.092	0.090
-476.303	800.000	-0.033	-0.142
-475.289	18.601	0.182	-0.146
-474.274	-33.045	0.273	-0.152
-473.259	378.708	0.165	-0.340
-472.245	-151.653	-0.511	-0.038
-471.230	170.583	-0.145	-0.208
-470.216	87.265	0.087	0.096
-469.201	800.000	0.036	0.107
-468.186	356.724	-0.020	0.039
-467.172	-149.823	0.234	-0.018
-466.157	-200.000	0.019	-0.122
-465.143	29.507	-0.161	0.137
-464.128	800.000	0.043	-0.133
-463.113	-142.656	-0.129	-0.013
-462.099	-200.000	-0.287	0.001
-461.084	116.410	0.136	0.167
-460.070	-135.952	-0.140	-0.016
-459.055	800.000	0.150	-0.441
-458.040	240.861	-0.151	-0.253
-457.026	800.000	-0.115	0.320
-456.011	-59.717	-0.149	0.064
-454.997	800.000	-0.012	0.041
-453.982	800.000	0.038	0.161
-452.968	800.000	-0.099	-0.343
-451.953	308.808	0.087	-0.163
-450.938	4.121	0.185	0.136
-449.924	-121.692	-0.431	-0.072
-448.909	-19.891	-0.307	-0.190
-447.895	140.134	-0.065	0.086
-446.880	56.424	0.160	-0.156
-445.865	-111.267	0.348	-0.071
-444.851	104.905	-0.133	0.157
-443.836	178.793	0.086	0.126
-442.822	-38.947	-0.140	0.074
-441.807	-47.076	-0.219	0.107
-440.792	111.369	0.010	-0.012
-439.778	-74.144	-0.094	0.034
-438.763	-143.894	0.189	-0.018
-437.749	-116.372	-0.173	-0.032
-436.734	55.067	-0.142	0.137
-435.719	238.586	0.167	-0.278
-434.705	-200.000	0.015	-0.079
-433.690	-88.793	-0.211	-0.063
-432.676	-173.773	0.171	-0.005
-431.661	-120.081	0.024	0.004
-430.646	-40.199	0.209	-0.109
-429.632	-33.303	0.101	-0.056
-428.617	-200.000	0.012	-0.219
-427.603	-95.269	0.193	-0.052
-426.588	191.706	0.156	-0.236
-425.573	-200.000	0.004	0.024
-424.559	770.805	-0.072	0.196
-423.544	-81.988	-0.094	-0.031
-422.530	-149.966	-0.112	0.009
-421.515	-60.924	-0.418	0.177
-420.500	-200.000	-0.005	0.223
-419.486	-36.933	0.106	0.057
-418.471	86.443	-0.280	-0.309
-417.457	39.211	0.271	-0.243
-416.442	240.298	-0.125	-0.208
-415.428	-32.868	0.145	0.081
-414.413	-200.000	-0.019	0.207
-413.398	-96.241	0.062	-0.016
-412.384	-25.392	0.156	0.092
-411.369	-73.280	-0.167	-0.061
-410.355	136.107	-0.114	0.149
-409.340	800.000	-0.038	0.122
-408.325	456.042	-0.101	0.225
-407.311	-35.557	0.309	0.168
-406.296	800.000	-0.113	0.397
-405.282	184.361	0.082	0.122
-404.267	-195.345	0.214	0.002
-403.252	-182.414	0.047	0.001
-402.238	142.769	0.155	-0.206
-401.223	-99.585	0.122	-0.031
-400.209	-200.000	0.047	-0.401
-399.194	-68.608	-0.283	-0.110
-398.179	-114.081	-0.103	-0.020
-397.165	268.599	-0.132	-0.231
-396.150	120.113	0.121	0.151
-395.136	22.306	-0.056	-0.046
-394.121	336.834	-0.018	0.035
-393.106	18.266	0.099	-0.079
-392.092	-20.395	-0.250	-0.154
-391.077	-166.889	0.246	-0.010
-390.063	363.293	0.089	0.180
-389.048	-137.254	-0.107	-0.012
-388.033	-28.025	0.160	0.093
-387.019	66.879	0.217	-0.222
-386.004	70.477	-0.105	-0.109
-384.990	78.771	-0.050	0.053
-383.975	-133.783	-0.215	0.027
-382.960	5.982	-0.161	0.119
-381.946	267.778	-0.064	-0.111
-380.931	-45.648	-0.299	0.148
-379.917	43.403	0.091	-0.084
-378.902	-116.692	0.354	-0.065
-377.888	-171.447	0.133	0.004
-376.873	-106.828	0.038	0.008
-375.858	-94.465	0.624	0.170
-374.844	2.033	0.063	-0.045
-373.829	-118.879	-0.181	0.032
-372.815	-137.881	-0.184	0.021
-371.800	-100.737	-0.319	0.079
-370.785	189.886	0.029	0.043
-369.771	-102.069	-0.102	-0.025
-368.756	800.000	-0.050	0.213
-367.742	-127.622	0.090	0.013
-366.727	25.054	-0.083	0.069
-365.712	-141.799	-0.199	-0.020
-364.698	127.630	0.115	0.146
-363.683	-200.000	0.004	-0.245
-362.669	-192.558	0.207	0.002
-361.654	-34.850	0.261	0.142
-360.639	-200.000	-0.011	0.055
-359.625	361.171	0.272	0.545
-358.610	-5.585	-0.046	-0.031
-357.596	-200.000	-0.046	-0.394
-356.581	62.940	-0.222	0.222
-355.566	-25.171	-0.141	-0.083
-354.552	52.086	0.256	0.244
-353.537	635.006	0.086	0.217
-352.523	-76.766	0.470	0.164
-351.508	-83.861	0.274	-0.087
-350.493	-165.706	-0.196	-0.008
-349.479	213.851	0.167	-0.264
-348.464	82.877	-0.118	0.128
-347.450	-27.816	0.172	0.100
-346.435	-95.486	0.264	0.071
-345.420	95.598	-0.335	0.382
-344.406	-87.368	-0.179	0.054
-343.391	-77.004	-0.332	-0.116
-342.377	-45.486	0.064	-0.032
-341.362	710.019	0.130	0.344
-340.348	-117.907	0.328	-0.059
-339.333	-200.000	0.012	-0.056
-338.318	-95.160	-0.492	0.133
-337.304	-97.770	0.185	-0.048
-336.289	17.618	0.089	-0.071
-335.275	-17.506	-0.189	0.119
-334.260	99.744	0.065	-0.075
-333.245	74.508	0.085	0.089
-332.231	3.537	0.386	0.281
-331.216	46.158	0.108	-0.100
-330.202	207.667	-0.157	-0.245
-329.187	-64.977	-0.085	-0.034
-328.172	404.180	0.052	0.109
-327.158	-136.200	-0.297	-0.035
-326.143	-8.146	-0.224	0.150
-325.129	-200.000	-0.005	0.194
-324.114	-200.000	0.023	-0.149
-323.099	-152.699	0.084	-0.006
-322.085	-200.000	0.002	0.084
-321.070	183.422	0.080	0.118
-320.056	160.336	-0.307	0.427
-319.041	-200.000	0.016	0.075
-318.026	293.759	0.083	0.151
-317.012	-200.000	-0.007	-0.315
-315.997	-200.000	0.002	0.216
-314.983	-102.203	-0.285	-0.068
-313.968	41.351	-0.057	0.052
-312.953	800.000	0.087	0.337
-311.939	284.436	0.211	0.379
-310.924	-41.047	0.215	0.111
-309.910	-200.000	0.028	0.269
-308.895	26.668	-0.270	0.226
-307.880	148.591	-0.115	0.155
-306.866	-138.057	-0.089	-0.010
-305.851	20.851	-0.317	-0.256
-304.837	150.989	-0.104	-0.142
-303.822	-135.765	0.087	-0.010
-302.807	-125.391	0.148	0.023
-301.793	131.263	0.105	-0.134
-300.778	-200.000	0.006	-0.217
-299.764	800.000	-0.063	-0.205
-298.749	234.115	0.086	0.141
-297.735	-31.698	-0.287	0.161
-296.720	643.197	0.130	0.331
-295.705	-151.186	0.229	-0.017
-294.691	-200.000	-0.011	-0.142
-293.676	209.095	-0.139	-0.216
-292.662	-68.532	-0.430	0.166
-291.647	569.183	0.154	0.373
-290.632	103.109	-0.137	-0.160
-289.618	-168.547	0.179	0.007
-288.603	-114.029	0.075	0.015
-287.589	122.653	-0.223	-0.277
-286.574	223.525	0.137	-0.220
-285.559	-200.000	-0.063	-0.347
-284.545	-86.466	0.101	-0.031
-283.530	700.467	-0.040	0.106
-282.516	-200.000	0.004	-0.192
-281.501	-200.000	-0.011	0.098
-280.486	580.873	-0.021	-0.051
-279.472	-200.000	0.018	0.099
-278.457	8.887	0.310	0.233
-277.443	161.198	-0.067	-0.094
-276.428	-41.130	0.246	-0.127
-275.413	447.360	0.184	0.404
-274.399	79.718	0.138	0.147
-273.384	-160.571	-0.215	0.011
-272.370	-200.000	0.042	-0.290
-271.355	-19.320	-0.080	0.050
-270.340	-78.116	0.150	-0.052
-269.326	-200.000	-0.027	-0.160
-268.311	160.434	0.128	0.177
-267.297	-160.785	-0.211	-0.011
-266.282	15.887	0.121	0.095
-265.267	-200.000	-0.020	0.276
-264.253	-58.258	0.205	-0.089
-263.238	-200.000	-0.001	0.215
-262.224	800.000	0.136	0.423
-261.209	800.000	-0.097	0.303
-260.195	22.243	0.287	0.233
-259.180	0.252	0.339	-0.241
-258.165	-89.239	0.144	-0.042
-257.151	39.982	0.088	-0.078
-256.136	0.958	-0.129	-0.092
-255.122	463.843	0.071	-0.157
-254.107	73.478	0.129	0.134
-253.092	44.381	0.275	0.252
-252.078	53.984	-0.004	0.003
-251.063	23.880	0.322	0.264
-250.049	91.094	0.147	0.164
-249.034	161.023	-0.117	0.163
-248.019	-200.000	0.008	0.215
-247.005	-123.752	-0.104	-0.016
-245.990	-71.235	-0.314	0.117
-244.976	800.000	0.150	0.463
-243.961	-65.122	-0.095	0.038
-242.946	194.694	-0.092	0.138
-241.932	187.295	-0.105	-0.155
-240.917	-48.908	-0.074	-0.035
-239.903	-66.216	-0.319	-0.126
-238.888	-103.194	0.046	-0.011
-237.873	800.000	-0.112	0.355
-236.859	-6.244	-0.150	-0.102
-235.844	-200.000	0.015	-0.303
-234.830	800.000	0.036	-0.133
-233.815	-105.212	-0.019	-0.004
-232.800	-138.183	0.087	0.010
-231.786	394.746	0.094	0.196
-230.771	166.032	-0.140	-0.197
-229.757	-112.943	0.056	-0.011
-228.742	453.021	-0.090	0.198
-227.727	-3.303	-0.204	-0.141
-226.713	-8.139	-0.211	-0.141
-225.698	3.602	-0.126	-0.091
-224.684	-28.275	0.134	-0.077
-223.669	-200.000	-0.005	0.240
-222.655	50.061	-0.102	0.096
-221.640	-125.514	-0.394	0.059
-220.625	142.176	-0.151	-0.199
-219.611	-200.000	0.003	0.178
-218.596	-200.000	0.014	0.171
-217.582	186.063	-0.155	0.229
-216.567	-79.852	0.275	0.092
-215.552	79.320	-0.191	-0.204
-214.538	-200.000	0.046	0.307
-213.523	746.324	-0.098	0.261
-212.509	-200.000	-0.012	0.186
-211.494	213.294	-0.060	0.094
-210.479	229.419	0.174	-0.282
-209.465	24.535	-0.109	-0.090
-208.450	-44.100	-0.081	-0.040
-207.436	-200.000	-0.049	0.345
-206.421	124.535	0.279	0.349
-205.406	-163.901	0.215	-0.010
-204.392	453.254	0.066	0.144
-203.377	112.286	0.254	0.305
-202.363	211.581	0.177	-0.276
-201.348	3.540	0.101	0.073
-200.333	-200.000	0.012	0.083
-199.319	118.681	0.171	-0.210
-198.304	376.364	0.066	-0.133
-197.290	-132.279	-0.300	0.039
-196.275	800.000	0.022	-0.093
-195.260	-148.546	0.329	0.027
-194.246	-31.564	-0.259	-0.144
-193.231	-200.000	0.014	0.072
-192.217	800.000	-0.096	-0.367
-191.202	-146.972	-0.124	-0.011
-190.187	786.219	-0.095	-0.259
-189.173	-102.199	0.182	-0.043
-188.158	800.000	-0.040	0.146
-187.144	-23.341	0.126	0.075
-186.129	800.000	-0.053	-0.170
-185.114	132.653	0.124	0.159
-184.100	641.769	-0.062	-0.158
-183.085	-45.383	0.113	0.055
-182.071	-5.132	0.143	0.097
-181.056	-63.342	-0.082	-0.034
-180.042	800.000	0.027	0.078
-179.027	-190.908	-0.231	-0.002
-178.012	29.704	-0.038	-0.032
-176.998	-9.580	-0.088	-0.059
-175.983	319.480	0.091	0.171
-174.969	-200.000	0.041	0.245
-173.954	-108.117	-0.210	-0.045
-172.939	-55.565	-0.177	0.079
-171.925	800.000	0.072	0.296
-170.910	121.618	-0.149	-0.184
-169.896	125.229	0.103	-0.129
-168.881	18.694	-0.055	0.043
-167.866	-200.000	0.025	0.273
-166.852	672.213	0.041	-0.105
-165.837	74.663	-0.063	0.066
-164.823	92.522	0.084	-0.094
-163.808	-200.000	-0.091	-0.400
-162.793	-83.421	0.429	-0.136
-161.779	618.351	0.124	-0.309
-160.764	127.609	0.163	-0.206
-159.750	21.093	0.276	-0.222
-158.735	800.000	0.060	-0.186
-157.720	-78.650	0.218	0.074
-156.706	348.588	-0.139	-0.272
-155.691	285.183	0.062	0.111
-154.677	-132.368	0.440	-0.056
-153.662	102.549	-0.137	-0.159
-152.647	-200.000	0.000	-0.308
-151.633	-171.772	0.115	-0.004
-150.618	158.180	-0.117	0.161
-149.604	-43.264	-0.063	0.032
-148.589	-102.662	-0.096	-0.023
-147.574	-200.000	-0.011	0.133
-146.560	700.065	0.056	-0.146
-145.545	-200.000	0.032	-0.378
-144.531	-48.754	0.063	0.030
-143.516	80.200	0.138	0.147
-142.502	32.105	-0.247	0.211
-141.487	108.556	0.050	0.059
-140.472	-21.857	-0.170	0.103
-139.458	28.067	0.070	0.059
-138.443	-12.657	-0.135	-0.087
-137.429	-8.524	0.141	-0.094
-136.414	506.759	-0.125	0.288
-135.399	-200.000	0.045	0.364
-134.385	-75.681	0.156	0.055
-133.370	-110.281	-0.243	-0.050
-132.356	259.678	-0.193	-0.331
-131.341	200.046	0.037	-0.057
-130.326	-83.703	0.062	-0.020
-129.312	-61.877	0.061	0.025
-128.297	277.844	0.162	0.286
-127.283	19.452	0.142	-0.113
-126.268	-200.000	0.000	0.011
-125.253	66.140	0.129	-0.130
-124.239	771.812	0.065	-0.175
-123.224	-30.897	-0.128	-0.072
-122.210	-89.765	0.276	-0.080
-121.195	255.163	0.092	0.157
-120.180	25.595	0.306	0.252
-119.166	40.938	-0.139	-0.124
-118.151	-135.632	0.117	0.014
-117.137	-34.166	-0.136	0.074
-116.122	-134.773	-0.053	0.006
-115.107	52.616	0.196	0.185
-114.093	-0.273	0.140	0.098
-113.078	4.580	0.140	-0.102
-112.064	-74.754	-0.073	-0.026
-111.049	-107.254	0.333	-0.072
-110.034	266.606	0.244	-0.422
-109.020	-142.085	-0.169	-0.017
-108.005	136.215	0.104	0.134
-106.991	355.198	-0.099	0.194
-105.976	-61.471	0.182	0.076
-104.962	424.887	0.106	0.226
-103.947	-103.104	0.213	0.050
-102.932	-89.239	-0.173	0.050
-101.918	179.718	-0.118	-0.172
-100.903	-113.883	0.331	-0.064
-99.889	-58.567	0.289	-0.124
-98.874	-200.000	0.008	0.118
-97.859	20.458	0.084	-0.067
-96.845	800.000	0.103	-0.323
-95.830	-130.122	0.128	0.017
-94.816	-200.000	0.210	0.001
-93.801	-200.000	0.036	0.190
-92.786	587.959	0.130	-0.316
-91.772	800.000	0.057	0.182
-90.757	59.376	-0.067	0.065
-89.743	-54.704	-0.202	-0.090
-88.728	6.290	-0.151	-0.111
-87.713	220.060	-0.116	0.184
-86.699	193.935	0.198	-0.296
-85.684	-19.263	-0.193	-0.119
-84.670	800.000	-0.105	-0.346
-83.655	-200.000	-0.004	0.078
-82.640	689.749	0.107	-0.277
-81.626	-107.632	0.204	0.044
-80.611	82.722	-0.081	0.087
-79.597	-149.399	-0.064	0.005
-78.582	436.988	0.124	0.268
-77.567	22.892	-0.183	0.148
-76.553	-67.841	-0.135	-0.052
-75.538	-37.599	0.380	-0.200
-74.524	-137.024	-0.236	-0.027
-73.509	182.734	0.048	0.070
-72.494	101.105	0.198	0.228
-71.480	-96.728	0.266	-0.069
-70.465	-23.628	0.163	0.096
-69.451	328.687	0.040	0.077
-68.436	-87.175	-0.423	0.127
-67.422	138.650	0.163	-0.212
-66.407	387.669	-0.086	0.176
-65.392	-200.000	-0.014	0.129
-64.378	800.000	0.099	0.286
-63.363	800.000	0.034	-0.142
-62.349	-77.967	-0.122	-0.041
-61.334	143.547	-0.585	-0.770
-60.319	800.000	0.108	0.294
-59.305	-200.000	0.081	-0.916
-58.290	312.355	0.362	0.672
-57.276	800.000	0.437	1.744
-56.261	-200.000	95.878	585.051
-55.246	571.646	1370.672	3296.602
-54.232	153.601	2578.877	3488.620
-53.217	116.722	2181.218	2643.237
-52.203	45.962	1720.329	1572.037
-51.188	38.460	1531.211	1347.754
-50.173	36.111	1503.352	1307.267
-49.159	55.947	1554.235	1488.697
-48.144	60.143	1573.560	1536.026
-47.130	38.947	1528.276	1348.301
-46.115	35.656	1512.928	1312.282
-45.100	35.419	1509.901	1307.988
-44.086	35.399	1507.625	1305.833
-43.071	35.384	1506.002	1304.272
-42.057	35.291	1504.270	1302.090
-41.042	35.406	1502.540	1301.321
-40.027	35.350	1501.911	1300.342
-39.013	35.435	1499.723	1298.973
-37.998	35.262	1498.528	1296.717
-36.984	35.348	1497.713	1296.535
-35.969	35.407	1495.966	1295.373
-34.954	35.337	1495.044	1294.050
-33.940	35.332	1493.156	1292.330
-32.925	35.331	1492.336	1291.568
-31.911	35.377	1490.964	1290.635
-30.896	35.474	1489.249	1289.752
-29.881	35.400	1488.201	1288.298
-28.867	35.450	1486.625	1287.219
-27.852	35.464	1484.918	1285.782
-26.838	35.420	1483.691	1284.370
-25.823	35.505	1482.233	1283.625
-24.809	35.365	1480.713	1281.326
-23.794	35.329	1479.096	1279.634
-22.779	35.408	1477.800	1278.991
-21.765	35.442	1476.862	1278.354
-20.750	35.436	1475.346	1276.950
-19.736	35.455	1474.325	1276.144
-18.721	35.432	1473.332	1275.080
-17.706	35.489	1472.516	1274.701
-16.692	35.358	1471.780	1273.142
-15.677	35.373	1470.191	1271.817
-14.663	35.359	1469.304	1270.908
-13.648	35.409	1468.011	1270.073
-12.633	35.333	1467.761	1269.300
-11.619	35.291	1467.000	1268.315
-10.604	35.241	1466.023	1267.091
-9.590	35.303	1464.707	1266.310
-8.575	35.412	1464.269	1266.602
-7.560	35.341	1462.928	1264.926
-6.546	35.323	1462.655	1264.518
-5.531	35.357	1461.536	1263.725
-4.517	35.307	1460.828	1262.733
-3.502	35.351	1459.522	1261.843
-2.487	35.294	1458.222	1260.294
-1.473	35.202	1457.436	1258.962
-0.458	35.344	1455.911	1258.523
0.556	35.524	1446.425	1247.960
1.571	32.574	1420.608	1206.713
2.586	29.130	1360.387	1134.286
3.600	27.659	1277.627	1056.667
4.615	26.255	1231.177	1010.317
5.629	22.318	1173.827	942.130
6.644	11.601	1085.889	818.094
7.659	3.121	1041.477	743.704
8.673	1.945	1035.405	733.647
9.688	1.784	1032.286	730.600
10.702	1.685	1030.792	729.004
11.717	1.656	1029.387	727.805
12.731	5.325	1033.793	748.454
13.746	15.584	1048.483	808.633
14.761	23.087	1057.737	851.987
15.775	24.538	1058.874	859.819
16.790	24.817	1058.089	860.448
17.804	24.497	1058.176	858.903
18.819	24.488	1056.749	857.625
19.834	24.558	1056.361	857.572
20.848	24.709	1055.697	857.677
21.863	24.791	1055.401	857.754
22.877	24.745	1055.254	857.339
23.892	24.705	1054.244	856.252
24.907	24.597	1053.674	855.196
25.921	24.571	1052.804	854.289
26.936	24.573	1051.947	853.527
27.950	24.597	1050.728	852.577
28.965	24.509	1049.803	851.335
29.980	24.363	1048.380	849.406
30.994	24.386	1046.877	848.225
32.009	24.662	1046.526	849.176
33.023	24.698	1045.502	848.443
34.038	24.563	1044.707	847.081
35.053	24.519	1044.319	846.482
36.067	24.675	1043.224	846.260
37.082	24.551	1042.650	845.133
38.096	24.615	1042.013	844.843
39.111	24.809	1041.024	844.882
40.126	24.966	1040.149	844.837
41.140	24.766	1039.177	843.033
42.155	24.613	1037.818	841.136
43.169	24.157	1036.344	837.724
44.184	24.196	1035.574	837.209
45.199	24.216	1034.669	836.498
46.213	24.195	1033.594	835.457
47.228	24.098	1032.580	834.107
48.242	24.411	1031.677	834.768
49.257	24.523	1031.053	834.716
50.271	24.509	1030.089	833.795
51.286	24.532	1029.978	833.739
52.301	24.719	1028.983	833.733
53.315	24.731	1028.369	833.217
54.330	24.572	1027.810	831.946
55.344	24.581	1026.761	831.069
56.359	24.478	1025.971	829.878
57.374	24.503	1025.046	829.169
58.388	24.366	1024.294	827.851
59.403	24.383	1023.686	827.368
60.417	24.420	1022.716	826.683
61.432	24.224	1021.887	825.030
62.447	24.230	1021.473	824.651
63.461	24.233	1020.783	824.036
64.476	24.328	1019.911	823.696
65.490	24.333	1019.153	823.035
66.505	24.401	1018.363	822.637
67.520	24.392	1017.422	821.762
68.534	24.347	1016.725	820.922
69.549	24.104	1015.765	818.954
70.563	24.095	1013.988	817.411
71.578	23.734	1014.103	815.773
72.593	23.932	1013.184	815.867
73.607	23.750	1012.021	814.028
74.622	23.668	1011.181	812.903
75.636	23.891	1010.788	813.535
76.651	24.111	1010.124	813.936
77.666	24.076	1008.745	812.590
78.680	23.886	1008.233	811.241
79.695	23.870	1007.762	810.719
80.709	24.142	1006.628	810.974
81.724	24.216	1006.079	810.796
82.739	24.185	1005.081	809.778
83.753	24.090	1004.554	808.852
84.768	24.365	1003.938	809.530
85.782	24.670	1003.009	810.091
86.797	24.891	1002.664	810.742
87.812	24.885	1001.789	809.938
88.826	24.778	1000.422	808.274
89.841	24.658	1000.072	807.382
90.855	24.839	998.904	807.183
91.870	24.888	998.680	807.148
92.884	24.914	997.442	806.196
93.899	24.831	996.563	805.038
94.914	24.753	995.808	804.007
95.928	24.808	994.997	803.529
96.943	24.743	994.061	802.410
97.957	24.461	993.247	800.417
98.972	24.258	991.963	798.403
99.987	24.107	990.967	796.858
101.001	24.175	990.431	796.657
102.016	24.424	990.076	797.413
103.030	24.501	989.338	797.093
104.045	24.585	987.995	796.316
105.060	24.503	986.399	794.595
106.074	24.254	985.427	792.634
107.089	24.100	985.124	791.638
108.103	24.501	984.631	792.950
109.118	24.594	983.883	792.690
110.133	24.257	983.025	790.435
111.147	24.306	981.466	789.331
112.162	24.243	980.436	788.155
113.176	24.007	979.161	786.015
114.191	24.135	978.667	786.114
115.206	24.253	977.795	785.865
116.220	24.022	976.469	783.713
117.235	23.895	975.657	782.434
118.249	23.911	975.588	782.377
119.264	23.903	974.437	781.351
120.279	23.899	973.424	780.450
121.293	24.010	972.669	780.264
122.308	24.020	972.119	779.798
123.322	23.995	971.281	778.947
124.337	23.866	970.487	777.679
125.352	23.858	969.042	776.414
126.366	23.483	967.457	773.443
127.381	23.080	966.357	770.739
128.395	23.672	966.317	773.217
129.410	24.205	966.383	775.521
130.424	24.562	964.880	775.799
131.439	24.420	964.426	774.749
132.454	24.375	963.518	773.754
133.468	24.608	962.279	773.701
134.483	24.434	961.670	772.390
135.497	24.519	961.087	772.220
136.512	24.658	960.558	772.329
137.527	24.611	960.034	771.635
138.541	24.861	958.430	771.354
139.556	24.787	958.352	770.904
140.570	24.970	957.029	770.558
141.585	24.703	956.613	769.010
142.600	24.909	955.849	769.211
143.614	24.632	954.943	767.223
144.629	24.811	954.422	767.506
145.643	24.905	954.256	767.707
146.658	24.898	952.752	766.401
147.673	24.706	951.327	764.367
148.687	24.680	950.108	763.206
149.702	24.664	948.770	761.997
150.716	24.378	948.522	760.510
151.731	24.416	947.096	759.464
152.746	24.616	946.543	759.804
153.760	24.710	945.916	759.631
154.775	24.661	945.614	759.115
155.789	24.832	944.858	759.167
156.804	24.813	943.582	757.991
157.819	24.857	942.517	757.256
158.833	24.768	942.198	756.555
159.848	25.054	941.213	756.907
160.862	25.011	940.733	756.274
161.877	24.961	939.395	754.917
162.892	24.816	938.615	753.616
163.906	24.926	937.899	753.436
164.921	24.720	937.342	752.055
165.935	24.756	936.187	751.213
166.950	24.851	934.894	750.508
167.964	24.997	934.184	750.483
168.979	24.913	933.115	749.208
169.994	24.565	932.389	747.102
171.008	24.596	931.196	746.210
172.023	24.775	930.677	746.475
173.037	24.972	930.033	746.716
174.052	24.861	928.801	745.197
175.067	24.613	927.602	743.136
176.081	24.435	927.053	741.892
177.096	24.695	926.171	742.199
178.110	24.574	925.623	741.195
179.125	24.374	924.432	739.344
180.140	24.330	923.351	738.232
181.154	24.296	922.811	737.596
182.169	24.235	922.824	737.289
183.183	24.511	922.330	737.970
184.198	24.963	921.460	739.075
185.213	24.780	921.196	738.039
186.227	24.684	920.613	737.112
187.242	24.819	919.816	736.967
188.256	24.845	918.972	736.330
189.271	24.847	917.867	735.390
190.286	24.935	917.541	735.422
191.300	24.814	916.565	734.078
192.315	24.343	915.068	730.884
193.329	23.553	913.338	726.208
194.344	23.130	912.710	723.914
195.359	23.665	913.035	726.297
196.373	24.508	913.217	729.824
197.388	24.845	913.064	731.013
198.402	24.835	912.136	730.167
199.417	24.760	911.487	729.276
200.432	24.795	911.144	729.080
201.446	24.609	910.502	727.746
202.461	24.207	909.855	725.526
203.475	24.337	909.449	725.669
204.490	23.868	908.142	722.656
205.504	22.751	905.868	716.250
206.519	23.202	905.833	717.987
207.534	24.165	905.952	721.922
208.548	24.333	905.186	721.930
209.563	24.774	905.370	723.798
210.577	24.765	904.303	722.842
211.592	24.442	903.821	721.088
212.607	24.730	903.463	721.902
213.621	25.071	903.072	722.902
214.636	24.942	902.488	721.850
215.650	24.946	901.866	721.307
216.665	24.843	901.431	720.480
217.680	25.049	900.827	720.761
218.694	25.000	900.385	720.148
219.709	24.701	899.615	718.269
220.723	24.405	898.654	716.247
221.738	24.510	897.887	715.996
222.753	24.780	897.799	716.943
223.767	24.582	896.932	715.394
224.782	24.642	896.432	715.171
225.796	24.902	896.164	715.937
226.811	25.156	894.968	715.930
227.826	24.667	893.988	713.134
228.840	23.848	892.459	708.588
229.855	23.717	891.951	707.597
230.869	24.045	891.640	708.596
231.884	23.640	890.511	706.025
232.899	23.853	889.809	706.254
233.913	24.548	890.605	709.585
234.928	24.690	890.368	709.898
235.942	24.611	889.411	708.757
236.957	24.726	888.328	708.289
237.972	24.412	887.549	706.360
238.986	24.091	887.121	704.686
240.001	24.328	886.313	704.921
241.015	24.628	885.050	705.036
242.030	24.482	885.535	704.786
243.045	24.679	884.567	704.731
244.059	24.715	884.292	704.590
245.074	24.809	883.942	704.619
246.088	24.940	882.662	704.050
247.103	24.469	882.173	701.746
248.117	24.571	881.570	701.608
249.132	25.015	881.831	703.494
250.147	25.414	881.538	704.763
251.161	25.439	880.682	704.118
252.176	25.551	880.533	704.373
253.190	25.599	879.850	703.952
254.205	25.596	879.349	703.479
255.220	25.817	878.860	703.890
256.234	25.879	878.370	703.677
257.249	25.688	877.661	702.300
258.263	25.504	876.892	700.906
259.278	25.640	876.190	700.810
260.293	25.702	875.571	700.496
261.307	25.683	875.306	700.148
262.322	25.594	874.677	699.238
263.336	25.447	873.917	697.998
264.351	25.010	872.386	695.017
265.366	23.774	871.103	689.143
266.380	23.584	869.436	687.029
267.395	24.245	870.294	690.204
268.409	25.210	870.365	693.937
269.424	25.233	869.308	693.119
270.439	25.310	869.244	693.304
271.453	25.446	868.489	693.165
272.468	25.316	867.865	692.107
273.482	25.547	867.718	692.819
274.497	25.694	867.177	692.889
275.512	25.529	865.945	691.212
276.526	25.023	864.374	687.952
277.541	25.062	864.487	688.133
278.555	25.474	864.273	689.481
279.570	25.235	863.250	687.687
280.585	24.943	862.963	686.279
281.599	25.110	862.328	686.352
282.614	25.309	861.703	686.556
283.628	24.864	860.431	683.782
284.643	24.568	859.788	682.083
285.657	24.933	859.700	683.346
286.672	24.824	859.121	682.408
287.687	24.384	857.774	679.603
288.701	24.520	858.371	680.535
289.716	25.117	857.788	682.285
290.730	24.723	856.787	679.929
291.745	24.686	856.035	679.132
292.760	24.542	854.994	677.701
293.774	24.298	854.321	676.181
294.789	25.259	855.117	680.398
295.803	26.019	855.220	683.300
296.818	25.977	854.870	682.798
297.833	26.069	854.296	682.629
298.847	25.655	853.225	680.146
299.862	25.421	852.171	678.364
300.876	25.626	851.786	678.773
301.891	25.885	851.423	679.398
302.906	25.956	850.755	679.074
303.920	25.466	850.169	676.701
304.935	25.595	848.919	676.130
305.949	25.927	848.752	677.187
306.964	25.988	848.139	676.866
307.979	25.670	847.646	675.218
308.993	25.611	847.261	674.632
310.008	25.847	847.302	675.487
311.022	26.096	846.548	675.759
312.037	26.044	845.816	674.921
313.052	25.741	845.410	673.406
314.066	25.482	844.837	671.922
315.081	24.949	843.017	668.426
316.095	24.192	842.041	664.767
317.110	24.757	841.862	666.677
318.125	25.479	842.623	669.911
319.139	25.135	841.514	667.690
320.154	23.908	839.787	661.697
321.168	23.594	838.503	659.462
322.183	24.167	838.933	661.869
323.197	25.143	839.203	665.650
324.212	25.443	838.908	666.469
325.227	25.478	838.635	666.325
326.241	25.868	838.279	667.425
327.256	25.565	837.500	665.627
328.270	25.561	836.892	665.068
329.285	25.334	836.186	663.610
330.300	25.434	835.516	663.388
331.314	25.139	834.608	661.521
332.329	25.112	834.298	661.118
333.343	25.637	833.774	662.578
334.358	25.805	833.668	663.053
335.373	25.784	833.101	662.468
336.387	25.826	832.494	662.080
337.402	25.949	832.225	662.261
338.416	26.241	831.861	662.984
339.431	26.180	831.645	662.530
340.446	26.186	830.931	661.923
341.460	26.508	830.418	662.635
342.475	26.495	829.650	661.918
343.489	26.185	828.688	659.957
344.504	26.157	828.727	659.826
345.519	26.511	827.969	660.457
346.533	26.570	828.043	660.675
347.548	26.684	827.427	660.540
348.562	26.712	827.228	660.425
349.577	26.645	826.355	659.427
350.592	26.595	825.727	658.684
351.606	26.547	825.405	658.192
352.621	26.600	824.652	657.726
353.635	26.636	823.772	657.098
354.650	26.450	823.550	656.190
355.665	26.107	822.413	653.981
356.679	25.073	820.828	648.922
357.694	24.886	820.514	647.938
358.708	25.583	820.496	650.390
359.723	25.499	820.001	649.635
360.738	25.606	819.732	649.754
361.752	26.243	819.426	651.752
362.767	26.217	819.022	651.278
363.781	26.595	818.936	652.513
364.796	26.868	819.054	653.534
365.810	26.957	818.298	653.195
366.825	27.012	818.240	653.289
367.840	26.968	817.774	652.699
368.854	26.782	817.199	651.514
369.869	26.446	816.202	649.457
370.883	26.306	815.653	648.459
371.898	26.385	814.860	648.056
372.913	26.297	814.257	647.202
373.927	26.243	813.969	646.722
374.942	26.386	813.267	646.621
375.956	26.391	812.870	646.265
376.971	26.520	812.446	646.332
377.986	26.895	811.457	646.823
379.000	26.869	811.184	646.455
380.015	26.959	810.709	646.342
381.029	26.749	810.186	645.122
382.044	26.862	809.504	644.921
383.059	26.819	809.188	644.460
384.073	27.009	808.837	644.800
385.088	26.958	808.141	644.005
386.102	27.021	807.143	643.375
387.117	26.720	806.821	641.997
388.132	26.587	806.304	641.059
389.146	26.414	805.589	639.820
390.161	26.032	804.637	637.659
391.175	25.947	804.681	637.336
392.190	26.469	804.576	639.041
393.205	26.422	804.273	638.578
394.219	25.656	802.007	634.022
395.234	23.974	800.068	626.519
396.248	23.186	798.717	622.634
397.263	24.142	799.897	626.863
398.278	25.938	801.149	634.115
399.292	26.529	801.021	636.033
400.307	26.315	800.227	634.595
401.321	26.209	799.925	633.928
402.336	26.136	799.640	633.390
403.350	26.609	799.587	634.949
404.365	26.966	799.466	636.052
405.380	27.204	799.202	636.617
406.394	27.583	798.883	637.633
407.409	27.661	798.832	637.810
408.423	27.608	798.336	637.170
409.438	27.498	797.735	636.252
410.453	27.590	797.081	635.995
411.467	27.804	796.474	636.199
412.482	27.527	795.946	634.756
413.496	27.633	795.204	634.478
414.511	27.764	795.175	634.854
415.526	27.683	794.929	634.321
416.540	27.530	794.848	633.667
417.555	27.552	794.238	633.201
418.569	27.286	793.346	631.509
419.584	27.407	792.603	631.282
420.599	27.449	792.339	631.161
421.613	107.295	1279.032	1440.576
422.628	92.228	1349.925	1440.681
