DTS Sentinel unit serial number:	SN413079Multiplexer serial number:	ORYXHardware model number:	OX4-SRSoftware version number:	ORYX F/W v4.00 Oryx Data Collector v3.7.2.0data status	okinstallation	princeton_trtdifferential loss correction	single-endedforward channel	channel 3reverse channel	N/Adate	2019/09/13time	03:36:35forward acquisition time	60.00reverse acquisition time	0.00gamma	496.2192k internal	0.2335k external	0.2335temperature offset calibration	1.0138default loss term (dB/km)	0.3790temperature slope calibration	1.0000multiplexer offset coefficient	1.0000multiplexer slope coefficient	1.0000fibre end	0.00T internal ref (°C)	27.27T ext. ref 1 (°C)	4.09T ext. ref 2 (°C)	21.64length (m)	temperature (°C)	Stokes	anti-Stokes-747.200	442.264	-0.109	0.239
-746.185	-200.000	0.015	0.094
-745.171	-200.000	-0.036	0.328
-744.156	111.664	-0.135	-0.164
-743.142	-160.551	-0.215	0.012
-742.127	267.137	0.015	-0.027
-741.112	-169.340	0.015	0.001
-740.098	83.120	0.110	0.120
-739.083	19.218	-0.347	0.280
-738.069	-200.000	0.009	0.507
-737.054	-154.363	-0.278	0.019
-736.039	-104.063	-0.300	-0.070
-735.025	111.299	0.176	0.213
-734.010	77.325	0.088	-0.094
-732.996	60.691	-0.263	-0.262
-731.981	800.000	0.022	-0.089
-730.966	-66.950	0.308	-0.122
-729.952	458.122	-0.051	-0.113
-728.937	-65.797	-0.175	-0.070
-727.923	-143.803	-0.193	-0.018
-726.908	-140.478	-0.049	0.005
-725.894	255.349	0.055	-0.095
-724.879	-200.000	-0.039	-0.306
-723.864	-138.153	-0.427	-0.048
-722.850	-160.556	0.106	-0.006
-721.835	800.000	0.085	-0.247
-720.821	-200.000	-0.039	-0.295
-719.806	18.540	0.211	0.169
-718.791	-200.000	0.030	-0.422
-717.777	131.061	0.140	-0.180
-716.762	-107.714	0.193	0.042
-715.748	800.000	0.019	0.059
-714.733	-108.838	0.355	-0.076
-713.718	-123.184	0.167	0.027
-712.704	463.451	-0.211	-0.472
-711.689	-200.000	0.038	-0.438
-710.675	25.509	-0.119	0.099
-709.660	555.469	-0.046	-0.111
-708.645	-95.915	0.076	0.020
-707.631	78.005	0.026	0.027
-706.616	-189.256	0.247	0.003
-705.602	-174.135	-0.215	0.006
-704.587	149.640	0.064	0.087
-703.572	-42.355	0.220	0.113
-702.558	175.371	0.051	-0.074
-701.543	-162.587	-0.074	-0.004
-700.529	-0.398	-0.100	-0.071
-699.514	-200.000	0.095	0.440
-698.499	-114.837	-0.161	-0.031
-697.485	-49.115	-0.265	-0.127
-696.470	64.913	-0.061	0.062
-695.456	-200.000	-0.039	0.204
-694.441	-200.000	-0.034	0.234
-693.426	800.000	0.037	-0.137
-692.412	216.477	-0.121	0.192
-691.397	-56.864	0.172	-0.076
-690.383	519.150	0.085	-0.199
-689.368	30.778	0.292	0.251
-688.354	-144.078	0.266	0.025
-687.339	564.339	-0.166	-0.403
-686.324	-200.000	0.002	0.116
-685.310	800.000	0.054	-0.195
-684.295	-71.118	-0.224	-0.084
-683.281	-200.000	-0.004	-0.165
-682.266	800.000	0.032	0.089
-681.251	687.707	0.091	-0.239
-680.237	333.948	0.066	0.128
-679.222	98.935	-0.167	0.193
-678.208	-69.834	-0.177	0.068
-677.193	57.113	0.121	-0.119
-676.178	210.628	-0.149	-0.234
-675.164	128.147	0.306	-0.390
-674.149	358.510	0.046	-0.092
-673.135	-41.272	0.427	-0.221
-672.120	108.481	0.232	0.278
-671.105	-200.000	-0.010	-0.319
-670.091	800.000	-0.048	0.165
-669.076	800.000	-0.030	-0.117
-668.062	204.388	-0.087	-0.135
-667.047	362.787	0.107	-0.214
-666.032	-153.450	-0.275	0.019
-665.018	263.745	0.212	-0.369
-664.003	-133.558	-0.261	0.033
-662.989	-117.619	0.070	-0.013
-661.974	6.563	0.282	0.210
-660.959	63.965	-0.355	0.358
-659.945	347.926	-0.033	-0.065
-658.930	-200.000	0.003	-0.082
-657.916	-54.436	-0.578	-0.262
-656.901	-149.754	-0.510	-0.040
-655.886	35.824	0.226	-0.199
-654.872	280.350	-0.124	-0.222
-653.857	233.125	-0.132	0.217
-652.843	-3.661	0.067	-0.047
-651.828	-25.380	0.128	0.076
-650.814	73.913	-0.083	-0.087
-649.799	149.971	-0.205	-0.279
-648.784	-18.384	0.410	-0.257
-647.770	-200.000	-0.017	-0.263
-646.755	33.690	-0.056	-0.049
-645.741	-71.281	-0.115	-0.043
-644.726	27.412	-0.377	0.317
-643.711	-92.571	-0.057	0.016
-642.697	-97.436	0.206	-0.054
-641.682	-200.000	-0.045	-0.274
-640.668	-200.000	-0.001	-0.039
-639.653	74.052	-0.138	-0.145
-638.638	7.392	-0.188	0.141
-637.624	800.000	0.074	0.268
-636.609	-22.125	0.058	0.035
-635.595	704.656	-0.101	0.266
-634.580	210.393	0.007	-0.011
-633.565	-200.000	-0.006	0.125
-632.551	800.000	-0.051	-0.187
-631.536	153.927	-0.253	-0.347
-630.522	40.611	-0.181	-0.163
-629.507	-149.836	0.339	-0.027
-628.492	-140.036	0.114	-0.012
-627.478	-36.969	-0.177	-0.095
-626.463	-200.000	0.003	0.104
-625.449	-107.341	-0.166	-0.037
-624.434	-106.815	0.181	0.040
-623.419	-114.435	-0.244	0.047
-622.405	88.477	-0.217	-0.241
-621.390	143.081	0.197	0.261
-620.376	-27.407	0.251	0.146
-619.361	-113.932	-0.072	-0.014
-618.346	0.501	0.112	-0.080
-617.332	590.625	-0.119	-0.294
-616.317	-140.198	0.108	0.011
-615.303	-16.861	-0.176	0.111
-614.288	-70.703	0.490	0.185
-613.273	-190.449	0.174	0.002
-612.259	14.513	0.259	-0.202
-611.244	-37.808	-0.196	0.104
-610.230	14.484	-0.130	-0.101
-609.215	300.508	0.172	0.317
-608.201	800.000	0.180	0.501
-607.186	-69.339	-0.197	0.076
-606.171	-154.280	0.120	-0.008
-605.157	297.885	-0.139	-0.256
-604.142	768.350	0.093	0.253
-603.128	497.648	0.096	-0.221
-602.113	-200.000	0.003	-0.402
-601.098	185.466	-0.192	0.285
-600.084	-22.206	0.348	0.211
-599.069	-200.000	0.074	0.324
-598.055	-200.000	-0.035	-0.307
-597.040	322.724	0.104	0.199
-596.025	562.872	-0.111	0.268
-595.011	113.048	-0.036	0.044
-593.996	628.746	0.056	0.141
-592.982	800.000	0.070	-0.227
-591.967	-20.939	0.287	-0.176
-590.952	800.000	0.033	0.124
-589.938	62.167	-0.134	0.134
-588.923	132.531	-0.101	-0.131
-587.909	-34.241	-0.287	-0.157
-586.894	-200.000	0.037	-0.274
-585.879	705.903	0.083	-0.218
-584.865	-109.745	-0.111	0.023
-583.850	-84.648	-0.205	-0.064
-582.836	256.911	-0.091	-0.156
-581.821	-200.000	0.001	-0.127
-580.806	487.771	0.101	0.230
-579.792	665.967	-0.046	0.119
-578.777	-182.449	-0.240	0.004
-577.763	-73.795	0.234	0.085
-576.748	-200.000	-0.037	0.192
-575.733	190.574	0.088	0.133
-574.719	60.164	0.154	0.152
-573.704	-115.821	0.043	0.008
-572.690	-96.614	0.380	0.100
-571.675	-89.938	-0.179	-0.052
-570.661	-200.000	0.032	-0.150
-569.646	-200.000	-0.038	0.170
-568.631	143.855	-0.133	-0.177
-567.617	-200.000	-0.025	-0.356
-566.602	-92.518	0.320	-0.090
-565.588	717.419	-0.241	0.638
-564.573	-148.545	0.137	-0.011
-563.558	-200.000	0.033	-0.204
-562.544	95.239	0.096	-0.110
-561.529	98.307	0.105	-0.120
-560.515	29.083	-0.036	0.030
-559.500	-6.633	0.200	-0.136
-558.485	41.136	0.243	0.219
-557.471	134.074	0.127	0.164
-556.456	355.059	0.158	-0.314
-555.442	-200.000	-0.019	-0.198
-554.427	-151.647	-0.049	-0.004
-553.412	-48.721	-0.186	0.089
-552.398	12.756	0.162	-0.125
-551.383	65.571	-0.148	0.149
-550.369	-63.113	0.007	0.003
-549.354	-32.637	-0.301	-0.167
-548.339	-120.651	0.228	0.039
-547.325	291.371	0.238	0.432
-546.310	-131.523	0.238	-0.031
-545.296	-46.733	-0.295	-0.144
-544.281	-200.000	0.010	-0.153
-543.266	11.077	-0.260	-0.198
-542.252	167.205	-0.127	0.180
-541.237	-42.574	0.203	-0.103
-540.223	16.139	0.441	-0.347
-539.208	-200.000	0.047	-0.295
-538.193	-165.169	-0.090	0.004
-537.179	199.471	0.154	-0.235
-536.164	-95.110	-0.276	-0.074
-535.150	211.848	0.196	0.308
-534.135	-84.208	0.112	-0.035
-533.121	-8.073	0.107	0.072
-532.106	-40.312	-0.089	0.046
-531.091	131.750	-0.109	0.140
-530.077	-151.485	-0.255	-0.019
-529.062	311.106	-0.057	-0.106
-528.048	-61.614	-0.258	-0.108
-527.033	150.209	-0.106	-0.144
-526.018	-85.681	0.182	0.056
-525.004	134.051	0.120	0.154
-523.989	-200.000	-0.023	-0.405
-522.975	218.576	0.069	0.110
-521.960	-200.000	-0.013	-0.361
-520.945	201.158	0.031	0.048
-519.931	-97.666	0.405	0.105
-518.916	-23.558	-0.174	-0.104
-517.902	-193.509	0.065	0.001
-516.887	10.556	-0.225	-0.171
-515.872	-72.484	-0.201	0.074
-514.858	-15.161	-0.329	-0.210
-513.843	-200.000	-0.014	-0.378
-512.829	-200.000	-0.031	-0.234
-511.814	800.000	-0.053	0.211
-510.799	309.918	0.103	-0.193
-509.785	-197.923	0.230	-0.001
-508.770	-41.719	-0.164	-0.084
-507.756	800.000	-0.028	-0.110
-506.741	-7.762	-0.203	-0.137
-505.726	-200.000	0.033	-0.250
-504.712	-200.000	-0.083	-0.000
-503.697	-53.448	-0.397	0.181
-502.683	-24.713	-0.310	0.184
-501.668	79.350	-0.073	0.078
-500.653	-28.142	-0.228	-0.131
-499.639	433.824	0.072	-0.156
-498.624	-200.000	0.042	0.247
-497.610	-200.000	-0.025	-0.395
-496.595	207.218	-0.079	-0.122
-495.581	-170.137	-0.331	0.012
-494.566	-81.545	-0.117	0.038
-493.551	800.000	0.079	-0.234
-492.537	-68.389	-0.290	0.112
-491.522	610.914	0.220	-0.548
-490.508	343.391	0.061	-0.118
-489.493	-97.882	0.223	0.057
-488.478	-82.822	0.242	-0.078
-487.464	-37.305	-0.077	-0.041
-486.449	-135.232	-0.283	-0.034
-485.435	173.405	-0.150	0.215
-484.420	-108.139	-0.196	0.042
-483.405	277.522	0.126	0.223
-482.391	30.490	-0.179	0.152
-481.376	22.975	-0.110	-0.090
-480.362	109.652	0.130	0.155
-479.347	-200.000	0.005	0.223
-478.332	79.299	0.179	-0.191
-477.318	198.150	-0.117	0.178
-476.303	409.173	0.209	0.439
-475.289	352.340	0.206	0.407
-474.274	-107.316	-0.334	0.073
-473.259	136.574	-0.111	-0.144
-472.245	800.000	-0.016	-0.048
-471.230	-150.896	-0.148	-0.011
-470.216	-145.957	-0.286	-0.025
-469.201	101.219	-0.107	0.124
-468.186	-200.000	-0.001	0.052
-467.172	-200.000	-0.046	-0.228
-466.157	-200.000	0.119	0.577
-465.143	120.343	-0.059	-0.073
-464.128	-196.184	-0.459	0.003
-463.113	149.220	-0.068	0.092
-462.099	255.163	-0.048	-0.081
-461.084	-72.607	-0.335	0.123
-460.070	128.125	0.158	0.200
-459.055	800.000	-0.073	-0.236
-458.040	-132.637	0.264	-0.034
-457.026	-200.000	-0.068	0.387
-456.011	-47.963	-0.242	-0.117
-454.997	34.166	0.193	0.167
-453.982	-76.351	-0.158	-0.055
-452.968	109.552	-0.183	0.218
-451.953	46.149	0.170	0.157
-450.938	-110.407	0.228	0.047
-449.924	463.519	0.109	-0.242
-448.909	-200.000	0.015	0.118
-447.895	-200.000	0.021	0.169
-446.880	-17.463	0.016	0.010
-445.865	800.000	0.023	0.073
-444.851	145.374	0.266	-0.354
-443.836	-89.222	0.081	-0.024
-442.822	800.000	0.039	0.136
-441.807	-82.712	-0.032	0.010
-440.792	80.515	-0.158	0.169
-439.778	82.714	0.244	-0.263
-438.763	-200.000	0.101	0.506
-437.749	-55.463	0.401	-0.179
-436.734	800.000	-0.060	-0.176
-435.719	622.687	-0.012	0.030
-434.705	-84.623	0.162	0.051
-433.690	140.176	0.092	-0.121
-432.676	342.293	-0.066	-0.128
-431.661	-184.197	0.229	0.004
-430.646	-117.097	-0.063	-0.011
-429.632	18.989	0.091	-0.072
-428.617	180.500	0.127	-0.185
-427.603	-146.426	-0.331	0.029
-426.588	96.608	-0.190	-0.216
-425.573	-155.536	0.196	-0.013
-424.559	65.185	0.141	-0.142
-423.544	200.875	-0.248	0.378
-422.530	257.199	0.118	0.202
-421.515	-200.000	0.039	0.203
-420.500	-110.839	0.144	0.029
-419.486	-38.217	-0.202	-0.106
-418.471	-12.248	-0.093	-0.060
-417.457	-28.069	-0.397	-0.228
-416.442	238.660	-0.084	-0.138
-415.428	-11.711	-0.272	-0.177
-414.413	-200.000	0.015	-0.115
-413.398	-102.107	0.212	0.051
-412.384	84.792	-0.273	-0.296
-411.369	38.693	0.158	-0.140
-410.355	32.991	-0.131	-0.112
-409.340	-200.000	-0.014	-0.066
-408.325	32.121	-0.268	-0.229
-407.311	-200.000	0.045	-0.369
-406.296	60.392	0.160	-0.157
-405.282	196.563	0.049	0.075
-404.267	-200.000	-0.025	0.438
-403.252	81.593	0.217	0.233
-402.238	-37.598	-0.039	0.021
-401.223	172.971	0.104	0.149
-400.209	-200.000	-0.072	0.347
-399.194	800.000	-0.025	-0.090
-398.179	-200.000	0.009	-0.109
-397.165	-54.712	0.037	-0.017
-396.150	182.172	-0.186	0.271
-395.136	-200.000	0.018	-0.603
-394.121	195.849	0.083	0.124
-393.106	280.704	-0.079	0.140
-392.092	-31.611	-0.161	-0.090
-391.077	800.000	-0.062	0.204
-390.063	-13.909	-0.273	0.175
-389.048	57.532	0.031	-0.030
-388.033	-62.514	-0.311	-0.128
-387.019	-85.608	0.154	0.048
-386.004	-42.976	-0.189	-0.095
-384.990	-40.431	0.182	-0.094
-383.975	-66.928	0.123	0.048
-382.960	-22.570	-0.251	0.150
-381.946	-200.000	-0.004	0.251
-380.931	-122.072	-0.143	0.023
-379.917	42.150	0.123	-0.110
-378.902	749.272	-0.034	0.090
-377.888	-95.587	-0.202	-0.054
-376.873	-58.178	-0.075	0.032
-375.858	-200.000	-0.003	0.120
-374.844	480.099	0.039	0.087
-373.829	800.000	0.071	0.291
-372.815	-111.235	0.174	0.035
-371.800	-120.294	0.307	0.052
-370.785	-200.000	0.037	0.406
-369.771	-162.222	-0.215	0.011
-368.756	22.918	-0.266	-0.216
-367.742	601.253	-0.074	-0.181
-366.727	-140.952	-0.224	0.023
-365.712	45.143	0.164	0.149
-364.698	462.545	-0.070	0.155
-363.683	-138.563	-0.132	0.014
-362.669	-155.811	-0.285	0.018
-361.654	-200.000	0.020	-0.186
-360.639	-200.000	0.023	-0.333
-359.625	1.936	0.307	-0.219
-358.610	-128.676	0.109	0.015
-357.596	-200.000	0.038	0.226
-356.581	261.469	-0.088	0.151
-355.566	-101.332	0.409	0.099
-354.552	-87.074	-0.171	-0.051
-353.537	136.484	-0.151	0.195
-352.523	-200.000	0.022	0.195
-351.508	-49.370	-0.181	0.085
-350.493	-200.000	-0.001	-0.102
-349.479	-74.685	-0.122	-0.043
-348.464	-21.958	-0.308	0.185
-347.450	75.182	-0.248	-0.258
-346.435	-43.417	-0.250	-0.125
-345.420	350.643	-0.237	-0.464
-344.406	-200.000	-0.004	0.145
-343.391	34.535	0.177	-0.153
-342.377	61.770	-0.090	-0.088
-341.362	-200.000	-0.004	0.156
-340.348	-200.000	-0.057	0.301
-339.333	76.741	-0.196	0.206
-338.318	-154.639	0.068	0.005
-337.304	24.210	-0.044	0.036
-336.289	-138.629	0.257	-0.028
-335.275	188.597	0.013	0.020
-334.260	-149.196	0.101	-0.008
-333.245	-104.772	-0.185	-0.042
-332.231	39.869	0.258	0.229
-331.216	29.137	-0.288	0.242
-330.202	503.772	0.062	-0.141
-329.187	-37.288	-0.170	0.090
-328.172	-39.844	0.284	0.147
-327.158	100.870	-0.097	-0.112
-326.143	-22.614	-0.251	0.150
-325.129	53.641	-0.189	-0.179
-324.114	-182.506	-0.223	0.004
-323.099	93.565	0.103	0.115
-322.085	800.000	-0.099	0.276
-321.070	643.963	-0.063	0.160
-320.056	-96.242	0.325	0.085
-319.041	8.314	-0.262	0.194
-318.026	-200.000	0.041	-0.196
-317.012	-74.840	0.415	-0.147
-315.997	800.000	-0.079	-0.261
-314.983	460.512	0.096	-0.212
-313.968	800.000	-0.125	-0.376
-312.953	143.834	0.183	-0.240
-311.939	-112.953	0.435	0.085
-310.924	-10.653	-0.167	0.109
-309.910	66.230	0.352	0.354
-308.895	-41.035	0.144	0.074
-307.880	-48.531	0.170	-0.081
-306.866	59.042	0.069	-0.067
-305.851	218.831	0.055	0.087
-304.837	23.588	0.271	-0.220
-303.822	-23.948	-0.122	-0.072
-302.807	11.883	0.037	-0.028
-301.793	800.000	-0.066	-0.203
-300.778	800.000	0.140	0.495
-299.764	512.698	-0.052	-0.120
-298.749	-117.554	0.318	0.057
-297.735	383.575	0.129	0.262
-296.720	10.612	0.162	-0.122
-295.705	-57.871	0.106	-0.046
-294.691	-91.556	0.076	0.021
-293.676	-136.191	-0.236	0.027
-292.662	800.000	-0.183	0.569
-291.647	28.568	-0.072	-0.060
-290.632	800.000	0.050	0.199
-289.618	-89.072	0.024	0.007
-288.603	-94.681	0.326	0.087
-287.589	-200.000	0.013	0.103
-286.574	-200.000	-0.022	0.214
-285.559	68.488	-0.146	0.148
-284.545	435.195	-0.112	0.241
-283.530	13.123	-0.155	-0.119
-282.516	-42.172	0.118	-0.060
-281.501	-32.824	-0.071	-0.039
-280.486	-178.914	0.218	0.005
-279.472	800.000	-0.045	-0.148
-278.457	-121.676	0.288	0.047
-277.443	-14.925	-0.012	0.008
-276.428	800.000	0.048	0.150
-275.413	-146.033	-0.111	0.010
-274.399	28.646	-0.285	-0.238
-273.384	-162.038	-0.243	0.012
-272.370	-77.367	0.194	0.067
-271.355	-102.797	0.109	0.026
-270.340	-60.170	-0.223	-0.094
-269.326	109.816	0.210	-0.248
-268.311	-90.299	-0.289	-0.083
-267.297	580.872	0.039	0.094
-266.282	-37.202	0.119	-0.063
-265.267	690.069	-0.105	0.271
-264.253	409.898	-0.184	0.384
-263.238	-11.009	0.181	0.118
-262.224	375.607	-0.114	-0.230
-261.209	-87.862	-0.346	-0.103
-260.195	41.085	0.277	0.247
-259.180	71.339	0.112	-0.115
-258.165	-114.872	-0.209	-0.039
-257.151	19.629	-0.134	0.107
-256.136	-31.747	0.278	0.153
-255.122	44.116	0.112	-0.101
-254.107	-37.312	-0.111	0.058
-253.092	-200.000	0.017	0.249
-252.078	50.112	-0.360	0.335
-251.063	3.935	0.116	-0.084
-250.049	278.081	-0.157	-0.275
-249.034	44.604	0.105	-0.095
-248.019	-200.000	0.012	-0.065
-247.005	-200.000	-0.001	0.143
-245.990	8.347	-0.174	0.129
-244.976	-58.811	-0.197	-0.084
-243.961	202.130	-0.109	0.165
-242.946	15.892	-0.137	0.106
-241.932	-55.349	0.294	0.130
-240.917	-71.023	0.199	0.074
-239.903	-75.955	0.107	0.037
-238.888	-125.960	0.336	-0.050
-237.873	161.270	-0.132	-0.182
-236.859	30.813	0.197	-0.166
-235.844	170.367	-0.091	0.128
-234.830	-46.983	-0.192	0.092
-233.815	156.616	-0.137	0.186
-232.800	163.031	0.138	-0.190
-231.786	-117.290	0.104	0.019
-230.771	561.693	0.049	-0.116
-229.757	51.053	0.208	-0.195
-228.742	-200.000	0.020	-0.118
-227.727	-44.508	0.048	-0.024
-226.713	-190.006	-0.059	0.001
-225.698	-200.000	-0.004	0.031
-224.684	349.486	-0.139	0.269
-223.669	-73.476	0.316	-0.114
-222.655	30.710	0.107	0.090
-221.640	25.216	0.139	0.113
-220.625	50.296	-0.233	-0.217
-219.611	319.586	0.098	-0.183
-218.596	154.680	-0.215	-0.291
-217.582	-80.393	0.238	-0.078
-216.567	-15.599	-0.149	0.093
-215.552	-200.000	0.042	-0.222
-214.538	277.658	0.137	0.241
-213.523	302.280	-0.096	-0.176
-212.509	208.307	-0.082	0.127
-211.494	63.542	0.264	-0.261
-210.479	-1.466	-0.221	-0.153
-209.465	171.416	0.059	0.083
-208.450	71.379	-0.208	0.213
-207.436	800.000	0.025	0.079
-206.421	-117.137	0.265	-0.047
-205.406	-26.834	0.355	0.204
-204.392	800.000	0.103	-0.434
-203.377	-84.384	0.192	-0.060
-202.363	-169.656	0.215	-0.008
-201.348	800.000	-0.035	-0.136
-200.333	-68.150	0.210	-0.080
-199.319	221.081	-0.164	-0.259
-198.304	800.000	0.058	0.161
-197.290	-108.946	-0.269	-0.057
-196.275	23.802	0.308	0.250
-195.260	125.748	0.230	0.286
-194.246	-51.766	0.162	-0.074
-193.231	64.507	0.061	0.060
-192.217	-0.252	-0.144	0.100
-191.202	-27.001	0.049	0.028
-190.187	-81.173	0.299	0.097
-189.173	-200.000	0.017	0.129
-188.158	-200.000	-0.005	0.030
-187.144	127.227	-0.214	-0.267
-186.129	-49.919	-0.130	0.061
-185.114	-200.000	0.019	-0.089
-184.100	-103.918	-0.111	0.025
-183.085	-152.025	-0.179	-0.013
-182.071	-160.349	0.150	0.008
-181.056	800.000	-0.018	0.058
-180.042	800.000	-0.061	-0.195
-179.027	-5.356	0.389	-0.263
-178.012	12.846	0.031	-0.023
-176.998	413.775	-0.123	0.258
-175.983	800.000	-0.036	0.134
-174.969	-43.394	0.086	0.043
-173.954	92.891	-0.121	-0.135
-172.939	800.000	-0.063	0.262
-171.925	-200.000	-0.017	-0.192
-170.910	162.848	0.201	0.277
-169.896	-8.812	-0.175	0.115
-168.881	-200.000	0.026	0.163
-167.866	0.837	-0.092	0.065
-166.852	-200.000	-0.004	0.126
-165.837	505.000	0.109	-0.248
-164.823	-200.000	0.031	-0.362
-163.808	-20.654	0.233	-0.140
-162.793	14.340	-0.164	-0.125
-161.779	-200.000	-0.022	-0.134
-160.764	-59.878	-0.191	-0.080
-159.750	-173.269	-0.096	0.003
-158.735	-108.315	-0.061	-0.013
-157.720	-80.150	0.306	-0.101
-156.706	-88.386	0.489	-0.143
-155.691	-40.074	0.145	-0.074
-154.677	212.104	-0.077	-0.119
-153.662	-86.417	0.139	0.042
-152.647	-183.915	0.150	0.002
-151.633	105.138	0.169	0.196
-150.618	61.945	0.049	-0.048
-149.604	800.000	-0.045	0.142
-148.589	-60.592	0.011	-0.005
-147.574	-60.283	0.394	-0.165
-146.560	-124.808	-0.207	0.031
-145.545	-73.272	-0.188	0.068
-144.531	-117.548	0.087	0.015
-143.516	-200.000	-0.008	0.382
-142.502	25.984	-0.339	0.277
-141.487	800.000	-0.050	0.148
-140.472	800.000	0.071	0.269
-139.458	55.771	-0.159	0.151
-138.443	355.319	-0.077	-0.150
-137.429	-200.000	-0.005	-0.034
-136.414	37.571	-0.257	-0.224
-135.399	21.447	0.090	0.072
-134.385	-200.000	0.043	0.257
-133.370	-120.382	-0.174	-0.029
-132.356	174.065	-0.066	-0.094
-131.341	562.056	-0.128	-0.303
-130.326	157.788	-0.124	0.169
-129.312	623.531	0.064	-0.158
-128.297	166.276	0.108	0.151
-127.283	800.000	0.060	-0.223
-126.268	23.333	-0.197	0.159
-125.253	-200.000	0.006	0.046
-124.239	-133.410	0.201	0.025
-123.224	0.773	0.055	-0.039
-122.210	-200.000	0.042	-0.337
-121.195	-200.000	0.056	-0.348
-120.180	367.148	0.108	0.214
-119.166	47.208	-0.167	0.153
-118.151	477.929	-0.065	0.145
-117.137	548.477	-0.066	0.155
-116.122	-29.180	0.284	0.160
-115.107	800.000	-0.111	-0.328
-114.093	-128.218	-0.321	-0.045
-113.078	24.287	0.114	0.092
-112.064	2.962	0.017	0.012
-111.049	-79.751	0.141	-0.047
-110.034	-131.436	0.156	0.020
-109.020	-200.000	-0.031	0.201
-108.005	80.111	-0.150	-0.158
-106.991	-200.000	0.026	-0.310
-105.976	-142.522	0.368	0.035
-104.962	-118.411	-0.057	0.010
-103.947	33.003	-0.216	-0.184
-102.932	336.998	-0.120	-0.228
-101.918	283.308	0.083	0.146
-100.903	-2.567	0.353	0.242
-99.889	-15.520	0.285	0.179
-98.874	-172.407	0.287	0.009
-97.859	800.000	-0.089	-0.245
-96.845	272.691	0.131	0.227
-95.830	394.204	-0.141	0.289
-94.816	216.972	-0.186	0.289
-93.801	-23.315	0.154	0.090
-92.786	62.276	0.131	0.128
-91.772	-200.000	-0.001	0.104
-90.757	493.346	-0.095	-0.214
-89.743	-18.970	0.109	0.066
-88.728	43.163	0.114	-0.102
-87.713	-31.446	-0.233	-0.128
-86.699	-200.000	-0.026	-0.126
-85.684	-67.894	0.062	-0.024
-84.670	133.222	0.179	-0.227
-83.655	-17.885	-0.286	-0.176
-82.640	158.294	0.224	0.304
-81.626	-80.745	-0.333	-0.108
-80.611	-200.000	-0.006	0.449
-79.597	-78.319	-0.183	0.062
-78.582	-200.000	-0.016	0.326
-77.567	644.045	-0.055	-0.138
-76.553	-162.333	-0.276	-0.013
-75.538	-46.968	-0.085	0.041
-74.524	-69.012	0.043	0.016
-73.509	747.954	0.080	0.212
-72.494	161.439	0.172	-0.236
-71.480	800.000	0.039	-0.144
-70.465	800.000	0.062	-0.203
-69.451	-30.650	-0.114	-0.063
-68.436	-142.245	-0.391	0.038
-67.422	398.680	-0.079	0.161
-66.407	4.724	-0.318	-0.229
-65.392	-6.217	0.141	-0.094
-64.378	-126.650	0.478	-0.069
-63.363	-150.026	-0.156	-0.012
-62.349	-51.238	-0.278	0.127
-61.334	91.565	-0.832	-0.914
-60.319	94.491	0.625	0.694
-59.305	-200.000	-0.175	-1.077
-58.290	162.511	0.809	1.111
-57.276	800.000	0.548	1.605
-56.261	-200.000	115.584	664.607
-55.246	541.820	1527.538	3560.613
-54.232	178.180	2693.835	3844.415
-53.217	109.271	2173.196	2543.911
-52.203	37.927	1697.496	1475.545
-51.188	30.432	1515.067	1266.058
-50.173	28.062	1491.251	1230.181
-49.159	52.870	1549.280	1448.681
-48.144	51.042	1564.816	1450.653
-47.130	30.562	1521.072	1271.766
-46.115	27.489	1505.759	1238.064
-45.100	27.436	1501.709	1234.324
-44.086	27.290	1500.275	1232.109
-43.071	27.277	1498.250	1230.306
-42.057	27.280	1496.816	1229.102
-41.042	27.341	1495.520	1228.397
-40.027	27.142	1494.347	1226.045
-39.013	27.246	1492.278	1224.999
-37.998	27.219	1490.850	1223.596
-36.984	27.325	1489.423	1223.090
-35.969	27.261	1488.483	1221.840
-34.954	27.240	1487.411	1220.770
-33.940	27.259	1485.872	1219.585
-32.925	27.269	1484.984	1218.876
-31.911	27.357	1483.024	1217.805
-30.896	27.245	1482.355	1216.461
-29.881	27.208	1481.012	1215.062
-28.867	27.296	1479.726	1214.544
-27.852	27.301	1478.611	1213.621
-26.838	27.372	1476.709	1212.484
-25.823	27.323	1475.528	1211.136
-24.809	27.328	1473.832	1209.727
-23.794	27.263	1472.570	1208.216
-22.779	27.300	1471.326	1207.392
-21.765	27.334	1470.005	1206.481
-20.750	27.336	1469.237	1205.822
-19.736	27.228	1468.462	1204.421
-18.721	27.335	1466.803	1203.717
-17.706	27.270	1466.232	1202.774
-16.692	27.362	1465.103	1202.408
-15.677	27.244	1463.829	1200.536
-14.663	27.257	1463.164	1200.026
-13.648	27.225	1462.283	1199.049
-12.633	27.236	1460.984	1198.003
-11.619	27.184	1461.263	1197.844
-10.604	27.122	1459.991	1196.344
-9.590	27.293	1458.674	1196.343
-8.575	27.165	1458.299	1195.146
-7.560	27.276	1456.888	1194.676
-6.546	27.322	1455.853	1194.078
-5.531	27.265	1455.020	1192.977
-4.517	27.178	1454.518	1191.946
-3.502	27.239	1453.128	1191.161
-2.487	27.214	1452.386	1190.339
-1.473	27.304	1450.957	1189.708
-0.458	27.235	1449.967	1188.400
0.556	28.994	1439.805	1177.074
1.571	25.803	1415.759	1137.201
2.586	22.076	1357.898	1068.009
3.600	20.290	1276.678	993.822
4.615	19.046	1230.307	950.772
5.629	16.811	1174.108	895.459
6.644	10.043	1092.512	799.771
7.659	4.957	1055.515	748.252
8.673	4.387	1049.735	741.367
9.688	4.091	1046.555	737.645
10.702	3.953	1045.027	735.849
11.717	3.910	1042.839	734.036
12.731	6.414	1044.870	747.296
13.746	13.707	1055.050	789.336
14.761	20.454	1063.294	827.689
15.775	22.509	1065.592	839.209
16.790	22.286	1063.843	836.696
17.804	21.286	1062.164	830.550
18.819	20.462	1060.794	825.490
19.834	20.170	1059.597	823.101
20.848	20.114	1058.904	822.224
21.863	20.113	1058.653	821.951
22.877	20.030	1057.984	820.966
23.892	19.760	1057.264	819.055
24.907	19.704	1056.423	818.064
25.921	19.713	1055.278	817.151
26.936	19.636	1054.433	816.062
27.950	19.575	1053.390	814.891
28.965	19.657	1052.238	814.316
29.980	19.757	1051.153	813.876
30.994	19.925	1050.605	814.167
32.009	20.017	1049.521	813.690
33.023	20.022	1049.438	813.574
34.038	20.087	1047.821	812.555
35.053	19.958	1047.162	811.365
36.067	19.800	1045.937	809.608
37.082	19.774	1044.804	808.538
38.096	19.647	1044.452	807.597
39.111	19.830	1043.674	807.782
40.126	20.014	1043.233	808.227
41.140	19.748	1041.996	805.957
42.155	19.553	1040.465	803.793
43.169	19.200	1039.702	801.489
44.184	19.157	1038.281	800.123
45.199	19.142	1036.940	798.953
46.213	19.203	1036.219	798.608
47.228	19.475	1035.466	799.217
48.242	19.676	1035.042	799.748
49.257	19.701	1034.493	799.371
50.271	19.889	1032.600	798.706
51.286	19.638	1033.130	797.883
52.301	19.848	1032.090	797.977
53.315	19.858	1031.110	797.196
54.330	19.793	1029.877	795.875
55.344	19.424	1029.161	793.551
56.359	19.499	1028.061	792.978
57.374	19.397	1027.236	791.804
58.388	19.521	1026.377	791.641
59.403	19.333	1025.739	790.220
60.417	19.240	1024.805	789.004
61.432	19.200	1024.205	788.289
62.447	19.156	1023.502	787.477
63.461	19.137	1022.551	786.587
64.476	19.007	1021.715	785.278
65.490	19.068	1020.339	784.432
66.505	18.890	1019.919	783.230
67.520	18.882	1019.437	782.752
68.534	19.164	1018.459	783.217
69.549	19.114	1017.566	782.231
70.563	19.007	1016.687	781.000
71.578	19.106	1015.787	780.691
72.593	18.804	1015.109	778.730
73.607	18.581	1013.651	776.533
74.622	18.722	1012.931	776.549
75.636	18.748	1012.040	775.919
76.651	18.853	1010.921	775.462
77.666	18.903	1010.820	775.543
78.680	18.987	1009.647	774.956
79.695	18.828	1009.536	774.085
80.709	19.036	1008.547	774.191
81.724	19.222	1007.610	774.240
82.739	19.214	1007.406	773.981
83.753	19.299	1006.606	773.677
84.768	19.541	1006.125	774.328
85.782	19.837	1006.074	775.546
86.797	20.384	1005.506	777.491
87.812	20.210	1004.491	775.859
88.826	19.889	1003.622	773.682
89.841	19.838	1002.461	772.492
90.855	20.045	1001.878	772.898
91.870	20.183	1001.279	772.981
92.884	20.195	1000.365	772.260
93.899	20.113	1000.228	771.722
94.914	20.111	999.177	770.834
95.928	20.057	998.539	770.035
96.943	20.087	997.747	769.488
97.957	20.057	996.203	768.097
98.972	19.902	995.556	766.841
99.987	19.923	994.754	766.252
101.001	20.091	993.812	766.199
102.016	20.037	993.378	765.559
103.030	19.790	992.506	763.727
104.045	19.984	991.725	763.916
105.060	19.947	990.706	762.898
106.074	19.827	989.873	761.663
107.089	19.585	988.482	759.461
108.103	19.401	987.054	757.488
109.118	19.186	986.394	755.972
110.133	19.052	985.488	754.621
111.147	18.989	984.608	753.608
112.162	18.991	983.470	752.677
113.176	19.150	982.811	752.800
114.191	19.253	981.901	752.488
115.206	19.446	980.832	752.445
116.220	19.497	980.038	751.992
117.235	19.239	979.810	750.627
118.249	19.098	978.915	749.259
119.264	19.176	978.051	748.869
120.279	18.915	977.697	747.400
121.293	18.933	976.298	746.341
122.308	18.900	975.682	745.660
123.322	18.798	974.712	744.412
124.337	18.734	973.675	743.278
125.352	18.640	972.452	741.872
126.366	18.820	971.181	741.614
127.381	18.722	970.058	740.266
128.395	18.692	969.846	739.911
129.410	18.798	968.551	739.314
130.424	18.913	967.444	738.899
131.439	18.888	967.112	738.470
132.454	19.018	966.660	738.617
133.468	19.300	965.838	739.136
134.483	19.195	965.359	738.253
135.497	19.199	964.811	737.785
136.512	19.272	963.288	736.870
137.527	19.367	962.924	736.930
138.541	19.299	962.408	736.180
139.556	19.212	962.060	735.477
140.570	19.201	961.083	734.618
141.585	19.380	960.257	734.686
142.600	19.561	960.212	735.357
143.614	19.842	959.219	735.725
144.629	19.928	958.526	735.494
145.643	19.922	958.019	735.015
146.658	19.922	956.878	734.076
147.673	19.750	955.480	732.208
148.687	19.623	954.353	730.744
149.702	19.404	953.630	729.201
150.716	19.328	952.718	728.115
151.731	19.334	951.157	726.883
152.746	19.362	950.919	726.755
153.760	19.458	949.884	726.304
154.775	19.312	949.818	725.577
155.789	19.590	948.983	726.042
156.804	19.706	947.792	725.554
157.819	19.620	947.537	724.935
158.833	19.772	946.173	724.462
159.848	19.889	946.080	724.816
160.862	19.976	946.062	725.104
161.877	19.927	944.844	723.901
162.892	19.593	943.717	721.578
163.906	19.400	942.353	719.666
164.921	19.199	941.752	718.307
165.935	19.197	940.419	717.216
166.950	19.434	939.277	717.269
167.964	19.541	938.804	717.290
168.979	19.457	938.318	716.504
169.994	19.377	936.983	715.088
171.008	19.447	935.688	714.330
172.023	19.278	935.295	713.267
173.037	19.657	934.646	714.276
174.052	19.950	933.821	714.791
175.067	19.863	932.823	713.605
176.081	19.426	932.118	711.200
177.096	19.198	931.120	709.439
178.110	19.120	929.985	708.189
179.125	19.345	928.981	708.289
180.140	19.345	928.855	708.130
181.154	19.293	928.371	707.483
182.169	19.556	927.959	708.185
183.183	19.818	927.279	708.675
184.198	19.797	926.976	708.298
185.213	19.714	926.191	707.293
186.227	19.866	925.286	707.163
187.242	19.785	925.033	706.576
188.256	20.086	924.201	707.106
189.271	20.045	923.360	706.234
190.286	20.264	922.955	706.753
191.300	19.971	921.792	704.608
192.315	19.507	920.602	701.751
193.329	18.992	919.742	698.938
194.344	19.120	919.008	698.840
195.359	19.266	918.936	699.315
196.373	19.539	918.440	699.985
197.388	19.586	917.753	699.589
198.402	19.820	917.530	700.303
199.417	20.138	917.514	701.516
200.432	20.193	917.228	701.459
201.446	20.351	916.850	701.745
202.461	20.451	916.375	701.726
203.475	20.594	915.939	701.905
204.490	20.554	914.974	700.942
205.504	20.195	914.140	698.794
206.519	19.984	912.840	696.890
207.534	19.864	912.239	695.888
208.548	19.872	911.738	695.475
209.563	19.873	910.797	694.700
210.577	19.875	910.368	694.322
211.592	20.015	909.865	694.436
212.607	20.089	909.532	694.419
213.621	20.392	909.296	695.388
214.636	20.124	908.619	693.739
215.650	20.030	907.726	692.619
216.665	20.176	906.952	692.550
217.680	20.201	906.581	692.305
218.694	20.434	906.140	692.837
219.709	20.586	905.708	693.052
220.723	20.426	904.659	691.552
221.738	20.367	904.144	690.860
222.753	20.265	903.016	689.533
223.767	20.344	902.021	689.025
224.782	20.461	901.393	688.947
225.796	20.449	901.432	688.869
226.811	20.676	900.706	689.154
227.826	20.632	899.991	688.372
228.840	20.248	899.346	686.299
229.855	20.184	898.219	685.126
230.869	20.177	897.745	684.673
231.884	20.260	897.140	684.480
232.899	20.057	896.531	683.155
233.913	19.935	895.850	682.093
234.928	19.956	894.747	681.276
235.942	19.778	894.189	680.090
236.957	19.641	893.493	678.965
237.972	19.770	892.910	678.968
238.986	19.893	892.180	678.837
240.001	19.870	891.895	678.466
241.015	20.019	890.980	678.294
242.030	19.807	890.861	677.314
243.045	20.149	889.800	677.786
244.059	20.152	889.780	677.724
245.074	20.269	888.751	677.334
246.088	20.223	888.524	676.921
247.103	20.342	888.013	676.939
248.117	20.442	887.530	676.900
249.132	20.699	886.962	677.406
250.147	20.832	886.676	677.646
251.161	21.120	886.467	678.547
252.176	21.371	885.724	678.893
253.190	21.405	884.963	678.382
254.205	21.417	884.647	678.125
255.220	21.562	883.925	678.072
256.234	21.294	883.734	676.828
257.249	21.224	882.968	675.912
258.263	21.211	882.375	675.348
259.278	21.270	881.559	674.892
260.293	21.202	881.353	674.409
261.307	21.165	880.727	673.728
262.322	21.433	880.169	674.278
263.336	21.421	879.891	673.957
264.351	21.423	879.069	673.275
265.366	21.497	878.347	672.949
266.380	21.286	878.113	671.899
267.395	21.439	876.986	671.564
268.409	21.268	876.437	670.429
269.424	21.140	875.311	669.017
270.439	21.258	874.600	668.864
271.453	21.281	873.659	668.173
272.468	21.069	872.926	666.745
273.482	20.866	872.469	665.562
274.497	21.005	871.989	665.665
275.512	21.139	871.166	665.489
276.526	21.054	870.323	664.465
277.541	21.062	869.590	663.877
278.555	21.108	869.091	663.612
279.570	21.156	868.990	663.659
280.585	21.444	868.975	664.683
281.599	21.660	868.129	664.795
282.614	21.294	867.511	662.876
283.628	21.191	866.442	661.611
284.643	21.130	865.859	660.876
285.657	21.033	866.029	660.579
286.672	21.134	865.015	660.130
287.687	21.262	864.483	660.148
288.701	21.147	863.916	659.221
289.716	21.242	863.132	658.925
290.730	21.251	862.862	658.694
291.745	21.331	861.876	658.183
292.760	21.179	861.279	657.099
293.774	21.289	861.133	657.343
294.789	21.706	860.394	658.287
295.803	21.609	860.040	657.596
296.818	21.375	859.537	656.272
297.833	21.130	858.808	654.739
298.847	21.251	857.843	654.398
299.862	21.420	856.994	654.328
300.876	21.305	856.889	653.757
301.891	21.394	856.121	653.447
302.906	21.557	855.776	653.736
303.920	21.771	854.850	653.767
304.935	21.850	854.622	653.828
305.949	22.037	854.380	654.282
306.964	21.751	853.778	652.699
307.979	21.742	852.901	651.940
308.993	21.584	852.151	650.720
310.008	21.597	851.798	650.443
311.022	21.775	851.506	650.823
312.037	21.877	850.633	650.476
313.052	21.562	850.347	649.032
314.066	21.508	849.030	647.768
315.081	21.111	848.874	646.123
316.095	21.175	847.745	645.442
317.110	21.205	847.376	645.216
318.125	21.338	846.780	645.196
319.139	21.236	846.388	644.461
320.154	21.074	846.130	643.610
321.168	21.272	844.930	643.370
322.183	21.325	845.088	643.629
323.197	21.188	844.776	642.831
324.212	21.350	843.794	642.623
325.227	21.389	843.394	642.404
326.241	21.407	842.476	641.716
327.256	21.282	841.891	640.753
328.270	21.349	841.478	640.628
329.285	21.253	840.979	639.839
330.300	21.249	840.419	639.342
331.314	21.238	839.843	638.809
332.329	21.141	839.425	638.079
333.343	21.441	838.709	638.573
334.358	21.713	837.860	638.863
335.373	21.613	837.951	638.510
336.387	21.714	837.450	638.440
337.402	21.813	836.788	638.240
338.416	21.974	836.395	638.468
339.431	22.059	835.740	638.221
340.446	22.215	835.215	638.329
341.460	22.290	834.913	638.315
342.475	22.240	834.904	638.072
343.489	22.287	834.234	637.674
344.504	22.520	833.522	637.914
345.519	22.386	832.923	636.917
346.533	22.552	832.786	637.356
347.548	22.467	832.248	636.580
348.562	22.354	831.008	635.168
349.577	21.988	830.391	633.319
350.592	21.805	829.839	632.184
351.606	21.775	829.240	631.562
352.621	21.623	828.846	630.660
353.635	21.539	828.744	630.222
354.650	21.823	827.598	630.317
355.665	21.733	827.685	630.003
356.679	22.008	826.915	630.351
357.694	22.098	826.964	630.653
358.708	22.112	825.927	629.859
359.723	22.112	825.217	629.262
360.738	22.025	824.972	628.707
361.752	22.103	824.463	628.544
362.767	22.004	824.343	628.040
363.781	22.206	824.134	628.548
364.796	22.339	824.163	628.990
365.810	22.475	823.527	628.935
366.825	22.718	823.236	629.526
367.840	22.763	822.970	629.426
368.854	22.657	822.386	628.547
369.869	22.553	821.632	627.542
370.883	22.467	820.823	626.566
371.898	22.426	820.353	626.004
372.913	22.547	819.912	626.041
373.927	22.623	819.410	625.873
374.942	22.714	818.246	625.253
375.956	22.407	818.195	624.070
376.971	22.674	817.288	624.268
377.986	22.780	817.006	624.370
379.000	22.904	816.582	624.430
380.015	22.868	816.314	624.042
381.029	22.896	815.518	623.479
382.044	22.775	815.158	622.723
383.059	22.782	814.468	622.165
384.073	22.908	813.422	621.753
385.088	22.736	812.907	620.699
386.102	22.471	812.315	619.260
387.117	22.288	811.683	618.080
388.132	22.184	811.139	617.246
389.146	22.242	810.645	617.019
390.161	22.425	810.178	617.251
391.175	22.592	810.045	617.680
392.190	22.867	809.886	618.468
393.205	22.754	809.553	617.763
394.219	22.532	808.692	616.275
395.234	22.391	808.129	615.298
396.248	22.162	807.574	614.023
397.263	22.166	806.801	613.395
398.278	22.028	806.419	612.570
399.292	21.984	805.866	611.940
400.307	21.997	805.336	611.529
401.321	22.120	804.934	611.599
402.336	22.123	804.611	611.307
403.350	22.237	804.508	611.573
404.365	22.457	804.083	611.959
405.380	22.672	803.342	612.089
406.394	22.717	803.324	612.178
407.409	23.047	803.043	613.054
408.423	23.168	802.714	613.168
409.438	23.184	801.950	612.584
410.453	23.230	801.372	612.248
411.467	23.090	801.695	611.956
412.482	23.119	801.271	611.677
413.496	23.266	800.558	611.587
414.511	23.284	800.572	611.608
415.526	23.364	799.923	611.333
416.540	23.163	799.180	610.017
417.555	23.281	798.660	609.974
418.569	23.013	798.571	608.928
419.584	23.135	797.513	608.487
420.599	23.232	797.221	608.545
421.613	164.682	1371.689	1798.209
422.628	142.975	1455.400	1798.262
