DTS Sentinel unit serial number:	SN413079Multiplexer serial number:	ORYXHardware model number:	OX4-SRSoftware version number:	ORYX F/W v4.00 Oryx Data Collector v3.7.2.0data status	okinstallation	princeton_trtdifferential loss correction	single-endedforward channel	channel 3reverse channel	N/Adate	2019/09/12time	22:04:35forward acquisition time	60.00reverse acquisition time	0.00gamma	496.2192k internal	0.2326k external	0.2326temperature offset calibration	1.0135default loss term (dB/km)	0.3790temperature slope calibration	1.0000multiplexer offset coefficient	1.0000multiplexer slope coefficient	1.0000fibre end	0.00T internal ref (°C)	30.02T ext. ref 1 (°C)	3.74T ext. ref 2 (°C)	24.58length (m)	temperature (°C)	Stokes	anti-Stokes-747.200	151.480	0.079	-0.109
-746.185	-84.697	0.353	-0.112
-745.171	9.230	0.166	-0.127
-744.156	252.737	-0.161	-0.277
-743.142	177.409	-0.103	0.151
-742.127	-38.146	-0.181	0.097
-741.112	800.000	-0.122	-0.475
-740.098	-200.000	0.009	0.245
-739.083	-71.892	0.092	-0.035
-738.069	-134.781	-0.110	-0.013
-737.054	125.674	0.052	-0.066
-736.039	94.345	-0.075	-0.086
-735.025	571.188	0.105	0.258
-734.010	800.000	-0.029	0.090
-732.996	-200.000	0.038	-0.242
-731.981	-47.384	-0.140	-0.069
-730.966	-200.000	-0.040	-0.183
-729.952	-32.842	0.338	0.189
-728.937	-0.159	0.035	0.025
-727.923	9.412	-0.228	0.174
-726.908	-200.000	0.026	-0.120
-725.894	616.172	-0.119	-0.302
-724.879	529.824	0.083	-0.198
-723.864	-39.156	0.095	0.050
-722.850	-14.349	0.169	0.109
-721.835	-91.320	-0.385	0.111
-720.821	248.467	-0.082	-0.139
-719.806	38.104	0.209	-0.188
-718.791	143.544	0.056	0.075
-717.777	82.336	0.121	0.132
-716.762	-98.709	0.131	-0.034
-715.748	-92.530	0.296	0.084
-714.733	800.000	0.037	0.129
-713.718	-8.756	0.148	0.100
-712.704	108.953	-0.278	-0.334
-711.689	800.000	-0.064	-0.277
-710.675	-200.000	-0.014	-0.408
-709.660	-100.333	0.050	-0.013
-708.645	-119.102	-0.237	-0.042
-707.631	-43.226	-0.218	-0.111
-706.616	108.763	-0.206	0.248
-705.602	-78.205	0.095	0.033
-704.587	-98.586	-0.244	-0.063
-703.572	51.035	-0.226	0.216
-702.558	37.634	0.077	0.068
-701.543	-200.000	-0.028	-0.189
-700.529	-56.267	-0.068	-0.030
-699.514	-46.639	-0.270	-0.133
-698.499	800.000	0.062	-0.190
-697.485	-127.768	0.094	-0.014
-696.470	70.421	-0.297	0.309
-695.456	17.427	-0.183	0.146
-694.441	-107.877	0.297	0.065
-693.426	12.365	-0.188	-0.146
-692.412	1.935	-0.121	-0.088
-691.397	-4.618	0.161	0.112
-690.383	-112.520	-0.108	0.022
-689.368	590.795	-0.042	-0.104
-688.354	-54.386	0.170	0.078
-687.339	-200.000	0.014	0.121
-686.324	-14.404	0.158	0.102
-685.310	-97.370	0.212	0.056
-684.295	-37.183	-0.317	0.171
-683.281	-137.705	-0.275	0.031
-682.266	500.780	-0.142	-0.329
-681.251	18.185	-0.106	-0.085
-680.237	800.000	-0.053	0.186
-679.222	460.066	0.089	-0.200
-678.208	14.900	0.309	0.243
-677.193	-200.000	-0.019	-0.361
-676.178	406.133	-0.050	0.107
-675.164	-200.000	0.005	0.108
-674.149	36.569	-0.162	0.144
-673.135	179.675	-0.111	0.163
-672.120	-200.000	0.040	-0.191
-671.105	348.563	0.071	0.142
-670.091	-200.000	0.031	-0.429
-669.076	210.409	-0.169	0.266
-668.062	-111.850	0.156	-0.032
-667.047	-45.395	-0.256	0.128
-666.032	-74.163	-0.284	-0.103
-665.018	-200.000	0.017	-0.148
-664.003	-200.000	-0.035	0.169
-662.989	0.213	-0.221	0.158
-661.974	105.956	-0.128	-0.152
-660.959	113.303	-0.130	-0.159
-659.945	214.715	0.236	-0.376
-658.930	-106.202	-0.193	0.044
-657.916	208.678	0.187	-0.294
-656.901	388.572	-0.289	-0.601
-655.886	-17.440	0.278	0.176
-654.872	-200.000	-0.003	0.032
-653.857	400.274	-0.141	-0.298
-652.843	800.000	-0.061	0.225
-651.828	-106.521	-0.062	-0.014
-650.814	800.000	0.034	0.110
-649.799	-34.461	0.073	0.040
-648.784	-118.071	0.134	0.024
-647.770	52.898	-0.092	-0.088
-646.755	63.303	0.218	0.220
-645.741	128.068	-0.175	-0.224
-644.726	-53.311	0.187	-0.086
-643.711	-50.311	0.304	0.144
-642.697	49.984	-0.232	-0.220
-641.682	-200.000	0.013	-0.107
-640.668	95.435	0.145	-0.166
-639.653	-200.000	0.027	-0.166
-638.638	-117.375	-0.307	0.056
-637.624	-56.678	-0.039	0.017
-636.609	593.448	-0.048	-0.120
-635.595	59.232	-0.267	-0.264
-634.580	213.369	-0.130	-0.206
-633.565	2.519	-0.212	-0.154
-632.551	30.967	0.091	0.078
-631.536	-200.000	-0.013	-0.092
-630.522	151.593	0.188	-0.258
-629.507	15.378	-0.221	0.174
-628.492	-17.489	0.396	0.250
-627.478	-47.914	0.085	0.041
-626.463	201.538	-0.105	0.162
-625.449	-200.000	-0.015	-0.119
-624.434	43.060	-0.197	-0.180
-623.419	-48.881	0.087	-0.042
-622.405	-58.454	-0.228	-0.100
-621.390	160.976	0.085	-0.119
-620.376	-110.964	-0.111	0.023
-619.361	-36.412	-0.227	-0.123
-618.346	395.404	-0.074	0.155
-617.332	800.000	-0.060	0.203
-616.317	35.884	-0.100	0.088
-615.303	-36.608	0.316	0.170
-614.288	256.330	0.106	0.182
-613.273	20.484	-0.044	0.036
-612.259	-200.000	-0.013	-0.132
-611.244	-200.000	-0.004	-0.270
-610.230	800.000	0.050	-0.156
-609.215	51.870	0.092	0.088
-608.201	57.299	0.094	0.092
-607.186	79.835	-0.182	0.196
-606.171	-89.041	0.278	0.083
-605.157	-153.662	0.091	-0.006
-604.142	-61.229	-0.202	-0.085
-603.128	85.543	-0.064	0.071
-602.113	-200.000	-0.027	0.261
-601.098	-43.657	-0.065	0.033
-600.084	162.140	0.244	0.343
-599.069	768.371	-0.045	0.123
-598.055	54.344	0.113	0.109
-597.040	-4.460	-0.186	-0.129
-596.025	357.448	0.097	0.193
-595.011	800.000	0.112	0.476
-593.996	800.000	0.069	0.195
-592.982	-17.666	-0.283	0.178
-591.967	101.718	0.279	0.326
-590.952	-200.000	0.009	0.199
-589.938	-162.563	-0.389	-0.019
-588.923	-200.000	-0.007	-0.450
-587.909	-80.934	0.368	-0.122
-586.894	105.098	-0.283	0.335
-585.879	192.420	-0.080	0.120
-584.865	420.660	0.162	-0.347
-583.850	-53.024	0.173	-0.080
-582.836	-54.860	-0.299	-0.135
-581.821	254.468	-0.149	0.256
-580.806	62.598	0.102	0.102
-579.792	-80.364	-0.240	0.080
-578.777	800.000	-0.102	-0.360
-577.763	-109.139	0.160	-0.034
-576.748	-200.000	0.034	-0.197
-575.733	299.683	0.059	-0.110
-574.719	87.983	0.116	-0.129
-573.704	221.321	0.045	0.072
-572.690	188.628	-0.115	0.173
-571.675	800.000	-0.015	0.060
-570.661	-98.446	0.086	-0.022
-569.646	374.985	0.091	-0.187
-568.631	283.392	0.243	0.437
-567.617	800.000	-0.033	0.115
-566.602	-6.367	-0.204	-0.139
-565.588	-183.263	-0.275	-0.005
-564.573	24.480	-0.115	-0.095
-563.558	-200.000	0.002	0.152
-562.544	-200.000	0.011	-0.099
-561.529	584.723	-0.010	0.023
-560.515	628.481	-0.096	0.242
-559.500	-150.919	0.193	0.015
-558.485	699.430	0.149	-0.392
-557.471	62.447	-0.092	0.092
-556.456	-200.000	-0.061	0.359
-555.442	-72.477	-0.268	0.099
-554.427	-41.950	0.214	-0.110
-553.412	-200.000	-0.001	0.512
-552.398	-88.788	0.038	0.011
-551.383	44.585	0.010	0.009
-550.369	-139.538	-0.337	-0.036
-549.354	-200.000	-0.044	0.264
-548.339	-109.667	-0.336	0.071
-547.325	-200.000	-0.003	-0.109
-546.310	-200.000	-0.008	0.038
-545.296	-2.073	-0.176	-0.123
-544.281	800.000	0.025	-0.100
-543.266	145.499	-0.075	-0.101
-542.252	-200.000	-0.049	-0.237
-541.237	-94.565	0.152	-0.041
-540.223	12.748	-0.057	-0.044
-539.208	-200.000	-0.012	-0.129
-538.193	-51.102	0.097	0.045
-537.179	-96.650	-0.327	0.086
-536.164	161.731	-0.182	0.255
-535.150	-200.000	-0.006	-0.296
-534.135	27.017	-0.171	0.144
-533.121	239.781	-0.052	-0.087
-532.106	-200.000	-0.025	-0.216
-531.091	800.000	0.028	-0.091
-530.077	422.714	0.111	0.238
-529.062	591.110	0.019	0.048
-528.048	-72.334	-0.246	-0.091
-527.033	94.733	-0.096	-0.110
-526.018	269.915	0.226	-0.397
-525.004	-200.000	-0.080	0.466
-523.989	-92.574	0.219	0.061
-522.975	-89.909	0.290	-0.085
-521.960	-123.396	-0.216	0.034
-520.945	-99.423	0.285	-0.072
-519.931	-52.758	-0.120	0.055
-518.916	-21.544	-0.305	-0.186
-517.902	311.911	-0.097	-0.182
-516.887	2.473	-0.194	0.141
-515.872	388.872	-0.188	-0.389
-514.858	-90.982	0.095	0.027
-513.843	-158.259	0.101	0.006
-512.829	449.864	-0.031	0.068
-511.814	36.739	0.201	-0.177
-510.799	168.857	-0.154	0.219
-509.785	-94.826	-0.342	-0.093
-508.770	-86.038	-0.268	-0.083
-507.756	-188.590	-0.284	0.004
-506.741	-37.151	0.228	-0.122
-505.726	-200.000	-0.002	-0.101
-504.712	-200.000	-0.031	-0.140
-503.697	800.000	-0.075	-0.237
-502.683	-200.000	0.017	0.372
-501.668	800.000	-0.018	0.071
-500.653	-76.239	-0.111	-0.039
-499.639	-200.000	0.013	-0.316
-498.624	-175.997	-0.473	0.013
-497.610	-50.761	0.284	-0.134
-496.595	1.386	0.272	-0.195
-495.581	-79.868	-0.247	-0.083
-494.566	-40.472	0.294	0.153
-493.551	-200.000	-0.033	0.194
-492.537	18.731	0.160	0.128
-491.522	193.637	-0.094	-0.142
-490.508	276.673	-0.092	0.164
-489.493	306.669	-0.013	0.024
-488.478	-200.000	-0.001	0.028
-487.464	-200.000	-0.004	-0.036
-486.449	58.790	0.032	-0.031
-485.435	800.000	0.093	-0.297
-484.420	33.614	0.063	-0.055
-483.405	206.949	0.091	-0.142
-482.391	-200.000	0.026	-0.188
-481.376	-200.000	-0.070	-0.408
-480.362	-36.773	-0.154	-0.083
-479.347	445.858	0.057	-0.125
-478.332	-200.000	-0.026	-0.213
-477.318	-26.093	-0.054	0.032
-476.303	-48.605	-0.211	0.101
-475.289	-200.000	-0.025	-0.336
-474.274	-86.225	-0.334	-0.103
-473.259	800.000	0.023	0.086
-472.245	43.128	-0.169	-0.154
-471.230	-145.541	0.127	0.011
-470.216	213.224	0.188	0.296
-469.201	-200.000	0.058	-0.258
-468.186	108.792	-0.238	0.284
-467.172	-200.000	-0.006	0.195
-466.157	-85.091	0.143	0.045
-465.143	33.083	0.197	0.170
-464.128	58.691	0.397	-0.389
-463.113	-134.589	0.134	-0.016
-462.099	-200.000	0.063	0.312
-461.084	27.475	0.046	0.039
-460.070	-95.823	-0.037	0.010
-459.055	33.146	0.266	-0.230
-458.040	-82.373	-0.361	-0.117
-457.026	-40.770	-0.208	-0.107
-456.011	-200.000	-0.018	-0.262
-454.997	-87.888	0.194	-0.058
-453.982	-66.371	0.263	0.104
-452.968	286.499	-0.137	-0.247
-451.953	-55.126	-0.461	-0.207
-450.938	-83.324	0.172	-0.055
-449.924	259.434	-0.087	0.150
-448.909	-55.340	0.248	-0.111
-447.895	-132.161	-0.160	-0.021
-446.880	-88.309	-0.271	0.081
-445.865	-35.518	-0.360	0.195
-444.851	-4.834	0.151	-0.104
-443.836	33.484	0.132	0.114
-442.822	-41.431	0.072	0.037
-441.807	-200.000	0.015	-0.309
-440.792	-49.553	0.488	-0.232
-439.778	641.498	0.067	0.170
-438.763	345.943	0.027	0.053
-437.749	-200.000	0.024	-0.169
-436.734	32.792	-0.230	0.199
-435.719	-200.000	-0.019	-0.158
-434.705	76.320	0.137	0.144
-433.690	-6.077	0.082	0.056
-432.676	9.351	0.196	-0.148
-431.661	192.697	0.095	0.143
-430.646	-67.385	0.339	0.133
-429.632	60.282	0.320	0.315
-428.617	384.528	-0.067	0.138
-427.603	800.000	-0.148	-0.495
-426.588	800.000	0.160	0.465
-425.573	183.846	-0.156	-0.230
-424.559	-118.904	-0.185	0.032
-423.544	102.130	0.145	-0.169
-422.530	-59.998	-0.206	0.088
-421.515	14.620	-0.148	0.115
-420.500	-96.365	0.199	-0.053
-419.486	-70.174	0.200	-0.076
-418.471	-128.417	0.053	-0.007
-417.457	-200.000	0.010	-0.120
-416.442	-20.751	-0.175	0.107
-415.428	494.146	-0.066	0.151
-414.413	-11.631	-0.268	0.175
-413.398	1.576	0.115	0.082
-412.384	-10.754	0.142	0.093
-411.369	-141.800	0.177	0.018
-410.355	91.604	-0.169	0.189
-409.340	-200.000	-0.038	-0.325
-408.325	274.795	0.112	-0.198
-407.311	-2.650	0.475	-0.331
-406.296	800.000	0.040	0.141
-405.282	180.048	-0.296	-0.432
-404.267	78.867	0.237	-0.252
-403.252	138.233	0.073	0.095
-402.238	283.835	-0.103	-0.184
-401.223	-200.000	-0.011	0.087
-400.209	-2.024	-0.055	-0.038
-399.194	-185.354	-0.297	-0.005
-398.179	190.394	0.117	0.174
-397.165	164.381	-0.088	0.124
-396.150	499.427	0.024	0.054
-395.136	-23.308	0.193	-0.115
-394.121	22.565	0.286	0.233
-393.106	-21.838	-0.172	0.104
-392.092	800.000	0.064	0.183
-391.077	-114.718	-0.182	0.035
-390.063	-131.545	0.030	0.004
-389.048	-97.936	0.155	-0.040
-388.033	-47.456	0.123	0.059
-387.019	800.000	0.029	0.106
-386.004	258.260	0.075	0.129
-384.990	-98.952	0.137	0.035
-383.975	-111.361	-0.168	-0.034
-382.960	245.579	0.106	-0.178
-381.946	-16.455	-0.247	0.156
-380.931	128.304	-0.079	0.100
-379.917	-114.388	0.212	0.041
-378.902	73.609	-0.211	0.220
-377.888	-166.286	0.208	0.009
-376.873	-44.506	0.184	0.091
-375.858	99.058	0.254	0.292
-374.844	-182.207	0.218	0.004
-373.829	332.232	-0.041	0.078
-372.815	-114.926	-0.026	-0.005
-371.800	636.804	-0.019	0.048
-370.785	716.943	0.128	-0.337
-369.771	-12.827	-0.058	0.038
-368.756	-142.408	0.145	0.014
-367.742	85.394	0.090	0.098
-366.727	450.788	0.064	0.141
-365.712	50.725	-0.080	-0.076
-364.698	-63.527	-0.034	-0.014
-363.683	-85.628	0.273	-0.084
-362.669	-138.951	0.062	0.007
-361.654	-182.004	0.129	-0.002
-360.639	21.148	0.238	0.192
-359.625	800.000	-0.035	0.119
-358.610	-53.936	0.346	-0.157
-357.596	-136.098	-0.322	-0.038
-356.581	-86.621	0.235	-0.072
-355.566	-200.000	-0.002	0.205
-354.552	800.000	0.016	-0.061
-353.537	30.138	-0.159	-0.134
-352.523	511.636	0.108	-0.250
-351.508	800.000	-0.034	0.136
-350.493	96.560	-0.152	0.172
-349.479	-200.000	-0.035	-0.187
-348.464	383.034	0.026	-0.052
-347.450	293.650	-0.174	-0.315
-346.435	61.034	0.247	-0.244
-345.420	-133.169	0.147	0.018
-344.406	-87.720	0.058	0.017
-343.391	-83.254	-0.111	0.035
-342.377	4.139	0.112	-0.081
-341.362	129.372	0.086	0.110
-340.348	440.709	0.091	-0.197
-339.333	-200.000	0.040	0.610
-338.318	-125.328	-0.198	0.030
-337.304	-33.731	0.284	0.156
-336.289	-200.000	0.010	-0.065
-335.275	-15.073	-0.291	0.185
-334.260	332.458	0.092	0.177
-333.245	-84.742	-0.360	-0.112
-332.231	-51.826	0.263	0.122
-331.216	-16.615	-0.354	-0.222
-330.202	37.243	0.191	-0.168
-329.187	25.730	0.249	0.205
-328.172	514.745	0.049	0.114
-327.158	325.172	-0.169	0.320
-326.143	-200.000	0.019	0.126
-325.129	-80.432	0.147	-0.049
-324.114	39.880	-0.122	-0.108
-323.099	220.658	0.045	-0.071
-322.085	35.374	-0.112	0.097
-321.070	341.278	0.090	0.174
-320.056	800.000	-0.033	0.139
-319.041	800.000	-0.066	-0.223
-318.026	482.044	-0.028	-0.063
-317.012	-150.164	-0.319	-0.025
-315.997	561.000	-0.057	-0.136
-314.983	87.798	0.138	0.152
-313.968	296.376	-0.078	0.141
-312.953	-139.204	-0.132	-0.014
-311.939	-111.490	0.219	0.044
-310.924	-21.928	0.332	-0.200
-309.910	182.743	0.062	0.091
-308.895	-91.364	-0.112	0.032
-307.880	800.000	0.068	0.238
-306.866	-200.000	0.042	0.297
-305.851	73.535	0.117	-0.121
-304.837	-31.464	-0.095	-0.053
-303.822	-200.000	-0.011	-0.063
-302.807	-93.640	0.443	-0.121
-301.793	134.355	0.254	0.327
-300.778	-108.133	0.322	0.069
-299.764	70.526	0.083	-0.085
-298.749	800.000	0.040	0.170
-297.735	-200.000	0.016	-0.460
-296.720	-63.903	0.096	0.039
-295.705	-163.203	-0.154	0.007
-294.691	-15.692	0.098	0.062
-293.676	-200.000	0.226	-0.001
-292.662	5.780	0.050	0.037
-291.647	31.671	-0.224	-0.191
-290.632	800.000	-0.102	-0.341
-289.618	-200.000	-0.065	0.389
-288.603	49.234	0.095	0.088
-287.589	67.627	-0.102	-0.103
-286.574	800.000	0.076	-0.214
-285.559	-169.393	0.064	-0.002
-284.545	132.899	-0.283	0.362
-283.530	-168.068	-0.144	-0.006
-282.516	-35.274	-0.248	-0.134
-281.501	800.000	0.097	-0.319
-280.486	-9.303	0.252	-0.167
-279.472	-172.904	-0.186	-0.006
-278.457	-19.686	-0.334	0.205
-277.443	800.000	-0.092	0.281
-276.428	-3.755	0.288	0.198
-275.413	-14.412	-0.240	0.153
-274.399	-1.977	0.320	0.222
-273.384	-173.589	0.336	0.010
-272.370	-200.000	-0.010	-0.333
-271.355	-155.553	-0.452	0.029
-270.340	760.470	-0.027	0.074
-269.326	42.125	0.075	-0.067
-268.311	340.854	-0.056	0.108
-267.297	75.797	0.167	-0.174
-266.282	-136.144	-0.360	0.042
-265.267	-69.996	-0.235	0.089
-264.253	20.248	0.064	-0.052
-263.238	-38.114	-0.237	0.125
-262.224	184.147	0.141	0.207
-261.209	-200.000	0.006	-0.148
-260.195	-50.527	0.498	0.232
-259.180	800.000	0.082	-0.238
-258.165	-123.302	-0.229	-0.036
-257.151	-80.905	0.150	-0.049
-256.136	628.485	-0.037	0.093
-255.122	-74.760	-0.187	-0.066
-254.107	588.954	0.109	-0.266
-253.092	228.813	-0.124	0.201
-252.078	220.993	0.077	0.123
-251.063	-128.624	-0.273	-0.038
-250.049	-200.000	0.036	0.371
-249.034	-200.000	0.001	0.053
-248.019	-70.744	-0.231	0.086
-247.005	-200.000	0.063	0.301
-245.990	224.749	-0.197	0.315
-244.976	-148.273	0.156	-0.013
-243.961	380.873	0.062	-0.125
-242.946	-200.000	-0.050	-0.401
-241.932	-151.699	0.494	0.036
-240.917	-139.062	-0.138	0.015
-239.903	64.088	0.121	-0.121
-238.888	-200.000	0.012	0.180
-237.873	84.136	0.134	-0.145
-236.859	800.000	0.042	0.131
-235.844	130.462	0.232	0.294
-234.830	-156.879	0.241	-0.015
-233.815	800.000	-0.079	-0.281
-232.800	-112.610	-0.167	0.033
-231.786	55.457	-0.109	0.104
-230.771	781.898	0.126	-0.342
-229.757	-200.000	-0.009	0.099
-228.742	21.195	-0.212	-0.170
-227.727	23.972	0.258	0.211
-226.713	-37.817	-0.162	0.085
-225.698	-49.471	-0.213	0.100
-224.684	170.220	0.057	-0.080
-223.669	10.867	-0.157	0.118
-222.655	46.687	-0.158	0.145
-221.640	-118.998	0.351	-0.061
-220.625	-22.240	-0.112	0.067
-219.611	-148.510	0.207	0.017
-218.596	-88.674	0.306	0.090
-217.582	380.750	0.106	-0.215
-216.567	-95.102	0.142	0.038
-215.552	-200.000	-0.013	0.061
-214.538	-124.743	0.138	0.021
-213.523	119.385	0.132	-0.162
-212.509	-200.000	-0.040	-0.578
-211.494	29.486	-0.129	0.109
-210.479	-11.875	0.147	0.095
-209.465	699.595	-0.108	-0.281
-208.450	14.184	-0.216	0.166
-207.436	23.429	0.232	0.188
-206.421	800.000	0.028	0.096
-205.406	-28.210	0.265	-0.151
-204.392	606.846	-0.073	-0.180
-203.377	-23.420	-0.430	0.255
-202.363	11.404	0.090	-0.068
-201.348	-200.000	0.062	-0.288
-200.333	152.964	-0.259	-0.349
-199.319	-106.944	-0.181	-0.040
-198.304	-74.531	0.233	-0.083
-197.290	-56.059	-0.143	0.063
-196.275	-200.000	0.000	-0.238
-195.260	-200.000	-0.011	-0.169
-194.246	-2.246	0.089	0.062
-193.231	73.310	-0.068	-0.070
-192.217	491.973	-0.143	-0.322
-191.202	-148.197	-0.235	-0.019
-190.187	-129.727	-0.137	0.019
-189.173	-200.000	0.021	0.145
-188.158	-67.777	0.142	0.055
-187.144	800.000	0.099	-0.281
-186.129	438.684	-0.132	0.285
-185.114	101.672	0.098	0.112
-184.100	-47.019	0.422	0.203
-183.085	-194.056	-0.504	0.004
-182.071	141.298	-0.115	0.150
-181.056	124.952	-0.263	0.327
-180.042	-200.000	-0.017	0.385
-179.027	222.672	-0.099	0.157
-178.012	-60.681	-0.075	-0.032
-176.998	-200.000	0.039	0.395
-175.983	-113.917	-0.195	0.037
-174.969	-200.000	0.031	-0.368
-173.954	-200.000	0.029	-0.308
-172.939	-123.347	-0.102	0.016
-171.925	-200.000	-0.008	-0.135
-170.910	-46.249	0.104	-0.050
-169.896	19.543	0.232	0.184
-168.881	-200.000	0.100	0.474
-167.866	70.214	-0.355	0.362
-166.852	197.851	0.124	-0.187
-165.837	147.532	0.148	-0.196
-164.823	-200.000	-0.053	-0.246
-163.808	-200.000	-0.003	0.251
-162.793	547.886	0.088	-0.207
-161.779	800.000	0.055	-0.221
-160.764	-39.162	-0.241	0.125
-159.750	104.387	-0.031	-0.036
-158.735	394.635	0.030	-0.063
-157.720	-120.307	-0.205	-0.034
-156.706	800.000	-0.054	-0.215
-155.691	67.367	-0.190	-0.191
-154.677	-200.000	-0.021	-0.263
-153.662	525.620	-0.087	0.203
-152.647	-15.436	-0.091	-0.057
-151.633	196.325	0.054	-0.081
-150.618	44.737	0.096	0.087
-149.604	256.481	-0.182	0.308
-148.589	369.480	0.051	-0.101
-147.574	573.354	0.061	-0.146
-146.560	117.912	0.126	0.153
-145.545	-0.493	-0.152	-0.107
-144.531	-92.681	0.209	0.058
-143.516	84.996	0.171	-0.184
-142.502	-105.012	-0.107	-0.024
-141.487	10.506	0.345	0.259
-140.472	-150.414	-0.148	0.011
-139.458	76.708	-0.060	-0.063
-138.443	28.314	-0.205	-0.171
-137.429	-41.801	0.305	-0.154
-136.414	-180.149	-0.195	-0.004
-135.399	88.741	0.071	0.078
-134.385	259.698	-0.188	-0.319
-133.370	-200.000	-0.019	0.151
-132.356	-1.547	-0.018	0.013
-131.341	-112.558	-0.188	-0.037
-130.326	-181.500	-0.226	-0.004
-129.312	-7.142	-0.159	-0.106
-128.297	607.405	0.119	0.292
-127.283	-19.774	0.139	-0.085
-126.268	-200.000	0.054	0.324
-125.253	-21.724	-0.184	-0.110
-124.239	126.304	-0.291	0.363
-123.224	-123.437	0.103	0.016
-122.210	35.515	-0.286	0.247
-121.195	-200.000	0.020	-0.184
-120.180	8.262	0.106	0.078
-119.166	-86.966	0.263	-0.079
-118.151	-200.000	-0.010	0.118
-117.137	-109.165	0.318	0.066
-116.122	-87.255	-0.290	0.087
-115.107	24.994	0.145	-0.119
-114.093	-135.708	0.533	-0.062
-113.078	-200.000	0.047	-0.288
-112.064	-200.000	-0.042	0.339
-111.049	12.862	-0.129	0.098
-110.034	-200.000	0.011	0.170
-109.020	67.642	-0.089	0.089
-108.005	800.000	0.094	-0.368
-106.991	-200.000	-0.021	-0.167
-105.976	263.520	-0.050	-0.086
-104.962	-200.000	0.011	-0.180
-103.947	-200.000	-0.282	0.000
-102.932	-31.991	-0.216	0.119
-101.918	-156.394	-0.317	-0.019
-100.903	-11.963	0.241	-0.155
-99.889	800.000	0.049	0.184
-98.874	-200.000	-0.022	0.110
-97.859	-77.105	0.247	0.085
-96.845	-200.000	-0.068	0.322
-95.830	800.000	-0.059	0.247
-94.816	71.461	0.141	0.144
-93.801	-144.405	0.284	0.026
-92.786	-29.690	0.163	0.091
-91.772	-95.698	0.180	-0.047
-90.757	-83.943	-0.342	0.107
-89.743	284.314	-0.143	0.253
-88.728	696.306	0.112	-0.289
-87.713	108.333	0.142	-0.167
-86.699	-156.578	0.329	0.020
-85.684	-127.523	0.194	0.028
-84.670	-114.181	0.184	0.035
-83.655	-200.000	0.001	0.276
-82.640	483.696	-0.050	-0.113
-81.626	-5.668	0.206	-0.139
-80.611	623.503	0.082	-0.204
-79.597	800.000	0.041	0.121
-78.582	301.683	-0.116	-0.211
-77.567	5.572	0.184	0.133
-76.553	102.235	0.098	-0.113
-75.538	24.217	-0.243	0.197
-74.524	95.934	0.286	0.321
-73.509	800.000	-0.159	-0.438
-72.494	533.322	-0.025	0.058
-71.480	-131.153	0.042	-0.006
-70.465	-200.000	-0.017	0.306
-69.451	800.000	0.103	-0.342
-68.436	-119.036	-0.155	-0.027
-67.422	272.620	0.121	0.210
-66.407	-200.000	0.040	0.201
-65.392	-200.000	0.020	-0.257
-64.378	800.000	0.010	-0.028
-63.363	89.314	-0.092	-0.101
-62.349	-112.550	-0.245	0.048
-61.334	247.710	-0.616	-1.022
-60.319	-6.198	0.648	0.435
-59.305	-200.000	-0.239	-1.107
-58.290	790.112	0.446	1.204
-57.276	716.032	0.486	1.265
-56.261	-200.000	105.805	583.056
-55.246	526.919	1459.077	3375.555
-54.232	184.147	2644.037	3842.520
-53.217	111.852	2164.093	2565.168
-52.203	40.258	1696.715	1498.177
-51.188	33.142	1509.612	1284.775
-50.173	30.761	1483.058	1246.210
-49.159	50.968	1537.732	1430.558
-48.144	51.678	1555.540	1451.916
-47.130	33.285	1512.197	1287.747
-46.115	30.258	1497.013	1254.332
-45.100	30.039	1493.940	1250.229
-44.086	30.072	1491.610	1248.456
-43.071	29.959	1489.206	1245.634
-42.057	30.044	1487.490	1244.718
-41.042	30.023	1486.339	1243.564
-40.027	29.996	1484.860	1242.097
-39.013	29.987	1483.007	1240.439
-37.998	29.935	1482.475	1239.598
-36.984	29.947	1480.901	1238.312
-35.969	29.951	1479.878	1237.435
-34.954	29.971	1478.366	1236.250
-33.940	29.908	1476.781	1234.459
-32.925	29.998	1475.679	1234.090
-31.911	30.024	1474.444	1233.180
-30.896	30.084	1473.130	1232.432
-29.881	30.249	1471.476	1232.092
-28.867	30.036	1470.899	1230.145
-27.852	30.021	1469.515	1228.843
-26.838	30.130	1467.621	1227.934
-25.823	30.070	1466.384	1226.453
-24.809	30.140	1464.799	1225.537
-23.794	30.053	1463.550	1223.868
-22.779	30.075	1461.937	1222.618
-21.765	30.150	1460.871	1222.170
-20.750	30.057	1460.207	1220.957
-19.736	30.002	1459.291	1219.779
-18.721	30.093	1457.539	1218.868
-17.706	30.046	1456.728	1217.832
-16.692	30.030	1455.754	1216.859
-15.677	30.096	1454.453	1216.159
-14.663	30.062	1453.399	1215.009
-13.648	29.986	1452.583	1213.780
-12.633	30.016	1451.430	1212.967
-11.619	29.980	1450.604	1211.989
-10.604	29.897	1449.929	1210.835
-9.590	29.990	1448.984	1210.602
-8.575	29.962	1448.579	1210.034
-7.560	29.991	1447.188	1209.014
-6.546	29.847	1446.722	1207.641
-5.531	29.986	1445.568	1207.532
-4.517	29.920	1444.497	1206.163
-3.502	30.012	1443.274	1205.688
-2.487	30.000	1442.654	1205.048
-1.473	29.965	1441.918	1204.159
-0.458	29.948	1440.106	1202.487
0.556	31.545	1430.730	1190.636
1.571	28.592	1405.696	1151.208
2.586	24.914	1346.726	1080.662
3.600	23.009	1265.655	1004.702
4.615	21.671	1219.448	960.604
5.629	18.715	1163.811	901.202
6.644	11.000	1081.033	799.265
7.659	4.900	1041.678	741.155
8.673	4.069	1036.189	733.251
9.688	3.734	1032.863	729.253
10.702	3.554	1031.135	727.119
11.717	3.624	1029.431	726.183
12.731	6.446	1032.242	741.396
13.746	14.516	1043.420	787.612
14.761	21.595	1052.671	828.134
15.775	23.820	1054.339	839.899
16.790	23.549	1052.793	837.317
17.804	22.788	1051.323	832.486
18.819	22.179	1049.904	828.416
19.834	21.876	1049.129	826.305
20.848	21.899	1048.324	825.705
21.863	21.933	1048.267	825.747
22.877	21.900	1047.755	825.118
23.892	21.840	1046.292	823.612
24.907	21.614	1045.726	822.032
25.921	21.517	1044.900	820.855
26.936	21.521	1044.228	820.274
27.950	21.416	1042.979	818.728
28.965	21.426	1041.593	817.612
29.980	21.541	1040.613	817.310
30.994	21.604	1039.760	816.859
32.009	21.772	1039.178	817.116
33.023	21.803	1038.774	816.869
34.038	21.822	1037.255	815.689
35.053	21.792	1036.745	815.077
36.067	21.652	1035.724	813.554
37.082	21.541	1034.982	812.381
38.096	21.376	1034.582	811.230
39.111	21.678	1033.332	811.578
40.126	21.803	1032.578	811.494
41.140	21.770	1031.216	810.197
42.155	21.296	1029.737	806.777
43.169	21.017	1029.032	804.864
44.184	20.962	1027.935	803.684
45.199	20.964	1026.631	802.600
46.213	20.934	1025.884	801.806
47.228	21.044	1025.365	801.836
48.242	21.538	1024.658	803.483
49.257	21.749	1024.452	804.216
50.271	21.577	1023.703	802.772
51.286	21.495	1022.966	801.744
52.301	21.818	1022.319	802.648
53.315	21.837	1021.622	802.116
54.330	21.775	1020.491	800.872
55.344	21.424	1019.862	798.704
56.359	21.403	1018.526	797.490
57.374	21.238	1017.366	795.762
58.388	21.266	1016.790	795.370
59.403	21.103	1016.050	793.978
60.417	20.970	1015.251	792.679
61.432	20.875	1014.689	791.737
62.447	20.947	1013.894	791.372
63.461	20.835	1013.228	790.278
64.476	20.872	1012.084	789.480
65.490	20.858	1011.318	788.751
66.505	20.679	1010.550	787.273
67.520	20.609	1010.057	786.503
68.534	20.819	1009.342	786.825
69.549	20.829	1008.386	786.056
70.563	20.687	1007.473	784.632
71.578	20.604	1006.798	783.665
72.593	20.446	1005.478	781.855
73.607	20.109	1004.689	779.657
74.622	20.129	1003.714	778.921
75.636	20.351	1002.709	779.068
76.651	20.558	1002.034	779.402
77.666	20.480	1001.720	778.743
78.680	20.650	1001.216	779.040
79.695	20.594	1000.205	777.935
80.709	20.592	999.741	777.497
81.724	20.652	999.167	777.249
82.739	20.701	998.651	776.998
83.753	20.924	997.603	777.108
84.768	21.327	997.111	778.452
85.782	21.830	996.891	780.450
86.797	22.164	996.466	781.534
87.812	22.078	996.031	780.744
88.826	22.060	994.267	779.212
89.841	21.806	993.760	777.617
90.855	21.887	993.443	777.660
91.870	22.171	992.312	777.962
92.884	22.049	991.867	777.007
93.899	21.989	991.453	776.348
94.914	21.866	990.235	774.781
95.928	22.056	989.347	774.857
96.943	21.991	988.889	774.142
97.957	21.975	987.334	772.786
98.972	21.643	986.967	770.969
99.987	21.733	985.920	770.481
101.001	21.801	985.574	770.441
102.016	21.859	984.440	769.738
103.030	21.652	983.695	768.180
104.045	21.750	982.765	767.816
105.060	21.910	982.328	768.109
106.074	21.658	981.128	765.999
107.089	21.418	980.330	764.262
108.103	21.203	978.506	761.833
109.118	21.115	977.224	760.383
110.133	20.810	976.588	758.492
111.147	20.672	975.473	756.959
112.162	20.604	974.634	755.946
113.176	20.647	973.978	755.558
114.191	20.779	973.349	755.576
115.206	21.065	972.524	756.107
116.220	21.070	971.477	755.247
117.235	20.884	970.697	753.770
118.249	20.802	969.906	752.734
119.264	20.690	969.467	751.843
120.279	20.679	968.040	750.625
121.293	20.487	967.592	749.380
122.308	20.427	966.672	748.346
123.322	20.433	965.605	747.479
124.337	20.339	964.428	746.099
125.352	20.271	963.293	744.860
126.366	20.404	961.719	744.146
127.381	20.387	961.175	743.591
128.395	20.371	960.248	742.737
129.410	20.502	959.669	742.785
130.424	20.527	958.457	741.886
131.439	20.643	958.218	742.133
132.454	20.809	957.434	742.166
133.468	20.992	957.170	742.673
134.483	20.961	956.150	741.684
135.497	20.841	956.024	741.011
136.512	21.015	955.054	740.935
137.527	20.945	954.483	740.127
138.541	21.112	952.915	739.555
139.556	21.005	952.699	738.868
140.570	21.098	951.909	738.585
141.585	21.237	951.491	738.784
142.600	21.462	951.464	739.647
143.614	21.740	950.345	739.885
144.629	21.801	949.807	739.657
145.643	21.840	949.633	739.623
146.658	21.799	948.369	738.399
147.673	21.629	947.170	736.688
148.687	21.395	946.248	734.920
149.702	21.129	944.914	732.703
150.716	21.174	944.065	732.169
151.731	20.913	943.189	730.331
152.746	21.026	942.501	730.207
153.760	21.141	941.946	730.193
154.775	21.158	941.150	729.582
155.789	21.389	940.316	729.835
156.804	21.562	939.300	729.703
157.819	21.511	938.479	728.789
158.833	21.460	937.957	728.107
159.848	21.637	937.806	728.661
160.862	21.770	937.250	728.717
161.877	21.768	936.613	728.152
162.892	21.371	934.773	725.010
163.906	20.986	933.739	722.546
164.921	20.930	932.972	721.657
165.935	20.854	931.837	720.403
166.950	20.918	930.885	719.869
167.964	20.968	930.621	719.806
168.979	21.056	929.074	718.910
169.994	21.114	927.666	717.994
171.008	21.006	926.959	716.940
172.023	21.014	926.646	716.666
173.037	21.446	925.747	717.680
174.052	21.854	925.630	719.201
175.067	21.513	925.056	717.294
176.081	21.190	923.679	714.840
177.096	20.829	922.232	712.182
178.110	20.716	921.322	710.953
179.125	20.799	921.109	711.063
180.140	20.807	919.831	710.048
181.154	20.931	919.590	710.306
182.169	21.209	919.322	711.168
183.183	21.564	918.722	712.083
184.198	21.594	918.338	711.847
185.213	21.473	917.883	710.940
186.227	21.379	917.220	709.982
187.242	21.483	916.568	709.835
188.256	21.611	916.341	710.117
189.271	21.798	915.083	709.834
190.286	21.876	914.760	709.836
191.300	21.625	913.717	707.952
192.315	21.149	911.978	704.619
193.329	20.646	911.428	702.104
194.344	20.585	910.991	701.458
195.359	20.890	910.514	702.258
196.373	20.991	910.034	702.233
197.388	21.227	909.499	702.705
198.402	21.365	909.306	703.051
199.417	21.772	908.866	704.285
200.432	21.891	909.125	704.902
201.446	22.252	908.589	705.874
202.461	22.240	908.332	705.563
203.475	22.346	907.825	705.531
204.490	22.064	907.267	703.903
205.504	21.821	905.492	701.493
206.519	21.482	904.924	699.636
207.534	21.512	904.020	698.994
208.548	21.413	903.184	697.889
209.563	21.430	902.841	697.633
210.577	21.577	902.054	697.549
211.592	21.420	901.570	696.488
212.607	21.827	901.301	697.837
213.621	22.127	901.168	698.865
214.636	22.037	900.226	697.717
215.650	21.993	899.545	696.950
216.665	21.856	899.259	696.124
217.680	21.847	898.688	695.586
218.694	22.006	898.228	695.797
219.709	22.188	897.825	696.144
220.723	22.055	897.254	695.113
221.738	22.035	896.051	694.043
222.753	21.899	895.145	692.742
223.767	21.774	894.941	692.028
224.782	21.837	894.297	691.717
225.796	22.083	893.678	692.147
226.811	22.192	893.194	692.141
227.826	22.005	892.205	690.577
228.840	21.820	891.249	689.050
229.855	21.696	890.272	687.747
230.869	21.740	889.721	687.434
231.884	21.622	889.295	686.580
232.899	21.576	888.467	685.699
233.913	21.523	887.754	684.882
234.928	21.361	887.271	683.813
235.942	21.269	886.081	682.479
236.957	21.135	885.397	681.366
237.972	21.033	884.865	680.502
238.986	21.185	883.940	680.319
240.001	21.201	883.746	680.173
241.015	21.243	883.039	679.732
242.030	21.343	882.249	679.454
243.045	21.521	882.046	679.929
244.059	21.603	881.327	679.632
245.074	21.675	881.201	679.754
246.088	21.559	880.631	678.804
247.103	21.660	880.353	678.923
248.117	22.149	879.743	680.286
249.132	22.302	879.574	680.688
250.147	22.628	878.852	681.327
251.161	23.046	878.993	682.990
252.176	23.021	878.949	682.802
253.190	22.972	878.087	681.881
254.205	23.226	877.230	682.136
255.220	23.156	876.851	681.509
256.234	23.155	875.983	680.770
257.249	22.984	875.252	679.483
258.263	22.935	875.070	679.094
259.278	22.956	874.112	678.374
260.293	22.829	873.574	677.408
261.307	23.015	873.142	677.725
262.322	23.079	872.848	677.684
263.336	23.154	872.568	677.695
264.351	23.090	871.657	676.682
265.366	23.075	870.905	675.981
266.380	22.985	870.578	675.320
267.395	23.087	869.677	674.953
268.409	23.068	868.840	674.173
269.424	22.759	868.424	672.611
270.439	22.808	867.491	672.017
271.453	22.775	866.866	671.347
272.468	22.605	865.928	669.915
273.482	22.444	865.511	668.921
274.497	22.476	864.943	668.545
275.512	22.490	864.007	667.816
276.526	22.626	863.113	667.578
277.541	22.655	862.362	667.048
278.555	22.826	861.716	667.136
279.570	22.916	861.789	667.473
280.585	23.190	861.631	668.327
281.599	23.060	861.148	667.402
282.614	23.002	860.356	666.513
283.628	22.713	859.528	664.721
284.643	22.516	858.930	663.461
285.657	22.444	858.579	662.860
286.672	22.688	857.497	662.883
287.687	22.604	857.430	662.457
288.701	22.579	857.244	662.158
289.716	22.688	856.590	662.004
290.730	22.608	856.126	661.286
291.745	22.777	855.108	661.075
292.760	22.813	854.384	660.593
293.774	22.796	854.154	660.292
294.789	23.272	853.757	661.706
295.803	23.162	853.635	661.143
296.818	23.034	852.290	659.564
297.833	22.634	851.621	657.499
298.847	22.610	851.030	656.893
299.862	22.997	849.817	657.337
300.876	22.893	849.565	656.700
301.891	22.928	849.426	656.663
302.906	23.287	848.803	657.458
303.920	23.401	848.664	657.714
304.935	23.407	848.256	657.362
305.949	23.582	847.306	657.217
306.964	23.474	846.838	656.396
307.979	23.281	845.851	654.857
308.993	23.143	845.443	653.973
310.008	23.319	844.780	654.053
311.022	23.467	844.178	654.077
312.037	23.334	844.095	653.461
313.052	23.214	843.315	652.357
314.066	22.970	842.300	650.619
315.081	22.546	841.357	648.274
316.095	22.551	840.701	647.727
317.110	22.522	840.716	647.576
318.125	22.500	840.187	647.028
319.139	22.383	839.466	645.987
320.154	22.416	838.803	645.543
321.168	22.344	838.232	644.780
322.183	22.525	837.424	644.766
323.197	22.734	837.380	645.437
324.212	22.727	836.991	645.056
325.227	22.587	836.303	643.959
326.241	22.686	835.742	643.829
327.256	22.550	835.163	642.830
328.270	22.576	834.239	642.157
329.285	22.464	834.199	641.663
330.300	22.393	833.282	640.640
331.314	22.404	832.415	639.960
332.329	22.425	832.033	639.682
333.343	22.733	832.042	640.752
334.358	23.093	831.313	641.442
335.373	23.117	830.613	640.932
336.387	23.124	830.229	640.605
337.402	23.138	830.056	640.463
338.416	23.238	829.547	640.376
339.431	23.488	829.181	640.940
340.446	23.575	829.083	641.124
341.460	23.692	828.624	641.134
342.475	23.831	827.860	640.985
343.489	23.827	827.323	640.499
344.504	24.020	826.758	640.701
345.519	23.996	826.646	640.471
346.533	24.143	826.150	640.560
347.548	24.157	825.298	639.890
348.562	23.761	824.715	637.962
349.577	23.250	823.745	635.320
350.592	23.224	823.308	634.834
351.606	23.105	822.452	633.691
352.621	23.031	821.687	632.783
353.635	23.077	821.257	632.558
354.650	23.132	820.892	632.418
355.665	23.175	820.774	632.426
356.679	23.265	820.360	632.374
357.694	23.260	820.093	632.092
358.708	23.322	819.700	631.954
359.723	23.378	818.711	631.337
360.738	23.451	818.084	631.056
361.752	23.267	817.841	630.157
362.767	23.326	817.667	630.177
363.781	23.613	817.264	630.832
364.796	23.893	817.075	631.626
365.810	24.100	816.424	631.799
366.825	24.056	816.765	631.852
367.840	24.265	816.255	632.143
368.854	24.247	815.649	631.554
369.869	23.859	815.180	629.761
370.883	23.723	814.495	628.694
371.898	23.737	813.815	628.163
372.913	23.918	813.319	628.365
373.927	24.126	812.421	628.350
374.942	24.101	811.494	627.490
375.956	23.801	811.313	626.236
376.971	24.135	810.516	626.740
377.986	24.133	810.702	626.823
379.000	24.318	810.079	626.938
380.015	24.530	809.607	627.259
381.029	24.323	808.731	625.799
382.044	24.381	808.105	625.465
383.059	24.307	807.722	624.853
384.073	24.240	807.341	624.268
385.088	24.226	806.438	623.464
386.102	23.771	805.961	621.451
387.117	23.805	804.674	620.523
388.132	23.613	804.221	619.448
389.146	23.716	803.600	619.275
390.161	23.546	803.713	618.711
391.175	23.896	803.529	619.736
392.190	24.151	803.472	620.527
393.205	24.082	802.837	619.739
394.219	23.759	802.122	618.011
395.234	23.601	801.062	616.591
396.248	23.368	800.373	615.198
397.263	23.528	800.015	615.421
398.278	23.343	799.853	614.602
399.292	23.379	798.715	613.795
400.307	23.260	798.712	613.327
401.321	23.077	798.032	612.119
402.336	23.281	797.713	612.524
403.350	23.454	797.577	612.966
404.365	23.719	797.337	613.643
405.380	24.031	797.008	614.410
406.394	24.289	796.890	615.156
407.409	24.443	796.651	615.449
408.423	24.598	796.188	615.569
409.438	24.690	795.504	615.303
410.453	24.585	795.558	614.929
411.467	24.635	795.231	614.795
412.482	24.673	794.462	614.277
413.496	24.694	793.941	613.892
414.511	24.764	793.980	614.107
415.526	24.906	793.066	613.833
416.540	24.745	792.805	613.026
417.555	24.481	792.655	611.948
418.569	24.565	791.780	611.508
419.584	24.482	791.456	610.919
420.599	24.567	790.766	610.623
421.613	163.289	1369.605	1796.223
422.628	141.546	1453.943	1796.324
