DTS Sentinel unit serial number:	SN413079Multiplexer serial number:	ORYXHardware model number:	OX4-SRSoftware version number:	ORYX F/W v4.00 Oryx Data Collector v3.7.2.0data status	okinstallation	princeton_trtdifferential loss correction	single-endedforward channel	channel 3reverse channel	N/Adate	2019/09/18time	10:28:34forward acquisition time	60.00reverse acquisition time	0.00gamma	496.2192k internal	0.2330k external	0.2330temperature offset calibration	0.9957default loss term (dB/km)	0.3790temperature slope calibration	1.0000multiplexer offset coefficient	1.0000multiplexer slope coefficient	1.0000fibre end	0.00T internal ref (°C)	28.30T ext. ref 1 (°C)	0.35T ext. ref 2 (°C)	24.87length (m)	temperature (°C)	Stokes	anti-Stokes-747.200	-200.000	-0.062	-0.282
-746.185	-25.375	-0.261	0.156
-745.171	800.000	-0.073	0.262
-744.156	213.471	-0.122	0.194
-743.142	-109.419	0.391	-0.083
-742.127	-200.000	0.032	0.191
-741.112	800.000	0.089	0.321
-740.098	179.188	0.143	-0.211
-739.083	19.479	0.287	-0.232
-738.069	90.400	-0.223	0.251
-737.054	134.587	-0.178	0.233
-736.039	-13.450	-0.132	0.086
-735.025	800.000	0.120	-0.377
-734.010	-53.441	0.088	-0.041
-732.996	-30.459	0.189	-0.108
-731.981	-163.191	-0.042	0.002
-730.966	-200.000	0.042	-0.324
-729.952	-134.032	-0.341	-0.042
-728.937	277.178	-0.080	0.143
-727.923	606.674	0.052	-0.130
-726.908	-200.000	-0.012	-0.185
-725.894	-91.369	0.120	-0.035
-724.879	22.059	-0.256	0.210
-723.864	-96.802	-0.285	-0.075
-722.850	386.978	-0.115	-0.238
-721.835	-85.865	0.239	-0.074
-720.821	800.000	-0.038	0.130
-719.806	-122.775	0.126	0.020
-718.791	-4.855	-0.148	0.103
-717.777	-45.613	-0.211	0.105
-716.762	-67.841	0.057	-0.022
-715.748	-165.153	-0.435	0.019
-714.733	-18.055	-0.157	-0.099
-713.718	-200.000	-0.067	-0.526
-712.704	-103.149	-0.288	0.069
-711.689	-132.971	-0.237	-0.030
-710.675	-18.850	-0.184	0.115
-709.660	-141.441	-0.155	-0.016
-708.645	-45.378	0.357	0.178
-707.631	-54.003	-0.383	0.175
-706.616	-200.000	0.005	-0.442
-705.602	170.677	0.185	-0.267
-704.587	-161.791	0.069	0.004
-703.572	-91.055	0.061	-0.018
-702.558	800.000	0.086	-0.336
-701.543	-124.536	0.250	-0.039
-700.529	-135.436	-0.063	0.008
-699.514	152.600	-0.031	0.043
-698.499	-20.680	-0.053	-0.033
-697.485	45.796	0.128	-0.119
-696.470	-200.000	-0.077	-0.346
-695.456	-200.000	0.005	-0.177
-694.441	-95.696	-0.180	0.048
-693.426	-33.252	0.033	0.018
-692.412	372.455	0.114	-0.232
-691.397	800.000	-0.061	0.195
-690.383	200.418	0.147	-0.228
-689.368	113.591	-0.136	-0.166
-688.354	348.352	0.108	0.213
-687.339	90.785	-0.073	0.082
-686.324	800.000	-0.055	-0.196
-685.310	89.467	-0.264	0.296
-684.295	19.849	0.173	0.140
-683.281	79.840	-0.084	0.091
-682.266	376.290	0.020	-0.041
-681.251	-86.053	0.198	-0.061
-680.237	-72.180	-0.286	-0.106
-679.222	19.320	0.271	0.219
-678.208	800.000	0.079	0.233
-677.193	-200.000	-0.032	0.255
-676.178	-46.170	-0.127	-0.063
-675.164	372.592	0.110	-0.225
-674.149	800.000	-0.073	-0.234
-673.135	-58.315	0.366	0.160
-672.120	41.126	0.102	0.093
-671.105	-149.244	-0.146	0.012
-670.091	-66.093	0.225	0.090
-669.076	638.349	0.024	0.061
-668.062	-139.676	0.273	0.029
-667.047	11.129	-0.135	-0.104
-666.032	90.566	-0.125	0.141
-665.018	16.869	0.288	0.229
-664.003	441.849	-0.092	-0.201
-662.989	800.000	-0.098	-0.409
-661.974	-149.973	-0.453	-0.035
-660.959	-85.349	-0.403	-0.126
-659.945	747.297	0.042	-0.114
-658.930	-200.000	-0.054	-0.439
-657.916	268.802	-0.061	-0.108
-656.901	148.451	0.176	-0.238
-655.886	61.130	0.062	-0.062
-654.872	800.000	-0.055	0.162
-653.857	800.000	0.029	0.103
-652.843	118.870	-0.169	-0.210
-651.828	800.000	-0.032	-0.134
-650.814	51.280	0.191	0.182
-649.799	-188.578	-0.349	-0.004
-648.784	-134.601	-0.382	0.047
-647.770	66.042	0.185	0.188
-646.755	140.574	0.086	0.114
-645.741	-132.053	-0.218	-0.029
-644.726	-80.295	0.500	0.168
-643.711	-29.814	0.348	0.199
-642.697	262.952	-0.055	-0.095
-641.682	303.795	-0.079	-0.147
-640.668	7.332	-0.130	-0.097
-639.653	-125.453	0.339	-0.052
-638.638	279.195	0.025	-0.044
-637.624	241.908	0.109	0.183
-636.609	-200.000	0.054	0.268
-635.595	417.905	-0.095	0.204
-634.580	-200.000	-0.013	-0.377
-633.565	309.424	0.093	-0.175
-632.551	79.702	-0.193	-0.208
-631.536	-50.907	-0.140	-0.066
-630.522	764.249	-0.107	0.292
-629.507	446.309	-0.019	0.042
-628.492	800.000	0.044	-0.133
-627.478	6.100	-0.127	0.094
-626.463	67.448	0.288	0.294
-625.449	215.184	0.037	-0.058
-624.434	434.376	-0.117	0.255
-623.419	-8.557	-0.138	0.093
-622.405	665.441	-0.122	-0.316
-621.390	-200.000	-0.022	0.233
-620.376	800.000	0.038	-0.166
-619.361	632.762	-0.030	0.075
-618.346	800.000	-0.029	-0.104
-617.332	-162.690	-0.393	-0.019
-616.317	86.605	0.242	0.268
-615.303	191.420	0.116	-0.175
-614.288	107.119	-0.127	0.151
-613.273	50.893	0.143	0.136
-612.259	-200.000	-0.026	0.214
-611.244	-144.706	-0.175	0.016
-610.230	-16.498	-0.163	-0.103
-609.215	-35.547	0.112	0.061
-608.201	-29.970	0.234	-0.133
-607.186	84.483	-0.181	0.198
-606.171	-137.063	0.046	-0.005
-605.157	-200.000	0.029	-0.177
-604.142	149.709	0.237	0.322
-603.128	-18.920	0.101	0.063
-602.113	-145.546	-0.525	0.047
-601.098	-176.549	-0.344	0.009
-600.084	-94.276	0.192	0.052
-599.069	159.412	-0.191	0.266
-598.055	-170.691	-0.123	0.004
-597.040	-25.379	0.226	-0.134
-596.025	-200.000	-0.059	0.260
-595.011	163.745	-0.104	0.146
-593.996	157.644	0.123	-0.170
-592.982	739.430	0.049	-0.131
-591.967	328.222	0.113	-0.218
-590.952	20.207	-0.123	0.099
-589.938	335.486	0.040	-0.077
-588.923	-200.000	-0.010	-0.158
-587.909	-42.391	0.164	0.084
-586.894	-200.000	0.014	-0.249
-585.879	40.943	-0.284	-0.257
-584.865	82.789	-0.186	-0.203
-583.850	35.973	0.054	-0.048
-582.836	-18.375	0.037	0.023
-581.821	773.830	-0.087	-0.236
-580.806	-120.976	0.231	-0.039
-579.792	672.845	-0.129	-0.334
-578.777	-200.000	0.071	-0.354
-577.763	-47.624	0.126	-0.061
-576.748	150.068	-0.183	0.249
-575.733	-48.878	0.198	0.095
-574.719	177.221	-0.081	0.119
-573.704	790.044	-0.072	-0.199
-572.690	-0.691	-0.138	0.098
-571.675	-15.899	-0.405	0.258
-570.661	-46.132	0.247	0.122
-569.646	179.550	0.236	0.345
-568.631	-95.908	-0.161	0.043
-567.617	-200.000	-0.007	-0.138
-566.602	289.434	-0.163	-0.296
-565.588	-39.330	-0.053	-0.028
-564.573	9.218	-0.159	0.120
-563.558	800.000	0.064	-0.255
-562.544	45.790	0.167	0.154
-561.529	-200.000	-0.027	-0.328
-560.515	-99.033	-0.194	-0.049
-559.500	-200.000	-0.018	-0.260
-558.485	-47.969	-0.390	0.188
-557.471	800.000	-0.100	-0.315
-556.456	4.389	0.253	-0.186
-555.442	-200.000	-0.025	-0.195
-554.427	394.560	0.145	-0.302
-553.412	-171.334	0.139	-0.005
-552.398	-134.968	0.371	-0.045
-551.383	-18.783	-0.320	0.199
-550.369	387.630	-0.218	0.451
-549.354	800.000	0.069	0.225
-548.339	470.930	0.050	0.112
-547.325	-60.683	-0.321	-0.136
-546.310	138.942	-0.210	-0.276
-545.296	59.975	-0.097	-0.096
-544.281	-160.482	-0.171	0.009
-543.266	606.525	0.113	-0.280
-542.252	-200.000	0.517	-0.002
-541.237	-28.385	-0.291	-0.168
-540.223	-22.640	0.313	0.189
-539.208	-200.000	-0.025	-0.261
-538.193	-89.699	0.202	-0.059
-537.179	-200.000	0.071	0.325
-536.164	800.000	0.014	0.058
-535.150	-186.718	0.235	-0.003
-534.135	-33.398	-0.216	-0.119
-533.121	329.811	0.105	0.201
-532.106	-200.000	0.008	0.250
-531.091	-147.357	0.184	-0.016
-530.077	-52.248	-0.033	-0.015
-529.062	159.919	-0.156	-0.217
-528.048	80.047	-0.101	-0.108
-527.033	286.278	0.039	0.071
-526.018	9.663	0.374	0.283
-525.004	211.508	-0.080	0.126
-523.989	383.497	0.042	0.086
-522.975	-184.559	0.177	-0.003
-521.960	800.000	0.095	-0.273
-520.945	-61.487	-0.198	-0.083
-519.931	-15.989	0.214	0.136
-518.916	-43.896	0.196	-0.099
-517.902	66.289	-0.060	0.061
-516.887	184.898	-0.074	0.110
-515.872	-15.767	-0.229	0.145
-514.858	-31.050	-0.064	-0.036
-513.843	-200.000	-0.229	-0.001
-512.829	102.333	-0.061	0.071
-511.814	202.488	0.102	-0.157
-510.799	800.000	0.027	-0.093
-509.785	-63.200	0.227	0.093
-508.770	-126.409	-0.163	-0.024
-507.756	279.928	-0.108	0.192
-506.741	-47.347	-0.135	0.065
-505.726	800.000	-0.070	0.219
-504.712	252.384	0.074	-0.126
-503.697	54.305	-0.179	-0.172
-502.683	140.915	-0.122	0.161
-501.668	82.068	-0.344	0.372
-500.653	-35.961	0.121	-0.065
-499.639	800.000	0.019	-0.071
-498.624	186.362	0.227	0.337
-497.610	199.886	-0.209	-0.320
-496.595	95.654	-0.107	-0.122
-495.581	406.779	0.060	-0.126
-494.566	-26.505	-0.173	0.101
-493.551	8.263	0.213	0.159
-492.537	-146.007	-0.290	-0.026
-491.522	-33.630	0.236	0.130
-490.508	-144.565	-0.227	0.021
-489.493	55.016	0.298	-0.287
-488.478	-200.000	0.007	-0.345
-487.464	-85.315	0.327	-0.102
-486.449	165.467	0.102	0.143
-485.435	534.693	0.087	0.206
-484.420	-64.271	-0.118	-0.048
-483.405	-103.688	-0.333	-0.078
-482.391	-152.216	-0.110	0.008
-481.376	721.898	0.115	-0.304
-480.362	-88.187	-0.189	-0.056
-479.347	-116.965	-0.207	-0.038
-478.332	167.543	-0.144	-0.204
-477.318	800.000	0.107	-0.310
-476.303	12.944	0.126	-0.097
-475.289	110.508	0.128	-0.153
-474.274	-53.899	0.283	-0.129
-473.259	0.407	-0.235	-0.167
-472.245	247.800	-0.109	-0.183
-471.230	800.000	0.048	0.158
-470.216	-168.441	0.205	0.008
-469.201	58.501	0.040	0.039
-468.186	-162.356	0.412	0.020
-467.172	-200.000	-0.002	-0.187
-466.157	-191.581	0.302	-0.003
-465.143	39.833	-0.551	0.493
-464.128	-25.119	0.268	-0.158
-463.113	705.650	-0.121	0.319
-462.099	92.217	0.172	0.193
-461.084	6.595	0.281	-0.208
-460.070	800.000	-0.093	0.353
-459.055	800.000	0.039	0.109
-458.040	-95.692	0.068	0.018
-457.026	284.506	-0.112	0.200
-456.011	512.151	0.073	-0.168
-454.997	-104.224	-0.516	0.119
-453.982	-113.502	0.231	-0.045
-452.968	-66.810	0.362	-0.143
-451.953	58.967	-0.169	0.166
-450.938	128.914	-0.040	-0.050
-449.924	87.568	-0.154	0.170
-448.909	-25.370	-0.271	0.159
-447.895	-121.079	0.249	0.041
-446.880	-51.435	-0.140	0.065
-445.865	97.134	0.143	-0.163
-444.851	-14.246	-0.264	0.170
-443.836	-55.486	0.191	-0.085
-442.822	98.237	-0.043	0.049
-441.807	477.594	0.118	0.265
-440.792	165.596	-0.053	0.074
-439.778	800.000	0.052	-0.147
-438.763	73.899	-0.217	0.227
-437.749	409.527	0.107	0.226
-436.734	19.988	-0.178	-0.142
-435.719	222.415	-0.155	0.248
-434.705	800.000	0.007	-0.024
-433.690	13.742	-0.157	0.122
-432.676	800.000	-0.030	-0.107
-431.661	1.329	-0.141	0.101
-430.646	800.000	-0.031	-0.119
-429.632	-49.158	-0.246	-0.117
-428.617	-27.737	-0.296	0.171
-427.603	-200.000	0.004	0.142
-426.588	51.332	0.299	-0.282
-425.573	800.000	-0.020	-0.057
-424.559	60.845	-0.176	0.173
-423.544	130.128	0.178	-0.226
-422.530	748.209	-0.078	-0.208
-421.515	-127.525	0.295	0.043
-420.500	-98.459	-0.135	0.034
-419.486	-38.924	-0.197	0.103
-418.471	-6.169	0.192	0.130
-417.457	-200.000	-0.065	0.419
-416.442	662.746	0.069	0.177
-415.428	686.789	-0.090	-0.234
-414.413	439.489	-0.090	-0.196
-413.398	-200.000	0.001	0.031
-412.384	-11.478	-0.113	-0.074
-411.369	10.647	-0.145	-0.110
-410.355	-31.976	0.292	0.162
-409.340	-123.424	-0.190	-0.030
-408.325	-145.000	0.148	-0.013
-407.311	-200.000	-0.040	0.279
-406.296	-60.404	0.294	-0.124
-405.282	800.000	0.014	0.060
-404.267	-200.000	-0.009	-0.067
-403.252	-1.062	-0.099	-0.070
-402.238	278.400	-0.112	-0.198
-401.223	-8.719	-0.222	-0.148
-400.209	33.795	-0.319	-0.276
-399.194	62.256	-0.146	-0.145
-398.179	-200.000	-0.010	0.061
-397.165	632.164	0.074	0.187
-396.150	-200.000	0.013	0.152
-395.136	800.000	0.057	-0.218
-394.121	-200.000	0.047	-0.266
-393.106	-200.000	0.051	0.496
-392.092	-158.254	0.303	-0.018
-391.077	800.000	0.084	-0.241
-390.063	-134.240	0.111	0.014
-389.048	-11.825	-0.221	-0.144
-388.033	416.658	0.036	0.077
-387.019	-80.122	-0.212	0.071
-386.004	-70.958	0.100	-0.037
-384.990	-86.885	0.182	-0.055
-383.975	-200.000	0.005	-0.591
-382.960	54.713	-0.241	0.231
-381.946	-200.000	0.014	-0.193
-380.931	47.130	-0.180	-0.166
-379.917	788.770	0.027	-0.072
-378.902	-54.621	0.043	-0.019
-377.888	-174.707	0.194	0.005
-376.873	-17.588	-0.439	-0.274
-375.858	-200.000	-0.127	0.000
-374.844	-24.078	-0.140	0.083
-373.829	146.897	0.224	0.298
-372.815	-200.000	0.080	0.392
-371.800	-25.802	-0.201	0.117
-370.785	-63.356	0.111	0.045
-369.771	-51.155	0.267	0.124
-368.756	126.294	-0.192	0.241
-367.742	-139.276	0.052	-0.006
-366.727	-28.711	0.180	-0.103
-365.712	-200.000	0.006	0.278
-364.698	-14.816	0.120	-0.076
-363.683	138.986	-0.195	0.255
-362.669	-200.000	-0.025	-0.202
-361.654	-48.624	0.179	0.085
-360.639	-135.325	-0.231	-0.027
-359.625	325.540	0.066	0.125
-358.610	-70.662	-0.281	0.105
-357.596	-200.000	0.005	-0.128
-356.581	800.000	-0.057	-0.161
-355.566	-200.000	0.013	0.264
-354.552	-200.000	0.039	-0.191
-353.537	800.000	-0.065	-0.193
-352.523	-110.203	-0.056	0.012
-351.508	23.789	0.158	-0.129
-350.493	-3.854	-0.338	0.233
-349.479	-8.765	0.147	0.098
-348.464	-168.337	-0.292	-0.011
-347.450	259.075	-0.122	-0.209
-346.435	105.877	0.085	0.099
-345.420	-200.000	-0.002	-0.174
-344.406	-117.641	-0.245	-0.044
-343.391	-33.038	-0.073	0.040
-342.377	730.616	0.146	-0.386
-341.362	-200.000	-0.003	0.339
-340.348	-131.737	-0.177	-0.023
-339.333	349.300	0.122	0.239
-338.318	-49.979	-0.176	-0.083
-337.304	-167.980	-0.102	0.004
-336.289	800.000	-0.016	0.045
-335.275	-107.340	-0.174	-0.038
-334.260	-142.852	-0.198	-0.019
-333.245	-200.000	-0.004	-0.079
-332.231	235.680	0.104	0.171
-331.216	800.000	-0.125	0.500
-330.202	332.852	-0.064	-0.123
-329.187	636.803	0.027	0.067
-328.172	-200.000	0.024	0.137
-327.158	800.000	-0.012	-0.045
-326.143	-200.000	0.065	0.322
-325.129	0.170	-0.167	0.118
-324.114	-180.077	0.154	0.003
-323.099	-200.000	-0.019	0.137
-322.085	-148.773	0.322	-0.026
-321.070	800.000	0.084	0.308
-320.056	-200.000	0.021	-0.251
-319.041	310.985	0.207	-0.385
-318.026	521.986	0.088	0.205
-317.012	-178.126	-0.258	0.006
-315.997	-120.614	-0.183	0.031
-314.983	-200.000	-0.016	-0.136
-313.968	5.088	-0.141	0.103
-312.953	800.000	-0.131	-0.399
-311.939	-122.247	-0.188	0.030
-310.924	-75.557	0.091	0.032
-309.910	-108.616	-0.201	0.043
-308.895	-200.000	0.011	-0.084
-307.880	-74.415	-0.096	-0.034
-306.866	-200.000	0.041	-0.238
-305.851	-200.000	0.033	0.152
-304.837	74.946	-0.082	0.086
-303.822	-93.607	0.487	0.133
-302.807	-200.000	-0.037	-0.225
-301.793	-62.554	-0.075	-0.031
-300.778	152.612	0.033	0.044
-299.764	421.562	0.132	-0.280
-298.749	163.197	-0.300	-0.418
-297.735	-100.410	-0.281	-0.069
-296.720	800.000	0.045	-0.188
-295.705	510.252	-0.036	0.083
-294.691	-86.869	-0.196	0.059
-293.676	435.969	-0.049	-0.106
-292.662	-82.439	-0.060	-0.019
-291.647	78.820	0.140	-0.148
-290.632	44.074	-0.114	0.103
-289.618	54.209	0.097	0.092
-288.603	-144.253	-0.164	0.015
-287.589	-200.000	0.023	-0.306
-286.574	694.654	0.064	-0.165
-285.559	67.672	-0.141	0.143
-284.545	-133.247	-0.139	0.017
-283.530	-200.000	0.646	0.003
-282.516	800.000	-0.039	0.154
-281.501	55.503	-0.059	0.057
-280.486	-88.699	0.210	-0.062
-279.472	145.826	0.127	0.168
-278.457	-61.553	-0.223	-0.092
-277.443	-67.477	0.274	0.106
-276.428	-92.177	-0.302	-0.084
-275.413	-200.000	-0.027	-0.125
-274.399	651.316	0.080	-0.202
-273.384	-82.877	0.416	-0.133
-272.370	-137.357	0.175	-0.020
-271.355	800.000	-0.035	0.145
-270.340	-36.738	0.384	-0.204
-269.326	144.528	-0.117	-0.154
-268.311	426.545	0.202	0.431
-267.297	-66.744	0.313	-0.123
-266.282	65.557	-0.164	0.164
-265.267	-200.000	-0.009	0.341
-264.253	-200.000	0.006	0.060
-263.238	659.047	0.063	-0.159
-262.224	-78.132	-0.136	0.046
-261.209	800.000	0.117	-0.419
-260.195	800.000	0.118	-0.322
-259.180	399.042	0.075	-0.156
-258.165	-52.330	0.117	-0.054
-257.151	146.964	-0.103	0.137
-256.136	-119.551	-0.203	0.035
-255.122	159.846	-0.254	0.350
-254.107	-42.904	0.231	-0.116
-253.092	-40.641	-0.040	0.021
-252.078	-142.129	0.296	0.029
-251.063	-165.505	-0.240	0.010
-250.049	103.277	-0.051	0.059
-249.034	83.902	-0.150	0.162
-248.019	-68.593	-0.174	0.067
-247.005	139.654	0.127	-0.166
-245.990	515.290	-0.050	-0.115
-244.976	-200.000	0.017	-0.084
-243.961	447.275	-0.130	-0.282
-242.946	141.636	-0.142	-0.186
-241.932	559.711	0.065	0.156
-240.917	146.503	0.171	-0.227
-239.903	-120.731	0.391	-0.065
-238.888	-200.000	0.036	0.249
-237.873	-62.788	0.365	-0.149
-236.859	211.964	-0.039	-0.061
-235.844	-200.000	0.027	0.124
-234.830	-40.556	0.130	0.067
-233.815	-96.517	-0.126	0.033
-232.800	0.241	0.104	-0.073
-231.786	-73.785	-0.291	-0.105
-230.771	-66.934	0.406	-0.158
-229.757	-100.524	-0.082	0.020
-228.742	-64.601	0.182	0.073
-227.727	-200.000	0.040	-0.176
-226.713	-115.252	0.033	-0.006
-225.698	5.815	-0.121	0.088
-224.684	61.115	-0.113	-0.111
-223.669	38.338	-0.153	-0.134
-222.655	-10.849	-0.145	0.094
-221.640	134.859	0.095	0.122
-220.625	78.998	-0.203	0.215
-219.611	800.000	0.055	0.154
-218.596	140.144	0.235	0.306
-217.582	-142.662	0.281	0.027
-216.567	22.617	0.029	0.023
-215.552	-128.986	0.264	-0.037
-214.538	-200.000	0.008	-0.256
-213.523	736.413	0.134	0.353
-212.509	7.561	-0.073	-0.054
-211.494	800.000	0.040	-0.168
-210.479	-82.430	-0.376	-0.120
-209.465	-200.000	-0.000	0.088
-208.450	800.000	-0.108	0.329
-207.436	161.254	0.309	-0.426
-206.421	-122.058	0.393	-0.064
-205.406	240.263	-0.100	-0.164
-204.392	800.000	-0.070	0.297
-203.377	-200.000	-0.010	0.162
-202.363	-200.000	0.050	-0.237
-201.348	-35.554	0.470	0.251
-200.333	130.341	0.175	0.221
-199.319	13.539	0.195	-0.149
-198.304	-121.757	-0.159	0.026
-197.290	-126.784	0.461	-0.067
-196.275	80.975	0.152	-0.162
-195.260	800.000	-0.042	0.123
-194.246	13.096	0.083	0.063
-193.231	-200.000	-0.035	0.237
-192.217	-67.081	-0.112	-0.043
-191.202	-143.972	-0.278	0.026
-190.187	-69.156	0.296	0.112
-189.173	-63.395	-0.195	-0.079
-188.158	79.714	0.036	-0.038
-187.144	102.771	0.149	-0.171
-186.129	-200.000	0.071	-0.487
-185.114	-200.000	0.010	0.193
-184.100	188.697	-0.060	0.088
-183.085	-200.000	0.004	-0.213
-182.071	-200.000	0.023	0.195
-181.056	74.877	0.160	0.166
-180.042	-58.894	0.259	0.110
-179.027	800.000	0.036	-0.110
-178.012	108.054	-0.029	0.034
-176.998	18.241	-0.145	-0.114
-175.983	130.093	0.123	-0.154
-174.969	-5.983	-0.068	-0.046
-173.954	-109.838	-0.261	0.054
-172.939	3.176	0.122	0.087
-171.925	-50.929	0.104	0.048
-170.910	-75.718	-0.288	-0.101
-169.896	800.000	-0.105	0.334
-168.881	800.000	0.049	0.148
-167.866	44.705	0.009	-0.008
-166.852	109.469	-0.233	-0.274
-165.837	-200.000	0.010	0.121
-164.823	70.411	-0.056	0.057
-163.808	-19.921	0.251	0.152
-162.793	-125.563	0.300	0.045
-161.779	93.818	0.127	0.141
-160.764	-200.000	0.014	-0.113
-159.750	-108.836	0.149	0.031
-158.735	800.000	-0.061	0.206
-157.720	-108.042	-0.151	0.032
-156.706	15.666	0.104	-0.080
-155.691	87.166	-0.021	-0.023
-154.677	-155.719	0.209	0.013
-153.662	35.891	0.233	-0.202
-152.647	-200.000	-0.005	-0.061
-151.633	113.197	0.185	0.220
-150.618	-41.299	0.220	0.112
-149.604	-108.456	-0.220	0.047
-148.589	-200.000	0.047	-0.208
-147.574	132.040	0.138	0.175
-146.560	-96.655	-0.338	-0.088
-145.545	-75.275	-0.174	0.061
-144.531	800.000	-0.046	0.138
-143.516	405.214	0.207	0.429
-142.502	-165.336	0.265	-0.011
-141.487	-10.313	0.204	-0.133
-140.472	20.893	0.309	-0.246
-139.458	800.000	-0.036	0.141
-138.443	46.508	-0.201	-0.183
-137.429	-59.132	0.196	-0.083
-136.414	167.882	0.148	-0.207
-135.399	-200.000	-0.006	-0.201
-134.385	-159.128	-0.301	0.017
-133.370	800.000	0.039	-0.156
-132.356	800.000	0.033	-0.135
-131.341	162.678	0.122	0.168
-130.326	43.168	-0.144	-0.129
-129.312	-134.832	-0.149	0.018
-128.297	-200.000	0.000	0.352
-127.283	-34.718	-0.087	0.047
-126.268	-161.649	-0.095	-0.005
-125.253	-200.000	0.017	-0.173
-124.239	-200.000	-0.011	-0.266
-123.224	800.000	0.018	-0.062
-122.210	-36.615	-0.257	0.136
-121.195	305.569	-0.031	-0.057
-120.180	284.264	-0.157	0.278
-119.166	188.804	0.251	-0.369
-118.151	-20.069	-0.086	0.052
-117.137	800.000	0.062	-0.243
-116.122	-200.000	-0.013	0.267
-115.107	-90.975	0.254	0.072
-114.093	108.359	-0.143	0.167
-113.078	-14.502	0.052	-0.033
-112.064	-110.835	0.230	-0.047
-111.049	116.127	0.189	-0.228
-110.034	-91.541	0.567	-0.159
-109.020	800.000	-0.060	0.236
-108.005	-200.000	0.022	0.097
-106.991	-85.047	-0.415	0.128
-105.976	322.628	0.121	-0.226
-104.962	800.000	-0.036	-0.151
-103.947	-3.854	0.304	-0.207
-102.932	101.706	-0.246	0.282
-101.918	-22.560	0.218	-0.129
-100.903	514.129	0.123	-0.281
-99.889	-200.000	0.060	0.261
-98.874	-74.737	0.396	-0.140
-97.859	34.069	-0.211	0.180
-96.845	-115.135	0.238	0.044
-95.830	129.567	-0.184	0.231
-94.816	-195.317	0.156	0.001
-93.801	333.304	-0.113	-0.215
-92.786	-68.058	0.155	0.059
-91.772	-200.000	-0.019	0.178
-90.757	-37.676	0.122	0.064
-89.743	-142.196	0.136	-0.013
-88.728	124.300	0.130	0.160
-87.713	166.349	0.065	0.091
-86.699	-161.635	0.280	0.014
-85.684	2.664	-0.089	-0.063
-84.670	61.557	-0.184	-0.179
-83.655	285.184	0.179	0.316
-82.640	443.670	0.049	0.106
-81.626	-200.000	-0.039	0.200
-80.611	347.742	-0.085	-0.164
-79.597	-200.000	0.016	0.108
-78.582	800.000	-0.046	-0.127
-77.567	510.252	0.070	0.160
-76.553	103.808	-0.043	-0.050
-75.538	-200.000	-0.014	-0.346
-74.524	-139.044	0.242	-0.026
-73.509	503.715	-0.140	0.318
-72.494	-200.000	-0.007	0.171
-71.480	66.925	-0.056	0.056
-70.465	140.754	-0.181	0.235
-69.451	74.091	-0.066	-0.068
-68.436	-112.460	0.293	-0.057
-67.422	73.330	-0.341	0.350
-66.407	-200.000	-0.035	-0.477
-65.392	-97.221	-0.218	0.056
-64.378	-200.000	0.012	0.093
-63.363	206.790	-0.126	0.193
-62.349	-200.000	0.001	0.218
-61.334	280.074	-0.881	-1.543
-60.319	-28.697	0.777	0.438
-59.305	-200.000	-0.245	-1.327
-58.290	137.981	0.959	1.232
-57.276	800.000	0.508	1.466
-56.261	-200.000	109.833	587.415
-55.246	414.772	1527.128	3187.746
-54.232	140.708	2721.829	3523.700
-53.217	101.205	2215.591	2527.333
-52.203	38.475	1735.712	1516.180
-51.188	31.311	1550.009	1304.120
-50.173	29.007	1525.367	1267.487
-49.159	50.390	1582.267	1465.448
-48.144	50.293	1597.783	1479.074
-47.130	31.721	1553.606	1309.807
-46.115	28.628	1538.835	1275.839
-45.100	28.475	1535.169	1271.692
-44.086	28.390	1533.820	1269.934
-43.071	28.416	1531.177	1267.877
-42.057	28.377	1529.639	1266.279
-41.042	28.265	1528.628	1264.623
-40.027	28.255	1526.870	1263.046
-39.013	28.216	1525.418	1261.524
-37.998	28.265	1524.496	1261.054
-36.984	28.357	1522.766	1260.204
-35.969	28.300	1521.728	1258.901
-34.954	28.307	1519.993	1257.465
-33.940	28.233	1518.753	1255.881
-32.925	28.289	1517.405	1255.100
-31.911	28.224	1516.253	1253.652
-30.896	28.334	1514.635	1253.016
-29.881	28.355	1513.037	1251.790
-28.867	28.302	1512.218	1250.699
-27.852	28.286	1510.815	1249.379
-26.838	28.295	1509.268	1248.111
-25.823	28.327	1507.812	1247.081
-24.809	28.342	1506.112	1245.725
-23.794	28.436	1504.486	1244.972
-22.779	28.301	1503.542	1243.220
-21.765	28.407	1502.525	1243.053
-20.750	28.389	1501.790	1242.272
-19.736	28.348	1500.714	1241.054
-18.721	28.304	1499.301	1239.537
-17.706	28.314	1498.165	1238.615
-16.692	28.327	1497.134	1237.803
-15.677	28.251	1496.435	1236.666
-14.663	28.352	1494.606	1235.782
-13.648	28.270	1493.894	1234.593
-12.633	28.309	1493.190	1234.228
-11.619	28.374	1491.801	1233.467
-10.604	28.217	1491.636	1232.223
-9.590	28.279	1490.349	1231.526
-8.575	28.247	1489.641	1230.678
-7.560	28.281	1488.439	1229.869
-6.546	28.239	1487.756	1228.969
-5.531	28.248	1486.862	1228.248
-4.517	28.204	1485.483	1226.760
-3.502	28.377	1484.433	1227.004
-2.487	28.267	1483.947	1225.818
-1.473	28.269	1482.618	1224.683
-0.458	28.208	1481.960	1223.683
0.556	26.917	1472.339	1214.232
1.571	24.467	1447.110	1177.188
2.586	21.353	1385.168	1107.009
3.600	19.871	1300.465	1030.405
4.615	18.408	1255.239	986.066
5.629	15.886	1197.622	926.855
6.644	7.966	1111.048	819.183
7.659	1.457	1071.069	757.277
8.673	0.483	1065.238	748.261
9.688	0.298	1062.195	745.141
10.702	0.321	1060.865	744.257
11.717	0.299	1058.539	742.451
12.731	2.913	1060.754	756.831
13.746	10.432	1072.225	802.290
14.761	16.206	1078.366	835.484
15.775	17.077	1078.480	839.807
16.790	16.687	1076.696	836.417
17.804	15.647	1075.050	829.932
18.819	14.659	1073.404	823.715
19.834	14.348	1072.001	821.035
20.848	14.044	1070.652	818.430
21.863	13.834	1069.784	816.661
22.877	13.543	1069.264	814.759
23.892	13.345	1068.235	812.933
24.907	13.297	1067.242	811.870
25.921	13.207	1066.406	810.720
26.936	13.243	1066.079	810.573
27.950	13.220	1065.473	809.929
28.965	13.384	1064.448	809.883
29.980	13.322	1063.575	808.842
30.994	13.430	1062.776	808.693
32.009	13.536	1061.700	808.317
33.023	13.415	1061.168	807.253
34.038	13.423	1060.544	806.747
35.053	13.373	1059.539	805.666
36.067	13.422	1058.414	804.976
37.082	13.255	1057.928	803.723
38.096	13.315	1057.035	803.268
39.111	13.291	1056.457	802.640
40.126	13.409	1055.428	802.360
41.140	13.316	1054.542	801.163
42.155	13.331	1053.375	800.281
43.169	13.243	1052.157	798.859
44.184	13.209	1051.738	798.306
45.199	13.201	1050.315	797.113
46.213	13.199	1049.238	796.216
47.228	13.175	1048.634	795.571
48.242	13.337	1046.831	794.914
49.257	13.292	1046.409	794.306
50.271	13.216	1045.285	793.018
51.286	13.290	1044.124	792.421
52.301	13.329	1043.771	792.269
53.315	13.261	1042.950	791.254
54.330	13.203	1042.087	790.250
55.344	13.254	1040.989	789.590
56.359	13.337	1039.919	789.104
57.374	13.226	1039.265	788.013
58.388	13.234	1038.506	787.404
59.403	13.249	1037.841	786.902
60.417	13.171	1036.759	785.639
61.432	13.164	1036.278	785.174
62.447	13.161	1035.369	784.401
63.461	13.205	1034.772	784.085
64.476	13.145	1033.673	782.901
65.490	13.218	1032.696	782.435
66.505	13.084	1032.075	781.265
67.520	13.259	1030.941	781.164
68.534	13.218	1030.474	780.545
69.549	13.266	1029.366	779.865
70.563	13.145	1029.108	779.028
71.578	13.249	1027.899	778.538
72.593	13.207	1027.225	777.758
73.607	13.152	1026.288	776.722
74.622	13.107	1025.165	775.590
75.636	13.059	1024.315	774.654
76.651	13.038	1023.555	773.913
77.666	13.060	1023.242	773.709
78.680	13.195	1021.895	773.256
79.695	13.066	1021.571	772.339
80.709	13.184	1020.788	772.232
81.724	13.110	1020.052	771.259
82.739	13.215	1019.361	771.160
83.753	13.256	1018.690	770.772
84.768	13.320	1017.834	770.355
85.782	13.211	1017.154	769.265
86.797	13.433	1015.835	769.231
87.812	13.377	1015.489	768.644
88.826	13.286	1014.474	767.383
89.841	13.196	1014.192	766.685
90.855	13.452	1012.497	766.523
91.870	13.405	1012.145	765.968
92.884	13.346	1011.496	765.136
93.899	13.420	1010.602	764.735
94.914	13.504	1010.101	764.674
95.928	13.369	1009.362	763.426
96.943	13.502	1008.522	763.335
97.957	13.395	1007.546	762.037
98.972	13.394	1006.591	761.241
99.987	13.427	1006.098	760.954
101.001	13.424	1005.551	760.462
102.016	13.477	1004.301	759.692
103.030	13.324	1003.645	758.427
104.045	13.338	1002.779	757.768
105.060	13.432	1001.513	757.176
106.074	13.408	1000.547	756.266
107.089	13.309	1000.239	755.514
108.103	13.236	999.381	754.466
109.118	13.311	998.119	753.792
110.133	13.278	997.684	753.242
111.147	13.227	996.400	751.978
112.162	13.157	995.369	750.813
113.176	13.280	994.880	750.938
114.191	13.338	993.855	750.361
115.206	13.394	992.576	749.582
116.220	13.265	992.604	748.952
117.235	13.374	991.037	748.198
118.249	13.266	990.465	747.208
119.264	13.430	989.231	746.955
120.279	13.444	988.634	746.501
121.293	13.232	988.055	745.042
122.308	13.277	986.963	744.354
123.322	13.253	986.334	743.708
124.337	13.274	985.223	742.895
125.352	13.335	983.980	742.167
126.366	13.314	982.600	740.968
127.381	13.195	981.966	739.889
128.395	13.282	980.846	739.368
129.410	13.280	979.727	738.452
130.424	13.217	979.063	737.605
131.439	13.238	978.151	736.945
132.454	13.298	977.408	736.589
133.468	13.303	976.894	736.159
134.483	13.358	975.881	735.575
135.497	13.274	975.030	734.496
136.512	13.316	974.118	733.930
137.527	13.337	973.109	733.199
138.541	13.321	972.877	732.886
139.556	13.463	971.932	732.740
140.570	13.262	971.603	731.539
141.585	13.383	970.564	731.225
142.600	13.353	970.278	730.811
143.614	13.511	968.665	730.230
144.629	13.513	968.318	729.910
145.643	13.480	967.515	729.097
146.658	13.635	966.240	728.753
147.673	13.497	965.583	727.587
148.687	13.354	964.868	726.355
149.702	13.374	964.046	725.758
150.716	13.329	963.347	724.971
151.731	13.325	962.503	724.254
152.746	13.444	961.330	723.830
153.760	13.432	960.776	723.296
154.775	13.470	960.106	722.895
155.789	13.513	959.422	722.500
156.804	13.544	958.251	721.689
157.819	13.511	957.920	721.234
158.833	13.494	957.219	720.569
159.848	13.564	956.764	720.466
160.862	13.506	955.941	719.530
161.877	13.591	955.005	719.131
162.892	13.486	954.459	718.202
163.906	13.619	952.883	717.526
164.921	13.540	952.247	716.645
165.935	13.599	951.295	716.118
166.950	13.549	950.590	715.311
167.964	13.524	949.853	714.582
168.979	13.667	948.476	714.099
169.994	13.590	947.957	713.316
171.008	13.596	946.889	712.473
172.023	13.627	946.203	712.028
173.037	13.710	945.232	711.590
174.052	13.720	944.701	711.170
175.067	13.610	943.745	709.919
176.081	13.722	943.180	709.909
177.096	13.597	942.601	708.875
178.110	13.646	941.507	708.197
179.125	13.588	940.841	707.389
180.140	13.693	940.083	707.203
181.154	13.632	939.631	706.541
182.169	13.663	938.638	705.863
183.183	13.681	938.094	705.469
184.198	13.822	937.287	705.397
185.213	13.818	936.456	704.694
186.227	13.776	936.144	704.218
187.242	13.731	935.822	703.723
188.256	13.823	934.813	703.290
189.271	13.899	933.948	702.901
190.286	13.881	933.577	702.485
191.300	13.835	932.552	701.454
192.315	13.736	931.661	700.306
193.329	13.644	931.437	699.686
194.344	13.672	930.716	699.200
195.359	13.686	930.439	698.991
196.373	13.927	929.339	699.116
197.388	13.972	928.646	698.724
198.402	13.823	928.363	697.819
199.417	14.080	927.785	698.403
200.432	14.007	927.652	697.938
201.446	13.974	927.265	697.444
202.461	14.037	926.796	697.297
203.475	14.115	926.063	697.007
204.490	14.177	925.501	696.781
205.504	14.065	924.463	695.470
206.519	14.172	923.405	695.060
207.534	13.918	923.219	693.798
208.548	14.007	922.382	693.479
209.563	14.136	921.553	693.334
210.577	14.079	920.797	692.466
211.592	14.242	920.003	692.486
212.607	14.235	919.563	692.064
213.621	14.185	919.050	691.410
214.636	14.208	918.098	690.728
215.650	14.166	917.315	689.901
216.665	14.248	917.051	689.982
217.680	14.332	916.639	689.959
218.694	14.244	916.109	689.135
219.709	14.279	915.645	688.870
220.723	14.458	914.780	688.896
221.738	14.330	914.145	687.832
222.753	14.297	913.326	687.017
223.767	14.135	912.790	685.887
224.782	14.268	912.079	685.840
225.796	14.317	911.150	685.279
226.811	14.484	910.069	685.095
227.826	14.463	909.404	684.445
228.840	14.447	909.056	684.058
229.855	14.326	908.498	683.081
230.869	14.385	907.874	682.793
231.884	14.417	907.207	682.363
232.899	14.312	906.399	681.267
233.913	14.410	905.460	680.898
234.928	14.481	904.828	680.653
235.942	14.514	904.075	680.160
236.957	14.426	903.629	679.408
237.972	14.520	902.681	679.015
238.986	14.530	902.160	678.603
240.001	14.426	901.578	677.685
241.015	14.393	900.869	676.959
242.030	14.480	900.225	676.765
243.045	14.531	899.294	676.213
244.059	14.468	898.855	675.570
245.074	14.619	898.252	675.669
246.088	14.491	897.550	674.562
247.103	14.562	896.931	674.325
248.117	14.550	896.434	673.844
249.132	14.633	895.584	673.479
250.147	14.822	894.876	673.648
251.161	14.751	894.537	673.048
252.176	14.840	893.922	672.881
253.190	14.756	892.838	671.670
254.205	14.815	892.552	671.633
255.220	14.918	891.735	671.374
256.234	15.096	890.779	671.306
257.249	14.963	890.527	670.525
258.263	14.978	889.932	670.077
259.278	14.921	889.646	669.573
260.293	14.903	889.056	668.998
261.307	15.120	888.126	669.107
262.322	14.941	887.867	668.137
263.336	14.973	887.093	667.625
264.351	15.092	886.499	667.593
265.366	15.017	885.789	666.699
266.380	15.083	885.046	666.343
267.395	15.215	884.291	666.243
268.409	15.283	883.659	665.976
269.424	15.195	883.133	665.171
270.439	15.102	882.711	664.424
271.453	15.046	881.770	663.436
272.468	15.122	880.978	663.085
273.482	15.049	880.601	662.453
274.497	15.085	880.078	662.141
275.512	15.116	879.169	661.522
276.526	15.237	878.543	661.471
277.541	15.244	877.955	660.995
278.555	15.277	876.980	660.335
279.570	15.060	876.872	659.340
280.585	15.378	876.085	659.939
281.599	15.381	875.345	659.338
282.614	15.367	874.979	658.949
283.628	15.374	874.347	658.441
284.643	15.412	873.917	658.207
285.657	15.321	873.342	657.361
286.672	15.269	872.708	656.621
287.687	15.416	872.092	656.674
288.701	15.401	871.652	656.226
289.716	15.346	870.745	655.269
290.730	15.427	870.242	655.149
291.745	15.549	869.422	654.951
292.760	15.531	868.796	654.351
293.774	15.388	868.310	653.373
294.789	15.459	868.051	653.396
295.803	15.554	866.989	652.906
296.818	15.448	866.882	652.354
297.833	15.447	866.283	651.843
298.847	15.497	865.329	651.261
299.862	15.596	864.489	650.958
300.876	15.469	863.859	649.933
301.891	15.659	863.061	650.010
302.906	15.693	862.352	649.549
303.920	15.698	861.905	649.175
304.935	15.738	861.024	648.607
305.949	15.710	860.512	648.058
306.964	15.673	860.064	647.517
307.979	15.779	859.160	647.191
308.993	15.770	859.257	647.171
310.008	15.853	858.270	646.690
311.022	15.747	857.952	645.983
312.037	15.764	857.785	645.866
313.052	15.879	856.886	645.573
314.066	15.698	856.459	644.502
315.081	15.760	855.447	643.920
316.095	15.827	855.239	643.965
317.110	15.780	854.558	643.215
318.125	15.881	853.951	643.085
319.139	15.846	853.210	642.338
320.154	15.996	852.654	642.433
321.168	15.745	852.421	641.244
322.183	15.805	851.764	640.924
323.197	16.002	851.210	641.197
324.212	15.871	850.548	640.143
325.227	15.798	850.296	639.620
326.241	15.807	849.500	639.000
327.256	15.940	848.919	639.010
328.270	16.014	848.502	638.922
329.285	15.781	847.973	637.584
330.300	15.979	847.040	637.576
331.314	16.047	846.563	637.415
332.329	15.890	846.000	636.342
333.343	16.025	845.167	636.169
334.358	15.994	844.638	635.598
335.373	16.008	844.212	635.275
336.387	16.148	843.644	635.318
337.402	16.018	842.941	634.243
338.416	16.081	842.604	634.172
339.431	16.058	842.310	633.808
340.446	16.325	841.033	633.791
341.460	16.072	841.190	632.904
342.475	16.167	840.445	632.645
343.489	16.217	839.835	632.317
344.504	16.226	839.387	631.956
345.519	16.410	838.199	631.693
346.533	16.246	838.424	631.196
347.548	16.373	837.810	631.152
348.562	16.412	837.180	630.765
349.577	16.163	836.922	629.588
350.592	16.324	836.043	629.471
351.606	16.260	835.729	628.940
352.621	16.379	834.977	628.762
353.635	16.214	835.091	628.175
354.650	16.192	834.715	627.755
355.665	16.380	833.968	627.839
356.679	16.373	833.676	627.536
357.694	16.403	832.826	626.951
358.708	16.260	832.486	626.111
359.723	16.300	831.800	625.688
360.738	16.473	831.021	625.687
361.752	16.501	830.486	625.334
362.767	16.490	830.300	625.094
363.781	16.408	830.201	624.665
364.796	16.497	829.259	624.229
365.810	16.667	828.930	624.553
366.825	16.587	828.254	623.691
367.840	16.623	828.169	623.704
368.854	16.616	827.713	623.281
369.869	16.597	827.622	623.088
370.883	16.576	826.796	622.334
371.898	16.688	826.340	622.345
372.913	16.616	825.564	621.445
373.927	16.762	824.836	621.378
374.942	16.747	824.319	620.878
375.956	16.626	823.947	620.098
376.971	16.790	822.768	619.755
377.986	16.834	822.566	619.709
379.000	16.858	821.997	619.315
380.015	16.952	821.241	619.032
381.029	17.007	820.615	618.705
382.044	17.054	820.300	618.587
383.059	16.926	820.090	617.905
384.073	16.841	819.346	616.981
385.088	16.971	819.052	617.179
386.102	16.770	818.722	616.145
387.117	16.856	818.065	615.909
388.132	16.849	817.692	615.545
389.146	16.896	816.804	614.995
390.161	16.965	816.623	615.055
391.175	17.080	816.354	615.212
392.190	16.957	816.043	614.479
393.205	16.960	815.420	613.966
394.219	17.058	814.817	613.815
395.234	17.000	814.148	613.045
396.248	17.099	813.780	613.070
397.263	16.773	813.520	611.643
398.278	16.969	812.790	611.747
399.292	16.979	812.752	611.703
400.307	17.009	812.135	611.290
401.321	16.889	811.970	610.682
402.336	16.976	811.321	610.453
403.350	17.063	811.125	610.561
404.365	17.059	810.609	610.106
405.380	17.235	809.817	610.087
406.394	17.181	809.543	609.634
407.409	17.150	808.944	609.019
408.423	17.169	808.687	608.839
409.438	17.174	808.282	608.498
410.453	17.370	807.425	608.499
411.467	17.439	807.084	608.437
412.482	17.388	806.562	607.808
413.496	17.330	806.253	607.312
414.511	17.387	806.005	607.275
415.526	17.317	805.741	606.772
416.540	17.408	805.067	606.538
417.555	17.373	804.788	606.147
418.569	17.438	804.064	605.778
419.584	17.443	803.477	605.302
420.599	17.510	803.185	605.265
421.613	110.525	1294.880	1475.944
422.628	95.232	1366.504	1476.026
