DTS Sentinel unit serial number:	SN413079Multiplexer serial number:	ORYXHardware model number:	OX4-SRSoftware version number:	ORYX F/W v4.00 Oryx Data Collector v3.7.2.0data status	okinstallation	princeton_trtdifferential loss correction	single-endedforward channel	channel 3reverse channel	N/Adate	2019/09/19time	02:08:35forward acquisition time	60.00reverse acquisition time	0.00gamma	496.2192k internal	0.2348k external	0.2348temperature offset calibration	0.9993default loss term (dB/km)	0.3790temperature slope calibration	1.0000multiplexer offset coefficient	1.0000multiplexer slope coefficient	1.0000fibre end	0.00T internal ref (°C)	21.19T ext. ref 1 (°C)	0.67T ext. ref 2 (°C)	14.84length (m)	temperature (°C)	Stokes	anti-Stokes-747.200	-200.000	0.035	0.188
-746.185	800.000	-0.034	0.142
-745.171	-37.349	0.223	0.119
-744.156	205.504	0.201	0.313
-743.142	391.774	0.091	0.190
-742.127	186.679	-0.241	0.359
-741.112	-76.757	0.110	-0.039
-740.098	-129.434	-0.338	0.047
-739.083	800.000	0.029	0.102
-738.069	-55.951	0.242	0.108
-737.054	137.231	-0.019	-0.025
-736.039	-102.497	-0.294	-0.070
-735.025	-200.000	0.048	0.514
-734.010	347.187	-0.081	0.159
-732.996	800.000	-0.105	0.320
-731.981	-200.000	0.010	-0.283
-730.966	101.851	0.251	-0.293
-729.952	-73.852	0.082	0.030
-728.937	639.921	-0.172	-0.437
-727.923	448.528	-0.128	-0.281
-726.908	-117.819	-0.377	-0.068
-725.894	113.887	-0.056	-0.068
-724.879	3.113	0.144	-0.105
-723.864	-83.184	-0.358	0.115
-722.850	515.946	-0.021	-0.048
-721.835	745.408	0.019	0.052
-720.821	719.474	0.161	-0.427
-719.806	208.495	-0.059	-0.093
-718.791	-81.214	0.271	-0.089
-717.777	18.729	-0.117	0.094
-716.762	643.718	-0.042	0.107
-715.748	-24.103	0.038	0.023
-714.733	79.094	0.170	0.182
-713.718	-40.129	-0.346	0.180
-712.704	87.320	0.220	-0.243
-711.689	-20.381	0.092	-0.057
-710.675	92.580	0.158	-0.178
-709.660	-141.270	-0.192	-0.019
-708.645	-65.425	0.220	0.088
-707.631	242.217	-0.062	-0.104
-706.616	433.750	-0.176	-0.382
-705.602	-29.446	-0.177	0.101
-704.587	-3.455	0.062	0.043
-703.572	16.962	-0.339	0.268
-702.558	-200.000	-0.013	-0.205
-701.543	-200.000	0.027	-0.259
-700.529	-12.770	-0.202	0.131
-699.514	-112.346	-0.129	-0.026
-698.499	-90.302	-0.103	0.030
-697.485	181.010	-0.224	0.328
-696.470	-200.000	0.026	-0.353
-695.456	50.070	0.293	0.275
-694.441	-200.000	-0.017	0.155
-693.426	86.112	-0.217	0.238
-692.412	-171.833	-0.155	0.005
-691.397	90.559	0.228	0.255
-690.383	-57.464	0.214	-0.094
-689.368	92.995	-0.396	0.446
-688.354	451.821	0.127	0.279
-687.339	-53.698	-0.209	-0.095
-686.324	-91.805	0.238	-0.067
-685.310	-155.099	-0.349	0.023
-684.295	403.149	0.090	0.188
-683.281	-57.033	0.145	0.064
-682.266	-200.000	-0.008	-0.137
-681.251	-125.094	-0.188	0.029
-680.237	28.952	-0.085	0.072
-679.222	23.138	-0.361	-0.295
-678.208	114.894	-0.192	-0.234
-677.193	-32.471	-0.161	0.090
-676.178	150.881	0.145	0.197
-675.164	-200.000	0.049	0.291
-674.149	-20.840	-0.056	-0.034
-673.135	-83.842	-0.146	-0.046
-672.120	22.445	0.212	-0.173
-671.105	-41.926	-0.140	-0.072
-670.091	144.514	0.061	-0.081
-669.076	-81.295	-0.178	-0.058
-668.062	-118.484	0.111	0.020
-667.047	288.718	-0.115	-0.207
-666.032	255.352	-0.133	-0.227
-665.018	319.008	0.128	0.241
-664.003	-200.000	-0.006	0.234
-662.989	256.810	0.105	-0.179
-661.974	-166.630	-0.197	-0.008
-660.959	186.975	0.057	-0.085
-659.945	-200.000	0.057	-0.311
-658.930	283.516	0.098	0.176
-657.916	-83.528	-0.198	-0.063
-656.901	800.000	-0.094	-0.259
-655.886	-60.661	-0.330	-0.139
-654.872	0.584	0.350	-0.249
-653.857	419.006	0.035	-0.074
-652.843	102.785	0.192	-0.223
-651.828	-28.270	0.229	0.132
-650.814	73.771	-0.166	-0.173
-649.799	-128.092	-0.262	0.037
-648.784	74.625	-0.152	0.159
-647.770	-200.000	0.008	-0.437
-646.755	-34.505	-0.187	0.102
-645.741	-39.345	0.220	-0.115
-644.726	174.448	0.181	-0.260
-643.711	104.741	0.192	0.226
-642.697	201.815	0.059	0.090
-641.682	-120.954	0.258	0.043
-640.668	-63.975	-0.363	-0.148
-639.653	556.671	0.029	0.070
-638.638	425.662	0.083	0.179
-637.624	-200.000	-0.007	-0.106
-636.609	-96.625	0.250	-0.066
-635.595	35.675	0.102	0.089
-634.580	73.487	-0.287	-0.299
-633.565	-44.824	-0.372	-0.185
-632.551	163.372	-0.073	-0.102
-631.536	366.472	-0.208	-0.418
-630.522	-128.971	-0.026	0.004
-629.507	-16.680	-0.103	-0.065
-628.492	-200.000	0.028	0.184
-627.478	-157.254	0.310	-0.019
-626.463	-52.460	-0.228	-0.105
-625.449	105.555	-0.189	0.222
-624.434	-200.000	-0.005	-0.190
-623.419	-115.640	0.378	0.071
-622.405	-75.062	0.112	-0.040
-621.390	-143.004	0.169	-0.016
-620.376	-22.784	-0.199	-0.120
-619.361	97.394	-0.130	0.148
-618.346	182.736	0.077	-0.113
-617.332	11.377	-0.245	-0.186
-616.317	-44.851	0.171	-0.085
-615.303	-35.714	-0.187	0.101
-614.288	435.609	0.081	-0.176
-613.273	306.483	0.192	-0.355
-612.259	75.548	0.153	0.161
-611.244	-79.964	-0.613	0.205
-610.230	64.135	-0.199	0.199
-609.215	-16.173	-0.118	-0.075
-608.201	-3.479	0.060	0.041
-607.186	-110.291	-0.303	0.063
-606.171	122.679	-0.105	-0.131
-605.157	36.589	-0.400	-0.351
-604.142	-60.230	0.195	0.082
-603.128	86.884	-0.041	-0.044
-602.113	800.000	0.021	-0.065
-601.098	450.221	-0.179	-0.392
-600.084	-200.000	-0.013	0.145
-599.069	-16.940	-0.222	-0.139
-598.055	-20.799	0.308	-0.188
-597.040	800.000	0.156	0.463
-596.025	-111.208	-0.216	-0.044
-595.011	91.328	-0.280	-0.313
-593.996	38.124	-0.059	-0.052
-592.982	161.454	-0.129	0.179
-591.967	196.466	0.097	0.147
-590.952	-103.327	0.227	0.053
-589.938	578.987	0.138	-0.335
-588.923	188.547	-0.098	-0.146
-587.909	123.461	-0.202	-0.252
-586.894	142.413	-0.190	-0.251
-585.879	4.643	0.256	-0.187
-584.865	514.188	0.100	-0.231
-583.850	800.000	0.037	-0.138
-582.836	-112.678	-0.418	-0.083
-581.821	800.000	0.033	-0.092
-580.806	800.000	0.093	0.262
-579.792	-200.000	-0.053	0.317
-578.777	-158.495	0.279	0.016
-577.763	39.802	-0.167	0.149
-576.748	138.505	0.273	0.356
-575.733	-200.000	-0.042	0.345
-574.719	-39.650	-0.160	0.083
-573.704	-200.000	0.030	-0.250
-572.690	50.615	0.119	0.111
-571.675	-154.773	0.215	-0.014
-570.661	7.727	0.031	0.023
-569.646	-200.000	0.026	-0.179
-568.631	-68.062	0.184	0.071
-567.617	-132.244	0.193	-0.025
-566.602	69.240	0.188	-0.192
-565.588	-46.462	0.120	0.059
-564.573	-59.234	0.108	-0.046
-563.558	64.418	-0.482	-0.482
-562.544	800.000	-0.034	0.125
-561.529	-96.538	0.139	-0.037
-560.515	-129.521	0.563	0.077
-559.500	800.000	-0.054	-0.162
-558.485	-0.346	-0.507	-0.357
-557.471	-159.768	0.332	-0.018
-556.456	472.529	-0.049	0.110
-555.442	61.400	-0.222	0.219
-554.427	685.493	0.123	0.318
-553.412	-151.126	-0.356	0.027
-552.398	184.691	0.092	0.135
-551.383	-94.772	-0.100	0.027
-550.369	-117.360	-0.244	0.044
-549.354	175.366	-0.144	0.207
-548.339	800.000	0.108	0.459
-547.325	9.619	-0.345	-0.260
-546.310	-20.083	-0.133	-0.082
-545.296	-59.267	-0.399	0.170
-544.281	-106.094	-0.132	0.029
-543.266	-112.448	0.275	0.055
-542.252	62.554	-0.292	-0.289
-541.237	-100.080	0.092	0.023
-540.223	42.572	0.166	0.150
-539.208	-64.554	0.277	0.111
-538.193	-200.000	0.029	-0.223
-537.179	46.029	-0.320	-0.294
-536.164	182.026	-0.156	0.228
-535.150	-162.349	0.023	0.001
-534.135	-200.000	0.011	0.219
-533.121	121.875	-0.113	0.140
-532.106	12.779	-0.073	0.056
-531.091	90.680	-0.114	0.126
-530.077	-49.943	0.067	-0.031
-529.062	511.569	0.120	0.277
-528.048	-83.074	-0.269	-0.086
-527.033	-187.423	0.287	0.004
-526.018	-60.125	0.103	-0.044
-525.004	-46.820	0.010	-0.005
-523.989	-189.116	0.437	-0.005
-522.975	529.217	-0.055	0.129
-521.960	-86.301	-0.137	0.042
-520.945	-35.941	-0.186	-0.100
-519.931	745.869	-0.027	0.073
-518.916	-200.000	-0.059	0.471
-517.902	142.931	-0.149	0.196
-516.887	800.000	-0.027	-0.114
-515.872	-200.000	0.032	0.255
-514.858	-200.000	0.011	0.079
-513.843	-47.374	-0.133	-0.064
-512.829	-200.000	0.048	0.251
-511.814	-16.602	0.188	-0.118
-510.799	800.000	-0.018	0.054
-509.785	25.740	0.116	-0.095
-508.770	-96.509	-0.106	-0.028
-507.756	187.182	-0.059	-0.088
-506.741	-40.924	0.080	-0.041
-505.726	-129.165	-0.212	0.029
-504.712	-87.912	-0.139	-0.041
-503.697	-200.000	0.001	-0.043
-502.683	800.000	0.070	0.267
-501.668	163.326	0.161	-0.224
-500.653	-73.202	-0.303	0.110
-499.639	6.132	-0.105	0.077
-498.624	-200.000	-0.017	0.087
-497.610	-120.420	0.392	0.066
-496.595	792.656	-0.085	-0.233
-495.581	-200.000	-0.017	-0.146
-494.566	-200.000	-0.014	-0.269
-493.551	203.582	0.251	0.384
-492.537	800.000	0.094	-0.361
-491.522	-75.616	0.402	0.141
-490.508	22.894	0.121	-0.098
-489.493	137.751	0.044	-0.057
-488.478	156.907	-0.224	-0.306
-487.464	800.000	0.063	0.233
-486.449	129.355	0.093	-0.117
-485.435	-200.000	-0.038	-0.427
-484.420	-200.000	0.001	0.080
-483.405	-59.629	-0.275	-0.117
-482.391	131.107	0.075	0.096
-481.376	6.876	-0.156	-0.115
-480.362	-8.440	-0.099	0.066
-479.347	237.728	-0.032	-0.052
-478.332	-200.000	0.013	0.063
-477.318	800.000	-0.120	0.355
-476.303	31.589	-0.123	0.104
-475.289	-6.485	0.268	-0.181
-474.274	-169.665	0.187	-0.007
-473.259	-154.126	0.130	-0.009
-472.245	-94.166	-0.049	0.013
-471.230	-171.157	0.072	0.002
-470.216	-23.821	0.251	0.148
-469.201	800.000	0.045	0.144
-468.186	268.181	-0.142	-0.246
-467.172	-188.457	0.047	-0.001
-466.157	-77.201	-0.079	-0.027
-465.143	-200.000	0.030	-0.229
-464.128	192.770	-0.093	-0.139
-463.113	286.518	-0.047	0.084
-462.099	33.535	0.283	0.243
-461.084	-6.677	0.243	-0.163
-460.070	-133.125	-0.174	-0.022
-459.055	117.343	-0.110	-0.134
-458.040	17.542	-0.157	0.123
-457.026	-200.000	0.015	-0.182
-456.011	-51.992	-0.158	-0.073
-454.997	-200.000	0.001	0.071
-453.982	585.401	-0.111	-0.270
-452.968	-200.000	-0.029	-0.144
-451.953	-105.924	0.108	0.024
-450.938	547.012	0.074	0.175
-449.924	-89.532	-0.032	-0.009
-448.909	-124.765	-0.208	-0.032
-447.895	153.378	0.181	-0.244
-446.880	-71.651	-0.225	-0.083
-445.865	-108.622	-0.210	0.045
-444.851	-165.533	0.375	-0.016
-443.836	35.325	-0.072	0.062
-442.822	164.369	0.016	0.023
-441.807	-13.217	-0.328	-0.211
-440.792	-200.000	-0.024	-0.181
-439.778	-126.732	0.345	0.050
-438.763	-110.220	-0.103	-0.021
-437.749	51.815	0.122	0.115
-436.734	763.599	-0.123	-0.330
-435.719	78.048	-0.037	0.039
-434.705	-134.143	0.045	0.006
-433.690	299.706	0.147	0.267
-432.676	74.169	-0.202	-0.209
-431.661	47.818	-0.128	0.118
-430.646	45.993	-0.128	-0.117
-429.632	-70.506	0.289	-0.108
-428.617	-200.000	-0.002	0.280
-427.603	-42.311	-0.209	0.106
-426.588	-121.494	0.149	0.024
-425.573	-152.224	0.140	-0.010
-424.559	297.927	-0.048	-0.087
-423.544	-200.000	0.026	0.171
-422.530	393.114	0.066	0.136
-421.515	-200.000	-0.026	0.222
-420.500	-132.571	-0.095	-0.012
-419.486	7.442	-0.289	0.213
-418.471	101.513	-0.089	0.102
-417.457	-132.722	0.234	-0.030
-416.442	103.209	0.050	-0.058
-415.428	-200.000	-0.088	0.495
-414.413	-72.352	-0.163	0.060
-413.398	105.817	-0.149	0.173
-412.384	-200.000	0.040	0.202
-411.369	218.222	-0.153	-0.241
-410.355	-164.631	0.083	0.004
-409.340	215.464	0.024	-0.037
-408.325	44.858	0.167	-0.151
-407.311	127.772	-0.062	-0.078
-406.296	-200.000	-0.011	-0.118
-405.282	-3.204	-0.176	-0.121
-404.267	800.000	0.035	-0.125
-403.252	-108.206	-0.450	-0.096
-402.238	122.462	0.076	0.094
-401.223	424.119	0.063	0.133
-400.209	-32.060	-0.112	0.062
-399.194	-200.000	0.064	0.284
-398.179	-200.000	0.024	0.208
-397.165	-24.431	0.055	-0.032
-396.150	800.000	0.106	0.295
-395.136	209.517	-0.063	0.097
-394.121	-135.715	0.222	-0.026
-393.106	352.128	0.075	-0.146
-392.092	-200.000	-0.040	0.336
-391.077	800.000	0.080	-0.236
-390.063	84.656	-0.152	0.164
-389.048	419.513	0.185	0.391
-388.033	-142.765	-0.391	-0.038
-387.019	13.843	0.203	0.155
-386.004	-33.825	-0.129	-0.070
-384.990	-75.557	0.267	-0.094
-383.975	-106.014	0.210	-0.047
-382.960	-87.700	-0.343	0.102
-381.946	146.508	-0.154	-0.203
-380.931	-200.000	-0.033	0.149
-379.917	-59.009	0.272	0.116
-378.902	-148.168	0.406	0.033
-377.888	8.441	-0.214	0.158
-376.873	63.120	0.126	-0.124
-375.858	11.029	0.017	0.013
-374.844	-114.789	-0.115	-0.022
-373.829	45.707	0.185	-0.168
-372.815	666.789	-0.202	-0.514
-371.800	85.807	0.299	0.324
-370.785	136.907	0.107	-0.138
-369.771	74.563	-0.137	0.142
-368.756	79.986	0.256	-0.271
-367.742	-200.000	0.012	0.231
-366.727	155.954	0.257	-0.349
-365.712	-200.000	0.064	-0.284
-364.698	49.135	-0.161	-0.149
-363.683	121.341	0.042	0.052
-362.669	-200.000	-0.047	-0.317
-361.654	-13.984	-0.290	0.184
-360.639	800.000	-0.034	-0.135
-359.625	800.000	-0.093	-0.300
-358.610	-95.268	-0.127	0.034
-357.596	-200.000	-0.010	0.135
-356.581	-113.153	0.056	-0.011
-355.566	212.727	-0.197	0.305
-354.552	-91.649	0.237	0.066
-353.537	800.000	0.009	0.031
-352.523	800.000	0.057	0.183
-351.508	-90.594	-0.188	-0.054
-350.493	-61.407	0.223	-0.092
-349.479	115.052	0.192	-0.231
-348.464	-200.000	0.101	-0.525
-347.450	-200.000	0.003	-0.204
-346.435	-190.716	-0.223	0.002
-345.420	800.000	-0.057	-0.191
-344.406	-99.871	0.123	0.030
-343.391	123.610	0.121	-0.149
-342.377	-200.000	0.015	0.093
-341.362	-99.782	-0.286	0.070
-340.348	-200.000	0.026	-0.151
-339.333	-136.878	-0.051	0.006
-338.318	-200.000	0.063	-0.441
-337.304	118.263	-0.159	-0.192
-336.289	431.051	-0.079	-0.168
-335.275	37.108	0.349	0.304
-334.260	-200.000	-0.018	0.120
-333.245	-94.859	-0.084	-0.022
-332.231	205.032	-0.085	-0.129
-331.216	800.000	-0.103	-0.327
-330.202	-200.000	0.020	0.214
-329.187	-83.156	0.098	-0.031
-328.172	-75.353	-0.518	-0.182
-327.158	539.099	-0.057	-0.133
-326.143	348.535	-0.111	-0.215
-325.129	-106.768	0.213	0.046
-324.114	-116.065	0.202	-0.037
-323.099	-200.000	0.008	0.050
-322.085	348.195	0.046	0.089
-321.070	145.368	-0.188	0.248
-320.056	-200.000	0.006	-0.039
-319.041	559.846	0.090	-0.212
-318.026	800.000	0.032	-0.089
-317.012	275.031	0.024	0.042
-315.997	-5.061	0.221	0.149
-314.983	-136.387	-0.070	0.008
-313.968	-200.000	-0.035	0.271
-312.953	427.063	0.070	-0.149
-311.939	127.917	-0.109	0.136
-310.924	-100.245	0.052	-0.013
-309.910	-78.549	-0.216	-0.073
-308.895	55.146	-0.186	-0.177
-307.880	100.246	-0.190	0.217
-306.866	-40.112	0.182	-0.093
-305.851	416.304	0.125	0.263
-304.837	800.000	0.064	0.173
-303.822	-200.000	0.105	0.510
-302.807	-162.873	-0.152	0.007
-301.793	-105.704	-0.239	0.053
-300.778	800.000	0.049	0.179
-299.764	20.080	-0.067	-0.053
-298.749	-200.000	0.068	0.318
-297.735	126.299	0.026	0.033
-296.720	-200.000	-0.011	-0.177
-295.705	-26.221	0.333	-0.192
-294.691	-200.000	-0.042	-0.292
-293.676	-28.308	0.326	-0.185
-292.662	152.385	0.067	0.090
-291.647	184.223	0.026	0.037
-290.632	48.550	0.053	0.049
-289.618	-178.345	0.377	-0.009
-288.603	-32.674	-0.199	-0.109
-287.589	112.202	-0.051	0.061
-286.574	3.965	-0.303	-0.218
-285.559	-77.328	0.118	0.040
-284.545	434.529	-0.062	-0.132
-283.530	16.362	0.225	0.174
-282.516	-200.000	0.046	0.324
-281.501	-37.146	0.121	-0.063
-280.486	242.468	0.086	0.141
-279.472	56.216	0.227	0.216
-278.457	-200.000	0.006	-0.068
-277.443	800.000	-0.070	-0.227
-276.428	263.550	-0.222	0.379
-275.413	236.162	-0.126	-0.205
-274.399	-24.512	0.144	0.084
-273.384	-155.426	0.293	-0.019
-272.370	127.230	-0.171	-0.213
-271.355	407.030	0.031	-0.065
-270.340	458.037	-0.081	-0.176
-269.326	-200.000	0.009	-0.211
-268.311	81.537	0.244	-0.259
-267.297	-143.799	-0.232	-0.022
-266.282	40.708	-0.159	-0.141
-265.267	-53.524	0.335	-0.150
-264.253	-108.580	0.208	0.044
-263.238	-134.316	-0.210	0.025
-262.224	-26.729	0.179	0.103
-261.209	800.000	-0.106	0.448
-260.195	58.346	0.123	-0.118
-259.180	-122.310	-0.132	-0.021
-258.165	34.172	-0.068	0.058
-257.151	-200.000	-0.044	0.402
-256.136	-200.000	-0.008	0.054
-255.122	131.357	-0.172	-0.216
-254.107	-13.675	0.266	0.169
-253.092	800.000	-0.025	0.099
-252.078	592.272	0.089	0.216
-251.063	-103.834	-0.286	-0.065
-250.049	-46.833	-0.291	0.140
-249.034	-108.472	-0.387	0.082
-248.019	-200.000	0.045	0.532
-247.005	76.653	0.123	-0.128
-245.990	-200.000	-0.021	-0.150
-244.976	-129.243	0.168	-0.023
-243.961	58.217	0.040	0.038
-242.946	-39.210	0.241	-0.124
-241.932	-61.577	-0.455	-0.187
-240.917	-173.211	-0.402	-0.012
-239.903	158.588	-0.222	0.302
-238.888	-159.286	-0.107	0.006
-237.873	148.812	-0.095	-0.126
-236.859	-17.503	0.299	0.184
-235.844	285.305	-0.146	0.258
-234.830	-107.553	-0.178	0.038
-233.815	-68.022	-0.221	-0.084
-232.800	150.007	-0.194	-0.257
-231.786	-156.723	-0.125	0.008
-230.771	14.335	0.395	0.301
-229.757	-200.000	-0.030	0.168
-228.742	-173.749	0.444	-0.013
-227.727	506.256	0.102	-0.231
-226.713	-88.326	-0.182	-0.053
-225.698	317.649	0.033	0.062
-224.684	-200.000	0.063	-0.343
-223.669	-200.000	0.016	0.204
-222.655	-120.078	-0.144	0.024
-221.640	800.000	0.086	-0.288
-220.625	-28.143	-0.174	0.099
-219.611	64.541	-0.159	0.157
-218.596	66.242	0.168	0.167
-217.582	-87.965	0.179	0.053
-216.567	92.515	0.176	0.194
-215.552	-10.440	-0.208	-0.135
-214.538	-50.785	-0.111	-0.051
-213.523	-29.618	0.221	0.123
-212.509	485.402	0.032	0.070
-211.494	-200.000	0.071	-0.412
-210.479	92.388	0.076	-0.084
-209.465	-200.000	0.035	-0.161
-208.450	-35.885	0.376	0.199
-207.436	-23.107	-0.120	-0.071
-206.421	240.042	-0.053	0.086
-205.406	576.072	0.054	-0.129
-204.392	-121.474	0.247	0.040
-203.377	-164.047	-0.362	-0.016
-202.363	-84.739	0.368	-0.113
-201.348	2.985	0.136	-0.097
-200.333	547.294	-0.093	-0.217
-199.319	-50.484	-0.226	0.104
-198.304	24.145	0.205	0.165
-197.290	-80.734	0.470	0.153
-196.275	-200.000	-0.092	0.713
-195.260	800.000	0.018	-0.062
-194.246	96.462	0.301	0.337
-193.231	-63.273	0.253	0.102
-192.217	7.526	0.051	0.037
-191.202	104.549	0.118	0.136
-190.187	800.000	0.044	0.136
-189.173	293.230	0.100	-0.178
-188.158	414.333	0.188	-0.391
-187.144	-18.285	-0.044	0.027
-186.129	181.358	-0.092	0.132
-185.114	33.294	-0.076	-0.064
-184.100	-89.214	-0.094	0.027
-183.085	289.757	0.168	-0.299
-182.071	-200.000	0.007	0.225
-181.056	-110.112	0.313	-0.064
-180.042	3.889	0.292	-0.208
-179.027	-57.545	0.253	0.109
-178.012	-153.649	0.379	-0.026
-176.998	800.000	0.041	0.166
-175.983	-81.707	-0.228	-0.073
-174.969	800.000	0.031	-0.088
-173.954	-178.325	-0.297	0.007
-172.939	14.902	0.153	0.117
-171.925	58.904	-0.172	0.166
-170.910	184.920	-0.128	-0.186
-169.896	61.714	-0.306	-0.297
-168.881	-48.560	0.459	0.216
-167.866	-200.000	-0.009	0.112
-166.852	-150.499	-0.162	-0.012
-165.837	170.980	-0.033	0.047
-164.823	-200.000	0.032	0.252
-163.808	130.566	-0.276	0.346
-162.793	244.701	0.188	0.309
-161.779	248.467	0.066	0.109
-160.764	-163.838	-0.176	0.008
-159.750	31.280	0.130	-0.109
-158.735	-75.461	0.188	0.065
-157.720	-132.728	-0.142	-0.018
-156.706	40.080	0.070	-0.062
-155.691	-200.000	0.033	0.157
-154.677	-143.164	0.381	-0.036
-153.662	-200.000	0.022	-0.188
-152.647	-16.206	0.099	-0.061
-151.633	-110.950	-0.274	-0.055
-150.618	800.000	0.076	-0.262
-149.604	-200.000	-0.004	0.276
-148.589	-113.372	0.198	0.038
-147.574	800.000	0.105	0.362
-146.560	41.269	0.095	0.084
-145.545	16.653	0.026	-0.020
-144.531	-200.000	0.003	-0.189
-143.516	-26.200	0.291	-0.167
-142.502	-15.155	0.195	0.122
-141.487	-200.000	0.043	0.415
-140.472	90.040	-0.096	0.105
-139.458	214.700	0.127	0.196
-138.443	-58.102	-0.192	0.082
-137.429	285.930	0.097	-0.171
-136.414	493.112	0.138	0.308
-135.399	-98.814	0.342	-0.085
-134.385	271.184	-0.009	0.015
-133.370	-200.000	0.014	0.078
-132.356	309.064	-0.063	-0.116
-131.341	-119.652	0.190	0.032
-130.326	233.918	0.062	-0.100
-129.312	288.775	0.088	-0.155
-128.297	89.600	0.199	0.216
-127.283	165.871	-0.124	0.171
-126.268	-200.000	0.032	0.254
-125.253	31.623	-0.037	0.031
-124.239	295.716	0.127	-0.227
-123.224	317.769	0.209	-0.385
-122.210	-200.000	-0.013	0.244
-121.195	-50.636	0.124	-0.057
-120.180	-200.000	0.018	-0.123
-119.166	297.786	-0.099	-0.177
-118.151	-68.231	-0.211	0.080
-117.137	115.426	0.159	0.189
-116.122	-186.483	-0.137	-0.002
-115.107	-101.883	0.159	0.037
-114.093	457.534	-0.050	-0.109
-113.078	384.544	0.081	0.162
-112.064	277.807	-0.065	-0.113
-111.049	0.401	0.328	0.229
-110.034	-140.957	-0.108	-0.011
-109.020	-6.155	-0.275	0.183
-108.005	-200.000	-0.041	-0.226
-106.991	-200.000	0.012	-0.136
-105.976	800.000	0.099	-0.314
-104.962	-14.541	-0.306	-0.192
-103.947	-117.539	-0.221	0.039
-102.932	-163.008	0.040	0.002
-101.918	-38.532	0.106	0.055
-100.903	80.862	0.102	0.108
-99.889	-200.000	0.016	0.115
-98.874	188.456	0.033	0.048
-97.859	-200.000	-0.020	-0.101
-96.845	800.000	-0.069	-0.286
-95.830	-32.318	-0.257	0.140
-94.816	15.999	0.166	0.127
-93.801	-200.000	-0.005	0.122
-92.786	800.000	0.059	0.204
-91.772	55.241	0.060	0.057
-90.757	800.000	0.089	-0.263
-89.743	-1.327	0.184	0.126
-88.728	67.525	0.127	0.126
-87.713	530.926	0.066	0.152
-86.699	193.248	-0.062	0.091
-85.684	-170.275	0.146	-0.005
-84.670	148.246	0.090	0.119
-83.655	376.524	0.247	0.490
-82.640	38.215	0.235	-0.204
-81.626	800.000	0.062	0.172
-80.611	-23.046	0.077	0.045
-79.597	-142.903	0.247	0.023
-78.582	-200.000	0.027	0.140
-77.567	12.574	0.201	0.151
-76.553	166.571	-0.099	-0.137
-75.538	-84.949	0.241	-0.074
-74.524	162.655	-0.185	-0.252
-73.509	-81.197	-0.061	-0.020
-72.494	155.170	0.055	0.074
-71.480	131.118	0.130	0.163
-70.465	-11.495	0.127	-0.081
-69.451	171.908	-0.191	-0.267
-68.436	436.193	0.106	0.225
-67.422	-10.271	0.247	-0.159
-66.407	544.128	-0.072	-0.168
-65.392	-200.000	-0.038	0.227
-64.378	11.366	-0.285	-0.213
-63.363	-44.809	0.123	0.060
-62.349	-200.000	-0.017	0.285
-61.334	-7.266	-1.526	-1.006
-60.319	64.292	0.819	0.802
-59.305	497.098	-0.673	-1.506
-58.290	400.941	0.628	1.282
-57.276	666.398	0.601	1.511
-56.261	-200.000	134.813	681.248
-55.246	338.684	1676.511	3175.232
-54.232	134.485	2803.644	3536.971
-53.217	87.528	2194.382	2362.520
-52.203	31.262	1710.287	1427.827
-51.188	24.124	1533.174	1230.786
-50.173	22.508	1510.791	1201.751
-49.159	46.582	1586.463	1431.877
-48.144	43.430	1597.007	1419.231
-47.130	24.222	1545.855	1241.451
-46.115	21.483	1529.523	1209.380
-45.100	21.314	1525.818	1205.232
-44.086	21.217	1524.211	1203.248
-43.071	21.183	1522.480	1201.602
-42.057	21.119	1521.388	1200.249
-41.042	21.172	1519.817	1199.326
-40.027	21.129	1518.057	1197.598
-39.013	21.138	1516.543	1196.415
-37.998	21.126	1515.200	1195.226
-36.984	21.144	1513.967	1194.333
-35.969	21.168	1512.483	1193.277
-34.954	21.184	1510.977	1192.148
-33.940	21.136	1510.448	1191.356
-32.925	21.108	1508.681	1189.725
-31.911	21.186	1507.225	1189.065
-30.896	21.271	1505.589	1188.300
-29.881	21.219	1505.023	1187.454
-28.867	21.253	1503.226	1186.218
-27.852	21.230	1502.044	1185.085
-26.838	21.213	1500.410	1183.632
-25.823	21.235	1499.066	1182.673
-24.809	21.254	1497.571	1181.578
-23.794	21.281	1495.906	1180.397
-22.779	21.335	1495.013	1180.012
-21.765	21.198	1494.228	1178.421
-20.750	21.217	1493.240	1177.727
-19.736	21.087	1492.514	1176.226
-18.721	21.132	1491.183	1175.438
-17.706	21.280	1489.781	1175.277
-16.692	21.233	1488.921	1174.235
-15.677	21.101	1488.056	1172.619
-14.663	21.151	1486.487	1171.672
-13.648	21.186	1485.872	1171.381
-12.633	21.181	1484.523	1170.232
-11.619	21.204	1483.564	1169.589
-10.604	21.197	1482.600	1168.733
-9.590	21.093	1482.445	1167.871
-8.575	21.248	1481.130	1167.824
-7.560	21.153	1480.455	1166.610
-6.546	21.235	1479.202	1166.123
-5.531	21.215	1478.561	1165.438
-4.517	21.209	1477.635	1164.624
-3.502	21.139	1476.814	1163.462
-2.487	21.210	1475.516	1162.865
-1.473	21.144	1474.386	1161.487
-0.458	21.169	1473.005	1160.526
0.556	20.187	1463.218	1148.842
1.571	16.970	1438.812	1108.585
2.586	13.456	1376.753	1038.668
3.600	11.819	1292.000	964.995
4.615	11.066	1247.719	927.551
5.629	9.594	1191.697	877.809
6.644	5.021	1110.903	794.953
7.659	1.286	1076.498	751.788
8.673	0.701	1072.073	745.746
9.688	0.673	1067.971	742.692
10.702	0.700	1066.481	741.721
11.717	0.606	1064.167	739.585
12.731	2.137	1064.341	747.133
13.746	7.640	1071.954	779.470
14.761	14.025	1079.739	816.518
15.775	17.014	1083.429	833.953
16.790	16.855	1083.045	832.801
17.804	16.001	1080.476	826.562
18.819	15.200	1078.853	821.323
19.834	14.653	1077.208	817.320
20.848	14.413	1076.500	815.536
21.863	14.170	1075.713	813.681
22.877	13.984	1074.713	811.946
23.892	13.886	1073.520	810.493
24.907	13.534	1073.466	808.660
25.921	13.562	1072.486	807.988
26.936	13.684	1071.786	807.982
27.950	13.647	1071.372	807.420
28.965	13.739	1070.430	807.086
29.980	13.894	1069.198	806.842
30.994	13.965	1068.070	806.260
32.009	13.830	1067.597	805.180
33.023	13.937	1066.881	805.087
34.038	13.864	1066.259	804.191
35.053	13.980	1064.740	803.537
36.067	13.806	1063.986	802.052
37.082	13.832	1063.527	801.763
38.096	13.832	1062.789	801.134
39.111	13.951	1061.570	800.721
40.126	13.890	1060.615	799.636
41.140	13.884	1059.856	798.962
42.155	13.798	1058.636	797.561
43.169	13.982	1057.208	797.298
44.184	13.664	1056.987	795.534
45.199	13.579	1055.702	794.089
46.213	13.812	1054.310	794.084
47.228	13.729	1053.455	792.976
48.242	13.726	1052.608	792.254
49.257	13.795	1051.724	791.847
50.271	13.811	1050.572	790.986
51.286	13.788	1049.956	790.343
52.301	13.808	1049.322	789.889
53.315	13.903	1048.295	789.500
54.330	13.817	1047.383	788.334
55.344	13.797	1046.494	787.501
56.359	13.725	1045.790	786.557
57.374	13.970	1044.417	786.617
58.388	13.751	1044.243	785.379
59.403	13.722	1043.568	784.665
60.417	13.611	1042.694	783.414
61.432	13.675	1042.351	783.390
62.447	13.648	1041.401	782.478
63.461	13.655	1040.375	781.672
64.476	13.766	1039.101	781.167
65.490	13.689	1038.639	780.390
66.505	13.721	1037.353	779.504
67.520	13.644	1036.869	778.711
68.534	13.737	1036.057	778.470
69.549	13.678	1035.247	777.514
70.563	13.799	1034.297	777.297
71.578	13.835	1033.544	776.831
72.593	13.740	1032.609	775.617
73.607	13.602	1032.077	774.502
74.622	13.723	1030.739	773.994
75.636	13.556	1029.979	772.575
76.651	13.677	1029.258	772.531
77.666	13.695	1028.743	772.163
78.680	13.703	1027.965	771.545
79.695	13.693	1027.143	770.813
80.709	13.664	1026.717	770.293
81.724	13.838	1025.363	770.015
82.739	13.703	1024.947	769.010
83.753	13.887	1024.408	769.387
84.768	13.812	1023.618	768.379
85.782	13.762	1022.906	767.544
86.797	13.983	1021.553	767.484
87.812	13.879	1021.038	766.550
88.826	13.882	1019.960	765.685
89.841	13.869	1019.146	764.947
90.855	13.812	1018.617	764.221
91.870	13.880	1017.891	763.920
92.884	13.836	1016.880	762.892
93.899	13.785	1016.280	762.139
94.914	13.864	1015.091	761.545
95.928	13.923	1014.553	761.340
96.943	13.974	1013.820	760.959
97.957	13.942	1013.086	760.192
98.972	13.914	1012.453	759.524
99.987	13.924	1011.447	758.747
101.001	13.928	1010.599	758.064
102.016	14.025	1009.760	757.810
103.030	13.930	1008.918	756.678
104.045	13.945	1007.877	755.896
105.060	13.890	1007.292	755.142
106.074	13.935	1006.088	754.376
107.089	13.892	1005.530	753.695
108.103	13.809	1004.330	752.353
109.118	13.978	1003.314	752.293
110.133	13.792	1002.649	750.883
111.147	13.782	1001.735	750.088
112.162	13.768	1000.497	749.034
113.176	13.817	1000.006	748.819
114.191	13.829	999.185	748.194
115.206	13.854	998.632	747.824
116.220	13.823	997.418	746.710
117.235	13.872	996.418	746.117
118.249	13.901	996.048	745.903
119.264	13.854	994.760	744.660
120.279	13.784	994.052	743.753
121.293	13.759	993.164	742.908
122.308	13.922	992.415	743.011
123.322	13.935	991.585	742.382
124.337	13.741	990.640	740.743
125.352	13.792	989.234	739.853
126.366	13.778	988.249	738.991
127.381	13.846	987.393	738.586
128.395	13.585	986.437	736.645
129.410	13.745	985.107	736.297
130.424	13.812	984.419	736.017
131.439	13.759	983.541	735.058
132.454	13.841	982.389	734.496
133.468	13.826	982.428	734.393
134.483	13.959	981.026	733.870
135.497	13.860	980.470	732.954
136.512	13.768	980.146	732.238
137.527	13.848	978.664	731.419
138.541	13.862	978.104	730.996
139.556	13.869	977.337	730.391
140.570	13.913	976.822	730.132
141.585	13.986	975.880	729.686
142.600	13.963	975.272	729.066
143.614	13.944	974.488	728.331
144.629	14.031	973.694	728.054
145.643	14.047	972.864	727.441
146.658	14.066	971.901	726.739
147.673	13.869	971.116	725.227
148.687	14.030	969.580	724.718
149.702	14.005	969.235	724.288
150.716	13.949	968.828	723.676
151.731	13.984	967.861	723.041
152.746	14.111	966.729	722.684
153.760	14.049	966.475	722.160
154.775	14.083	965.385	721.428
155.789	14.074	964.343	720.549
156.804	14.058	964.263	720.353
157.819	14.090	963.013	719.495
158.833	14.096	962.433	719.024
159.848	14.312	961.630	719.296
160.862	14.125	960.848	717.840
161.877	14.190	960.067	717.471
162.892	14.133	959.287	716.579
163.906	14.067	958.529	715.666
164.921	14.085	957.678	715.046
165.935	14.171	956.488	714.461
166.950	14.181	955.606	713.781
167.964	14.156	954.889	713.079
168.979	14.276	953.702	712.644
169.994	14.247	952.633	711.658
171.008	14.255	951.854	711.044
172.023	14.254	951.099	710.412
173.037	14.409	950.161	710.311
174.052	14.285	949.639	709.329
175.067	14.245	949.328	708.866
176.081	14.308	948.582	708.511
177.096	14.317	947.411	707.614
178.110	14.312	946.356	706.740
179.125	14.276	945.500	705.886
180.140	14.285	945.083	705.552
181.154	14.218	944.263	704.595
182.169	14.331	943.577	704.498
183.183	14.298	943.404	704.167
184.198	14.367	942.477	703.704
185.213	14.390	941.564	703.058
186.227	14.482	940.945	702.921
187.242	14.513	940.686	702.795
188.256	14.446	940.000	701.937
189.271	14.454	939.379	701.444
190.286	14.559	938.254	700.985
191.300	14.312	937.869	699.599
192.315	14.271	936.995	698.710
193.329	14.441	936.297	698.844
194.344	14.462	935.259	698.095
195.359	14.412	935.081	697.689
196.373	14.334	934.635	696.970
197.388	14.604	933.498	697.187
198.402	14.654	933.056	697.007
199.417	14.633	933.011	696.821
200.432	14.680	932.290	696.419
201.446	14.726	931.746	696.143
202.461	14.642	931.297	695.395
203.475	14.815	931.072	695.887
204.490	14.708	930.588	695.018
205.504	14.783	929.446	694.416
206.519	14.639	928.902	693.347
207.534	14.675	927.816	692.624
208.548	14.717	927.141	692.237
209.563	14.713	926.596	691.748
210.577	14.714	925.631	690.972
211.592	14.664	925.034	690.260
212.607	14.905	924.528	690.814
213.621	14.889	923.945	690.252
214.636	14.874	923.146	689.533
215.650	14.826	922.858	689.059
216.665	14.672	922.293	687.944
217.680	14.790	922.045	688.181
218.694	15.007	920.880	688.146
219.709	14.902	920.101	687.071
220.723	14.974	919.386	686.772
221.738	14.926	918.874	686.131
222.753	14.957	918.118	685.631
223.767	14.970	917.545	685.196
224.782	14.994	916.826	684.697
225.796	15.054	916.102	684.343
226.811	14.945	915.422	683.330
227.826	15.091	914.830	683.424
228.840	15.099	913.771	682.604
229.855	15.109	913.190	682.147
230.869	14.943	912.552	680.938
231.884	15.106	911.525	680.772
232.899	15.041	911.319	680.295
233.913	14.928	910.332	679.038
234.928	15.060	909.549	678.930
235.942	15.143	908.718	678.586
236.957	15.022	908.451	677.838
237.972	14.998	908.062	677.390
238.986	14.999	907.320	676.781
240.001	15.023	906.634	676.304
241.015	15.097	906.161	676.190
242.030	15.168	904.874	675.456
243.045	15.066	904.706	674.861
244.059	15.233	904.003	674.951
245.074	15.269	902.974	674.267
246.088	15.170	902.536	673.483
247.103	15.170	901.998	673.019
248.117	15.271	901.316	672.857
249.132	15.073	901.146	671.876
250.147	15.375	900.048	672.209
251.161	15.449	899.300	671.887
252.176	15.433	898.633	671.264
253.190	15.466	897.971	670.842
254.205	15.665	897.469	671.201
255.220	15.527	896.789	670.085
256.234	15.619	895.930	669.750
257.249	15.411	895.574	668.596
258.263	15.572	895.049	668.785
259.278	15.595	894.276	668.241
260.293	15.477	894.165	667.630
261.307	15.644	893.327	667.608
262.322	15.661	892.807	667.227
263.336	15.733	892.085	666.916
264.351	15.628	891.555	666.043
265.366	15.693	890.815	665.687
266.380	15.623	890.783	665.328
267.395	15.816	889.466	665.049
268.409	15.711	888.492	663.849
269.424	15.798	887.601	663.464
270.439	15.724	887.335	662.919
271.453	15.879	886.521	662.862
272.468	15.853	885.326	661.805
273.482	15.717	884.907	660.900
274.497	15.842	884.381	660.938
275.512	15.793	883.956	660.372
276.526	15.816	883.287	659.905
277.541	15.789	882.549	659.186
278.555	15.936	881.627	659.016
279.570	15.956	881.314	658.803
280.585	15.853	880.587	657.796
281.599	16.033	880.098	658.078
282.614	15.878	880.087	657.404
283.628	15.972	878.694	656.675
284.643	15.898	878.318	656.045
285.657	15.991	877.695	655.886
286.672	16.040	877.166	655.623
287.687	16.053	876.641	655.222
288.701	15.940	876.425	654.564
289.716	16.150	875.494	654.626
290.730	16.119	874.896	654.000
291.745	16.059	874.514	653.423
292.760	16.041	873.255	652.357
293.774	16.026	873.234	652.223
294.789	16.019	872.702	651.743
295.803	16.124	871.590	651.261
296.818	16.021	871.262	650.559
297.833	16.251	870.294	650.667
298.847	16.128	869.964	649.889
299.862	16.194	868.834	649.240
300.876	16.221	868.187	648.802
301.891	16.261	867.673	648.516
302.906	16.209	867.229	647.924
303.920	16.206	866.303	647.167
304.935	16.435	865.696	647.532
305.949	16.469	864.697	646.857
306.964	16.537	864.232	646.711
307.979	16.495	863.772	646.150
308.993	16.321	863.488	645.215
310.008	16.463	862.895	645.257
311.022	16.510	862.316	644.949
312.037	16.447	861.529	644.062
313.052	16.439	861.113	643.663
314.066	16.550	860.419	643.511
315.081	16.492	860.121	643.008
316.095	16.341	859.368	641.814
317.110	16.490	858.615	641.761
318.125	16.366	858.447	641.109
319.139	16.446	858.003	641.025
320.154	16.417	857.763	640.679
321.168	16.508	856.884	640.310
322.183	16.429	856.620	639.758
323.197	16.430	856.366	639.514
324.212	16.525	854.881	638.706
325.227	16.674	854.750	639.116
326.241	16.554	854.145	638.155
327.256	16.593	853.455	637.730
328.270	16.491	853.023	636.966
329.285	16.489	852.357	636.403
330.300	16.613	851.716	636.337
331.314	16.695	851.080	636.112
332.329	16.619	850.477	635.322
333.343	16.551	849.783	634.489
334.358	16.730	849.202	634.673
335.373	16.747	848.680	634.289
336.387	16.735	848.151	633.793
337.402	16.765	848.074	633.793
338.416	16.644	847.459	632.823
339.431	16.802	846.959	632.984
340.446	16.928	845.900	632.608
341.460	16.866	845.235	631.823
342.475	16.911	844.708	631.542
343.489	16.839	843.960	630.656
344.504	17.027	843.463	630.928
345.519	17.088	843.159	630.873
346.533	16.882	842.976	629.916
347.548	17.112	842.318	630.222
348.562	16.957	841.576	629.035
349.577	16.986	840.963	628.627
350.592	16.986	840.423	628.168
351.606	17.053	839.870	627.948
352.621	16.859	839.671	627.026
353.635	16.899	839.320	626.855
354.650	16.937	838.942	626.659
355.665	16.928	838.657	626.356
356.679	16.988	837.566	625.708
357.694	17.104	836.921	625.599
358.708	17.055	836.724	625.217
359.723	17.095	835.882	624.680
360.738	17.160	835.582	624.636
361.752	17.149	834.993	624.102
362.767	17.245	834.419	623.972
363.781	17.164	834.178	623.436
364.796	17.153	833.789	623.053
365.810	17.382	833.143	623.354
366.825	17.330	832.977	622.981
367.840	17.299	832.759	622.651
368.854	17.298	832.425	622.342
369.869	17.394	831.743	622.130
370.883	17.319	831.100	621.318
371.898	17.430	830.402	621.149
372.913	17.435	829.609	620.516
373.927	17.325	829.193	619.751
374.942	17.296	828.467	619.047
375.956	17.342	827.746	618.623
376.971	17.363	827.441	618.417
377.986	17.460	826.874	618.288
379.000	17.724	825.928	618.485
380.015	17.496	825.936	617.608
381.029	17.576	825.454	617.482
382.044	17.519	824.661	616.629
383.059	17.691	824.180	616.836
384.073	17.696	823.600	616.367
385.088	17.553	823.246	615.531
386.102	17.499	822.745	614.908
387.117	17.592	822.050	614.670
388.132	17.565	821.449	614.068
389.146	17.621	821.095	613.951
390.161	17.578	820.964	613.642
391.175	17.618	820.454	613.350
392.190	17.764	820.017	613.495
393.205	17.683	819.634	612.864
394.219	17.769	819.184	612.783
395.234	17.573	818.804	611.739
396.248	17.655	817.960	611.350
397.263	17.646	817.763	611.114
398.278	17.527	817.405	610.366
399.292	17.669	816.830	610.394
400.307	17.700	816.495	610.198
401.321	17.646	815.895	609.505
402.336	17.775	815.424	609.559
403.350	17.808	815.149	609.417
404.365	17.817	814.822	609.152
405.380	17.790	814.231	608.559
406.394	17.802	813.647	608.113
407.409	17.959	812.896	608.054
408.423	17.911	812.798	607.757
409.438	17.989	811.784	607.222
410.453	17.966	811.807	607.102
411.467	18.082	811.330	607.105
412.482	18.112	810.776	606.744
413.496	18.001	810.554	606.129
414.511	18.073	809.840	605.797
415.526	18.000	809.733	605.405
416.540	18.057	809.373	605.286
417.555	17.987	809.172	604.834
418.569	18.044	808.744	604.663
419.584	18.045	807.972	604.034
420.599	18.225	807.137	603.990
421.613	115.730	1300.063	1490.926
422.628	100.060	1371.837	1491.031
