DTS Sentinel unit serial number:	SN413079Multiplexer serial number:	ORYXHardware model number:	OX4-SRSoftware version number:	ORYX F/W v4.00 Oryx Data Collector v3.7.2.0data status	okinstallation	princeton_trtdifferential loss correction	single-endedforward channel	channel 3reverse channel	N/Adate	2019/09/14time	15:24:35forward acquisition time	60.00reverse acquisition time	0.00gamma	496.2192k internal	0.2293k external	0.2293temperature offset calibration	1.0058default loss term (dB/km)	0.3790temperature slope calibration	1.0000multiplexer offset coefficient	1.0000multiplexer slope coefficient	1.0000fibre end	0.00T internal ref (°C)	39.00T ext. ref 1 (°C)	5.12T ext. ref 2 (°C)	33.54length (m)	temperature (°C)	Stokes	anti-Stokes-747.200	-200.000	-0.001	0.278
-746.185	-148.205	0.244	0.021
-745.171	57.931	0.251	0.252
-744.156	98.966	0.233	0.276
-743.142	-32.294	0.086	-0.049
-742.127	-73.188	-0.160	-0.060
-741.112	-10.899	0.147	-0.099
-740.098	440.647	0.109	0.245
-739.083	-2.309	-0.092	0.066
-738.069	800.000	0.084	0.283
-737.054	207.992	0.203	0.324
-736.039	-34.661	-0.276	-0.154
-735.025	552.183	-0.079	-0.195
-734.010	-88.309	-0.448	0.137
-732.996	183.355	0.176	0.266
-731.981	-200.000	-0.031	-0.321
-730.966	27.668	0.189	-0.163
-729.952	-23.952	-0.264	0.161
-728.937	-200.000	0.044	0.460
-727.923	231.997	-0.317	0.531
-726.908	800.000	0.033	0.132
-725.894	49.709	0.059	-0.057
-724.879	-149.201	0.108	-0.009
-723.864	-52.164	-0.312	-0.148
-722.850	771.610	-0.096	-0.268
-721.835	-200.000	-0.023	-0.156
-720.821	-200.000	0.010	-0.260
-719.806	-137.828	0.179	-0.021
-718.791	800.000	0.057	-0.236
-717.777	-200.000	0.007	-0.374
-716.762	365.042	0.097	-0.199
-715.748	-200.000	0.017	-0.338
-714.733	-200.000	-0.052	-0.331
-713.718	-200.000	-0.018	-0.104
-712.704	-72.505	0.155	0.059
-711.689	276.392	-0.117	-0.212
-710.675	800.000	0.054	-0.153
-709.660	-200.000	0.019	0.165
-708.645	406.206	0.061	0.133
-707.631	-83.386	0.216	0.071
-706.616	-200.000	-0.008	-0.465
-705.602	-200.000	-0.053	0.263
-704.587	-144.140	0.088	0.008
-703.572	800.000	-0.110	0.370
-702.558	800.000	0.065	-0.206
-701.543	200.317	-0.206	-0.323
-700.529	-200.000	0.024	0.194
-699.514	-64.760	0.326	-0.135
-698.499	43.497	-0.199	0.185
-697.485	376.486	-0.127	-0.266
-696.470	-200.000	-0.029	0.182
-695.456	-120.736	0.313	-0.054
-694.441	-133.259	0.503	-0.065
-693.426	40.578	-0.312	-0.287
-692.412	40.441	0.301	-0.276
-691.397	-61.240	-0.079	-0.034
-690.383	66.014	-0.072	-0.075
-689.368	103.522	0.273	-0.327
-688.354	145.312	0.124	-0.169
-687.339	-55.842	0.267	-0.122
-686.324	-68.897	-0.088	0.035
-685.310	-200.000	0.023	-0.172
-684.295	-35.775	-0.133	-0.074
-683.281	276.244	-0.070	0.127
-682.266	3.698	0.114	0.085
-681.251	-112.155	0.128	-0.026
-680.237	190.498	-0.139	0.213
-679.222	253.458	-0.108	-0.187
-678.208	659.944	0.041	0.107
-677.193	192.845	0.219	0.337
-676.178	74.765	0.104	0.111
-675.164	667.278	-0.014	0.037
-674.149	91.934	-0.154	0.177
-673.135	-30.936	-0.302	-0.174
-672.120	-149.144	0.110	0.009
-671.105	800.000	0.020	0.078
-670.091	80.006	-0.039	0.043
-669.076	-103.711	-0.127	0.030
-668.062	0.785	-0.431	-0.315
-667.047	165.428	0.153	-0.221
-666.032	52.908	0.100	0.097
-665.018	-26.150	0.141	-0.085
-664.003	73.210	0.180	-0.192
-662.989	-94.620	0.105	0.029
-661.974	-74.872	-0.238	0.087
-660.959	-200.000	0.000	-0.176
-659.945	-200.000	-0.026	-0.166
-658.930	671.100	0.083	0.218
-657.916	21.357	0.106	-0.088
-656.901	-86.665	-0.233	0.073
-655.886	-155.738	-0.167	0.011
-654.872	-48.731	0.153	-0.075
-653.857	-200.000	0.004	0.062
-652.843	184.886	0.124	-0.188
-651.828	800.000	0.059	-0.262
-650.814	106.723	0.101	-0.122
-649.799	-74.982	-0.072	-0.026
-648.784	-186.327	0.443	0.007
-647.770	-88.785	0.051	0.015
-646.755	-80.879	0.337	-0.114
-645.741	-77.087	-0.364	-0.129
-644.726	-200.000	-0.064	0.333
-643.711	9.481	-0.046	-0.035
-642.697	53.859	-0.159	0.155
-641.682	800.000	-0.051	0.177
-640.668	9.547	0.120	0.092
-639.653	-25.804	-0.125	-0.075
-638.638	-160.924	-0.260	0.014
-637.624	120.711	-0.046	-0.058
-636.609	-148.384	0.181	-0.015
-635.595	-51.937	-0.119	-0.056
-634.580	177.142	-0.078	0.115
-633.565	800.000	0.072	-0.250
-632.551	-28.900	-0.154	0.090
-631.536	800.000	0.132	-0.428
-630.522	86.677	-0.232	0.261
-629.507	474.752	0.088	0.202
-628.492	-114.519	-0.096	-0.019
-627.478	418.459	0.052	-0.112
-626.463	52.787	-0.068	-0.066
-625.449	56.603	-0.059	0.059
-624.434	-0.653	-0.048	0.035
-623.419	51.075	-0.063	0.061
-622.405	-35.967	-0.088	-0.048
-621.390	113.541	0.100	0.123
-620.376	-3.142	0.366	-0.260
-619.361	-162.428	0.122	0.006
-618.346	617.589	-0.064	-0.164
-617.332	-3.299	0.045	-0.032
-616.317	800.000	0.060	0.199
-615.303	103.594	0.122	-0.145
-614.288	318.649	0.157	0.303
-613.273	-64.788	0.117	0.048
-612.259	15.286	0.277	0.222
-611.244	134.129	0.115	-0.152
-610.230	-37.787	0.095	-0.052
-609.215	-92.314	-0.323	-0.093
-608.201	203.074	0.156	0.245
-607.186	-128.732	0.016	0.002
-606.171	-31.689	0.087	-0.050
-605.157	144.561	-0.155	0.210
-604.142	67.848	-0.224	-0.233
-603.128	-104.334	-0.433	0.102
-602.113	800.000	0.098	0.322
-601.098	800.000	-0.101	-0.401
-600.084	-81.921	-0.052	0.017
-599.069	-23.261	-0.032	0.020
-598.055	259.043	-0.066	-0.116
-597.040	-7.418	0.089	0.061
-596.025	17.563	0.070	-0.057
-595.011	237.175	-0.136	-0.229
-593.996	-85.314	-0.305	-0.097
-592.982	800.000	0.053	-0.201
-591.967	-200.000	-0.011	0.063
-590.952	-200.000	-0.005	0.430
-589.938	-47.204	-0.143	0.071
-588.923	-200.000	-0.013	-0.072
-587.909	-153.099	0.345	0.025
-586.894	302.169	-0.040	-0.074
-585.879	-122.795	0.243	0.040
-584.865	28.613	0.249	-0.214
-583.850	85.968	-0.015	0.016
-582.836	-97.681	0.376	0.099
-581.821	194.715	-0.050	-0.077
-580.806	-200.000	-0.017	-0.262
-579.792	800.000	0.063	0.225
-578.777	800.000	0.038	-0.148
-577.763	-5.431	0.151	0.105
-576.748	-46.413	-0.372	-0.186
-575.733	-200.000	0.019	0.255
-574.719	0.854	0.255	0.186
-573.704	236.185	0.013	0.022
-572.690	-200.000	0.021	0.113
-571.675	4.051	0.106	-0.079
-570.661	197.803	-0.039	-0.061
-569.646	800.000	0.035	0.137
-568.631	260.433	-0.083	-0.147
-567.617	800.000	-0.067	-0.293
-566.602	-200.000	-0.007	-0.253
-565.588	62.531	-0.212	0.215
-564.573	-103.681	-0.270	0.064
-563.558	27.337	-0.106	0.090
-562.544	-134.657	0.331	0.041
-561.529	-48.190	0.135	-0.066
-560.515	-126.334	-0.138	-0.021
-559.500	135.020	-0.174	0.230
-558.485	-16.957	-0.283	-0.182
-557.471	327.510	-0.087	-0.169
-556.456	800.000	-0.097	-0.373
-555.442	-134.470	0.300	0.037
-554.427	-24.470	0.499	0.302
-553.412	-200.000	-0.051	-0.236
-552.398	-26.404	-0.159	-0.095
-551.383	-151.548	0.126	0.009
-550.369	-55.266	-0.183	-0.084
-549.354	-102.140	0.174	-0.042
-548.339	-41.861	-0.570	-0.297
-547.325	73.033	0.203	-0.215
-546.310	800.000	0.009	-0.030
-545.296	680.578	-0.087	-0.231
-544.281	176.462	-0.076	-0.112
-543.266	519.510	0.084	0.199
-542.252	562.650	-0.049	0.120
-541.237	-120.633	-0.131	-0.023
-540.223	-200.000	0.018	0.175
-539.208	-200.000	-0.015	0.416
-538.193	-200.000	0.002	0.394
-537.179	800.000	0.076	0.262
-536.164	14.609	0.065	0.052
-535.150	87.531	0.136	0.153
-534.135	-27.071	0.125	-0.074
-533.121	164.441	-0.201	-0.288
-532.106	800.000	0.101	0.308
-531.091	143.895	-0.145	0.196
-530.077	-47.472	-0.100	0.049
-529.062	-200.000	-0.013	0.113
-528.048	-200.000	-0.037	0.285
-527.033	-68.494	-0.157	-0.062
-526.018	800.000	0.033	-0.129
-525.004	-200.000	0.033	-0.253
-523.989	-200.000	-0.023	-0.282
-522.975	-200.000	0.011	0.074
-521.960	-142.250	0.190	-0.019
-520.945	-200.000	-0.099	-0.606
-519.931	-138.428	-0.332	0.037
-518.916	132.753	0.102	-0.133
-517.902	171.875	0.070	-0.102
-516.887	-20.483	-0.202	-0.126
-515.872	54.329	0.046	-0.045
-514.858	-120.317	0.058	0.010
-513.843	43.044	0.163	0.151
-512.829	-26.872	-0.342	-0.203
-511.814	-81.400	0.196	0.065
-510.799	-200.000	0.001	0.125
-509.785	-200.000	-0.052	0.238
-508.770	-96.075	0.032	0.009
-507.756	61.685	0.190	-0.192
-506.741	-117.213	0.129	-0.024
-505.726	-17.125	0.258	0.165
-504.712	-163.815	-0.275	0.013
-503.697	-200.000	0.015	-0.093
-502.683	800.000	-0.060	0.238
-501.668	4.736	0.335	0.250
-500.653	-86.993	-0.112	0.035
-499.639	-200.000	0.039	-0.203
-498.624	-125.691	-0.309	0.047
-497.610	-137.246	0.480	0.055
-496.595	136.790	-0.072	-0.095
-495.581	-200.000	0.009	0.101
-494.566	-197.998	0.145	0.001
-493.551	-200.000	-0.033	0.161
-492.537	-97.728	0.334	-0.088
-491.522	-1.597	-0.197	-0.141
-490.508	-136.789	0.353	-0.041
-489.493	261.669	0.190	0.334
-488.478	-200.000	0.047	-0.260
-487.464	39.134	0.121	-0.109
-486.449	-101.617	0.057	0.014
-485.435	-72.357	-0.089	0.033
-484.420	-200.000	-0.035	0.293
-483.405	53.879	-0.037	-0.036
-482.391	168.434	0.132	0.191
-481.376	800.000	-0.081	-0.326
-480.362	136.627	0.150	-0.198
-479.347	-43.137	-0.130	0.067
-478.332	-139.944	-0.183	-0.020
-477.318	-58.863	0.130	-0.057
-476.303	800.000	-0.060	0.238
-475.289	265.448	-0.213	0.375
-474.274	519.488	0.090	-0.213
-473.259	-38.909	0.188	-0.100
-472.245	324.089	-0.113	0.219
-471.230	-200.000	0.004	-0.251
-470.216	65.340	0.137	0.141
-469.201	800.000	-0.030	0.089
-468.186	-117.105	-0.320	-0.059
-467.172	800.000	0.080	-0.332
-466.157	64.817	-0.263	-0.269
-465.143	-115.650	-0.067	0.013
-464.128	-125.429	0.525	0.081
-463.113	-189.028	-0.238	0.003
-462.099	-200.000	-0.026	0.224
-461.084	800.000	-0.007	-0.023
-460.070	-200.000	-0.009	-0.042
-459.055	-200.000	0.023	-0.270
-458.040	148.802	0.206	0.281
-457.026	83.180	0.194	-0.214
-456.011	-31.680	-0.396	0.225
-454.997	652.645	-0.028	-0.073
-453.982	80.888	0.186	-0.203
-452.968	800.000	0.080	-0.226
-451.953	-111.612	-0.472	0.097
-450.938	-113.760	-0.217	0.043
-449.924	-54.333	-0.253	-0.116
-448.909	-200.000	-0.036	0.191
-447.895	-167.019	-0.108	-0.004
-446.880	-54.862	-0.135	0.061
-445.865	-200.000	0.042	0.203
-444.851	-200.000	0.000	0.047
-443.836	47.468	-0.314	0.296
-442.822	56.258	-0.198	0.194
-441.807	493.873	-0.022	0.050
-440.792	223.162	-0.079	-0.128
-439.778	-200.000	0.036	-0.261
-438.763	-8.616	-0.222	0.150
-437.749	15.875	0.307	0.244
-436.734	25.269	0.262	0.220
-435.719	-200.000	0.069	-0.445
-434.705	-19.502	0.185	0.116
-433.690	-200.000	-0.014	-0.088
-432.676	-200.000	0.012	-0.203
-431.661	-91.885	-0.122	-0.035
-430.646	-109.119	-0.214	0.046
-429.632	-32.068	-0.202	-0.114
-428.617	-198.373	0.294	-0.002
-427.603	40.300	0.103	0.094
-426.588	800.000	-0.067	0.256
-425.573	397.998	0.057	0.120
-424.559	800.000	-0.055	0.203
-423.544	197.046	-0.153	0.235
-422.530	-126.220	0.293	0.044
-421.515	-200.000	-0.000	0.013
-420.500	-75.200	-0.045	0.016
-419.486	481.535	-0.046	0.105
-418.471	-138.329	-0.018	-0.002
-417.457	-126.099	-0.315	0.048
-416.442	114.240	-0.248	-0.305
-415.428	-16.589	0.331	-0.212
-414.413	800.000	0.022	-0.067
-413.398	131.724	0.079	0.103
-412.384	-200.000	-0.036	0.180
-411.369	-65.149	0.262	0.107
-410.355	47.491	-0.230	-0.216
-409.340	18.898	-0.232	0.188
-408.325	-122.216	-0.188	-0.031
-407.311	-143.985	-0.317	0.030
-406.296	800.000	0.047	0.178
-405.282	-200.000	0.012	0.075
-404.267	365.165	-0.090	0.184
-403.252	-109.293	-0.066	0.014
-402.238	800.000	0.049	0.173
-401.223	-103.588	-0.142	-0.034
-400.209	76.696	0.190	-0.203
-399.194	419.069	0.054	-0.118
-398.179	379.335	0.094	-0.195
-397.165	-106.654	-0.224	-0.050
-396.150	-67.154	-0.200	0.079
-395.136	800.000	-0.036	-0.110
-394.121	-148.025	0.180	0.015
-393.106	-133.955	-0.255	0.032
-392.092	464.491	-0.206	-0.464
-391.077	-106.907	0.360	-0.080
-390.063	-200.000	0.047	0.244
-389.048	-200.000	0.002	0.019
-388.033	-136.559	0.288	-0.034
-387.019	-162.481	-0.155	-0.008
-386.004	254.367	-0.102	0.176
-384.990	174.613	0.193	0.282
-383.975	-200.000	-0.005	-0.065
-382.960	47.540	0.172	0.162
-381.946	-30.895	-0.216	0.123
-380.931	-152.323	-0.090	0.007
-379.917	21.106	0.212	0.174
-378.902	-200.000	-0.002	-0.039
-377.888	800.000	0.046	-0.131
-376.873	212.302	0.103	-0.164
-375.858	-200.000	-0.017	0.132
-374.844	68.006	-0.056	-0.057
-373.829	471.545	-0.067	0.152
-372.815	-200.000	0.025	-0.200
-371.800	164.870	0.086	-0.122
-370.785	800.000	0.032	0.140
-369.771	-200.000	0.003	0.103
-368.756	306.747	-0.067	-0.126
-367.742	800.000	-0.060	-0.222
-366.727	-157.810	0.198	0.012
-365.712	578.765	-0.078	-0.192
-364.698	-67.148	-0.242	0.096
-363.683	-85.544	-0.197	-0.062
-362.669	80.030	0.155	-0.168
-361.654	127.238	0.087	-0.111
-360.639	-112.990	0.141	0.028
-359.625	247.514	0.118	0.202
-358.610	-121.637	0.153	-0.026
-357.596	35.984	-0.367	-0.326
-356.581	454.231	0.185	-0.414
-355.566	-177.162	-0.210	0.005
-354.552	125.098	-0.106	0.135
-353.537	-20.766	-0.115	0.071
-352.523	610.911	0.081	-0.205
-351.508	435.260	-0.101	-0.222
-350.493	26.233	0.367	-0.309
-349.479	-130.964	-0.361	0.049
-348.464	20.046	0.207	0.169
-347.450	-200.000	-0.001	0.032
-346.435	116.418	-0.050	0.062
-345.420	-200.000	-0.033	0.152
-344.406	800.000	0.083	0.358
-343.391	-40.519	-0.120	0.063
-342.377	800.000	0.040	-0.159
-341.362	-132.683	0.308	0.040
-340.348	-87.807	-0.104	-0.031
-339.333	-200.000	0.011	-0.112
-338.318	-131.398	0.216	-0.029
-337.304	683.234	-0.064	0.169
-336.289	-53.694	-0.142	-0.065
-335.275	-110.629	0.315	-0.066
-334.260	-8.351	-0.305	0.206
-333.245	-45.403	0.193	0.096
-332.231	800.000	-0.019	0.074
-331.216	-126.400	-0.353	-0.053
-330.202	-85.531	-0.108	-0.034
-329.187	-141.344	0.036	-0.004
-328.172	-61.167	-0.331	0.140
-327.158	-200.000	-0.001	0.036
-326.143	203.477	-0.150	-0.234
-325.129	381.390	-0.030	0.061
-324.114	574.532	-0.135	0.332
-323.099	-18.976	0.243	0.152
-322.085	5.902	-0.126	-0.094
-321.070	214.481	0.055	0.088
-320.056	52.422	0.206	0.197
-319.041	-114.344	0.121	0.024
-318.026	-146.886	-0.259	0.022
-317.012	-197.467	-0.154	0.001
-315.997	167.504	0.097	-0.139
-314.983	-200.000	0.022	0.123
-313.968	-131.892	0.319	-0.042
-312.953	800.000	-0.086	-0.258
-311.939	-1.319	-0.307	0.218
-310.924	104.445	0.062	-0.073
-309.910	148.529	0.135	-0.184
-308.895	348.844	-0.075	-0.149
-307.880	-109.138	-0.187	-0.040
-306.866	-126.856	-0.398	-0.059
-305.851	-18.032	-0.168	-0.106
-304.837	218.045	0.069	-0.111
-303.822	800.000	0.029	0.110
-302.807	-63.706	-0.229	-0.095
-301.793	51.142	-0.107	0.102
-300.778	360.894	-0.167	0.337
-299.764	-121.619	0.231	-0.038
-298.749	-200.000	0.006	0.245
-297.735	117.447	0.087	0.108
-296.720	-89.559	0.136	0.040
-295.705	-127.927	0.202	-0.029
-294.691	-200.000	-0.012	0.225
-293.676	-200.000	-0.020	0.205
-292.662	304.433	-0.033	-0.061
-291.647	-31.619	-0.161	-0.091
-290.632	127.677	0.126	0.161
-289.618	-110.697	0.232	0.048
-288.603	-44.867	0.164	0.082
-287.589	56.350	-0.390	-0.381
-286.574	-148.663	0.192	0.016
-285.559	-200.000	-0.000	-0.121
-284.545	-88.232	-0.242	-0.073
-283.530	800.000	0.061	-0.201
-282.516	800.000	0.097	-0.290
-281.501	453.718	0.137	-0.305
-280.486	212.920	0.178	0.282
-279.472	-200.000	0.026	-0.400
-278.457	-200.000	-0.003	-0.404
-277.443	-200.000	0.015	-0.256
-276.428	800.000	0.099	-0.292
-275.413	24.390	0.019	-0.016
-274.399	-130.630	0.394	0.053
-273.384	218.306	-0.084	-0.135
-272.370	-39.073	-0.285	0.151
-271.355	-169.618	-0.098	-0.004
-270.340	-19.678	0.398	0.248
-269.326	-57.597	0.163	0.072
-268.311	-58.273	-0.015	-0.007
-267.297	-95.561	-0.138	0.037
-266.282	-125.131	0.074	-0.011
-265.267	-142.960	-0.288	0.028
-264.253	-4.482	-0.008	0.005
-263.238	-200.000	0.040	0.212
-262.224	-67.860	-0.238	-0.093
-261.209	800.000	-0.090	-0.371
-260.195	60.032	-0.087	0.086
-259.180	-200.000	0.050	-0.250
-258.165	-128.066	-0.393	-0.056
-257.151	125.855	-0.213	-0.270
-256.136	-159.868	-0.177	0.010
-255.122	51.275	-0.334	0.318
-254.107	510.389	-0.104	0.243
-253.092	-75.698	0.179	0.064
-252.078	-145.384	0.066	-0.006
-251.063	-77.587	0.158	0.055
-250.049	-101.864	0.262	-0.064
-249.034	183.939	0.196	-0.292
-248.019	147.045	-0.174	0.235
-247.005	592.744	0.084	0.209
-245.990	326.546	-0.215	0.412
-244.976	61.015	-0.110	-0.109
-243.961	569.075	0.167	-0.407
-242.946	176.841	-0.159	-0.233
-241.932	110.007	0.094	0.113
-240.917	-17.456	-0.131	0.083
-239.903	276.442	0.055	0.097
-238.888	-136.171	-0.274	0.032
-237.873	45.409	-0.145	-0.134
-236.859	193.075	0.115	-0.175
-235.844	800.000	0.033	0.094
-234.830	-48.281	-0.373	-0.180
-233.815	163.612	0.103	-0.145
-232.800	800.000	-0.064	-0.280
-231.786	273.100	0.040	-0.070
-230.771	610.159	0.074	-0.185
-229.757	800.000	0.081	-0.342
-228.742	-200.000	-0.023	-0.330
-227.727	-200.000	-0.041	0.240
-226.713	42.704	-0.050	0.046
-225.698	45.070	-0.110	-0.102
-224.684	-132.890	0.138	0.018
-223.669	281.751	-0.170	0.306
-222.655	-101.126	0.262	0.064
-221.640	101.391	0.106	-0.124
-220.625	-200.000	-0.048	-0.275
-219.611	11.789	0.261	-0.201
-218.596	800.000	-0.158	0.463
-217.582	-96.002	-0.221	0.059
-216.567	-200.000	0.042	0.339
-215.552	97.300	-0.061	-0.070
-214.538	-74.544	0.134	0.048
-213.523	37.562	-0.179	-0.159
-212.509	-200.000	0.022	0.266
-211.494	40.130	0.201	-0.181
-210.479	-119.629	-0.256	-0.044
-209.465	4.527	0.154	-0.113
-208.450	-200.000	-0.018	-0.223
-207.436	800.000	-0.044	0.133
-206.421	-118.760	-0.141	-0.025
-205.406	152.423	0.058	-0.079
-204.392	-172.428	-0.117	-0.004
-203.377	-94.857	0.284	0.077
-202.363	281.742	-0.070	0.125
-201.348	-200.000	0.020	-0.190
-200.333	515.695	0.118	-0.277
-199.319	-130.573	0.216	0.029
-198.304	42.216	0.261	-0.238
-197.290	19.030	0.443	-0.355
-196.275	-85.123	0.154	0.048
-195.260	-115.769	0.081	-0.015
-194.246	53.313	0.183	0.176
-193.231	-9.317	-0.181	-0.121
-192.217	-32.800	0.033	-0.019
-191.202	7.858	-0.159	0.119
-190.187	800.000	-0.015	0.046
-189.173	-111.059	-0.348	0.071
-188.158	-34.457	-0.176	-0.096
-187.144	-81.967	0.345	0.113
-186.129	-68.872	-0.125	0.048
-185.114	-168.173	0.147	-0.006
-184.100	220.610	0.182	-0.293
-183.085	-22.430	0.020	-0.012
-182.071	-81.078	0.206	0.068
-181.056	62.200	-0.169	0.169
-180.042	239.274	-0.193	0.321
-179.027	-200.000	-0.002	0.299
-178.012	-144.174	0.130	-0.012
-176.998	800.000	0.056	0.190
-175.983	-200.000	-0.024	0.319
-174.969	14.792	0.100	0.078
-173.954	91.814	-0.150	-0.169
-172.939	800.000	0.116	0.399
-171.925	-74.778	0.018	-0.007
-170.910	800.000	-0.101	0.409
-169.896	2.726	0.279	0.202
-168.881	-19.444	0.303	0.188
-167.866	59.126	0.083	-0.082
-166.852	-200.000	0.053	-0.275
-165.837	195.016	-0.017	0.025
-164.823	30.461	-0.117	0.100
-163.808	-33.781	0.198	0.109
-162.793	-178.496	-0.157	-0.004
-161.779	-200.000	0.020	-0.281
-160.764	-71.585	0.177	0.066
-159.750	359.712	0.129	0.257
-158.735	39.008	0.234	-0.209
-157.720	145.956	0.265	0.355
-156.706	290.271	-0.120	0.218
-155.691	-200.000	0.001	-0.052
-154.677	94.210	0.038	0.043
-153.662	-161.113	0.281	0.015
-152.647	-4.255	0.197	0.137
-151.633	-200.000	0.067	-0.316
-150.618	-200.000	-0.017	0.147
-149.604	-31.428	0.148	-0.083
-148.589	-200.000	0.008	-0.124
-147.574	58.203	0.129	-0.126
-146.560	-109.967	-0.260	-0.054
-145.545	-200.000	-0.050	-0.266
-144.531	-200.000	-0.050	0.259
-143.516	800.000	-0.150	0.450
-142.502	-97.672	0.075	-0.020
-141.487	-170.450	0.106	0.004
-140.472	-135.566	0.202	0.024
-139.458	-200.000	-0.009	0.085
-138.443	-150.450	-0.195	-0.015
-137.429	218.415	0.234	0.373
-136.414	-127.627	0.089	0.013
-135.399	-200.000	0.022	-0.209
-134.385	800.000	-0.091	0.282
-133.370	101.614	-0.135	-0.158
-132.356	-81.092	0.126	0.042
-131.341	-200.000	-0.071	-0.397
-130.326	-1.210	0.042	-0.029
-129.312	-200.000	0.041	0.242
-128.297	340.890	-0.086	0.168
-127.283	-20.571	-0.133	-0.082
-126.268	-200.000	-0.011	0.296
-125.253	151.072	0.191	-0.260
-124.239	-200.000	-0.007	-0.375
-123.224	180.150	0.050	-0.073
-122.210	-59.322	0.324	-0.139
-121.195	507.596	0.114	-0.263
-120.180	-108.751	0.115	0.025
-119.166	-47.312	0.094	-0.045
-118.151	-94.275	0.089	0.024
-117.137	-200.000	-0.019	0.190
-116.122	95.797	-0.203	-0.232
-115.107	-200.000	-0.029	-0.360
-114.093	-200.000	-0.027	-0.273
-113.078	-200.000	-0.028	-0.205
-112.064	800.000	0.057	-0.186
-111.049	-200.000	-0.012	-0.144
-110.034	-76.019	0.296	-0.104
-109.020	306.174	0.173	-0.321
-108.005	-200.000	-0.036	-0.207
-106.991	39.812	-0.262	-0.235
-105.976	-62.075	0.336	0.140
-104.962	800.000	0.085	0.244
-103.947	-134.702	0.302	0.037
-102.932	-81.337	0.232	-0.076
-101.918	151.266	0.131	-0.178
-100.903	-200.000	-0.012	-0.078
-99.889	-144.924	-0.217	-0.020
-98.874	153.905	-0.225	0.307
-97.859	-95.045	-0.190	0.051
-96.845	-43.128	0.251	-0.127
-95.830	180.530	-0.102	0.149
-94.816	153.174	-0.096	0.131
-93.801	32.606	-0.263	0.227
-92.786	-21.182	0.221	-0.135
-91.772	308.974	0.071	-0.132
-90.757	-166.653	-0.097	-0.004
-89.743	15.702	0.103	0.081
-88.728	800.000	0.048	-0.207
-87.713	-25.596	-0.209	-0.123
-86.699	-150.690	-0.174	-0.013
-85.684	81.013	0.058	0.062
-84.670	185.230	0.175	0.259
-83.655	193.481	-0.067	0.101
-82.640	34.503	0.087	0.076
-81.626	800.000	0.087	-0.263
-80.611	-45.170	-0.196	-0.097
-79.597	-200.000	-0.069	0.360
-78.582	-15.642	0.222	-0.141
-77.567	-131.000	0.085	-0.011
-76.553	-200.000	-0.052	0.360
-75.538	-39.016	0.294	0.154
-74.524	-200.000	-0.009	0.086
-73.509	-200.000	0.009	0.139
-72.494	-113.330	-0.193	-0.038
-71.480	-34.037	0.298	-0.163
-70.465	356.663	0.049	0.098
-69.451	32.433	0.414	0.356
-68.436	-200.000	0.001	0.367
-67.422	-20.676	-0.130	0.080
-66.407	-88.107	-0.196	-0.059
-65.392	33.056	-0.183	0.158
-64.378	-72.008	0.137	-0.051
-63.363	-75.288	-0.099	-0.035
-62.349	-200.000	-0.042	0.347
-61.334	-5.594	-0.765	-0.522
-60.319	-200.000	-0.015	0.238
-59.305	800.000	-0.247	-0.993
-58.290	224.035	0.526	0.847
-57.276	-200.000	0.104	1.546
-56.261	-200.000	82.449	499.098
-55.246	557.264	1363.241	3272.760
-54.232	183.505	2589.305	3811.549
-53.217	119.549	2255.825	2781.941
-52.203	48.790	1785.085	1667.512
-51.188	42.112	1590.149	1437.642
-50.173	39.555	1562.546	1394.562
-49.159	55.501	1604.007	1546.086
-48.144	60.152	1623.685	1598.315
-47.130	42.666	1584.502	1436.269
-46.115	39.280	1569.642	1398.722
-45.100	39.074	1566.655	1394.539
-44.086	39.183	1564.259	1393.126
-43.071	38.968	1562.578	1390.051
-42.057	38.900	1561.290	1388.367
-41.042	39.007	1559.406	1387.394
-40.027	39.006	1558.078	1386.152
-39.013	38.967	1556.369	1384.299
-37.998	38.963	1554.947	1382.952
-36.984	38.883	1553.836	1381.346
-35.969	39.072	1551.869	1380.873
-34.954	38.943	1551.314	1379.415
-33.940	38.896	1550.361	1378.188
-32.925	39.050	1547.832	1376.963
-31.911	39.037	1546.828	1375.920
-30.896	39.120	1545.113	1374.926
-29.881	39.079	1543.990	1373.583
-28.867	39.111	1542.419	1372.355
-27.852	39.087	1541.174	1371.026
-26.838	39.121	1539.484	1369.703
-25.823	39.124	1538.145	1368.478
-24.809	39.037	1536.605	1366.448
-23.794	39.074	1534.950	1365.179
-22.779	39.111	1533.384	1363.990
-21.765	39.058	1532.416	1362.708
-20.750	39.107	1531.258	1361.961
-19.736	39.070	1530.294	1360.795
-18.721	39.027	1529.310	1359.566
-17.706	38.983	1528.267	1358.285
-16.692	38.920	1526.889	1356.569
-15.677	38.993	1526.055	1356.281
-14.663	38.988	1524.945	1355.205
-13.648	38.978	1523.374	1353.688
-12.633	38.937	1522.845	1352.879
-11.619	38.942	1521.956	1352.070
-10.604	38.976	1520.819	1351.241
-9.590	38.968	1519.750	1350.183
-8.575	38.910	1519.008	1349.068
-7.560	38.874	1518.347	1348.181
-6.546	38.935	1517.184	1347.514
-5.531	38.914	1516.149	1346.398
-4.517	38.946	1515.301	1345.808
-3.502	38.890	1514.393	1344.567
-2.487	38.954	1513.042	1343.750
-1.473	39.025	1511.960	1343.224
-0.458	38.920	1511.169	1341.750
0.556	39.292	1501.083	1329.621
1.571	36.022	1471.684	1281.750
2.586	31.642	1406.332	1196.799
3.600	29.194	1319.487	1108.092
4.615	27.200	1268.613	1053.730
5.629	22.840	1210.049	980.835
6.644	13.464	1121.275	860.297
7.659	6.181	1076.721	789.581
8.673	5.217	1070.477	780.120
9.688	5.146	1068.067	777.938
10.702	5.037	1066.807	776.412
11.717	5.090	1065.198	775.435
12.731	7.645	1066.949	789.346
13.746	15.952	1079.038	839.800
14.761	21.245	1085.607	871.315
15.775	20.411	1083.042	865.028
16.790	19.156	1080.648	856.795
17.804	18.076	1078.517	849.667
18.819	17.174	1076.787	843.751
19.834	16.733	1075.229	840.268
20.848	16.395	1074.477	837.928
21.863	16.234	1073.547	836.333
22.877	15.934	1072.733	834.135
23.892	15.701	1072.080	832.402
24.907	15.694	1071.243	831.645
25.921	15.704	1070.476	831.024
26.936	15.722	1069.560	830.327
27.950	15.789	1068.358	829.655
28.965	15.742	1067.700	828.835
29.980	15.890	1066.213	828.338
30.994	15.965	1064.923	827.629
32.009	15.965	1064.375	827.132
33.023	16.108	1063.623	827.175
34.038	16.091	1062.790	826.372
35.053	15.993	1061.730	824.994
36.067	15.929	1061.063	824.091
37.082	15.791	1060.642	823.015
38.096	15.850	1059.617	822.433
39.111	15.891	1059.186	822.227
40.126	15.980	1058.077	821.726
41.140	15.916	1056.549	820.154
42.155	15.688	1055.343	818.040
43.169	15.684	1054.436	817.245
44.184	15.680	1053.376	816.328
45.199	15.600	1052.128	814.905
46.213	15.623	1051.401	814.378
47.228	15.610	1050.220	813.331
48.242	15.626	1049.581	812.842
49.257	15.812	1048.486	812.821
50.271	15.928	1047.483	812.532
51.286	15.734	1046.746	810.948
52.301	15.860	1045.769	810.726
53.315	15.810	1045.217	809.987
54.330	15.916	1043.931	809.428
55.344	15.739	1043.196	807.938
56.359	15.694	1042.194	806.875
57.374	15.671	1041.291	805.994
58.388	15.664	1040.426	805.220
59.403	15.672	1039.658	804.590
60.417	15.543	1039.077	803.452
61.432	15.646	1038.192	803.190
62.447	15.537	1037.457	802.033
63.461	15.540	1036.840	801.496
64.476	15.425	1035.880	800.137
65.490	15.437	1034.528	799.079
66.505	15.479	1033.929	798.745
67.520	15.450	1032.963	797.792
68.534	15.551	1031.872	797.357
69.549	15.574	1031.155	796.839
70.563	15.525	1030.673	796.163
71.578	15.516	1029.877	795.439
72.593	15.472	1029.007	794.484
73.607	15.318	1027.956	792.876
74.622	15.309	1027.224	792.201
75.636	15.311	1026.281	791.414
76.651	15.313	1025.948	791.093
77.666	15.447	1025.009	790.932
78.680	15.484	1023.736	790.055
79.695	15.308	1023.889	789.272
80.709	15.491	1022.882	789.286
81.724	15.574	1022.236	789.111
82.739	15.696	1021.196	788.808
83.753	15.583	1020.681	787.811
84.768	15.743	1020.208	788.125
85.782	15.776	1019.899	787.973
86.797	15.939	1018.654	787.702
87.812	15.862	1017.690	786.527
88.826	15.813	1016.993	785.691
89.841	15.812	1015.918	784.785
90.855	15.852	1015.396	784.501
91.870	15.962	1014.646	784.364
92.884	15.950	1013.838	783.612
93.899	15.871	1013.430	782.862
94.914	15.992	1012.241	782.437
95.928	16.061	1011.439	782.065
96.943	16.050	1010.964	781.580
97.957	16.049	1009.842	780.641
98.972	15.969	1009.279	779.766
99.987	15.793	1008.171	778.025
101.001	15.939	1007.825	778.363
102.016	16.024	1006.950	778.012
103.030	15.936	1005.962	776.774
104.045	15.954	1004.887	775.959
105.060	16.032	1003.773	775.387
106.074	15.896	1002.969	774.072
107.089	15.734	1001.996	772.510
108.103	15.599	1001.142	771.165
109.118	15.548	999.931	769.931
110.133	15.479	999.226	769.001
111.147	15.550	998.269	768.523
112.162	15.558	996.919	767.451
113.176	15.544	996.598	767.073
114.191	15.581	995.225	766.118
115.206	15.764	994.532	766.348
116.220	15.617	993.992	765.196
117.235	15.538	993.000	764.006
118.249	15.643	992.438	763.981
119.264	15.609	991.514	763.051
120.279	15.591	990.520	762.136
121.293	15.497	990.219	761.409
122.308	15.510	989.173	760.599
123.322	15.434	988.610	759.753
124.337	15.472	987.394	758.925
125.352	15.432	986.136	757.711
126.366	15.436	984.960	756.757
127.381	15.548	983.724	756.243
128.395	15.396	983.117	755.026
129.410	15.484	982.060	754.544
130.424	15.439	981.297	753.690
131.439	15.572	980.270	753.431
132.454	15.659	979.227	752.951
133.468	15.616	978.956	752.484
134.483	15.646	978.422	752.139
135.497	15.695	977.306	751.436
136.512	15.701	976.787	750.994
137.527	15.650	976.191	750.242
138.541	15.622	974.988	749.126
139.556	15.786	974.262	749.234
140.570	15.711	973.578	748.309
141.585	15.844	973.158	748.511
142.600	15.849	972.758	748.158
143.614	15.982	971.355	747.602
144.629	15.984	970.713	747.054
145.643	16.017	970.204	746.742
146.658	16.133	968.780	746.091
147.673	15.998	968.164	744.955
148.687	15.802	967.290	743.351
149.702	15.705	966.781	742.466
150.716	15.783	965.173	741.508
151.731	15.799	964.520	741.014
152.746	15.740	964.089	740.357
153.760	15.715	963.128	739.442
154.775	15.716	962.769	739.105
155.789	15.781	962.050	738.771
156.804	15.795	961.051	738.003
157.819	15.922	960.262	737.889
158.833	15.811	959.901	737.060
159.848	15.897	959.090	736.749
160.862	16.079	958.111	736.727
161.877	16.055	957.173	735.833
162.892	16.034	956.303	735.010
163.906	15.871	955.816	733.857
164.921	15.830	954.760	732.804
165.935	15.747	953.522	731.427
166.950	15.725	952.751	730.677
167.964	15.861	952.116	730.715
168.979	15.704	951.152	729.232
169.994	15.864	949.774	728.802
171.008	15.829	949.148	728.105
172.023	15.901	947.895	727.390
173.037	15.933	947.833	727.418
174.052	16.016	946.953	727.035
175.067	16.176	945.679	726.682
176.081	16.029	944.961	725.434
177.096	15.725	944.509	723.717
178.110	15.854	943.838	723.692
179.125	15.788	943.035	722.728
180.140	15.875	942.199	722.399
181.154	15.997	941.338	722.195
182.169	15.961	940.818	721.581
183.183	15.930	940.550	721.178
184.198	15.999	939.757	720.802
185.213	15.976	939.065	720.106
186.227	16.140	938.312	720.168
187.242	16.047	938.037	719.494
188.256	16.182	937.065	719.263
189.271	16.379	936.104	719.300
190.286	16.294	935.935	718.742
191.300	16.136	934.553	716.947
192.315	15.847	934.594	715.685
193.329	15.803	933.516	714.612
194.344	15.782	932.969	714.040
195.359	15.836	932.210	713.625
196.373	15.987	931.841	713.921
197.388	16.115	931.105	713.832
198.402	16.184	931.000	713.981
199.417	16.376	930.127	714.060
200.432	16.592	929.548	714.467
201.446	16.389	929.698	713.662
202.461	16.539	929.175	713.831
203.475	16.619	928.335	713.459
204.490	16.519	927.840	712.593
205.504	16.404	926.778	711.231
206.519	16.336	925.933	710.232
207.534	16.217	925.244	709.140
208.548	16.281	924.521	708.794
209.563	16.303	923.835	708.299
210.577	16.503	922.698	708.201
211.592	16.461	922.406	707.739
212.607	16.429	921.872	707.131
213.621	16.482	921.502	707.006
214.636	16.615	920.583	706.795
215.650	16.428	920.118	705.595
216.665	16.489	919.657	705.433
217.680	16.609	918.474	704.963
218.694	16.639	918.206	704.819
219.709	16.663	917.835	704.573
220.723	16.798	916.860	704.322
221.738	16.647	916.540	703.389
222.753	16.574	915.646	702.336
223.767	16.639	914.717	701.831
224.782	16.548	914.215	701.006
225.796	16.792	913.242	701.209
226.811	16.799	913.237	701.171
227.826	16.741	912.277	700.133
228.840	16.624	911.548	699.029
229.855	16.577	910.839	698.230
230.869	16.666	910.117	697.979
231.884	16.630	909.330	697.165
232.899	16.598	908.991	696.714
233.913	16.472	908.104	695.454
234.928	16.568	907.031	694.965
235.942	16.558	906.462	694.426
236.957	16.653	905.417	693.955
237.972	16.545	905.062	693.179
238.986	16.592	904.605	692.959
240.001	16.522	903.708	691.922
241.015	16.631	902.897	691.688
242.030	16.638	902.242	691.152
243.045	16.817	901.479	691.236
244.059	16.684	901.208	690.427
245.074	16.734	900.650	690.141
246.088	16.927	899.679	690.123
247.103	16.883	899.571	689.798
248.117	16.874	898.610	688.964
249.132	16.833	898.428	688.599
250.147	16.932	898.074	688.665
251.161	17.267	897.160	689.262
252.176	17.192	896.112	688.093
253.190	17.192	895.798	687.792
254.205	17.274	895.471	687.810
255.220	17.284	894.690	687.192
256.234	17.277	893.750	686.381
257.249	17.309	893.058	685.920
258.263	17.342	892.852	685.832
259.278	17.345	892.072	685.183
260.293	17.344	891.525	684.697
261.307	17.346	891.291	684.465
262.322	17.554	890.598	684.712
263.336	17.429	890.398	683.993
264.351	17.478	889.421	683.381
265.366	17.663	888.523	683.369
266.380	17.542	887.762	682.239
267.395	17.557	887.493	682.034
268.409	17.339	886.877	680.629
269.424	17.406	885.775	679.989
270.439	17.352	885.244	679.304
271.453	17.559	883.862	679.009
272.468	17.379	883.418	677.891
273.482	17.453	882.566	677.471
274.497	17.406	882.801	677.406
275.512	17.343	882.014	676.493
276.526	17.475	880.854	676.067
277.541	17.340	880.373	675.101
278.555	17.457	879.893	675.138
279.570	17.434	879.412	674.619
280.585	17.711	878.735	675.137
281.599	17.726	878.483	674.942
282.614	17.580	878.093	674.005
283.628	17.717	876.826	673.514
284.643	17.594	876.414	672.652
285.657	17.636	875.787	672.276
286.672	17.494	875.383	671.347
287.687	17.704	874.804	671.672
288.701	17.673	874.301	671.104
289.716	17.641	873.602	670.382
290.730	17.691	872.777	669.887
291.745	17.605	872.253	669.086
292.760	17.701	871.849	669.095
293.774	17.645	871.525	668.566
294.789	17.750	871.040	668.548
295.803	17.864	870.051	668.174
296.818	17.725	869.642	667.257
297.833	17.823	868.497	666.706
298.847	17.735	867.763	665.739
299.862	17.707	867.501	665.370
300.876	17.708	866.756	664.743
301.891	17.914	866.033	664.930
302.906	17.948	865.560	664.643
303.920	18.032	864.783	664.311
304.935	17.868	864.505	663.403
305.949	18.117	863.677	663.674
306.964	18.068	862.876	662.811
307.979	18.093	862.384	662.470
308.993	17.988	862.038	661.742
310.008	18.134	861.689	661.978
311.022	18.107	860.887	661.199
312.037	18.118	860.244	660.691
313.052	17.995	859.798	659.813
314.066	17.925	859.140	658.981
315.081	17.874	858.378	658.142
316.095	17.831	858.240	657.812
317.110	17.958	857.526	657.697
318.125	17.798	856.852	656.503
319.139	17.773	856.703	656.236
320.154	17.885	855.794	655.911
321.168	17.941	855.273	655.671
322.183	17.993	854.896	655.524
323.197	17.956	854.357	654.908
324.212	18.200	853.090	654.813
325.227	18.065	853.390	654.468
326.241	18.153	852.369	653.964
327.256	18.091	851.748	653.192
328.270	17.851	851.621	652.122
329.285	17.852	851.006	651.598
330.300	18.082	850.191	651.794
331.314	18.100	849.305	651.124
332.329	18.056	849.064	650.715
333.343	18.161	848.598	650.699
334.358	18.148	848.071	650.189
335.373	18.186	847.844	650.101
336.387	18.170	847.092	649.407
337.402	18.242	846.179	648.920
338.416	18.336	845.650	648.815
339.431	18.354	845.229	648.501
340.446	18.461	844.787	648.510
341.460	18.488	844.226	648.125
342.475	18.485	843.852	647.768
343.489	18.667	842.815	647.602
344.504	18.490	842.640	646.744
345.519	18.581	842.013	646.547
346.533	18.761	841.498	646.773
347.548	18.636	841.031	645.887
348.562	18.475	840.516	644.826
349.577	18.449	839.876	644.183
350.592	18.366	839.242	643.328
351.606	18.361	838.671	642.815
352.621	18.428	838.347	642.758
353.635	18.382	837.862	642.159
354.650	18.617	837.227	642.494
355.665	18.507	836.864	641.749
356.679	18.419	836.811	641.320
357.694	18.567	835.965	641.171
358.708	18.711	835.282	641.126
359.723	18.623	834.792	640.366
360.738	18.491	834.490	639.584
361.752	18.524	833.847	639.159
362.767	18.586	833.492	639.060
363.781	18.707	833.164	639.203
364.796	18.707	832.949	638.983
365.810	18.766	832.814	639.040
366.825	18.744	831.983	638.264
367.840	19.008	831.573	638.875
368.854	18.925	831.373	638.358
369.869	19.056	830.609	638.198
370.883	18.876	830.029	637.028
371.898	18.939	829.299	636.647
372.913	18.880	828.992	636.135
373.927	18.975	828.280	635.885
374.942	19.092	827.108	635.361
375.956	18.863	827.261	634.576
376.971	18.963	826.423	634.246
377.986	19.074	825.848	634.159
379.000	19.057	825.471	633.749
380.015	19.267	825.029	634.129
381.029	19.145	824.395	633.133
382.044	19.062	824.056	632.514
383.059	19.285	822.873	632.368
384.073	19.205	822.625	631.829
385.088	19.143	822.061	631.112
386.102	19.135	821.272	630.421
387.117	19.044	820.846	629.706
388.132	18.924	820.345	628.825
389.146	19.116	820.034	629.233
390.161	19.052	819.923	628.859
391.175	19.200	819.323	628.884
392.190	19.224	819.127	628.766
393.205	19.139	818.429	627.863
394.219	19.195	817.778	627.513
395.234	19.166	817.265	626.960
396.248	19.254	816.537	626.666
397.263	18.982	816.307	625.445
398.278	19.004	815.515	624.859
399.292	18.905	815.400	624.359
400.307	18.981	815.117	624.362
401.321	18.959	814.827	624.005
402.336	18.997	814.209	623.614
403.350	19.112	813.943	623.773
404.365	19.232	813.497	623.810
405.380	19.390	812.639	623.668
406.394	19.495	811.990	623.496
407.409	19.278	812.388	622.962
408.423	19.406	811.992	623.064
409.438	19.472	811.615	622.958
410.453	19.682	810.674	622.938
411.467	19.661	810.114	622.374
412.482	19.502	810.131	621.762
413.496	19.595	809.520	621.572
414.511	19.682	809.189	621.575
415.526	19.637	808.915	621.148
416.540	19.604	808.702	620.810
417.555	19.516	807.985	619.889
418.569	19.723	807.149	619.937
419.584	19.563	806.906	619.122
420.599	19.729	806.714	619.516
421.613	150.109	1363.177	1764.029
422.628	130.281	1444.251	1764.142
