DTS Sentinel unit serial number:	SN413079Multiplexer serial number:	ORYXHardware model number:	OX4-SRSoftware version number:	ORYX F/W v4.00 Oryx Data Collector v3.7.2.0data status	okinstallation	princeton_trtdifferential loss correction	single-endedforward channel	channel 3reverse channel	N/Adate	2019/09/13time	09:04:35forward acquisition time	60.00reverse acquisition time	0.00gamma	496.2192k internal	0.2327k external	0.2327temperature offset calibration	1.0139default loss term (dB/km)	0.3790temperature slope calibration	1.0000multiplexer offset coefficient	1.0000multiplexer slope coefficient	1.0000fibre end	0.00T internal ref (°C)	28.56T ext. ref 1 (°C)	4.38T ext. ref 2 (°C)	26.00length (m)	temperature (°C)	Stokes	anti-Stokes-747.200	84.197	-0.103	0.113
-746.185	-101.778	-0.224	0.055
-745.171	174.502	0.089	-0.130
-744.156	-116.788	-0.428	-0.079
-743.142	42.031	0.209	0.191
-742.127	72.729	-0.096	0.101
-741.112	80.888	-0.216	-0.235
-740.098	73.533	-0.118	-0.124
-739.083	-49.128	-0.301	-0.145
-738.069	-195.081	0.026	0.000
-737.054	4.755	-0.122	0.090
-736.039	800.000	0.074	0.228
-735.025	183.010	0.242	0.360
-734.010	0.173	-0.290	-0.208
-732.996	-200.000	-0.037	-0.383
-731.981	800.000	-0.044	-0.133
-730.966	-200.000	0.107	0.520
-729.952	154.268	-0.208	-0.287
-728.937	-7.735	0.177	-0.120
-727.923	800.000	0.040	-0.158
-726.908	800.000	-0.055	-0.227
-725.894	-59.142	0.293	0.127
-724.879	-154.011	-0.121	0.008
-723.864	-1.708	-0.136	-0.097
-722.850	30.999	-0.183	0.158
-721.835	-46.024	-0.235	0.117
-720.821	52.299	0.176	0.170
-719.806	-105.748	-0.083	-0.019
-718.791	-40.830	0.042	-0.022
-717.777	-32.879	0.112	-0.063
-716.762	-72.522	-0.395	-0.147
-715.748	106.021	0.161	-0.192
-714.733	131.788	-0.096	0.125
-713.718	468.928	0.144	0.326
-712.704	324.863	0.251	-0.482
-711.689	313.930	-0.039	0.074
-710.675	136.854	0.094	0.124
-709.660	74.090	0.091	0.096
-708.645	-77.171	0.235	0.082
-707.631	-174.942	-0.067	-0.002
-706.616	241.218	-0.214	0.359
-705.602	-50.187	-0.136	-0.065
-704.587	-200.000	-0.031	-0.245
-703.572	-81.272	0.113	-0.038
-702.558	-14.493	-0.226	-0.147
-701.543	19.720	-0.263	-0.213
-700.529	-39.804	0.139	0.073
-699.514	800.000	-0.113	-0.325
-698.499	324.863	0.233	-0.449
-697.485	-40.120	-0.196	0.103
-696.470	146.557	-0.144	0.194
-695.456	-133.908	-0.088	-0.011
-694.441	-80.405	0.276	0.093
-693.426	418.840	0.019	0.040
-692.412	446.699	-0.055	-0.121
-691.397	307.707	0.094	0.177
-690.383	-142.102	-0.135	-0.013
-689.368	-44.266	0.251	-0.127
-688.354	-90.040	-0.309	0.091
-687.339	104.324	-0.043	0.051
-686.324	-9.129	-0.044	0.030
-685.310	1.606	0.098	-0.071
-684.295	8.727	0.077	-0.058
-683.281	-102.915	-0.224	-0.054
-682.266	-200.000	0.001	-0.427
-681.251	-23.612	0.020	0.012
-680.237	9.510	-0.248	0.189
-679.222	-200.000	-0.029	-0.162
-678.208	206.382	0.116	0.181
-677.193	22.742	0.032	0.026
-676.178	-8.526	-0.250	-0.169
-675.164	18.698	-0.119	0.096
-674.149	-200.000	0.027	0.171
-673.135	178.448	-0.101	-0.148
-672.120	217.593	-0.183	-0.294
-671.105	-115.279	0.203	0.039
-670.091	148.181	-0.114	0.155
-669.076	-101.199	0.062	-0.015
-668.062	42.025	-0.155	-0.141
-667.047	648.092	-0.073	0.188
-666.032	676.296	-0.049	-0.127
-665.018	-187.996	0.122	-0.002
-664.003	-165.667	-0.266	-0.012
-662.989	-200.000	-0.003	-0.311
-661.974	800.000	-0.052	-0.179
-660.959	210.787	-0.065	0.102
-659.945	-113.242	-0.195	0.039
-658.930	-94.297	0.313	-0.086
-657.916	800.000	-0.035	-0.118
-656.901	-200.000	-0.010	-0.506
-655.886	130.257	0.125	-0.161
-654.872	-135.466	-0.049	0.006
-653.857	-64.319	0.169	-0.069
-652.843	800.000	-0.025	-0.070
-651.828	-1.122	-0.170	0.121
-650.814	-75.642	0.222	-0.079
-649.799	-82.025	0.108	0.035
-648.784	153.140	-0.081	0.112
-647.770	800.000	-0.169	0.497
-646.755	213.083	-0.045	0.071
-645.741	-44.491	-0.363	0.182
-644.726	170.869	-0.233	-0.335
-643.711	-20.187	0.172	-0.107
-642.697	7.296	0.331	-0.248
-641.682	800.000	-0.097	-0.342
-640.668	2.974	0.210	-0.153
-639.653	-67.651	-0.103	0.041
-638.638	-156.852	-0.237	-0.015
-637.624	210.996	-0.084	-0.132
-636.609	800.000	0.091	0.284
-635.595	122.170	-0.193	-0.242
-634.580	800.000	-0.075	-0.303
-633.565	165.711	-0.126	-0.179
-632.551	-61.370	-0.251	-0.106
-631.536	242.090	0.042	-0.070
-630.522	486.062	-0.010	-0.023
-629.507	23.751	-0.325	-0.269
-628.492	-103.237	-0.374	-0.089
-627.478	-63.930	0.272	0.112
-626.463	-109.346	-0.295	0.063
-625.449	186.037	-0.115	0.172
-624.434	-200.000	0.009	-0.121
-623.419	103.937	0.128	-0.151
-622.405	-200.000	0.104	0.000
-621.390	-38.366	0.110	-0.058
-620.376	-46.775	-0.159	-0.078
-619.361	-200.000	0.037	0.310
-618.346	96.814	0.150	-0.172
-617.332	-168.182	-0.454	0.018
-616.317	-108.010	0.255	-0.055
-615.303	-200.000	-0.010	-0.144
-614.288	800.000	0.055	-0.185
-613.273	-71.056	-0.122	0.046
-612.259	43.181	-0.259	0.237
-611.244	-73.705	-0.259	-0.095
-610.230	766.708	-0.069	-0.188
-609.215	21.316	0.288	-0.234
-608.201	86.849	-0.227	-0.251
-607.186	84.402	0.126	-0.138
-606.171	-90.326	0.279	0.081
-605.157	-200.000	0.006	0.041
-604.142	800.000	-0.029	0.098
-603.128	120.932	-0.155	0.194
-602.113	-200.000	0.005	-0.188
-601.098	-33.740	-0.301	-0.166
-600.084	-200.000	-0.026	-0.223
-599.069	800.000	0.062	-0.239
-598.055	97.298	0.439	-0.505
-597.040	-81.356	0.085	-0.028
-596.025	6.409	0.107	-0.080
-595.011	-52.779	-0.063	0.029
-593.996	-15.494	0.080	-0.051
-592.982	-147.107	-0.303	-0.026
-591.967	-135.607	0.330	-0.039
-590.952	-117.301	0.259	-0.047
-589.938	-200.000	0.002	0.250
-588.923	-200.000	0.024	0.344
-587.909	-58.793	-0.058	0.025
-586.894	-37.602	-0.060	-0.032
-585.879	-35.005	-0.324	-0.177
-584.865	-5.256	-0.080	0.055
-583.850	751.333	-0.113	-0.306
-582.836	-65.733	-0.087	0.035
-581.821	212.711	-0.180	-0.284
-580.806	-108.863	-0.181	0.039
-579.792	132.900	-0.138	-0.179
-578.777	-74.542	-0.156	0.056
-577.763	255.838	0.053	-0.092
-576.748	211.009	0.206	-0.324
-575.733	-35.783	0.216	-0.117
-574.719	-49.786	-0.361	0.172
-573.704	4.875	-0.380	0.280
-572.690	47.065	-0.153	-0.143
-571.675	-200.000	0.052	0.284
-570.661	800.000	0.094	0.297
-569.646	-200.000	0.030	-0.342
-568.631	-200.000	-0.022	-0.240
-567.617	-200.000	-0.043	-0.207
-566.602	246.458	0.063	-0.106
-565.588	-74.213	0.147	-0.053
-564.573	-109.266	-0.173	-0.037
-563.558	39.551	-0.259	0.233
-562.544	272.044	0.161	-0.284
-561.529	716.809	0.053	0.142
-560.515	-200.000	-0.018	-0.098
-559.500	-69.921	-0.107	0.041
-558.485	-56.457	-0.205	0.091
-557.471	253.382	0.125	0.214
-556.456	-106.216	-0.123	-0.028
-555.442	28.497	0.154	-0.130
-554.427	495.723	-0.130	-0.299
-553.412	-111.127	-0.230	0.047
-552.398	-50.282	-0.235	0.111
-551.383	114.983	-0.079	0.097
-550.369	-200.000	-0.019	0.251
-549.354	38.795	0.159	0.142
-548.339	-71.284	-0.084	-0.032
-547.325	-60.550	0.153	-0.065
-546.310	800.000	-0.071	-0.294
-545.296	-107.558	0.366	0.080
-544.281	440.083	-0.090	-0.197
-543.266	-26.499	-0.104	-0.061
-542.252	77.485	-0.137	-0.146
-541.237	206.144	0.067	0.105
-540.223	-200.000	0.011	-0.269
-539.208	-183.218	-0.267	-0.005
-538.193	-53.533	-0.144	-0.066
-537.179	14.514	-0.163	0.127
-536.164	198.317	-0.165	-0.252
-535.150	-200.000	0.018	0.149
-534.135	252.872	-0.133	0.227
-533.121	-6.224	0.126	0.086
-532.106	66.121	0.182	-0.185
-531.091	-150.414	-0.229	-0.018
-530.077	-89.713	-0.323	0.095
-529.062	-123.796	0.238	0.038
-528.048	61.404	0.192	-0.191
-527.033	546.066	-0.069	-0.165
-526.018	67.478	-0.055	-0.056
-525.004	-200.000	0.013	0.057
-523.989	-200.000	-0.029	0.187
-522.975	8.285	0.129	-0.097
-521.960	-53.518	0.110	0.050
-520.945	800.000	0.070	0.261
-519.931	800.000	-0.022	-0.088
-518.916	435.914	-0.032	-0.070
-517.902	13.287	0.123	0.096
-516.887	76.406	-0.096	0.101
-515.872	-167.668	-0.187	-0.007
-514.858	555.719	-0.035	0.083
-513.843	78.686	0.100	-0.107
-512.829	15.511	-0.261	0.205
-511.814	-200.000	0.011	0.335
-510.799	800.000	0.020	-0.080
-509.785	-200.000	-0.024	0.239
-508.770	385.759	-0.091	-0.188
-507.756	-102.701	-0.160	0.038
-506.741	122.418	0.100	-0.125
-505.726	800.000	-0.038	-0.122
-504.712	176.307	-0.112	-0.163
-503.697	-200.000	-0.018	0.249
-502.683	194.333	-0.047	-0.071
-501.668	-119.534	-0.275	0.048
-500.653	800.000	-0.107	-0.404
-499.639	29.022	0.097	0.082
-498.624	757.656	0.174	0.471
-497.610	-6.476	0.032	0.022
-496.595	473.918	-0.165	-0.373
-495.581	-200.000	-0.335	0.000
-494.566	-68.841	-0.248	0.096
-493.551	-92.744	0.431	-0.121
-492.537	-131.854	-0.089	-0.012
-491.522	236.437	0.131	-0.216
-490.508	448.148	-0.089	0.196
-489.493	47.399	0.139	0.130
-488.478	-72.790	-0.344	0.126
-487.464	154.734	0.082	0.113
-486.449	136.922	0.151	0.197
-485.435	-34.154	-0.210	0.115
-484.420	-200.000	0.015	-0.110
-483.405	379.944	-0.053	0.109
-482.391	-200.000	-0.033	-0.242
-481.376	325.168	-0.036	0.069
-480.362	800.000	-0.119	0.479
-479.347	-59.558	-0.190	0.081
-478.332	211.865	0.045	0.070
-477.318	-55.026	0.205	0.092
-476.303	399.697	0.055	-0.114
-475.289	-51.748	-0.284	-0.132
-474.274	-128.935	0.189	-0.027
-473.259	127.578	-0.120	0.153
-472.245	-200.000	-0.068	0.314
-471.230	-200.000	-0.040	-0.236
-470.216	2.936	0.010	-0.007
-469.201	-200.000	-0.197	-0.000
-468.186	275.547	-0.080	-0.141
-467.172	-78.696	0.238	-0.081
-466.157	-46.370	-0.043	0.021
-465.143	46.449	-0.203	-0.188
-464.128	34.876	0.163	0.143
-463.113	82.920	-0.119	0.129
-462.099	38.886	0.177	-0.157
-461.084	36.956	0.089	-0.079
-460.070	-200.000	-0.011	-0.062
-459.055	-79.858	0.351	-0.118
-458.040	79.280	-0.052	0.055
-457.026	-166.357	-0.403	-0.017
-456.011	800.000	0.064	0.187
-454.997	-67.153	-0.182	-0.071
-453.982	-151.756	0.431	-0.032
-452.968	-200.000	-0.017	-0.174
-451.953	-200.000	0.029	-0.130
-450.938	72.010	0.168	-0.175
-449.924	-80.150	0.299	-0.100
-448.909	-118.748	-0.261	-0.046
-447.895	-103.149	-0.412	-0.097
-446.880	-81.121	-0.079	0.026
-445.865	-98.148	-0.184	-0.047
-444.851	-16.554	0.203	0.128
-443.836	633.057	-0.023	-0.059
-442.822	-200.000	-0.005	-0.265
-441.807	9.036	-0.293	0.220
-440.792	800.000	0.096	0.399
-439.778	10.092	0.040	0.031
-438.763	-200.000	-0.014	0.344
-437.749	-19.656	-0.173	-0.107
-436.734	-10.143	-0.298	0.197
-435.719	-161.929	-0.031	0.002
-434.705	194.736	0.156	-0.235
-433.690	-30.760	0.307	-0.173
-432.676	-200.000	-0.004	-0.317
-431.661	-62.614	0.329	0.136
-430.646	-138.169	-0.225	0.025
-429.632	96.555	0.076	-0.087
-428.617	-200.000	0.044	-0.225
-427.603	25.866	0.120	-0.100
-426.588	-200.000	0.011	-0.123
-425.573	7.449	0.053	-0.039
-424.559	-77.820	0.103	-0.035
-423.544	354.719	0.054	-0.106
-422.530	-200.000	-0.010	-0.190
-421.515	-200.000	-0.016	0.280
-420.500	145.273	0.182	-0.242
-419.486	116.444	0.049	-0.060
-418.471	-116.159	0.181	-0.034
-417.457	-200.000	0.011	0.142
-416.442	-200.000	0.007	0.072
-415.428	60.364	-0.140	0.138
-414.413	-200.000	-0.012	0.134
-413.398	326.496	0.175	-0.334
-412.384	-14.981	0.214	-0.136
-411.369	800.000	-0.031	0.104
-410.355	578.212	0.086	-0.208
-409.340	-60.990	0.176	0.074
-408.325	800.000	-0.047	-0.189
-407.311	39.679	0.224	0.200
-406.296	-123.618	0.223	-0.035
-405.282	336.687	-0.018	-0.035
-404.267	-200.000	0.040	0.179
-403.252	69.194	0.082	0.084
-402.238	213.861	0.053	0.083
-401.223	35.370	0.070	-0.061
-400.209	-200.000	0.001	0.283
-399.194	356.117	-0.088	-0.175
-398.179	800.000	-0.074	-0.214
-397.165	800.000	0.124	0.374
-396.150	-200.000	0.058	0.294
-395.136	14.361	0.243	0.189
-394.121	43.269	0.168	-0.152
-393.106	-67.198	-0.181	0.071
-392.092	22.171	0.528	0.429
-391.077	18.573	0.102	0.081
-390.063	-200.000	0.016	-0.163
-389.048	365.453	-0.020	0.039
-388.033	-200.000	-0.031	0.320
-387.019	101.821	0.087	-0.101
-386.004	226.335	0.073	-0.117
-384.990	148.175	0.143	0.192
-383.975	-62.176	-0.134	0.056
-382.960	135.513	-0.141	0.182
-381.946	-63.177	0.042	0.017
-380.931	-55.681	-0.394	0.175
-379.917	-91.237	0.137	0.039
-378.902	558.088	-0.098	-0.236
-377.888	-39.935	0.181	0.094
-376.873	3.212	0.111	0.080
-375.858	-75.362	-0.225	-0.080
-374.844	-6.351	-0.325	0.220
-373.829	-101.999	0.258	-0.062
-372.815	-39.598	0.429	-0.223
-371.800	26.547	0.356	0.296
-370.785	-113.890	-0.307	0.059
-369.771	-140.281	0.177	-0.018
-368.756	163.941	-0.125	0.174
-367.742	414.648	-0.050	-0.106
-366.727	145.127	0.062	-0.082
-365.712	-79.408	-0.222	-0.075
-364.698	-112.146	0.232	0.046
-363.683	60.555	0.116	0.114
-362.669	-96.206	-0.261	-0.069
-361.654	114.999	-0.132	0.160
-360.639	800.000	0.036	0.108
-359.625	96.461	-0.148	-0.169
-358.610	800.000	-0.027	-0.077
-357.596	-120.421	0.108	-0.018
-356.581	695.094	0.065	-0.170
-355.566	-13.921	-0.230	0.148
-354.552	463.791	-0.055	-0.121
-353.537	788.402	-0.043	0.117
-352.523	393.699	-0.047	0.098
-351.508	650.172	-0.146	0.372
-350.493	-147.232	0.310	-0.026
-349.479	-121.594	-0.134	-0.022
-348.464	-76.669	0.277	-0.096
-347.450	-200.000	-0.025	-0.185
-346.435	118.567	-0.155	-0.191
-345.420	-57.829	-0.256	0.111
-344.406	-123.920	-0.374	-0.058
-343.391	-200.000	-0.034	0.314
-342.377	387.036	-0.144	0.295
-341.362	-63.785	0.326	0.132
-340.348	-200.000	0.016	-0.203
-339.333	-3.983	-0.145	-0.100
-338.318	-200.000	-0.011	-0.241
-337.304	-104.183	0.236	-0.054
-336.289	-134.193	0.176	0.022
-335.275	45.194	0.081	-0.075
-334.260	-135.226	0.160	-0.019
-333.245	-79.900	0.215	0.072
-332.231	-200.000	0.042	0.191
-331.216	-19.648	-0.153	-0.094
-330.202	-66.456	-0.283	-0.112
-329.187	482.425	-0.059	0.134
-328.172	800.000	0.071	-0.195
-327.158	185.022	0.162	-0.239
-326.143	658.687	-0.046	0.118
-325.129	-200.000	0.043	-0.227
-324.114	101.440	0.099	-0.115
-323.099	-72.017	0.434	-0.160
-322.085	571.760	0.088	0.212
-321.070	-200.000	0.049	-0.253
-320.056	800.000	0.042	0.169
-319.041	-90.078	-0.141	-0.041
-318.026	-200.000	0.027	0.177
-317.012	-108.210	0.139	-0.030
-315.997	-200.000	0.067	0.481
-314.983	189.803	-0.075	0.112
-313.968	59.153	-0.300	-0.293
-312.953	-27.452	0.234	-0.135
-311.939	122.231	0.149	-0.184
-310.924	800.000	-0.016	0.059
-309.910	-101.530	-0.129	0.031
-308.895	533.586	-0.011	-0.026
-307.880	414.169	-0.069	-0.145
-306.866	-15.686	0.180	0.114
-305.851	17.950	0.083	-0.066
-304.837	-200.000	0.023	-0.261
-303.822	37.926	0.247	-0.217
-302.807	-200.000	-0.011	-0.054
-301.793	49.374	0.149	-0.139
-300.778	307.730	-0.189	-0.350
-299.764	-156.942	-0.114	-0.007
-298.749	23.296	0.258	0.210
-297.735	-162.337	0.315	-0.016
-296.720	-53.789	-0.177	0.080
-295.705	800.000	-0.108	-0.378
-294.691	800.000	0.111	0.348
-293.676	166.484	-0.107	0.151
-292.662	-104.567	0.183	0.042
-291.647	764.420	0.008	-0.021
-290.632	496.620	-0.086	-0.195
-289.618	800.000	0.140	-0.392
-288.603	-200.000	0.032	0.302
-287.589	-187.776	-0.484	0.006
-286.574	800.000	0.054	0.217
-285.559	-34.449	-0.179	0.097
-284.545	28.388	-0.047	0.039
-283.530	-103.964	0.344	0.079
-282.516	-123.708	0.289	-0.045
-281.501	99.073	-0.158	-0.181
-280.486	-200.000	-0.015	0.273
-279.472	-154.853	-0.244	0.016
-278.457	574.938	0.101	0.245
-277.443	-109.232	-0.135	0.028
-276.428	-104.590	0.305	-0.070
-275.413	170.798	-0.009	0.013
-274.399	800.000	-0.040	0.151
-273.384	-51.529	0.096	0.044
-272.370	57.449	-0.220	0.213
-271.355	-34.865	-0.238	-0.129
-270.340	66.298	0.068	0.069
-269.326	339.893	0.073	-0.141
-268.311	64.531	-0.332	-0.331
-267.297	264.158	0.187	0.322
-266.282	380.115	0.040	0.082
-265.267	-97.422	0.283	0.073
-264.253	800.000	-0.116	0.396
-263.238	21.690	0.189	0.152
-262.224	-196.231	-0.284	0.002
-261.209	-56.855	0.244	-0.107
-260.195	-71.053	-0.084	0.031
-259.180	5.114	-0.248	0.181
-258.165	-30.532	0.064	-0.036
-257.151	381.390	-0.074	0.150
-256.136	15.125	-0.095	0.074
-255.122	-200.000	0.032	0.157
-254.107	637.964	0.143	0.359
-253.092	-59.945	-0.287	-0.122
-252.078	800.000	0.069	-0.223
-251.063	-200.000	-0.026	0.395
-250.049	-113.385	0.121	-0.023
-249.034	599.088	0.125	0.307
-248.019	-89.716	0.252	0.073
-247.005	163.340	0.097	-0.135
-245.990	243.913	-0.117	-0.194
-244.976	-121.368	0.110	0.018
-243.961	287.346	-0.067	0.121
-242.946	-63.766	-0.369	-0.149
-241.932	-200.000	0.033	0.271
-240.917	-200.000	-0.020	-0.100
-239.903	-200.000	0.009	-0.135
-238.888	107.126	0.180	0.211
-237.873	-125.025	0.288	-0.044
-236.859	-93.396	0.263	0.072
-235.844	55.342	-0.181	-0.173
-234.830	-23.327	0.109	-0.065
-233.815	-200.000	-0.045	0.197
-232.800	-21.293	0.049	0.029
-231.786	-111.684	0.391	0.078
-230.771	316.354	-0.206	0.384
-229.757	273.072	0.052	0.091
-228.742	-85.876	-0.171	-0.052
-227.727	-106.803	-0.121	0.026
-226.713	-164.750	0.589	-0.026
-225.698	538.848	0.067	-0.157
-224.684	-73.967	0.324	0.116
-223.669	-0.985	0.247	0.173
-222.655	-200.000	-0.004	0.139
-221.640	-125.952	0.414	0.062
-220.625	153.030	-0.062	-0.084
-219.611	294.937	0.036	-0.066
-218.596	-200.000	-0.029	0.144
-217.582	278.634	-0.100	-0.177
-216.567	-136.037	-0.251	0.029
-215.552	-200.000	-0.009	0.182
-214.538	800.000	-0.023	-0.062
-213.523	-200.000	-0.065	0.440
-212.509	-26.218	0.247	-0.143
-211.494	-200.000	-0.013	-0.081
-210.479	-92.100	0.202	0.056
-209.465	-51.388	0.292	-0.135
-208.450	694.738	-0.088	-0.228
-207.436	94.852	-0.154	0.173
-206.421	-57.251	-0.062	0.027
-205.406	325.456	0.100	-0.189
-204.392	186.991	0.145	0.213
-203.377	-68.340	0.158	0.061
-202.363	-106.460	-0.153	-0.034
-201.348	-82.678	-0.225	-0.072
-200.333	-90.341	0.308	0.088
-199.319	178.781	-0.186	-0.268
-198.304	-112.976	-0.537	0.105
-197.290	-75.010	0.264	-0.093
-196.275	-200.000	0.227	0.000
-195.260	-183.666	0.027	0.000
-194.246	-135.564	-0.154	-0.018
-193.231	800.000	-0.017	0.052
-192.217	-200.000	0.051	-0.235
-191.202	-94.936	0.396	0.106
-190.187	69.624	-0.110	-0.112
-189.173	-200.000	0.021	-0.338
-188.158	-200.000	-0.005	-0.051
-187.144	15.364	-0.119	0.092
-186.129	-88.609	-0.097	0.028
-185.114	236.004	-0.119	0.193
-184.100	-123.823	-0.139	0.022
-183.085	-47.517	-0.269	0.129
-182.071	-200.000	-0.032	0.226
-181.056	-23.440	-0.382	-0.226
-180.042	-200.000	0.051	-0.306
-179.027	-200.000	-0.025	0.290
-178.012	12.669	0.110	0.084
-176.998	-51.931	0.318	0.146
-175.983	-192.186	0.226	0.002
-174.969	110.946	0.040	0.048
-173.954	231.185	-0.070	0.114
-172.939	-200.000	0.054	0.248
-171.925	622.379	0.104	0.259
-170.910	800.000	0.037	0.136
-169.896	-125.150	-0.169	0.026
-168.881	52.146	-0.055	0.051
-167.866	-93.613	-0.077	-0.021
-166.852	-64.455	0.234	-0.094
-165.837	35.828	-0.261	0.226
-164.823	-81.136	0.188	0.061
-163.808	271.161	0.193	-0.335
-162.793	48.195	0.163	-0.150
-161.779	-57.873	0.153	-0.066
-160.764	62.866	0.191	-0.188
-159.750	800.000	-0.051	0.171
-158.735	-129.813	0.183	0.025
-157.720	213.580	0.104	0.162
-156.706	-40.182	-0.332	-0.170
-155.691	375.866	0.019	0.039
-154.677	18.910	0.189	-0.149
-153.662	546.210	-0.102	0.241
-152.647	-200.000	-0.033	-0.159
-151.633	124.385	-0.046	-0.057
-150.618	66.229	-0.270	-0.270
-149.604	-200.000	-0.068	-0.415
-148.589	218.890	-0.090	-0.141
-147.574	-200.000	0.007	-0.093
-146.560	-29.308	-0.053	0.030
-145.545	157.831	0.057	-0.077
-144.531	-79.745	0.060	-0.020
-143.516	800.000	-0.139	-0.494
-142.502	28.404	-0.084	0.070
-141.487	-200.000	0.008	-0.099
-140.472	110.281	0.130	0.154
-139.458	102.699	0.090	0.104
-138.443	-104.541	-0.135	0.031
-137.429	-18.075	0.057	0.035
-136.414	231.617	-0.259	-0.418
-135.399	-42.524	0.209	-0.105
-134.385	145.788	0.034	0.044
-133.370	-38.209	0.133	0.069
-132.356	800.000	-0.056	-0.192
-131.341	-95.218	0.255	0.068
-130.326	70.127	0.141	0.143
-129.312	66.884	-0.141	-0.141
-128.297	-200.000	0.055	-0.467
-127.283	800.000	-0.108	-0.380
-126.268	-134.731	0.150	-0.018
-125.253	-104.392	-0.287	0.065
-124.239	68.379	-0.167	-0.168
-123.224	575.531	0.172	-0.414
-122.210	-129.896	-0.298	0.040
-121.195	119.329	0.081	-0.098
-120.180	-200.000	-0.007	-0.335
-119.166	-200.000	-0.029	0.241
-118.151	-200.000	0.053	-0.326
-117.137	-200.000	-0.032	0.163
-116.122	203.046	-0.017	-0.026
-115.107	-119.403	0.378	-0.065
-114.093	-2.232	0.139	-0.096
-113.078	800.000	0.023	-0.095
-112.064	-55.699	-0.488	-0.215
-111.049	-82.957	0.198	0.063
-110.034	-200.000	-0.009	0.252
-109.020	256.886	-0.177	0.299
-108.005	677.293	-0.032	0.082
-106.991	119.288	-0.049	0.060
-105.976	-82.499	0.267	0.085
-104.962	-132.817	-0.098	-0.012
-103.947	55.954	-0.043	0.041
-102.932	474.379	0.025	-0.055
-101.918	-200.000	-0.004	0.222
-100.903	-44.011	-0.360	0.178
-99.889	800.000	-0.068	0.194
-98.874	-170.140	0.249	0.009
-97.859	-116.429	0.158	-0.029
-96.845	800.000	-0.064	-0.184
-95.830	253.563	0.078	-0.131
-94.816	-98.258	0.176	-0.044
-93.801	128.903	0.188	0.235
-92.786	-103.248	0.249	-0.058
-91.772	64.288	-0.021	-0.020
-90.757	800.000	-0.076	-0.267
-89.743	-200.000	-0.019	-0.326
-88.728	-109.608	-0.144	-0.030
-87.713	15.208	-0.170	-0.131
-86.699	-96.755	0.145	0.037
-85.684	-50.028	0.252	0.118
-84.670	-48.601	-0.309	-0.146
-83.655	-116.286	0.357	0.065
-82.640	800.000	-0.055	-0.223
-81.626	-200.000	0.096	0.436
-80.611	107.699	0.189	0.221
-79.597	250.261	0.151	0.251
-78.582	30.702	0.311	-0.262
-77.567	243.681	0.288	-0.475
-76.553	367.273	0.042	0.083
-75.538	-200.000	0.075	-0.434
-74.524	-200.000	-0.030	-0.174
-73.509	-14.321	0.194	0.123
-72.494	215.449	0.123	0.192
-71.480	-122.132	0.114	-0.018
-70.465	-200.000	0.041	-0.377
-69.451	22.319	-0.101	-0.081
-68.436	564.071	-0.073	-0.173
-67.422	47.817	-0.145	-0.133
-66.407	147.933	0.177	0.234
-65.392	120.402	-0.232	0.283
-64.378	92.231	0.075	0.083
-63.363	800.000	0.044	0.141
-62.349	165.636	0.141	-0.196
-61.334	118.221	-1.012	-1.225
-60.319	15.484	0.545	0.420
-59.305	607.533	-0.431	-1.056
-58.290	634.794	0.484	1.206
-57.276	310.926	0.882	1.623
-56.261	-200.000	107.744	594.006
-55.246	491.905	1511.105	3397.182
-54.232	174.360	2707.484	3841.437
-53.217	107.498	2195.475	2563.600
-52.203	38.777	1719.111	1506.184
-51.188	31.605	1533.122	1293.821
-50.173	29.279	1507.212	1256.082
-49.159	49.590	1563.701	1444.853
-48.144	49.594	1580.828	1460.648
-47.130	31.826	1535.767	1297.382
-46.115	28.814	1520.972	1264.147
-45.100	28.706	1517.350	1260.342
-44.086	28.629	1515.323	1258.084
-43.071	28.579	1513.555	1256.224
-42.057	28.531	1511.822	1254.404
-41.042	28.521	1510.697	1253.355
-40.027	28.556	1509.442	1252.505
-39.013	28.577	1507.158	1250.703
-37.998	28.554	1505.821	1249.384
-36.984	28.521	1504.623	1248.116
-35.969	28.526	1503.441	1247.125
-34.954	28.566	1501.796	1245.981
-33.940	28.476	1500.723	1244.429
-32.925	28.553	1499.849	1244.174
-31.911	28.537	1498.097	1242.566
-30.896	28.676	1496.634	1242.242
-29.881	28.586	1495.641	1240.759
-28.867	28.662	1494.496	1240.274
-27.852	28.559	1492.965	1238.263
-26.838	28.597	1491.151	1236.963
-25.823	28.594	1490.170	1236.083
-24.809	28.564	1488.803	1234.692
-23.794	28.619	1486.963	1233.488
-22.779	28.688	1485.638	1232.803
-21.765	28.642	1484.786	1231.744
-20.750	28.670	1483.908	1231.149
-19.736	28.625	1482.711	1229.808
-18.721	28.620	1481.501	1228.719
-17.706	28.638	1480.434	1227.908
-16.692	28.512	1479.855	1226.537
-15.677	28.616	1478.402	1225.982
-14.663	28.500	1477.745	1224.614
-13.648	28.595	1476.195	1223.914
-12.633	28.532	1475.506	1222.871
-11.619	28.486	1474.491	1221.674
-10.604	28.627	1473.299	1221.579
-9.590	28.489	1472.636	1220.059
-8.575	28.561	1471.758	1219.762
-7.560	28.489	1470.711	1218.372
-6.546	28.441	1470.096	1217.493
-5.531	28.452	1469.074	1216.669
-4.517	28.437	1468.361	1215.931
-3.502	28.505	1467.021	1215.225
-2.487	28.539	1465.752	1214.351
-1.473	28.511	1464.748	1213.286
-0.458	28.551	1463.779	1212.698
0.556	30.608	1454.204	1203.387
1.571	27.905	1429.210	1165.379
2.586	24.682	1367.737	1095.442
3.600	23.215	1284.144	1019.953
4.615	21.550	1238.082	974.027
5.629	18.625	1181.049	913.521
6.644	11.079	1097.485	811.337
7.659	5.457	1058.515	755.374
8.673	4.641	1053.276	747.648
9.688	4.322	1050.281	743.924
10.702	4.255	1047.750	741.748
11.717	4.293	1046.449	740.940
12.731	7.181	1049.314	756.718
13.746	14.735	1060.329	800.946
14.761	20.733	1067.307	835.011
15.775	22.145	1068.091	842.323
16.790	21.651	1066.683	838.776
17.804	20.609	1064.996	832.391
18.819	19.830	1062.852	826.915
19.834	19.432	1061.817	824.138
20.848	19.267	1061.268	822.849
21.863	19.261	1060.231	821.946
22.877	19.154	1059.547	820.834
23.892	19.051	1058.540	819.490
24.907	18.855	1057.774	817.890
25.921	18.700	1057.559	816.915
26.936	18.679	1056.843	816.187
27.950	18.781	1055.222	815.351
28.965	18.755	1054.347	814.479
29.980	18.848	1053.415	814.126
30.994	19.087	1052.170	814.225
32.009	19.184	1051.190	813.852
33.023	19.221	1050.596	813.493
34.038	19.176	1049.966	812.721
35.053	19.126	1048.792	811.504
36.067	18.919	1048.188	809.993
37.082	18.830	1047.094	808.653
38.096	18.938	1046.382	808.541
39.111	19.078	1045.564	808.498
40.126	19.153	1044.952	808.305
41.140	18.994	1043.459	806.331
42.155	18.716	1042.522	804.234
43.169	18.384	1041.503	801.821
44.184	18.454	1040.272	801.131
45.199	18.357	1039.023	799.648
46.213	18.466	1038.086	799.361
47.228	18.557	1037.539	799.294
48.242	18.807	1036.450	799.547
49.257	18.958	1035.796	799.674
50.271	18.882	1034.937	798.588
51.286	18.848	1033.742	797.440
52.301	19.019	1033.004	797.591
53.315	19.097	1032.059	797.153
54.330	18.913	1031.510	795.803
55.344	18.615	1030.859	793.856
56.359	18.673	1029.294	792.847
57.374	18.646	1029.072	792.483
58.388	18.699	1027.991	791.822
59.403	18.462	1027.050	789.936
60.417	18.404	1026.436	789.128
61.432	18.301	1026.237	788.431
62.447	18.533	1025.041	788.507
63.461	18.318	1024.311	786.889
64.476	18.261	1022.887	785.461
65.490	18.200	1021.892	784.349
66.505	18.336	1021.117	784.310
67.520	18.280	1020.832	783.765
68.534	18.439	1019.638	783.506
69.549	18.438	1018.944	782.900
70.563	18.296	1018.390	781.752
71.578	18.244	1017.378	780.673
72.593	18.131	1016.681	779.551
73.607	17.996	1015.644	778.072
74.622	18.001	1015.083	777.595
75.636	18.028	1013.592	776.510
76.651	18.255	1012.777	776.849
77.666	18.145	1012.303	775.914
78.680	18.223	1011.715	775.751
79.695	18.222	1011.545	775.546
80.709	18.133	1010.804	774.505
81.724	18.392	1009.423	774.551
82.739	18.535	1009.002	774.805
83.753	18.397	1008.568	773.779
84.768	18.796	1007.709	774.852
85.782	19.004	1007.717	775.728
86.797	19.229	1006.745	775.925
87.812	19.178	1006.391	775.355
88.826	19.037	1005.205	773.740
89.841	19.060	1004.181	772.985
90.855	19.160	1003.590	772.910
91.870	19.222	1002.595	772.356
92.884	19.197	1002.315	771.957
93.899	19.117	1001.631	771.002
94.914	19.309	1000.244	770.729
95.928	19.376	999.694	770.532
96.943	19.272	999.164	769.595
97.957	19.225	997.832	768.290
98.972	19.035	997.454	767.084
99.987	19.031	997.117	766.737
101.001	19.161	996.053	766.430
102.016	19.133	994.912	765.363
103.030	19.078	994.147	764.461
104.045	19.183	993.174	764.113
105.060	19.131	992.905	763.604
106.074	19.041	990.934	761.625
107.089	18.698	990.269	759.528
108.103	18.489	989.528	757.967
109.118	18.292	988.519	756.257
110.133	18.216	987.317	754.937
111.147	18.350	985.754	754.264
112.162	18.376	984.874	753.640
113.176	18.402	984.502	753.403
114.191	18.501	983.992	753.379
115.206	18.638	982.973	753.135
116.220	18.593	982.145	752.238
117.235	18.480	981.877	751.471
118.249	18.427	981.084	750.564
119.264	18.453	980.001	749.784
120.279	18.320	979.065	748.419
121.293	18.317	978.445	747.864
122.308	18.236	977.312	746.581
123.322	18.247	976.411	745.875
124.337	18.026	975.728	744.325
125.352	18.091	974.016	743.236
126.366	18.181	972.622	742.495
127.381	18.062	972.452	741.784
128.395	18.164	971.139	741.157
129.410	18.090	970.655	740.402
130.424	18.344	969.495	740.549
131.439	18.228	968.898	739.527
132.454	18.351	968.645	739.800
133.468	18.508	967.403	739.463
134.483	18.443	966.896	738.730
135.497	18.450	966.372	738.294
136.512	18.398	965.713	737.502
137.527	18.505	965.131	737.455
138.541	18.585	964.049	736.904
139.556	18.505	963.591	736.146
140.570	18.520	962.391	735.230
141.585	18.670	962.214	735.670
142.600	19.030	961.048	736.254
143.614	18.998	960.958	735.986
144.629	18.949	960.415	735.296
145.643	19.180	959.752	735.710
146.658	18.953	958.779	733.929
147.673	18.887	957.958	732.955
148.687	18.690	956.262	730.754
149.702	18.686	955.614	730.175
150.716	18.699	954.500	729.317
151.731	18.554	953.651	727.988
152.746	18.566	952.792	727.318
153.760	18.649	952.185	727.143
154.775	18.569	951.851	726.482
155.789	18.693	950.838	726.172
156.804	18.761	950.275	725.964
157.819	18.814	949.321	725.395
158.833	18.828	949.014	725.154
159.848	19.054	947.866	725.165
160.862	19.174	947.592	725.396
161.877	19.254	946.512	724.845
162.892	18.889	945.438	722.422
163.906	18.605	944.502	720.451
164.921	18.426	943.608	718.955
165.935	18.482	942.498	718.279
166.950	18.622	941.376	717.947
167.964	18.765	940.882	718.106
168.979	18.815	940.021	717.594
169.994	18.622	939.151	716.061
171.008	18.618	938.114	715.190
172.023	18.680	937.178	714.669
173.037	18.950	936.470	715.192
174.052	19.115	936.062	715.502
175.067	18.939	935.393	714.197
176.081	18.805	933.958	712.482
177.096	18.559	933.224	710.840
178.110	18.418	932.513	709.652
179.125	18.642	931.362	709.637
180.140	18.666	931.157	709.517
181.154	18.615	930.701	708.897
182.169	18.765	930.388	709.216
183.183	18.868	929.879	709.193
184.198	19.051	928.876	709.116
185.213	19.019	927.978	708.238
186.227	19.052	927.521	707.960
187.242	19.006	927.375	707.597
188.256	19.251	926.244	707.678
189.271	19.208	926.019	707.269
190.286	19.390	925.058	707.219
191.300	19.205	923.880	705.495
192.315	18.637	922.903	702.364
193.329	18.411	921.821	700.554
194.344	18.504	921.304	700.479
195.359	18.547	921.123	700.457
196.373	18.742	920.806	700.951
197.388	18.967	919.972	701.168
198.402	18.914	920.118	701.001
199.417	19.112	919.950	701.620
200.432	19.432	919.169	702.266
201.446	19.476	918.723	702.043
202.461	19.505	918.604	702.004
203.475	19.680	917.756	702.008
204.490	19.539	917.614	701.262
205.504	19.393	916.425	699.701
206.519	19.180	915.340	697.947
207.534	19.150	914.490	697.113
208.548	19.101	913.433	696.050
209.563	19.204	912.750	695.885
210.577	19.163	912.151	695.198
211.592	19.273	911.670	695.217
212.607	19.406	911.495	695.556
213.621	19.472	911.037	695.413
214.636	19.612	909.640	694.847
215.650	19.380	909.268	693.571
216.665	19.402	908.780	693.224
217.680	19.413	908.094	692.683
218.694	19.521	907.966	692.957
219.709	19.672	907.575	693.203
220.723	19.546	906.759	692.013
221.738	19.553	905.806	691.253
222.753	19.431	905.202	690.244
223.767	19.370	904.458	689.371
224.782	19.551	903.864	689.582
225.796	19.671	903.022	689.357
226.811	19.798	902.545	689.438
227.826	19.697	901.955	688.524
228.840	19.621	900.549	687.087
229.855	19.407	900.200	685.908
230.869	19.286	899.737	685.013
231.884	19.556	898.629	685.183
232.899	19.330	898.137	683.848
233.913	19.280	897.528	683.127
234.928	19.243	896.758	682.334
235.942	19.165	895.974	681.368
236.957	19.204	895.044	680.753
237.972	19.085	894.625	679.906
238.986	19.245	893.774	679.832
240.001	19.182	893.600	679.389
241.015	19.276	892.725	679.037
242.030	19.221	891.984	678.193
243.045	19.357	891.604	678.381
244.059	19.422	891.060	678.161
245.074	19.545	890.415	678.094
246.088	19.621	889.832	677.889
247.103	19.539	889.486	677.245
248.117	19.709	888.967	677.454
249.132	19.908	888.184	677.576
250.147	20.234	887.935	678.602
251.161	20.360	887.635	678.808
252.176	20.465	887.081	678.734
253.190	20.524	886.168	678.206
254.205	20.373	886.116	677.517
255.220	20.664	885.048	677.775
256.234	20.382	884.669	676.326
257.249	20.362	884.046	675.710
258.263	20.479	883.289	675.527
259.278	20.375	883.046	674.877
260.293	20.385	882.289	674.279
261.307	20.464	881.539	673.952
262.322	20.503	881.172	673.763
263.336	20.557	880.580	673.458
264.351	20.533	880.179	672.999
265.366	20.602	879.420	672.628
266.380	20.554	878.984	672.048
267.395	20.644	878.151	671.701
268.409	20.480	877.291	670.349
269.424	20.233	876.746	668.920
270.439	20.373	875.410	668.383
271.453	20.417	874.959	668.148
272.468	20.271	874.313	667.035
273.482	20.194	873.820	666.302
274.497	20.270	873.148	666.024
275.512	20.231	872.571	665.374
276.526	20.230	871.747	664.683
277.541	20.197	871.311	664.166
278.555	20.266	870.939	664.087
279.570	20.534	870.137	664.442
280.585	20.603	870.387	664.839
281.599	20.696	869.608	664.538
282.614	20.491	868.503	662.854
283.628	20.370	867.841	661.830
284.643	20.276	867.198	660.924
285.657	20.344	866.344	660.470
286.672	20.448	865.933	660.497
287.687	20.442	865.508	660.089
288.701	20.421	865.261	659.765
289.716	20.231	864.923	658.726
290.730	20.381	864.137	658.638
291.745	20.581	863.177	658.607
292.760	20.603	862.781	658.329
293.774	20.503	862.340	657.557
294.789	20.726	861.848	657.965
295.803	20.782	861.167	657.598
296.818	20.683	860.136	656.381
297.833	20.583	859.501	655.460
298.847	20.433	858.763	654.274
299.862	20.587	858.024	654.234
300.876	20.587	857.600	653.851
301.891	20.764	856.922	653.942
302.906	20.720	856.767	653.601
303.920	20.910	855.935	653.621
304.935	21.032	855.704	653.846
305.949	20.979	855.432	653.380
306.964	21.165	854.114	653.013
307.979	20.851	853.695	651.458
308.993	20.958	852.957	651.237
310.008	20.943	852.687	650.919
311.022	21.116	851.866	650.879
312.037	21.023	851.712	650.356
313.052	20.853	851.118	649.213
314.066	20.735	850.112	647.947
315.081	20.551	849.172	646.490
316.095	20.516	848.840	646.050
317.110	20.585	848.225	645.782
318.125	20.564	847.724	645.266
319.139	20.622	846.995	644.869
320.154	20.549	846.671	644.294
321.168	20.648	846.086	644.158
322.183	20.622	845.459	643.527
323.197	20.861	845.069	644.058
324.212	20.615	844.585	642.724
325.227	20.617	843.981	642.213
326.241	20.710	843.498	642.131
327.256	20.727	842.869	641.658
328.270	20.739	842.196	641.135
329.285	20.679	841.720	640.496
330.300	20.564	841.170	639.597
331.314	20.538	840.749	639.123
332.329	20.490	840.289	638.541
333.343	20.834	839.486	639.138
334.358	20.901	839.297	639.181
335.373	20.955	838.693	638.866
336.387	21.055	837.859	638.538
337.402	21.122	837.808	638.688
338.416	20.964	837.297	637.663
339.431	21.198	836.627	637.951
340.446	21.287	836.399	638.046
341.460	21.514	835.378	638.038
342.475	21.543	835.196	637.951
343.489	21.482	835.015	637.534
344.504	21.464	834.578	637.076
345.519	21.567	833.943	636.911
346.533	21.677	833.313	636.773
347.548	21.686	832.964	636.484
348.562	21.567	831.881	635.169
349.577	21.208	831.393	633.436
350.592	21.037	830.868	632.362
351.606	21.020	830.435	631.914
352.621	20.969	829.794	631.186
353.635	20.910	829.269	630.518
354.650	21.118	828.973	630.989
355.665	21.165	828.249	630.551
356.679	21.213	828.053	630.520
357.694	21.466	827.653	631.072
358.708	21.414	827.154	630.446
359.723	21.263	826.237	629.148
360.738	21.273	825.900	628.873
361.752	21.369	825.538	628.886
362.767	21.283	825.300	628.339
363.781	21.444	824.939	628.588
364.796	21.774	824.461	629.355
365.810	21.691	824.036	628.676
366.825	21.922	823.786	629.259
367.840	21.959	823.530	629.138
368.854	22.002	822.882	628.742
369.869	21.649	822.497	627.131
370.883	21.714	821.318	626.409
371.898	21.706	820.834	625.955
372.913	21.748	820.737	625.973
373.927	21.980	820.031	626.208
374.942	21.933	819.156	625.319
375.956	21.809	818.487	624.311
376.971	21.744	818.105	623.732
377.986	21.903	817.716	623.947
379.000	22.124	817.489	624.503
380.015	22.059	817.001	623.845
381.029	22.102	816.231	623.354
382.044	22.161	815.212	622.729
383.059	22.046	814.747	621.913
384.073	21.985	814.576	621.510
385.088	22.006	813.491	620.701
386.102	21.828	812.994	619.639
387.117	21.593	812.443	618.334
388.132	21.692	811.876	618.198
389.146	21.575	811.510	617.452
390.161	21.599	811.281	617.307
391.175	21.834	810.654	617.604
392.190	21.959	810.785	618.089
393.205	21.848	810.369	617.328
394.219	21.813	809.649	616.601
395.234	21.825	808.897	616.015
396.248	21.782	808.443	615.462
397.263	21.629	808.126	614.631
398.278	21.447	807.263	613.281
399.292	21.717	806.279	613.425
400.307	21.510	805.967	612.410
401.321	21.455	806.037	612.215
402.336	21.485	805.588	611.925
403.350	21.633	805.262	612.142
404.365	21.841	804.609	612.317
405.380	21.940	804.616	612.615
406.394	22.033	804.097	612.488
407.409	22.134	803.812	612.571
408.423	22.271	803.400	612.678
409.438	22.360	802.594	612.321
410.453	22.305	802.458	611.971
411.467	22.542	801.815	612.251
412.482	22.488	801.448	611.728
413.496	22.606	800.945	611.698
414.511	22.563	800.766	611.358
415.526	22.640	800.376	611.274
416.540	22.603	800.173	610.935
417.555	22.334	799.695	609.586
418.569	22.299	799.164	609.007
419.584	22.494	798.663	609.243
420.599	22.469	798.091	608.668
421.613	163.407	1369.436	1795.479
422.628	141.913	1452.675	1795.584
