DTS Sentinel unit serial number:	SN413079Multiplexer serial number:	ORYXHardware model number:	OX4-SRSoftware version number:	ORYX F/W v4.00 Oryx Data Collector v3.7.2.0data status	okinstallation	princeton_trtdifferential loss correction	single-endedforward channel	channel 3reverse channel	N/Adate	2019/09/15time	12:16:35forward acquisition time	60.00reverse acquisition time	0.00gamma	496.2192k internal	0.2302k external	0.2302temperature offset calibration	0.9973default loss term (dB/km)	0.3790temperature slope calibration	1.0000multiplexer offset coefficient	1.0000multiplexer slope coefficient	1.0000fibre end	0.00T internal ref (°C)	34.69T ext. ref 1 (°C)	5.04T ext. ref 2 (°C)	31.75length (m)	temperature (°C)	Stokes	anti-Stokes-747.200	-100.723	0.183	-0.046
-746.185	196.874	0.056	0.087
-745.171	737.345	-0.090	0.245
-744.156	14.691	0.156	-0.124
-743.142	33.005	-0.254	0.224
-742.127	515.619	-0.078	0.186
-741.112	800.000	0.055	-0.163
-740.098	34.958	-0.220	0.197
-739.083	18.550	0.213	0.174
-738.069	262.462	0.137	-0.241
-737.054	166.592	-0.031	0.045
-736.039	-200.000	-0.005	-0.073
-735.025	-161.789	0.439	0.023
-734.010	-45.443	-0.431	0.218
-732.996	324.974	-0.112	-0.218
-731.981	-109.480	-0.130	-0.028
-730.966	-78.235	0.096	-0.034
-729.952	291.058	-0.123	-0.228
-728.937	-200.000	0.030	0.137
-727.923	-115.270	-0.323	0.062
-726.908	237.720	-0.050	0.085
-725.894	-200.000	-0.017	-0.204
-724.879	-39.029	-0.264	-0.141
-723.864	-200.000	0.003	-0.080
-722.850	-113.540	-0.175	0.035
-721.835	122.250	-0.138	-0.175
-720.821	-25.321	0.143	0.086
-719.806	800.000	0.048	-0.194
-718.791	-200.000	0.056	-0.337
-717.777	474.143	-0.122	-0.279
-716.762	23.157	-0.181	0.151
-715.748	-5.005	0.113	0.079
-714.733	69.220	0.039	-0.041
-713.718	108.716	-0.145	0.177
-712.704	-164.639	0.174	-0.008
-711.689	155.291	0.190	0.266
-710.675	-40.991	-0.386	-0.203
-709.660	-200.000	0.042	0.585
-708.645	-200.000	-0.074	0.351
-707.631	52.187	-0.193	-0.187
-706.616	800.000	0.050	-0.140
-705.602	36.737	0.263	0.237
-704.587	-21.919	-0.128	-0.079
-703.572	-81.372	0.286	0.096
-702.558	26.520	-0.182	-0.155
-701.543	-200.000	0.011	0.050
-700.529	296.537	0.145	-0.270
-699.514	-77.527	-0.314	-0.111
-698.499	-22.027	-0.191	-0.118
-697.485	91.206	-0.065	0.075
-696.470	-64.988	0.149	0.061
-695.456	35.191	0.061	-0.054
-694.441	-175.713	0.157	-0.004
-693.426	-200.000	0.043	-0.201
-692.412	-62.377	-0.237	-0.100
-691.397	-57.569	-0.140	-0.062
-690.383	-47.966	-0.108	-0.053
-689.368	-131.599	-0.131	-0.017
-688.354	-91.469	-0.321	0.093
-687.339	105.588	0.203	-0.244
-686.324	19.477	-0.249	-0.204
-685.310	26.833	0.188	-0.160
-684.295	-76.810	0.097	0.034
-683.281	-129.924	-0.260	-0.036
-682.266	-131.848	-0.176	-0.023
-681.251	800.000	0.105	-0.326
-680.237	-104.284	0.324	-0.076
-679.222	-24.695	0.150	-0.091
-678.208	-29.124	0.204	0.119
-677.193	-147.202	0.199	-0.017
-676.178	117.983	0.053	0.066
-675.164	45.796	0.048	-0.045
-674.149	-2.135	0.256	0.183
-673.135	-160.408	0.182	-0.010
-672.120	136.627	-0.197	-0.262
-671.105	458.124	0.092	-0.208
-670.091	-18.731	0.176	-0.112
-669.076	272.541	0.207	0.371
-668.062	13.692	-0.270	-0.213
-667.047	143.772	0.133	-0.180
-666.032	596.037	0.026	-0.066
-665.018	-200.000	-0.045	-0.286
-664.003	-200.000	0.041	-0.222
-662.989	252.244	0.143	-0.247
-661.974	38.251	-0.265	0.239
-660.959	356.103	-0.212	-0.429
-659.945	-33.270	0.320	-0.180
-658.930	-128.824	-0.252	-0.036
-657.916	88.869	-0.214	-0.242
-656.901	380.557	-0.108	-0.225
-655.886	237.578	-0.051	0.085
-654.872	-61.727	-0.166	-0.071
-653.857	-9.668	0.067	0.045
-652.843	83.610	0.151	0.167
-651.828	172.208	0.047	0.068
-650.814	-13.686	-0.098	-0.065
-649.799	76.698	0.215	-0.231
-648.784	-200.000	0.013	0.226
-647.770	-26.316	-0.044	-0.026
-646.755	-200.000	-0.006	0.249
-645.741	-86.981	0.580	-0.179
-644.726	-200.000	-0.017	-0.114
-643.711	800.000	-0.100	-0.320
-642.697	28.231	-0.229	-0.196
-641.682	-171.717	0.085	0.003
-640.668	-200.000	-0.037	0.201
-639.653	75.755	0.050	-0.054
-638.638	-200.000	-0.003	0.032
-637.624	191.275	-0.137	0.209
-636.609	-11.841	-0.047	0.032
-635.595	-179.553	-0.046	-0.001
-634.580	38.516	-0.166	0.150
-633.565	-200.000	-0.040	0.205
-632.551	324.381	0.101	0.195
-631.536	-31.415	-0.061	0.035
-630.522	43.025	0.084	-0.078
-629.507	510.548	-0.078	0.184
-628.492	800.000	-0.072	-0.257
-627.478	-200.000	0.100	0.464
-626.463	-200.000	0.019	0.129
-625.449	-128.637	-0.176	-0.025
-624.434	-24.393	-0.415	-0.251
-623.419	-200.000	-0.030	0.236
-622.405	20.171	0.250	-0.205
-621.390	25.397	-0.148	-0.125
-620.376	-200.000	0.049	0.260
-619.361	192.314	0.027	0.041
-618.346	5.056	0.270	0.202
-617.332	-160.541	-0.170	-0.009
-616.317	43.806	0.282	0.262
-615.303	-19.614	0.123	0.077
-614.288	-5.521	-0.053	-0.037
-613.273	-149.597	-0.295	-0.024
-612.259	-114.156	-0.151	-0.030
-611.244	75.474	0.192	-0.205
-610.230	186.726	-0.125	-0.189
-609.215	160.017	-0.098	-0.139
-608.201	572.488	-0.120	-0.297
-607.186	-200.000	-0.022	-0.207
-606.171	-43.266	0.110	0.056
-605.157	-49.402	-0.397	-0.192
-604.142	-200.000	-0.051	0.268
-603.128	-117.372	-0.297	-0.054
-602.113	52.431	-0.013	-0.013
-601.098	-101.460	0.170	-0.042
-600.084	336.178	-0.112	0.220
-599.069	-39.040	0.121	0.064
-598.055	-200.000	0.031	0.139
-597.040	-47.446	-0.163	0.080
-596.025	-200.000	-0.025	-0.227
-595.011	156.030	-0.032	-0.044
-593.996	122.943	-0.051	0.065
-592.982	800.000	0.056	-0.212
-591.967	-134.223	0.190	-0.024
-590.952	53.957	0.071	-0.069
-589.938	11.543	0.065	0.051
-588.923	202.574	0.123	-0.192
-587.909	383.408	0.029	0.061
-586.894	-86.460	-0.295	-0.092
-585.879	772.247	-0.087	-0.240
-584.865	86.239	-0.034	0.038
-583.850	758.946	-0.020	-0.054
-582.836	-27.947	0.214	-0.126
-581.821	-200.000	0.009	-0.079
-580.806	646.478	0.027	0.071
-579.792	163.990	0.220	0.314
-578.777	-200.000	-0.050	-0.311
-577.763	83.484	-0.052	0.058
-576.748	185.881	-0.156	-0.234
-575.733	168.394	-0.187	-0.269
-574.719	-200.000	-0.037	-0.389
-573.704	-78.937	0.340	-0.117
-572.690	16.046	-0.185	-0.148
-571.675	-200.000	-0.017	-0.157
-570.661	-115.460	-0.163	-0.031
-569.646	-126.486	-0.148	-0.022
-568.631	-76.009	0.241	-0.086
-567.617	-128.638	-0.211	-0.030
-566.602	-200.000	0.049	-0.558
-565.588	-63.053	-0.282	-0.118
-564.573	246.494	-0.080	-0.136
-563.558	-9.782	-0.141	0.095
-562.544	-200.000	-0.063	0.289
-561.529	-200.000	0.003	-0.235
-560.515	-92.955	-0.169	-0.048
-559.500	800.000	0.108	0.413
-558.485	-98.840	-0.205	-0.053
-557.471	-142.267	0.273	0.027
-556.456	-200.000	-0.008	-0.195
-555.442	-182.759	0.218	-0.004
-554.427	148.839	-0.131	0.179
-553.412	-38.664	0.112	0.060
-552.398	-84.187	-0.106	0.034
-551.383	-142.315	0.382	0.038
-550.369	224.399	0.226	0.370
-549.354	800.000	-0.095	0.332
-548.339	402.208	0.089	-0.189
-547.325	72.768	0.218	-0.230
-546.310	90.056	0.207	0.234
-545.296	73.717	0.231	0.245
-544.281	-200.000	0.068	-0.367
-543.266	-111.302	-0.299	0.062
-542.252	89.272	-0.171	0.192
-541.237	-187.616	0.109	-0.001
-540.223	-115.561	0.159	-0.030
-539.208	7.196	-0.278	-0.210
-538.193	-8.677	0.082	0.056
-537.179	-200.000	-0.041	-0.222
-536.164	48.684	0.100	0.095
-535.150	-125.733	-0.127	-0.019
-534.135	-57.273	-0.174	-0.077
-533.121	563.277	-0.064	0.158
-532.106	-50.588	0.245	0.117
-531.091	36.779	0.145	-0.129
-530.077	-166.526	0.258	0.011
-529.062	5.210	-0.256	-0.191
-528.048	59.942	-0.204	-0.204
-527.033	-200.000	0.013	0.166
-526.018	606.926	0.117	0.293
-525.004	-92.777	0.363	-0.103
-523.989	33.603	0.190	-0.166
-522.975	107.523	0.285	0.343
-521.960	88.500	0.072	0.081
-520.945	-8.183	0.062	-0.042
-519.931	800.000	0.037	0.154
-518.916	-142.881	0.146	0.014
-517.902	127.129	0.126	0.161
-516.887	-131.321	-0.126	-0.017
-515.872	333.045	0.055	0.107
-514.858	-200.000	-0.038	-0.211
-513.843	614.330	0.141	-0.356
-512.829	111.741	-0.052	-0.063
-511.814	794.378	-0.020	0.055
-510.799	324.190	-0.084	-0.161
-509.785	233.126	0.046	0.076
-508.770	291.841	-0.031	0.058
-507.756	-200.000	-0.063	-0.449
-506.741	691.397	-0.039	-0.102
-505.726	63.129	-0.044	-0.044
-504.712	50.927	-0.274	-0.262
-503.697	-31.348	-0.124	-0.071
-502.683	-200.000	0.004	0.100
-501.668	278.408	0.072	-0.130
-500.653	140.324	0.194	-0.258
-499.639	800.000	-0.126	0.413
-498.624	-200.000	0.009	0.129
-497.610	170.991	0.060	-0.086
-496.595	449.165	0.054	0.120
-495.581	78.651	0.108	-0.116
-494.566	131.757	0.077	-0.100
-493.551	-96.689	-0.427	-0.113
-492.537	-79.596	-0.357	0.122
-491.522	454.574	0.180	-0.402
-490.508	235.653	-0.117	-0.195
-489.493	-19.716	-0.201	0.126
-488.478	36.465	0.156	-0.139
-487.464	-97.246	-0.323	-0.085
-486.449	-200.000	-0.022	0.185
-485.435	8.362	0.168	-0.128
-484.420	77.422	0.135	-0.145
-483.405	-4.045	-0.124	0.087
-482.391	29.459	0.146	-0.125
-481.376	-29.467	-0.048	-0.027
-480.362	425.377	0.132	0.286
-479.347	35.199	0.118	0.104
-478.332	47.741	-0.130	0.123
-477.318	-200.000	-0.098	0.453
-476.303	-61.978	0.136	0.057
-475.289	1.106	0.182	-0.132
-474.274	-108.152	-0.148	-0.032
-473.259	-200.000	0.015	0.199
-472.245	110.537	-0.083	-0.101
-471.230	-55.029	-0.163	-0.074
-470.216	-110.268	0.211	0.044
-469.201	-200.000	-0.006	-0.342
-468.186	-200.000	-0.028	-0.134
-467.172	-10.408	0.146	0.098
-466.157	-198.332	0.106	0.001
-465.143	800.000	0.070	0.265
-464.128	-123.968	-0.058	-0.009
-463.113	361.770	0.097	-0.196
-462.099	-7.015	-0.104	-0.071
-461.084	-117.933	0.238	0.043
-460.070	274.846	-0.157	-0.280
-459.055	800.000	-0.059	0.247
-458.040	-40.107	-0.434	0.228
-457.026	320.784	-0.082	0.156
-456.011	-54.939	-0.219	-0.100
-454.997	166.495	0.064	-0.091
-453.982	-61.494	-0.123	-0.052
-452.968	-193.002	-0.129	-0.001
-451.953	800.000	-0.048	-0.187
-450.938	-161.232	-0.125	0.007
-449.924	-200.000	0.007	0.072
-448.909	800.000	-0.063	0.249
-447.895	-200.000	0.027	-0.157
-446.880	-84.016	0.349	0.112
-445.865	112.615	0.032	-0.038
-444.851	-29.215	-0.301	0.174
-443.836	-25.257	0.230	-0.137
-442.822	-88.027	0.198	0.060
-441.807	-63.715	0.090	-0.037
-440.792	800.000	-0.058	0.175
-439.778	106.912	0.079	-0.095
-438.763	-200.000	0.001	0.129
-437.749	-200.000	-0.148	-0.000
-436.734	106.744	-0.285	0.340
-435.719	63.758	-0.293	0.296
-434.705	756.593	-0.228	-0.622
-433.690	107.291	-0.060	-0.071
-432.676	-200.000	0.043	-0.246
-431.661	-200.000	-0.022	0.257
-430.646	-152.824	0.241	-0.017
-429.632	-116.878	-0.380	-0.070
-428.617	153.263	-0.034	0.047
-427.603	65.169	-0.310	-0.316
-426.588	-159.753	0.078	0.004
-425.573	20.619	-0.301	-0.245
-424.559	147.129	-0.195	0.264
-423.544	113.178	0.054	0.066
-422.530	186.172	0.017	-0.025
-421.515	-47.586	-0.249	0.122
-420.500	-109.439	-0.089	0.019
-419.486	187.438	0.124	-0.186
-418.471	-76.075	0.145	0.052
-417.457	-189.497	-0.040	0.000
-416.442	269.732	0.096	0.169
-415.428	-200.000	-0.006	0.365
-414.413	-154.263	-0.078	-0.005
-413.398	53.537	0.155	-0.149
-412.384	79.199	0.144	-0.155
-411.369	-77.819	-0.164	0.057
-410.355	-141.856	0.303	0.030
-409.340	-200.000	-0.003	-0.082
-408.325	800.000	-0.090	0.252
-407.311	-16.601	-0.346	0.220
-406.296	-83.081	-0.285	0.092
-405.282	800.000	-0.073	-0.229
-404.267	126.531	-0.138	0.176
-403.252	109.059	0.173	0.209
-402.238	-52.238	0.113	-0.053
-401.223	219.849	0.076	-0.122
-400.209	-139.427	-0.278	-0.030
-399.194	-45.521	0.219	0.109
-398.179	-200.000	0.002	0.077
-397.165	-94.475	0.087	-0.024
-396.150	800.000	-0.042	-0.164
-395.136	-172.869	0.158	0.005
-394.121	27.160	0.091	0.077
-393.106	50.282	-0.264	0.251
-392.092	85.510	0.231	0.255
-391.077	44.095	0.165	0.152
-390.063	800.000	-0.038	-0.164
-389.048	-200.000	-0.033	0.259
-388.033	85.062	-0.099	0.109
-387.019	800.000	0.038	-0.147
-386.004	-200.000	0.030	0.136
-384.990	-69.876	0.040	-0.015
-383.975	-200.000	0.013	-0.187
-382.960	-86.253	-0.562	-0.174
-381.946	-113.905	0.185	-0.036
-380.931	-35.406	0.079	0.043
-379.917	-90.772	-0.280	-0.081
-378.902	-18.007	0.162	0.102
-377.888	-200.000	0.071	0.387
-376.873	-200.000	0.097	0.000
-375.858	-76.641	-0.099	-0.035
-374.844	40.850	0.040	-0.037
-373.829	-200.000	-0.051	0.262
-372.815	-19.091	0.147	0.092
-371.800	-200.000	-0.018	0.080
-370.785	132.744	-0.090	0.117
-369.771	312.857	-0.117	0.220
-368.756	49.888	0.110	-0.105
-367.742	800.000	-0.036	0.121
-366.727	97.115	0.113	-0.130
-365.712	-13.851	0.063	-0.041
-364.698	246.728	0.024	0.041
-363.683	-200.000	0.006	0.247
-362.669	-200.000	-0.031	-0.223
-361.654	248.648	0.070	-0.118
-360.639	122.115	-0.067	0.084
-359.625	-200.000	0.042	0.365
-358.610	-110.606	0.335	-0.070
-357.596	19.424	-0.043	0.035
-356.581	108.375	-0.046	0.055
-355.566	-70.397	-0.046	0.018
-354.552	-137.177	0.148	0.017
-353.537	52.627	0.182	-0.174
-352.523	76.745	0.144	0.154
-351.508	800.000	0.035	0.132
-350.493	484.781	0.030	-0.068
-349.479	32.374	-0.396	0.343
-348.464	-31.710	0.089	-0.050
-347.450	5.116	-0.219	-0.162
-346.435	15.820	-0.150	-0.118
-345.420	-126.581	-0.215	0.032
-344.406	-88.728	0.491	0.146
-343.391	-81.288	0.126	0.042
-342.377	-200.000	-0.018	0.112
-341.362	219.475	-0.030	-0.048
-340.348	-200.000	0.011	-0.111
-339.333	244.502	0.062	-0.105
-338.318	-0.046	-0.364	0.260
-337.304	474.865	-0.207	0.469
-336.289	-200.000	0.016	0.120
-335.275	777.365	-0.070	0.191
-334.260	800.000	0.051	0.173
-333.245	-173.027	-0.337	0.010
-332.231	-200.000	0.027	0.159
-331.216	-137.392	-0.260	-0.030
-330.202	124.909	0.117	-0.148
-329.187	800.000	0.062	-0.267
-328.172	37.766	-0.281	0.251
-327.158	379.168	0.138	0.284
-326.143	96.405	0.187	-0.215
-325.129	-118.352	-0.227	0.040
-324.114	523.158	0.096	-0.226
-323.099	800.000	-0.091	-0.309
-322.085	-200.000	-0.054	0.258
-321.070	-160.830	-0.137	-0.007
-320.056	-56.782	0.193	0.086
-319.041	84.190	0.074	-0.081
-318.026	-123.255	0.210	-0.034
-317.012	800.000	0.010	-0.033
-315.997	-200.000	-0.037	-0.237
-314.983	425.236	0.200	0.432
-313.968	-200.000	0.065	0.351
-312.953	-111.763	0.212	0.043
-311.939	-151.278	0.078	0.006
-310.924	-135.180	-0.546	0.066
-309.910	34.061	0.107	-0.093
-308.895	235.242	-0.257	0.426
-307.880	-152.870	-0.410	-0.029
-306.866	-96.025	0.286	0.076
-305.851	69.436	-0.182	-0.188
-304.837	47.257	-0.103	-0.096
-303.822	-18.031	0.104	0.065
-302.807	-68.329	0.289	0.112
-301.793	17.386	-0.170	-0.135
-300.778	800.000	-0.069	0.195
-299.764	-73.317	-0.147	0.054
-298.749	-95.309	0.082	-0.022
-297.735	145.631	0.104	0.139
-296.720	-200.000	0.035	-0.194
-295.705	484.632	-0.074	0.168
-294.691	-1.291	-0.164	-0.116
-293.676	-133.448	0.156	-0.020
-292.662	-17.108	0.148	0.093
-291.647	-134.727	0.284	-0.035
-290.632	-166.807	-0.404	0.017
-289.618	-135.230	0.136	0.016
-288.603	223.458	-0.034	-0.056
-287.589	800.000	-0.084	-0.300
-286.574	-86.912	0.206	0.063
-285.559	331.838	0.066	0.127
-284.545	-126.113	0.034	0.005
-283.530	133.909	0.059	-0.076
-282.516	-104.347	0.408	0.095
-281.501	-200.000	-0.019	0.201
-280.486	-200.000	0.039	-0.220
-279.472	-153.393	-0.344	0.024
-278.457	-200.000	-0.059	-0.397
-277.443	7.717	-0.299	0.224
-276.428	-2.371	0.382	-0.268
-275.413	-200.000	-0.002	-0.171
-274.399	-8.667	-0.056	0.037
-273.384	392.577	0.083	0.172
-272.370	316.043	0.162	-0.306
-271.355	278.433	-0.041	0.072
-270.340	-88.773	0.236	-0.070
-269.326	-26.163	0.106	-0.062
-268.311	-200.000	0.054	-0.259
-267.297	-176.318	0.206	0.005
-266.282	156.813	-0.195	0.270
-265.267	800.000	-0.037	0.112
-264.253	589.991	0.144	0.355
-263.238	572.868	-0.128	-0.312
-262.224	-115.765	0.167	0.031
-261.209	377.540	-0.108	0.221
-260.195	139.713	0.190	-0.250
-259.180	-76.673	0.300	0.105
-258.165	-57.904	0.324	0.141
-257.151	-45.428	-0.343	-0.170
-256.136	-134.875	-0.140	-0.017
-255.122	-104.665	0.221	0.051
-254.107	18.852	0.122	0.098
-253.092	-13.078	0.207	0.134
-252.078	-169.767	-0.149	0.005
-251.063	-82.866	-0.352	-0.114
-250.049	176.501	0.028	0.041
-249.034	800.000	0.148	0.427
-248.019	-200.000	0.021	0.176
-247.005	35.742	0.286	0.251
-245.990	99.279	0.021	0.024
-244.976	-19.203	-0.152	0.094
-243.961	173.914	-0.081	-0.116
-242.946	146.795	0.083	0.111
-241.932	-140.763	0.076	-0.008
-240.917	-200.000	0.012	-0.138
-239.903	-92.124	-0.321	0.091
-238.888	434.499	-0.054	0.116
-237.873	63.041	0.129	-0.129
-236.859	-69.915	0.411	-0.157
-235.844	14.156	-0.186	0.145
-234.830	661.854	-0.125	0.321
-233.815	120.743	0.143	-0.178
-232.800	547.632	-0.132	-0.316
-231.786	172.561	0.184	0.265
-230.771	760.458	-0.031	-0.084
-229.757	800.000	-0.158	0.532
-228.742	-156.059	0.170	0.011
-227.727	-200.000	0.021	-0.171
-226.713	800.000	0.032	-0.106
-225.698	-200.000	-0.006	-0.122
-224.684	800.000	-0.114	-0.338
-223.669	-55.163	0.337	0.151
-222.655	558.080	-0.106	0.256
-221.640	-124.787	0.379	-0.058
-220.625	54.518	0.076	-0.073
-219.611	212.738	-0.056	0.088
-218.596	37.572	0.205	-0.181
-217.582	-200.000	-0.014	0.453
-216.567	46.942	0.218	-0.202
-215.552	-105.251	-0.126	-0.029
-214.538	-120.943	0.368	0.062
-213.523	800.000	0.068	-0.193
-212.509	-173.514	-0.414	-0.012
-211.494	-200.000	-0.008	-0.174
-210.479	-49.151	-0.287	0.137
-209.465	-200.000	0.046	-0.203
-208.450	130.192	0.096	0.122
-207.436	-3.366	0.207	-0.144
-206.421	176.069	0.083	0.120
-205.406	-200.000	0.014	-0.135
-204.392	-200.000	0.016	-0.125
-203.377	76.253	0.202	0.213
-202.363	-7.181	0.189	0.128
-201.348	183.168	-0.167	-0.246
-200.333	137.145	0.150	0.196
-199.319	800.000	0.151	-0.630
-198.304	789.267	0.102	0.279
-197.290	800.000	0.062	-0.189
-196.275	-200.000	-0.004	-0.157
-195.260	-21.511	0.230	-0.140
-194.246	257.589	0.118	-0.203
-193.231	60.425	0.274	-0.270
-192.217	418.006	-0.157	-0.334
-191.202	-153.073	-0.394	-0.028
-190.187	36.178	-0.196	0.172
-189.173	-200.000	-0.003	-0.029
-188.158	9.653	-0.121	0.092
-187.144	-200.000	0.011	0.138
-186.129	-200.000	0.047	-0.264
-185.114	-110.799	0.390	-0.080
-184.100	338.898	-0.098	0.189
-183.085	61.325	0.070	0.069
-182.071	-200.000	-0.014	-0.302
-181.056	25.105	0.118	0.098
-180.042	-4.085	0.222	0.154
-179.027	800.000	0.022	-0.066
-178.012	235.088	0.103	0.169
-176.998	-200.000	-0.006	0.067
-175.983	-200.000	-0.043	-0.211
-174.969	-149.723	0.074	0.006
-173.954	296.803	0.034	0.062
-172.939	-200.000	0.144	-0.000
-171.925	-200.000	0.004	-0.381
-170.910	800.000	0.014	0.049
-169.896	-26.150	0.262	-0.154
-168.881	800.000	-0.074	-0.291
-167.866	-108.826	0.119	0.025
-166.852	-141.666	-0.267	-0.027
-165.837	114.423	-0.116	-0.141
-164.823	-81.481	-0.071	-0.023
-163.808	-95.330	0.379	-0.102
-162.793	800.000	0.023	0.070
-161.779	-88.668	-0.244	0.072
-160.764	-110.927	-0.066	-0.013
-159.750	-88.557	-0.275	-0.082
-158.735	-105.748	-0.189	-0.042
-157.720	301.236	-0.129	-0.237
-156.706	67.143	-0.121	-0.123
-155.691	219.488	-0.110	0.175
-154.677	18.361	-0.040	0.032
-153.662	18.973	-0.063	0.050
-152.647	-188.298	-0.143	0.002
-151.633	-18.974	-0.191	-0.118
-150.618	-119.663	0.231	0.040
-149.604	-119.291	0.153	0.027
-148.589	-2.156	-0.143	-0.100
-147.574	14.696	-0.237	-0.185
-146.560	556.473	-0.067	-0.161
-145.545	372.498	-0.155	-0.314
-144.531	25.130	-0.178	0.147
-143.516	800.000	-0.167	0.507
-142.502	-88.581	0.164	0.049
-141.487	154.407	0.044	0.060
-140.472	216.126	-0.115	0.182
-139.458	507.398	0.062	0.144
-138.443	212.554	0.090	0.142
-137.429	-200.000	-0.009	0.100
-136.414	800.000	0.012	0.051
-135.399	125.162	0.121	0.152
-134.385	-200.000	-0.072	0.411
-133.370	144.057	-0.105	-0.140
-132.356	-116.498	0.138	0.025
-131.341	-107.486	0.245	-0.053
-130.326	800.000	0.044	0.174
-129.312	-45.118	0.429	0.212
-128.297	11.059	-0.120	-0.091
-127.283	3.203	-0.110	0.080
-126.268	-200.000	0.021	-0.105
-125.253	-22.871	0.080	-0.048
-124.239	47.982	0.075	-0.070
-123.224	205.996	-0.192	-0.297
-122.210	108.993	-0.186	-0.221
-121.195	800.000	0.043	-0.183
-120.180	339.591	-0.037	-0.071
-119.166	-116.768	0.419	0.076
-118.151	800.000	0.130	0.357
-117.137	800.000	-0.064	-0.179
-116.122	-141.710	0.435	-0.043
-115.107	800.000	0.083	0.270
-114.093	102.317	-0.089	-0.104
-113.078	277.025	0.026	-0.046
-112.064	27.729	-0.209	-0.175
-111.049	81.870	0.233	0.250
-110.034	800.000	-0.119	0.417
-109.020	-138.406	-0.236	0.026
-108.005	98.512	0.201	0.231
-106.991	-128.123	-0.190	0.027
-105.976	-50.317	0.044	-0.020
-104.962	800.000	-0.102	-0.284
-103.947	32.171	0.026	0.023
-102.932	-9.064	0.314	-0.209
-101.918	-166.023	-0.353	-0.015
-100.903	-20.437	0.128	0.078
-99.889	215.593	0.028	0.044
-98.874	-1.891	0.189	-0.132
-97.859	243.744	0.040	-0.066
-96.845	-132.663	0.453	0.058
-95.830	-84.905	0.233	-0.073
-94.816	80.937	0.429	0.460
-93.801	-64.384	0.111	-0.045
-92.786	25.566	0.127	0.105
-91.772	99.456	-0.047	-0.054
-90.757	28.404	0.137	0.115
-89.743	-71.485	-0.247	0.092
-88.728	-73.243	0.226	0.082
-87.713	176.836	-0.185	0.268
-86.699	-200.000	0.035	0.171
-85.684	800.000	-0.016	-0.061
-84.670	-200.000	0.017	-0.103
-83.655	76.994	0.271	0.286
-82.640	636.078	-0.128	-0.324
-81.626	402.314	0.049	-0.103
-80.611	-200.000	-0.049	-0.325
-79.597	-158.271	-0.279	-0.016
-78.582	-144.369	0.391	0.036
-77.567	27.234	-0.181	0.151
-76.553	42.601	0.209	-0.188
-75.538	204.597	-0.239	0.367
-74.524	-200.000	-0.109	-0.480
-73.509	-136.356	0.345	-0.040
-72.494	-23.705	0.057	-0.034
-71.480	527.913	-0.119	0.278
-70.465	759.669	0.056	0.152
-69.451	800.000	0.056	-0.228
-68.436	800.000	-0.082	-0.233
-67.422	-200.000	0.012	-0.082
-66.407	-124.207	0.235	0.037
-65.392	210.729	0.207	-0.323
-64.378	-26.391	-0.295	-0.172
-63.363	51.287	0.122	-0.115
-62.349	-124.299	0.226	0.035
-61.334	7.269	-0.908	-0.673
-60.319	425.451	0.292	0.624
-59.305	770.967	-0.381	-1.030
-58.290	103.588	0.585	0.681
-57.276	456.965	0.708	1.559
-56.261	-200.000	95.121	557.731
-55.246	625.555	1381.917	3457.729
-54.232	187.263	2592.964	3835.431
-53.217	120.053	2206.307	2714.311
-52.203	45.175	1740.127	1590.877
-51.188	37.713	1550.897	1365.749
-50.173	35.353	1522.947	1324.806
-49.159	53.236	1573.061	1494.409
-48.144	56.761	1592.060	1537.167
-47.130	38.237	1547.479	1366.184
-46.115	34.953	1532.068	1329.746
-45.100	34.673	1529.618	1325.627
-44.086	34.739	1526.856	1323.634
-43.071	34.767	1525.314	1322.440
-42.057	34.554	1523.988	1319.767
-41.042	34.685	1522.039	1318.930
-40.027	34.692	1520.740	1317.802
-39.013	34.669	1519.355	1316.386
-37.998	34.712	1518.050	1315.503
-36.984	34.705	1516.682	1314.213
-35.969	34.703	1515.139	1312.813
-34.954	34.642	1514.326	1311.640
-33.940	34.670	1512.123	1309.867
-32.925	34.659	1511.197	1308.942
-31.911	34.738	1509.690	1308.126
-30.896	34.719	1508.513	1306.922
-29.881	34.749	1506.866	1305.650
-28.867	34.722	1505.622	1304.334
-27.852	34.673	1504.376	1302.866
-26.838	34.670	1502.876	1301.498
-25.823	34.684	1500.931	1299.858
-24.809	34.768	1499.999	1299.567
-23.794	34.769	1498.030	1297.817
-22.779	34.701	1497.194	1296.585
-21.765	34.761	1496.058	1295.953
-20.750	34.748	1494.832	1294.748
-19.736	34.728	1493.431	1293.350
-18.721	34.691	1492.563	1292.299
-17.706	34.624	1491.674	1291.026
-16.692	34.709	1490.383	1290.431
-15.677	34.661	1489.808	1289.555
-14.663	34.671	1488.637	1288.557
-13.648	34.644	1487.693	1287.506
-12.633	34.639	1486.590	1286.468
-11.619	34.708	1485.893	1286.277
-10.604	34.658	1484.688	1284.849
-9.590	34.790	1483.627	1284.764
-8.575	34.594	1483.289	1283.106
-7.560	34.648	1482.812	1283.008
-6.546	34.647	1481.738	1282.017
-5.531	34.734	1480.789	1281.727
-4.517	34.598	1480.164	1280.227
-3.502	34.493	1479.380	1278.791
-2.487	34.656	1477.695	1278.378
-1.473	34.617	1476.541	1277.069
-0.458	34.636	1475.256	1276.031
0.556	33.519	1466.649	1266.486
1.571	31.186	1441.110	1228.981
2.586	27.961	1379.455	1155.932
3.600	26.228	1295.921	1075.527
4.615	24.469	1248.707	1026.150
5.629	21.196	1191.784	961.301
6.644	12.816	1105.834	848.902
7.659	6.285	1063.782	784.091
8.673	5.285	1057.695	774.584
9.688	5.059	1054.595	771.125
10.702	4.910	1053.398	769.450
11.717	4.916	1051.398	767.950
12.731	7.785	1054.885	784.595
13.746	15.471	1065.505	830.590
14.761	19.705	1070.569	855.462
15.775	18.642	1067.605	847.770
16.790	17.453	1065.060	839.814
17.804	16.334	1062.878	832.502
18.819	15.441	1061.365	826.847
19.834	15.029	1059.754	823.492
20.848	14.731	1058.599	821.059
21.863	14.368	1057.832	818.608
22.877	14.264	1056.961	817.347
23.892	14.038	1055.680	815.177
24.907	13.890	1055.321	814.101
25.921	13.920	1054.591	813.614
26.936	13.893	1054.264	813.157
27.950	13.930	1052.791	812.131
28.965	14.008	1051.520	811.461
29.980	14.073	1050.556	810.962
30.994	14.124	1049.354	810.209
32.009	14.255	1048.182	809.872
33.023	14.304	1047.656	809.631
34.038	14.118	1047.033	808.174
35.053	13.998	1045.745	806.524
36.067	14.144	1044.880	806.494
37.082	14.111	1043.750	805.392
38.096	14.099	1043.175	804.819
39.111	14.110	1043.012	804.675
40.126	14.159	1041.966	804.033
41.140	14.044	1040.428	802.219
42.155	13.899	1039.702	800.890
43.169	13.840	1038.952	799.957
44.184	13.866	1037.645	799.008
45.199	13.817	1036.573	797.874
46.213	13.953	1035.474	797.609
47.228	13.936	1034.613	796.795
48.242	13.912	1033.994	796.133
49.257	13.891	1032.860	795.088
50.271	13.972	1031.566	794.413
51.286	14.064	1030.949	794.302
52.301	14.062	1029.986	793.483
53.315	13.962	1029.461	792.533
54.330	13.949	1028.634	791.760
55.344	13.804	1027.362	790.021
56.359	13.907	1026.225	789.567
57.374	13.902	1025.623	789.014
58.388	13.819	1025.197	788.218
59.403	13.764	1024.041	787.002
60.417	13.796	1023.099	786.360
61.432	13.783	1022.539	785.797
62.447	13.768	1021.916	785.180
63.461	13.721	1021.135	784.286
64.476	13.674	1020.180	783.261
65.490	13.813	1018.750	782.751
66.505	13.643	1018.290	781.524
67.520	13.665	1018.390	781.636
68.534	13.882	1016.891	781.437
69.549	13.820	1016.038	780.424
70.563	13.826	1015.036	779.610
71.578	13.755	1014.843	779.062
72.593	13.748	1013.732	778.105
73.607	13.537	1012.870	776.389
74.622	13.607	1011.772	775.805
75.636	13.614	1010.878	775.084
76.651	13.630	1010.361	774.695
77.666	13.664	1009.607	774.207
78.680	13.701	1008.757	773.660
79.695	13.650	1008.092	772.842
80.709	13.864	1007.034	772.956
81.724	13.830	1006.830	772.575
82.739	13.798	1005.998	771.720
83.753	13.920	1005.314	771.693
84.768	14.004	1004.624	771.484
85.782	14.021	1004.077	771.078
86.797	14.002	1003.230	770.269
87.812	13.992	1002.558	769.641
88.826	13.998	1001.402	768.712
89.841	13.904	1000.661	767.640
90.855	14.089	999.800	767.766
91.870	14.056	999.372	767.218
92.884	14.020	998.823	766.560
93.899	14.124	997.838	766.218
94.914	14.213	996.797	765.761
95.928	14.121	996.412	764.971
96.943	14.238	995.475	764.725
97.957	14.128	994.991	763.776
98.972	14.116	993.725	762.682
99.987	14.078	993.492	762.261
101.001	14.207	992.518	762.038
102.016	14.105	991.809	760.960
103.030	14.079	990.736	759.952
104.045	14.134	989.725	759.359
105.060	14.143	988.866	758.673
106.074	14.082	987.965	757.637
107.089	14.107	986.785	756.778
108.103	13.734	986.370	754.699
109.118	13.769	985.179	753.879
110.133	13.808	984.302	753.320
111.147	13.826	983.477	752.704
112.162	13.772	982.460	751.610
113.176	13.764	982.530	751.565
114.191	13.806	981.424	750.842
115.206	13.924	980.309	750.456
116.220	13.749	979.511	748.986
117.235	13.941	978.296	748.857
118.249	13.754	978.115	747.808
119.264	13.824	977.048	747.243
120.279	13.957	975.759	746.789
121.293	13.844	975.396	745.938
122.308	13.778	974.329	744.758
123.322	13.758	973.771	744.175
124.337	13.666	972.566	742.778
125.352	13.756	971.626	742.397
126.366	13.749	970.633	741.540
127.381	13.699	969.683	740.529
128.395	13.703	968.893	739.874
129.410	13.885	967.628	739.657
130.424	13.909	966.410	738.764
131.439	13.751	966.165	737.812
132.454	13.828	965.172	737.331
133.468	13.934	964.413	737.153
134.483	13.952	964.012	736.864
135.497	14.037	962.792	736.244
136.512	13.919	962.227	735.224
137.527	13.901	961.424	734.465
138.541	13.992	960.605	734.173
139.556	13.936	959.889	733.316
140.570	14.054	959.322	733.337
141.585	13.986	958.999	732.729
142.600	14.184	957.899	732.691
143.614	14.051	957.211	731.516
144.629	14.174	956.506	731.455
145.643	14.115	956.052	730.783
146.658	14.136	955.058	730.053
147.673	14.180	953.774	729.197
148.687	13.853	953.450	727.455
149.702	13.893	952.274	726.666
150.716	14.053	951.045	726.364
151.731	13.931	950.715	725.516
152.746	13.860	950.158	724.715
153.760	14.046	948.583	724.261
154.775	14.070	948.421	724.177
155.789	14.102	947.607	723.630
156.804	14.068	946.998	722.955
157.819	13.989	946.140	721.893
158.833	14.080	945.661	721.857
159.848	14.166	944.955	721.628
160.862	14.285	943.962	721.320
161.877	14.183	943.500	720.461
162.892	14.185	942.328	719.511
163.906	14.120	941.564	718.583
164.921	14.027	940.937	717.641
165.935	13.993	940.004	716.718
166.950	14.111	938.659	716.139
167.964	14.156	937.855	715.655
168.979	14.013	937.262	714.524
169.994	14.039	936.249	713.799
171.008	14.187	934.920	713.360
172.023	14.088	934.845	712.813
173.037	14.152	933.962	712.353
174.052	14.234	933.203	712.061
175.067	14.245	932.297	711.355
176.081	14.129	931.489	710.180
177.096	14.149	930.608	709.527
178.110	14.043	930.258	708.750
179.125	14.243	928.971	708.557
180.140	13.994	928.866	707.353
181.154	14.185	927.864	707.341
182.169	14.193	926.759	706.471
183.183	14.215	926.633	706.404
184.198	14.297	925.665	705.952
185.213	14.342	925.234	705.752
186.227	14.431	924.436	705.455
187.242	14.379	924.099	704.917
188.256	14.546	923.025	704.739
189.271	14.477	922.171	703.735
190.286	14.509	922.031	703.702
191.300	14.401	920.858	702.289
192.315	14.224	919.714	700.610
193.329	14.180	919.350	700.083
194.344	14.163	918.910	699.617
195.359	14.213	918.188	699.213
196.373	14.309	917.640	699.140
197.388	14.432	917.037	699.133
198.402	14.480	916.756	699.056
199.417	14.487	916.422	698.771
200.432	14.597	915.724	698.637
201.446	14.738	915.219	698.781
202.461	14.596	915.272	698.164
203.475	14.724	914.399	697.972
204.490	14.828	913.564	697.708
205.504	14.660	912.683	696.273
206.519	14.556	912.006	695.260
207.534	14.638	911.062	694.819
208.548	14.590	910.638	694.236
209.563	14.753	909.520	694.001
210.577	14.609	909.047	692.979
211.592	14.710	908.161	692.662
212.607	14.802	908.144	692.967
213.621	14.710	907.769	692.238
214.636	14.822	906.809	691.912
215.650	14.665	906.300	690.810
216.665	14.704	905.761	690.502
217.680	14.775	904.955	690.117
218.694	14.876	904.723	690.297
219.709	14.826	904.428	689.804
220.723	14.867	903.565	689.254
221.738	14.779	902.960	688.369
222.753	14.750	901.971	687.434
223.767	14.877	901.362	687.433
224.782	14.877	900.378	686.623
225.796	15.037	899.857	686.818
226.811	15.010	899.261	686.194
227.826	14.890	898.372	684.961
228.840	14.954	898.020	684.897
229.855	15.024	896.784	684.180
230.869	14.845	896.550	683.208
231.884	14.887	896.047	682.935
232.899	14.877	895.060	682.082
233.913	14.720	894.541	680.987
234.928	14.795	894.106	680.901
235.942	14.826	893.325	680.371
236.957	14.777	892.382	679.395
237.972	14.763	891.621	678.698
238.986	14.985	891.097	679.140
240.001	14.813	890.767	678.133
241.015	14.923	889.481	677.538
242.030	15.005	888.862	677.338
243.045	15.177	888.132	677.418
244.059	15.120	887.455	676.611
245.074	15.066	887.195	676.133
246.088	15.122	886.566	675.820
247.103	15.122	886.242	675.514
248.117	15.041	885.305	674.414
249.132	15.203	884.985	674.763
250.147	15.359	884.225	674.751
251.161	15.426	883.650	674.523
252.176	15.449	882.716	673.840
253.190	15.446	882.218	673.390
254.205	15.415	881.917	672.975
255.220	15.629	881.360	673.348
256.234	15.542	880.601	672.361
257.249	15.565	879.949	671.898
258.263	15.523	879.346	671.210
259.278	15.429	879.203	670.664
260.293	15.580	878.350	670.556
261.307	15.540	877.881	669.981
262.322	15.581	877.442	669.751
263.336	15.787	876.370	669.693
264.351	15.660	875.905	668.770
265.366	15.811	875.030	668.646
266.380	15.758	874.533	667.996
267.395	15.808	873.863	667.624
268.409	15.689	873.307	666.669
269.424	15.648	872.678	665.967
270.439	15.627	872.113	665.393
271.453	15.693	871.140	664.851
272.468	15.694	870.205	664.084
273.482	15.670	869.894	663.695
274.497	15.633	869.151	662.922
275.512	15.658	868.535	662.492
276.526	15.654	867.959	661.976
277.541	15.671	866.829	661.125
278.555	15.702	866.176	660.691
279.570	15.805	865.642	660.627
280.585	15.913	865.510	660.895
281.599	15.831	865.392	660.421
282.614	15.870	864.211	659.614
283.628	15.920	863.447	659.171
284.643	15.901	862.735	658.493
285.657	15.895	862.160	657.975
286.672	15.805	862.246	657.630
287.687	15.875	861.494	657.268
288.701	15.909	860.931	656.917
289.716	15.921	860.237	656.376
290.730	15.975	859.638	656.071
291.745	16.023	858.922	655.654
292.760	16.017	858.336	655.124
293.774	15.885	858.346	654.562
294.789	15.918	857.568	654.038
295.803	16.099	856.573	653.921
296.818	15.988	855.970	652.973
297.833	16.181	855.254	653.118
298.847	16.051	854.692	652.127
299.862	15.918	854.159	651.149
300.876	16.068	853.394	651.086
301.891	16.187	852.574	650.863
302.906	16.091	852.529	650.401
303.920	16.216	851.705	650.196
304.935	16.213	851.025	649.606
305.949	16.309	850.322	649.384
306.964	16.252	849.965	648.834
307.979	16.151	849.362	647.926
308.993	16.142	848.806	647.414
310.008	16.221	848.456	647.393
311.022	16.289	848.002	647.249
312.037	16.324	847.273	646.769
313.052	16.342	846.578	646.250
314.066	16.221	845.399	644.831
315.081	16.097	845.426	644.320
316.095	16.193	844.580	643.984
317.110	16.137	844.324	643.517
318.125	16.142	843.675	642.986
319.139	16.157	843.246	642.658
320.154	16.319	842.400	642.575
321.168	16.117	842.223	641.615
322.183	16.277	841.311	641.470
323.197	16.258	840.866	641.000
324.212	16.390	840.220	640.954
325.227	16.295	840.305	640.603
326.241	16.187	839.570	639.576
327.256	16.354	838.797	639.561
328.270	16.249	838.353	638.769
329.285	16.307	837.852	638.552
330.300	16.347	836.819	637.858
331.314	16.313	836.747	637.617
332.329	16.331	836.085	637.124
333.343	16.312	835.819	636.796
334.358	16.493	834.667	636.542
335.373	16.519	834.352	636.343
336.387	16.427	834.066	635.722
337.402	16.578	833.251	635.614
338.416	16.623	832.325	635.020
339.431	16.738	831.730	634.939
340.446	16.847	831.417	635.052
341.460	16.759	831.076	634.406
342.475	16.762	830.168	633.668
343.489	16.884	829.691	633.707
344.504	16.795	829.474	633.150
345.519	16.789	829.027	632.732
346.533	16.912	828.566	632.783
347.548	16.917	827.800	632.161
348.562	16.738	827.630	631.307
349.577	16.744	827.207	630.950
350.592	16.753	826.416	630.324
351.606	16.604	826.038	629.425
352.621	16.702	825.538	629.353
353.635	16.628	825.227	628.785
354.650	16.803	824.555	628.869
355.665	16.684	824.230	628.124
356.679	16.732	823.868	627.970
357.694	16.759	823.250	627.545
358.708	16.728	822.699	626.954
359.723	16.830	821.816	626.602
360.738	16.867	821.361	626.337
361.752	16.919	820.781	626.030
362.767	16.849	820.822	625.747
363.781	16.925	820.440	625.681
364.796	17.051	819.918	625.692
365.810	17.014	819.514	625.192
366.825	17.201	819.143	625.542
367.840	17.106	818.608	624.729
368.854	17.249	817.875	624.642
369.869	17.047	817.718	623.722
370.883	17.130	817.081	623.486
371.898	17.184	816.341	623.064
372.913	17.242	815.773	622.788
373.927	17.335	815.048	622.521
374.942	17.184	814.820	621.741
375.956	17.280	813.788	621.249
376.971	17.135	813.749	620.634
377.986	17.305	813.120	620.718
379.000	17.412	812.401	620.504
380.015	17.262	812.435	619.929
381.029	17.155	812.249	619.343
382.044	17.487	810.785	619.379
383.059	17.441	810.174	618.691
384.073	17.556	809.449	618.501
385.088	17.476	809.391	618.112
386.102	17.269	808.901	616.932
387.117	17.413	807.932	616.658
388.132	17.440	807.452	616.335
389.146	17.346	807.278	615.809
390.161	17.285	807.150	615.435
391.175	17.313	806.791	615.207
392.190	17.436	806.064	615.042
393.205	17.414	805.670	614.610
394.219	17.341	805.319	614.024
395.234	17.435	804.879	613.973
396.248	17.326	804.222	613.025
397.263	17.397	803.625	612.771
398.278	17.299	803.425	612.211
399.292	17.235	803.212	611.765
400.307	17.328	802.710	611.661
401.321	17.266	802.525	611.246
402.336	17.402	801.638	611.004
403.350	17.309	801.216	610.293
404.365	17.482	800.838	610.571
405.380	17.417	800.508	610.034
406.394	17.726	799.799	610.547
407.409	17.672	799.613	610.156
408.423	17.754	798.643	609.657
409.438	17.682	798.735	609.416
410.453	17.717	798.126	609.021
411.467	17.735	797.638	608.657
412.482	17.829	797.268	608.658
413.496	17.900	796.746	608.460
414.511	17.797	796.671	607.981
415.526	17.893	796.018	607.770
416.540	17.773	795.979	607.259
417.555	17.860	795.469	607.124
418.569	17.964	794.759	606.900
419.584	17.839	794.453	606.169
420.599	17.914	793.852	605.923
421.613	151.944	1368.564	1787.930
422.628	131.403	1452.339	1788.030
