DTS Sentinel unit serial number:	SN413079Multiplexer serial number:	ORYXHardware model number:	OX4-SRSoftware version number:	ORYX F/W v4.00 Oryx Data Collector v3.7.2.0data status	okinstallation	princeton_trtdifferential loss correction	single-endedforward channel	channel 3reverse channel	N/Adate	2019/09/18time	13:36:35forward acquisition time	60.00reverse acquisition time	0.00gamma	496.2192k internal	0.2311k external	0.2311temperature offset calibration	0.9971default loss term (dB/km)	0.3790temperature slope calibration	1.0000multiplexer offset coefficient	1.0000multiplexer slope coefficient	1.0000fibre end	0.00T internal ref (°C)	34.37T ext. ref 1 (°C)	0.63T ext. ref 2 (°C)	30.49length (m)	temperature (°C)	Stokes	anti-Stokes-747.200	-85.312	0.319	-0.101
-746.185	-200.000	0.020	0.178
-745.171	-69.300	-0.191	-0.074
-744.156	434.047	-0.126	0.279
-743.142	-200.000	0.009	0.075
-742.127	-62.774	-0.090	-0.038
-741.112	-200.000	-0.327	0.000
-740.098	800.000	-0.142	0.430
-739.083	-136.993	0.344	0.040
-738.069	89.230	-0.295	0.334
-737.054	27.215	-0.054	0.046
-736.039	-90.362	-0.124	-0.036
-735.025	-200.000	0.022	0.322
-734.010	-124.094	0.331	0.053
-732.996	-200.000	-0.014	-0.089
-731.981	-25.619	-0.298	0.178
-730.966	-86.760	0.170	0.053
-729.952	-200.000	-0.032	-0.160
-728.937	-156.047	-0.123	-0.008
-727.923	-124.941	-0.360	0.056
-726.908	-200.000	0.023	0.142
-725.894	-25.428	-0.173	0.104
-724.879	310.077	-0.046	0.087
-723.864	-157.583	0.263	-0.016
-722.850	67.106	-0.290	0.300
-721.835	-200.000	-0.003	-0.290
-720.821	-200.000	-0.028	-0.426
-719.806	500.487	-0.162	-0.380
-718.791	-151.172	-0.127	-0.010
-717.777	-200.000	0.034	-0.311
-716.762	-155.403	0.117	0.008
-715.748	80.432	-0.223	-0.243
-714.733	456.738	0.075	0.169
-713.718	-200.000	0.241	0.000
-712.704	123.609	-0.072	-0.091
-711.689	-45.554	-0.023	0.012
-710.675	-58.752	0.098	0.043
-709.660	-82.257	0.312	-0.103
-708.645	-200.000	-0.011	0.206
-707.631	-100.281	0.304	-0.077
-706.616	-14.275	0.222	-0.145
-705.602	-109.876	0.148	0.032
-704.587	-24.955	0.095	0.057
-703.572	136.695	-0.111	0.147
-702.558	92.455	-0.184	-0.211
-701.543	133.786	-0.074	0.098
-700.529	-26.006	-0.153	-0.091
-699.514	9.099	0.292	0.223
-698.499	-200.000	-0.039	0.182
-697.485	584.327	-0.051	-0.128
-696.470	800.000	-0.045	0.187
-695.456	-101.171	0.095	0.024
-694.441	-106.604	0.083	-0.019
-693.426	236.360	-0.112	-0.188
-692.412	85.132	0.118	0.131
-691.397	352.985	0.113	-0.226
-690.383	-114.628	0.126	0.024
-689.368	-22.923	-0.225	0.138
-688.354	105.171	-0.089	0.106
-687.339	-78.675	-0.297	0.103
-686.324	-135.369	-0.206	0.025
-685.310	164.483	-0.034	0.049
-684.295	-187.244	0.041	0.001
-683.281	95.597	-0.158	-0.182
-682.266	91.302	0.190	0.216
-681.251	-200.000	0.072	-0.323
-680.237	-153.983	0.205	-0.014
-679.222	186.954	0.222	-0.335
-678.208	570.298	-0.110	-0.271
-677.193	-90.833	-0.288	-0.084
-676.178	-36.309	-0.362	0.198
-675.164	-46.558	-0.331	0.164
-674.149	739.744	0.036	-0.099
-673.135	-200.000	-0.001	0.034
-672.120	296.600	-0.127	0.236
-671.105	-200.000	-0.003	0.216
-670.091	-109.064	-0.150	-0.032
-669.076	-22.983	-0.110	-0.067
-668.062	-22.336	-0.040	-0.025
-667.047	-36.327	0.260	0.142
-666.032	414.996	0.076	-0.163
-665.018	-91.791	0.243	-0.070
-664.003	185.286	0.047	0.071
-662.989	109.280	-0.273	-0.331
-661.974	-200.000	0.033	-0.259
-660.959	-108.659	0.232	-0.050
-659.945	101.241	-0.050	-0.059
-658.930	-119.758	0.144	0.025
-657.916	-91.018	0.172	0.050
-656.901	-200.000	0.018	-0.224
-655.886	-45.382	0.287	-0.144
-654.872	-74.312	-0.388	-0.142
-653.857	148.848	-0.060	0.082
-652.843	49.740	-0.241	0.230
-651.828	-2.009	0.199	-0.141
-650.814	-115.396	-0.062	-0.012
-649.799	55.724	-0.314	0.308
-648.784	-168.763	0.173	-0.007
-647.770	-23.358	-0.422	-0.256
-646.755	800.000	-0.087	-0.292
-645.741	800.000	0.066	0.194
-644.726	245.584	0.128	-0.218
-643.711	454.072	0.242	0.543
-642.697	194.437	0.028	0.043
-641.682	159.114	-0.086	-0.120
-640.668	217.709	-0.037	0.060
-639.653	-128.600	-0.179	-0.026
-638.638	-200.000	0.061	0.292
-637.624	-200.000	0.050	0.541
-636.609	734.272	-0.059	0.160
-635.595	-72.789	0.125	0.046
-634.580	-34.775	-0.097	0.054
-633.565	-200.000	-0.008	0.241
-632.551	292.506	-0.089	-0.164
-631.536	41.242	0.155	-0.142
-630.522	800.000	0.046	-0.149
-629.507	-200.000	0.025	0.223
-628.492	-200.000	-0.016	0.152
-627.478	-113.279	-0.245	-0.049
-626.463	-150.814	-0.342	-0.026
-625.449	-5.393	0.272	-0.189
-624.434	-64.028	0.198	0.082
-623.419	-200.000	0.065	0.352
-622.405	800.000	0.114	-0.325
-621.390	149.915	-0.133	0.183
-620.376	-131.766	0.455	-0.060
-619.361	-117.235	0.128	0.023
-618.346	-64.649	0.219	0.090
-617.332	9.148	-0.087	-0.066
-616.317	691.754	0.062	-0.164
-615.303	-173.268	0.274	0.008
-614.288	395.747	-0.136	-0.286
-613.273	-105.171	0.151	0.035
-612.259	-95.300	0.285	-0.077
-611.244	-99.282	0.350	0.089
-610.230	35.330	-0.323	-0.286
-609.215	800.000	0.037	-0.134
-608.201	100.035	0.034	0.040
-607.186	-127.487	0.150	-0.022
-606.171	290.253	-0.066	0.122
-605.157	-71.260	-0.310	0.117
-604.142	-200.000	0.027	-0.213
-603.128	648.571	-0.155	-0.399
-602.113	-200.000	-0.015	0.163
-601.098	-12.710	0.275	0.181
-600.084	399.695	0.072	0.153
-599.069	-103.447	-0.167	-0.040
-598.055	-133.191	-0.580	-0.074
-597.040	-53.174	-0.194	-0.090
-596.025	-90.551	0.036	0.010
-595.011	-188.832	-0.172	-0.002
-593.996	212.228	-0.135	0.214
-592.982	36.187	-0.120	-0.107
-591.967	427.393	0.060	-0.130
-590.952	525.328	0.092	0.218
-589.938	137.116	-0.067	0.088
-588.923	716.687	-0.075	-0.201
-587.909	113.503	-0.112	0.137
-586.894	9.578	0.241	0.184
-585.879	-142.579	-0.091	0.009
-584.865	-200.000	-0.005	-0.149
-583.850	-104.772	-0.096	0.022
-582.836	521.171	-0.179	-0.425
-581.821	-34.445	-0.472	-0.261
-580.806	-95.611	0.263	0.071
-579.792	-85.126	0.224	0.071
-578.777	-122.653	-0.034	-0.006
-577.763	6.978	0.075	0.057
-576.748	52.503	0.261	-0.252
-575.733	14.766	0.025	0.019
-574.719	719.874	0.085	-0.227
-573.704	295.362	-0.109	-0.200
-572.690	13.215	-0.233	0.182
-571.675	-200.000	-0.057	0.552
-570.661	-22.779	0.027	-0.016
-569.646	357.725	0.141	0.283
-568.631	-200.000	0.014	-0.196
-567.617	296.366	-0.210	0.388
-566.602	714.817	0.079	-0.210
-565.588	-33.347	-0.202	-0.113
-564.573	-106.474	-0.420	0.094
-563.558	-35.817	0.293	-0.160
-562.544	-169.277	-0.275	0.010
-561.529	800.000	0.039	-0.115
-560.515	-25.002	-0.198	0.118
-559.500	111.888	0.198	-0.241
-558.485	-73.566	-0.298	-0.110
-557.471	-120.226	-0.090	0.016
-556.456	503.894	0.154	-0.359
-555.442	28.753	-0.147	-0.125
-554.427	685.349	-0.028	-0.075
-553.412	-81.894	-0.167	-0.055
-552.398	800.000	-0.039	0.109
-551.383	-96.653	-0.264	0.070
-550.369	-22.600	0.151	-0.092
-549.354	-200.000	0.019	-0.281
-548.339	84.122	-0.144	-0.158
-547.325	-99.218	0.199	0.051
-546.310	91.478	-0.077	0.087
-545.296	-7.001	0.168	-0.115
-544.281	101.330	-0.230	-0.270
-543.266	800.000	0.066	-0.195
-542.252	16.478	0.199	-0.159
-541.237	253.474	0.083	-0.143
-540.223	191.834	-0.028	0.042
-539.208	-186.330	-0.302	0.004
-538.193	-200.000	0.020	-0.394
-537.179	-200.000	0.034	-0.237
-536.164	-200.000	0.021	-0.130
-535.150	5.173	0.200	0.148
-534.135	-66.751	-0.133	0.053
-533.121	-200.000	0.005	0.100
-532.106	-68.737	-0.316	0.123
-531.091	79.268	-0.069	-0.075
-530.077	-160.573	-0.243	0.013
-529.062	256.822	-0.173	-0.299
-528.048	-200.000	-0.020	0.165
-527.033	58.449	0.074	-0.073
-526.018	-200.000	-0.001	0.224
-525.004	-67.134	0.239	-0.095
-523.989	-200.000	0.035	-0.282
-522.975	35.829	0.162	0.143
-521.960	162.473	-0.055	0.078
-520.945	-200.000	-0.000	0.007
-519.931	45.755	-0.187	0.174
-518.916	292.151	0.095	-0.174
-517.902	-200.000	0.059	-0.471
-516.887	-200.000	-0.010	-0.195
-515.872	34.623	-0.213	0.187
-514.858	-200.000	0.051	-0.232
-513.843	800.000	0.067	-0.190
-512.829	510.571	0.040	0.094
-511.814	-58.284	0.203	-0.089
-510.799	-100.378	-0.141	0.035
-509.785	-200.000	0.002	-0.174
-508.770	33.684	0.321	-0.281
-507.756	201.672	0.090	-0.139
-506.741	-200.000	-0.018	0.143
-505.726	-113.223	-0.438	0.087
-504.712	130.776	-0.057	0.074
-503.697	476.572	-0.139	0.316
-502.683	-200.000	-0.035	0.217
-501.668	89.139	0.164	-0.184
-500.653	-200.000	-0.046	0.429
-499.639	-97.434	0.069	-0.018
-498.624	-135.001	0.439	-0.053
-497.610	-121.669	0.219	0.037
-496.595	89.625	0.057	0.064
-495.581	-166.190	0.168	-0.007
-494.566	-200.000	-0.007	0.043
-493.551	-133.262	-0.267	-0.034
-492.537	800.000	0.090	-0.273
-491.522	11.856	0.133	0.103
-490.508	-200.000	0.009	-0.194
-489.493	31.015	0.149	-0.129
-488.478	-200.000	0.025	-0.115
-487.464	800.000	0.010	-0.041
-486.449	800.000	-0.057	0.176
-485.435	-115.914	0.236	0.044
-484.420	-132.380	-0.060	-0.008
-483.405	-200.000	-0.037	-0.176
-482.391	615.407	0.087	0.220
-481.376	201.887	0.111	-0.172
-480.362	-12.537	0.295	0.194
-479.347	-165.586	0.150	-0.007
-478.332	-31.749	-0.010	-0.006
-477.318	800.000	-0.081	-0.241
-476.303	19.346	0.106	-0.086
-475.289	-200.000	-0.022	-0.191
-474.274	-84.510	0.138	-0.044
-473.259	86.224	0.106	-0.117
-472.245	-200.000	-0.001	0.095
-471.230	-160.766	0.090	-0.005
-470.216	716.821	0.058	0.154
-469.201	-68.267	0.100	-0.039
-468.186	-200.000	0.010	0.152
-467.172	-144.418	-0.333	-0.031
-466.157	-130.289	0.105	0.014
-465.143	-200.000	0.014	-0.077
-464.128	-73.981	-0.301	-0.110
-463.113	-143.857	-0.325	-0.031
-462.099	48.268	0.241	-0.227
-461.084	288.740	-0.168	-0.306
-460.070	103.996	-0.084	0.099
-459.055	36.563	0.110	0.098
-458.040	568.487	-0.089	-0.217
-457.026	33.350	-0.119	0.104
-456.011	317.883	-0.106	-0.201
-454.997	-71.037	0.126	-0.047
-453.982	-71.748	0.332	-0.124
-452.968	578.394	0.086	0.211
-451.953	-47.628	0.112	0.055
-450.938	155.134	-0.159	0.220
-449.924	800.000	0.097	-0.273
-448.909	-125.276	-0.181	0.028
-447.895	800.000	0.060	0.190
-446.880	-31.969	0.405	0.228
-445.865	-174.125	0.190	0.006
-444.851	8.428	-0.057	0.043
-443.836	-200.000	-0.006	0.097
-442.822	800.000	-0.143	-0.597
-441.807	308.663	0.137	-0.257
-440.792	800.000	-0.025	-0.079
-439.778	-26.973	0.111	0.065
-438.763	800.000	0.053	0.229
-437.749	60.958	-0.189	0.188
-436.734	-200.000	-0.013	0.146
-435.719	543.847	0.168	0.402
-434.705	800.000	0.028	0.089
-433.690	11.521	-0.395	-0.304
-432.676	-200.000	0.002	0.165
-431.661	-128.145	-0.132	-0.019
-430.646	156.026	-0.194	-0.268
-429.632	800.000	0.099	0.320
-428.617	20.547	0.068	0.055
-427.603	-200.000	-0.067	0.381
-426.588	-191.140	0.327	0.003
-425.573	-200.000	-0.006	0.032
-424.559	-99.840	-0.387	-0.097
-423.544	646.224	0.014	0.036
-422.530	-116.924	0.122	0.022
-421.515	800.000	-0.074	0.299
-420.500	-57.064	0.089	0.039
-419.486	400.413	-0.176	-0.370
-418.471	219.106	-0.052	0.083
-417.457	-148.958	0.113	-0.009
-416.442	-80.862	0.395	0.131
-415.428	10.100	-0.209	0.159
-414.413	567.316	0.037	0.090
-413.398	37.188	-0.103	0.091
-412.384	800.000	0.068	0.228
-411.369	-120.082	-0.210	-0.036
-410.355	529.802	-0.111	0.263
-409.340	211.234	0.134	-0.211
-408.325	110.386	0.134	-0.161
-407.311	-42.378	0.016	-0.008
-406.296	-200.000	0.013	0.059
-405.282	511.770	-0.056	0.131
-404.267	-200.000	0.051	0.310
-403.252	58.824	0.366	0.360
-402.238	-200.000	-0.008	0.181
-401.223	-53.277	0.078	0.036
-400.209	24.376	0.133	-0.110
-399.194	-88.040	0.185	0.056
-398.179	-73.495	-0.306	0.112
-397.165	-24.435	-0.294	0.176
-396.150	800.000	-0.020	-0.064
-395.136	-71.148	0.168	-0.063
-394.121	-200.000	-0.007	-0.139
-393.106	114.567	-0.143	0.175
-392.092	-140.237	0.307	0.032
-391.077	-127.822	0.329	-0.047
-390.063	180.974	-0.032	-0.047
-389.048	93.034	-0.070	-0.079
-388.033	29.996	0.046	0.039
-387.019	78.333	0.187	0.200
-386.004	-200.000	0.007	0.066
-384.990	800.000	-0.151	0.451
-383.975	-200.000	0.003	0.273
-382.960	198.024	-0.084	0.128
-381.946	-128.387	-0.091	-0.013
-380.931	-34.688	-0.169	0.092
-379.917	-72.966	0.210	0.077
-378.902	-92.049	-0.264	-0.075
-377.888	-200.000	-0.050	0.337
-376.873	161.947	-0.165	0.231
-375.858	-86.563	-0.193	-0.059
-374.844	800.000	-0.016	0.047
-373.829	196.427	-0.296	-0.451
-372.815	132.766	-0.167	-0.216
-371.800	-189.599	0.100	0.001
-370.785	119.869	0.033	0.041
-369.771	-200.000	0.047	-0.292
-368.756	32.591	-0.141	-0.122
-367.742	80.324	0.177	0.190
-366.727	800.000	0.059	0.211
-365.712	20.197	0.228	0.184
-364.698	-61.643	-0.257	0.108
-363.683	72.690	-0.148	-0.154
-362.669	-200.000	-0.000	-0.197
-361.654	193.111	0.122	0.184
-360.639	-48.190	0.291	-0.141
-359.625	639.580	0.035	-0.088
-358.610	10.434	0.007	-0.005
-357.596	-122.083	-0.196	-0.032
-356.581	74.879	0.011	0.012
-355.566	690.235	-0.080	0.211
-354.552	91.918	-0.080	0.090
-353.537	-158.226	-0.045	0.003
-352.523	-200.000	0.005	-0.082
-351.508	276.573	-0.145	-0.257
-350.493	-19.811	-0.260	-0.161
-349.479	794.494	-0.091	-0.250
-348.464	67.608	-0.113	-0.115
-347.450	60.653	0.244	0.242
-346.435	-200.000	0.020	-0.227
-345.420	124.931	0.081	-0.102
-344.406	800.000	-0.039	-0.150
-343.391	-200.000	-0.016	0.147
-342.377	-150.736	-0.294	0.022
-341.362	-32.686	-0.089	0.049
-340.348	-200.000	0.024	0.340
-339.333	263.732	-0.096	0.167
-338.318	-200.000	0.063	-0.284
-337.304	518.170	-0.131	0.306
-336.289	104.053	0.353	0.414
-335.275	-27.464	-0.060	-0.035
-334.260	-87.281	0.347	0.105
-333.245	-6.972	0.123	0.084
-332.231	-12.251	-0.245	-0.160
-331.216	-134.768	0.124	-0.015
-330.202	34.914	-0.061	-0.054
-329.187	265.951	0.110	0.192
-328.172	800.000	-0.050	0.212
-327.158	84.818	0.177	0.194
-326.143	-160.522	-0.430	-0.023
-325.129	-42.195	-0.169	-0.086
-324.114	120.456	0.184	0.228
-323.099	51.417	-0.101	0.095
-322.085	287.641	0.084	-0.152
-321.070	55.619	-0.161	-0.155
-320.056	-10.971	-0.050	-0.033
-319.041	-71.281	-0.128	0.048
-318.026	18.186	-0.295	-0.235
-317.012	-30.766	-0.124	-0.070
-315.997	800.000	-0.062	0.227
-314.983	-200.000	-0.021	-0.127
-313.968	18.306	-0.233	0.185
-312.953	-82.166	-0.176	-0.057
-311.939	-28.848	-0.357	-0.205
-310.924	-118.597	0.281	0.050
-309.910	320.978	-0.147	-0.278
-308.895	-77.652	-0.488	-0.168
-307.880	-12.885	-0.098	-0.064
-306.866	42.081	-0.263	-0.238
-305.851	343.614	-0.163	0.319
-304.837	-49.840	-0.257	-0.122
-303.822	-200.000	-0.024	0.211
-302.807	5.015	-0.134	-0.098
-301.793	-166.728	-0.258	0.011
-300.778	-200.000	0.050	-0.266
-299.764	-200.000	0.025	-0.300
-298.749	-200.000	0.006	-0.122
-297.735	636.078	0.030	0.077
-296.720	-15.079	0.141	0.090
-295.705	-64.935	0.120	-0.048
-294.691	800.000	0.123	-0.372
-293.676	-58.269	-0.082	0.035
-292.662	-200.000	-0.028	0.244
-291.647	-16.806	-0.196	-0.124
-290.632	188.928	-0.158	-0.236
-289.618	-200.000	0.001	0.078
-288.603	-117.992	0.222	-0.040
-287.589	-70.962	0.262	0.098
-286.574	-173.026	0.240	0.007
-285.559	800.000	-0.030	0.101
-284.545	75.897	-0.143	0.150
-283.530	-86.032	-0.243	0.075
-282.516	-106.925	-0.058	0.013
-281.501	72.021	0.087	-0.090
-280.486	-200.000	-0.044	0.295
-279.472	-128.457	0.055	-0.008
-278.457	800.000	0.078	-0.312
-277.443	-200.000	0.035	-0.210
-276.428	110.041	-0.244	0.292
-275.413	22.150	0.360	-0.293
-274.399	-181.204	-0.171	0.003
-273.384	210.514	-0.031	-0.049
-272.370	-36.614	0.112	-0.060
-271.355	-140.545	-0.118	0.012
-270.340	285.280	0.037	-0.066
-269.326	-200.000	-0.035	0.303
-268.311	133.006	0.174	0.224
-267.297	-11.870	0.214	0.140
-266.282	161.661	-0.217	-0.303
-265.267	800.000	0.055	0.171
-264.253	800.000	0.024	0.101
-263.238	-200.000	-0.010	-0.140
-262.224	-45.821	0.307	0.151
-261.209	154.389	-0.108	-0.148
-260.195	-106.571	-0.022	-0.005
-259.180	594.650	0.035	-0.085
-258.165	777.411	-0.098	-0.267
-257.151	-200.000	-0.207	0.001
-256.136	-72.647	0.373	-0.137
-255.122	-125.547	-0.157	0.024
-254.107	800.000	-0.017	0.052
-253.092	800.000	0.095	-0.287
-252.078	234.718	0.239	0.392
-251.063	-200.000	0.040	-0.261
-250.049	-81.300	0.388	0.127
-249.034	-189.692	-0.150	0.002
-248.019	336.456	0.091	0.176
-247.005	-165.812	-0.144	0.006
-245.990	39.348	-0.057	0.051
-244.976	-96.378	0.315	0.083
-243.961	-86.667	-0.136	-0.041
-242.946	-188.848	-0.373	-0.005
-241.932	-46.354	0.123	-0.060
-240.917	-123.141	-0.362	0.058
-239.903	-91.776	-0.020	0.006
-238.888	766.108	0.069	-0.186
-237.873	-92.635	0.145	0.041
-236.859	11.765	0.132	0.101
-235.844	138.436	0.118	-0.154
-234.830	46.159	0.088	-0.081
-233.815	281.448	-0.105	0.187
-232.800	-150.592	-0.126	-0.010
-231.786	-58.009	-0.375	0.163
-230.771	-200.000	-0.012	0.187
-229.757	-200.000	0.099	-0.473
-228.742	-200.000	-0.031	0.191
-227.727	800.000	0.076	-0.256
-226.713	800.000	-0.008	0.023
-225.698	315.897	0.081	-0.151
-224.684	341.250	0.067	0.131
-223.669	-159.603	0.043	0.002
-222.655	51.544	-0.063	-0.059
-221.640	34.056	0.122	-0.105
-220.625	-200.000	-0.021	0.130
-219.611	800.000	0.031	0.112
-218.596	-35.427	0.165	0.089
-217.582	-129.827	-0.103	0.014
-216.567	-19.106	0.124	0.077
-215.552	25.530	-0.243	0.201
-214.538	-108.120	0.410	0.088
-213.523	409.473	0.126	0.265
-212.509	-200.000	0.031	-0.169
-211.494	-200.000	0.028	0.169
-210.479	-5.300	0.147	-0.101
-209.465	223.043	0.118	0.189
-208.450	-200.000	0.019	-0.181
-207.436	212.482	-0.087	0.137
-206.421	-137.837	0.146	-0.016
-205.406	-200.000	0.066	-0.296
-204.392	491.171	0.060	-0.135
-203.377	27.354	0.079	-0.066
-202.363	800.000	0.034	0.145
-201.348	98.062	0.172	-0.197
-200.333	-44.864	0.152	0.076
-199.319	-200.000	0.063	0.391
-198.304	424.196	0.064	0.137
-197.290	54.914	-0.155	-0.149
-196.275	-173.499	-0.355	0.011
-195.260	-130.003	0.129	0.017
-194.246	162.933	0.106	-0.147
-193.231	371.108	0.024	-0.048
-192.217	-200.000	0.034	-0.187
-191.202	800.000	-0.038	-0.139
-190.187	541.643	-0.063	0.149
-189.173	-18.895	-0.143	0.089
-188.158	-200.000	0.014	0.173
-187.144	210.412	0.261	-0.407
-186.129	-200.000	0.004	-0.081
-185.114	17.284	0.372	0.294
-184.100	-200.000	0.036	-0.298
-183.085	-6.531	0.112	0.076
-182.071	114.212	0.366	-0.442
-181.056	776.392	0.025	-0.067
-180.042	108.566	0.185	0.219
-179.027	317.590	0.039	-0.072
-178.012	-200.000	0.003	0.064
-176.998	164.774	0.205	-0.288
-175.983	98.917	-0.121	0.139
-174.969	-113.512	-0.281	-0.055
-173.954	-70.506	-0.048	-0.018
-172.939	800.000	-0.068	-0.196
-171.925	-116.904	-0.300	-0.054
-170.910	-200.000	0.005	0.030
-169.896	-200.000	-0.008	0.154
-168.881	257.902	-0.129	0.221
-167.866	-200.000	0.013	-0.273
-166.852	-181.286	-0.168	-0.003
-165.837	3.428	0.224	0.162
-164.823	-200.000	0.005	0.161
-163.808	-30.965	-0.063	0.036
-162.793	-200.000	0.018	0.164
-161.779	7.728	0.193	-0.144
-160.764	198.197	0.088	0.133
-159.750	191.907	0.081	0.121
-158.735	203.649	0.164	0.251
-157.720	800.000	-0.025	-0.093
-156.706	496.290	0.112	0.256
-155.691	-137.115	0.523	-0.059
-154.677	-91.912	0.121	-0.034
-153.662	-200.000	-0.013	0.129
-152.647	27.514	0.110	0.092
-151.633	133.749	-0.070	0.090
-150.618	175.320	0.112	0.161
-149.604	77.497	-0.182	-0.192
-148.589	133.216	-0.261	0.334
-147.574	-88.256	0.183	-0.054
-146.560	104.089	-0.175	-0.204
-145.545	-138.275	0.170	-0.019
-144.531	-126.446	-0.516	-0.076
-143.516	800.000	0.051	0.163
-142.502	-96.269	0.191	0.050
-141.487	-52.618	-0.177	0.081
-140.472	800.000	-0.035	0.123
-139.458	74.314	0.103	-0.107
-138.443	58.787	0.096	0.093
-137.429	410.838	0.025	0.053
-136.414	137.893	0.196	0.255
-135.399	-70.199	-0.142	0.053
-134.385	48.026	0.175	0.162
-133.370	-75.096	0.187	0.066
-132.356	10.608	-0.078	-0.059
-131.341	-40.705	0.296	-0.152
-130.326	10.612	-0.153	0.116
-129.312	-33.123	0.094	0.052
-128.297	289.327	0.058	0.104
-127.283	4.781	0.147	-0.107
-126.268	7.641	0.388	0.288
-125.253	22.274	0.176	-0.142
-124.239	-111.627	-0.143	-0.029
-123.224	-41.235	-0.138	-0.071
-122.210	126.939	0.037	-0.047
-121.195	61.153	0.214	-0.211
-120.180	88.255	-0.204	0.225
-119.166	-166.093	-0.143	0.006
-118.151	134.285	-0.102	-0.131
-117.137	-98.202	0.490	0.125
-116.122	-200.000	0.031	0.170
-115.107	-107.786	0.160	-0.035
-114.093	800.000	0.055	-0.202
-113.078	-118.665	0.098	-0.017
-112.064	17.595	-0.180	0.141
-111.049	389.902	0.088	-0.180
-110.034	-47.807	0.180	-0.086
-109.020	800.000	-0.112	-0.367
-108.005	-128.501	-0.195	0.027
-106.991	10.013	0.140	-0.105
-105.976	285.382	0.091	-0.162
-104.962	41.198	0.098	-0.087
-103.947	-95.527	-0.264	-0.070
-102.932	234.262	0.095	0.154
-101.918	206.506	0.038	0.059
-100.903	-26.351	-0.129	-0.075
-99.889	-61.843	0.228	-0.095
-98.874	800.000	-0.027	-0.096
-97.859	-95.941	0.345	-0.091
-96.845	-76.239	-0.130	-0.045
-95.830	-200.000	0.012	0.075
-94.816	-200.000	-0.006	-0.069
-93.801	55.910	0.056	-0.054
-92.786	800.000	0.031	0.115
-91.772	-200.000	0.071	-0.439
-90.757	574.869	-0.126	-0.304
-89.743	98.504	0.196	0.223
-88.728	25.685	0.110	0.090
-87.713	443.805	0.066	0.142
-86.699	27.101	0.164	0.136
-85.684	-200.000	0.030	-0.201
-84.670	345.371	0.086	-0.167
-83.655	-117.693	-0.120	-0.021
-82.640	-156.052	0.113	0.007
-81.626	-120.586	0.338	0.057
-80.611	-49.991	0.155	0.073
-79.597	-66.903	-0.114	-0.045
-78.582	800.000	0.042	0.138
-77.567	-200.000	0.001	0.052
-76.553	-91.919	-0.088	0.025
-75.538	-55.875	0.197	0.087
-74.524	800.000	0.031	-0.092
-73.509	11.225	-0.087	-0.066
-72.494	-165.807	-0.128	0.005
-71.480	409.671	-0.263	-0.551
-70.465	11.618	-0.132	-0.100
-69.451	158.114	0.166	0.227
-68.436	32.062	0.108	-0.092
-67.422	-200.000	0.014	0.063
-66.407	-118.073	0.527	0.093
-65.392	-104.872	0.305	0.069
-64.378	-83.428	0.547	0.173
-63.363	-82.377	-0.378	0.121
-62.349	-8.669	0.226	-0.150
-61.334	-0.903	-1.123	-0.786
-60.319	640.358	0.171	0.430
-59.305	438.739	-0.457	-0.986
-58.290	163.246	0.685	0.951
-57.276	139.291	1.077	1.401
-56.261	-200.000	95.935	546.713
-55.246	501.619	1421.136	3243.252
-54.232	144.334	2647.974	3492.976
-53.217	109.344	2245.613	2656.920
-52.203	44.528	1768.812	1606.029
-51.188	37.355	1577.008	1381.071
-50.173	34.994	1549.535	1340.441
-49.159	52.339	1599.591	1507.677
-48.144	55.126	1618.452	1545.261
-47.130	37.869	1574.151	1381.993
-46.115	34.588	1558.406	1345.045
-45.100	34.461	1555.001	1341.155
-44.086	34.485	1552.904	1339.467
-43.071	34.342	1551.536	1337.230
-42.057	34.299	1549.711	1335.299
-41.042	34.282	1548.306	1333.916
-40.027	34.315	1547.238	1333.177
-39.013	34.360	1545.183	1331.667
-37.998	34.414	1543.891	1330.875
-36.984	34.348	1542.920	1329.527
-35.969	34.342	1541.395	1328.119
-34.954	34.352	1539.610	1326.597
-33.940	34.390	1538.621	1325.954
-32.925	34.308	1537.294	1324.194
-31.911	34.475	1535.727	1323.949
-30.896	34.542	1534.023	1322.895
-29.881	34.407	1533.167	1321.167
-28.867	34.384	1531.883	1319.845
-27.852	34.440	1530.213	1318.740
-26.838	34.533	1528.834	1318.141
-25.823	34.515	1527.055	1316.433
-24.809	34.363	1525.604	1314.085
-23.794	34.405	1524.224	1313.130
-22.779	34.426	1523.361	1312.480
-21.765	34.368	1522.380	1311.186
-20.750	34.492	1520.279	1310.176
-19.736	34.422	1520.018	1309.417
-18.721	34.371	1518.796	1307.964
-17.706	34.342	1517.995	1307.022
-16.692	34.348	1516.624	1305.828
-15.677	34.323	1515.694	1304.807
-14.663	34.300	1515.060	1304.052
-13.648	34.352	1513.715	1303.196
-12.633	34.391	1512.306	1302.200
-11.619	34.289	1512.081	1301.257
-10.604	34.346	1511.301	1300.922
-9.590	34.267	1510.180	1299.367
-8.575	34.377	1508.865	1298.935
-7.560	34.413	1507.901	1298.301
-6.546	34.318	1507.219	1297.016
-5.531	34.275	1506.320	1295.898
-4.517	34.296	1505.281	1295.095
-3.502	34.281	1504.751	1294.486
-2.487	34.282	1503.221	1293.120
-1.473	34.393	1502.174	1292.926
-0.458	34.377	1501.096	1291.837
0.556	33.195	1491.789	1281.519
1.571	30.440	1464.173	1239.333
2.586	26.647	1400.093	1160.733
3.600	24.258	1313.423	1074.406
4.615	22.234	1265.675	1023.488
5.629	19.080	1207.038	958.450
6.644	9.871	1117.525	839.595
7.659	2.048	1073.348	767.131
8.673	0.716	1067.464	756.200
9.688	0.693	1064.109	753.641
10.702	0.574	1062.863	752.098
11.717	0.537	1061.166	750.646
12.731	3.194	1063.895	765.745
13.746	11.860	1076.022	817.863
14.761	17.702	1082.532	852.019
15.775	17.564	1081.883	850.739
16.790	16.732	1080.202	845.194
17.804	15.758	1077.615	838.243
18.819	14.916	1075.782	832.553
19.834	14.503	1074.613	829.523
20.848	14.210	1073.322	826.997
21.863	13.990	1072.095	824.884
22.877	13.622	1071.721	822.697
23.892	13.442	1071.005	821.180
24.907	13.497	1069.503	820.231
25.921	13.409	1069.679	819.857
26.936	13.422	1068.478	818.929
27.950	13.370	1068.269	818.436
28.965	13.554	1066.814	818.159
29.980	13.495	1066.221	817.340
30.994	13.568	1065.079	816.752
32.009	13.621	1063.937	816.065
33.023	13.601	1063.234	815.356
34.038	13.566	1062.773	814.759
35.053	13.599	1061.750	814.063
36.067	13.633	1060.527	813.221
37.082	13.657	1059.645	812.592
38.096	13.599	1059.336	811.997
39.111	13.588	1058.611	811.317
40.126	13.596	1057.420	810.370
41.140	13.537	1056.038	808.951
42.155	13.560	1055.388	808.495
43.169	13.407	1055.042	807.413
44.184	13.401	1053.670	806.259
45.199	13.382	1052.580	805.262
46.213	13.510	1051.281	804.819
47.228	13.490	1050.287	803.893
48.242	13.437	1049.720	803.130
49.257	13.539	1048.247	802.425
50.271	13.579	1047.259	801.789
51.286	13.550	1046.558	801.044
52.301	13.453	1045.905	800.003
53.315	13.546	1044.969	799.666
54.330	13.471	1044.864	799.151
55.344	13.403	1043.608	797.792
56.359	13.383	1042.834	797.037
57.374	13.528	1041.429	796.590
58.388	13.354	1040.953	795.315
59.403	13.462	1039.985	795.028
60.417	13.403	1039.153	794.039
61.432	13.337	1038.273	792.978
62.447	13.385	1037.841	792.808
63.461	13.275	1036.938	791.519
64.476	13.391	1035.717	791.075
65.490	13.315	1035.041	790.125
66.505	13.283	1034.484	789.477
67.520	13.326	1033.352	788.750
68.534	13.393	1032.266	788.168
69.549	13.340	1031.646	787.374
70.563	13.396	1031.160	787.200
71.578	13.199	1030.495	785.686
72.593	13.336	1029.708	785.665
73.607	13.380	1028.097	784.576
74.622	13.358	1027.422	783.886
75.636	13.402	1026.733	783.498
76.651	13.312	1025.988	782.435
77.666	13.353	1025.054	781.850
78.680	13.252	1024.793	781.101
79.695	13.332	1024.381	781.099
80.709	13.291	1023.603	780.241
81.724	13.363	1022.515	779.684
82.739	13.311	1021.736	778.774
83.753	13.293	1021.584	778.508
84.768	13.560	1019.906	778.414
85.782	13.492	1019.605	777.797
86.797	13.646	1018.636	777.708
87.812	13.765	1017.726	777.503
88.826	13.442	1017.155	775.485
89.841	13.467	1016.475	775.016
90.855	13.376	1015.843	774.038
91.870	13.469	1014.697	773.531
92.884	13.534	1013.966	773.210
93.899	13.603	1012.932	772.675
94.914	13.615	1012.475	772.315
95.928	13.604	1011.792	771.672
96.943	13.548	1011.585	771.187
97.957	13.574	1010.276	770.242
98.972	13.669	1009.237	769.823
99.987	13.570	1008.584	768.799
101.001	13.597	1008.056	768.450
102.016	13.592	1007.158	767.674
103.030	13.479	1006.195	766.350
104.045	13.717	1004.616	766.180
105.060	13.601	1004.146	765.220
106.074	13.489	1003.488	764.131
107.089	13.432	1002.688	763.193
108.103	13.474	1001.726	762.588
109.118	13.472	1001.024	761.976
110.133	13.421	999.639	760.620
111.147	13.343	999.002	759.709
112.162	13.394	997.876	759.018
113.176	13.488	997.396	759.017
114.191	13.519	996.190	758.174
115.206	13.537	995.379	757.572
116.220	13.518	994.528	756.772
117.235	13.510	993.687	756.028
118.249	13.557	993.022	755.671
119.264	13.562	991.671	754.599
120.279	13.457	991.081	753.604
121.293	13.459	990.591	753.173
122.308	13.523	989.305	752.421
123.322	13.454	988.631	751.526
124.337	13.516	987.676	751.018
125.352	13.384	986.656	749.578
126.366	13.440	985.678	749.020
127.381	13.453	984.368	748.018
128.395	13.488	983.529	747.474
129.410	13.498	982.059	746.336
130.424	13.460	980.983	745.280
131.439	13.539	980.363	745.099
132.454	13.621	979.540	744.776
133.468	13.683	978.738	744.376
134.483	13.649	978.405	743.903
135.497	13.553	977.756	742.917
136.512	13.593	976.558	742.117
137.527	13.587	975.887	741.518
138.541	13.567	975.012	740.698
139.556	13.591	974.503	740.351
140.570	13.620	973.699	739.806
141.585	13.593	972.862	738.984
142.600	13.551	972.319	738.317
143.614	13.604	971.303	737.719
144.629	13.607	970.780	737.268
145.643	13.600	969.782	736.412
146.658	13.652	969.318	736.227
147.673	13.600	968.069	734.981
148.687	13.659	966.583	734.053
149.702	13.637	966.026	733.466
150.716	13.477	965.617	732.380
151.731	13.624	964.709	732.278
152.746	13.554	963.213	730.768
153.760	13.474	963.260	730.387
154.775	13.609	962.418	730.278
155.789	13.638	961.678	729.782
156.804	13.665	960.730	729.118
157.819	13.626	960.199	728.477
158.833	13.831	959.210	728.561
159.848	13.832	958.415	727.898
160.862	13.665	957.821	726.652
161.877	13.806	956.738	726.381
162.892	13.762	956.248	725.755
163.906	13.752	955.556	725.118
164.921	13.630	955.002	724.104
165.935	13.821	953.653	723.851
166.950	13.750	952.799	722.826
167.964	13.800	952.001	722.373
168.979	13.881	950.654	721.643
169.994	13.779	949.772	720.464
171.008	13.790	948.957	719.833
172.023	13.829	948.469	719.564
173.037	13.804	947.749	718.850
174.052	13.921	946.645	718.455
175.067	13.901	945.614	717.522
176.081	13.903	945.326	717.249
177.096	13.764	944.569	716.010
178.110	13.746	943.747	715.243
179.125	13.911	942.761	715.147
180.140	13.881	942.301	714.605
181.154	13.796	941.598	713.641
182.169	13.985	941.296	714.165
183.183	13.885	940.536	713.092
184.198	13.941	939.683	712.624
185.213	14.003	938.815	712.169
186.227	14.066	938.015	711.770
187.242	14.022	937.859	711.401
188.256	14.005	937.270	710.818
189.271	14.024	936.406	710.178
190.286	14.135	934.920	709.462
191.300	14.044	934.626	708.790
192.315	14.003	933.913	708.012
193.329	13.846	933.315	706.828
194.344	13.952	932.467	706.574
195.359	14.004	932.018	706.390
196.373	14.098	931.335	706.211
197.388	14.119	930.717	705.768
198.402	14.135	930.367	705.509
199.417	14.255	929.861	705.569
200.432	14.214	929.396	704.981
201.446	14.252	928.865	704.679
202.461	14.273	928.543	704.458
203.475	14.374	927.722	704.202
204.490	14.386	927.628	704.118
205.504	14.286	926.304	702.628
206.519	14.271	925.257	701.710
207.534	14.319	924.989	701.648
208.548	14.350	923.671	700.717
209.563	14.253	923.322	699.980
210.577	14.275	922.252	699.200
211.592	14.301	922.178	699.192
212.607	14.443	921.223	699.001
213.621	14.335	920.800	698.165
214.636	14.372	920.117	697.741
215.650	14.409	919.755	697.560
216.665	14.347	919.137	696.769
217.680	14.440	918.004	696.235
218.694	14.474	917.602	696.012
219.709	14.508	917.440	695.969
220.723	14.512	916.546	695.248
221.738	14.456	915.843	694.420
222.753	14.465	915.111	693.840
223.767	14.541	914.194	693.401
224.782	14.492	913.422	692.548
225.796	14.582	912.772	692.369
226.811	14.569	912.382	691.958
227.826	14.618	911.757	691.625
228.840	14.749	910.852	691.421
229.855	14.765	909.868	690.680
230.869	14.699	909.434	690.015
231.884	14.640	909.067	689.432
232.899	14.519	908.155	688.177
233.913	14.600	907.494	687.951
234.928	14.545	906.652	687.027
235.942	14.577	906.041	686.636
236.957	14.491	905.243	685.615
237.972	14.537	904.339	685.058
238.986	14.604	904.010	685.025
240.001	14.512	903.700	684.351
241.015	14.659	902.571	684.039
242.030	14.678	902.054	683.661
243.045	14.790	901.265	683.463
244.059	14.647	900.652	682.352
245.074	14.698	900.027	682.027
246.088	14.709	899.553	681.653
247.103	14.867	898.584	681.502
248.117	14.820	897.872	680.709
249.132	14.828	897.914	680.715
250.147	14.829	896.889	679.879
251.161	14.964	896.363	679.970
252.176	14.976	895.774	679.514
253.190	14.962	895.342	679.068
254.205	15.105	893.968	678.544
255.220	14.974	893.748	677.789
256.234	15.112	892.878	677.625
257.249	15.090	892.505	677.196
258.263	15.172	892.132	677.182
259.278	15.235	891.495	676.892
260.293	15.040	891.135	675.775
261.307	15.261	890.369	676.025
262.322	15.282	889.692	675.535
263.336	15.270	889.180	675.038
264.351	15.275	888.543	674.516
265.366	15.281	887.679	673.822
266.380	15.243	887.266	673.297
267.395	15.355	886.795	673.331
268.409	15.385	885.284	672.242
269.424	15.299	885.229	671.797
270.439	15.363	884.652	671.557
271.453	15.341	883.401	670.460
272.468	15.174	882.968	669.403
273.482	15.347	882.125	669.397
274.497	15.316	881.924	669.061
275.512	15.299	881.191	668.377
276.526	15.371	880.447	668.041
277.541	15.369	879.442	667.211
278.555	15.324	879.001	666.640
279.570	15.354	878.721	666.487
280.585	15.570	877.844	666.621
281.599	15.438	877.601	665.852
282.614	15.482	876.985	665.502
283.628	15.491	876.271	664.939
284.643	15.562	876.031	664.977
285.657	15.471	875.121	663.868
286.672	15.585	874.553	663.826
287.687	15.574	874.456	663.654
288.701	15.676	873.312	663.127
289.716	15.507	872.899	662.090
290.730	15.603	872.279	661.937
291.745	15.621	871.608	661.440
292.760	15.574	870.902	660.661
293.774	15.626	869.925	660.067
294.789	15.703	869.749	660.179
295.803	15.749	868.814	659.589
296.818	15.657	868.471	658.912
297.833	15.700	867.747	658.472
298.847	15.797	866.610	657.929
299.862	15.724	866.340	657.382
300.876	15.844	865.701	657.304
301.891	15.746	865.171	656.464
302.906	15.798	864.486	656.087
303.920	15.901	863.955	656.029
304.935	15.840	863.184	655.147
305.949	15.848	862.786	654.821
306.964	15.923	862.077	654.516
307.979	15.964	861.069	653.850
308.993	15.869	860.911	653.303
310.008	16.059	860.156	653.410
311.022	15.917	859.532	652.329
312.037	16.050	859.380	652.670
313.052	15.943	858.872	651.812
314.066	15.967	858.528	651.587
315.081	15.860	857.147	650.069
316.095	15.973	856.864	650.231
317.110	15.913	856.343	649.545
318.125	15.991	855.670	649.280
319.139	16.002	855.220	648.924
320.154	15.896	855.345	648.551
321.168	15.980	854.428	648.121
322.183	15.887	853.674	647.137
323.197	15.986	852.948	646.907
324.212	16.021	852.612	646.732
325.227	16.118	852.239	646.762
326.241	15.907	851.998	645.715
327.256	16.009	851.457	645.636
328.270	16.004	850.299	644.681
329.285	16.137	849.620	644.620
330.300	16.120	849.242	644.210
331.314	16.156	848.567	643.777
332.329	16.315	847.705	643.673
333.343	16.207	847.184	642.810
334.358	16.135	846.902	642.264
335.373	16.266	846.348	642.286
336.387	16.266	845.284	641.422
337.402	16.428	844.877	641.671
338.416	16.342	844.504	641.005
339.431	16.328	843.958	640.482
340.446	16.379	843.741	640.453
341.460	16.386	842.957	639.829
342.475	16.400	842.251	639.290
343.489	16.351	841.753	638.669
344.504	16.352	841.376	638.330
345.519	16.457	840.808	638.240
346.533	16.562	839.900	637.888
347.548	16.580	839.819	637.841
348.562	16.436	839.696	637.148
349.577	16.437	838.783	636.399
350.592	16.573	837.957	636.230
351.606	16.497	837.804	635.772
352.621	16.385	837.626	635.158
353.635	16.440	836.761	634.652
354.650	16.556	835.958	634.422
355.665	16.405	836.068	633.884
356.679	16.676	835.248	634.223
357.694	16.477	834.921	633.174
358.708	16.561	834.234	632.910
359.723	16.711	833.473	632.837
360.738	16.603	832.965	631.993
361.752	16.627	832.799	631.900
362.767	16.716	832.394	631.868
363.781	16.715	832.032	631.535
364.796	16.841	831.300	631.391
365.810	16.681	830.898	630.437
366.825	16.818	830.524	630.604
367.840	16.897	829.943	630.402
368.854	16.837	829.637	629.889
369.869	16.873	829.150	629.599
370.883	16.896	828.271	628.961
371.898	17.059	827.881	629.213
372.913	16.935	827.255	628.225
373.927	17.044	826.700	628.149
374.942	17.147	825.914	627.877
375.956	16.744	825.928	626.343
376.971	16.910	825.090	626.266
377.986	17.004	824.505	626.113
379.000	17.160	823.732	626.044
380.015	17.110	823.333	625.500
381.029	17.088	823.025	625.131
382.044	17.086	822.269	624.494
383.059	17.149	821.420	624.025
384.073	17.217	820.916	623.838
385.088	17.135	820.542	623.198
386.102	17.064	820.312	622.706
387.117	16.993	819.716	621.941
388.132	17.008	819.609	621.858
389.146	17.043	818.965	621.442
390.161	17.038	818.534	621.044
391.175	17.157	818.138	621.123
392.190	17.052	817.640	620.304
393.205	17.245	816.972	620.447
394.219	17.122	816.888	619.880
395.234	17.372	815.915	619.997
396.248	17.102	815.702	618.799
397.263	17.176	815.001	618.483
398.278	17.214	814.815	618.421
399.292	17.144	814.540	617.904
400.307	17.228	813.827	617.615
401.321	17.089	813.627	616.905
402.336	17.202	812.810	616.639
403.350	17.277	812.760	616.819
404.365	17.289	812.143	616.341
405.380	17.327	811.863	616.212
406.394	17.386	811.214	615.878
407.409	17.329	810.863	615.350
408.423	17.498	810.069	615.305
409.438	17.511	809.714	615.027
410.453	17.569	809.086	614.704
411.467	17.516	809.021	614.408
412.482	17.488	808.579	613.918
413.496	17.650	807.703	613.784
414.511	17.638	807.634	613.634
415.526	17.562	807.229	612.996
416.540	17.488	807.313	612.740
417.555	17.701	806.326	612.701
418.569	17.592	806.076	612.066
419.584	17.577	805.525	611.541
420.599	17.553	804.974	610.983
421.613	104.578	1284.852	1444.956
422.628	89.976	1354.769	1445.061
