DTS Sentinel unit serial number:	SN413079Multiplexer serial number:	ORYXHardware model number:	OX4-SRSoftware version number:	ORYX F/W v4.00 Oryx Data Collector v3.7.2.0data status	okinstallation	princeton_trtdifferential loss correction	single-endedforward channel	channel 3reverse channel	N/Adate	2019/09/13time	12:44:35forward acquisition time	60.00reverse acquisition time	0.00gamma	496.2192k internal	0.2303k external	0.2303temperature offset calibration	1.0149default loss term (dB/km)	0.3790temperature slope calibration	1.0000multiplexer offset coefficient	1.0000multiplexer slope coefficient	1.0000fibre end	0.00T internal ref (°C)	34.69T ext. ref 1 (°C)	4.58T ext. ref 2 (°C)	30.54length (m)	temperature (°C)	Stokes	anti-Stokes-747.200	309.966	-0.088	0.168
-746.185	137.435	0.208	0.278
-745.171	556.328	-0.010	-0.025
-744.156	-200.000	-0.011	0.112
-743.142	366.948	-0.089	0.182
-742.127	-200.000	0.014	0.190
-741.112	-156.799	0.323	-0.020
-740.098	-55.991	-0.071	-0.032
-739.083	109.525	0.199	-0.242
-738.069	395.682	0.154	0.328
-737.054	41.854	0.217	-0.200
-736.039	-54.140	-0.574	-0.265
-735.025	800.000	-0.062	0.184
-734.010	-40.674	-0.259	-0.137
-732.996	-57.098	-0.164	-0.073
-731.981	-200.000	-0.024	-0.257
-730.966	-88.379	0.058	-0.018
-729.952	-99.542	-0.256	-0.066
-728.937	74.887	-0.139	0.149
-727.923	-129.561	-0.045	0.006
-726.908	165.800	-0.113	-0.163
-725.894	-152.587	-0.226	0.016
-724.879	-67.520	-0.361	-0.144
-723.864	51.684	-0.213	0.207
-722.850	-122.277	0.279	0.046
-721.835	-67.729	0.222	-0.088
-720.821	423.299	-0.014	-0.031
-719.806	5.890	0.252	-0.190
-718.791	-42.893	-0.466	0.241
-717.777	-0.997	0.117	-0.084
-716.762	-85.240	-0.187	0.060
-715.748	-47.027	0.285	0.141
-714.733	96.726	-0.152	0.177
-713.718	800.000	0.052	-0.175
-712.704	-67.092	0.188	-0.075
-711.689	630.082	0.076	0.195
-710.675	69.563	0.243	0.254
-709.660	126.438	0.303	-0.390
-708.645	-200.000	0.022	-0.108
-707.631	-45.556	-0.162	-0.081
-706.616	47.924	0.221	-0.210
-705.602	-20.764	-0.226	0.141
-704.587	95.141	-0.125	-0.145
-703.572	3.734	-0.160	-0.119
-702.558	246.561	-0.083	0.142
-701.543	418.060	-0.060	-0.130
-700.529	107.381	0.071	0.086
-699.514	-24.925	-0.285	-0.172
-698.499	99.032	-0.142	0.166
-697.485	257.127	-0.054	-0.095
-696.470	800.000	-0.054	-0.220
-695.456	-156.424	-0.273	0.017
-694.441	191.463	0.019	0.029
-693.426	-101.054	0.158	0.039
-692.412	26.854	0.331	0.282
-691.397	198.581	0.138	-0.215
-690.383	295.075	0.089	0.165
-689.368	373.997	0.046	0.096
-688.354	373.803	0.098	-0.203
-687.339	-200.000	0.037	-0.247
-686.324	-99.861	0.091	-0.023
-685.310	-200.000	-0.029	0.349
-684.295	68.482	-0.136	-0.141
-683.281	76.618	0.209	-0.225
-682.266	800.000	-0.100	0.304
-681.251	-91.550	-0.233	-0.067
-680.237	489.856	-0.064	-0.149
-679.222	-35.620	-0.115	-0.063
-678.208	141.846	0.225	-0.303
-677.193	-29.380	0.226	-0.131
-676.178	703.290	0.072	0.192
-675.164	304.134	-0.060	0.114
-674.149	-200.000	0.005	-0.107
-673.135	800.000	0.080	0.233
-672.120	-81.135	-0.267	-0.090
-671.105	-64.190	-0.172	0.071
-670.091	-48.347	0.320	0.157
-669.076	40.620	-0.042	0.039
-668.062	-51.502	-0.030	-0.014
-667.047	72.631	0.259	0.274
-666.032	66.383	-0.216	-0.223
-665.018	192.505	0.083	-0.127
-664.003	51.134	0.054	-0.052
-662.989	58.156	-0.235	0.234
-661.974	22.093	-0.155	-0.128
-660.959	-200.000	-0.004	0.074
-659.945	435.461	-0.084	0.186
-658.930	-51.926	-0.096	-0.045
-657.916	103.614	0.040	-0.048
-656.901	0.508	-0.089	-0.065
-655.886	-123.933	0.115	0.018
-654.872	245.836	0.157	0.268
-653.857	75.911	0.324	-0.348
-652.843	550.455	0.066	0.160
-651.828	254.641	0.169	0.293
-650.814	-200.000	0.059	-0.388
-649.799	126.355	-0.254	-0.326
-648.784	-200.000	-0.045	-0.203
-647.770	397.375	0.086	0.182
-646.755	16.040	0.290	-0.231
-645.741	-200.000	0.000	0.097
-644.726	-108.099	0.049	-0.011
-643.711	-200.000	0.003	0.138
-642.697	192.111	-0.032	-0.049
-641.682	-55.877	-0.027	-0.012
-640.668	-127.652	-0.516	0.076
-639.653	28.455	-0.219	-0.187
-638.638	300.241	0.132	0.248
-637.624	-200.000	-0.039	0.183
-636.609	148.805	0.097	0.132
-635.595	-89.692	0.152	0.045
-634.580	32.684	-0.187	-0.164
-633.565	32.670	-0.288	-0.253
-632.551	18.885	-0.158	0.128
-631.536	-96.511	-0.149	0.040
-630.522	-200.000	0.038	-0.472
-629.507	-38.556	-0.099	-0.053
-628.492	-178.005	0.170	0.004
-627.478	-22.204	0.120	0.074
-626.463	-63.758	-0.276	0.114
-625.449	800.000	-0.010	-0.032
-624.434	256.230	-0.236	-0.410
-623.419	191.465	0.105	-0.161
-622.405	-119.808	0.297	0.052
-621.390	-200.000	-0.020	-0.122
-620.376	451.572	-0.127	0.284
-619.361	-200.000	0.005	0.264
-618.346	-116.406	-0.433	-0.081
-617.332	-200.000	0.031	-0.178
-616.317	-192.047	-0.343	0.003
-615.303	-127.081	-0.268	0.040
-614.288	-0.615	-0.303	-0.218
-613.273	-200.000	0.017	-0.341
-612.259	86.869	-0.143	0.160
-611.244	-133.882	-0.027	0.003
-610.230	-113.654	0.229	-0.045
-609.215	-10.630	-0.405	0.272
-608.201	800.000	0.093	-0.386
-607.186	-60.212	0.268	-0.116
-606.171	-67.483	-0.133	-0.053
-605.157	-8.395	-0.030	-0.021
-604.142	-61.967	-0.030	0.013
-603.128	-33.208	0.051	0.029
-602.113	800.000	-0.128	-0.383
-601.098	608.956	0.060	-0.153
-600.084	238.445	0.125	0.210
-599.069	76.051	0.211	-0.226
-598.055	-200.000	0.011	-0.140
-597.040	-200.000	0.031	-0.319
-596.025	-12.710	-0.276	-0.182
-595.011	662.636	-0.046	0.121
-593.996	374.158	-0.060	-0.123
-592.982	800.000	-0.070	0.221
-591.967	-127.627	-0.112	-0.016
-590.952	-69.475	0.230	0.089
-589.938	68.332	-0.115	0.119
-588.923	-104.863	-0.051	0.012
-587.909	657.846	-0.047	0.122
-586.894	800.000	0.035	-0.114
-585.879	2.885	0.063	0.046
-584.865	-3.055	-0.032	-0.023
-583.850	-32.024	-0.181	-0.102
-582.836	-165.812	-0.503	0.022
-581.821	-88.578	-0.263	-0.079
-580.806	557.840	0.089	0.218
-579.792	-59.388	-0.309	-0.134
-578.777	800.000	-0.032	-0.142
-577.763	-88.326	0.202	-0.061
-576.748	49.001	0.144	-0.137
-575.733	-4.836	0.231	-0.161
-574.719	800.000	0.106	-0.408
-573.704	-200.000	0.018	-0.111
-572.690	19.096	-0.142	0.115
-571.675	-170.296	-0.118	-0.004
-570.661	-181.148	0.084	-0.002
-569.646	-200.000	0.022	0.393
-568.631	-90.123	0.303	0.089
-567.617	-54.364	0.216	-0.099
-566.602	-90.789	0.235	0.068
-565.588	40.645	-0.281	0.256
-564.573	-32.611	-0.146	0.082
-563.558	309.082	-0.054	0.102
-562.544	-200.000	-0.004	-0.202
-561.529	74.069	0.170	-0.181
-560.515	-152.251	-0.145	-0.011
-559.500	39.812	0.127	0.116
-558.485	-33.874	0.101	-0.056
-557.471	-69.108	-0.162	0.063
-556.456	-127.650	0.149	0.022
-555.442	-161.656	-0.050	-0.003
-554.427	-59.244	-0.320	0.140
-553.412	-200.000	0.003	-0.094
-552.398	63.022	0.069	-0.070
-551.383	-150.256	-0.166	0.013
-550.369	-154.595	-0.325	-0.022
-549.354	-152.072	-0.066	0.005
-548.339	191.250	0.048	0.074
-547.325	54.416	0.150	-0.146
-546.310	434.028	-0.130	0.285
-545.296	90.766	-0.154	0.175
-544.281	-200.000	0.059	-0.320
-543.266	-200.000	0.009	0.048
-542.252	-200.000	-0.067	-0.336
-541.237	0.272	-0.078	0.056
-540.223	800.000	0.050	0.199
-539.208	-79.619	0.125	-0.043
-538.193	800.000	-0.050	-0.207
-537.179	-62.874	-0.047	0.020
-536.164	-8.537	-0.299	0.203
-535.150	50.644	-0.119	0.114
-534.135	79.517	-0.030	-0.033
-533.121	-122.881	0.328	0.054
-532.106	-200.000	-0.017	0.146
-531.091	-105.140	-0.250	-0.058
-530.077	-106.223	-0.198	0.045
-529.062	72.030	0.176	0.185
-528.048	25.305	0.216	-0.181
-527.033	-168.172	0.410	-0.016
-526.018	-134.080	0.123	-0.015
-525.004	-200.000	0.023	-0.215
-523.989	-162.913	0.295	0.014
-522.975	-1.602	0.450	0.320
-521.960	-131.071	-0.308	-0.041
-520.945	800.000	0.046	-0.136
-519.931	-143.218	-0.253	0.025
-518.916	-200.000	-0.051	0.230
-517.902	-3.044	-0.262	-0.185
-516.887	800.000	0.050	-0.179
-515.872	-3.766	0.197	-0.138
-514.858	166.258	0.124	-0.177
-513.843	194.149	0.194	-0.296
-512.829	22.710	0.147	0.122
-511.814	800.000	-0.058	-0.207
-510.799	73.465	-0.322	0.340
-509.785	-200.000	-0.076	0.544
-508.770	-149.893	0.164	-0.013
-507.756	-200.000	-0.034	-0.203
-506.741	-60.893	0.348	-0.149
-505.726	-109.795	0.300	0.064
-504.712	-86.234	-0.273	0.085
-503.697	47.100	0.149	-0.140
-502.683	276.795	0.020	0.037
-501.668	18.387	-0.092	-0.074
-500.653	-200.000	-0.006	0.051
-499.639	-59.054	-0.129	0.056
-498.624	-142.951	-0.197	0.019
-497.610	145.459	-0.317	0.428
-496.595	110.236	-0.051	-0.062
-495.581	-200.000	-0.051	0.226
-494.566	-200.000	0.010	0.220
-493.551	-35.759	-0.062	-0.034
-492.537	47.054	-0.231	0.217
-491.522	-66.192	-0.239	0.096
-490.508	278.666	-0.190	-0.341
-489.493	-135.011	-0.355	0.043
-488.478	-101.159	0.235	-0.058
-487.464	185.249	0.154	0.231
-486.449	-125.195	0.166	0.026
-485.435	219.169	0.116	-0.187
-484.420	-200.000	0.008	-0.057
-483.405	248.706	-0.159	-0.271
-482.391	83.076	0.123	0.135
-481.376	-110.847	0.200	-0.041
-480.362	-200.000	0.040	0.262
-479.347	-200.000	-0.025	0.147
-478.332	77.727	-0.124	0.133
-477.318	800.000	0.127	-0.513
-476.303	240.697	0.106	0.179
-475.289	-5.141	0.208	-0.144
-474.274	540.950	0.047	-0.114
-473.259	-142.928	-0.201	0.020
-472.245	-150.447	0.116	-0.009
-471.230	385.894	-0.071	0.148
-470.216	-200.000	0.341	0.001
-469.201	-200.000	-0.020	0.116
-468.186	663.281	-0.066	-0.170
-467.172	242.326	-0.167	0.281
-466.157	46.944	0.144	0.135
-465.143	-36.603	-0.103	0.056
-464.128	-200.000	0.034	-0.296
-463.113	-116.292	0.106	0.020
-462.099	467.774	-0.055	-0.124
-461.084	-90.821	0.146	0.042
-460.070	-32.268	-0.095	-0.053
-459.055	-71.637	0.105	0.040
-458.040	95.352	-0.224	-0.257
-457.026	-119.182	-0.068	0.012
-456.011	437.173	-0.104	-0.229
-454.997	-97.787	0.184	-0.048
-453.982	-99.672	0.438	-0.111
-452.968	120.199	-0.084	0.105
-451.953	-140.137	-0.181	-0.019
-450.938	26.519	0.115	0.097
-449.924	305.708	-0.287	-0.536
-448.909	-161.284	0.132	-0.007
-447.895	-4.531	-0.131	0.091
-446.880	-167.602	0.387	-0.015
-445.865	399.154	0.120	0.252
-444.851	-99.476	0.393	-0.100
-443.836	309.200	-0.153	-0.287
-442.822	-200.000	0.012	-0.252
-441.807	339.259	-0.058	0.114
-440.792	-28.582	-0.241	-0.140
-439.778	270.910	0.078	-0.138
-438.763	800.000	0.066	0.240
-437.749	165.135	0.082	-0.117
-436.734	114.709	0.114	0.140
-435.719	30.263	0.116	-0.099
-434.705	-200.000	-0.016	0.130
-433.690	113.782	0.166	0.203
-432.676	74.719	0.202	0.213
-431.661	-34.733	0.335	0.184
-430.646	-111.838	0.202	0.041
-429.632	-71.672	-0.266	-0.100
-428.617	-200.000	-0.001	-0.274
-427.603	29.644	-0.241	-0.206
-426.588	-138.590	-0.110	-0.012
-425.573	452.985	0.139	0.308
-424.559	-200.000	-0.018	-0.140
-423.544	19.673	0.074	-0.060
-422.530	-91.501	-0.135	-0.039
-421.515	800.000	0.075	-0.232
-420.500	-46.370	-0.092	-0.046
-419.486	89.550	-0.006	0.006
-418.471	-107.822	-0.127	0.028
-417.457	-200.000	-0.033	-0.442
-416.442	-200.000	0.005	0.319
-415.428	-11.775	-0.049	-0.032
-414.413	-101.451	-0.132	-0.032
-413.398	-146.867	-0.124	0.011
-412.384	-200.000	0.028	-0.183
-411.369	168.232	-0.238	-0.341
-410.355	29.379	0.149	0.127
-409.340	112.015	0.209	0.253
-408.325	531.282	-0.052	0.125
-407.311	-108.434	0.201	0.044
-406.296	800.000	0.088	-0.372
-405.282	213.212	-0.127	-0.202
-404.267	-90.883	-0.368	0.107
-403.252	-200.000	-0.013	0.344
-402.238	-200.000	0.009	0.044
-401.223	-200.000	-0.007	-0.086
-400.209	-30.526	0.345	0.196
-399.194	-42.186	-0.364	-0.187
-398.179	17.961	0.137	0.110
-397.165	-96.826	0.396	0.104
-396.150	800.000	0.021	0.069
-395.136	-117.576	0.085	-0.015
-394.121	798.607	-0.023	0.063
-393.106	687.148	0.083	0.217
-392.092	149.333	-0.074	0.101
-391.077	-11.789	-0.072	0.048
-390.063	-91.744	-0.341	0.097
-389.048	-19.311	-0.202	-0.126
-388.033	2.757	-0.301	0.220
-387.019	-200.000	-0.020	-0.149
-386.004	154.896	-0.013	-0.018
-384.990	380.750	0.042	-0.087
-383.975	-9.978	0.199	0.133
-382.960	-134.175	0.125	0.016
-381.946	571.280	0.032	0.078
-380.931	-84.766	0.102	0.032
-379.917	-175.763	0.228	-0.006
-378.902	-200.000	-0.005	-0.472
-377.888	43.938	-0.268	0.246
-376.873	-55.202	0.058	0.026
-375.858	157.041	-0.097	-0.135
-374.844	-167.681	-0.096	0.004
-373.829	-200.000	-0.008	0.127
-372.815	-150.463	-0.372	-0.029
-371.800	17.154	0.117	-0.093
-370.785	-41.204	0.130	0.067
-369.771	-200.000	0.026	-0.225
-368.756	-200.000	0.063	0.296
-367.742	306.277	0.175	-0.326
-366.727	-97.235	-0.230	0.060
-365.712	236.270	0.105	0.174
-364.698	51.384	0.135	-0.129
-363.683	-99.076	-0.116	0.029
-362.669	355.011	-0.069	0.139
-361.654	568.477	0.116	-0.282
-360.639	-200.000	-0.004	0.131
-359.625	-200.000	0.058	-0.530
-358.610	187.684	0.109	-0.164
-357.596	15.032	-0.148	-0.116
-356.581	16.851	-0.168	0.133
-355.566	5.967	0.217	0.161
-354.552	800.000	0.077	0.257
-353.537	-0.777	0.222	0.158
-352.523	-114.200	0.099	0.019
-351.508	-73.562	0.154	-0.056
-350.493	69.792	-0.235	0.243
-349.479	-76.275	0.137	-0.048
-348.464	113.708	0.124	-0.152
-347.450	-21.051	-0.163	-0.100
-346.435	-15.645	-0.210	-0.134
-345.420	-13.781	-0.232	-0.150
-344.406	117.592	-0.124	-0.153
-343.391	800.000	0.062	-0.208
-342.377	-3.974	-0.161	-0.112
-341.362	-111.864	0.394	0.080
-340.348	13.729	-0.160	0.125
-339.333	93.190	0.075	0.085
-338.318	-55.667	0.301	0.135
-337.304	800.000	-0.125	-0.387
-336.289	800.000	-0.046	0.184
-335.275	800.000	0.057	-0.172
-334.260	68.155	-0.167	-0.172
-333.245	59.099	-0.062	-0.062
-332.231	221.902	-0.087	0.140
-331.216	234.688	0.151	-0.249
-330.202	-95.163	-0.080	0.022
-329.187	-200.000	-0.007	0.048
-328.172	45.856	-0.179	0.166
-327.158	11.201	-0.192	0.148
-326.143	-200.000	0.072	-0.363
-325.129	800.000	0.064	0.226
-324.114	800.000	-0.059	-0.219
-323.099	-160.611	-0.168	0.009
-322.085	-0.158	0.132	0.094
-321.070	800.000	-0.067	-0.246
-320.056	-194.795	-0.330	-0.003
-319.041	-200.000	0.035	0.212
-318.026	-200.000	-0.012	-0.155
-317.012	-200.000	0.022	-0.221
-315.997	28.608	0.273	0.231
-314.983	-104.966	-0.230	-0.053
-313.968	-200.000	0.037	0.439
-312.953	800.000	0.050	0.188
-311.939	309.500	-0.084	0.157
-310.924	569.747	-0.056	0.137
-309.910	-54.181	-0.362	0.165
-308.895	-43.890	0.262	-0.132
-307.880	133.073	0.056	-0.072
-306.866	34.408	0.278	-0.243
-305.851	-145.172	-0.139	-0.013
-304.837	8.396	-0.417	0.314
-303.822	800.000	-0.120	-0.489
-302.807	-38.083	0.212	0.113
-301.793	0.527	0.240	0.171
-300.778	800.000	-0.042	-0.124
-299.764	-200.000	0.017	-0.097
-298.749	100.359	-0.165	-0.191
-297.735	-62.767	0.162	0.067
-296.720	-200.000	-0.012	-0.194
-295.705	282.370	-0.149	0.268
-294.691	49.038	0.136	0.128
-293.676	800.000	0.083	-0.299
-292.662	123.902	0.279	0.350
-291.647	-34.204	-0.303	0.167
-290.632	-200.000	-0.014	-0.154
-289.618	-200.000	0.023	-0.174
-288.603	-70.115	-0.289	0.110
-287.589	-38.788	-0.267	0.141
-286.574	-99.181	0.106	0.027
-285.559	-200.000	0.040	0.210
-284.545	182.344	0.068	-0.100
-283.530	-43.640	-0.149	-0.075
-282.516	800.000	-0.037	0.139
-281.501	689.038	0.098	0.256
-280.486	108.204	-0.389	-0.464
-279.472	800.000	0.060	0.193
-278.457	800.000	0.033	-0.092
-277.443	380.085	0.090	0.185
-276.428	151.743	-0.008	0.011
-275.413	306.477	0.165	-0.306
-274.399	-200.000	-0.031	0.152
-273.384	553.490	0.053	-0.127
-272.370	-49.827	0.025	0.012
-271.355	-163.136	-0.242	0.012
-270.340	800.000	-0.155	0.534
-269.326	-200.000	0.028	-0.129
-268.311	33.338	0.085	0.074
-267.297	800.000	-0.067	0.255
-266.282	-10.987	-0.124	-0.082
-265.267	-97.093	0.290	-0.076
-264.253	5.283	0.329	0.243
-263.238	-89.961	0.258	-0.075
-262.224	-66.705	0.218	0.086
-261.209	76.701	-0.081	0.086
-260.195	-47.260	-0.102	0.049
-259.180	-200.000	0.001	-0.073
-258.165	80.884	0.154	-0.165
-257.151	54.312	0.101	-0.097
-256.136	720.346	-0.069	-0.183
-255.122	67.923	0.152	0.156
-254.107	-200.000	0.014	0.172
-253.092	214.095	0.093	0.148
-252.078	-156.803	-0.199	-0.012
-251.063	58.734	0.038	-0.037
-250.049	-149.246	0.204	-0.016
-249.034	800.000	0.099	-0.288
-248.019	-152.558	-0.186	0.013
-247.005	800.000	-0.094	-0.403
-245.990	-200.000	-0.013	0.111
-244.976	452.919	0.119	0.264
-243.961	-94.567	0.155	0.042
-242.946	-200.000	-0.027	0.291
-241.932	-174.231	0.146	0.004
-240.917	-120.490	0.077	-0.013
-239.903	-56.495	0.012	-0.005
-238.888	93.334	0.226	0.255
-237.873	-112.834	0.315	0.062
-236.859	-200.000	-0.005	0.056
-235.844	-200.000	-0.006	0.161
-234.830	-110.005	0.323	0.067
-233.815	381.280	0.114	0.235
-232.800	-134.561	0.113	0.014
-231.786	-200.000	-0.023	-0.187
-230.771	52.421	0.036	0.034
-229.757	-159.176	0.159	-0.009
-228.742	318.885	0.075	0.141
-227.727	-47.866	-0.108	-0.052
-226.713	227.217	0.145	0.235
-225.698	142.912	-0.063	0.083
-224.684	117.621	-0.043	-0.052
-223.669	137.012	0.106	-0.138
-222.655	-60.310	-0.051	-0.022
-221.640	-200.000	-0.027	-0.386
-220.625	-3.453	0.245	0.170
-219.611	-20.027	-0.080	0.049
-218.596	23.780	0.106	0.087
-217.582	800.000	-0.038	0.106
-216.567	17.259	0.219	-0.173
-215.552	-27.166	-0.085	0.049
-214.538	-132.097	-0.288	-0.037
-213.523	-200.000	-0.021	0.105
-212.509	-93.196	-0.183	0.051
-211.494	-200.000	-0.006	0.215
-210.479	-170.531	0.298	0.010
-209.465	52.960	-0.083	0.079
-208.450	-83.521	0.207	0.066
-207.436	198.703	-0.037	0.057
-206.421	-20.170	-0.175	-0.108
-205.406	800.000	0.027	-0.077
-204.392	-75.510	-0.090	0.032
-203.377	-71.794	-0.305	-0.113
-202.363	-200.000	-0.005	0.192
-201.348	339.123	0.232	0.452
-200.333	-200.000	-0.023	0.369
-199.319	-85.441	-0.254	0.079
-198.304	67.041	-0.147	0.150
-197.290	-114.309	0.207	0.040
-196.275	-48.415	0.210	-0.101
-195.260	800.000	-0.048	0.140
-194.246	-138.634	0.161	-0.018
-193.231	-200.000	0.006	0.141
-192.217	800.000	0.097	-0.322
-191.202	102.324	-0.168	-0.195
-190.187	-147.267	0.255	0.022
-189.173	16.182	0.065	0.051
-188.158	256.015	0.249	0.425
-187.144	482.961	0.008	0.019
-186.129	-122.147	0.182	-0.030
-185.114	104.044	-0.218	0.256
-184.100	-19.272	-0.351	0.217
-183.085	133.335	0.167	0.215
-182.071	-146.089	-0.156	-0.014
-181.056	-127.958	-0.141	-0.020
-180.042	45.704	0.139	0.128
-179.027	406.194	-0.053	-0.112
-178.012	166.204	0.290	-0.409
-176.998	-160.452	0.362	-0.019
-175.983	-125.602	-0.366	-0.055
-174.969	-8.296	-0.164	-0.110
-173.954	-200.000	0.035	-0.176
-172.939	800.000	-0.080	-0.243
-171.925	-114.012	0.163	-0.032
-170.910	-118.031	-0.385	0.068
-169.896	-13.987	-0.264	-0.170
-168.881	-22.665	0.345	-0.207
-167.866	136.816	-0.102	0.133
-166.852	-7.315	0.242	0.163
-165.837	-200.000	-0.034	0.294
-164.823	213.581	0.134	0.211
-163.808	178.035	0.164	-0.239
-162.793	-111.944	0.246	0.049
-161.779	-17.590	0.445	0.279
-160.764	184.763	0.149	-0.219
-159.750	-178.146	-0.357	0.008
-158.735	-102.866	-0.108	0.026
-157.720	646.426	0.022	0.057
-156.706	-138.791	-0.182	-0.020
-155.691	-101.711	0.249	0.060
-154.677	-200.000	0.011	0.099
-153.662	-142.683	0.036	0.004
-152.647	-94.621	0.118	0.032
-151.633	-50.262	0.040	0.019
-150.618	-75.125	-0.255	-0.091
-149.604	56.614	0.213	-0.207
-148.589	-200.000	-0.010	-0.294
-147.574	192.483	-0.083	-0.124
-146.560	-200.000	-0.060	0.276
-145.545	12.759	-0.354	-0.272
-144.531	-56.918	0.195	-0.086
-143.516	-9.189	0.271	-0.180
-142.502	-89.025	0.309	0.091
-141.487	-32.793	-0.196	-0.108
-140.472	-61.087	0.346	0.145
-139.458	800.000	0.023	-0.086
-138.443	-44.742	-0.250	-0.124
-137.429	105.958	0.044	-0.052
-136.414	199.275	-0.144	0.220
-135.399	75.578	-0.108	-0.113
-134.385	148.205	-0.036	-0.048
-133.370	-50.114	-0.390	0.183
-132.356	-200.000	-0.005	0.035
-131.341	800.000	0.061	0.227
-130.326	-200.000	-0.061	-0.376
-129.312	-200.000	-0.025	-0.175
-128.297	-40.754	-0.098	0.051
-127.283	-130.643	0.106	0.014
-126.268	123.554	-0.108	0.135
-125.253	-107.775	-0.117	0.025
-124.239	173.353	0.269	0.385
-123.224	800.000	0.069	0.220
-122.210	-81.169	0.133	0.044
-121.195	-68.569	0.221	0.085
-120.180	-200.000	0.019	-0.364
-119.166	131.495	0.102	-0.131
-118.151	119.173	0.364	0.447
-117.137	-171.843	-0.122	0.004
-116.122	-117.552	-0.241	-0.043
-115.107	-200.000	-0.034	-0.179
-114.093	-6.744	0.264	-0.179
-113.078	119.598	0.048	0.059
-112.064	-14.760	-0.229	0.146
-111.049	109.548	0.232	-0.276
-110.034	-200.000	-0.051	-0.271
-109.020	-128.529	-0.211	-0.030
-108.005	74.730	0.163	0.170
-106.991	-89.042	0.200	0.059
-105.976	12.855	-0.158	0.121
-104.962	-163.973	0.088	-0.004
-103.947	-38.781	-0.248	-0.130
-102.932	190.799	-0.259	-0.386
-101.918	74.736	-0.050	-0.052
-100.903	-200.000	0.040	0.227
-99.889	-200.000	0.028	0.130
-98.874	205.182	-0.234	0.361
-97.859	-131.703	-0.105	0.014
-96.845	-109.370	-0.221	0.046
-95.830	-38.573	-0.153	0.080
-94.816	-117.583	0.571	0.102
-93.801	800.000	0.042	0.157
-92.786	-87.114	-0.172	-0.052
-91.772	-84.350	-0.069	-0.022
-90.757	27.269	0.054	0.045
-89.743	-200.000	-0.023	-0.128
-88.728	-15.659	-0.202	0.128
-87.713	54.353	-0.211	-0.202
-86.699	27.230	-0.116	0.097
-85.684	-143.003	0.580	0.056
-84.670	800.000	-0.057	0.197
-83.655	-200.000	0.006	-0.214
-82.640	-111.667	0.071	0.014
-81.626	-83.303	-0.293	0.093
-80.611	-76.044	0.722	0.253
-79.597	391.217	0.032	0.066
-78.582	-104.785	0.203	0.046
-77.567	70.538	0.447	0.459
-76.553	-39.703	-0.331	0.172
-75.538	190.210	-0.137	-0.204
-74.524	8.529	0.354	-0.264
-73.509	800.000	0.050	0.212
-72.494	800.000	-0.110	0.317
-71.480	-200.000	-0.011	0.090
-70.465	-13.453	0.126	-0.081
-69.451	-135.741	-0.278	-0.033
-68.436	30.386	-0.113	-0.096
-67.422	-60.292	-0.138	-0.058
-66.407	800.000	-0.030	0.116
-65.392	224.467	-0.018	0.028
-64.378	-6.094	0.138	-0.094
-63.363	64.567	0.180	-0.180
-62.349	-75.888	0.280	0.098
-61.334	175.320	-0.634	-0.911
-60.319	121.218	0.448	0.553
-59.305	39.549	-0.476	-0.423
-58.290	213.215	0.872	1.366
-57.276	800.000	0.400	1.348
-56.261	-200.000	95.066	555.206
-55.246	622.976	1386.824	3462.649
-54.232	184.378	2613.776	3837.976
-53.217	119.820	2220.771	2728.607
-52.203	45.241	1752.215	1601.590
-51.188	37.818	1561.882	1375.426
-50.173	35.242	1534.669	1333.515
-49.159	53.119	1583.972	1503.151
-48.144	56.617	1602.811	1545.704
-47.130	38.112	1558.406	1374.221
-46.115	35.013	1542.740	1338.717
-45.100	34.807	1539.581	1334.481
-44.086	34.711	1538.101	1332.475
-43.071	34.698	1535.875	1330.403
-42.057	34.656	1534.340	1328.732
-41.042	34.699	1532.795	1327.636
-40.027	34.622	1531.717	1326.117
-39.013	34.733	1530.118	1325.450
-37.998	34.648	1528.836	1323.694
-36.984	34.683	1527.506	1322.736
-35.969	34.687	1526.451	1321.796
-34.954	34.829	1524.717	1321.223
-33.940	34.699	1523.468	1319.196
-32.925	34.697	1521.982	1317.840
-31.911	34.655	1520.645	1316.343
-30.896	34.782	1519.165	1315.878
-29.881	34.794	1517.875	1314.796
-28.867	34.696	1516.438	1312.822
-27.852	34.823	1514.497	1311.961
-26.838	34.795	1513.323	1310.698
-25.823	34.807	1511.783	1309.400
-24.809	34.762	1510.217	1307.680
-23.794	34.668	1509.134	1306.047
-22.779	34.679	1508.055	1305.138
-21.765	34.788	1506.759	1304.710
-20.750	34.642	1505.971	1302.980
-19.736	34.668	1504.233	1301.601
-18.721	34.648	1503.310	1300.618
-17.706	34.683	1502.323	1299.945
-16.692	34.756	1500.943	1299.200
-15.677	34.514	1500.838	1297.412
-14.663	34.653	1499.217	1296.903
-13.648	34.685	1498.075	1296.081
-12.633	34.588	1497.447	1294.827
-11.619	34.672	1496.818	1294.801
-10.604	34.707	1495.257	1293.633
-9.590	34.631	1494.445	1292.370
-8.575	34.584	1494.019	1291.630
-7.560	34.637	1493.145	1291.181
-6.546	34.629	1492.666	1290.663
-5.531	34.681	1491.460	1289.916
-4.517	34.552	1490.609	1288.257
-3.502	34.639	1489.439	1287.784
-2.487	34.650	1488.036	1286.596
-1.473	34.561	1487.596	1285.568
-0.458	34.518	1486.217	1284.030
0.556	36.857	1476.450	1274.152
1.571	33.535	1449.472	1229.264
2.586	29.303	1384.464	1147.745
3.600	26.923	1299.721	1063.468
4.615	24.669	1251.001	1010.786
5.629	20.619	1193.637	942.451
6.644	12.351	1107.174	832.377
7.659	5.807	1065.211	768.763
8.673	4.792	1059.742	759.799
9.688	4.603	1056.463	756.462
10.702	4.321	1054.812	753.843
11.717	4.614	1053.353	754.152
12.731	7.495	1057.177	770.830
13.746	15.851	1068.378	819.785
14.761	21.741	1075.171	853.707
15.775	22.268	1075.366	856.356
16.790	21.590	1073.804	851.735
17.804	20.591	1071.242	844.778
18.819	19.718	1069.591	839.165
19.834	19.170	1068.296	835.418
20.848	19.204	1067.274	834.707
21.863	19.043	1066.961	833.612
22.877	18.841	1066.423	832.138
23.892	18.646	1065.583	830.464
24.907	18.543	1064.489	829.043
25.921	18.682	1063.475	828.849
26.936	18.611	1062.847	827.943
27.950	18.649	1061.625	827.103
28.965	18.688	1060.380	826.247
29.980	18.721	1059.526	825.665
30.994	18.832	1058.474	825.307
32.009	18.921	1058.343	825.560
33.023	18.990	1057.468	825.132
34.038	18.994	1056.047	823.973
35.053	18.923	1055.265	822.950
36.067	18.756	1053.966	821.062
37.082	18.646	1053.547	820.139
38.096	18.730	1052.707	819.817
39.111	18.884	1051.947	819.883
40.126	18.947	1051.319	819.623
41.140	18.805	1049.944	817.802
42.155	18.518	1048.461	815.210
43.169	18.300	1047.635	813.463
44.184	18.253	1046.769	812.496
45.199	18.170	1045.382	810.951
46.213	18.311	1044.536	810.892
47.228	18.417	1043.513	810.525
48.242	18.628	1042.460	810.635
49.257	18.668	1042.203	810.551
50.271	18.576	1041.677	809.635
51.286	18.741	1040.180	809.180
52.301	18.813	1039.366	808.812
53.315	18.757	1038.515	807.814
54.330	18.698	1037.700	806.835
55.344	18.518	1036.398	804.906
56.359	18.432	1035.615	803.822
57.374	18.517	1034.495	803.279
58.388	18.361	1033.907	802.023
59.403	18.355	1032.793	801.060
60.417	18.279	1032.195	800.169
61.432	18.193	1031.739	799.343
62.447	18.251	1030.684	798.723
63.461	18.082	1030.269	797.545
64.476	18.156	1029.105	796.919
65.490	18.087	1027.918	795.607
66.505	18.029	1027.137	794.660
67.520	18.112	1026.538	794.512
68.534	18.183	1025.391	793.887
69.549	18.217	1024.870	793.567
70.563	18.043	1024.120	792.113
71.578	18.059	1023.328	791.505
72.593	18.035	1022.492	790.675
73.607	17.813	1021.625	788.911
74.622	17.937	1020.189	788.303
75.636	17.925	1019.393	787.563
76.651	17.941	1018.572	786.934
77.666	18.034	1018.170	786.983
78.680	18.092	1017.272	786.485
79.695	18.047	1017.030	786.021
80.709	18.055	1016.246	785.379
81.724	18.206	1015.560	785.476
82.739	18.299	1014.547	785.050
83.753	18.419	1013.993	785.098
84.768	18.578	1013.178	785.129
85.782	18.753	1013.041	785.753
86.797	19.031	1012.215	786.314
87.812	18.990	1011.366	785.397
88.826	18.824	1010.456	783.862
89.841	18.650	1010.057	782.690
90.855	18.916	1008.659	782.751
91.870	18.919	1008.149	782.297
92.884	18.948	1007.580	781.921
93.899	19.025	1006.446	781.322
94.914	18.975	1005.400	780.214
95.928	19.020	1004.782	779.869
96.943	18.979	1004.513	779.402
97.957	18.824	1003.505	777.853
98.972	18.720	1002.634	776.639
99.987	18.800	1001.610	776.135
101.001	18.924	1000.897	776.076
102.016	19.019	1000.117	775.830
103.030	18.959	999.197	774.779
104.045	18.935	998.326	773.927
105.060	19.004	997.411	773.457
106.074	18.763	996.076	771.273
107.089	18.495	995.201	769.323
108.103	18.338	994.253	767.818
109.118	18.270	993.016	766.491
110.133	18.091	992.793	765.448
111.147	18.120	991.617	764.606
112.162	18.184	990.510	763.970
113.176	18.137	989.516	762.924
114.191	18.249	988.986	762.948
115.206	18.391	988.190	762.900
116.220	18.370	987.663	762.333
117.235	18.225	987.078	761.168
118.249	18.321	985.793	760.537
119.264	18.247	984.901	759.452
120.279	18.196	983.700	758.231
121.293	18.198	982.926	757.580
122.308	18.119	982.024	756.466
123.322	18.109	980.883	755.476
124.337	17.898	980.370	754.085
125.352	18.011	978.747	753.265
126.366	17.941	978.327	752.566
127.381	17.868	977.080	751.218
128.395	17.709	976.416	749.944
129.410	18.043	974.904	750.185
130.424	17.979	974.522	749.542
131.439	18.028	973.690	749.049
132.454	18.225	973.109	749.401
133.468	18.382	971.662	748.905
134.483	18.447	971.237	748.798
135.497	18.267	970.711	747.541
136.512	18.227	970.163	746.876
137.527	18.291	969.504	746.581
138.541	18.350	968.217	745.780
139.556	18.479	967.552	745.766
140.570	18.472	967.150	745.359
141.585	18.547	966.525	745.135
142.600	18.638	966.250	745.253
143.614	18.854	965.034	745.188
144.629	18.796	964.430	744.401
145.643	18.798	964.254	744.209
146.658	18.839	962.913	743.285
147.673	18.833	961.782	742.323
148.687	18.459	961.040	740.067
149.702	18.318	959.930	738.539
150.716	18.328	958.840	737.682
151.731	18.185	957.886	736.265
152.746	18.404	956.903	736.387
153.760	18.463	956.299	736.110
154.775	18.456	955.431	735.348
155.789	18.591	954.968	735.505
156.804	18.662	954.163	735.121
157.819	18.630	953.499	734.408
158.833	18.553	953.086	733.697
159.848	18.753	952.186	733.791
160.862	18.889	951.747	733.972
161.877	18.907	950.580	733.084
162.892	18.577	949.276	730.608
163.906	18.399	948.748	729.377
164.921	18.243	947.875	727.976
165.935	18.410	946.479	727.551
166.950	18.464	945.857	727.238
167.964	18.603	944.937	727.057
168.979	18.436	944.131	725.663
169.994	18.443	942.883	724.672
171.008	18.377	941.839	723.524
172.023	18.603	941.231	723.947
173.037	18.648	940.818	723.758
174.052	18.949	939.725	724.119
175.067	18.897	939.133	723.380
176.081	18.551	938.296	721.217
177.096	18.329	937.327	719.473
178.110	18.294	936.281	718.462
179.125	18.351	935.742	718.221
180.140	18.506	934.645	717.968
181.154	18.569	934.009	717.679
182.169	18.602	933.620	717.454
183.183	18.784	933.194	717.823
184.198	18.852	932.383	717.419
185.213	18.900	932.059	717.308
186.227	18.778	931.349	716.190
187.242	18.802	931.037	715.987
188.256	18.845	930.181	715.444
189.271	19.019	929.939	715.919
190.286	19.089	928.671	715.170
191.300	18.885	927.638	713.463
192.315	18.369	927.002	710.772
193.329	18.282	926.102	709.655
194.344	18.233	925.431	708.877
195.359	18.369	924.904	708.972
196.373	18.612	924.277	709.435
197.388	18.640	924.103	709.356
198.402	18.747	924.276	709.866
199.417	19.051	923.543	710.497
200.432	19.095	923.032	710.222
201.446	19.263	922.335	710.315
202.461	19.185	922.266	709.878
203.475	19.302	921.713	709.874
204.490	19.353	921.120	709.562
205.504	19.146	919.796	707.631
206.519	19.020	918.705	706.209
207.534	18.955	918.163	705.466
208.548	18.828	917.376	704.277
209.563	18.887	917.040	704.196
210.577	18.946	916.129	703.677
211.592	18.979	915.495	703.265
212.607	19.139	915.108	703.559
213.621	19.239	915.073	703.877
214.636	19.089	913.995	702.373
215.650	19.052	913.664	701.905
216.665	19.117	912.715	701.378
217.680	19.190	912.177	701.201
218.694	19.348	911.807	701.497
219.709	19.521	911.289	701.739
220.723	19.361	910.583	700.486
221.738	19.386	909.974	700.054
222.753	19.205	909.248	698.703
223.767	19.383	908.380	698.696
224.782	19.311	907.887	697.961
225.796	19.378	907.184	697.631
226.811	19.551	906.449	697.701
227.826	19.562	905.482	696.943
228.840	19.243	904.967	695.195
229.855	19.336	903.981	694.752
230.869	19.246	903.612	694.043
231.884	19.075	902.909	692.753
232.899	19.130	902.413	692.534
233.913	19.052	901.552	691.497
234.928	19.168	900.481	691.080
235.942	18.990	899.750	689.743
236.957	19.103	898.733	689.356
237.972	18.980	898.050	688.281
238.986	19.149	897.657	688.593
240.001	19.125	897.212	688.097
241.015	19.020	896.623	687.164
242.030	19.207	895.414	686.923
243.045	19.140	895.382	686.571
244.059	19.195	895.219	686.602
245.074	19.330	894.270	686.353
246.088	19.383	893.537	685.941
247.103	19.528	893.048	686.081
248.117	19.516	892.857	685.824
249.132	19.638	892.223	685.760
250.147	19.907	892.118	686.686
251.161	19.993	891.710	686.654
252.176	20.200	890.799	686.711
253.190	20.254	889.945	686.205
254.205	20.294	889.418	685.898
255.220	20.308	888.687	685.328
256.234	20.324	888.266	685.006
257.249	20.222	887.854	684.223
258.263	20.084	887.456	683.312
259.278	20.265	886.475	683.212
260.293	20.134	886.011	682.278
261.307	20.198	885.589	682.144
262.322	20.305	884.976	682.030
263.336	20.315	884.664	681.772
264.351	20.374	883.940	681.384
265.366	20.411	882.919	680.682
266.380	20.419	882.619	680.420
267.395	20.468	882.150	680.189
268.409	20.298	881.436	678.913
269.424	20.281	880.277	677.896
270.439	20.171	879.648	676.920
271.453	20.345	878.789	676.880
272.468	20.032	877.878	674.900
273.482	20.074	877.115	674.414
274.497	19.928	876.936	673.652
275.512	20.042	875.964	673.289
276.526	20.044	875.259	672.693
277.541	20.029	874.854	672.265
278.555	20.034	874.290	671.790
279.570	20.270	873.909	672.352
280.585	20.433	873.644	672.721
281.599	20.553	872.758	672.445
282.614	20.313	872.359	671.150
283.628	20.223	871.277	669.910
284.643	20.419	870.222	669.795
285.657	20.311	870.171	669.280
286.672	20.152	869.830	668.347
287.687	20.064	869.163	667.435
288.701	20.344	868.472	667.923
289.716	20.227	868.025	667.069
290.730	20.158	867.695	666.492
291.745	20.289	866.988	666.395
292.760	20.392	866.290	666.193
293.774	20.399	865.357	665.445
294.789	20.472	865.473	665.753
295.803	20.642	864.431	665.544
296.818	20.309	863.661	663.618
297.833	20.266	863.297	663.115
298.847	20.428	862.207	662.838
299.862	20.444	861.714	662.463
300.876	20.326	861.267	661.608
301.891	20.458	860.338	661.338
302.906	20.587	860.160	661.633
303.920	20.704	859.369	661.414
304.935	20.816	858.695	661.262
305.949	20.987	858.344	661.583
306.964	21.005	857.222	660.725
307.979	20.735	857.057	659.517
308.993	20.740	856.621	659.144
310.008	20.674	856.366	658.640
311.022	20.939	855.465	658.889
312.037	20.964	855.063	658.616
313.052	20.631	854.636	656.970
314.066	20.420	853.970	655.605
315.081	20.326	853.285	654.668
316.095	20.373	852.372	654.084
317.110	20.526	851.601	654.013
318.125	20.605	850.806	653.638
319.139	20.342	850.787	652.578
320.154	20.324	850.387	652.145
321.168	20.462	849.872	652.213
322.183	20.506	849.135	651.752
323.197	20.511	848.760	651.428
324.212	20.613	848.177	651.305
325.227	20.594	847.382	650.564
326.241	20.448	847.143	649.779
327.256	20.455	846.504	649.255
328.270	20.658	845.758	649.384
329.285	20.556	845.456	648.712
330.300	20.447	844.827	647.768
331.314	20.404	844.407	647.229
332.329	20.480	843.634	646.862
333.343	20.751	843.034	647.353
334.358	20.918	842.707	647.663
335.373	20.886	842.011	646.955
336.387	20.947	841.384	646.641
337.402	20.942	840.921	646.207
338.416	20.903	840.419	645.620
339.431	21.062	840.225	646.006
340.446	21.285	839.643	646.324
341.460	21.240	839.071	645.660
342.475	21.358	838.542	645.633
343.489	21.400	837.958	645.281
344.504	21.341	837.602	644.733
345.519	21.532	836.662	644.653
346.533	21.368	836.919	644.193
347.548	21.351	836.243	643.553
348.562	21.258	835.441	642.535
349.577	21.103	834.742	641.371
350.592	20.904	834.039	640.045
351.606	20.803	833.723	639.374
352.621	20.660	833.476	638.601
353.635	20.843	832.887	638.764
354.650	20.936	832.403	638.680
355.665	21.041	831.620	638.406
356.679	21.159	830.993	638.299
357.694	21.180	831.074	638.381
358.708	21.174	830.314	637.722
359.723	21.152	830.118	637.434
360.738	21.271	828.948	636.914
361.752	21.266	828.838	636.753
362.767	21.193	828.175	635.920
363.781	21.333	827.984	636.228
364.796	21.478	827.541	636.361
365.810	21.519	827.404	636.348
366.825	21.709	826.805	636.519
367.840	21.740	826.629	636.440
368.854	21.706	826.097	635.849
369.869	21.602	825.484	634.946
370.883	21.710	824.433	634.473
371.898	21.665	823.837	633.795
372.913	21.611	823.415	633.218
373.927	21.640	823.459	633.300
374.942	21.719	822.407	632.723
375.956	21.559	821.968	631.752
376.971	21.761	820.994	631.675
377.986	21.918	820.208	631.578
379.000	21.976	820.158	631.692
380.015	21.956	819.820	631.306
381.029	21.991	819.259	630.942
382.044	21.970	818.468	630.202
383.059	21.954	817.920	629.665
384.073	21.979	817.239	629.176
385.088	21.808	817.408	628.637
386.102	21.596	816.553	627.164
387.117	21.550	815.619	626.230
388.132	21.489	815.412	625.796
389.146	21.460	814.998	625.321
390.161	21.672	814.232	625.432
391.175	21.691	814.439	625.603
392.190	21.864	813.801	625.675
393.205	21.817	813.118	624.927
394.219	21.616	812.953	624.030
395.234	21.776	811.980	623.796
396.248	21.579	811.477	622.654
397.263	21.483	811.034	621.917
398.278	21.286	810.612	620.840
399.292	21.356	810.067	620.617
400.307	21.267	809.796	620.038
401.321	21.389	809.384	620.099
402.336	21.514	808.712	619.975
403.350	21.685	808.276	620.189
404.365	21.830	808.005	620.439
405.380	21.819	807.585	620.025
406.394	22.082	806.922	620.387
407.409	21.950	807.084	619.993
408.423	22.148	806.472	620.168
409.438	22.148	806.050	619.788
410.453	22.244	805.737	619.830
411.467	22.268	805.035	619.319
412.482	22.301	804.662	619.095
413.496	22.347	804.318	618.936
414.511	22.496	804.175	619.294
415.526	22.440	803.291	618.362
416.540	22.348	803.276	617.973
417.555	22.319	802.331	617.090
418.569	22.222	801.966	616.416
419.584	22.197	801.925	616.240
420.599	22.281	801.668	616.284
421.613	159.219	1368.262	1790.391
422.628	138.270	1450.827	1790.511
