DTS Sentinel unit serial number:	SN413079Multiplexer serial number:	ORYXHardware model number:	OX4-SRSoftware version number:	ORYX F/W v4.00 Oryx Data Collector v3.7.2.0data status	okinstallation	princeton_trtdifferential loss correction	single-endedforward channel	channel 3reverse channel	N/Adate	2019/09/13time	07:52:34forward acquisition time	60.00reverse acquisition time	0.00gamma	496.2192k internal	0.2336k external	0.2336temperature offset calibration	1.0141default loss term (dB/km)	0.3790temperature slope calibration	1.0000multiplexer offset coefficient	1.0000multiplexer slope coefficient	1.0000fibre end	0.00T internal ref (°C)	26.67T ext. ref 1 (°C)	4.23T ext. ref 2 (°C)	23.20length (m)	temperature (°C)	Stokes	anti-Stokes-747.200	-115.823	0.064	0.012
-746.185	26.733	0.162	0.137
-745.171	800.000	0.030	0.101
-744.156	-34.076	-0.331	0.183
-743.142	86.823	-0.120	-0.133
-742.127	15.122	-0.173	-0.136
-741.112	-50.386	-0.092	-0.044
-740.098	209.859	-0.102	0.161
-739.083	26.526	0.416	-0.349
-738.069	-9.283	0.057	-0.038
-737.054	-98.078	-0.304	-0.079
-736.039	-92.771	-0.149	-0.042
-735.025	-119.611	0.074	0.013
-734.010	-70.959	0.245	-0.092
-732.996	-2.093	-0.175	-0.123
-731.981	-69.526	-0.376	-0.145
-730.966	267.435	0.137	0.241
-729.952	-85.992	-0.416	-0.129
-728.937	-76.327	-0.112	-0.040
-727.923	-200.000	0.004	-0.142
-726.908	-55.873	-0.233	-0.104
-725.894	-42.462	0.345	0.177
-724.879	185.602	0.171	-0.255
-723.864	-200.000	0.058	-0.463
-722.850	35.004	0.177	0.156
-721.835	800.000	0.038	-0.133
-720.821	-200.000	-0.040	-0.317
-719.806	122.866	0.214	-0.268
-718.791	-59.525	-0.206	-0.089
-717.777	30.564	0.220	0.189
-716.762	330.300	0.072	0.140
-715.748	-45.393	0.140	-0.070
-714.733	-33.280	-0.183	-0.102
-713.718	800.000	-0.052	0.158
-712.704	-7.157	0.373	-0.254
-711.689	-45.942	-0.248	0.123
-710.675	236.433	0.050	-0.084
-709.660	-200.000	-0.002	0.063
-708.645	-175.165	-0.303	-0.008
-707.631	-69.395	0.392	0.151
-706.616	313.472	-0.215	-0.405
-705.602	-40.434	0.238	-0.124
-704.587	472.047	-0.072	0.162
-703.572	221.208	0.141	-0.226
-702.558	-83.485	-0.359	-0.115
-701.543	-23.538	0.183	0.110
-700.529	-200.000	-0.046	-0.441
-699.514	276.084	-0.120	-0.213
-698.499	482.854	-0.064	-0.145
-697.485	-40.712	0.096	-0.050
-696.470	341.439	0.144	-0.282
-695.456	73.019	-0.251	0.263
-694.441	63.090	-0.168	0.169
-693.426	-119.935	-0.302	0.052
-692.412	-118.599	-0.285	-0.050
-691.397	240.187	0.115	-0.191
-690.383	-48.266	-0.166	0.080
-689.368	179.480	0.108	-0.159
-688.354	-93.837	-0.108	0.030
-687.339	800.000	0.067	-0.238
-686.324	11.853	0.134	-0.103
-685.310	-29.275	-0.324	0.186
-684.295	414.599	-0.053	0.113
-683.281	57.174	-0.040	-0.039
-682.266	-200.000	-0.046	-0.282
-681.251	296.288	-0.164	0.300
-680.237	-56.132	-0.169	-0.075
-679.222	-200.000	0.022	-0.135
-678.208	74.567	-0.320	-0.337
-677.193	-134.694	-0.271	-0.033
-676.178	-200.000	0.010	0.104
-675.164	92.125	-0.136	0.153
-674.149	-85.685	-0.089	-0.028
-673.135	113.859	0.019	0.023
-672.120	-94.737	-0.346	0.094
-671.105	-200.000	-0.025	0.214
-670.091	-18.367	-0.227	0.142
-669.076	-200.000	0.107	-0.473
-668.062	-200.000	-0.074	0.000
-667.047	-52.855	0.246	-0.114
-666.032	-168.317	-0.230	-0.009
-665.018	-48.394	0.120	-0.058
-664.003	529.737	0.109	0.257
-662.989	8.399	0.099	0.074
-661.974	159.210	0.191	-0.266
-660.959	-15.428	-0.107	-0.068
-659.945	-24.192	-0.114	0.068
-658.930	-170.836	-0.217	0.007
-657.916	48.687	0.024	0.023
-656.901	97.715	-0.151	0.174
-655.886	-96.095	-0.124	-0.033
-654.872	-200.000	0.010	0.116
-653.857	-38.234	0.303	-0.161
-652.843	14.244	-0.169	0.132
-651.828	312.672	0.117	0.221
-650.814	-163.221	-0.063	0.003
-649.799	179.737	-0.053	-0.078
-648.784	-15.558	0.041	-0.026
-647.770	165.840	0.231	-0.328
-646.755	72.423	-0.019	0.020
-645.741	800.000	0.093	-0.349
-644.726	273.405	0.065	-0.115
-643.711	129.546	-0.150	-0.192
-642.697	800.000	0.084	-0.254
-641.682	800.000	0.016	-0.059
-640.668	-146.253	-0.541	0.047
-639.653	-200.000	-0.016	0.139
-638.638	800.000	-0.068	0.205
-637.624	21.214	-0.138	0.112
-636.609	800.000	-0.075	0.223
-635.595	-200.000	0.002	-0.108
-634.580	-200.000	0.006	-0.087
-633.565	520.117	0.080	-0.188
-632.551	-57.269	-0.235	0.103
-631.536	800.000	-0.051	0.158
-630.522	545.016	0.056	-0.134
-629.507	800.000	-0.074	-0.229
-628.492	800.000	0.107	0.319
-627.478	5.791	-0.049	-0.036
-626.463	-144.219	-0.141	-0.013
-625.449	-135.393	-0.227	-0.027
-624.434	-200.000	-0.039	-0.242
-623.419	240.567	-0.020	0.033
-622.405	-155.576	0.035	0.002
-621.390	537.630	0.029	-0.069
-620.376	124.974	0.069	0.087
-619.361	-170.402	-0.323	0.011
-618.346	-31.144	-0.149	-0.084
-617.332	-27.071	-0.095	0.056
-616.317	680.272	0.032	0.083
-615.303	-200.000	-0.016	0.114
-614.288	-186.947	-0.099	0.001
-613.273	-79.404	-0.071	-0.024
-612.259	23.896	0.231	0.190
-611.244	-28.101	-0.135	-0.078
-610.230	-47.467	-0.245	-0.119
-609.215	-200.000	-0.057	0.474
-608.201	-200.000	0.009	-0.123
-607.186	-44.149	-0.109	-0.054
-606.171	-170.060	-0.197	0.007
-605.157	3.085	-0.251	0.183
-604.142	-6.510	-0.094	-0.064
-603.128	-58.625	0.051	-0.022
-602.113	35.365	0.279	-0.245
-601.098	374.214	0.072	-0.147
-600.084	-57.080	-0.097	0.043
-599.069	800.000	0.085	0.339
-598.055	-200.000	0.012	0.207
-597.040	-200.000	0.047	-0.267
-596.025	103.625	-0.114	-0.134
-595.011	-40.684	-0.122	0.063
-593.996	474.476	0.119	0.268
-592.982	76.213	0.369	0.390
-591.967	-200.000	-0.009	0.293
-590.952	-42.610	0.092	-0.047
-589.938	-70.980	-0.132	-0.050
-588.923	-50.184	-0.178	-0.084
-587.909	200.460	-0.094	0.144
-586.894	331.929	-0.024	0.047
-585.879	-100.766	-0.347	-0.085
-584.865	-49.132	0.100	-0.048
-583.850	-1.380	-0.117	-0.083
-582.836	109.807	-0.029	0.035
-581.821	397.294	0.178	-0.372
-580.806	-124.927	-0.220	-0.034
-579.792	-62.516	-0.112	-0.047
-578.777	-147.081	0.166	-0.014
-577.763	269.781	-0.174	0.305
-576.748	800.000	-0.034	0.139
-575.733	-54.384	0.158	0.072
-574.719	-156.247	-0.275	0.017
-573.704	416.825	0.067	-0.142
-572.690	42.191	0.105	-0.095
-571.675	208.358	0.071	-0.111
-570.661	-77.995	-0.175	0.060
-569.646	227.023	0.160	-0.260
-568.631	57.904	0.147	-0.143
-567.617	800.000	-0.052	-0.164
-566.602	-166.302	0.212	0.009
-565.588	-34.654	-0.095	0.052
-564.573	-77.680	-0.343	-0.118
-563.558	-162.249	-0.206	0.010
-562.544	227.493	-0.091	-0.148
-561.529	-200.000	0.002	0.045
-560.515	-93.661	-0.312	0.086
-559.500	-200.000	0.004	-0.198
-558.485	-200.000	0.022	-0.191
-557.471	-25.947	0.284	-0.167
-556.456	-194.670	-0.034	-0.000
-555.442	37.878	0.068	0.060
-554.427	800.000	0.044	-0.172
-553.412	58.713	-0.229	-0.224
-552.398	-200.000	-0.010	-0.059
-551.383	-0.364	0.341	-0.241
-550.369	-58.227	-0.103	-0.045
-549.354	182.538	-0.081	0.119
-548.339	-200.000	0.012	-0.206
-547.325	-8.372	0.130	0.087
-546.310	800.000	0.038	-0.161
-545.296	-12.797	0.092	0.060
-544.281	-60.448	0.091	0.039
-543.266	-102.497	-0.446	-0.106
-542.252	-87.369	-0.043	-0.013
-541.237	-200.000	0.042	0.275
-540.223	-112.328	-0.170	0.034
-539.208	53.467	-0.245	0.234
-538.193	73.594	0.043	-0.044
-537.179	-49.375	0.032	-0.015
-536.164	-23.654	0.131	-0.078
-535.150	-143.417	-0.213	-0.020
-534.135	-88.536	-0.091	0.027
-533.121	-66.700	0.275	0.109
-532.106	-20.882	0.117	-0.071
-531.091	129.433	-0.176	-0.224
-530.077	-101.109	0.155	0.038
-529.062	800.000	-0.070	-0.273
-528.048	402.778	0.096	-0.202
-527.033	-24.011	-0.343	0.204
-526.018	-58.332	0.232	-0.101
-525.004	200.986	0.144	-0.220
-523.989	0.372	-0.057	-0.040
-522.975	-101.942	0.156	0.037
-521.960	-200.000	-0.252	0.001
-520.945	189.732	-0.208	0.310
-519.931	101.642	-0.166	0.192
-518.916	8.570	0.149	0.112
-517.902	-200.000	-0.091	-0.443
-516.887	-200.000	0.005	0.039
-515.872	-171.864	-0.296	-0.010
-514.858	45.854	-0.061	0.056
-513.843	-1.853	0.267	0.187
-512.829	-65.846	0.450	-0.179
-511.814	-200.000	-0.056	-0.247
-510.799	-38.849	0.391	-0.205
-509.785	101.945	0.137	-0.160
-508.770	800.000	0.029	-0.085
-507.756	12.292	0.052	0.039
-506.741	372.047	-0.059	-0.119
-505.726	800.000	-0.055	-0.186
-504.712	-121.041	-0.292	-0.049
-503.697	13.069	-0.210	-0.162
-502.683	92.902	0.095	0.107
-501.668	142.435	0.144	0.190
-500.653	-200.000	0.020	-0.193
-499.639	-45.199	-0.184	0.091
-498.624	-200.000	-0.004	0.371
-497.610	-200.000	0.063	0.328
-496.595	800.000	-0.116	-0.431
-495.581	-91.328	-0.148	-0.042
-494.566	-200.000	-0.017	-0.179
-493.551	-81.708	-0.134	-0.044
-492.537	15.074	0.228	-0.178
-491.522	-132.812	0.556	-0.071
-490.508	-200.000	-0.009	-0.143
-489.493	800.000	-0.039	-0.126
-488.478	88.413	0.083	-0.092
-487.464	-200.000	0.025	-0.140
-486.449	-147.399	0.348	-0.029
-485.435	-101.568	-0.335	0.081
-484.420	-51.578	-0.169	-0.079
-483.405	800.000	-0.054	0.178
-482.391	32.268	-0.359	0.308
-481.376	-138.818	0.341	0.037
-480.362	-50.958	-0.199	0.093
-479.347	800.000	0.071	0.228
-478.332	-91.915	0.448	0.126
-477.318	-140.435	-0.139	0.014
-476.303	-200.000	0.016	-0.089
-475.289	800.000	0.019	-0.062
-474.274	512.736	-0.035	-0.082
-473.259	-128.532	0.448	-0.063
-472.245	-63.214	-0.285	-0.117
-471.230	800.000	-0.040	0.135
-470.216	368.413	0.100	0.201
-469.201	348.221	0.088	0.172
-468.186	119.154	-0.096	0.118
-467.172	150.347	0.088	0.119
-466.157	800.000	-0.008	-0.029
-465.143	7.284	-0.135	-0.100
-464.128	442.600	0.179	0.391
-463.113	78.977	0.339	0.360
-462.099	38.107	-0.087	0.077
-461.084	129.275	-0.207	0.263
-460.070	-38.492	-0.338	0.178
-459.055	-200.000	-0.073	-0.470
-458.040	0.529	-0.262	0.186
-457.026	-200.000	-0.003	0.179
-456.011	-63.378	-0.203	0.083
-454.997	553.654	0.028	-0.066
-453.982	-98.599	-0.290	0.074
-452.968	-200.000	-0.022	-0.247
-451.953	73.541	-0.112	-0.116
-450.938	800.000	-0.079	-0.241
-449.924	-200.000	0.013	-0.435
-448.909	359.992	0.097	-0.193
-447.895	-200.000	-0.013	-0.162
-446.880	40.945	0.243	0.217
-445.865	-200.000	0.030	0.222
-444.851	-31.424	0.061	0.034
-443.836	756.152	0.044	-0.119
-442.822	-41.762	-0.101	0.051
-441.807	-200.000	0.004	-0.081
-440.792	88.264	-0.127	-0.140
-439.778	154.871	0.017	-0.023
-438.763	-71.782	0.249	0.092
-437.749	-68.264	-0.371	0.143
-436.734	-192.012	0.312	0.003
-435.719	-138.182	-0.202	-0.022
-434.705	-3.890	-0.268	0.185
-433.690	25.555	-0.231	-0.191
-432.676	-72.851	-0.359	-0.131
-431.661	800.000	-0.043	-0.155
-430.646	-9.464	-0.182	-0.120
-429.632	130.326	0.140	0.178
-428.617	-126.128	0.171	-0.025
-427.603	157.061	-0.237	-0.325
-426.588	302.147	0.191	-0.350
-425.573	691.066	-0.050	-0.131
-424.559	-200.000	0.007	0.109
-423.544	-189.606	0.191	-0.002
-422.530	464.714	0.070	-0.156
-421.515	-164.427	-0.155	0.007
-420.500	71.345	-0.038	0.039
-419.486	135.856	0.145	0.187
-418.471	-91.678	0.118	-0.033
-417.457	-200.000	-0.045	-0.260
-416.442	43.910	-0.205	-0.186
-415.428	800.000	0.103	-0.293
-414.413	-191.182	-0.366	0.004
-413.398	60.781	0.086	0.085
-412.384	-37.614	-0.303	0.160
-411.369	-200.000	-0.003	0.083
-410.355	-200.000	0.020	-0.128
-409.340	-121.572	-0.374	-0.062
-408.325	-175.268	-0.159	0.004
-407.311	-200.000	-0.023	-0.226
-406.296	-200.000	-0.016	-0.115
-405.282	49.026	0.055	0.052
-404.267	-39.184	0.241	-0.125
-403.252	39.741	-0.224	0.199
-402.238	800.000	-0.047	-0.140
-401.223	-128.128	0.238	-0.034
-400.209	800.000	0.071	0.203
-399.194	-89.042	0.167	0.049
-398.179	-36.682	-0.171	0.091
-397.165	-200.000	-0.007	0.344
-396.150	732.794	0.126	0.334
-395.136	-147.177	-0.256	-0.022
-394.121	-67.954	-0.074	0.029
-393.106	275.277	0.130	0.229
-392.092	115.137	-0.203	-0.245
-391.077	-91.788	-0.322	-0.091
-390.063	15.971	0.193	-0.151
-389.048	800.000	-0.143	-0.416
-388.033	282.320	-0.092	0.164
-387.019	5.032	0.169	-0.123
-386.004	800.000	-0.069	-0.209
-384.990	87.601	0.158	0.174
-383.975	58.831	0.178	0.173
-382.960	159.594	-0.061	0.084
-381.946	-135.562	-0.072	0.008
-380.931	-175.937	0.218	-0.006
-379.917	7.356	0.099	-0.074
-378.902	593.571	0.087	-0.214
-377.888	500.536	0.059	-0.135
-376.873	-200.000	0.004	-0.237
-375.858	-32.798	-0.105	-0.058
-374.844	-10.118	0.046	0.030
-373.829	60.157	0.031	-0.031
-372.815	622.390	0.041	-0.101
-371.800	87.238	-0.049	0.054
-370.785	17.902	0.177	0.139
-369.771	470.938	-0.111	0.248
-368.756	800.000	-0.029	0.104
-367.742	235.973	-0.032	-0.053
-366.727	170.741	0.203	0.287
-365.712	-48.151	-0.302	0.144
-364.698	-42.171	0.169	0.085
-363.683	87.467	-0.106	-0.116
-362.669	-138.416	0.236	0.026
-361.654	-45.919	-0.058	0.029
-360.639	-97.992	0.410	0.105
-359.625	-200.000	0.063	-0.317
-358.610	493.895	-0.126	-0.287
-357.596	39.140	-0.228	0.202
-356.581	29.213	0.033	-0.028
-355.566	-200.000	0.011	0.260
-354.552	-135.523	-0.355	0.042
-353.537	-200.000	-0.002	-0.024
-352.523	-200.000	0.004	0.288
-351.508	-106.612	0.120	0.026
-350.493	-200.000	-0.099	-0.437
-349.479	126.094	0.174	0.217
-348.464	-200.000	-0.034	0.156
-347.450	36.664	-0.100	0.087
-346.435	-10.550	-0.074	0.049
-345.420	-55.145	0.217	-0.097
-344.406	19.991	0.275	0.219
-343.391	254.013	-0.125	0.212
-342.377	148.941	0.104	-0.139
-341.362	198.947	-0.128	0.193
-340.348	-200.000	-0.001	0.662
-339.333	62.752	0.093	0.092
-338.318	1.152	0.100	-0.071
-337.304	-199.094	-0.256	0.001
-336.289	-200.000	0.024	-0.292
-335.275	-200.000	0.004	0.152
-334.260	-82.540	-0.103	-0.033
-333.245	64.993	-0.119	0.119
-332.231	20.887	0.166	-0.133
-331.216	-144.700	-0.058	-0.005
-330.202	150.209	0.249	-0.334
-329.187	-148.748	-0.051	-0.004
-328.172	121.908	0.134	-0.165
-327.158	10.594	0.243	0.183
-326.143	800.000	-0.062	-0.210
-325.129	-200.000	-0.067	-0.290
-324.114	2.515	0.089	0.063
-323.099	-115.852	-0.156	-0.029
-322.085	-200.000	-0.025	-0.108
-321.070	68.403	-0.150	0.152
-320.056	175.029	-0.202	-0.289
-319.041	257.193	0.095	-0.161
-318.026	-200.000	-0.056	0.656
-317.012	95.652	0.229	0.258
-315.997	-111.148	-0.284	-0.058
-314.983	-161.820	0.159	-0.008
-313.968	800.000	-0.062	0.267
-312.953	-108.512	0.334	-0.071
-311.939	-11.479	0.153	-0.099
-310.924	-200.000	0.024	0.169
-309.910	-200.000	0.014	0.221
-308.895	-82.652	0.429	0.137
-307.880	-44.583	0.143	-0.071
-306.866	44.801	-0.223	0.202
-305.851	-88.575	0.070	-0.021
-304.837	-119.935	-0.155	0.026
-303.822	-155.809	-0.181	-0.011
-302.807	-155.763	0.073	0.005
-301.793	443.779	0.021	0.045
-300.778	-73.096	0.269	-0.097
-299.764	-109.760	-0.336	-0.070
-298.749	352.105	-0.042	-0.082
-297.735	-95.632	0.122	-0.032
-296.720	111.227	0.150	0.178
-295.705	50.202	0.241	-0.224
-294.691	92.103	0.324	-0.360
-293.676	-68.382	0.058	-0.022
-292.662	2.687	0.097	-0.070
-291.647	-151.470	0.343	0.025
-290.632	-76.141	0.269	-0.094
-289.618	-173.713	0.165	-0.005
-288.603	545.120	-0.037	0.087
-287.589	-110.544	0.228	-0.047
-286.574	-17.588	-0.174	-0.108
-285.559	28.564	-0.112	-0.094
-284.545	-38.652	0.258	-0.134
-283.530	-35.078	0.285	-0.153
-282.516	617.660	0.027	-0.068
-281.501	-52.481	0.177	0.081
-280.486	-200.000	0.029	0.190
-279.472	-200.000	-0.037	-0.277
-278.457	131.099	0.109	0.138
-277.443	187.417	-0.064	-0.094
-276.428	-21.053	0.161	-0.097
-275.413	9.878	0.102	-0.076
-274.399	186.724	-0.119	-0.175
-273.384	385.401	-0.184	0.374
-272.370	800.000	-0.015	0.046
-271.355	-200.000	0.048	0.268
-270.340	54.199	-0.364	-0.345
-269.326	-124.571	-0.219	0.034
-268.311	800.000	0.089	0.260
-267.297	-38.263	0.354	0.185
-266.282	454.212	-0.214	0.468
-265.267	-200.000	0.016	-0.098
-264.253	-50.212	-0.164	0.076
-263.238	58.899	-0.363	-0.352
-262.224	-200.000	0.006	-0.111
-261.209	-200.000	-0.022	-0.123
-260.195	-40.449	0.120	-0.062
-259.180	-146.108	0.278	-0.024
-258.165	79.940	0.207	-0.220
-257.151	43.368	-0.063	-0.056
-256.136	-153.337	0.074	0.005
-255.122	-200.000	-0.010	0.069
-254.107	503.913	-0.015	-0.034
-253.092	-26.939	0.294	0.169
-252.078	-161.327	-0.493	-0.025
-251.063	-60.111	-0.318	0.134
-250.049	-136.041	0.219	-0.025
-249.034	124.032	-0.323	-0.400
-248.019	313.404	-0.168	-0.311
-247.005	161.183	0.072	-0.099
-245.990	74.182	0.180	-0.187
-244.976	800.000	-0.058	-0.230
-243.961	-85.413	0.369	0.113
-242.946	800.000	-0.005	0.018
-241.932	277.052	0.118	-0.207
-240.917	319.776	0.107	-0.199
-239.903	724.642	-0.067	-0.176
-238.888	-52.049	0.253	0.116
-237.873	90.426	0.205	0.226
-236.859	800.000	-0.051	0.151
-235.844	441.515	-0.204	0.439
-234.830	-200.000	0.050	0.357
-233.815	-200.000	0.040	0.211
-232.800	-130.512	-0.317	0.042
-231.786	323.887	-0.177	-0.332
-230.771	-200.000	0.020	0.099
-229.757	-101.066	0.349	0.084
-228.742	-152.892	0.198	-0.014
-227.727	-67.174	-0.311	0.121
-226.713	409.279	0.047	0.099
-225.698	-67.383	0.115	-0.044
-224.684	375.491	0.032	-0.064
-223.669	719.522	0.105	-0.276
-222.655	87.885	0.177	0.193
-221.640	800.000	0.097	0.271
-220.625	451.675	-0.066	0.144
-219.611	-200.000	-0.011	-0.090
-218.596	-75.390	-0.241	-0.085
-217.582	200.182	-0.083	0.126
-216.567	-185.623	-0.182	0.003
-215.552	-200.000	-0.003	-0.253
-214.538	-127.902	0.147	0.021
-213.523	207.248	-0.164	-0.251
-212.509	-40.464	-0.285	0.146
-211.494	-44.836	-0.263	-0.129
-210.479	-145.251	-0.183	-0.016
-209.465	-179.704	0.284	-0.006
-208.450	-143.114	0.340	0.032
-207.436	200.791	-0.158	0.238
-206.421	24.580	-0.128	-0.104
-205.406	53.958	0.091	-0.086
-204.392	-129.360	0.127	0.017
-203.377	800.000	-0.039	0.111
-202.363	-200.000	-0.006	0.046
-201.348	-200.000	0.025	0.119
-200.333	292.620	-0.149	0.268
-199.319	89.661	0.171	0.187
-198.304	-61.430	-0.052	0.022
-197.290	800.000	0.077	-0.214
-196.275	470.975	0.132	-0.293
-195.260	-108.964	-0.255	0.053
-194.246	143.523	0.142	0.186
-193.231	225.697	0.168	0.267
-192.217	124.626	-0.196	-0.242
-191.202	-10.334	-0.153	-0.100
-190.187	-75.778	0.292	0.102
-189.173	800.000	0.115	0.351
-188.158	258.321	0.097	0.164
-187.144	773.569	-0.111	0.298
-186.129	800.000	0.061	-0.172
-185.114	145.811	0.094	-0.124
-184.100	754.805	0.092	0.244
-183.085	800.000	-0.059	-0.178
-182.071	-9.031	0.091	0.060
-181.056	134.287	0.264	0.336
-180.042	-175.706	0.114	0.003
-179.027	86.359	-0.178	-0.193
-178.012	265.922	-0.082	-0.141
-176.998	196.262	0.218	0.326
-175.983	-200.000	-0.011	0.080
-174.969	69.095	-0.188	-0.189
-173.954	166.823	0.232	0.324
-172.939	-45.450	0.578	0.281
-171.925	800.000	0.136	-0.378
-170.910	32.877	-0.242	0.206
-169.896	386.962	-0.126	0.256
-168.881	-153.277	-0.091	0.006
-167.866	-38.620	0.492	-0.255
-166.852	132.953	-0.114	0.144
-165.837	54.215	0.218	0.206
-164.823	-200.000	0.023	0.116
-163.808	-60.973	-0.077	0.032
-162.793	-107.868	0.030	-0.006
-161.779	102.288	0.078	0.089
-160.764	-150.529	0.064	0.005
-159.750	443.878	-0.086	0.185
-158.735	-96.117	0.186	-0.048
-157.720	-200.000	0.010	0.555
-156.706	-62.308	0.288	-0.118
-155.691	17.661	0.157	0.122
-154.677	-15.597	0.166	0.104
-153.662	24.001	-0.173	-0.140
-152.647	-3.466	-0.205	0.140
-151.633	729.335	0.075	0.197
-150.618	-200.000	0.051	0.354
-149.604	122.698	-0.174	0.213
-148.589	-28.711	-0.212	0.120
-147.574	-200.000	-0.016	0.213
-146.560	195.203	-0.050	0.074
-145.545	-137.695	0.129	0.014
-144.531	771.703	0.096	-0.257
-143.516	-111.351	0.421	0.084
-142.502	-12.010	0.149	0.096
-141.487	-135.022	0.156	0.018
-140.472	-0.464	0.132	0.092
-139.458	31.965	0.287	0.243
-138.443	-115.048	0.143	-0.027
-137.429	-12.888	-0.109	0.069
-136.414	-200.000	-0.029	0.245
-135.399	-200.000	0.023	0.324
-134.385	309.716	0.091	-0.167
-133.370	-117.154	-0.279	0.050
-132.356	-200.000	-0.053	-0.265
-131.341	800.000	0.122	-0.350
-130.326	-71.107	0.175	0.064
-129.312	50.987	-0.048	-0.045
-128.297	-200.000	-0.022	0.295
-127.283	-200.000	-0.024	-0.405
-126.268	-88.965	0.268	0.078
-125.253	-66.349	0.082	0.032
-124.239	-200.000	-0.011	-0.143
-123.224	-200.000	0.007	-0.174
-122.210	-100.296	0.347	0.084
-121.195	-200.000	0.035	0.311
-120.180	2.666	0.078	-0.055
-119.166	-59.608	0.189	0.079
-118.151	800.000	0.069	-0.241
-117.137	360.058	-0.049	-0.097
-116.122	800.000	0.030	-0.083
-115.107	-102.193	-0.270	-0.064
-114.093	186.086	-0.251	0.365
-113.078	132.393	0.124	-0.156
-112.064	18.552	-0.110	-0.086
-111.049	-200.000	0.054	0.508
-110.034	800.000	0.074	-0.250
-109.020	61.986	0.312	-0.304
-108.005	31.574	-0.166	-0.140
-106.991	-200.000	0.006	0.119
-105.976	-18.832	0.198	-0.121
-104.962	404.844	0.069	0.142
-103.947	-36.248	0.401	-0.212
-102.932	34.739	-0.243	0.208
-101.918	53.213	-0.098	-0.092
-100.903	-194.909	-0.113	-0.001
-99.889	-75.424	-0.274	0.096
-98.874	752.032	-0.107	-0.283
-97.859	289.362	0.169	0.300
-96.845	-200.000	0.000	0.133
-95.830	591.274	0.064	-0.154
-94.816	-200.000	0.013	-0.235
-93.801	432.591	0.120	-0.255
-92.786	-200.000	-0.012	0.212
-91.772	60.620	0.074	0.072
-90.757	-53.769	-0.051	0.023
-89.743	624.012	0.150	-0.371
-88.728	-115.514	0.432	-0.080
-87.713	36.136	0.115	-0.099
-86.699	-15.936	0.099	0.062
-85.684	-42.411	-0.029	0.015
-84.670	-130.090	0.223	0.030
-83.655	-200.000	-0.004	-0.099
-82.640	-200.000	0.007	0.139
-81.626	-200.000	-0.010	0.116
-80.611	-107.848	-0.374	-0.080
-79.597	-131.846	-0.200	0.026
-78.582	800.000	0.050	0.149
-77.567	800.000	0.086	0.306
-76.553	76.525	-0.263	-0.273
-75.538	-134.670	0.006	-0.001
-74.524	-64.332	0.263	0.105
-73.509	800.000	0.082	-0.251
-72.494	800.000	0.060	0.178
-71.480	-103.657	0.146	-0.033
-70.465	-34.980	0.252	0.135
-69.451	-119.205	0.331	-0.056
-68.436	213.194	-0.116	-0.179
-67.422	82.464	0.114	-0.121
-66.407	452.898	-0.064	-0.140
-65.392	-86.614	0.135	-0.040
-64.378	50.468	0.181	0.167
-63.363	-200.000	0.020	-0.329
-62.349	27.723	0.219	-0.180
-61.334	73.484	-0.926	-0.948
-60.319	35.120	0.668	0.572
-59.305	415.129	-0.544	-1.133
-58.290	213.535	0.878	1.356
-57.276	-200.000	0.184	1.787
-56.261	-200.000	116.116	659.996
-55.246	526.525	1539.285	3544.972
-54.232	175.745	2709.766	3842.553
-53.217	107.638	2181.459	2538.348
-52.203	37.536	1698.566	1472.896
-51.188	29.776	1514.591	1260.666
-50.173	27.560	1489.795	1225.095
-49.159	52.073	1549.634	1443.018
-48.144	49.968	1564.511	1442.406
-47.130	29.882	1519.791	1265.512
-46.115	26.825	1504.976	1232.389
-45.100	26.703	1501.245	1228.459
-44.086	26.715	1499.054	1226.698
-43.071	26.692	1496.895	1224.732
-42.057	26.609	1495.542	1223.014
-41.042	26.554	1494.584	1221.807
-40.027	26.667	1492.864	1221.117
-39.013	26.587	1491.245	1219.205
-37.998	26.662	1490.238	1218.837
-36.984	26.621	1489.020	1217.515
-35.969	26.709	1487.265	1216.627
-34.954	26.730	1486.090	1215.757
-33.940	26.607	1484.770	1213.802
-32.925	26.648	1483.382	1212.894
-31.911	26.713	1482.116	1212.247
-30.896	26.610	1480.896	1210.513
-29.881	26.764	1479.776	1210.575
-28.867	26.691	1478.612	1209.089
-27.852	26.783	1476.889	1208.247
-26.838	26.757	1475.845	1207.174
-25.823	26.752	1474.484	1205.973
-24.809	26.737	1472.599	1204.290
-23.794	26.769	1471.043	1203.182
-22.779	26.682	1470.119	1201.801
-21.765	26.735	1468.838	1201.054
-20.750	26.710	1467.846	1200.028
-19.736	26.685	1467.060	1199.175
-18.721	26.702	1465.020	1197.574
-17.706	26.637	1464.133	1196.368
-16.692	26.577	1463.695	1195.567
-15.677	26.607	1462.496	1194.740
-14.663	26.739	1461.207	1194.511
-13.648	26.662	1460.565	1193.430
-12.633	26.613	1459.665	1192.327
-11.619	26.658	1459.215	1192.206
-10.604	26.571	1457.989	1190.589
-9.590	26.669	1456.646	1190.083
-8.575	26.703	1455.663	1189.456
-7.560	26.649	1455.224	1188.698
-6.546	26.643	1454.574	1188.081
-5.531	26.687	1453.311	1187.293
-4.517	26.629	1452.648	1186.324
-3.502	26.591	1451.930	1185.439
-2.487	26.608	1450.206	1184.092
-1.473	26.613	1449.678	1183.651
-0.458	26.678	1447.934	1182.602
0.556	28.609	1438.691	1172.834
1.571	25.889	1414.425	1135.831
2.586	22.662	1354.834	1068.369
3.600	21.107	1272.957	994.854
4.615	19.685	1227.630	951.522
5.629	17.205	1170.825	894.373
6.644	10.321	1089.000	797.981
7.659	5.053	1052.068	745.715
8.673	4.484	1046.266	738.834
9.688	4.298	1042.859	735.478
10.702	3.985	1041.233	732.785
11.717	4.144	1039.298	732.111
12.731	6.690	1041.323	745.512
13.746	13.904	1051.535	787.058
14.761	20.335	1059.003	823.176
15.775	22.114	1061.103	833.179
16.790	21.685	1059.713	829.985
17.804	20.799	1057.771	824.200
18.819	20.028	1055.799	818.944
19.834	19.627	1054.522	815.991
20.848	19.597	1053.915	815.304
21.863	19.687	1053.380	815.242
22.877	19.314	1052.728	812.909
23.892	19.376	1051.769	812.387
24.907	19.083	1050.976	810.325
25.921	19.122	1050.401	809.991
26.936	19.148	1049.594	809.421
27.950	19.107	1048.437	808.263
28.965	19.052	1047.648	807.326
29.980	19.065	1046.665	806.556
30.994	19.369	1045.255	806.824
32.009	19.321	1044.770	806.153
33.023	19.312	1044.521	805.849
34.038	19.403	1043.804	805.646
35.053	19.229	1042.292	803.600
36.067	19.174	1041.248	802.467
37.082	19.197	1040.226	801.715
38.096	19.203	1039.633	801.215
39.111	19.296	1039.186	801.231
40.126	19.345	1038.245	800.665
41.140	19.195	1036.586	798.615
42.155	19.001	1035.284	796.643
43.169	18.705	1034.866	794.882
44.184	18.621	1033.504	793.379
45.199	18.541	1032.612	792.252
46.213	18.671	1031.842	792.194
47.228	18.815	1030.512	791.765
48.242	19.107	1029.690	792.410
49.257	19.205	1029.033	792.281
50.271	18.970	1028.610	790.804
51.286	19.256	1027.269	791.017
52.301	19.242	1027.026	790.696
53.315	19.235	1026.149	789.922
54.330	19.120	1025.522	788.840
55.344	18.912	1024.299	786.879
56.359	18.831	1023.443	785.779
57.374	18.853	1022.452	785.048
58.388	18.843	1021.549	784.243
59.403	18.695	1020.940	783.030
60.417	18.567	1020.194	781.804
61.432	18.549	1019.524	781.139
62.447	18.660	1018.330	780.662
63.461	18.578	1017.732	779.761
64.476	18.446	1016.842	778.413
65.490	18.572	1015.391	777.801
66.505	18.438	1014.938	776.780
67.520	18.455	1014.209	776.230
68.534	18.541	1013.530	776.032
69.549	18.693	1012.504	775.863
70.563	18.350	1012.029	773.880
71.578	18.399	1011.451	773.594
72.593	18.308	1010.348	772.268
73.607	18.311	1008.863	771.078
74.622	18.222	1008.435	770.284
75.636	18.151	1007.614	769.266
76.651	18.284	1006.586	769.015
77.666	18.364	1006.223	769.028
78.680	18.430	1005.522	768.718
79.695	18.491	1004.627	768.240
80.709	18.415	1004.074	767.409
81.724	18.635	1003.239	767.688
82.739	18.778	1002.651	767.808
83.753	18.850	1002.072	767.619
84.768	18.980	1001.633	767.795
85.782	19.374	1001.003	769.002
86.797	19.678	1000.388	769.816
87.812	19.534	999.513	768.436
88.826	19.297	998.585	766.598
89.841	19.291	997.515	765.681
90.855	19.307	996.771	765.117
91.870	19.385	996.654	765.306
92.884	19.485	996.123	765.272
93.899	19.540	994.645	764.312
94.914	19.488	994.124	763.613
95.928	19.465	993.626	763.061
96.943	19.744	992.724	763.533
97.957	19.399	991.378	760.911
98.972	19.286	990.600	759.745
99.987	19.295	989.866	759.155
101.001	19.345	989.407	758.959
102.016	19.381	988.558	758.397
103.030	19.361	987.704	757.587
104.045	19.447	986.725	757.145
105.060	19.413	985.613	756.076
106.074	19.346	984.886	755.159
107.089	19.132	983.680	753.234
108.103	18.731	982.789	750.731
109.118	18.691	981.774	749.714
110.133	18.472	981.041	748.129
111.147	18.458	980.130	747.308
112.162	18.552	979.063	746.839
113.176	18.487	978.482	746.046
114.191	18.592	977.993	746.064
115.206	18.998	976.448	746.582
116.220	18.853	976.105	745.628
117.235	18.631	975.471	744.113
118.249	18.746	974.342	743.685
119.264	18.686	973.035	742.360
120.279	18.741	972.096	741.815
121.293	18.450	971.995	740.417
122.308	18.480	970.789	739.560
123.322	18.503	969.885	738.905
124.337	18.335	968.848	737.329
125.352	18.301	967.904	736.399
126.366	18.171	966.796	734.932
127.381	18.159	965.781	734.042
128.395	18.190	965.327	733.768
129.410	18.311	963.895	733.129
130.424	18.461	963.090	733.097
131.439	18.403	962.329	732.205
132.454	18.698	961.414	732.704
133.468	18.750	961.017	732.556
134.483	18.627	960.638	731.680
135.497	18.779	959.520	731.408
136.512	18.748	959.044	730.850
137.527	18.826	958.051	730.360
138.541	18.657	957.381	729.069
139.556	18.698	957.307	729.121
140.570	18.798	956.048	728.521
141.585	18.973	955.299	728.628
142.600	19.177	955.222	729.370
143.614	19.197	954.610	728.921
144.629	19.234	954.052	728.585
145.643	19.372	953.470	728.660
146.658	19.347	952.305	727.602
147.673	19.253	950.821	726.005
148.687	18.921	950.026	723.939
149.702	18.878	949.022	722.927
150.716	18.781	948.201	721.829
151.731	18.734	947.582	721.100
152.746	18.896	946.499	720.889
153.760	18.850	946.132	720.352
154.775	18.814	945.339	719.536
155.789	18.876	944.735	719.270
156.804	19.057	943.956	719.370
157.819	18.923	943.253	718.211
158.833	19.158	942.371	718.457
159.848	19.288	941.739	718.456
160.862	19.477	941.141	718.720
161.877	19.451	940.481	718.047
162.892	19.148	939.127	715.688
163.906	18.952	937.702	713.728
164.921	18.678	937.647	712.486
165.935	18.808	936.257	711.903
166.950	18.816	935.804	711.529
167.964	19.229	934.069	711.853
168.979	19.038	933.792	710.789
169.994	18.883	932.548	709.144
171.008	18.821	931.332	707.898
172.023	18.943	930.928	708.032
173.037	19.131	930.480	708.403
174.052	19.355	929.936	708.845
175.067	19.210	929.271	707.681
176.081	19.029	927.899	705.832
177.096	18.743	926.734	703.709
178.110	18.744	926.112	703.180
179.125	18.799	925.520	702.895
180.140	18.878	924.395	702.299
181.154	18.871	924.286	702.125
182.169	19.148	923.826	702.846
183.183	19.166	923.353	702.496
184.198	19.348	922.576	702.584
185.213	19.324	921.985	701.975
186.227	19.285	921.288	701.223
187.242	19.326	920.967	701.086
188.256	19.471	920.345	701.138
189.271	19.503	919.936	700.894
190.286	19.659	919.010	700.761
191.300	19.465	917.909	699.073
192.315	18.922	916.992	696.113
193.329	18.674	915.959	694.264
194.344	18.807	915.070	694.065
195.359	18.950	914.757	694.345
196.373	19.124	914.507	694.797
197.388	19.111	914.387	694.594
198.402	19.414	913.658	695.198
199.417	19.547	913.626	695.649
200.432	19.747	913.113	696.000
201.446	19.820	912.851	696.034
202.461	19.987	912.228	696.169
203.475	19.988	912.178	696.075
204.490	19.981	911.009	695.093
205.504	19.705	910.232	693.330
206.519	19.479	909.276	691.632
207.534	19.492	908.197	690.805
208.548	19.246	907.996	689.605
209.563	19.468	906.946	689.634
210.577	19.427	906.287	688.910
211.592	19.384	906.131	688.557
212.607	19.801	905.443	689.635
213.621	19.774	905.330	689.384
214.636	19.686	904.429	688.286
215.650	19.591	903.652	687.253
216.665	19.576	903.312	686.876
217.680	19.781	902.692	687.158
218.694	19.881	902.324	687.212
219.709	19.915	902.073	687.097
220.723	19.908	900.962	686.163
221.738	19.758	900.823	685.402
222.753	19.698	899.486	684.085
223.767	19.718	899.102	683.813
224.782	19.953	897.962	683.814
225.796	20.124	897.148	683.806
226.811	20.030	897.255	683.458
227.826	20.039	896.253	682.669
228.840	19.752	895.201	680.678
229.855	19.634	894.864	679.897
230.869	19.757	893.988	679.655
231.884	19.684	893.360	678.830
232.899	19.700	892.580	678.242
233.913	19.598	891.686	677.103
234.928	19.439	891.051	675.937
235.942	19.373	890.554	675.240
236.957	19.476	889.711	674.945
237.972	19.351	889.117	673.947
238.986	19.427	888.544	673.750
240.001	19.464	887.692	673.186
241.015	19.521	887.068	672.878
242.030	19.491	886.337	672.148
243.045	19.627	886.175	672.494
244.059	19.907	885.470	672.987
245.074	19.631	885.053	671.539
246.088	19.835	884.349	671.739
247.103	20.060	883.957	672.255
248.117	19.962	883.775	671.677
249.132	20.078	883.280	671.691
250.147	20.255	883.203	672.256
251.161	20.678	882.123	673.012
252.176	20.719	882.011	673.025
253.190	20.728	881.324	672.476
254.205	20.786	880.453	671.977
255.220	20.849	879.851	671.700
256.234	20.844	879.274	671.180
257.249	20.654	878.933	670.129
258.263	20.859	878.102	670.225
259.278	20.693	877.520	669.083
260.293	20.700	877.101	668.734
261.307	20.723	876.298	668.150
262.322	20.798	875.873	668.053
263.336	21.041	875.420	668.582
264.351	20.765	874.854	667.034
265.366	20.935	873.972	666.951
266.380	20.880	873.496	666.318
267.395	20.951	872.655	665.889
268.409	20.885	871.880	664.988
269.424	20.716	871.248	663.802
270.439	20.597	870.859	662.994
271.453	20.692	869.775	662.471
272.468	20.457	868.888	660.841
273.482	20.617	868.084	660.781
274.497	20.581	868.076	660.580
275.512	20.524	866.790	659.327
276.526	20.557	866.080	658.852
277.541	20.554	865.772	658.547
278.555	20.506	865.442	658.058
279.570	20.803	865.127	658.883
280.585	20.896	864.347	658.585
281.599	20.880	864.200	658.354
282.614	20.855	863.264	657.486
283.628	20.775	862.638	656.650
284.643	20.759	862.178	656.181
285.657	20.603	861.909	655.331
286.672	20.569	861.341	654.714
287.687	20.730	860.564	654.670
288.701	20.782	859.801	654.227
289.716	20.617	859.601	653.396
290.730	20.750	858.985	653.372
291.745	20.762	858.282	652.822
292.760	20.864	857.487	652.544
293.774	20.994	856.938	652.555
294.789	21.043	856.738	652.526
295.803	21.119	855.967	652.166
296.818	20.796	855.520	650.561
297.833	20.789	854.536	649.730
298.847	20.739	853.861	648.972
299.862	20.785	853.405	648.738
300.876	20.878	852.932	648.670
301.891	20.965	852.490	648.600
302.906	21.062	851.896	648.452
303.920	21.167	851.415	648.417
304.935	21.219	851.187	648.377
305.949	21.316	850.717	648.322
306.964	21.381	849.906	647.891
307.979	21.133	848.966	646.195
308.993	21.136	848.265	645.619
310.008	21.294	847.794	645.788
311.022	21.430	847.290	645.847
312.037	21.325	846.837	645.058
313.052	21.083	846.193	643.617
314.066	20.997	845.317	642.577
315.081	20.791	844.696	641.289
316.095	20.741	844.238	640.699
317.110	20.811	843.533	640.367
318.125	20.818	842.789	639.772
319.139	20.759	842.699	639.428
320.154	20.890	841.712	639.103
321.168	20.845	841.378	638.628
322.183	20.831	840.992	638.227
323.197	20.937	840.916	638.502
324.212	20.925	839.972	637.686
325.227	20.994	839.715	637.685
326.241	21.041	838.873	637.162
327.256	20.820	838.375	635.921
328.270	20.831	837.829	635.488
329.285	20.942	837.165	635.333
330.300	20.858	836.903	634.774
331.314	20.890	835.868	634.048
332.329	20.910	835.285	633.622
333.343	21.054	835.212	634.035
334.358	21.207	834.683	634.132
335.373	21.182	834.020	633.484
336.387	21.274	833.608	633.446
337.402	21.265	833.123	632.992
338.416	21.499	832.441	633.262
339.431	21.415	832.220	632.736
340.446	21.747	831.680	633.468
341.460	21.742	831.277	633.088
342.475	21.706	830.800	632.537
343.489	21.727	830.275	632.158
344.504	21.889	829.900	632.402
345.519	22.014	829.272	632.317
346.533	22.003	828.852	631.899
347.548	22.055	827.983	631.371
348.562	21.793	827.194	629.769
349.577	21.567	826.534	628.401
350.592	21.341	825.914	627.066
351.606	21.393	825.481	626.866
352.621	21.213	825.022	625.818
353.635	21.387	824.488	625.981
354.650	21.277	824.612	625.625
355.665	21.477	823.893	625.737
356.679	21.610	823.196	625.631
357.694	21.645	822.787	625.389
358.708	21.460	822.835	624.709
359.723	21.421	821.921	623.822
360.738	21.591	821.255	623.866
361.752	21.671	820.788	623.741
362.767	21.686	820.277	623.350
363.781	21.703	820.690	623.671
364.796	21.954	819.832	623.854
365.810	22.073	819.439	623.922
366.825	22.117	819.307	623.922
367.840	22.229	818.944	623.988
368.854	22.178	818.257	623.230
369.869	22.046	817.963	622.483
370.883	21.969	817.212	621.583
371.898	21.839	816.755	620.722
372.913	22.123	816.013	621.108
373.927	22.123	815.593	620.730
374.942	22.113	814.521	619.825
375.956	21.939	814.289	618.980
376.971	22.092	813.465	618.839
377.986	22.304	813.330	619.427
379.000	22.322	813.063	619.232
380.015	22.511	812.230	619.208
381.029	22.485	811.647	618.619
382.044	22.276	811.302	617.567
383.059	22.342	810.746	617.320
384.073	22.369	810.006	616.795
385.088	22.308	809.644	616.252
386.102	22.095	808.764	614.783
387.117	21.953	808.069	613.703
388.132	21.878	807.579	613.016
389.146	21.889	807.470	612.917
390.161	21.848	807.511	612.750
391.175	22.048	806.642	612.733
392.190	22.204	806.504	613.118
393.205	22.341	805.636	612.883
394.219	22.043	805.108	611.389
395.234	22.098	804.444	611.023
396.248	21.867	803.996	609.823
397.263	21.743	803.603	609.042
398.278	21.732	802.867	608.391
399.292	21.640	802.663	607.865
400.307	21.636	802.208	607.452
401.321	21.797	801.424	607.364
402.336	21.824	801.379	607.367
403.350	21.955	800.747	607.288
404.365	21.957	800.619	607.143
405.380	22.127	800.173	607.341
406.394	22.243	799.950	607.519
407.409	22.335	799.629	607.540
408.423	22.562	798.841	607.670
409.438	22.595	798.694	607.618
410.453	22.686	798.436	607.680
411.467	22.694	798.011	607.330
412.482	22.755	797.332	606.971
413.496	22.879	797.072	607.145
414.511	22.801	796.852	606.655
415.526	22.977	796.131	606.656
416.540	22.810	795.707	605.709
417.555	22.694	795.330	604.967
418.569	22.844	794.239	604.598
419.584	22.945	794.220	604.878
420.599	22.928	793.538	604.247
421.613	165.505	1368.572	1796.615
422.628	143.666	1452.347	1796.714
