DTS Sentinel unit serial number:	SN413079Multiplexer serial number:	ORYXHardware model number:	OX4-SRSoftware version number:	ORYX F/W v4.00 Oryx Data Collector v3.7.2.0data status	okinstallation	princeton_trtdifferential loss correction	single-endedforward channel	channel 3reverse channel	N/Adate	2019/09/13time	06:20:35forward acquisition time	60.00reverse acquisition time	0.00gamma	496.2192k internal	0.2339k external	0.2339temperature offset calibration	1.0133default loss term (dB/km)	0.3790temperature slope calibration	1.0000multiplexer offset coefficient	1.0000multiplexer slope coefficient	1.0000fibre end	0.00T internal ref (°C)	26.12T ext. ref 1 (°C)	4.10T ext. ref 2 (°C)	20.82length (m)	temperature (°C)	Stokes	anti-Stokes-747.200	189.458	0.189	0.284
-746.185	-9.741	-0.376	0.251
-745.171	-200.000	-0.016	0.267
-744.156	-111.358	-0.257	-0.052
-743.142	467.132	-0.050	0.112
-742.127	-107.952	-0.205	-0.045
-741.112	-200.000	-0.015	0.079
-740.098	800.000	-0.129	0.397
-739.083	800.000	0.045	0.177
-738.069	359.635	-0.185	0.371
-737.054	470.066	-0.183	-0.413
-736.039	294.095	-0.072	-0.132
-735.025	56.863	-0.233	0.228
-734.010	-200.000	0.007	0.158
-732.996	-200.000	0.012	-0.082
-731.981	-200.000	-0.294	-0.001
-730.966	-132.348	-0.198	0.026
-729.952	-200.000	0.042	0.364
-728.937	-200.000	0.022	0.385
-727.923	-59.463	-0.163	-0.070
-726.908	-65.035	-0.180	0.073
-725.894	-183.496	-0.265	-0.005
-724.879	293.374	-0.114	0.209
-723.864	-0.260	-0.273	0.195
-722.850	-68.688	-0.222	0.086
-721.835	-33.336	0.309	0.172
-720.821	-18.643	0.079	0.049
-719.806	-181.375	0.474	-0.009
-718.791	800.000	-0.021	0.085
-717.777	183.185	-0.176	0.261
-716.762	554.359	-0.048	-0.114
-715.748	81.248	0.125	0.136
-714.733	-22.811	0.052	0.031
-713.718	341.508	-0.016	-0.032
-712.704	221.841	-0.162	0.261
-711.689	-200.000	0.015	0.354
-710.675	-121.340	0.045	0.008
-709.660	-111.832	0.103	0.021
-708.645	481.734	-0.072	0.164
-707.631	-146.173	-0.165	-0.015
-706.616	-77.386	-0.098	-0.034
-705.602	-200.000	-0.003	-0.078
-704.587	105.586	0.119	-0.141
-703.572	-200.000	0.013	-0.105
-702.558	-66.852	-0.243	0.096
-701.543	-108.232	-0.144	-0.031
-700.529	2.447	0.193	0.140
-699.514	-149.546	-0.331	-0.026
-698.499	-83.381	-0.172	0.055
-697.485	83.115	-0.105	-0.114
-696.470	-200.000	-0.054	0.303
-695.456	800.000	-0.115	0.343
-694.441	-200.000	0.045	-0.225
-693.426	-93.892	0.439	-0.121
-692.412	800.000	-0.119	-0.358
-691.397	199.357	-0.038	0.058
-690.383	-139.901	-0.419	0.044
-689.368	743.592	0.045	-0.121
-688.354	-200.000	0.034	-0.197
-687.339	-200.000	0.055	-0.395
-686.324	-200.000	0.031	-0.182
-685.310	379.921	-0.129	-0.264
-684.295	2.063	-0.266	-0.193
-683.281	-200.000	-0.045	-0.221
-682.266	800.000	0.021	0.070
-681.251	-200.000	0.015	0.139
-680.237	154.889	0.117	0.161
-679.222	-104.217	-0.267	0.062
-678.208	-66.029	-0.151	0.060
-677.193	8.004	-0.123	0.093
-676.178	-83.683	0.217	0.069
-675.164	-200.000	-0.058	0.325
-674.149	-154.878	-0.364	-0.024
-673.135	112.448	-0.148	0.179
-672.120	138.440	-0.204	-0.268
-671.105	176.023	-0.082	0.120
-670.091	14.157	0.143	0.111
-669.076	340.458	-0.147	-0.288
-668.062	800.000	-0.085	0.241
-667.047	-181.107	0.349	0.007
-666.032	-88.148	-0.186	0.056
-665.018	-79.368	-0.347	-0.117
-664.003	104.882	-0.066	0.078
-662.989	-200.000	0.039	0.263
-661.974	21.611	-0.217	-0.176
-660.959	79.329	-0.204	0.219
-659.945	15.161	-0.198	0.155
-658.930	143.883	0.191	0.254
-657.916	800.000	0.010	0.040
-656.901	41.062	0.284	-0.257
-655.886	-77.305	-0.443	-0.154
-654.872	-53.414	0.131	0.060
-653.857	-47.658	-0.220	0.107
-652.843	251.564	-0.155	-0.264
-651.828	-200.000	-0.049	-0.364
-650.814	-200.000	-0.008	-0.139
-649.799	-48.167	-0.327	-0.158
-648.784	-77.048	-0.268	-0.093
-647.770	-101.753	-0.286	-0.069
-646.755	-105.436	-0.164	-0.037
-645.741	800.000	-0.014	-0.059
-644.726	-6.652	-0.122	-0.083
-643.711	-144.378	0.155	0.014
-642.697	-15.551	0.023	-0.015
-641.682	800.000	0.065	-0.285
-640.668	97.122	-0.215	0.247
-639.653	-133.020	0.055	0.007
-638.638	800.000	0.043	0.184
-637.624	-51.838	-0.173	0.080
-636.609	-93.028	0.164	0.046
-635.595	351.042	0.052	-0.103
-634.580	-19.150	-0.065	-0.040
-633.565	39.197	-0.023	0.020
-632.551	-127.542	-0.105	-0.015
-631.536	47.013	-0.142	-0.132
-630.522	-38.671	-0.170	0.089
-629.507	408.765	-0.027	-0.057
-628.492	-200.000	0.031	0.209
-627.478	-84.233	-0.174	0.055
-626.463	55.566	-0.111	-0.108
-625.449	-158.066	0.078	0.005
-624.434	800.000	0.023	0.093
-623.419	157.063	0.172	-0.237
-622.405	-200.000	-0.003	-0.122
-621.390	-200.000	0.021	-0.126
-620.376	-44.709	0.097	0.048
-619.361	-72.522	-0.245	0.090
-618.346	-122.288	0.440	0.072
-617.332	800.000	-0.045	0.184
-616.317	-185.243	0.269	0.004
-615.303	-125.094	0.239	0.037
-614.288	632.676	-0.052	-0.132
-613.273	-61.596	-0.060	-0.025
-612.259	-7.374	0.131	0.089
-611.244	97.808	-0.124	0.142
-610.230	14.273	0.055	-0.043
-609.215	81.753	0.091	-0.099
-608.201	-87.128	-0.293	-0.089
-607.186	-11.212	-0.148	-0.097
-606.171	-42.641	0.253	0.129
-605.157	83.000	0.218	0.236
-604.142	161.299	-0.110	-0.153
-603.128	-69.429	-0.198	0.076
-602.113	739.311	0.020	-0.052
-601.098	464.052	-0.097	-0.217
-600.084	-200.000	0.065	-0.327
-599.069	62.353	-0.115	-0.114
-598.055	-120.325	-0.151	-0.026
-597.040	243.617	-0.081	0.135
-596.025	-121.992	0.251	-0.041
-595.011	667.093	0.110	-0.284
-593.996	-200.000	-0.014	-0.141
-592.982	119.812	-0.048	0.059
-591.967	-200.000	-0.026	-0.184
-590.952	-200.000	0.002	-0.590
-589.938	0.395	0.244	-0.174
-588.923	280.560	-0.091	-0.163
-587.909	-200.000	-0.012	0.067
-586.894	800.000	-0.073	-0.307
-585.879	38.529	0.090	-0.080
-584.865	-200.000	0.038	0.399
-583.850	-200.000	-0.012	0.252
-582.836	800.000	0.040	0.141
-581.821	-200.000	0.037	0.243
-580.806	-200.000	-0.054	-0.297
-579.792	-140.723	0.325	0.034
-578.777	79.366	0.165	-0.176
-577.763	-85.473	0.056	0.018
-576.748	-200.000	-0.029	-0.256
-575.733	-169.590	0.147	-0.005
-574.719	-74.334	-0.124	0.044
-573.704	800.000	0.048	-0.154
-572.690	-200.000	-0.014	-0.382
-571.675	58.675	-0.144	-0.141
-570.661	-136.450	-0.041	-0.005
-569.646	800.000	0.077	-0.247
-568.631	800.000	-0.063	-0.219
-567.617	-96.424	-0.109	-0.029
-566.602	-11.240	0.068	-0.044
-565.588	-18.684	0.170	-0.106
-564.573	37.950	0.220	0.195
-563.558	-200.000	-0.028	0.136
-562.544	-119.524	0.086	0.015
-561.529	237.682	-0.033	0.055
-560.515	800.000	0.112	-0.327
-559.500	-200.000	0.023	0.218
-558.485	-69.233	-0.178	0.068
-557.471	303.375	0.066	-0.123
-556.456	54.891	0.294	0.283
-555.442	-57.795	-0.153	0.067
-554.427	-56.381	0.297	-0.131
-553.412	2.453	-0.117	-0.085
-552.398	189.404	0.046	-0.069
-551.383	-200.000	0.049	0.326
-550.369	-200.000	-0.024	0.156
-549.354	39.034	-0.149	-0.133
-548.339	66.650	-0.068	-0.069
-547.325	800.000	0.149	0.515
-546.310	-98.494	0.253	0.064
-545.296	64.359	-0.130	0.131
-544.281	-157.934	0.224	0.013
-543.266	-60.141	0.164	-0.070
-542.252	136.601	-0.123	0.160
-541.237	60.147	0.205	0.201
-540.223	429.046	-0.029	-0.062
-539.208	122.475	-0.176	0.219
-538.193	-160.560	-0.363	-0.019
-537.179	-85.826	-0.277	-0.085
-536.164	-150.332	0.223	-0.017
-535.150	-200.000	-0.022	0.105
-534.135	800.000	0.062	0.232
-533.121	-200.000	0.039	0.186
-532.106	99.289	-0.235	0.270
-531.091	-77.585	-0.223	0.077
-530.077	74.071	-0.154	0.160
-529.062	-32.173	-0.123	-0.069
-528.048	31.038	0.159	-0.135
-527.033	800.000	-0.066	-0.188
-526.018	-55.172	0.242	0.108
-525.004	481.590	-0.235	-0.530
-523.989	-27.965	0.192	-0.111
-522.975	800.000	-0.047	0.175
-521.960	-23.332	-0.088	0.052
-520.945	297.044	0.060	0.109
-519.931	-161.251	0.170	-0.009
-518.916	83.210	-0.250	0.271
-517.902	124.039	0.304	-0.380
-516.887	800.000	0.046	-0.176
-515.872	-165.169	0.172	-0.008
-514.858	85.091	0.241	-0.263
-513.843	26.550	-0.146	0.121
-512.829	183.599	0.283	0.416
-511.814	800.000	-0.048	0.180
-510.799	146.420	-0.100	-0.134
-509.785	96.406	0.090	-0.102
-508.770	-113.028	0.240	-0.047
-507.756	-91.614	-0.213	-0.060
-506.741	800.000	-0.052	-0.217
-505.726	17.126	0.324	-0.256
-504.712	93.465	0.108	0.121
-503.697	14.207	-0.233	-0.181
-502.683	225.924	-0.091	-0.147
-501.668	320.822	0.111	0.209
-500.653	800.000	0.085	0.347
-499.639	-70.620	0.033	0.012
-498.624	273.619	-0.053	0.094
-497.610	-200.000	-0.043	0.326
-496.595	226.844	-0.232	0.375
-495.581	20.633	0.187	-0.151
-494.566	-161.931	0.080	-0.004
-493.551	-92.869	0.083	0.023
-492.537	-186.280	-0.165	0.002
-491.522	800.000	-0.007	0.019
-490.508	-200.000	0.018	0.312
-489.493	143.376	-0.115	-0.151
-488.478	-200.000	0.008	-0.116
-487.464	-200.000	-0.033	0.243
-486.449	172.381	-0.243	0.348
-485.435	-200.000	0.015	0.297
-484.420	-19.455	0.136	0.084
-483.405	-21.049	0.074	0.045
-482.391	-79.584	0.298	-0.100
-481.376	242.766	0.034	0.057
-480.362	303.692	-0.081	-0.150
-479.347	-19.529	-0.237	0.145
-478.332	-130.493	0.050	-0.007
-477.318	-5.840	-0.388	-0.264
-476.303	-140.193	0.383	-0.040
-475.289	-30.728	0.470	0.264
-474.274	18.972	-0.222	0.176
-473.259	-11.074	-0.126	-0.082
-472.245	-93.569	-0.328	0.090
-471.230	-63.729	0.300	0.122
-470.216	580.292	0.099	-0.241
-469.201	38.753	0.288	0.255
-468.186	110.931	-0.156	0.187
-467.172	100.695	-0.032	-0.037
-466.157	20.352	0.038	0.031
-465.143	-160.380	-0.275	0.015
-464.128	-121.192	0.152	-0.025
-463.113	800.000	0.037	-0.162
-462.099	492.657	0.050	-0.113
-461.084	-21.642	-0.105	0.063
-460.070	271.129	-0.006	-0.011
-459.055	-45.088	-0.271	-0.134
-458.040	703.074	0.144	-0.378
-457.026	-147.071	0.304	0.026
-456.011	-200.000	-0.031	-0.317
-454.997	188.661	0.214	0.317
-453.982	-64.570	0.340	0.137
-452.968	132.050	0.146	0.186
-451.953	97.932	-0.105	-0.120
-450.938	-96.288	-0.361	-0.095
-449.924	-200.000	-0.012	-0.260
-448.909	-52.161	0.109	0.050
-447.895	-58.551	0.204	-0.088
-446.880	-200.000	-0.133	-0.673
-445.865	-200.000	-0.014	-0.181
-444.851	-134.750	0.301	-0.036
-443.836	-200.000	0.007	0.283
-442.822	10.687	-0.262	-0.198
-441.807	-128.993	-0.173	0.024
-440.792	777.827	-0.076	0.207
-439.778	-60.289	-0.240	-0.101
-438.763	-95.602	-0.146	-0.039
-437.749	400.573	-0.121	0.251
-436.734	210.769	-0.114	-0.177
-435.719	-200.000	-0.022	-0.118
-434.705	242.595	-0.065	0.107
-433.690	-200.000	0.039	-0.174
-432.676	-7.509	-0.110	-0.074
-431.661	-200.000	0.023	-0.231
-430.646	133.615	-0.131	0.168
-429.632	-200.000	0.012	-0.087
-428.617	800.000	0.024	0.097
-427.603	-200.000	0.005	-0.043
-426.588	-200.000	0.043	-0.266
-425.573	-200.000	-0.010	0.126
-424.559	-60.562	0.280	0.118
-423.544	-106.721	0.269	0.059
-422.530	-200.000	0.003	0.058
-421.515	136.731	0.119	-0.153
-420.500	-41.185	-0.319	0.163
-419.486	-200.000	-0.068	0.331
-418.471	-111.396	-0.220	0.044
-417.457	48.989	0.096	0.089
-416.442	-134.809	0.253	0.030
-415.428	301.512	-0.102	-0.186
-414.413	365.753	-0.161	0.321
-413.398	-71.729	-0.195	-0.072
-412.384	-53.431	-0.131	0.060
-411.369	-147.182	-0.216	0.018
-410.355	-30.661	-0.148	0.083
-409.340	-183.428	-0.448	-0.008
-408.325	414.393	0.092	-0.193
-407.311	-53.174	-0.160	0.073
-406.296	-111.174	0.232	-0.047
-405.282	-53.240	0.326	0.148
-404.267	-25.591	0.354	0.207
-403.252	-28.024	0.018	0.010
-402.238	-200.000	0.046	-0.259
-401.223	589.911	-0.096	-0.234
-400.209	-162.681	-0.327	-0.016
-399.194	-200.000	-0.006	-0.180
-398.179	-200.000	0.008	0.124
-397.165	-200.000	0.015	-0.146
-396.150	11.723	-0.396	-0.301
-395.136	113.069	0.030	-0.036
-394.121	556.896	-0.110	-0.262
-393.106	-166.049	-0.063	-0.003
-392.092	-200.000	-0.044	0.197
-391.077	-38.514	0.289	0.151
-390.063	194.302	0.132	-0.198
-389.048	456.354	0.109	-0.239
-388.033	86.014	0.249	0.272
-387.019	352.577	0.204	0.400
-386.004	217.345	0.137	-0.216
-384.990	800.000	0.020	-0.056
-383.975	104.581	-0.039	-0.046
-382.960	-140.388	0.152	-0.016
-381.946	-79.983	0.091	-0.030
-380.931	-22.277	-0.080	0.048
-379.917	-200.000	-0.014	-0.236
-378.902	147.896	0.199	-0.265
-377.888	-6.130	-0.194	0.131
-376.873	-200.000	0.005	-0.147
-375.858	90.301	0.138	-0.152
-374.844	800.000	-0.159	0.491
-373.829	-200.000	-0.015	0.099
-372.815	23.225	-0.195	0.159
-371.800	-70.796	0.112	-0.042
-370.785	-88.908	0.189	0.055
-369.771	-62.492	-0.330	0.135
-368.756	427.097	-0.171	-0.364
-367.742	800.000	0.026	-0.098
-366.727	175.593	-0.130	-0.187
-365.712	-105.321	0.066	0.015
-364.698	-200.000	0.082	-0.429
-363.683	-35.546	-0.181	-0.097
-362.669	-37.943	0.106	0.055
-361.654	-200.000	-0.015	-0.211
-360.639	-8.122	-0.313	-0.208
-359.625	287.311	0.148	0.265
-358.610	0.215	-0.121	0.085
-357.596	10.894	0.196	-0.148
-356.581	38.957	0.198	-0.175
-355.566	-101.187	-0.053	-0.013
-354.552	-178.438	-0.142	-0.003
-353.537	296.014	0.156	-0.282
-352.523	632.220	-0.143	-0.357
-351.508	178.628	0.211	-0.304
-350.493	-95.211	0.286	-0.076
-349.479	-38.036	-0.178	0.093
-348.464	-103.318	-0.132	0.031
-347.450	-200.000	0.015	-0.107
-346.435	-95.190	0.219	0.058
-345.420	-190.105	0.177	-0.002
-344.406	8.862	0.203	-0.152
-343.391	-10.333	0.110	-0.072
-342.377	-200.000	0.012	-0.108
-341.362	-114.124	-0.068	-0.013
-340.348	-124.534	0.109	-0.017
-339.333	-72.625	0.095	-0.035
-338.318	-90.147	0.171	0.049
-337.304	-200.000	-0.026	-0.159
-336.289	800.000	0.009	-0.027
-335.275	193.622	-0.194	-0.290
-334.260	-117.969	-0.086	-0.015
-333.245	269.464	0.093	0.161
-332.231	-85.465	-0.057	-0.017
-331.216	24.631	0.201	0.164
-330.202	800.000	0.142	0.495
-329.187	-6.689	0.229	0.154
-328.172	725.820	-0.142	-0.374
-327.158	-20.587	-0.346	-0.210
-326.143	-4.211	0.079	-0.054
-325.129	-31.258	-0.191	-0.106
-324.114	132.978	-0.125	0.159
-323.099	-200.000	-0.043	-0.384
-322.085	146.376	-0.128	-0.169
-321.070	800.000	-0.053	0.182
-320.056	-97.974	-0.169	-0.043
-319.041	-185.914	-0.222	0.003
-318.026	-131.138	0.132	0.017
-317.012	-100.389	-0.317	-0.078
-315.997	600.447	0.105	0.258
-314.983	-99.560	0.106	0.026
-313.968	-200.000	0.000	0.179
-312.953	-200.000	0.029	-0.334
-311.939	147.681	0.079	0.105
-310.924	-140.445	0.306	-0.031
-309.910	800.000	-0.046	0.133
-308.895	105.700	-0.217	-0.253
-307.880	448.018	0.110	0.240
-306.866	-69.093	0.082	-0.031
-305.851	-22.846	-0.134	0.080
-304.837	175.047	0.206	0.294
-303.822	203.144	0.090	-0.137
-302.807	28.062	0.177	-0.147
-301.793	-157.908	0.206	0.012
-300.778	117.023	-0.205	0.248
-299.764	-134.731	-0.085	-0.010
-298.749	-46.835	-0.079	-0.038
-297.735	-200.000	0.004	0.157
-296.720	800.000	-0.037	0.155
-295.705	-163.139	-0.284	-0.013
-294.691	7.487	0.109	0.081
-293.676	-54.857	0.061	-0.027
-292.662	800.000	0.051	0.183
-291.647	139.953	0.107	-0.138
-290.632	-61.301	-0.079	0.033
-289.618	800.000	0.086	0.246
-288.603	-74.669	0.215	-0.076
-287.589	-155.875	-0.260	-0.016
-286.574	414.671	-0.062	-0.131
-285.559	-47.191	0.263	0.126
-284.545	-200.000	0.025	0.130
-283.530	800.000	-0.055	-0.209
-282.516	751.515	-0.112	0.297
-281.501	-121.537	-0.190	-0.031
-280.486	-185.525	-0.068	0.001
-279.472	-68.833	-0.188	-0.071
-278.457	92.035	-0.089	-0.099
-277.443	-81.187	0.176	-0.057
-276.428	-115.672	-0.140	0.026
-275.413	-200.000	0.027	0.133
-274.399	-97.099	0.347	0.089
-273.384	-192.424	-0.144	-0.001
-272.370	-59.933	-0.215	-0.090
-271.355	-41.322	0.218	0.111
-270.340	-9.459	-0.239	0.157
-269.326	-82.211	0.171	0.055
-268.311	-176.400	0.028	0.001
-267.297	800.000	0.062	0.256
-266.282	-82.453	0.150	-0.048
-265.267	-82.988	-0.095	0.030
-264.253	-200.000	-0.010	0.132
-263.238	7.922	-0.178	-0.132
-262.224	-54.167	-0.229	0.102
-261.209	-200.000	-0.016	0.141
-260.195	-200.000	-0.006	0.028
-259.180	319.506	-0.086	0.161
-258.165	165.666	-0.246	0.342
-257.151	67.378	0.062	0.062
-256.136	277.907	-0.035	-0.061
-255.122	-200.000	-0.037	0.195
-254.107	-24.807	-0.213	0.125
-253.092	296.531	-0.052	-0.094
-252.078	-63.292	0.278	0.113
-251.063	-2.607	0.082	0.057
-250.049	-41.777	-0.029	-0.015
-249.034	112.887	-0.040	0.048
-248.019	506.914	-0.062	-0.142
-247.005	171.962	-0.169	-0.239
-245.990	183.040	-0.147	0.214
-244.976	476.028	-0.161	-0.358
-243.961	-80.974	0.422	-0.137
-242.946	209.555	0.024	0.037
-241.932	14.769	-0.261	-0.201
-240.917	40.357	-0.086	-0.076
-239.903	-200.000	0.008	-0.052
-238.888	-115.806	-0.096	-0.018
-237.873	88.876	-0.199	0.218
-236.859	229.163	0.055	0.088
-235.844	182.247	-0.111	0.161
-234.830	-200.000	0.033	0.157
-233.815	-3.347	0.186	0.128
-232.800	-121.062	-0.111	0.018
-231.786	-127.111	-0.138	0.020
-230.771	255.691	0.146	0.246
-229.757	-121.420	-0.270	0.044
-228.742	135.953	0.127	0.162
-227.727	392.892	0.084	0.173
-226.713	317.114	-0.093	-0.172
-225.698	-200.000	-0.005	0.070
-224.684	-124.874	0.115	-0.017
-223.669	-113.641	-0.241	-0.046
-222.655	-0.364	-0.163	0.114
-221.640	-176.039	0.461	0.012
-220.625	-163.529	-0.210	-0.010
-219.611	769.055	0.146	0.392
-218.596	800.000	0.050	0.140
-217.582	800.000	-0.042	-0.155
-216.567	-100.296	0.283	-0.069
-215.552	123.107	0.115	-0.142
-214.538	68.483	0.137	0.138
-213.523	537.483	0.181	0.423
-212.509	-166.094	-0.078	0.003
-211.494	-116.258	0.261	-0.047
-210.479	348.282	0.046	0.089
-209.465	-200.000	0.006	0.042
-208.450	-6.365	0.156	0.104
-207.436	-200.000	0.052	0.273
-206.421	420.208	0.129	-0.272
-205.406	-98.493	-0.328	0.082
-204.392	-115.689	-0.209	-0.039
-203.377	722.508	0.080	0.209
-202.363	-200.000	0.037	-0.185
-201.348	-200.000	-0.042	0.358
-200.333	800.000	0.136	0.450
-199.319	10.219	0.089	-0.067
-198.304	260.659	-0.013	-0.021
-197.290	-200.000	-0.003	-0.149
-196.275	554.170	0.068	-0.159
-195.260	-200.000	0.034	-0.157
-194.246	-200.000	0.034	-0.185
-193.231	-170.546	0.069	0.002
-192.217	-44.382	0.081	-0.040
-191.202	-45.032	-0.049	0.024
-190.187	9.448	-0.241	-0.179
-189.173	37.619	-0.214	-0.187
-188.158	28.230	-0.028	-0.023
-187.144	368.330	-0.042	-0.084
-186.129	800.000	-0.046	-0.130
-185.114	21.263	0.104	0.083
-184.100	-42.210	-0.059	0.030
-183.085	-200.000	-0.017	0.116
-182.071	207.985	-0.134	-0.206
-181.056	-97.252	-0.113	0.029
-180.042	-140.838	0.233	0.024
-179.027	800.000	-0.112	-0.338
-178.012	179.205	0.025	0.036
-176.998	-101.647	-0.227	-0.054
-175.983	-200.000	-0.037	0.208
-174.969	-60.076	-0.487	0.204
-173.954	-77.312	-0.180	-0.061
-172.939	800.000	-0.104	0.314
-171.925	-47.436	-0.183	0.087
-170.910	-5.062	0.128	-0.086
-169.896	-114.761	-0.084	-0.016
-168.881	-146.040	-0.156	-0.014
-167.866	-32.462	-0.265	0.145
-166.852	-69.845	0.221	0.083
-165.837	105.709	-0.126	-0.146
-164.823	-111.378	0.321	0.064
-163.808	434.080	0.167	-0.356
-162.793	749.765	0.132	0.349
-161.779	-103.884	0.473	0.108
-160.764	153.571	-0.062	-0.084
-159.750	-200.000	0.034	-0.202
-158.735	123.294	0.103	-0.126
-157.720	164.304	0.022	0.030
-156.706	-162.460	0.440	0.021
-155.691	108.983	0.138	-0.162
-154.677	-200.000	-0.061	0.311
-153.662	36.641	-0.383	0.331
-152.647	-115.354	0.466	0.086
-151.633	800.000	-0.025	0.072
-150.618	-135.305	-0.192	0.023
-149.604	495.076	-0.075	-0.168
-148.589	800.000	0.143	-0.498
-147.574	-200.000	0.031	-0.261
-146.560	800.000	0.039	0.127
-145.545	-9.347	0.095	0.062
-144.531	-12.258	0.435	-0.279
-143.516	-127.360	0.243	0.035
-142.502	-89.258	0.276	-0.080
-141.487	-28.358	-0.132	-0.074
-140.472	-67.854	-0.069	0.027
-139.458	-29.465	-0.219	-0.123
-138.443	250.490	-0.198	0.330
-137.429	-200.000	0.002	-0.314
-136.414	629.957	0.075	0.186
-135.399	800.000	0.094	0.385
-134.385	194.003	0.110	0.163
-133.370	800.000	0.025	0.099
-132.356	-23.926	0.084	0.049
-131.341	-23.452	0.162	0.095
-130.326	-108.962	-0.266	-0.056
-129.312	800.000	-0.040	0.147
-128.297	453.861	-0.025	-0.054
-127.283	52.506	0.208	0.194
-126.268	-200.000	-0.022	0.273
-125.253	55.514	0.072	-0.068
-124.239	198.979	0.061	0.092
-123.224	19.934	-0.267	0.211
-122.210	-200.000	-0.032	0.299
-121.195	415.038	-0.153	0.319
-120.180	-200.000	-0.064	-0.357
-119.166	-165.525	0.330	0.014
-118.151	278.124	-0.136	-0.237
-117.137	38.931	0.230	0.201
-116.122	-200.000	-0.032	-0.168
-115.107	326.583	0.027	-0.050
-114.093	-79.810	-0.210	-0.069
-113.078	-107.358	0.502	-0.108
-112.064	-112.122	-0.328	-0.065
-111.049	-127.507	0.087	0.012
-110.034	626.646	0.134	-0.332
-109.020	-6.327	-0.285	0.190
-108.005	115.790	-0.231	-0.276
-106.991	-11.293	-0.223	0.144
-105.976	800.000	-0.101	0.325
-104.962	398.374	-0.130	0.265
-103.947	-85.500	0.325	-0.099
-102.932	227.358	0.095	-0.152
-101.918	-48.356	-0.393	0.185
-100.903	-39.870	-0.125	0.064
-99.889	800.000	0.054	0.165
-98.874	-200.000	0.024	0.232
-97.859	96.258	0.034	0.038
-96.845	800.000	0.031	-0.116
-95.830	-103.373	-0.180	-0.042
-94.816	-200.000	0.051	-0.231
-93.801	134.890	0.071	-0.090
-92.786	-200.000	0.000	-0.214
-91.772	-118.294	0.281	-0.049
-90.757	-27.605	0.547	0.311
-89.743	-50.745	-0.315	-0.145
-88.728	-200.000	0.054	-0.234
-87.713	-95.799	-0.108	0.028
-86.699	-109.147	-0.208	0.043
-85.684	107.358	-0.139	0.162
-84.670	-200.000	0.051	0.415
-83.655	776.291	0.040	0.107
-82.640	-73.913	0.174	0.062
-81.626	11.927	0.257	0.193
-80.611	76.140	-0.031	-0.032
-79.597	-108.396	-0.272	0.057
-78.582	-43.802	-0.195	-0.096
-77.567	-50.893	0.143	-0.066
-76.553	-200.000	0.044	0.226
-75.538	-17.196	0.082	0.050
-74.524	-41.657	-0.196	-0.098
-73.509	-125.227	-0.343	0.051
-72.494	-2.926	0.168	-0.114
-71.480	-187.239	-0.269	-0.004
-70.465	-129.801	-0.302	0.041
-69.451	291.682	-0.187	-0.332
-68.436	-200.000	0.027	-0.194
-67.422	133.648	0.155	0.195
-66.407	-127.067	0.370	-0.053
-65.392	-200.000	-0.005	0.355
-64.378	-33.924	0.202	0.109
-63.363	-200.000	0.045	-0.294
-62.349	-158.469	0.142	-0.008
-61.334	80.570	-0.822	-0.865
-60.319	86.792	0.590	0.636
-59.305	492.579	-0.434	-0.972
-58.290	92.184	0.955	1.051
-57.276	546.930	0.747	1.745
-56.261	-200.000	117.578	644.103
-55.246	485.118	1553.988	3455.583
-54.232	174.375	2721.455	3841.632
-53.217	103.064	2175.933	2489.232
-52.203	36.622	1691.117	1457.849
-51.188	29.400	1506.787	1250.164
-50.173	27.096	1481.579	1213.825
-49.159	49.168	1543.379	1415.920
-48.144	48.077	1557.688	1421.536
-47.130	29.282	1512.685	1254.056
-46.115	26.302	1497.426	1221.251
-45.100	26.103	1494.369	1217.371
-44.086	26.139	1492.466	1216.013
-43.071	26.098	1490.408	1214.014
-42.057	26.116	1488.957	1212.900
-41.042	26.118	1487.738	1211.874
-40.027	26.060	1485.820	1209.873
-39.013	26.067	1484.626	1208.902
-37.998	25.932	1483.643	1207.149
-36.984	26.132	1482.566	1207.563
-35.969	26.085	1481.031	1205.951
-34.954	26.052	1479.871	1204.738
-33.940	26.080	1477.981	1203.339
-32.925	26.235	1476.375	1203.014
-31.911	26.126	1475.246	1201.320
-30.896	26.114	1474.301	1200.424
-29.881	26.182	1472.873	1199.666
-28.867	26.164	1471.843	1198.664
-27.852	26.226	1470.154	1197.652
-26.838	26.276	1468.534	1196.616
-25.823	26.177	1467.355	1194.947
-24.809	26.134	1466.361	1193.811
-23.794	26.208	1464.267	1192.545
-22.779	26.188	1463.133	1191.440
-21.765	26.171	1462.425	1190.704
-20.750	26.156	1461.076	1189.463
-19.736	26.140	1459.962	1188.401
-18.721	26.164	1459.103	1187.813
-17.706	26.193	1457.544	1186.690
-16.692	26.182	1456.280	1185.540
-15.677	26.059	1455.679	1184.200
-14.663	26.178	1454.511	1183.979
-13.648	26.125	1453.767	1182.978
-12.633	26.075	1452.618	1181.670
-11.619	26.086	1451.889	1181.103
-10.604	26.162	1450.946	1180.787
-9.590	25.989	1450.326	1179.103
-8.575	26.084	1449.346	1178.880
-7.560	26.076	1448.872	1178.394
-6.546	26.109	1447.671	1177.589
-5.531	26.161	1446.738	1177.123
-4.517	26.182	1445.588	1176.275
-3.502	26.087	1444.749	1174.926
-2.487	26.151	1443.621	1174.377
-1.473	26.017	1443.525	1173.385
-0.458	26.173	1441.152	1172.419
0.556	27.717	1431.688	1161.024
1.571	24.621	1407.255	1121.705
2.586	21.069	1348.922	1053.703
3.600	19.526	1267.787	981.466
4.615	18.203	1223.646	939.948
5.629	16.216	1166.927	885.881
6.644	9.972	1085.486	793.397
7.659	4.949	1049.733	743.293
8.673	4.377	1044.561	736.852
9.688	4.121	1041.336	733.298
10.702	3.924	1039.474	730.991
11.717	3.989	1037.875	730.107
12.731	6.488	1039.027	742.642
13.746	13.341	1048.606	781.918
14.761	19.960	1057.267	819.752
15.775	22.093	1059.560	831.567
16.790	21.926	1058.108	829.565
17.804	20.862	1056.274	823.027
18.819	20.076	1054.574	817.921
19.834	19.728	1053.313	815.229
20.848	19.631	1052.666	814.201
21.863	19.686	1052.001	813.873
22.877	19.408	1051.953	812.457
23.892	19.365	1050.634	811.163
24.907	19.136	1050.160	809.648
25.921	19.231	1049.261	809.327
26.936	19.135	1048.423	808.159
27.950	19.054	1047.261	806.811
28.965	19.184	1045.869	806.277
29.980	19.205	1045.119	805.726
30.994	19.537	1043.875	806.246
32.009	19.604	1043.477	806.182
33.023	19.638	1042.315	805.368
34.038	19.642	1041.494	804.683
35.053	19.336	1041.000	802.808
36.067	19.296	1040.005	801.783
37.082	19.284	1038.822	800.743
38.096	19.286	1038.264	800.252
39.111	19.321	1037.533	799.779
40.126	19.343	1036.844	799.281
41.140	19.219	1035.491	797.590
42.155	19.053	1033.805	795.453
43.169	18.868	1032.919	793.848
44.184	18.832	1031.532	792.544
45.199	18.883	1030.436	791.871
46.213	18.707	1029.763	790.471
47.228	18.856	1029.217	790.667
48.242	19.222	1028.266	791.547
49.257	19.314	1027.918	791.635
50.271	19.295	1026.508	790.394
51.286	19.308	1025.951	789.954
52.301	19.397	1025.396	789.864
53.315	19.410	1024.457	789.126
54.330	19.178	1023.783	787.477
55.344	19.078	1022.612	786.052
56.359	18.998	1020.958	784.348
57.374	18.988	1020.468	783.855
58.388	19.056	1019.846	783.617
59.403	18.838	1019.017	781.918
60.417	18.749	1018.125	780.762
61.432	18.711	1017.846	780.304
62.447	18.767	1016.801	779.688
63.461	18.669	1015.452	778.140
64.476	18.503	1015.263	777.177
65.490	18.568	1013.918	776.369
66.505	18.548	1013.288	775.728
67.520	18.603	1012.324	775.171
68.534	18.715	1011.698	775.130
69.549	18.566	1011.429	774.181
70.563	18.581	1009.951	773.051
71.578	18.571	1009.600	772.669
72.593	18.502	1008.408	771.376
73.607	18.182	1007.620	769.266
74.622	18.271	1006.692	768.888
75.636	18.375	1005.806	768.611
76.651	18.424	1004.865	768.044
77.666	18.496	1004.298	767.866
78.680	18.514	1003.746	767.457
79.695	18.422	1003.442	766.746
80.709	18.521	1002.827	766.647
81.724	18.591	1001.928	766.208
82.739	18.834	1001.370	766.798
83.753	18.884	1000.349	766.168
84.768	19.090	999.996	766.752
85.782	19.434	999.693	767.979
86.797	19.758	998.972	768.800
87.812	19.632	998.182	767.566
88.826	19.473	997.083	765.946
89.841	19.319	996.151	764.478
90.855	19.517	995.572	764.847
91.870	19.523	995.052	764.405
92.884	19.699	994.099	764.382
93.899	19.676	993.488	763.742
94.914	19.664	992.250	762.670
95.928	19.617	992.116	762.296
96.943	19.643	991.346	761.751
97.957	19.537	990.337	760.441
98.972	19.415	989.496	759.190
99.987	19.399	988.504	758.292
101.001	19.539	988.015	758.464
102.016	19.490	987.402	757.711
103.030	19.393	986.358	756.418
104.045	19.490	985.478	756.102
105.060	19.598	984.014	755.383
106.074	19.346	983.503	753.821
107.089	19.194	982.052	751.980
108.103	18.748	981.403	749.469
109.118	18.712	980.309	748.412
110.133	18.742	979.193	747.624
111.147	18.630	978.481	746.527
112.162	18.647	977.448	745.744
113.176	18.690	976.731	745.322
114.191	18.817	975.973	745.228
115.206	18.911	975.456	745.174
116.220	18.933	974.547	744.510
117.235	18.839	973.585	743.299
118.249	18.814	973.067	742.731
119.264	18.652	972.160	741.276
120.279	18.624	971.267	740.407
121.293	18.625	970.399	739.686
122.308	18.481	969.474	738.295
123.322	18.501	968.198	737.343
124.337	18.284	967.629	735.911
125.352	18.347	966.408	735.189
126.366	18.344	965.376	734.327
127.381	18.447	964.132	733.756
128.395	18.286	963.463	732.493
129.410	18.297	962.416	731.676
130.424	18.516	962.179	732.368
131.439	18.430	960.877	730.947
132.454	18.745	960.505	731.940
133.468	18.762	959.963	731.534
134.483	18.818	958.966	730.949
135.497	18.711	958.942	730.410
136.512	18.874	957.697	730.091
137.527	18.764	956.978	729.012
138.541	18.810	956.123	728.492
139.556	19.050	955.330	728.837
140.570	19.013	954.715	728.150
141.585	19.060	953.940	727.694
142.600	19.215	953.777	728.156
143.614	19.291	952.714	727.603
144.629	19.353	952.761	727.836
145.643	19.408	952.132	727.523
146.658	19.600	950.814	727.263
147.673	19.241	949.623	724.774
148.687	19.172	948.525	723.583
149.702	18.969	947.690	722.032
150.716	18.979	946.556	721.144
151.731	18.822	946.147	720.112
152.746	18.894	945.407	719.787
153.760	18.905	944.537	719.105
154.775	19.100	943.675	719.198
155.789	19.010	943.812	718.864
156.804	19.106	943.003	718.584
157.819	19.340	941.392	718.268
158.833	19.370	940.771	717.856
159.848	19.359	940.670	717.673
160.862	19.647	939.738	718.095
161.877	19.555	939.148	717.195
162.892	19.160	937.829	714.490
163.906	18.909	937.003	712.756
164.921	19.030	935.641	712.155
165.935	18.787	934.978	710.584
166.950	18.956	934.078	710.533
167.964	19.059	933.802	710.688
168.979	19.197	932.345	710.083
169.994	18.944	931.190	708.101
171.008	19.008	930.380	707.685
172.023	19.066	929.781	707.404
173.037	19.165	929.160	707.279
174.052	19.494	928.290	707.903
175.067	19.477	927.781	707.381
176.081	19.083	926.318	704.592
177.096	18.945	925.284	703.178
178.110	18.750	924.904	702.029
179.125	18.853	923.985	701.690
180.140	18.985	923.416	701.735
181.154	19.141	922.671	701.744
182.169	19.213	922.656	701.962
183.183	19.333	922.224	702.059
184.198	19.460	921.303	701.814
185.213	19.388	920.624	700.943
186.227	19.399	920.035	700.475
187.242	19.410	919.986	700.421
188.256	19.529	919.037	700.121
189.271	19.660	918.564	700.229
190.286	19.565	917.978	699.337
191.300	19.559	916.706	698.279
192.315	19.089	915.022	695.036
193.329	18.699	914.771	693.211
194.344	18.658	914.004	692.401
195.359	18.961	913.666	693.308
196.373	18.977	913.450	693.148
197.388	19.272	912.582	693.613
198.402	19.218	912.518	693.286
199.417	19.598	912.496	694.736
200.432	19.891	911.600	695.170
201.446	19.947	911.403	695.186
202.461	19.954	911.217	695.009
203.475	20.031	910.940	695.045
204.490	19.962	910.221	694.156
205.504	19.893	908.660	692.631
206.519	19.689	907.551	690.907
207.534	19.536	907.266	690.021
208.548	19.540	906.002	689.013
209.563	19.461	905.749	688.443
210.577	19.668	904.829	688.510
211.592	19.463	904.807	687.613
212.607	19.737	904.216	688.195
213.621	19.923	903.884	688.620
214.636	19.888	903.015	687.758
215.650	19.700	902.493	686.554
216.665	19.778	901.768	686.253
217.680	19.816	901.234	685.933
218.694	19.921	901.359	686.387
219.709	19.996	900.482	685.954
220.723	20.039	899.687	685.458
221.738	20.095	898.889	685.012
222.753	19.872	898.162	683.517
223.767	19.926	897.201	682.935
224.782	20.094	896.157	682.745
225.796	20.061	896.251	682.625
226.811	20.137	895.488	682.284
227.826	20.165	894.547	681.615
228.840	19.991	893.680	680.210
229.855	19.722	893.288	678.794
230.869	19.810	892.863	678.759
231.884	19.819	891.760	677.897
232.899	19.691	890.988	676.748
233.913	19.632	890.315	675.947
234.928	19.563	889.806	675.231
235.942	19.547	888.817	674.355
236.957	19.505	888.119	673.605
237.972	19.432	887.789	673.007
238.986	19.427	886.937	672.285
240.001	19.561	886.523	672.434
241.015	19.427	885.910	671.385
242.030	19.636	884.993	671.446
243.045	19.702	884.805	671.498
244.059	19.869	884.063	671.525
245.074	19.887	883.382	671.016
246.088	19.791	883.090	670.364
247.103	20.167	882.358	671.204
248.117	20.041	881.963	670.358
249.132	20.245	881.677	670.869
250.147	20.633	881.306	672.029
251.161	20.799	880.748	672.182
252.176	20.852	880.283	671.976
253.190	20.863	879.813	671.600
254.205	21.000	878.973	671.425
255.220	20.875	878.847	670.788
256.234	20.859	878.092	670.091
257.249	20.783	877.174	669.039
258.263	21.044	876.491	669.460
259.278	20.883	876.103	668.487
260.293	20.646	875.892	667.360
261.307	20.890	875.278	667.765
262.322	20.979	874.445	667.412
263.336	21.019	874.047	667.204
264.351	21.153	873.120	666.947
265.366	20.984	873.063	666.202
266.380	21.005	872.472	665.770
267.395	20.875	871.737	664.655
268.409	20.936	870.410	663.816
269.424	20.703	869.850	662.446
270.439	20.779	869.460	662.379
271.453	20.655	868.568	661.169
272.468	20.718	867.494	660.531
273.482	20.654	866.895	659.774
274.497	20.468	866.625	658.803
275.512	20.678	865.479	658.670
276.526	20.630	864.885	657.979
277.541	20.592	864.426	657.428
278.555	20.756	863.927	657.610
279.570	20.897	863.629	657.859
280.585	21.188	863.098	658.490
281.599	21.171	862.672	658.043
282.614	21.002	862.263	657.038
283.628	20.631	861.402	654.926
284.643	20.725	860.611	654.622
285.657	20.811	860.198	654.570
286.672	20.690	860.309	654.143
287.687	20.770	859.457	653.740
288.701	20.854	858.974	653.629
289.716	20.823	858.310	652.948
290.730	20.737	857.686	652.093
291.745	20.983	856.715	652.219
292.760	20.945	856.441	651.810
293.774	20.993	855.685	651.357
294.789	21.157	855.574	651.828
295.803	21.145	854.903	651.214
296.818	20.973	854.533	650.234
297.833	20.793	853.297	648.563
298.847	20.783	852.594	647.934
299.862	20.963	851.894	648.015
300.876	20.923	851.547	647.545
301.891	20.990	851.067	647.372
302.906	21.207	850.658	647.808
303.920	21.372	849.709	647.640
304.935	21.466	849.434	647.721
305.949	21.585	849.112	647.859
306.964	21.381	848.584	646.643
307.979	21.286	847.380	645.318
308.993	21.402	846.779	645.232
310.008	21.368	846.265	644.658
311.022	21.388	846.301	644.700
312.037	21.258	845.719	643.723
313.052	21.204	844.820	642.783
314.066	21.129	843.756	641.640
315.081	20.842	843.098	640.029
316.095	20.937	842.300	639.716
317.110	20.842	842.131	639.181
318.125	20.957	841.391	638.985
319.139	20.850	841.062	638.286
320.154	20.884	840.617	638.016
321.168	20.876	839.870	637.364
322.183	21.058	839.620	637.784
323.197	21.129	839.463	637.866
324.212	21.131	838.510	637.095
325.227	21.175	837.941	636.764
326.241	21.005	837.659	635.876
327.256	20.946	837.038	635.131
328.270	21.034	836.197	634.760
329.285	20.806	835.811	633.580
330.300	21.083	834.626	633.630
331.314	21.086	834.539	633.520
332.329	21.032	834.076	632.916
333.343	21.042	833.527	632.479
334.358	21.075	833.501	632.523
335.373	21.445	832.324	632.914
336.387	21.354	831.884	632.193
337.402	21.468	831.608	632.342
338.416	21.465	831.288	632.032
339.431	21.707	830.582	632.311
340.446	21.844	829.871	632.208
341.460	21.780	829.749	631.827
342.475	21.699	829.645	631.401
343.489	21.943	828.999	631.732
344.504	22.086	828.135	631.531
345.519	22.002	827.876	630.975
346.533	22.075	827.580	630.958
347.548	22.105	826.886	630.480
348.562	21.869	826.213	629.065
349.577	21.596	825.325	627.357
350.592	21.550	824.595	626.581
351.606	21.322	824.242	625.440
352.621	21.465	823.299	625.183
353.635	21.342	823.011	624.469
354.650	21.502	822.762	624.797
355.665	21.530	822.308	624.495
356.679	21.634	821.941	624.531
357.694	21.681	821.673	624.441
358.708	21.725	821.001	624.032
359.723	21.796	820.093	623.540
360.738	21.628	819.785	622.651
361.752	21.732	819.153	622.485
362.767	21.650	818.772	621.852
363.781	21.798	819.141	622.603
364.796	22.000	818.405	622.703
365.810	22.107	818.019	622.735
366.825	22.424	817.757	623.602
367.840	22.495	817.571	623.655
368.854	22.296	817.099	622.539
369.869	22.158	816.470	621.516
370.883	21.952	815.825	620.241
371.898	22.070	815.212	620.137
372.913	22.089	814.490	619.598
373.927	22.423	813.780	620.181
374.942	22.216	813.137	618.910
375.956	22.080	812.457	617.858
376.971	22.266	811.986	618.099
377.986	22.330	811.895	618.198
379.000	22.623	811.245	618.679
380.015	22.508	811.292	618.255
381.029	22.313	810.525	616.932
382.044	22.433	809.776	616.728
383.059	22.506	809.004	616.342
384.073	22.329	808.882	615.574
385.088	22.451	807.981	615.259
386.102	22.137	807.524	613.762
387.117	21.976	806.793	612.590
388.132	22.061	806.251	612.421
389.146	22.075	805.725	612.017
390.161	22.158	805.161	611.821
391.175	22.315	805.097	612.265
392.190	22.338	805.097	612.293
393.205	22.376	804.379	611.824
394.219	22.185	803.967	610.792
395.234	22.023	803.367	609.719
396.248	21.936	802.470	608.682
397.263	21.892	801.655	607.861
398.278	21.853	801.275	607.381
399.292	21.791	800.660	606.646
400.307	21.722	800.383	606.145
401.321	21.832	800.257	606.377
402.336	21.826	799.942	606.065
403.350	22.044	799.253	606.241
404.365	22.233	799.022	606.665
405.380	22.170	799.053	606.415
406.394	22.451	798.493	606.905
407.409	22.668	797.936	607.178
408.423	22.746	797.758	607.256
409.438	22.772	797.190	606.858
410.453	22.861	796.728	606.761
411.467	22.907	796.075	606.366
412.482	22.973	795.841	606.360
413.496	22.911	795.543	605.868
414.511	23.036	795.294	606.054
415.526	22.930	794.572	605.087
416.540	22.888	794.307	604.689
417.555	22.852	793.985	604.266
418.569	22.830	793.336	603.643
419.584	22.933	792.575	603.361
420.599	22.938	792.443	603.226
421.613	165.355	1370.146	1797.325
422.628	143.465	1454.303	1797.439
