DTS Sentinel unit serial number:	SN413079Multiplexer serial number:	ORYXHardware model number:	OX4-SRSoftware version number:	ORYX F/W v4.00 Oryx Data Collector v3.7.2.0data status	okinstallation	princeton_trtdifferential loss correction	single-endedforward channel	channel 3reverse channel	N/Adate	2019/09/19time	15:48:35forward acquisition time	60.00reverse acquisition time	0.00gamma	496.2192k internal	0.2303k external	0.2303temperature offset calibration	1.0005default loss term (dB/km)	0.3790temperature slope calibration	1.0000multiplexer offset coefficient	1.0000multiplexer slope coefficient	1.0000fibre end	0.00T internal ref (°C)	35.00T ext. ref 1 (°C)	1.18T ext. ref 2 (°C)	33.56length (m)	temperature (°C)	Stokes	anti-Stokes-747.200	9.214	-0.353	-0.272
-746.185	-150.732	0.128	0.010
-745.171	63.678	0.200	0.205
-744.156	-200.000	0.025	0.424
-743.142	-200.000	0.046	0.466
-742.127	24.277	-0.127	0.107
-741.112	539.020	0.156	-0.377
-740.098	-27.658	-0.024	-0.014
-739.083	209.578	-0.123	0.196
-738.069	60.256	-0.258	0.260
-737.054	404.502	-0.036	-0.076
-736.039	-200.000	-0.047	-0.272
-735.025	24.696	-0.250	-0.210
-734.010	147.753	-0.159	0.219
-732.996	282.775	0.059	-0.107
-731.981	6.333	0.082	0.062
-730.966	28.635	0.311	0.268
-729.952	251.655	-0.127	0.219
-728.937	-31.682	-0.072	0.041
-727.923	126.188	-0.096	-0.123
-726.908	225.569	-0.101	-0.166
-725.894	337.731	-0.111	-0.220
-724.879	313.798	0.096	-0.185
-723.864	-124.402	-0.205	0.032
-722.850	-199.130	0.127	-0.001
-721.835	-8.224	0.095	-0.065
-720.821	800.000	0.041	-0.175
-719.806	528.202	0.027	-0.066
-718.791	106.307	-0.110	0.132
-717.777	-200.000	-0.041	-0.253
-716.762	112.874	0.123	0.152
-715.748	-33.267	-0.074	-0.042
-714.733	130.906	-0.168	-0.219
-713.718	-85.313	-0.184	0.058
-712.704	93.919	0.100	-0.115
-711.689	-109.996	0.051	-0.011
-710.675	443.785	-0.078	0.174
-709.660	77.760	0.086	0.093
-708.645	-200.000	0.007	0.269
-707.631	605.519	-0.070	-0.177
-706.616	-200.000	0.053	0.247
-705.602	90.680	0.176	0.201
-704.587	-122.335	0.192	0.032
-703.572	-200.000	0.005	0.030
-702.558	-89.146	0.065	0.020
-701.543	-132.480	-0.413	-0.054
-700.529	800.000	-0.115	0.325
-699.514	-70.724	-0.140	-0.054
-698.499	-117.393	0.042	-0.008
-697.485	-130.944	0.199	0.027
-696.470	178.298	0.149	-0.221
-695.456	-98.637	0.225	0.058
-694.441	-200.000	0.014	0.366
-693.426	800.000	0.053	-0.167
-692.412	-108.178	-0.280	0.062
-691.397	158.245	0.124	0.175
-690.383	-115.174	-0.234	0.045
-689.368	800.000	0.033	0.102
-688.354	-41.265	-0.053	0.028
-687.339	-124.693	0.327	0.051
-686.324	-93.148	0.237	-0.067
-685.310	-52.347	-0.705	-0.332
-684.295	-136.605	-0.254	0.030
-683.281	141.741	-0.062	0.083
-682.266	219.901	-0.138	0.225
-681.251	-38.525	-0.326	-0.175
-680.237	131.453	0.219	0.286
-679.222	-183.960	0.146	0.003
-678.208	465.397	0.066	0.150
-677.193	-142.317	-0.103	0.010
-676.178	-76.369	0.382	0.136
-675.164	28.005	-0.280	-0.240
-674.149	32.476	-0.168	-0.148
-673.135	-200.000	-0.008	-0.163
-672.120	499.498	-0.174	-0.407
-671.105	55.936	0.154	-0.152
-670.091	-128.871	0.233	-0.033
-669.076	89.090	0.173	0.195
-668.062	-34.174	0.197	-0.110
-667.047	140.458	-0.161	0.216
-666.032	419.695	-0.080	-0.174
-665.018	-103.056	0.327	-0.079
-664.003	-17.735	-0.488	-0.311
-662.989	234.979	0.048	-0.080
-661.974	-48.744	-0.375	0.183
-660.959	-115.366	-0.217	-0.042
-659.945	-32.116	0.260	-0.148
-658.930	-103.926	-0.449	0.106
-657.916	-200.000	-0.011	0.196
-656.901	800.000	-0.049	0.174
-655.886	-81.682	-0.285	-0.095
-654.872	-200.000	-0.002	-0.034
-653.857	-200.000	0.016	-0.306
-652.843	308.653	0.074	-0.140
-651.828	-19.995	0.164	0.103
-650.814	-200.000	0.056	0.357
-649.799	-54.626	-0.246	-0.113
-648.784	67.235	0.275	-0.285
-647.770	227.931	0.126	0.208
-646.755	-56.927	0.388	0.174
-645.741	-140.472	-0.136	-0.014
-644.726	-44.468	-0.081	0.041
-643.711	69.077	0.062	0.064
-642.697	-85.507	-0.101	0.032
-641.682	425.676	-0.186	0.406
-640.668	-91.067	0.335	0.098
-639.653	-22.035	0.210	-0.130
-638.638	-39.432	0.093	-0.049
-637.624	-58.968	0.275	0.120
-636.609	-36.770	-0.124	0.067
-635.595	-82.772	-0.251	-0.082
-634.580	125.721	-0.207	-0.265
-633.565	-55.753	-0.199	-0.090
-632.551	88.041	0.282	-0.317
-631.536	-111.701	-0.295	-0.061
-630.522	-46.286	0.068	-0.034
-629.507	48.333	0.180	-0.171
-628.492	28.181	-0.142	-0.122
-627.478	55.226	-0.164	-0.160
-626.463	33.702	0.155	0.137
-625.449	-158.661	-0.167	-0.010
-624.434	293.899	-0.059	0.109
-623.419	33.623	0.075	0.066
-622.405	494.856	-0.148	-0.345
-621.390	-127.612	0.194	-0.028
-620.376	-200.000	0.030	0.137
-619.361	-120.977	0.179	0.030
-618.346	774.721	0.097	-0.268
-617.332	139.473	0.140	-0.186
-616.317	-200.000	0.059	-0.301
-615.303	36.824	0.142	-0.127
-614.288	541.839	-0.047	0.112
-613.273	800.000	-0.070	-0.210
-612.259	-200.000	-0.015	-0.106
-611.244	-101.362	0.448	0.111
-610.230	-200.000	-0.081	-0.361
-609.215	-26.746	0.103	0.061
-608.201	800.000	0.006	-0.024
-607.186	124.107	0.347	0.442
-606.171	-104.512	-0.093	0.022
-605.157	-200.000	-0.015	-0.174
-604.142	800.000	0.035	0.138
-603.128	172.970	-0.185	0.270
-602.113	800.000	0.066	-0.196
-601.098	-147.318	-0.239	0.021
-600.084	418.325	-0.106	0.230
-599.069	800.000	0.042	0.164
-598.055	-200.000	0.021	0.094
-597.040	124.306	-0.205	0.261
-596.025	117.599	0.157	-0.196
-595.011	-6.536	-0.069	0.047
-593.996	800.000	0.080	-0.264
-592.982	60.422	-0.147	-0.148
-591.967	201.569	-0.081	-0.126
-590.952	110.135	-0.276	-0.336
-589.938	-154.908	-0.267	-0.018
-588.923	-91.070	-0.105	0.030
-587.909	381.502	0.096	-0.200
-586.894	-37.705	0.182	-0.098
-585.879	-64.101	0.251	-0.104
-584.865	-200.000	0.004	-0.050
-583.850	-200.000	0.051	0.398
-582.836	32.418	0.372	0.325
-581.821	-200.000	-0.017	0.110
-580.806	-200.000	0.020	0.137
-579.792	-200.000	-0.045	0.399
-578.777	-200.000	0.017	-0.148
-577.763	-88.786	-0.518	-0.156
-576.748	-127.186	-0.164	0.024
-575.733	17.139	-0.228	0.183
-574.719	677.899	-0.056	0.148
-573.704	154.544	-0.018	0.025
-572.690	98.992	-0.244	-0.286
-571.675	800.000	0.012	0.046
-570.661	248.622	0.196	0.336
-569.646	-149.968	0.197	0.016
-568.631	800.000	-0.035	0.122
-567.617	391.279	0.160	0.335
-566.602	-46.915	-0.158	-0.078
-565.588	282.842	0.117	-0.212
-564.573	-173.569	0.241	0.007
-563.558	800.000	0.052	0.177
-562.544	-200.000	-0.042	-0.279
-561.529	612.709	0.066	-0.167
-560.515	-104.906	-0.093	-0.021
-559.500	-11.786	0.190	-0.126
-558.485	-179.557	0.166	-0.004
-557.471	800.000	0.108	-0.311
-556.456	-16.968	-0.188	-0.120
-555.442	348.398	0.097	-0.193
-554.427	-161.721	0.175	-0.009
-553.412	-200.000	-0.022	0.120
-552.398	-161.057	0.071	0.004
-551.383	-78.785	0.086	-0.030
-550.369	-45.617	0.044	0.022
-549.354	-94.598	-0.108	0.030
-548.339	-188.724	0.283	-0.004
-547.325	673.047	0.155	0.406
-546.310	800.000	0.078	0.253
-545.296	120.050	-0.143	0.179
-544.281	423.587	-0.045	-0.099
-543.266	-9.685	0.136	0.092
-542.252	-200.000	-0.023	0.173
-541.237	357.378	0.141	0.284
-540.223	326.415	-0.116	0.224
-539.208	-92.046	0.274	-0.078
-538.193	-200.000	-0.032	-0.143
-537.179	7.047	0.278	0.209
-536.164	258.607	-0.040	0.070
-535.150	-13.593	-0.189	-0.123
-534.135	-200.000	0.016	0.248
-533.121	-200.000	0.009	-0.186
-532.106	-200.000	-0.011	0.149
-531.091	11.769	-0.102	0.079
-530.077	17.050	-0.097	-0.077
-529.062	-118.524	-0.217	0.039
-528.048	102.321	0.172	-0.203
-527.033	79.041	-0.129	-0.140
-526.018	-62.891	0.071	0.030
-525.004	-200.000	-0.022	0.119
-523.989	-132.059	-0.084	-0.011
-522.975	41.361	0.126	-0.115
-521.960	-200.000	-0.027	-0.127
-520.945	-200.000	-0.069	0.314
-519.931	-200.000	-0.008	-0.156
-518.916	-200.000	0.043	-0.215
-517.902	-91.131	0.133	0.038
-516.887	-111.825	-0.294	0.060
-515.872	-45.649	0.146	-0.073
-514.858	27.818	0.370	-0.314
-513.843	141.429	0.208	0.278
-512.829	-200.000	0.002	-0.142
-511.814	800.000	-0.049	0.146
-510.799	-169.073	0.213	0.008
-509.785	-99.671	0.132	-0.033
-508.770	108.620	0.073	-0.088
-507.756	55.473	0.261	-0.255
-506.741	-80.763	0.125	0.042
-505.726	-200.000	0.042	0.314
-504.712	12.426	-0.277	-0.215
-503.697	-139.459	-0.377	0.041
-502.683	3.894	-0.252	0.186
-501.668	-116.360	0.260	0.048
-500.653	16.636	-0.230	-0.183
-499.639	265.289	-0.130	-0.229
-498.624	-20.679	0.257	0.159
-497.610	31.858	0.085	0.074
-496.595	-125.773	-0.249	-0.038
-495.581	169.954	0.050	-0.073
-494.566	70.957	-0.035	0.036
-493.551	-200.000	-0.018	0.179
-492.537	-72.383	-0.155	0.058
-491.522	-121.001	0.268	-0.045
-490.508	110.993	-0.195	0.237
-489.493	-200.000	-0.013	-0.144
-488.478	-76.418	-0.269	0.096
-487.464	45.485	-0.298	-0.277
-486.449	-47.370	-0.329	0.161
-485.435	399.801	0.075	0.159
-484.420	-155.310	0.242	0.016
-483.405	-99.894	-0.214	-0.054
-482.391	472.733	0.051	0.115
-481.376	-130.687	-0.308	-0.042
-480.362	2.192	-0.210	-0.153
-479.347	-91.495	-0.203	-0.058
-478.332	-131.455	0.286	-0.038
-477.318	143.174	0.116	-0.155
-476.303	66.661	-0.179	0.183
-475.289	210.257	-0.129	-0.205
-474.274	55.469	0.313	0.306
-473.259	112.758	-0.049	0.060
-472.245	65.469	0.138	-0.141
-471.230	-0.234	-0.129	-0.092
-470.216	-147.403	-0.207	-0.018
-469.201	-200.000	-0.025	0.264
-468.186	-144.755	-0.219	0.020
-467.172	-16.169	-0.183	-0.117
-466.157	158.383	0.093	-0.130
-465.143	526.224	0.066	-0.156
-464.128	615.742	0.084	-0.212
-463.113	-71.663	0.286	0.107
-462.099	-131.442	-0.189	-0.025
-461.084	14.874	-0.053	0.041
-460.070	-131.287	0.323	-0.043
-459.055	-109.332	-0.208	-0.044
-458.040	51.764	-0.055	0.053
-457.026	-200.000	-0.000	0.048
-456.011	800.000	0.099	0.319
-454.997	-132.131	-0.019	-0.002
-453.982	-104.568	0.192	-0.045
-452.968	176.893	-0.065	0.095
-451.953	-78.625	0.269	0.093
-450.938	218.225	-0.177	0.284
-449.924	151.692	-0.140	0.192
-448.909	-40.573	-0.268	-0.140
-447.895	-83.976	0.072	-0.023
-446.880	-36.858	-0.348	0.188
-445.865	-200.000	0.005	-0.313
-444.851	-35.295	-0.104	-0.057
-443.836	800.000	0.086	0.265
-442.822	-200.000	-0.026	0.268
-441.807	-200.000	-0.010	0.050
-440.792	24.478	-0.370	0.308
-439.778	-200.000	0.001	0.181
-438.763	-146.883	-0.438	0.038
-437.749	77.157	-0.140	-0.150
-436.734	305.949	-0.163	-0.306
-435.719	-200.000	0.058	-0.319
-434.705	-50.889	0.058	-0.027
-433.690	-48.731	0.254	0.123
-432.676	774.945	0.137	-0.375
-431.661	-89.527	0.305	-0.090
-430.646	285.854	0.051	0.093
-429.632	800.000	0.073	-0.244
-428.617	45.110	-0.214	0.198
-427.603	74.677	0.032	-0.034
-426.588	7.494	0.244	-0.184
-425.573	41.928	-0.272	-0.248
-424.559	-24.779	0.042	-0.025
-423.544	800.000	-0.058	0.242
-422.530	-90.987	0.374	0.108
-421.515	-200.000	0.001	-0.155
-420.500	-108.693	0.165	-0.036
-419.486	-1.160	-0.091	0.064
-418.471	800.000	0.064	0.198
-417.457	212.815	0.158	-0.251
-416.442	111.241	-0.098	-0.119
-415.428	800.000	0.106	-0.406
-414.413	-39.381	-0.266	0.140
-413.398	81.310	0.243	0.264
-412.384	10.943	-0.249	0.191
-411.369	-200.000	-0.013	0.192
-410.355	-111.649	-0.089	-0.018
-409.340	-200.000	-0.010	-0.100
-408.325	16.707	0.159	0.126
-407.311	223.620	-0.229	0.371
-406.296	156.651	-0.062	0.085
-405.282	332.028	-0.169	-0.327
-404.267	394.655	0.121	0.254
-403.252	-89.051	-0.130	0.039
-402.238	-200.000	0.012	0.282
-401.223	800.000	0.056	0.199
-400.209	22.024	0.088	0.072
-399.194	-44.227	-0.159	0.080
-398.179	750.772	-0.065	-0.177
-397.165	21.032	0.213	-0.174
-396.150	135.185	-0.079	0.103
-395.136	33.186	-0.289	0.252
-394.121	204.593	0.128	0.200
-393.106	-87.765	-0.141	-0.043
-392.092	-58.438	-0.074	-0.032
-391.077	-71.298	-0.036	-0.013
-390.063	310.286	-0.136	0.255
-389.048	122.405	0.158	-0.199
-388.033	-8.410	0.103	0.069
-387.019	240.469	0.082	0.138
-386.004	152.170	-0.304	0.417
-384.990	-177.042	-0.319	-0.008
-383.975	138.952	0.162	-0.214
-382.960	-36.935	-0.129	-0.070
-381.946	800.000	-0.040	0.168
-380.931	86.816	0.181	0.201
-379.917	-85.066	-0.392	0.123
-378.902	348.792	-0.093	0.184
-377.888	-50.466	-0.079	0.037
-376.873	-17.232	0.138	-0.088
-375.858	135.840	0.147	0.192
-374.844	119.621	-0.195	0.243
-373.829	-5.000	-0.184	-0.127
-372.815	-40.463	-0.192	0.100
-371.800	27.327	0.028	0.023
-370.785	800.000	0.071	0.205
-369.771	-106.325	0.117	0.026
-368.756	-64.004	-0.089	-0.037
-367.742	75.538	0.089	0.094
-366.727	264.849	0.129	0.225
-365.712	-200.000	0.023	0.112
-364.698	543.759	0.109	-0.261
-363.683	-200.000	0.012	0.110
-362.669	-119.787	-0.054	0.009
-361.654	-35.148	0.140	-0.077
-360.639	512.389	-0.073	0.171
-359.625	-104.394	0.103	0.024
-358.610	-76.218	0.026	0.009
-357.596	102.255	0.147	0.173
-356.581	45.322	-0.102	0.095
-355.566	-61.755	0.172	0.072
-354.552	514.278	0.057	0.133
-353.537	82.282	0.154	-0.167
-352.523	53.267	0.071	0.069
-351.508	472.412	0.245	0.552
-350.493	-200.000	0.015	-0.182
-349.479	559.860	-0.071	-0.173
-348.464	101.399	-0.092	-0.107
-347.450	91.545	0.199	-0.224
-346.435	-84.516	0.144	0.046
-345.420	-167.200	0.122	0.005
-344.406	360.597	0.017	-0.034
-343.391	-75.422	0.310	-0.111
-342.377	106.867	0.340	-0.405
-341.362	-83.980	-0.134	-0.043
-340.348	398.867	0.081	-0.169
-339.333	129.638	-0.105	-0.134
-338.318	800.000	-0.028	-0.118
-337.304	120.547	0.130	0.162
-336.289	-24.333	0.276	0.165
-335.275	-200.000	0.009	-0.162
-334.260	-200.000	-0.044	-0.324
-333.245	-96.696	0.188	0.049
-332.231	-1.951	0.239	-0.168
-331.216	-130.411	0.529	-0.072
-330.202	-56.766	-0.159	0.070
-329.187	-200.000	-0.093	0.491
-328.172	-200.000	0.002	-0.188
-327.158	505.954	-0.112	0.259
-326.143	-8.195	0.069	0.047
-325.129	-75.948	-0.130	-0.046
-324.114	-11.150	0.038	0.025
-323.099	-42.918	0.320	0.163
-322.085	27.620	-0.182	-0.153
-321.070	241.211	0.043	0.073
-320.056	317.711	-0.069	0.131
-319.041	744.098	-0.089	-0.239
-318.026	-175.464	0.148	-0.004
-317.012	-45.728	-0.124	-0.061
-315.997	-200.000	0.029	-0.237
-314.983	427.146	-0.137	-0.295
-313.968	-1.502	-0.047	0.033
-312.953	800.000	0.092	-0.320
-311.939	79.949	0.065	-0.070
-310.924	70.667	-0.123	0.127
-309.910	-200.000	0.010	-0.066
-308.895	-200.000	0.005	0.072
-307.880	151.817	-0.211	0.288
-306.866	-200.000	-0.002	-0.027
-305.851	-63.655	0.293	0.120
-304.837	-200.000	0.018	0.219
-303.822	31.659	-0.078	0.067
-302.807	-96.779	0.253	0.067
-301.793	800.000	0.008	-0.033
-300.778	800.000	-0.042	-0.167
-299.764	-200.000	0.022	-0.463
-298.749	122.794	-0.100	-0.125
-297.735	-100.999	0.042	-0.010
-296.720	-200.000	0.022	-0.162
-295.705	-167.837	-0.287	-0.011
-294.691	800.000	0.097	0.408
-293.676	-57.316	-0.174	0.077
-292.662	60.616	0.239	-0.237
-291.647	378.029	-0.045	0.093
-290.632	-200.000	-0.020	0.159
-289.618	40.798	-0.237	0.214
-288.603	425.607	0.101	-0.218
-287.589	257.796	0.080	-0.137
-286.574	-64.320	-0.225	0.091
-285.559	166.840	-0.124	0.176
-284.545	97.052	0.034	0.039
-283.530	0.370	0.086	-0.062
-282.516	27.693	-0.111	0.094
-281.501	-175.008	0.091	-0.003
-280.486	619.518	-0.088	-0.221
-279.472	-120.368	0.222	-0.038
-278.457	-200.000	0.011	0.079
-277.443	800.000	-0.097	0.353
-276.428	502.869	0.027	-0.062
-275.413	594.415	0.117	0.288
-274.399	-88.213	-0.205	-0.061
-273.384	800.000	-0.049	0.174
-272.370	344.210	0.051	-0.100
-271.355	91.206	-0.101	-0.113
-270.340	666.080	0.060	-0.154
-269.326	135.201	-0.034	-0.044
-268.311	-17.924	-0.021	-0.013
-267.297	-124.763	-0.269	-0.042
-266.282	220.288	-0.036	-0.057
-265.267	800.000	0.067	-0.192
-264.253	800.000	0.115	-0.363
-263.238	-46.228	0.200	-0.098
-262.224	-4.562	-0.044	0.030
-261.209	-200.000	-0.005	-0.127
-260.195	623.579	0.033	0.083
-259.180	156.246	0.024	0.033
-258.165	4.278	-0.167	0.123
-257.151	625.730	-0.102	0.258
-256.136	-41.529	-0.028	0.014
-255.122	-48.717	0.073	0.035
-254.107	800.000	-0.021	-0.082
-253.092	-124.193	-0.239	-0.037
-252.078	-76.669	0.212	-0.074
-251.063	-66.371	0.160	0.063
-250.049	-200.000	0.005	-0.072
-249.034	-141.461	0.163	-0.017
-248.019	218.436	-0.175	-0.279
-247.005	95.551	-0.143	0.163
-245.990	-200.000	-0.005	0.173
-244.976	-200.000	0.028	-0.240
-243.961	-89.522	0.142	-0.042
-242.946	-37.803	0.063	-0.034
-241.932	496.702	0.119	-0.273
-240.917	-190.277	-0.164	-0.002
-239.903	-0.154	0.185	0.131
-238.888	-200.000	0.035	0.208
-237.873	110.229	0.198	-0.238
-236.859	800.000	-0.052	-0.222
-235.844	-42.971	0.356	-0.180
-234.830	77.936	-0.162	0.173
-233.815	61.724	-0.175	0.174
-232.800	-200.000	-0.061	-0.282
-231.786	102.055	-0.047	-0.055
-230.771	-46.162	-0.251	-0.123
-229.757	24.395	-0.202	-0.167
-228.742	-38.453	-0.411	-0.217
-227.727	-200.000	-0.011	-0.048
-226.713	786.973	-0.124	0.341
-225.698	-106.829	0.188	0.042
-224.684	-41.499	0.172	0.088
-223.669	26.843	-0.089	-0.074
-222.655	49.470	0.179	-0.168
-221.640	47.983	-0.061	-0.057
-220.625	34.148	-0.102	0.089
-219.611	-200.000	-0.036	-0.167
-218.596	800.000	-0.009	0.034
-217.582	-200.000	0.045	0.322
-216.567	-200.000	-0.035	0.185
-215.552	-49.801	-0.171	-0.081
-214.538	-127.824	-0.156	-0.022
-213.523	-200.000	0.020	-0.384
-212.509	-200.000	0.026	-0.232
-211.494	13.162	-0.111	0.086
-210.479	-16.432	0.201	-0.127
-209.465	465.403	0.124	-0.278
-208.450	103.199	0.166	-0.194
-207.436	-200.000	0.019	-0.463
-206.421	-123.767	-0.348	-0.055
-205.406	-142.258	-0.153	0.015
-204.392	-35.216	-0.132	-0.071
-203.377	96.815	-0.189	0.216
-202.363	-78.100	0.176	0.060
-201.348	284.315	-0.070	0.125
-200.333	630.779	0.088	0.223
-199.319	390.134	0.255	-0.526
-198.304	112.397	-0.196	-0.236
-197.290	-200.000	0.001	-0.229
-196.275	-200.000	0.015	-0.365
-195.260	-13.861	-0.368	0.237
-194.246	-172.524	0.159	0.005
-193.231	-76.781	0.160	-0.056
-192.217	142.774	0.107	0.142
-191.202	-101.559	-0.095	-0.023
-190.187	491.335	-0.167	0.381
-189.173	303.024	-0.221	0.407
-188.158	133.653	0.093	0.121
-187.144	1.392	-0.174	-0.125
-186.129	-98.149	0.171	0.044
-185.114	-200.000	0.003	-0.311
-184.100	800.000	-0.007	0.029
-183.085	-110.514	0.173	0.036
-182.071	-200.000	0.027	0.331
-181.056	118.146	-0.058	0.071
-180.042	-200.000	-0.007	-0.162
-179.027	-171.922	0.047	0.002
-178.012	11.929	-0.053	0.041
-176.998	177.152	0.050	0.073
-175.983	800.000	0.073	0.226
-174.969	-13.629	0.109	-0.071
-173.954	-200.000	0.011	-0.186
-172.939	83.978	0.295	-0.321
-171.925	-124.973	0.166	-0.025
-170.910	73.095	0.145	-0.151
-169.896	-103.894	-0.075	0.017
-168.881	-107.265	-0.292	0.064
-167.866	-135.402	-0.224	-0.027
-166.852	432.761	-0.019	0.041
-165.837	-117.338	-0.227	-0.041
-164.823	-93.771	-0.073	-0.020
-163.808	800.000	0.086	0.367
-162.793	139.515	0.188	0.246
-161.779	-200.000	0.004	0.107
-160.764	-104.162	0.124	-0.029
-159.750	101.672	0.162	-0.188
-158.735	407.189	0.086	-0.180
-157.720	108.794	-0.196	0.233
-156.706	224.846	0.138	-0.222
-155.691	26.104	-0.251	0.209
-154.677	177.462	-0.129	-0.187
-153.662	308.406	0.139	-0.258
-152.647	-51.788	-0.172	0.080
-151.633	-200.000	0.007	0.136
-150.618	51.477	-0.278	0.263
-149.604	-134.110	0.105	0.013
-148.589	7.439	-0.229	-0.171
-147.574	-67.055	0.201	0.079
-146.560	-57.780	-0.155	-0.067
-145.545	-59.508	0.190	-0.081
-144.531	-63.324	0.054	-0.022
-143.516	800.000	0.104	-0.304
-142.502	54.707	-0.241	-0.231
-141.487	-156.165	-0.203	0.013
-140.472	209.137	-0.112	-0.174
-139.458	-160.342	-0.121	0.007
-138.443	-200.000	-0.040	-0.201
-137.429	212.893	0.044	0.070
-136.414	71.640	0.201	-0.208
-135.399	-28.482	0.245	0.140
-134.385	-24.103	0.103	-0.061
-133.370	425.472	-0.105	-0.226
-132.356	800.000	0.061	0.257
-131.341	197.480	-0.122	0.186
-130.326	-78.883	0.151	-0.051
-129.312	-200.000	-0.040	-0.187
-128.297	23.057	0.109	-0.089
-127.283	-199.300	0.117	-0.001
-126.268	79.789	0.101	-0.108
-125.253	-50.063	-0.269	-0.127
-124.239	-200.000	0.009	0.075
-123.224	-133.963	-0.101	0.012
-122.210	-8.633	0.240	0.160
-121.195	13.256	0.243	0.187
-120.180	-200.000	-0.014	0.121
-119.166	800.000	0.046	0.179
-118.151	329.728	0.088	-0.169
-117.137	21.291	-0.064	0.052
-116.122	-200.000	0.013	-0.241
-115.107	500.586	0.107	-0.246
-114.093	89.329	-0.213	-0.236
-113.078	431.356	0.117	-0.251
-112.064	-200.000	0.017	-0.076
-111.049	-200.000	0.001	-0.179
-110.034	9.269	0.191	-0.144
-109.020	800.000	-0.059	-0.174
-108.005	-52.048	-0.215	0.099
-106.991	-74.084	0.320	-0.115
-105.976	118.162	-0.217	0.265
-104.962	-93.904	-0.383	-0.105
-103.947	-37.333	-0.309	-0.164
-102.932	667.553	0.095	-0.244
-101.918	164.869	-0.053	-0.074
-100.903	21.046	-0.197	-0.159
-99.889	315.362	-0.113	-0.212
-98.874	40.066	0.193	0.172
-97.859	525.013	0.033	0.076
-96.845	-146.279	-0.189	-0.017
-95.830	-84.300	0.168	0.053
-94.816	-139.737	-0.111	-0.012
-93.801	-85.035	-0.262	0.081
-92.786	-163.138	-0.354	-0.017
-91.772	-134.099	0.228	0.028
-90.757	-200.000	0.012	-0.127
-89.743	-12.291	0.223	0.145
-88.728	-47.419	0.168	0.081
-87.713	7.191	-0.162	0.120
-86.699	-102.728	0.179	-0.042
-85.684	-73.132	-0.352	-0.128
-84.670	-165.241	-0.177	-0.008
-83.655	-200.000	0.000	-0.191
-82.640	-40.002	0.281	-0.145
-81.626	51.197	0.066	-0.062
-80.611	-121.374	-0.176	0.029
-79.597	174.321	-0.148	-0.213
-78.582	-114.554	-0.247	-0.047
-77.567	122.477	-0.127	0.157
-76.553	-79.440	0.246	0.083
-75.538	-200.000	0.024	0.105
-74.524	800.000	-0.105	-0.299
-73.509	104.408	-0.077	0.090
-72.494	-61.282	-0.024	0.010
-71.480	-99.720	-0.301	0.075
-70.465	528.388	0.007	-0.017
-69.451	800.000	0.042	-0.164
-68.436	61.453	-0.321	0.317
-67.422	202.627	0.141	-0.215
-66.407	4.310	0.222	-0.161
-65.392	-124.521	-0.332	0.051
-64.378	212.330	0.114	-0.178
-63.363	-197.417	-0.184	-0.001
-62.349	14.688	0.101	-0.078
-61.334	26.013	-0.923	-0.764
-60.319	-68.995	0.773	0.296
-59.305	-200.000	-0.034	-0.875
-58.290	285.250	0.521	0.931
-57.276	505.637	0.681	1.564
-56.261	-200.000	92.208	540.883
-55.246	497.651	1406.045	3208.410
-54.232	142.935	2646.245	3487.815
-53.217	109.704	2259.710	2685.364
-52.203	45.148	1781.408	1627.543
-51.188	37.991	1586.587	1398.434
-50.173	35.695	1557.946	1356.953
-49.159	52.947	1607.424	1524.198
-48.144	56.395	1626.384	1566.866
-47.130	38.479	1582.999	1398.542
-46.115	35.360	1566.507	1361.815
-45.100	35.015	1564.022	1357.151
-44.086	35.099	1562.009	1355.950
-43.071	35.044	1559.820	1353.609
-42.057	34.968	1558.519	1351.888
-41.042	34.967	1557.108	1350.602
-40.027	35.046	1555.125	1349.385
-39.013	35.072	1553.865	1348.422
-37.998	35.094	1552.425	1347.272
-36.984	35.021	1551.471	1345.876
-35.969	34.992	1550.236	1344.549
-34.954	35.098	1548.727	1343.934
-33.940	34.990	1546.884	1341.523
-32.925	35.003	1545.768	1340.589
-31.911	34.972	1544.498	1339.219
-30.896	35.095	1542.791	1338.548
-29.881	35.138	1541.039	1337.274
-28.867	35.076	1539.913	1335.811
-27.852	34.923	1539.341	1334.195
-26.838	35.065	1537.096	1333.187
-25.823	35.002	1535.586	1331.383
-24.809	35.090	1533.311	1329.969
-23.794	35.091	1531.959	1328.749
-22.779	35.082	1531.360	1328.116
-21.765	35.082	1530.025	1326.909
-20.750	35.059	1529.096	1325.890
-19.736	35.028	1527.939	1324.619
-18.721	35.043	1527.016	1323.871
-17.706	34.886	1525.988	1321.840
-16.692	35.073	1524.078	1321.426
-15.677	34.972	1523.622	1320.280
-14.663	34.902	1522.859	1319.082
-13.648	34.881	1521.567	1317.769
-12.633	34.938	1520.546	1317.220
-11.619	34.963	1519.560	1316.491
-10.604	34.914	1519.024	1315.637
-9.590	34.939	1517.900	1314.778
-8.575	34.991	1516.950	1314.264
-7.560	34.850	1516.756	1313.074
-6.546	35.004	1514.963	1312.526
-5.531	34.914	1514.548	1311.495
-4.517	34.905	1513.377	1310.370
-3.502	35.003	1512.012	1309.804
-2.487	34.977	1511.087	1308.775
-1.473	35.001	1510.013	1307.957
-0.458	34.964	1508.923	1306.707
0.556	35.047	1500.597	1301.407
1.571	33.098	1475.363	1266.364
2.586	29.537	1410.384	1187.627
3.600	26.755	1320.872	1095.367
4.615	23.996	1271.757	1038.472
5.629	19.505	1211.519	964.165
6.644	9.880	1120.736	841.867
7.659	2.433	1076.739	771.326
8.673	1.348	1070.771	761.542
9.688	1.156	1068.112	758.624
10.702	1.096	1066.419	757.053
11.717	1.131	1064.670	755.920
12.731	3.339	1066.932	768.485
13.746	10.845	1077.807	813.952
14.761	16.578	1083.839	847.229
15.775	17.605	1084.936	853.157
16.790	17.356	1083.267	850.523
17.804	16.149	1081.539	843.062
18.819	15.439	1079.146	837.581
19.834	14.802	1078.664	833.957
20.848	14.637	1076.462	831.357
21.863	14.340	1076.157	829.569
22.877	14.068	1075.328	827.501
23.892	13.786	1074.580	825.452
24.907	13.637	1074.161	824.316
25.921	13.698	1073.035	823.680
26.936	13.884	1071.984	823.725
27.950	13.804	1071.580	822.945
28.965	13.832	1070.825	822.429
29.980	13.944	1069.701	822.050
30.994	13.993	1068.566	821.348
32.009	14.068	1067.479	820.809
33.023	14.033	1066.863	820.087
34.038	13.878	1066.526	818.993
35.053	13.950	1065.412	818.420
36.067	13.987	1064.308	817.681
37.082	13.975	1063.478	816.912
38.096	13.941	1062.496	815.918
39.111	13.870	1062.033	815.142
40.126	14.023	1061.268	815.233
41.140	14.011	1059.613	813.831
42.155	13.881	1059.179	812.788
43.169	13.824	1058.676	812.055
44.184	13.797	1057.125	810.659
45.199	13.820	1056.112	809.924
46.213	13.781	1055.003	808.812
47.228	13.803	1054.062	808.123
48.242	13.874	1052.867	807.485
49.257	13.936	1051.853	806.933
50.271	13.826	1051.296	805.900
51.286	13.797	1050.184	804.838
52.301	13.829	1049.565	804.448
53.315	13.831	1049.048	803.991
54.330	13.875	1048.104	803.408
55.344	13.808	1047.072	802.225
56.359	13.908	1045.729	801.603
57.374	13.877	1045.266	801.030
58.388	13.882	1044.217	800.179
59.403	13.813	1043.216	799.011
60.417	13.683	1042.867	798.043
61.432	13.785	1042.021	797.818
62.447	13.769	1041.003	796.889
63.461	13.654	1040.442	795.840
64.476	13.661	1039.372	794.982
65.490	13.705	1038.116	794.164
66.505	13.803	1037.068	793.759
67.520	13.844	1036.564	793.501
68.534	13.854	1035.627	792.760
69.549	13.883	1035.077	792.410
70.563	13.870	1034.013	791.459
71.578	13.810	1033.709	790.872
72.593	13.672	1032.837	789.476
73.607	13.730	1031.804	788.894
74.622	13.639	1030.890	787.695
75.636	13.646	1029.926	786.923
76.651	13.770	1028.865	786.627
77.666	13.574	1028.659	785.470
78.680	13.703	1027.472	785.106
79.695	13.786	1026.747	784.874
80.709	13.758	1026.409	784.416
81.724	13.689	1025.323	783.193
82.739	13.807	1024.660	783.170
83.753	13.790	1024.438	782.852
84.768	13.930	1022.514	781.972
85.782	13.835	1022.305	781.297
86.797	13.912	1021.456	780.942
87.812	13.907	1020.235	779.916
88.826	13.830	1019.862	779.197
89.841	13.828	1018.882	778.372
90.855	13.869	1017.832	777.693
91.870	13.884	1017.497	777.439
92.884	13.855	1016.407	776.401
93.899	13.886	1015.972	776.144
94.914	13.927	1015.142	775.632
95.928	13.957	1014.270	775.039
96.943	13.893	1013.557	774.128
97.957	13.941	1012.495	773.469
98.972	13.955	1011.917	773.026
99.987	13.861	1011.298	772.046
101.001	14.018	1010.243	771.903
102.016	13.878	1009.501	770.621
103.030	13.878	1008.373	769.690
104.045	13.927	1007.554	769.225
105.060	13.954	1006.562	768.520
106.074	13.983	1004.988	767.387
107.089	13.815	1004.771	766.375
108.103	13.879	1003.985	766.006
109.118	13.827	1002.589	764.632
110.133	13.741	1001.872	763.623
111.147	13.870	1000.952	763.448
112.162	13.741	1000.289	762.280
113.176	13.844	999.275	761.915
114.191	13.985	998.216	761.683
115.206	13.865	997.739	760.705
116.220	13.933	996.736	760.183
117.235	13.953	996.139	759.752
118.249	13.996	995.068	759.065
119.264	14.039	994.110	758.460
120.279	13.951	993.346	757.412
121.293	13.979	992.650	756.941
122.308	13.782	991.967	755.457
123.322	13.779	991.186	754.780
124.337	13.925	989.727	754.265
125.352	13.855	988.634	753.048
126.366	13.798	987.702	752.016
127.381	13.825	986.593	751.223
128.395	13.857	985.701	750.625
129.410	13.951	984.762	750.266
130.424	13.826	984.119	749.146
131.439	13.907	983.079	748.656
132.454	13.842	982.370	747.755
133.468	13.900	981.588	747.354
134.483	13.924	980.808	746.801
135.497	13.908	979.852	745.935
136.512	13.899	979.003	745.183
137.527	14.018	977.913	744.820
138.541	13.905	977.365	743.832
139.556	13.975	976.439	743.376
140.570	13.898	975.816	742.489
141.585	13.916	975.202	742.041
142.600	13.954	974.731	741.783
143.614	14.011	973.629	741.137
144.629	14.063	972.787	740.659
145.643	14.185	971.652	740.274
146.658	14.068	971.134	739.293
147.673	14.003	970.322	738.321
148.687	13.920	969.274	737.089
149.702	13.929	968.541	736.504
150.716	13.867	967.661	735.499
151.731	13.993	966.711	735.269
152.746	14.104	965.900	735.077
153.760	14.087	965.027	734.273
154.775	14.096	964.263	733.664
155.789	14.049	963.816	733.052
156.804	13.979	963.219	732.227
157.819	14.070	962.063	731.685
158.833	14.053	961.874	731.397
159.848	14.328	960.776	731.707
160.862	14.183	960.248	730.607
161.877	14.137	959.582	729.833
162.892	14.073	958.590	728.733
163.906	14.185	957.548	728.366
164.921	14.097	957.078	727.558
165.935	14.109	956.006	726.733
166.950	14.161	955.047	726.165
167.964	14.237	953.753	725.450
168.979	14.186	953.093	724.662
169.994	14.081	952.134	723.411
171.008	14.026	951.513	722.634
172.023	14.201	950.273	722.391
173.037	14.170	949.662	721.727
174.052	14.224	948.932	721.344
175.067	14.264	948.149	720.857
176.081	14.341	947.362	720.527
177.096	14.156	946.917	719.326
178.110	14.134	946.026	718.492
179.125	14.278	945.080	718.328
180.140	14.210	944.286	717.370
181.154	14.241	943.816	717.082
182.169	14.292	943.148	716.730
183.183	14.379	942.364	716.444
184.198	14.304	941.698	715.552
185.213	14.291	941.134	715.006
186.227	14.328	940.178	714.373
187.242	14.418	939.908	714.494
188.256	14.487	939.136	714.140
189.271	14.458	938.613	713.551
190.286	14.513	937.579	712.939
191.300	14.401	937.130	712.054
192.315	14.219	936.111	710.442
193.329	14.219	935.840	710.172
194.344	14.293	934.879	709.698
195.359	14.297	934.351	709.252
196.373	14.303	934.143	709.053
197.388	14.493	933.009	708.940
198.402	14.349	933.411	708.571
199.417	14.440	932.515	708.212
200.432	14.682	931.441	708.362
201.446	14.591	931.174	707.710
202.461	14.631	931.011	707.693
203.475	14.648	930.244	707.120
204.490	14.745	929.509	706.907
205.504	14.578	928.904	705.682
206.519	14.661	928.256	705.476
207.534	14.614	927.355	704.531
208.548	14.586	926.545	703.735
209.563	14.707	925.787	703.607
210.577	14.676	925.123	702.908
211.592	14.743	924.308	702.511
212.607	14.658	924.022	701.870
213.621	14.849	923.504	702.218
214.636	14.720	922.730	701.029
215.650	14.877	921.743	700.874
216.665	14.722	921.648	700.090
217.680	14.664	921.254	699.483
218.694	14.904	920.382	699.766
219.709	14.993	919.699	699.556
220.723	14.928	918.912	698.627
221.738	14.753	918.664	697.644
222.753	14.948	917.833	697.764
223.767	14.829	917.114	696.658
224.782	14.819	916.169	695.840
225.796	14.940	915.157	695.511
226.811	15.063	914.566	695.512
227.826	14.896	914.017	694.340
228.840	14.943	913.402	694.004
229.855	14.922	912.837	693.426
230.869	15.040	912.062	693.267
231.884	14.941	911.408	692.301
232.899	15.020	910.436	691.826
233.913	15.006	909.896	691.298
234.928	14.988	909.306	690.713
235.942	14.998	908.432	690.030
236.957	14.934	907.511	689.005
237.972	14.992	906.789	688.633
238.986	14.988	906.316	688.198
240.001	14.799	906.552	687.539
241.015	15.070	905.025	687.432
242.030	15.050	904.387	686.803
243.045	15.022	903.767	686.159
244.059	15.033	903.270	685.767
245.074	14.950	902.781	684.993
246.088	15.217	901.772	685.260
247.103	15.135	901.612	684.742
248.117	15.333	900.278	684.477
249.132	15.156	900.240	683.664
250.147	15.236	899.523	683.386
251.161	15.207	898.943	682.768
252.176	15.270	898.572	682.682
253.190	15.437	897.363	682.380
254.205	15.471	896.655	681.922
255.220	15.489	896.212	681.597
256.234	15.545	895.422	681.163
257.249	15.532	894.657	680.469
258.263	15.473	894.315	679.907
259.278	15.479	893.834	679.505
260.293	15.467	893.333	679.018
261.307	15.535	892.826	678.848
262.322	15.557	892.146	678.360
263.336	15.651	891.302	678.035
264.351	15.728	890.504	677.679
265.366	15.588	890.538	677.082
266.380	15.737	889.792	677.055
267.395	15.635	889.089	676.047
268.409	15.650	888.296	675.446
269.424	15.629	887.549	674.736
270.439	15.798	886.663	674.680
271.453	15.747	886.092	673.979
272.468	15.579	885.134	672.518
273.482	15.746	884.683	672.786
274.497	15.575	884.238	671.705
275.512	15.687	883.090	671.220
276.526	15.625	882.807	670.697
277.541	15.688	881.724	670.066
278.555	15.749	881.330	669.951
279.570	15.738	880.808	669.450
280.585	15.729	880.212	668.901
281.599	15.840	879.734	668.922
282.614	15.768	879.206	668.176
283.628	15.994	878.381	668.385
284.643	15.869	877.928	667.485
285.657	15.938	877.730	667.549
286.672	15.890	877.027	666.767
287.687	15.802	876.529	665.979
288.701	15.816	876.289	665.793
289.716	15.982	875.515	665.802
290.730	15.942	874.789	665.032
291.745	15.923	873.828	664.171
292.760	15.879	873.393	663.609
293.774	15.902	872.944	663.298
294.789	16.180	871.712	663.397
295.803	16.069	871.501	662.741
296.818	15.999	871.174	662.159
297.833	16.160	869.852	661.725
298.847	16.064	869.445	660.980
299.862	16.119	868.493	660.417
300.876	16.134	867.770	659.865
301.891	16.072	867.492	659.352
302.906	16.259	866.559	659.318
303.920	16.279	865.702	658.683
304.935	16.181	865.641	658.198
305.949	16.327	864.580	657.900
306.964	16.295	864.236	657.455
307.979	16.319	863.365	656.827
308.993	16.331	862.957	656.508
310.008	16.460	862.327	656.472
311.022	16.386	861.842	655.757
312.037	16.367	861.424	655.307
313.052	16.267	861.104	654.618
314.066	16.350	860.196	654.191
315.081	16.263	859.604	653.345
316.095	16.311	859.058	653.059
317.110	16.514	858.102	653.058
318.125	16.390	857.801	652.292
319.139	16.258	857.539	651.524
320.154	16.334	856.805	651.204
321.168	16.326	856.479	650.869
322.183	16.438	855.889	650.793
323.197	16.487	855.119	650.340
324.212	16.341	855.141	649.737
325.227	16.442	854.260	649.396
326.241	16.473	853.657	648.999
327.256	16.557	852.973	648.743
328.270	16.468	852.351	647.875
329.285	16.586	851.467	647.597
330.300	16.602	850.900	647.170
331.314	16.465	850.519	646.298
332.329	16.569	849.821	646.108
333.343	16.509	849.595	645.648
334.358	16.486	848.910	644.984
335.373	16.663	847.978	644.894
336.387	16.604	847.797	644.475
337.402	16.550	847.582	644.049
338.416	16.662	846.609	643.678
339.431	16.588	846.190	643.020
340.446	16.724	845.493	642.951
341.460	16.831	844.888	642.839
342.475	16.690	844.328	641.821
343.489	16.884	843.564	641.920
344.504	16.820	843.031	641.214
345.519	16.972	842.509	641.333
346.533	16.800	841.926	640.184
347.548	16.921	841.607	640.345
348.562	16.849	841.387	639.846
349.577	16.869	840.803	639.423
350.592	16.841	840.218	638.814
351.606	16.706	839.747	637.890
352.621	16.746	839.109	637.499
353.635	16.857	838.866	637.677
354.650	16.897	838.305	637.344
355.665	16.958	837.607	636.987
356.679	16.882	837.284	636.399
357.694	16.884	836.732	635.932
358.708	16.903	836.659	635.889
359.723	16.952	835.709	635.295
360.738	17.092	835.149	635.337
361.752	17.021	834.882	634.814
362.767	16.935	834.497	634.141
363.781	16.935	834.146	633.818
364.796	17.103	833.489	633.892
365.810	17.092	833.163	633.548
366.825	17.111	832.186	632.820
367.840	17.302	831.805	633.183
368.854	17.358	831.337	632.979
369.869	17.057	831.145	631.659
370.883	17.171	830.446	631.495
371.898	17.223	830.033	631.318
372.913	17.215	829.217	630.612
373.927	17.221	828.920	630.353
374.942	17.248	828.327	629.946
375.956	17.293	827.670	629.557
376.971	17.194	827.229	628.800
377.986	17.318	826.717	628.812
379.000	17.406	825.887	628.452
380.015	17.517	825.233	628.309
381.029	17.568	824.751	628.074
382.044	17.484	824.634	627.619
383.059	17.365	824.090	626.711
384.073	17.442	823.264	626.312
385.088	17.424	822.776	625.818
386.102	17.350	822.412	625.212
387.117	17.362	821.927	624.834
388.132	17.447	821.170	624.516
389.146	17.625	820.202	624.377
390.161	17.523	820.137	623.898
391.175	17.551	819.945	623.797
392.190	17.510	819.790	623.477
393.205	17.573	818.920	622.988
394.219	17.683	818.403	622.943
395.234	17.650	817.832	622.333
396.248	17.612	817.245	621.693
397.263	17.572	816.939	621.259
398.278	17.609	816.372	620.907
399.292	17.565	816.174	620.542
400.307	17.576	815.770	620.221
401.321	17.566	815.074	619.598
402.336	17.535	815.102	619.453
403.350	17.591	814.718	619.310
404.365	17.598	814.157	618.854
405.380	17.777	813.437	618.900
406.394	17.696	813.348	618.484
407.409	17.859	812.627	618.471
408.423	17.973	811.720	618.141
409.438	17.826	811.443	617.342
410.453	17.786	811.450	617.148
411.467	17.890	810.892	617.045
412.482	17.929	810.684	616.973
413.496	17.889	809.629	615.971
414.511	18.094	809.328	616.427
415.526	17.856	809.493	615.639
416.540	17.891	809.009	615.343
417.555	17.918	808.689	615.145
418.569	17.849	808.303	614.545
419.584	17.909	807.355	613.989
420.599	18.042	806.892	614.060
421.613	104.015	1283.023	1439.756
422.628	89.545	1352.396	1439.870
