DTS Sentinel unit serial number:	SN413079Multiplexer serial number:	ORYXHardware model number:	OX4-SRSoftware version number:	ORYX F/W v4.00 Oryx Data Collector v3.7.2.0data status	okinstallation	princeton_trtdifferential loss correction	single-endedforward channel	channel 3reverse channel	N/Adate	2019/09/12time	04:22:10forward acquisition time	60.00reverse acquisition time	0.00gamma	496.2192k internal	0.2324k external	0.2324temperature offset calibration	1.0075default loss term (dB/km)	0.3790temperature slope calibration	1.0000multiplexer offset coefficient	1.0000multiplexer slope coefficient	1.0000fibre end	0.00T internal ref (°C)	31.72T ext. ref 1 (°C)	2.24T ext. ref 2 (°C)	25.31length (m)	temperature (°C)	Stokes	anti-Stokes-747.200	-194.865	-0.068	0.001
-746.185	800.000	-0.043	0.125
-745.171	-90.201	0.103	-0.030
-744.156	162.511	-0.159	0.226
-743.142	-132.105	-0.532	-0.070
-742.127	-160.883	-0.430	-0.023
-741.112	800.000	-0.069	-0.246
-740.098	131.784	0.126	0.164
-739.083	-65.965	0.210	0.085
-738.069	110.252	-0.265	0.321
-737.054	470.246	-0.013	0.030
-736.039	27.268	0.287	-0.243
-735.025	-61.356	-0.170	-0.072
-734.010	265.692	-0.105	-0.186
-732.996	12.520	-0.355	-0.276
-731.981	273.289	-0.080	-0.142
-730.966	223.117	-0.091	0.148
-729.952	-200.000	-0.002	-0.138
-728.937	-200.000	0.041	-0.537
-727.923	371.844	0.134	0.274
-726.908	94.176	-0.182	0.209
-725.894	19.047	-0.137	-0.111
-724.879	15.855	-0.286	-0.227
-723.864	-10.350	0.229	-0.153
-722.850	102.249	-0.051	-0.060
-721.835	-29.682	-0.495	-0.285
-720.821	-200.000	-0.003	-0.496
-719.806	-35.624	-0.267	-0.146
-718.791	-168.496	-0.367	-0.014
-717.777	29.011	0.145	0.124
-716.762	-123.722	-0.143	-0.023
-715.748	101.147	-0.098	-0.115
-714.733	-200.000	0.062	-0.333
-713.718	-46.347	-0.179	0.089
-712.704	245.668	0.073	-0.124
-711.689	314.926	-0.060	-0.114
-710.675	-104.534	-0.097	0.023
-709.660	209.866	0.083	-0.131
-708.645	71.497	-0.137	0.144
-707.631	800.000	-0.029	0.127
-706.616	800.000	-0.070	-0.204
-705.602	125.148	0.116	-0.147
-704.587	-200.000	-0.007	-0.073
-703.572	264.967	-0.255	-0.448
-702.558	7.384	0.363	0.274
-701.543	-176.699	0.142	0.004
-700.529	280.720	-0.035	0.064
-699.514	37.760	0.150	0.134
-698.499	-161.201	-0.493	0.026
-697.485	488.465	0.039	-0.089
-696.470	115.910	0.119	-0.146
-695.456	800.000	0.048	0.141
-694.441	-200.000	-0.014	0.140
-693.426	-49.039	-0.329	-0.159
-692.412	-101.014	0.249	0.062
-691.397	-55.100	-0.301	0.136
-690.383	283.916	0.094	-0.171
-689.368	62.752	-0.315	-0.318
-688.354	-31.334	-0.063	0.036
-687.339	65.924	0.191	-0.195
-686.324	-119.942	0.181	-0.031
-685.310	-121.411	-0.147	0.025
-684.295	-62.368	-0.088	-0.037
-683.281	324.743	-0.044	-0.084
-682.266	-121.338	-0.216	-0.036
-681.251	-200.000	0.024	0.139
-680.237	-200.000	0.040	-0.295
-679.222	399.874	-0.074	-0.157
-678.208	70.810	-0.185	-0.193
-677.193	-146.101	0.266	-0.024
-676.178	108.586	0.231	0.277
-675.164	0.526	-0.178	-0.128
-674.149	-175.241	-0.253	-0.007
-673.135	-200.000	0.052	-0.404
-672.120	18.990	0.380	-0.307
-671.105	800.000	0.017	0.065
-670.091	3.798	-0.048	-0.035
-669.076	-92.415	-0.080	0.023
-668.062	-142.983	0.010	0.001
-667.047	-108.126	-0.304	-0.066
-666.032	-12.316	0.356	0.234
-665.018	-144.183	-0.067	0.006
-664.003	-96.998	-0.085	-0.022
-662.989	800.000	-0.128	-0.408
-661.974	-131.899	-0.179	-0.023
-660.959	175.759	-0.091	-0.133
-659.945	-75.077	-0.140	0.050
-658.930	-184.306	-0.231	0.004
-657.916	-200.000	0.020	0.115
-656.901	-91.136	-0.255	0.074
-655.886	200.931	-0.208	-0.322
-654.872	-200.000	0.024	0.158
-653.857	-62.701	0.184	0.077
-652.843	104.133	0.167	0.197
-651.828	407.018	0.119	-0.252
-650.814	99.964	0.081	-0.095
-649.799	68.534	-0.053	0.055
-648.784	-12.966	0.204	-0.134
-647.770	-200.000	-0.049	0.281
-646.755	195.437	0.324	-0.495
-645.741	-200.000	0.055	-0.447
-644.726	-200.000	0.033	-0.186
-643.711	-103.952	-0.262	-0.061
-642.697	800.000	-0.014	-0.049
-641.682	79.129	0.063	0.068
-640.668	-160.676	-0.475	-0.025
-639.653	-38.604	0.396	-0.210
-638.638	-87.570	0.231	-0.070
-637.624	46.923	0.048	-0.045
-636.609	800.000	-0.070	-0.261
-635.595	-59.982	-0.371	-0.159
-634.580	-21.388	-0.162	-0.099
-633.565	800.000	0.039	0.153
-632.551	800.000	-0.074	0.211
-631.536	-15.991	-0.219	-0.140
-630.522	72.323	0.238	-0.249
-629.507	-188.818	-0.138	-0.002
-628.492	537.221	-0.110	0.262
-627.478	-80.919	0.168	-0.056
-626.463	672.840	-0.080	0.208
-625.449	327.327	-0.047	-0.091
-624.434	290.982	-0.160	-0.292
-623.419	-89.709	-0.309	-0.091
-622.405	-1.358	0.082	-0.058
-621.390	-109.363	0.129	-0.027
-620.376	800.000	0.071	-0.214
-619.361	241.759	0.045	0.075
-618.346	-172.293	0.232	-0.007
-617.332	-54.690	0.138	0.063
-616.317	-77.160	-0.232	0.081
-615.303	295.988	-0.028	-0.052
-614.288	82.136	-0.256	0.279
-613.273	88.231	0.327	-0.364
-612.259	-5.640	0.420	0.289
-611.244	-195.017	-0.259	-0.002
-610.230	229.862	-0.194	-0.319
-609.215	-128.827	-0.174	-0.025
-608.201	-1.115	-0.381	0.270
-607.186	191.171	-0.049	0.073
-606.171	-92.920	-0.358	-0.100
-605.157	-86.124	-0.211	0.065
-604.142	-35.479	0.185	0.101
-603.128	-152.603	-0.232	-0.017
-602.113	-165.983	0.150	-0.006
-601.098	-145.100	0.181	0.017
-600.084	-200.000	0.047	0.242
-599.069	800.000	-0.061	0.206
-598.055	-200.000	-0.016	0.230
-597.040	-56.281	-0.113	0.051
-596.025	-43.119	-0.562	-0.286
-595.011	800.000	-0.063	0.224
-593.996	-200.000	-0.000	0.295
-592.982	-71.694	0.120	0.045
-591.967	121.154	0.068	0.085
-590.952	80.679	0.059	-0.064
-589.938	-126.982	-0.305	0.045
-588.923	-200.000	0.005	-0.215
-587.909	449.747	-0.123	-0.272
-586.894	42.990	0.056	-0.052
-585.879	-48.772	0.446	-0.215
-584.865	212.380	0.135	-0.214
-583.850	-128.624	-0.419	-0.060
-582.836	-128.676	0.326	-0.046
-581.821	-104.537	0.356	0.082
-580.806	-42.642	-0.266	0.136
-579.792	-29.241	0.132	-0.076
-578.777	120.098	0.136	-0.169
-577.763	-50.973	0.230	0.108
-576.748	109.310	-0.132	0.159
-575.733	-124.377	-0.101	-0.016
-574.719	-200.000	-0.035	-0.214
-573.704	115.996	0.085	0.105
-572.690	800.000	-0.085	-0.326
-571.675	148.308	0.103	-0.139
-570.661	-92.107	-0.162	0.046
-569.646	9.631	-0.212	0.161
-568.631	800.000	0.031	-0.106
-567.617	-48.029	0.151	-0.073
-566.602	-76.985	0.265	-0.093
-565.588	172.063	-0.027	-0.039
-564.573	89.903	-0.055	-0.061
-563.558	116.912	-0.135	0.166
-562.544	-121.664	-0.320	-0.053
-561.529	230.522	-0.073	-0.120
-560.515	60.377	-0.142	0.141
-559.500	-133.127	-0.131	0.017
-558.485	146.297	0.219	0.295
-557.471	-78.292	-0.081	-0.028
-556.456	-200.000	-0.047	0.259
-555.442	-126.321	0.080	-0.012
-554.427	-26.773	0.312	-0.183
-553.412	503.570	-0.104	0.241
-552.398	-52.180	-0.166	0.077
-551.383	-157.402	-0.127	0.008
-550.369	800.000	-0.117	0.327
-549.354	49.068	0.136	0.128
-548.339	-20.090	0.240	0.148
-547.325	-200.000	-0.005	-0.301
-546.310	-165.621	-0.073	-0.003
-545.296	-106.637	0.284	-0.063
-544.281	-200.000	0.040	0.378
-543.266	-18.415	-0.241	-0.151
-542.252	243.286	-0.082	0.137
-541.237	413.348	0.078	0.166
-540.223	187.483	0.069	-0.103
-539.208	114.887	-0.161	-0.196
-538.193	535.631	0.094	0.224
-537.179	104.005	0.223	-0.263
-536.164	100.755	-0.114	0.133
-535.150	-37.740	0.051	0.027
-534.135	82.070	0.082	0.089
-533.121	-76.704	0.192	-0.067
-532.106	-200.000	0.065	-0.303
-531.091	253.247	-0.106	0.181
-530.077	13.730	-0.534	0.415
-529.062	129.424	0.288	0.369
-528.048	-200.000	0.014	-0.189
-527.033	-200.000	-0.002	-0.185
-526.018	-200.000	0.004	0.047
-525.004	-141.907	0.189	-0.019
-523.989	49.836	-0.115	-0.109
-522.975	93.319	0.079	0.089
-521.960	179.256	0.030	-0.043
-520.945	-128.764	-0.226	0.032
-519.931	252.436	0.114	0.195
-518.916	800.000	-0.054	-0.158
-517.902	-200.000	0.019	-0.148
-516.887	-14.698	-0.260	-0.167
-515.872	-95.928	0.237	-0.063
-514.858	800.000	0.078	0.237
-513.843	142.261	0.301	0.399
-512.829	-177.437	0.324	0.008
-511.814	557.012	-0.172	-0.416
-510.799	-85.089	-0.322	0.101
-509.785	-148.946	0.203	-0.016
-508.770	81.034	-0.112	0.121
-507.756	5.608	0.194	0.144
-506.741	79.943	-0.194	-0.208
-505.726	7.743	0.241	-0.181
-504.712	466.595	-0.062	0.140
-503.697	84.540	0.221	-0.242
-502.683	13.607	-0.083	0.064
-501.668	-200.000	-0.000	0.207
-500.653	36.498	0.229	0.202
-499.639	-156.339	-0.179	0.011
-498.624	-200.000	-0.016	0.106
-497.610	204.283	-0.088	-0.137
-496.595	5.842	0.389	0.288
-495.581	-86.853	0.220	0.067
-494.566	-76.891	0.199	-0.070
-493.551	-136.267	0.229	-0.027
-492.537	180.088	-0.173	0.254
-491.522	212.434	0.067	0.106
-490.508	-5.451	-0.032	0.022
-489.493	-93.737	-0.149	0.041
-488.478	82.511	-0.202	-0.219
-487.464	-34.182	0.131	0.072
-486.449	54.575	-0.057	-0.055
-485.435	-75.523	-0.449	-0.160
-484.420	446.268	0.048	-0.106
-483.405	101.587	-0.267	0.311
-482.391	-140.937	0.436	0.045
-481.376	-3.114	-0.168	0.117
-480.362	-29.904	-0.150	-0.085
-479.347	-154.027	0.119	-0.008
-478.332	-80.610	0.175	0.058
-477.318	800.000	0.093	0.367
-476.303	-12.592	0.094	0.061
-475.289	800.000	0.041	0.139
-474.274	98.028	-0.272	-0.313
-473.259	0.117	-0.003	0.002
-472.245	-200.000	-0.078	0.436
-471.230	-200.000	0.003	0.174
-470.216	800.000	-0.032	0.131
-469.201	389.212	-0.103	0.214
-468.186	-56.149	-0.259	-0.115
-467.172	122.103	0.130	0.162
-466.157	451.025	0.138	0.305
-465.143	-49.670	0.175	-0.083
-464.128	88.054	0.210	0.232
-463.113	-75.894	-0.317	0.112
-462.099	656.192	0.050	-0.129
-461.084	800.000	0.042	0.160
-460.070	-45.716	-0.056	0.028
-459.055	-90.433	0.265	0.077
-458.040	-57.782	-0.171	0.075
-457.026	-34.196	0.412	-0.226
-456.011	-200.000	-0.042	-0.192
-454.997	-200.000	-0.002	-0.074
-453.982	800.000	-0.018	-0.076
-452.968	487.381	-0.043	0.097
-451.953	-98.880	0.382	0.097
-450.938	-102.461	-0.149	-0.036
-449.924	180.905	0.104	0.152
-448.909	52.674	-0.370	-0.352
-447.895	-42.781	0.131	-0.066
-446.880	56.531	-0.211	-0.205
-445.865	-190.693	-0.372	0.004
-444.851	-101.690	0.134	-0.033
-443.836	-8.494	0.063	0.042
-442.822	-200.000	0.038	0.290
-441.807	135.550	0.148	0.192
-440.792	-127.850	0.140	0.020
-439.778	-115.610	0.375	0.070
-438.763	-143.283	0.306	0.029
-437.749	22.678	0.083	0.068
-436.734	667.300	0.102	-0.264
-435.719	1.374	-0.074	-0.053
-434.705	-25.457	0.247	0.146
-433.690	-200.000	0.036	-0.317
-432.676	115.409	-0.058	0.071
-431.661	-122.130	0.140	-0.023
-430.646	-115.926	-0.135	-0.025
-429.632	169.224	0.113	-0.161
-428.617	-200.000	0.032	0.211
-427.603	25.291	0.237	-0.197
-426.588	800.000	-0.027	-0.087
-425.573	-128.101	0.333	0.048
-424.559	-200.000	-0.079	-0.372
-423.544	-200.000	0.066	0.334
-422.530	-7.231	-0.307	0.207
-421.515	91.845	-0.052	-0.059
-420.500	-28.572	-0.235	-0.135
-419.486	52.952	0.270	-0.257
-418.471	34.165	-0.276	-0.240
-417.457	348.692	-0.050	-0.098
-416.442	150.053	0.227	-0.307
-415.428	-200.000	0.013	-0.255
-414.413	54.252	-0.254	-0.244
-413.398	-124.984	-0.070	-0.011
-412.384	165.030	0.153	-0.216
-411.369	-95.093	-0.138	0.037
-410.355	-86.257	-0.392	0.120
-409.340	-200.000	0.057	-0.289
-408.325	800.000	-0.105	-0.391
-407.311	-29.656	-0.149	-0.085
-406.296	-84.417	-0.221	0.070
-405.282	205.275	-0.215	-0.332
-404.267	800.000	-0.118	0.437
-403.252	-200.000	-0.002	0.083
-402.238	-108.221	-0.173	0.037
-401.223	223.332	0.019	0.031
-400.209	800.000	-0.054	0.185
-399.194	-99.113	-0.205	-0.052
-398.179	-92.095	-0.030	-0.008
-397.165	800.000	-0.050	-0.163
-396.150	164.788	0.041	0.057
-395.136	-200.000	0.006	0.115
-394.121	-200.000	-0.024	-0.146
-393.106	274.480	0.069	-0.121
-392.092	-134.231	0.181	-0.022
-391.077	0.705	0.068	-0.049
-390.063	-200.000	0.046	-0.231
-389.048	13.844	-0.192	0.149
-388.033	106.753	0.153	-0.180
-387.019	-128.502	-0.286	-0.040
-386.004	-91.937	-0.114	0.032
-384.990	79.398	0.261	-0.278
-383.975	-104.689	-0.159	-0.036
-382.960	-101.504	-0.484	0.117
-381.946	800.000	-0.054	0.165
-380.931	-200.000	-0.006	0.086
-379.917	-126.875	-0.329	0.048
-378.902	-133.868	-0.030	-0.004
-377.888	-22.118	0.398	0.240
-376.873	-126.730	-0.093	0.014
-375.858	144.470	0.152	0.203
-374.844	-162.782	0.126	-0.006
-373.829	6.106	-0.066	-0.049
-372.815	-200.000	-0.036	0.286
-371.800	800.000	-0.105	0.373
-370.785	-98.500	0.063	-0.016
-369.771	96.358	-0.096	-0.109
-368.756	800.000	0.055	0.239
-367.742	-200.000	-0.050	0.318
-366.727	81.164	-0.247	0.265
-365.712	-13.475	0.144	0.093
-364.698	-200.000	0.046	0.332
-363.683	-86.459	-0.153	-0.047
-362.669	-20.572	-0.177	0.108
-361.654	79.531	-0.047	0.050
-360.639	-84.659	0.034	-0.011
-359.625	-150.384	-0.260	-0.020
-358.610	122.739	0.272	0.338
-357.596	-139.779	-0.112	0.012
-356.581	-200.000	0.007	-0.229
-355.566	-20.667	-0.217	-0.133
-354.552	257.406	0.090	0.154
-353.537	104.840	0.040	0.046
-352.523	148.489	-0.061	-0.082
-351.508	-200.000	0.002	-0.219
-350.493	800.000	-0.018	-0.060
-349.479	182.658	0.175	-0.256
-348.464	258.409	0.148	0.253
-347.450	-200.000	-0.176	0.000
-346.435	154.473	-0.044	0.060
-345.420	-35.682	0.268	0.145
-344.406	101.147	0.238	0.275
-343.391	-200.000	-0.011	0.239
-342.377	-75.616	-0.163	-0.058
-341.362	146.500	-0.074	-0.098
-340.348	327.849	-0.240	0.458
-339.333	-115.599	-0.125	-0.023
-338.318	381.124	-0.161	-0.329
-337.304	130.127	-0.112	-0.142
-336.289	64.114	-0.229	0.229
-335.275	551.370	0.055	0.131
-334.260	27.404	-0.124	-0.104
-333.245	-200.000	0.004	0.244
-332.231	197.397	-0.117	0.177
-331.216	-57.246	-0.291	0.127
-330.202	-8.242	0.184	-0.123
-329.187	61.158	-0.052	0.051
-328.172	-27.450	-0.200	-0.116
-327.158	-200.000	-0.044	0.332
-326.143	-92.208	0.115	-0.032
-325.129	10.234	-0.184	-0.139
-324.114	-200.000	0.064	0.420
-323.099	-72.938	-0.075	-0.027
-322.085	-200.000	-0.012	0.224
-321.070	-69.703	0.352	0.134
-320.056	746.834	0.073	0.194
-319.041	80.612	0.214	-0.229
-318.026	157.067	0.036	-0.050
-317.012	-44.608	0.499	0.247
-315.997	348.007	-0.147	0.288
-314.983	-117.484	-0.436	-0.078
-313.968	261.908	0.080	0.138
-312.953	107.579	-0.044	0.052
-311.939	71.291	0.095	0.098
-310.924	-200.000	-0.026	0.294
-309.910	-200.000	0.021	0.166
-308.895	-93.950	0.262	-0.072
-307.880	30.050	0.144	0.122
-306.866	87.240	-0.253	-0.278
-305.851	-60.374	0.202	-0.085
-304.837	-200.000	0.041	0.332
-303.822	-117.743	-0.453	0.081
-302.807	38.536	-0.156	-0.138
-301.793	-94.555	-0.191	0.052
-300.778	-200.000	0.045	0.244
-299.764	416.997	0.117	0.248
-298.749	-200.000	0.035	-0.215
-297.735	129.964	-0.068	-0.087
-296.720	-133.178	-0.099	0.012
-295.705	800.000	0.071	-0.228
-294.691	220.258	-0.164	-0.261
-293.676	-139.738	-0.221	0.023
-292.662	800.000	0.030	0.094
-291.647	344.922	-0.101	0.196
-290.632	269.859	0.070	-0.122
-289.618	168.858	0.126	-0.178
-288.603	-200.000	-0.057	0.449
-287.589	3.680	0.194	0.141
-286.574	74.259	0.324	-0.338
-285.559	-184.316	-0.366	-0.006
-284.545	-129.483	-0.033	-0.005
-283.530	-72.976	-0.259	-0.094
-282.516	-121.902	-0.190	0.031
-281.501	-155.804	0.181	-0.011
-280.486	-11.929	0.153	0.099
-279.472	-34.932	0.088	-0.048
-278.457	331.953	0.131	-0.251
-277.443	517.555	0.130	-0.301
-276.428	800.000	-0.026	-0.108
-275.413	176.024	0.130	-0.187
-274.399	89.202	-0.113	0.125
-273.384	-144.786	-0.146	-0.013
-272.370	-43.990	0.293	0.146
-271.355	-109.207	-0.178	-0.038
-270.340	-72.114	-0.067	-0.025
-269.326	-50.268	-0.320	-0.150
-268.311	-187.663	-0.231	-0.003
-267.297	800.000	0.051	-0.202
-266.282	800.000	-0.036	0.121
-265.267	-200.000	0.034	-0.215
-264.253	247.802	-0.066	-0.111
-263.238	-200.000	-0.002	0.063
-262.224	16.343	-0.187	-0.146
-261.209	-23.031	0.230	-0.137
-260.195	118.516	-0.167	-0.204
-259.180	-200.000	0.045	-0.256
-258.165	-44.238	0.264	-0.131
-257.151	219.238	0.114	0.181
-256.136	507.187	0.088	-0.203
-255.122	-114.235	0.060	0.012
-254.107	58.448	0.126	0.123
-253.092	800.000	0.064	-0.218
-252.078	144.975	-0.197	-0.260
-251.063	-200.000	-0.039	-0.229
-250.049	-91.457	-0.033	-0.009
-249.034	17.830	0.133	-0.105
-248.019	132.191	0.209	-0.266
-247.005	-69.276	0.184	0.070
-245.990	-156.546	-0.170	0.010
-244.976	9.518	-0.207	-0.155
-243.961	-147.671	-0.196	0.016
-242.946	-69.883	0.192	0.072
-241.932	-53.165	-0.224	0.102
-240.917	-88.468	-0.058	-0.017
-239.903	20.073	0.313	0.250
-238.888	-119.397	0.411	0.071
-237.873	-39.278	0.337	-0.175
-236.859	-100.114	0.276	-0.068
-235.844	-172.330	-0.143	-0.005
-234.830	-200.000	0.029	0.352
-233.815	-200.000	0.003	0.020
-232.800	-115.341	-0.308	0.057
-231.786	-128.515	0.269	0.038
-230.771	800.000	0.042	0.138
-229.757	-30.807	0.301	0.169
-228.742	-108.485	-0.048	-0.010
-227.727	-62.613	0.196	-0.080
-226.713	-83.469	-0.258	0.082
-225.698	294.037	0.049	-0.089
-224.684	-200.000	0.067	-0.384
-223.669	175.628	-0.067	-0.096
-222.655	800.000	-0.057	-0.219
-221.640	462.482	0.107	-0.237
-220.625	-74.946	-0.275	-0.097
-219.611	232.118	0.048	0.078
-218.596	162.920	0.133	-0.185
-217.582	-200.000	0.003	-0.183
-216.567	239.869	0.119	0.196
-215.552	-200.000	0.009	0.112
-214.538	-92.756	-0.104	-0.029
-213.523	-43.272	0.114	0.057
-212.509	15.574	-0.130	-0.101
-211.494	-168.515	0.207	0.008
-210.479	-7.866	-0.278	0.186
-209.465	190.630	0.152	0.226
-208.450	-200.000	0.004	0.154
-207.436	194.068	-0.034	-0.050
-206.421	-200.000	0.010	-0.318
-205.406	396.414	-0.088	0.181
-204.392	408.694	0.032	-0.067
-203.377	23.708	0.194	0.158
-202.363	461.249	0.096	0.211
-201.348	449.860	-0.134	-0.292
-200.333	-134.950	-0.228	0.027
-199.319	800.000	0.070	0.223
-198.304	3.030	-0.216	0.155
-197.290	219.542	-0.105	-0.165
-196.275	-136.259	-0.166	-0.019
-195.260	119.287	-0.231	0.283
-194.246	-200.000	0.030	-0.159
-193.231	-14.854	0.298	-0.189
-192.217	21.094	-0.081	0.065
-191.202	332.698	0.136	-0.259
-190.187	-99.316	0.232	0.058
-189.173	776.448	0.121	0.328
-188.158	-41.392	-0.293	-0.149
-187.144	-200.000	-0.031	0.134
-186.129	30.246	0.177	-0.150
-185.114	84.022	-0.315	-0.340
-184.100	800.000	-0.049	0.172
-183.085	117.810	-0.165	-0.201
-182.071	800.000	-0.022	-0.081
-181.056	-106.703	0.296	-0.065
-180.042	-131.691	-0.207	-0.027
-179.027	-167.490	0.032	0.001
-178.012	117.609	0.175	-0.212
-176.998	-200.000	-0.015	-0.116
-175.983	182.426	-0.026	0.038
-174.969	-71.239	0.167	-0.062
-173.954	103.775	0.222	-0.257
-172.939	-46.175	-0.190	0.092
-171.925	221.802	0.114	-0.180
-170.910	-84.869	0.275	-0.085
-169.896	-71.086	0.176	0.065
-168.881	261.783	-0.088	-0.150
-167.866	-200.000	-0.039	-0.253
-166.852	73.849	-0.108	0.111
-165.837	-88.702	0.382	-0.112
-164.823	-100.402	0.261	0.064
-163.808	22.846	0.142	0.115
-162.793	337.461	-0.113	-0.217
-161.779	800.000	-0.028	0.112
-160.764	-87.861	0.129	0.038
-159.750	800.000	0.092	-0.316
-158.735	-50.456	0.078	-0.036
-157.720	-32.575	0.314	0.173
-156.706	-37.169	-0.026	0.014
-155.691	593.998	0.110	0.267
-154.677	-180.876	0.398	0.008
-153.662	47.070	-0.170	-0.156
-152.647	17.575	0.084	-0.066
-151.633	-94.697	0.048	-0.013
-150.618	-90.196	0.150	-0.043
-149.604	-200.000	0.003	-0.123
-148.589	-71.749	0.236	-0.087
-147.574	-149.052	-0.250	0.020
-146.560	-38.538	0.116	-0.060
-145.545	99.674	-0.096	0.109
-144.531	800.000	-0.132	-0.389
-143.516	-72.055	0.220	-0.081
-142.502	371.849	-0.084	0.167
-141.487	324.331	0.214	-0.403
-140.472	800.000	-0.048	-0.164
-139.458	241.175	0.093	-0.153
-138.443	-25.187	0.113	0.066
-137.429	-200.000	-0.005	0.126
-136.414	-152.182	-0.086	0.006
-135.399	-103.261	0.152	-0.035
-134.385	-61.361	-0.115	0.048
-133.370	-119.609	0.088	0.015
-132.356	-164.944	-0.234	-0.010
-131.341	-105.937	-0.271	-0.060
-130.326	-23.984	0.174	0.102
-129.312	27.371	0.040	0.033
-128.297	-197.953	0.136	-0.001
-127.283	-35.094	0.106	0.057
-126.268	476.872	-0.098	-0.219
-125.253	264.740	0.116	0.200
-124.239	56.121	0.322	-0.308
-123.224	-164.188	-0.141	-0.006
-122.210	520.724	-0.148	0.343
-121.195	260.230	-0.042	-0.071
-120.180	128.645	0.102	0.128
-119.166	660.644	-0.118	0.298
-118.151	-131.946	0.156	-0.020
-117.137	-200.000	-0.061	-0.349
-116.122	-80.292	-0.261	-0.086
-115.107	-66.666	-0.242	-0.094
-114.093	-14.984	0.177	-0.112
-113.078	149.861	0.282	-0.377
-112.064	196.624	0.015	0.023
-111.049	-187.754	-0.141	-0.002
-110.034	103.820	0.138	-0.159
-109.020	-61.689	0.364	-0.150
-108.005	15.314	0.149	0.115
-106.991	-200.000	-0.021	0.102
-105.976	220.506	-0.100	-0.159
-104.962	603.708	-0.074	-0.181
-103.947	175.523	-0.079	-0.112
-102.932	107.788	0.205	-0.240
-101.918	800.000	-0.046	-0.145
-100.903	292.598	0.161	-0.289
-99.889	55.484	0.149	-0.142
-98.874	186.050	0.093	-0.136
-97.859	800.000	0.133	-0.550
-96.845	-54.410	-0.200	0.089
-95.830	-143.760	-0.380	-0.035
-94.816	-200.000	-0.007	0.270
-93.801	-70.248	-0.076	0.029
-92.786	546.682	-0.152	-0.358
-91.772	-200.000	0.140	0.001
-90.757	786.997	0.021	-0.057
-89.743	-200.000	0.002	0.165
-88.728	-115.671	-0.263	0.048
-87.713	-38.574	0.222	0.115
-86.699	800.000	-0.103	-0.308
-85.684	-55.557	-0.096	0.043
-84.670	-114.899	0.115	0.022
-83.655	-200.000	0.000	0.042
-82.640	13.967	0.328	0.251
-81.626	-38.741	-0.160	0.083
-80.611	-90.426	0.205	-0.058
-79.597	-14.875	-0.288	-0.182
-78.582	204.949	-0.119	-0.182
-77.567	182.271	0.181	-0.262
-76.553	-7.884	-0.014	-0.009
-75.538	800.000	-0.038	-0.124
-74.524	-150.876	0.236	0.018
-73.509	-41.013	-0.186	-0.095
-72.494	316.838	0.094	0.174
-71.480	7.661	0.179	0.132
-70.465	16.861	0.146	-0.114
-69.451	-165.207	0.199	-0.009
-68.436	193.243	-0.251	-0.374
-67.422	-200.000	-0.007	-0.205
-66.407	-134.558	0.155	-0.019
-65.392	54.098	-0.451	0.427
-64.378	762.579	0.066	-0.175
-63.363	330.364	-0.035	0.065
-62.349	-186.473	0.267	-0.004
-61.334	92.006	-0.848	-0.938
-60.319	29.163	0.395	0.330
-59.305	-200.000	-0.084	-0.820
-58.290	278.061	0.531	0.930
-57.276	800.000	0.506	1.404
-56.261	-200.000	97.126	595.750
-55.246	542.275	1373.794	3218.675
-54.232	161.585	2551.923	3508.935
-53.217	112.047	2153.866	2557.163
-52.203	42.433	1697.455	1516.726
-51.188	34.865	1510.188	1298.212
-50.173	32.459	1483.634	1259.261
-49.159	52.100	1533.628	1435.735
-48.144	53.966	1551.229	1464.847
-47.130	35.110	1510.067	1299.564
-46.115	32.094	1495.546	1266.704
-45.100	31.818	1491.993	1261.791
-44.086	31.755	1490.544	1260.090
-43.071	31.609	1488.557	1257.381
-42.057	31.794	1486.521	1256.852
-41.042	31.740	1485.364	1255.461
-40.027	31.717	1483.765	1253.905
-39.013	31.687	1482.860	1252.889
-37.998	31.670	1481.346	1251.451
-36.984	31.733	1480.111	1250.773
-35.969	31.836	1478.357	1249.932
-34.954	31.774	1477.067	1248.377
-33.940	31.743	1476.213	1247.400
-32.925	31.737	1474.584	1245.937
-31.911	31.822	1473.221	1245.297
-30.896	31.815	1471.604	1243.838
-29.881	31.869	1470.360	1243.092
-28.867	31.853	1469.244	1241.996
-27.852	31.724	1467.686	1239.774
-26.838	31.751	1466.548	1238.940
-25.823	31.773	1464.828	1237.581
-24.809	31.779	1462.824	1235.885
-23.794	31.688	1462.003	1234.541
-22.779	31.779	1460.435	1233.765
-21.765	31.812	1459.348	1233.013
-20.750	31.847	1458.148	1232.179
-19.736	31.740	1457.607	1230.971
-18.721	31.759	1456.457	1230.081
-17.706	31.767	1455.048	1228.895
-16.692	31.663	1454.346	1227.571
-15.677	31.633	1453.302	1226.442
-14.663	31.621	1452.251	1225.428
-13.648	31.626	1451.433	1224.719
-12.633	31.642	1450.213	1223.747
-11.619	31.728	1449.298	1223.487
-10.604	31.662	1448.730	1222.531
-9.590	31.523	1448.309	1221.218
-8.575	31.645	1447.391	1221.192
-7.560	31.648	1446.210	1220.169
-6.546	31.633	1445.228	1219.191
-5.531	31.685	1443.957	1218.413
-4.517	31.587	1442.913	1216.844
-3.502	31.758	1441.518	1216.730
-2.487	31.681	1441.383	1216.066
-1.473	31.640	1440.219	1214.770
-0.458	31.685	1438.991	1213.980
0.556	32.285	1429.321	1202.505
1.571	29.431	1404.248	1163.345
2.586	26.648	1348.763	1100.396
3.600	25.581	1270.234	1030.131
4.615	24.538	1224.466	987.161
5.629	21.136	1167.440	923.146
6.644	11.223	1081.188	806.063
7.659	3.487	1039.195	737.795
8.673	2.352	1033.840	728.521
9.688	2.216	1030.881	725.730
10.702	2.160	1029.127	724.162
11.717	2.243	1026.817	722.865
12.731	6.000	1031.572	743.976
13.746	15.790	1045.595	800.830
14.761	23.335	1054.615	843.752
15.775	25.250	1056.870	854.608
16.790	25.653	1056.498	856.149
17.804	25.435	1055.828	854.496
18.819	25.264	1054.630	852.637
19.834	25.397	1054.103	852.768
20.848	25.418	1054.336	852.982
21.863	25.626	1053.715	853.389
22.877	25.629	1052.953	852.712
23.892	25.592	1052.266	851.904
24.907	25.384	1051.807	850.473
25.921	25.625	1050.882	850.788
26.936	25.487	1050.161	849.476
27.950	25.433	1048.955	848.173
28.965	25.584	1047.700	847.792
29.980	25.366	1046.242	845.515
30.994	25.334	1045.402	844.611
32.009	25.544	1044.871	845.091
33.023	25.621	1044.200	844.838
34.038	25.398	1043.113	842.838
35.053	25.432	1041.982	842.007
36.067	25.494	1041.701	841.997
37.082	25.562	1040.670	841.409
38.096	25.536	1040.064	840.721
39.111	25.722	1039.418	840.995
40.126	25.817	1038.483	840.604
41.140	25.741	1037.234	839.167
42.155	25.461	1035.990	836.783
43.169	25.175	1034.693	834.330
44.184	25.013	1034.052	832.986
45.199	25.349	1032.081	832.885
46.213	25.062	1031.850	831.293
47.228	25.028	1031.282	830.602
48.242	25.358	1030.273	831.245
49.257	25.359	1029.737	830.744
50.271	25.390	1028.913	830.147
51.286	25.633	1028.202	830.624
52.301	25.611	1027.606	829.968
53.315	25.763	1026.595	829.778
54.330	25.653	1026.023	828.738
55.344	25.509	1025.090	827.248
56.359	25.551	1024.567	826.945
57.374	25.513	1023.703	825.999
58.388	25.346	1022.379	824.093
59.403	25.290	1022.000	823.454
60.417	25.330	1020.728	822.541
61.432	25.103	1020.609	821.334
62.447	25.191	1019.678	820.915
63.461	25.270	1019.448	821.016
64.476	25.269	1018.398	820.094
65.490	25.263	1017.795	819.507
66.505	25.209	1016.300	817.988
67.520	25.198	1015.478	817.202
68.534	25.386	1014.812	817.452
69.549	25.257	1013.784	815.965
70.563	24.751	1012.868	812.856
71.578	24.796	1012.281	812.515
72.593	24.795	1011.330	811.676
73.607	24.806	1009.977	810.567
74.622	24.757	1009.375	809.791
75.636	24.959	1008.496	809.927
76.651	25.136	1007.963	810.230
77.666	25.059	1006.517	808.649
78.680	24.960	1006.153	807.839
79.695	25.041	1005.855	807.891
80.709	25.045	1004.860	807.036
81.724	25.066	1004.312	806.621
82.739	25.036	1003.536	805.790
83.753	25.157	1002.836	805.702
84.768	25.303	1002.743	806.214
85.782	25.654	1001.890	807.032
86.797	25.746	1001.129	806.759
87.812	25.930	999.818	806.453
88.826	25.705	999.124	804.814
89.841	25.700	998.409	804.146
90.855	25.821	997.798	804.121
91.870	25.907	996.520	803.404
92.884	25.902	995.824	802.749
93.899	25.869	994.527	801.487
94.914	25.559	993.963	799.584
95.928	25.759	993.586	800.099
96.943	25.802	992.579	799.407
97.957	25.587	991.170	797.252
98.972	25.255	989.955	794.730
99.987	25.120	989.302	793.539
101.001	25.218	988.804	793.504
102.016	25.412	988.438	793.998
103.030	25.510	987.547	793.644
104.045	25.490	986.091	792.314
105.060	25.244	985.205	790.451
106.074	25.272	983.910	789.462
107.089	25.136	983.777	788.691
108.103	25.514	983.163	789.788
109.118	25.558	982.248	789.177
110.133	25.398	980.933	787.348
111.147	25.284	979.999	786.030
112.162	25.108	979.084	784.457
113.176	24.990	977.857	782.888
114.191	25.009	977.533	782.645
115.206	25.153	976.271	782.192
116.220	24.927	975.163	780.249
117.235	24.771	974.110	778.658
118.249	24.942	973.785	779.074
119.264	24.830	973.201	778.054
120.279	24.809	972.054	776.977
121.293	24.746	971.388	776.099
122.308	25.020	970.435	776.457
123.322	24.891	969.861	775.371
124.337	24.823	968.956	774.286
125.352	24.895	967.719	773.539
126.366	24.348	966.346	770.012
127.381	24.036	964.837	767.398
128.395	24.718	964.690	770.151
129.410	25.151	964.719	771.968
130.424	25.520	963.552	772.554
131.439	25.545	962.413	771.681
132.454	25.404	961.763	770.485
133.468	25.381	960.893	769.621
134.483	25.236	960.503	768.618
135.497	25.283	959.618	768.046
136.512	25.658	958.703	768.848
137.527	25.731	958.283	768.755
138.541	25.634	957.488	767.636
139.556	25.667	957.026	767.335
140.570	25.720	956.032	766.699
141.585	25.687	955.072	765.722
142.600	25.755	954.515	765.494
143.614	25.731	953.435	764.460
144.629	25.653	953.404	764.037
145.643	26.077	952.103	764.722
146.658	25.907	951.126	763.149
147.673	25.772	949.336	761.075
148.687	25.530	949.070	759.774
149.702	25.489	948.200	758.837
150.716	25.349	946.907	757.146
151.731	25.455	945.666	756.533
152.746	25.504	945.091	756.210
153.760	25.693	944.411	756.394
154.775	25.794	944.056	756.467
155.789	25.857	943.133	755.926
156.804	25.888	942.210	755.250
157.819	25.818	941.295	754.153
158.833	25.776	940.433	753.224
159.848	25.934	939.884	753.375
160.862	25.942	939.029	752.658
161.877	25.791	938.009	751.144
162.892	25.616	937.690	750.093
163.906	25.913	936.854	750.594
164.921	25.874	935.566	749.332
165.935	25.788	934.475	748.034
166.950	25.904	933.635	747.778
167.964	25.858	932.884	746.922
168.979	25.951	931.184	745.877
169.994	25.679	930.280	743.963
171.008	25.639	929.516	743.124
172.023	25.770	929.391	743.498
173.037	25.940	928.433	743.366
174.052	25.766	927.443	741.789
175.067	25.544	926.620	740.152
176.081	25.542	925.796	739.423
177.096	25.547	925.326	738.999
178.110	25.585	924.174	738.170
179.125	25.450	923.025	736.634
180.140	25.318	921.656	734.939
181.154	25.132	921.638	734.098
182.169	25.281	921.360	734.419
183.183	25.598	920.884	735.270
184.198	25.763	920.537	735.604
185.213	25.787	919.812	735.058
186.227	25.626	919.287	733.914
187.242	25.698	918.729	733.697
188.256	25.868	917.616	733.437
189.271	25.868	916.806	732.726
190.286	26.037	916.390	733.012
191.300	25.880	915.429	731.542
192.315	25.236	913.932	727.672
193.329	24.372	912.834	723.233
194.344	24.227	911.080	721.193
195.359	24.847	911.982	724.350
196.373	25.397	912.339	726.798
197.388	25.728	911.895	727.719
198.402	25.646	911.238	726.796
199.417	25.681	910.736	726.475
200.432	25.797	910.170	726.427
201.446	25.609	909.275	724.890
202.461	25.204	908.795	722.810
203.475	25.494	908.045	723.320
204.490	24.959	906.418	719.809
205.504	23.855	904.798	714.029
206.519	24.183	905.186	715.588
207.534	25.269	905.242	719.931
208.548	25.362	904.593	719.722
209.563	25.575	904.722	720.614
210.577	25.786	903.615	720.513
211.592	25.402	903.095	718.500
212.607	25.657	902.725	719.158
213.621	25.863	902.560	719.786
214.636	25.820	901.405	718.633
215.650	25.873	901.042	718.490
216.665	25.894	900.358	717.966
217.680	25.966	899.893	717.817
218.694	25.871	899.780	717.285
219.709	25.607	898.603	715.235
220.723	25.107	897.732	712.491
221.738	25.424	897.359	713.391
222.753	25.602	897.028	713.769
223.767	25.601	895.813	712.736
224.782	25.741	895.397	712.898
225.796	25.836	894.813	712.745
226.811	26.095	893.956	713.024
227.826	25.571	892.894	710.045
228.840	24.889	891.117	705.881
229.855	24.737	890.533	704.756
230.869	24.920	890.504	705.394
231.884	24.775	889.221	703.741
232.899	24.719	889.120	703.380
233.913	25.596	889.334	706.937
234.928	25.710	888.720	706.831
235.942	25.652	887.809	705.817
236.957	25.626	887.426	705.350
237.972	25.409	886.096	703.382
238.986	25.283	885.508	702.360
240.001	25.403	885.209	702.527
241.015	25.340	884.762	701.864
242.030	25.464	884.212	701.853
243.045	25.495	883.579	701.409
244.059	25.769	883.085	702.022
245.074	25.749	882.471	701.394
246.088	25.718	882.232	701.021
247.103	25.343	881.011	698.531
248.117	25.514	880.746	698.923
249.132	25.895	880.670	700.284
250.147	26.345	880.525	701.853
251.161	26.534	879.847	701.984
252.176	26.753	879.084	702.161
253.190	26.495	878.935	700.979
254.205	26.585	878.580	700.982
255.220	26.731	878.152	701.144
256.234	26.730	877.006	700.163
257.249	26.684	876.449	699.480
258.263	26.452	876.105	698.247
259.278	26.363	875.482	697.346
260.293	26.564	874.794	697.511
261.307	26.597	874.653	697.463
262.322	26.578	873.766	696.623
263.336	26.575	873.037	695.966
264.351	25.978	871.696	692.545
265.366	24.910	869.857	686.927
266.380	24.404	869.164	684.377
267.395	25.463	869.201	688.407
268.409	26.193	869.405	691.303
269.424	26.241	868.482	690.692
270.439	26.298	868.433	690.810
271.453	26.469	867.499	690.658
272.468	26.413	866.615	689.682
273.482	26.549	866.748	690.243
274.497	26.700	866.025	690.180
275.512	26.643	864.713	688.856
276.526	25.818	864.188	685.240
277.541	26.052	863.653	685.647
278.555	26.399	863.322	686.641
279.570	26.224	862.777	685.485
280.585	26.100	862.190	684.485
281.599	26.241	861.418	684.347
282.614	26.215	861.255	684.058
283.628	25.826	860.135	681.634
284.643	25.605	859.218	680.015
285.657	25.915	858.991	680.944
286.672	25.882	858.428	680.312
287.687	25.405	857.205	677.484
288.701	25.718	857.361	678.731
289.716	26.135	856.690	679.709
290.730	25.716	856.324	677.780
291.745	25.509	855.861	676.577
292.760	25.538	854.097	675.231
293.774	25.517	853.804	674.860
294.789	26.174	855.069	678.269
295.803	26.961	854.682	680.855
296.818	26.858	854.082	679.931
297.833	26.992	853.925	680.249
298.847	26.828	852.480	678.426
299.862	26.330	851.715	675.895
300.876	26.722	850.916	676.665
301.891	26.848	851.003	677.144
302.906	26.931	850.666	677.126
303.920	26.524	849.064	674.273
304.935	26.612	848.442	674.049
305.949	26.866	848.544	675.014
306.964	26.899	847.796	674.481
307.979	26.667	847.166	673.058
308.993	26.494	846.761	672.034
310.008	27.012	846.377	673.596
311.022	27.083	846.173	673.636
312.037	26.943	845.475	672.499
313.052	26.671	844.635	670.768
314.066	26.825	843.471	670.351
315.081	25.965	842.528	666.365
316.095	25.098	841.090	661.971
317.110	25.697	841.494	664.443
318.125	26.560	841.852	667.850
319.139	26.242	840.336	665.418
320.154	24.954	838.808	659.410
321.168	24.545	837.891	657.128
322.183	25.256	838.461	660.134
323.197	26.171	838.506	663.472
324.212	26.399	838.398	664.168
325.227	26.607	838.024	664.573
326.241	26.639	838.000	664.613
327.256	26.653	837.061	663.863
328.270	26.376	836.346	662.221
329.285	26.241	836.244	661.588
330.300	26.189	834.967	660.328
331.314	25.933	834.297	658.805
332.329	26.038	833.854	658.782
333.343	26.474	833.391	659.948
334.358	26.773	833.228	660.852
335.373	26.818	832.628	660.479
336.387	26.742	832.228	659.827
337.402	26.964	831.826	660.259
338.416	27.277	831.201	660.841
339.431	27.273	830.787	660.438
340.446	27.115	830.105	659.267
341.460	27.427	829.846	660.133
342.475	27.375	829.237	659.401
343.489	27.046	828.568	657.619
344.504	27.146	827.592	657.148
345.519	27.549	827.424	658.413
346.533	27.688	827.184	658.665
347.548	27.538	827.465	658.291
348.562	27.692	826.641	658.131
349.577	27.678	825.685	657.262
350.592	27.496	825.205	656.164
351.606	27.539	825.010	656.108
352.621	27.580	824.233	655.578
353.635	27.537	823.415	654.716
354.650	27.320	823.232	653.731
355.665	27.085	822.200	652.012
356.679	25.978	820.650	646.756
357.694	25.820	820.272	645.835
358.708	26.550	820.071	648.237
359.723	26.538	819.541	647.716
360.738	26.896	819.249	648.708
361.752	27.246	819.251	649.905
362.767	27.348	819.107	650.097
363.781	27.570	818.809	650.596
364.796	27.732	818.737	651.058
365.810	27.942	818.362	651.453
366.825	28.002	817.969	651.297
367.840	28.025	817.552	650.989
368.854	27.841	817.007	649.841
369.869	27.499	815.648	647.487
370.883	27.258	815.159	646.185
371.898	27.481	814.535	646.427
372.913	27.337	813.970	645.408
373.927	27.195	813.650	644.596
374.942	27.532	812.553	644.863
375.956	27.540	812.359	644.678
376.971	27.671	811.839	644.671
377.986	27.723	811.524	644.549
379.000	28.063	810.826	645.137
380.015	27.926	810.651	644.458
381.029	27.814	809.940	643.440
382.044	27.727	809.373	642.627
383.059	28.033	808.709	643.121
384.073	27.935	808.330	642.415
385.088	28.111	807.590	642.390
386.102	27.974	807.342	641.655
387.117	27.766	806.520	640.214
388.132	27.584	806.437	639.454
389.146	27.383	805.226	637.734
390.161	26.935	804.221	635.312
391.175	27.066	803.865	635.434
392.190	27.556	804.426	637.535
393.205	27.603	803.599	636.989
394.219	26.535	801.826	631.801
395.234	24.927	799.693	624.461
396.248	24.112	798.957	620.992
397.263	25.161	799.927	625.348
398.278	27.145	800.921	632.989
399.292	27.380	801.106	633.896
400.307	27.071	800.478	632.270
401.321	27.154	799.763	631.937
402.336	27.246	799.200	631.757
403.350	27.496	799.301	632.650
404.365	27.941	799.543	634.331
405.380	28.335	798.880	635.114
406.394	28.459	798.853	635.465
407.409	28.762	798.450	636.139
408.423	28.695	797.835	635.361
409.438	28.615	797.230	634.546
410.453	28.589	797.275	634.437
411.467	28.804	796.404	634.429
412.482	28.477	795.806	632.770
413.496	28.527	795.289	632.474
414.511	28.817	795.046	633.223
415.526	28.661	794.912	632.523
416.540	28.663	794.575	632.208
417.555	28.512	793.783	631.001
418.569	28.379	792.918	629.800
419.584	28.278	792.438	629.018
420.599	28.365	791.816	628.765
421.613	112.176	1286.313	1460.943
422.628	96.578	1358.357	1461.062
