DTS Sentinel unit serial number:	SN413079Multiplexer serial number:	ORYXHardware model number:	OX4-SRSoftware version number:	ORYX F/W v4.00 Oryx Data Collector v3.7.2.0data status	okinstallation	princeton_trtdifferential loss correction	single-endedforward channel	channel 3reverse channel	N/Adate	2019/09/13time	13:48:35forward acquisition time	60.00reverse acquisition time	0.00gamma	496.2192k internal	0.2302k external	0.2302temperature offset calibration	1.0150default loss term (dB/km)	0.3790temperature slope calibration	1.0000multiplexer offset coefficient	1.0000multiplexer slope coefficient	1.0000fibre end	0.00T internal ref (°C)	35.12T ext. ref 1 (°C)	4.57T ext. ref 2 (°C)	30.95length (m)	temperature (°C)	Stokes	anti-Stokes-747.200	149.138	-0.106	0.146
-746.185	-5.928	0.378	0.264
-745.171	-50.171	-0.206	0.099
-744.156	800.000	0.065	0.237
-743.142	-61.785	-0.294	0.125
-742.127	107.434	-0.248	0.301
-741.112	362.651	0.092	0.188
-740.098	-64.707	0.110	0.045
-739.083	694.774	0.032	-0.085
-738.069	-35.762	-0.199	0.110
-737.054	-9.383	0.271	-0.184
-736.039	289.914	0.087	-0.160
-735.025	98.558	0.156	0.183
-734.010	-18.761	-0.208	-0.132
-732.996	-47.010	-0.472	-0.235
-731.981	-123.905	-0.058	0.009
-730.966	-78.024	-0.135	-0.047
-729.952	-144.040	-0.432	-0.041
-728.937	800.000	-0.102	0.387
-727.923	-200.000	-0.016	-0.261
-726.908	-72.328	-0.177	-0.067
-725.894	12.786	-0.171	0.134
-724.879	-49.183	0.234	-0.114
-723.864	31.340	-0.226	-0.198
-722.850	-114.767	-0.141	0.027
-721.835	-73.000	0.081	0.030
-720.821	517.795	-0.136	-0.324
-719.806	800.000	-0.014	-0.050
-718.791	89.296	-0.138	-0.157
-717.777	800.000	-0.040	-0.137
-716.762	-200.000	0.028	-0.328
-715.748	-137.778	-0.146	0.017
-714.733	-0.239	-0.033	0.024
-713.718	-200.000	-0.017	-0.098
-712.704	-100.806	-0.111	-0.028
-711.689	504.821	0.104	0.245
-710.675	-6.704	0.036	0.025
-709.660	239.127	0.040	-0.067
-708.645	-200.000	0.020	-0.234
-707.631	-59.603	0.131	0.057
-706.616	-80.432	-0.303	0.103
-705.602	204.347	-0.126	-0.199
-704.587	800.000	-0.044	0.152
-703.572	-200.000	-0.006	-0.038
-702.558	104.410	-0.061	0.073
-701.543	-13.411	0.260	-0.171
-700.529	-132.566	0.257	0.034
-699.514	-200.000	0.016	-0.117
-698.499	-31.279	-0.154	-0.088
-697.485	800.000	-0.072	0.304
-696.470	-87.655	-0.321	0.099
-695.456	258.134	-0.104	0.181
-694.441	-76.499	-0.484	-0.173
-693.426	45.414	0.074	-0.069
-692.412	-141.776	-0.380	0.039
-691.397	36.661	0.037	0.034
-690.383	314.102	-0.106	-0.202
-689.368	-56.695	0.301	-0.135
-688.354	427.794	-0.118	0.259
-687.339	-48.258	-0.073	0.036
-686.324	800.000	-0.040	-0.151
-685.310	-21.302	-0.158	0.098
-684.295	227.970	-0.151	-0.250
-683.281	59.474	-0.120	0.120
-682.266	262.437	0.155	-0.274
-681.251	431.535	-0.095	-0.210
-680.237	800.000	0.056	0.183
-679.222	-150.559	-0.116	0.009
-678.208	-127.490	-0.240	0.035
-677.193	178.616	-0.039	-0.058
-676.178	-200.000	0.044	-0.239
-675.164	93.818	-0.202	-0.233
-674.149	-99.875	-0.188	0.048
-673.135	380.870	0.076	-0.159
-672.120	-61.459	-0.076	-0.033
-671.105	-106.730	-0.334	-0.075
-670.091	-200.000	0.006	0.124
-669.076	521.288	-0.161	-0.385
-668.062	-80.326	0.273	0.093
-667.047	-132.747	-0.302	0.039
-666.032	800.000	-0.026	-0.104
-665.018	-200.000	0.009	0.244
-664.003	8.679	-0.077	0.059
-662.989	777.889	-0.074	-0.204
-661.974	23.520	-0.022	-0.019
-660.959	668.135	-0.045	-0.117
-659.945	-60.530	-0.283	-0.122
-658.930	-28.605	-0.250	0.146
-657.916	295.626	0.141	0.263
-656.901	56.872	-0.240	-0.238
-655.886	-170.922	-0.155	0.005
-654.872	-22.520	0.058	-0.036
-653.857	400.351	-0.079	-0.168
-652.843	800.000	0.022	-0.091
-651.828	-135.000	0.321	-0.039
-650.814	161.573	0.108	-0.154
-649.799	425.625	0.068	0.148
-648.784	24.673	-0.117	-0.098
-647.770	117.446	0.228	-0.285
-646.755	800.000	0.110	-0.326
-645.741	124.484	-0.063	0.080
-644.726	-72.016	-0.048	0.018
-643.711	6.985	-0.140	-0.106
-642.697	-0.988	0.085	-0.061
-641.682	-69.678	0.212	-0.082
-640.668	-66.422	-0.293	0.118
-639.653	0.902	0.086	0.062
-638.638	586.549	0.069	-0.173
-637.624	-64.951	-0.278	-0.114
-636.609	107.630	-0.124	-0.150
-635.595	-11.160	0.050	-0.034
-634.580	-118.186	-0.240	-0.043
-633.565	106.692	0.033	0.039
-632.551	-20.885	-0.206	0.128
-631.536	800.000	0.059	0.215
-630.522	-200.000	-0.045	-0.252
-629.507	360.462	-0.137	-0.278
-628.492	-200.000	0.025	-0.178
-627.478	-200.000	0.033	0.242
-626.463	22.121	0.051	-0.042
-625.449	120.475	0.078	0.098
-624.434	-93.749	0.430	0.120
-623.419	114.161	-0.041	-0.050
-622.405	765.627	0.030	-0.084
-621.390	128.537	0.120	-0.155
-620.376	-200.000	0.022	0.224
-619.361	-89.691	-0.290	0.086
-618.346	-160.531	-0.266	-0.014
-617.332	16.880	-0.182	0.146
-616.317	-200.000	0.042	-0.239
-615.303	800.000	-0.074	-0.260
-614.288	-200.000	0.010	0.182
-613.273	-120.409	0.055	0.010
-612.259	-168.278	0.432	-0.017
-611.244	-66.964	0.202	-0.081
-610.230	132.936	-0.157	-0.206
-609.215	13.877	-0.188	-0.148
-608.201	-120.048	-0.202	-0.035
-607.186	-9.038	0.167	0.113
-606.171	-34.500	-0.174	0.097
-605.157	22.333	-0.077	0.064
-604.142	-123.178	0.210	0.034
-603.128	292.558	0.196	0.361
-602.113	142.946	0.012	-0.016
-601.098	83.873	0.065	-0.072
-600.084	-96.351	0.237	0.064
-599.069	-200.000	0.002	0.174
-598.055	14.511	0.091	-0.072
-597.040	87.462	-0.181	0.203
-596.025	-72.373	-0.458	-0.172
-595.011	-200.000	0.132	0.000
-593.996	-6.156	-0.077	-0.053
-592.982	800.000	0.075	-0.260
-591.967	268.859	-0.103	0.184
-590.952	800.000	-0.064	-0.223
-589.938	226.385	-0.079	-0.129
-588.923	103.597	-0.040	0.047
-587.909	-93.320	-0.139	0.039
-586.894	-200.000	0.020	0.326
-585.879	-71.342	0.041	0.016
-584.865	469.799	-0.073	-0.165
-583.850	-36.170	-0.090	-0.049
-582.836	-200.000	0.029	0.317
-581.821	381.512	0.153	0.319
-580.806	429.948	0.063	0.137
-579.792	51.378	0.068	0.065
-578.777	-134.894	0.343	0.042
-577.763	-200.000	-0.000	0.219
-576.748	-200.000	-0.045	-0.234
-575.733	296.570	-0.077	-0.143
-574.719	800.000	0.036	0.102
-573.704	166.139	-0.124	-0.177
-572.690	242.258	0.124	0.210
-571.675	327.866	-0.123	0.238
-570.661	-200.000	-0.029	-0.220
-569.646	-116.987	0.056	0.010
-568.631	-200.000	0.022	-0.181
-567.617	800.000	-0.105	-0.439
-566.602	-46.146	0.083	-0.041
-565.588	-200.000	0.037	0.184
-564.573	-105.983	-0.242	0.055
-563.558	-26.123	0.141	-0.084
-562.544	-200.000	0.009	0.053
-561.529	-106.412	-0.250	0.057
-560.515	27.572	0.053	-0.045
-559.500	571.058	0.024	0.060
-558.485	800.000	-0.040	-0.176
-557.471	-40.300	-0.237	-0.125
-556.456	533.212	0.131	0.314
-555.442	-21.416	-0.142	-0.088
-554.427	116.994	0.089	0.110
-553.412	800.000	-0.115	0.330
-552.398	-82.919	-0.282	0.092
-551.383	-186.523	0.216	0.003
-550.369	-84.692	0.135	0.043
-549.354	96.344	0.071	-0.083
-548.339	-31.740	-0.226	0.128
-547.325	800.000	-0.091	0.257
-546.310	800.000	0.088	0.318
-545.296	800.000	0.022	-0.089
-544.281	-6.037	0.236	-0.163
-543.266	-59.732	0.103	-0.045
-542.252	800.000	-0.092	-0.318
-541.237	276.011	-0.081	0.146
-540.223	55.975	-0.118	0.115
-539.208	-58.160	-0.148	0.065
-538.193	-73.746	-0.352	0.130
-537.179	-30.533	-0.128	0.073
-536.164	800.000	0.051	-0.214
-535.150	462.182	-0.106	-0.239
-534.135	53.007	-0.324	-0.314
-533.121	150.511	-0.022	-0.030
-532.106	199.571	0.192	-0.297
-531.091	67.891	-0.154	-0.159
-530.077	14.678	-0.121	-0.096
-529.062	-200.000	-0.061	-0.279
-528.048	-143.609	-0.285	-0.027
-527.033	-200.000	0.020	0.116
-526.018	800.000	-0.018	0.072
-525.004	18.880	0.183	-0.148
-523.989	800.000	-0.118	0.330
-522.975	466.890	-0.139	0.315
-521.960	24.609	-0.202	0.169
-520.945	-97.930	0.227	-0.059
-519.931	438.649	0.114	0.250
-518.916	50.631	-0.152	0.146
-517.902	325.904	-0.160	-0.309
-516.887	-6.135	0.177	-0.122
-515.872	1.747	0.157	-0.115
-514.858	-164.998	-0.534	-0.024
-513.843	-200.000	0.012	0.355
-512.829	509.765	0.096	0.224
-511.814	407.596	0.086	-0.183
-510.799	283.717	0.044	-0.080
-509.785	-200.000	0.055	-0.288
-508.770	-106.917	-0.236	0.053
-507.756	-200.000	-0.020	0.107
-506.741	-200.000	0.009	-0.094
-505.726	-37.635	0.260	0.140
-504.712	-200.000	0.051	0.309
-503.697	-83.735	-0.102	-0.033
-502.683	-19.181	0.169	0.106
-501.668	-7.537	0.086	-0.059
-500.653	-29.458	0.243	0.141
-499.639	59.373	-0.099	-0.099
-498.624	119.861	-0.041	0.051
-497.610	-126.207	0.060	0.009
-496.595	173.443	-0.244	0.355
-495.581	25.918	-0.126	0.106
-494.566	-200.000	-0.074	-0.363
-493.551	-161.369	-0.053	-0.003
-492.537	-30.442	0.309	-0.177
-491.522	318.946	0.154	-0.295
-490.508	-40.275	-0.175	-0.092
-489.493	36.259	-0.132	0.117
-488.478	81.267	-0.257	0.280
-487.464	147.331	-0.182	-0.248
-486.449	3.183	0.046	-0.033
-485.435	-200.000	-0.061	-0.475
-484.420	-119.878	0.210	0.037
-483.405	382.810	0.121	0.250
-482.391	664.528	-0.004	-0.010
-481.376	-76.473	-0.129	0.046
-480.362	98.258	0.231	0.268
-479.347	-200.000	0.016	-0.073
-478.332	-200.000	0.014	-0.404
-477.318	23.266	-0.260	-0.215
-476.303	800.000	0.089	-0.315
-475.289	-3.684	-0.143	-0.100
-474.274	-28.068	0.261	-0.152
-473.259	89.347	-0.106	0.119
-472.245	-155.044	-0.215	-0.014
-471.230	-126.362	0.120	0.018
-470.216	-49.674	0.213	-0.102
-469.201	-200.000	0.050	-0.381
-468.186	800.000	0.031	-0.131
-467.172	299.194	0.049	0.091
-466.157	-87.633	-0.091	-0.028
-465.143	86.343	-0.087	-0.097
-464.128	-200.000	-0.016	0.124
-463.113	800.000	0.048	-0.170
-462.099	-48.823	0.142	0.069
-461.084	-37.291	0.100	-0.054
-460.070	-157.494	0.228	-0.014
-459.055	147.157	0.108	-0.147
-458.040	800.000	-0.024	-0.084
-457.026	-172.918	0.371	0.012
-456.011	76.323	-0.258	0.275
-454.997	742.870	-0.031	0.085
-453.982	-200.000	-0.053	-0.239
-452.968	-53.209	-0.326	-0.151
-451.953	-138.036	0.069	-0.008
-450.938	-78.740	0.580	-0.199
-449.924	-110.240	-0.197	0.041
-448.909	-147.532	0.063	0.005
-447.895	-32.121	0.213	-0.120
-446.880	353.532	-0.051	-0.103
-445.865	-29.987	0.227	0.130
-444.851	166.532	0.186	0.266
-443.836	-200.000	-0.018	-0.142
-442.822	-100.370	0.066	0.017
-441.807	-200.000	0.047	0.517
-440.792	800.000	-0.064	-0.201
-439.778	800.000	0.028	-0.088
-438.763	-48.997	0.378	-0.182
-437.749	-200.000	0.016	-0.227
-436.734	-121.143	0.411	-0.069
-435.719	14.514	0.120	-0.094
-434.705	696.342	0.023	-0.061
-433.690	-200.000	0.008	0.141
-432.676	800.000	-0.036	0.132
-431.661	720.774	0.028	-0.074
-430.646	-200.000	0.023	0.173
-429.632	223.335	0.081	0.132
-428.617	775.312	0.249	-0.683
-427.603	66.169	-0.203	-0.207
-426.588	525.632	-0.168	0.398
-425.573	800.000	-0.032	0.129
-424.559	-41.323	-0.160	-0.083
-423.544	800.000	-0.069	0.229
-422.530	157.029	0.220	-0.306
-421.515	-200.000	0.019	0.214
-420.500	-15.390	0.016	-0.010
-419.486	-66.302	0.147	-0.059
-418.471	-141.621	-0.218	0.022
-417.457	243.210	0.129	0.217
-416.442	-200.000	-0.012	0.274
-415.428	800.000	-0.065	-0.251
-414.413	800.000	0.077	0.223
-413.398	-200.000	-0.038	0.260
-412.384	-30.180	0.311	0.178
-411.369	-29.647	0.203	0.117
-410.355	-151.911	0.049	0.004
-409.340	453.768	-0.100	-0.223
-408.325	94.527	-0.174	0.199
-407.311	324.060	0.058	0.111
-406.296	800.000	-0.153	-0.564
-405.282	-85.664	-0.095	0.030
-404.267	77.926	-0.040	-0.043
-403.252	174.981	-0.160	-0.233
-402.238	800.000	-0.028	0.112
-401.223	-63.557	-0.193	0.080
-400.209	-51.035	-0.231	-0.109
-399.194	242.115	0.046	0.077
-398.179	-27.639	0.216	0.126
-397.165	-171.401	0.345	0.012
-396.150	267.485	0.109	-0.192
-395.136	-43.989	-0.166	-0.084
-394.121	-79.194	0.182	0.062
-393.106	-93.166	-0.199	0.056
-392.092	32.056	-0.237	0.205
-391.077	-89.942	0.337	-0.099
-390.063	-200.000	0.019	-0.152
-389.048	198.613	-0.134	0.207
-388.033	474.657	-0.043	-0.098
-387.019	-14.014	0.064	0.042
-386.004	238.886	-0.191	-0.320
-384.990	-134.572	0.154	0.019
-383.975	677.155	-0.022	0.057
-382.960	32.928	-0.230	-0.200
-381.946	272.604	-0.162	-0.287
-380.931	318.798	-0.013	0.026
-379.917	95.360	-0.221	0.253
-378.902	22.521	0.267	-0.219
-377.888	-200.000	0.027	0.192
-376.873	137.758	-0.060	0.078
-375.858	-47.854	-0.235	0.114
-374.844	181.977	0.153	-0.226
-373.829	-200.000	0.007	0.043
-372.815	-33.934	-0.047	-0.026
-371.800	434.933	0.083	-0.182
-370.785	190.487	0.135	0.203
-369.771	-136.562	-0.495	-0.058
-368.756	66.210	0.117	0.119
-367.742	800.000	0.046	-0.163
-366.727	800.000	0.027	0.113
-365.712	-19.178	-0.107	0.067
-364.698	-175.808	-0.199	-0.005
-363.683	-40.476	-0.160	0.083
-362.669	800.000	0.035	-0.106
-361.654	32.819	-0.093	-0.080
-360.639	-14.087	-0.086	0.055
-359.625	-62.895	-0.119	0.049
-358.610	472.395	0.040	-0.090
-357.596	-102.511	-0.095	0.023
-356.581	800.000	-0.034	0.151
-355.566	220.766	0.142	-0.229
-354.552	388.232	-0.082	0.170
-353.537	-20.020	0.336	0.208
-352.523	-122.370	0.152	0.025
-351.508	-200.000	0.017	0.095
-350.493	-75.648	-0.128	-0.046
-349.479	800.000	-0.074	0.316
-348.464	134.880	-0.048	-0.062
-347.450	-44.339	0.286	0.144
-346.435	-200.000	0.025	0.280
-345.420	-200.000	-0.037	0.168
-344.406	-115.580	0.102	-0.019
-343.391	249.582	0.166	-0.283
-342.377	-20.483	-0.285	-0.176
-341.362	-55.092	0.075	0.034
-340.348	-200.000	-0.059	-0.359
-339.333	-200.000	0.040	-0.357
-338.318	800.000	-0.054	-0.194
-337.304	47.052	0.195	0.182
-336.289	-99.288	-0.362	0.092
-335.275	-102.599	-0.048	0.011
-334.260	86.683	-0.108	-0.120
-333.245	243.803	-0.170	0.285
-332.231	-135.396	0.109	0.013
-331.216	800.000	-0.041	0.149
-330.202	-26.768	0.374	0.219
-329.187	310.145	-0.066	-0.124
-328.172	-73.391	-0.290	-0.106
-327.158	40.735	-0.075	-0.068
-326.143	233.170	-0.102	-0.169
-325.129	9.359	0.194	0.147
-324.114	54.845	0.185	-0.179
-323.099	-149.600	-0.338	0.027
-322.085	255.985	0.068	0.118
-321.070	237.768	0.084	0.140
-320.056	9.030	-0.117	-0.089
-319.041	-64.798	0.154	-0.063
-318.026	670.046	0.130	-0.337
-317.012	-29.334	-0.268	-0.154
-315.997	-200.000	0.019	0.143
-314.983	-113.197	0.093	0.018
-313.968	-182.074	0.243	0.005
-312.953	341.866	-0.057	0.112
-311.939	-200.000	-0.010	0.251
-310.924	-200.000	-0.049	-0.238
-309.910	364.535	-0.049	-0.099
-308.895	198.024	-0.200	-0.306
-307.880	43.168	0.022	0.020
-306.866	-42.821	0.140	-0.071
-305.851	800.000	0.078	0.282
-304.837	-5.139	0.107	-0.074
-303.822	326.354	0.176	0.338
-302.807	-10.637	-0.208	0.138
-301.793	715.389	-0.052	-0.138
-300.778	-76.548	0.259	-0.091
-299.764	124.472	0.171	0.215
-298.749	-22.833	0.199	-0.120
-297.735	314.911	-0.067	-0.126
-296.720	800.000	0.046	0.184
-295.705	-121.250	-0.346	0.058
-294.691	-116.506	0.224	-0.041
-293.676	-33.486	-0.282	-0.156
-292.662	553.186	-0.146	-0.352
-291.647	13.293	0.157	-0.122
-290.632	-102.829	-0.108	-0.026
-289.618	-177.994	0.461	0.011
-288.603	688.511	-0.113	0.296
-287.589	-64.167	-0.190	-0.078
-286.574	-176.873	0.180	-0.005
-285.559	14.561	-0.110	0.086
-284.545	451.604	-0.094	0.207
-283.530	800.000	0.114	0.488
-282.516	101.397	0.073	-0.085
-281.501	800.000	-0.100	-0.359
-280.486	-100.487	-0.195	-0.048
-279.472	-200.000	-0.011	-0.218
-278.457	-200.000	0.030	-0.254
-277.443	4.898	-0.163	0.120
-276.428	800.000	0.016	0.052
-275.413	800.000	0.168	0.609
-274.399	509.168	-0.067	0.156
-273.384	-200.000	0.041	-0.198
-272.370	-125.502	0.286	-0.043
-271.355	132.141	0.081	0.104
-270.340	25.100	-0.142	-0.118
-269.326	393.645	0.108	-0.224
-268.311	-148.297	0.334	0.027
-267.297	363.141	0.060	-0.121
-266.282	-200.000	-0.003	-0.113
-265.267	145.884	0.194	-0.260
-264.253	-84.874	0.211	-0.066
-263.238	56.752	-0.227	0.221
-262.224	-39.025	0.351	0.185
-261.209	465.420	-0.055	0.123
-260.195	241.207	0.056	0.093
-259.180	677.503	-0.079	0.206
-258.165	-23.381	0.250	0.150
-257.151	800.000	-0.044	-0.167
-256.136	800.000	0.028	0.092
-255.122	465.295	-0.134	-0.300
-254.107	284.245	-0.047	-0.084
-253.092	-105.294	0.332	-0.076
-252.078	-172.510	-0.245	0.008
-251.063	-57.975	0.114	-0.050
-250.049	547.981	-0.013	0.030
-249.034	-200.000	0.015	0.231
-248.019	-42.308	0.086	0.044
-247.005	395.087	-0.109	-0.226
-245.990	-182.641	-0.145	-0.003
-244.976	-200.000	-0.067	0.332
-243.961	299.177	0.096	0.177
-242.946	-110.755	0.271	0.056
-241.932	-133.470	-0.111	-0.014
-240.917	524.345	-0.083	-0.195
-239.903	-200.000	-0.025	-0.316
-238.888	-200.000	-0.052	0.262
-237.873	57.283	-0.189	-0.184
-236.859	-31.896	0.104	0.058
-235.844	-50.630	-0.306	0.144
-234.830	40.320	0.284	-0.255
-233.815	397.920	0.105	0.220
-232.800	800.000	-0.040	-0.156
-231.786	-56.584	-0.267	-0.118
-230.771	-57.785	-0.228	0.099
-229.757	-154.316	0.509	-0.034
-228.742	93.176	0.090	-0.102
-227.727	-169.197	-0.079	-0.003
-226.713	526.644	0.058	-0.135
-225.698	81.330	0.060	0.064
-224.684	101.330	0.239	0.278
-223.669	-127.414	-0.208	-0.030
-222.655	-97.146	0.371	0.097
-221.640	-71.288	0.174	0.065
-220.625	613.669	0.076	0.190
-219.611	-131.257	0.051	0.007
-218.596	594.119	-0.107	-0.264
-217.582	800.000	-0.054	-0.171
-216.567	-74.081	0.233	-0.084
-215.552	-78.347	-0.222	-0.076
-214.538	6.784	0.236	-0.176
-213.523	-200.000	0.020	0.179
-212.509	5.268	0.044	0.032
-211.494	-13.507	0.190	0.123
-210.479	702.932	-0.062	0.162
-209.465	-200.000	-0.111	0.543
-208.450	800.000	-0.063	0.217
-207.436	21.808	-0.206	-0.167
-206.421	229.726	-0.150	0.244
-205.406	-200.000	-0.073	0.338
-204.392	-200.000	0.025	0.133
-203.377	800.000	-0.068	0.213
-202.363	22.061	0.133	-0.108
-201.348	77.622	-0.075	-0.079
-200.333	-158.387	-0.241	-0.014
-199.319	148.859	-0.090	0.121
-198.304	167.779	0.127	-0.180
-197.290	-2.676	0.225	0.157
-196.275	-49.756	-0.267	-0.126
-195.260	-82.438	-0.089	0.029
-194.246	351.028	-0.176	-0.348
-193.231	444.512	-0.173	-0.378
-192.217	73.032	-0.045	0.046
-191.202	170.288	-0.033	0.046
-190.187	580.330	-0.119	0.291
-189.173	-153.416	0.278	-0.019
-188.158	-128.293	-0.412	0.059
-187.144	-165.964	0.191	-0.008
-186.129	-27.673	0.133	-0.077
-185.114	248.236	-0.088	0.148
-184.100	800.000	0.080	0.240
-183.085	482.336	-0.157	0.356
-182.071	373.237	-0.051	-0.104
-181.056	-125.502	-0.111	-0.017
-180.042	-70.989	-0.474	0.178
-179.027	-200.000	-0.029	0.263
-178.012	-200.000	-0.018	-0.161
-176.998	70.455	0.212	-0.218
-175.983	800.000	0.103	-0.369
-174.969	458.603	-0.084	-0.187
-173.954	9.536	0.056	-0.042
-172.939	-14.099	0.163	0.105
-171.925	224.165	-0.141	0.227
-170.910	94.230	0.055	-0.062
-169.896	-176.160	-0.108	0.003
-168.881	625.547	0.028	0.071
-167.866	431.302	-0.136	0.294
-166.852	-148.335	-0.225	0.018
-165.837	-84.166	0.264	0.083
-164.823	-187.931	-0.118	0.002
-163.808	-156.059	0.257	0.016
-162.793	-175.068	0.197	-0.005
-161.779	755.241	-0.086	-0.232
-160.764	-1.403	0.057	0.040
-159.750	-200.000	-0.003	0.039
-158.735	-200.000	-0.036	0.207
-157.720	50.987	0.134	-0.127
-156.706	-10.745	0.147	0.097
-155.691	800.000	0.024	0.074
-154.677	-0.094	0.024	-0.017
-153.662	113.353	0.139	-0.168
-152.647	28.384	-0.281	0.237
-151.633	24.935	0.349	0.288
-150.618	161.811	0.146	-0.204
-149.604	-81.176	-0.286	0.094
-148.589	-136.440	0.250	0.029
-147.574	-200.000	-0.038	-0.210
-146.560	204.299	-0.059	0.091
-145.545	577.508	-0.020	0.049
-144.531	-200.000	-0.071	0.352
-143.516	-49.654	0.254	0.120
-142.502	-200.000	-0.023	0.190
-141.487	-3.186	-0.200	0.139
-140.472	192.573	0.091	-0.136
-139.458	-172.609	-0.133	0.004
-138.443	-17.361	0.166	0.104
-137.429	-121.678	-0.158	0.026
-136.414	800.000	0.103	0.287
-135.399	173.336	-0.110	0.158
-134.385	-85.564	-0.329	0.102
-133.370	5.231	0.073	0.054
-132.356	-200.000	0.066	-0.332
-131.341	761.142	0.025	0.068
-130.326	760.827	0.069	0.186
-129.312	-59.103	0.167	0.072
-128.297	150.694	0.223	0.301
-127.283	-200.000	0.037	0.302
-126.268	800.000	0.111	-0.428
-125.253	-31.518	-0.207	-0.116
-124.239	-200.000	0.018	-0.254
-123.224	136.048	0.101	0.131
-122.210	-15.618	-0.116	-0.074
-121.195	221.965	0.154	-0.246
-120.180	-190.396	-0.099	0.001
-119.166	7.660	-0.163	-0.121
-118.151	232.526	0.114	0.187
-117.137	13.248	-0.107	0.083
-116.122	-2.928	0.253	0.175
-115.107	650.687	0.058	-0.147
-114.093	15.292	0.311	-0.243
-113.078	-62.270	-0.204	-0.085
-112.064	-200.000	0.010	-0.105
-111.049	-113.277	-0.395	-0.077
-110.034	-66.901	0.057	0.022
-109.020	202.188	0.094	0.143
-108.005	-97.703	0.192	-0.050
-106.991	-200.000	-0.004	-0.123
-105.976	10.723	-0.160	0.121
-104.962	-2.163	-0.160	0.111
-103.947	-67.803	-0.233	0.091
-102.932	497.683	0.177	-0.405
-101.918	-116.547	0.314	0.057
-100.903	-109.672	0.268	-0.056
-99.889	-94.064	-0.288	-0.079
-98.874	14.320	-0.388	0.300
-97.859	-114.566	0.329	0.063
-96.845	800.000	0.087	0.310
-95.830	514.058	-0.139	-0.321
-94.816	466.893	0.129	-0.287
-93.801	67.963	0.144	0.146
-92.786	800.000	0.016	-0.052
-91.772	-10.843	-0.507	-0.333
-90.757	416.957	-0.089	-0.189
-89.743	10.733	0.288	-0.219
-88.728	800.000	0.075	-0.275
-87.713	-77.106	0.300	0.104
-86.699	112.728	0.123	-0.148
-85.684	117.220	0.162	0.198
-84.670	544.773	0.102	0.241
-83.655	-84.984	0.567	0.177
-82.640	-200.000	-0.010	0.222
-81.626	-142.072	0.200	0.020
-80.611	80.723	0.169	0.181
-79.597	800.000	0.037	-0.132
-78.582	800.000	0.155	0.429
-77.567	116.110	0.096	-0.116
-76.553	-200.000	0.005	0.170
-75.538	800.000	-0.037	-0.105
-74.524	-200.000	0.027	0.275
-73.509	800.000	-0.041	0.175
-72.494	-200.000	-0.061	-0.354
-71.480	383.499	0.123	0.251
-70.465	-19.683	0.119	-0.073
-69.451	-59.368	0.010	0.004
-68.436	-200.000	-0.023	-0.255
-67.422	285.314	-0.188	-0.336
-66.407	-71.123	0.148	-0.055
-65.392	36.474	0.026	-0.023
-64.378	1.493	-0.164	-0.117
-63.363	800.000	-0.121	-0.344
-62.349	-200.000	-0.004	-0.026
-61.334	46.513	-0.927	-0.854
-60.319	-29.592	0.416	0.236
-59.305	-200.000	-0.034	-0.526
-58.290	36.477	0.693	0.607
-57.276	632.057	0.583	1.464
-56.261	-200.000	94.668	562.448
-55.246	639.480	1382.516	3488.437
-54.232	185.395	2604.644	3835.762
-53.217	121.841	2217.487	2743.648
-52.203	45.774	1749.352	1603.970
-51.188	38.335	1558.572	1376.861
-50.173	35.726	1530.903	1334.289
-49.159	53.409	1581.182	1503.311
-48.144	57.124	1600.209	1547.562
-47.130	38.739	1554.892	1376.234
-46.115	35.356	1539.992	1339.417
-45.100	35.278	1536.180	1335.504
-44.086	35.211	1534.451	1333.481
-43.071	35.220	1532.951	1332.190
-42.057	34.986	1531.297	1329.075
-41.042	35.042	1529.812	1328.121
-40.027	35.163	1527.721	1327.092
-39.013	35.119	1526.952	1326.062
-37.998	35.162	1525.419	1324.980
-36.984	35.117	1524.655	1323.954
-35.969	35.094	1523.528	1322.761
-34.954	35.071	1522.076	1321.290
-33.940	35.071	1520.432	1319.808
-32.925	35.121	1518.895	1318.766
-31.911	35.213	1517.485	1318.124
-30.896	35.172	1516.307	1316.763
-29.881	35.089	1514.871	1314.896
-28.867	35.245	1512.874	1314.179
-27.852	35.128	1511.873	1312.455
-26.838	35.173	1510.355	1311.396
-25.823	35.187	1508.772	1310.064
-24.809	35.201	1507.083	1308.639
-23.794	35.143	1505.820	1307.094
-22.779	35.139	1504.652	1306.005
-21.765	35.191	1503.939	1305.691
-20.750	35.279	1502.318	1304.831
-19.736	35.207	1501.278	1303.381
-18.721	35.148	1500.090	1301.900
-17.706	35.113	1498.845	1300.531
-16.692	35.090	1498.327	1299.874
-15.677	35.021	1497.291	1298.453
-14.663	35.093	1496.068	1297.827
-13.648	35.082	1494.644	1296.467
-12.633	35.106	1493.984	1296.007
-11.619	35.125	1493.406	1295.580
-10.604	35.096	1492.070	1294.178
-9.590	35.144	1491.723	1294.146
-8.575	35.068	1490.880	1292.851
-7.560	35.043	1490.146	1291.997
-6.546	35.201	1488.963	1291.984
-5.531	35.050	1488.392	1290.422
-4.517	35.103	1486.852	1289.387
-3.502	35.149	1486.401	1289.257
-2.487	35.045	1485.135	1287.407
-1.473	35.029	1484.295	1286.522
-0.458	35.096	1482.966	1285.771
0.556	37.292	1473.011	1274.539
1.571	34.096	1445.698	1230.173
2.586	29.839	1381.782	1149.304
3.600	27.598	1296.513	1065.206
4.615	25.274	1248.598	1012.649
5.629	21.261	1190.742	944.002
6.644	12.641	1104.960	832.501
7.659	5.890	1062.070	767.200
8.673	4.766	1056.623	757.730
9.688	4.633	1053.344	754.667
10.702	4.287	1051.854	751.855
11.717	4.605	1050.403	752.293
12.731	7.829	1053.670	770.191
13.746	16.374	1065.835	820.696
14.761	22.105	1072.547	853.723
15.775	22.288	1071.637	853.813
16.790	21.452	1070.158	848.504
17.804	20.467	1067.688	841.705
18.819	19.468	1066.274	835.678
19.834	19.009	1065.016	832.400
20.848	18.924	1064.059	831.164
21.863	18.844	1063.428	830.213
22.877	18.764	1062.436	828.978
23.892	18.612	1061.244	827.241
24.907	18.495	1060.902	826.337
25.921	18.484	1060.196	825.662
26.936	18.400	1059.491	824.635
27.950	18.433	1058.254	823.758
28.965	18.482	1057.030	822.966
29.980	18.735	1055.927	823.252
30.994	18.632	1055.188	822.106
32.009	18.813	1054.250	822.171
33.023	18.878	1053.409	821.755
34.038	18.795	1052.648	820.688
35.053	18.700	1052.107	819.741
36.067	18.684	1050.907	818.657
37.082	18.558	1049.556	816.934
38.096	18.502	1049.493	816.545
39.111	18.751	1048.542	816.916
40.126	18.680	1048.017	816.098
41.140	18.649	1046.587	814.764
42.155	18.439	1044.892	812.378
43.169	18.222	1044.399	810.895
44.184	18.102	1043.150	809.284
45.199	18.105	1042.623	808.821
46.213	18.108	1041.345	807.772
47.228	18.235	1040.121	807.351
48.242	18.487	1039.785	808.206
49.257	18.636	1038.942	808.182
50.271	18.506	1038.076	806.825
51.286	18.640	1036.548	806.193
52.301	18.638	1036.250	805.882
53.315	18.628	1035.126	804.891
54.330	18.558	1034.296	803.843
55.344	18.278	1033.423	801.785
56.359	18.339	1032.026	800.915
57.374	18.297	1031.238	800.036
58.388	18.374	1030.691	799.897
59.403	18.161	1029.899	798.218
60.417	18.150	1028.845	797.281
61.432	18.065	1028.372	796.446
62.447	18.233	1027.708	796.646
63.461	18.105	1026.182	794.799
64.476	17.999	1025.597	793.783
65.490	17.944	1025.113	793.083
66.505	17.986	1023.502	791.961
67.520	17.994	1023.013	791.548
68.534	17.988	1022.787	791.274
69.549	17.964	1021.800	790.329
70.563	17.910	1020.807	789.241
71.578	17.940	1020.333	788.946
72.593	17.893	1018.832	787.497
73.607	17.823	1017.828	786.332
74.622	17.682	1017.002	784.974
75.636	17.837	1016.250	785.038
76.651	17.727	1015.908	784.198
77.666	17.797	1014.824	783.610
78.680	17.807	1014.377	783.246
79.695	17.770	1013.848	782.595
80.709	17.853	1013.186	782.395
81.724	18.025	1012.483	782.572
82.739	18.147	1011.779	782.519
83.753	18.298	1010.675	782.286
84.768	18.376	1010.208	782.207
85.782	18.578	1009.597	782.588
86.797	18.834	1008.955	783.190
87.812	18.863	1008.435	782.847
88.826	18.625	1007.569	781.024
89.841	18.660	1006.540	780.316
90.855	18.684	1005.753	779.745
91.870	18.700	1005.039	779.195
92.884	18.773	1004.613	779.127
93.899	18.684	1003.883	778.089
94.914	18.821	1002.458	777.538
95.928	18.844	1001.644	776.941
96.943	18.838	1001.353	776.620
97.957	18.789	999.926	775.222
98.972	18.606	999.516	774.012
99.987	18.668	998.882	773.732
101.001	18.767	997.926	773.366
102.016	18.731	996.863	772.313
103.030	18.593	996.146	771.070
104.045	18.602	995.490	770.534
105.060	18.816	994.164	770.399
106.074	18.478	993.817	768.545
107.089	18.345	992.364	766.757
108.103	18.096	991.175	764.661
109.118	18.126	989.915	763.755
110.133	17.913	989.602	762.491
111.147	17.887	988.530	761.484
112.162	17.966	987.397	760.897
113.176	18.045	986.941	760.830
114.191	18.091	986.023	760.256
115.206	18.249	985.505	760.493
116.220	18.199	984.613	759.515
117.235	18.120	983.652	758.356
118.249	18.043	982.888	757.359
119.264	18.102	982.034	756.896
120.279	18.005	981.057	755.646
121.293	17.973	980.281	754.842
122.308	17.957	979.274	753.927
123.322	17.762	978.779	752.622
124.337	17.781	977.689	751.798
125.352	17.815	976.206	750.741
126.366	17.981	974.876	750.380
127.381	17.767	974.074	748.760
128.395	17.729	973.274	747.909
129.410	17.852	972.141	747.513
130.424	17.881	971.823	747.327
131.439	17.928	970.597	746.524
132.454	18.177	969.783	746.920
133.468	18.180	969.491	746.643
134.483	18.145	968.647	745.773
135.497	18.273	967.655	745.501
136.512	18.256	967.287	745.077
137.527	18.259	966.447	744.380
138.541	18.205	965.712	743.513
139.556	18.347	964.604	743.210
140.570	18.394	964.009	742.889
141.585	18.581	963.227	743.033
142.600	18.544	963.207	742.791
143.614	18.698	962.292	742.685
144.629	18.628	961.700	741.860
145.643	18.728	960.938	741.640
146.658	18.802	960.074	741.225
147.673	18.678	958.633	739.514
148.687	18.475	957.849	737.967
149.702	18.379	956.799	736.682
150.716	18.361	955.855	735.811
151.731	18.199	955.193	734.542
152.746	18.191	954.530	733.934
153.760	18.298	953.846	733.802
154.775	18.252	953.106	732.970
155.789	18.475	952.084	733.072
156.804	18.403	951.944	732.591
157.819	18.477	950.741	731.916
158.833	18.535	950.261	731.731
159.848	18.637	949.792	731.741
160.862	18.769	949.024	731.643
161.877	18.629	948.839	730.844
162.892	18.468	947.112	728.762
163.906	18.228	946.220	726.994
164.921	18.212	945.850	726.576
165.935	18.228	944.501	725.541
166.950	18.342	943.263	725.010
167.964	18.380	942.678	724.656
168.979	18.484	941.463	724.099
169.994	18.339	940.595	722.757
171.008	18.300	939.487	721.675
172.023	18.365	939.123	721.605
173.037	18.464	938.329	721.348
174.052	18.594	938.074	721.635
175.067	18.632	937.131	721.007
176.081	18.451	936.109	719.397
177.096	18.091	934.904	716.898
178.110	18.146	934.111	716.454
179.125	18.274	933.728	716.634
180.140	18.214	933.128	715.859
181.154	18.276	932.336	715.448
182.169	18.528	931.749	715.987
183.183	18.527	931.308	715.581
184.198	18.725	930.421	715.661
185.213	18.724	929.838	715.146
186.227	18.646	929.307	714.348
187.242	18.681	928.829	714.064
188.256	18.756	928.517	714.072
189.271	18.884	927.482	713.745
190.286	18.825	926.840	712.942
191.300	18.772	925.627	711.726
192.315	18.462	924.299	709.360
193.329	18.072	924.011	707.461
194.344	18.024	923.645	706.921
195.359	18.174	922.944	706.941
196.373	18.425	922.573	707.631
197.388	18.578	921.751	707.569
198.402	18.770	921.093	707.795
199.417	18.882	921.312	708.360
200.432	18.997	920.888	708.447
201.446	19.167	920.337	708.658
202.461	19.111	920.147	708.219
203.475	19.388	919.252	708.606
204.490	19.253	918.809	707.647
205.504	18.872	917.900	705.323
206.519	18.810	916.903	704.241
207.534	18.784	915.980	703.361
208.548	18.791	915.094	702.649
209.563	18.769	914.685	702.182
210.577	18.862	913.989	701.964
211.592	18.836	913.604	701.501
212.607	18.941	912.919	701.341
213.621	19.091	912.500	701.568
214.636	19.006	911.865	700.671
215.650	18.949	911.278	699.927
216.665	18.967	910.895	699.646
217.680	19.066	909.780	699.127
218.694	19.224	909.786	699.713
219.709	19.216	909.330	699.267
220.723	19.362	908.277	698.990
221.738	19.187	908.018	698.016
222.753	19.128	906.875	696.837
223.767	19.120	906.619	696.548
224.782	19.253	905.586	696.231
225.796	19.251	905.444	696.051
226.811	19.367	904.632	695.835
227.826	19.347	903.749	695.012
228.840	19.291	902.765	693.969
229.855	19.173	902.177	692.982
230.869	19.207	901.329	692.406
231.884	19.223	900.909	692.085
232.899	19.005	900.276	690.661
233.913	19.042	898.997	689.768
234.928	18.922	898.523	688.861
235.942	19.012	897.924	688.703
236.957	18.787	897.226	687.206
237.972	18.957	896.228	687.059
238.986	18.912	895.823	686.511
240.001	18.896	895.423	686.078
241.015	18.937	894.716	685.640
242.030	18.977	894.087	685.257
243.045	19.115	893.362	685.188
244.059	19.146	892.607	684.673
245.074	19.051	892.013	683.777
246.088	19.265	891.589	684.245
247.103	19.245	890.962	683.624
248.117	19.421	890.441	683.860
249.132	19.521	890.281	684.074
250.147	19.756	889.797	684.571
251.161	19.873	889.326	684.613
252.176	20.116	888.631	684.976
253.190	20.109	887.917	684.338
254.205	20.187	887.548	684.299
255.220	20.053	887.371	683.575
256.234	20.018	886.134	682.424
257.249	19.905	885.890	681.728
258.263	19.978	885.521	681.673
259.278	20.089	884.165	681.006
260.293	20.048	883.909	680.585
261.307	20.092	883.260	680.200
262.322	20.131	882.881	679.998
263.336	20.217	882.140	679.705
264.351	20.227	881.452	679.154
265.366	20.170	881.281	678.740
266.380	20.286	880.228	678.322
267.395	20.366	879.393	677.931
268.409	20.223	878.635	676.729
269.424	20.153	877.645	675.633
270.439	20.133	877.175	675.133
271.453	20.021	876.491	674.113
272.468	19.919	875.667	673.023
273.482	19.914	874.808	672.282
274.497	19.866	874.604	671.882
275.512	19.933	873.748	671.423
276.526	19.982	872.937	670.929
277.541	19.883	872.678	670.289
278.555	19.993	872.006	670.140
279.570	20.159	871.435	670.282
280.585	20.257	870.860	670.160
281.599	20.260	870.863	670.116
282.614	20.133	870.046	668.936
283.628	20.056	869.317	668.021
284.643	20.113	868.574	667.610
285.657	20.048	867.558	666.520
286.672	20.037	867.636	666.477
287.687	20.207	867.129	666.683
288.701	20.075	866.675	665.769
289.716	20.263	865.582	665.589
290.730	20.076	865.304	664.600
291.745	20.144	864.817	664.429
292.760	20.219	863.956	663.996
293.774	20.288	863.212	663.627
294.789	20.519	863.025	664.309
295.803	20.548	862.406	663.884
296.818	20.319	861.906	662.565
297.833	20.276	860.963	661.619
298.847	20.140	860.250	660.495
299.862	20.302	859.410	660.408
300.876	20.383	858.713	660.121
301.891	20.426	858.403	659.987
302.906	20.495	857.844	659.764
303.920	20.681	857.377	660.050
304.935	20.659	857.018	659.632
305.949	20.799	856.357	659.596
306.964	20.876	855.632	659.272
307.979	20.518	854.658	657.109
308.993	20.614	854.319	657.151
310.008	20.598	854.071	656.842
311.022	20.827	853.223	656.995
312.037	20.823	852.255	656.177
313.052	20.395	852.267	654.517
314.066	20.480	851.370	654.088
315.081	20.332	850.764	653.011
316.095	20.265	849.843	651.993
317.110	20.181	849.722	651.527
318.125	20.299	849.197	651.508
319.139	20.282	848.848	651.119
320.154	20.331	848.099	650.674
321.168	20.176	847.898	649.879
322.183	20.310	847.326	649.886
323.197	20.383	846.887	649.764
324.212	20.475	846.101	649.446
325.227	20.500	845.625	649.118
326.241	20.459	844.953	648.391
327.256	20.373	844.506	647.669
328.270	20.502	843.639	647.431
329.285	20.235	843.285	646.105
330.300	20.371	842.326	645.821
331.314	20.348	842.048	645.463
332.329	20.440	841.238	645.126
333.343	20.587	840.601	645.128
334.358	20.788	840.050	645.391
335.373	20.754	839.808	645.025
336.387	20.714	839.563	644.632
337.402	20.799	838.718	644.237
338.416	20.938	838.259	644.345
339.431	20.948	837.606	643.823
340.446	21.036	837.227	643.798
341.460	21.149	836.849	643.869
342.475	21.235	836.450	643.822
343.489	21.121	836.093	643.068
344.504	21.202	835.123	642.564
345.519	21.325	834.714	642.644
346.533	21.514	834.101	642.809
347.548	21.359	833.740	641.906
348.562	21.029	833.048	640.107
349.577	20.890	832.333	638.989
350.592	20.812	831.636	638.110
351.606	20.736	831.282	637.505
352.621	20.776	830.611	637.080
353.635	20.807	830.234	636.848
354.650	20.832	830.054	636.745
355.665	20.769	829.816	636.277
356.679	20.938	829.257	636.409
357.694	20.994	828.689	636.120
358.708	20.952	828.448	635.727
359.723	21.057	827.405	635.253
360.738	21.055	826.699	634.645
361.752	21.050	826.399	634.343
362.767	21.082	825.733	633.890
363.781	21.176	825.769	634.205
364.796	21.253	825.517	634.234
365.810	21.315	825.423	634.331
366.825	21.449	824.822	634.300
367.840	21.542	824.393	634.249
368.854	21.645	823.923	634.205
369.869	21.319	823.478	632.627
370.883	21.447	822.301	632.127
371.898	21.310	821.909	631.278
372.913	21.406	821.750	631.446
373.927	21.667	820.607	631.451
374.942	21.658	819.859	630.790
375.956	21.591	819.187	629.973
376.971	21.533	819.042	629.599
377.986	21.791	818.520	630.069
379.000	21.800	817.943	629.601
380.015	21.907	817.422	629.528
381.029	21.887	817.326	629.326
382.044	21.736	816.472	628.073
383.059	21.774	815.695	627.553
384.073	21.775	815.360	627.247
385.088	21.776	814.911	626.849
386.102	21.625	814.020	625.568
387.117	21.624	813.313	624.967
388.132	21.336	813.148	623.755
389.146	21.406	812.706	623.613
390.161	21.510	812.168	623.514
391.175	21.677	811.853	623.811
392.190	21.855	811.596	624.193
393.205	21.784	810.644	623.152
394.219	21.659	810.287	622.380
395.234	21.485	809.796	621.328
396.248	21.322	809.655	620.589
397.263	21.377	808.632	619.945
398.278	21.196	808.364	619.042
399.292	21.245	807.845	618.763
400.307	21.288	807.627	618.694
401.321	21.334	807.108	618.405
402.336	21.219	807.039	617.888
403.350	21.483	806.626	618.451
404.365	21.448	805.852	617.678
405.380	21.568	805.819	618.022
406.394	21.724	805.395	618.193
407.409	21.773	805.343	618.272
408.423	21.995	804.469	618.330
409.438	21.969	804.280	618.038
410.453	21.963	803.784	617.580
411.467	22.076	803.450	617.667
412.482	22.264	802.373	617.443
413.496	22.198	802.585	617.320
414.511	22.355	802.014	617.377
415.526	22.204	801.596	616.470
416.540	22.142	801.313	615.983
417.555	22.146	800.467	615.291
418.569	22.032	800.014	614.489
419.584	22.071	799.725	614.351
420.599	22.177	798.948	614.069
421.613	158.607	1368.149	1788.032
422.628	137.626	1451.096	1788.155
